Data from 2937811_Reflection_1.txt Node
Date: Wed Jul 15 17:46:33 EDT 2015
User: robert
Spectrometer: USB4E03001
Autoset integration time: false
Trigger mode: 4
Integration Time (sec): 1.000000E-1
Scans to average: 10
Electric dark correction enabled: true
Nonlinearity correction enabled: false
Boxcar width: 5
Stray light correction enabled: false
XAxis mode: Wavelengths
Stop averaging: false
Number of Pixels in Spectrum: 3648
>>>>>Begin Spectral Data<<<<<
177.566	-390.98
177.785	-26091.67
178.005	-115.62
178.225	-181.98
178.445	-205.18
178.665	-264.2
178.885	24.6
179.105	296.53
179.324	635.13
179.544	-180.15
179.764	-63.27
179.984	-332.97
180.204	3045.58
180.423	-840.95
180.643	7901.45
180.863	2753.18
181.083	883.33
181.302	362.67
181.522	242.8
181.742	333.05
181.961	232.72
182.181	110.15
182.401	246.79
182.621	204.25
182.84	-1159.69
183.06	-2880.53
183.279	211.78
183.499	275.16
183.719	390.43
183.938	131.93
184.158	98.44
184.377	96.99
184.597	64.53
184.816	64.43
185.036	54.48
185.256	41.37
185.475	31.51
185.695	7.44
185.914	-18.62
186.134	-18.51
186.353	-12.48
186.572	-20.61
186.792	-3.79
187.011	7
187.231	-13.18
187.45	-34.7
187.67	-26.39
187.889	-57.17
188.108	-109.34
188.328	-63.39
188.547	-26.96
188.766	-20.55
188.986	48.11
189.205	50.58
189.424	-401.41
189.644	1528.32
189.863	210.27
190.082	617.93
190.302	459.27
190.521	205.52
190.74	1006.73
190.959	-311.43
191.178	733.76
191.398	-467.78
191.617	-26.83
191.836	85.25
192.055	47.73
192.274	49.7
192.494	41.35
192.713	28.64
192.932	28.51
193.151	-60.76
193.37	-1026.94
193.589	-122.79
193.808	-88.17
194.027	135.51
194.246	-47.74
194.465	-225.15
194.685	479.08
194.904	-491.64
195.123	905.65
195.342	735.67
195.561	292.08
195.78	64.81
195.999	-33.17
196.218	135.13
196.436	143.41
196.655	233.98
196.874	255.74
197.093	266.59
197.312	268
197.531	-371.32
197.75	229.99
197.969	177.61
198.188	158.97
198.407	149.84
198.625	378.15
198.844	1254.1
199.063	-7891.67
199.282	-253.37
199.501	3234.33
199.719	229.19
199.938	306.77
200.157	817.11
200.376	-97.94
200.594	-248.24
200.813	-102.93
201.032	-101.63
201.251	-149.22
201.469	-97.31
201.688	-1543.82
201.907	493.33
202.125	-1449.02
202.344	112.58
202.563	219.89
202.781	102.55
203	31.81
203.218	53.18
203.437	52.21
203.656	34.7
203.874	65.57
204.093	10.3
204.311	-0.14
204.53	15.43
204.748	29.14
204.967	19.68
205.185	7.41
205.404	20.93
205.622	-3.11
205.841	-347.88
206.059	-100.46
206.278	-104.17
206.496	-31.9
206.715	-76.51
206.933	-105.28
207.151	-154.45
207.37	-1414.75
207.588	-405.26
207.806	212.73
208.025	74.19
208.243	162.66
208.461	441.08
208.68	1092.74
208.898	-784.1
209.116	-458.68
209.335	3.15
209.553	-572.47
209.771	-211.05
209.989	704.03
210.208	676.39
210.426	1382.82
210.644	366.85
210.862	131.67
211.081	116.63
211.299	108.42
211.517	174.54
211.735	189.38
211.953	212.53
212.171	221.32
212.39	206.1
212.608	232.23
212.826	203.23
213.044	357.31
213.262	1081.92
213.48	523.49
213.698	183425
213.916	229.15
214.134	216.84
214.352	1448.37
214.57	450
214.788	-2709
215.006	1189.66
215.224	-323.47
215.442	-746.44
215.66	-17.71
215.878	14.45
216.096	82.09
216.314	-98.2
216.532	20.45
216.75	-56.75
216.968	-21.17
217.185	-24.55
217.403	-21.83
217.621	-15.37
217.839	-43.28
218.057	-644.8
218.275	219.5
218.492	103.13
218.71	85.27
218.928	68.97
219.146	51.61
219.363	50.78
219.581	58.18
219.799	54.22
220.017	29.29
220.234	6.69
220.452	43.73
220.67	39.49
220.887	13.32
221.105	-153.49
221.323	-72.48
221.54	-264.03
221.758	571.49
221.976	640.02
222.193	-713.26
222.411	588.02
222.629	525.61
222.846	760.57
223.064	243.14
223.281	262.24
223.499	148.69
223.716	118.59
223.934	-17.42
224.151	41.03
224.369	369.42
224.586	821.69
224.804	-357
225.021	-210.84
225.239	-177.88
225.456	-142.51
225.674	-92.56
225.891	-48.49
226.108	-92.71
226.326	-90.98
226.543	-37.32
226.76	-9.9
226.978	24.32
227.195	28.09
227.413	27.99
227.63	22.06
227.847	18.18
228.064	20.1
228.282	20
228.499	10.82
228.716	13.23
228.934	9.36
229.151	2.27
229.368	1.07
229.585	-0.46
229.802	2.48
230.02	6.6
230.237	6.34
230.454	1.65
230.671	-0.4
230.888	5.56
231.105	5.5
231.323	3.92
231.54	7.34
231.757	4.05
231.974	9.83
232.191	1.79
232.408	-6.24
232.625	-11.99
232.842	-8.95
233.059	-5.78
233.276	-6.69
233.493	-4.18
233.71	-6.86
233.927	-2.55
234.144	-1.97
234.361	-6.02
234.578	-9.92
234.795	-3.02
235.012	4.69
235.229	6.98
235.446	7.94
235.663	11.34
235.879	1.12
236.096	4.35
236.313	2.11
236.53	4.27
236.747	4.22
236.964	12.26
237.181	5.12
237.397	-6
237.614	-4.95
237.831	-15.42
238.048	-12.67
238.264	-8.33
238.481	-3.99
238.698	-1.85
238.915	-4.19
239.131	-0.07
239.348	3.13
239.565	7.45
239.781	8.46
239.998	3.03
240.215	5.6
240.431	-2.44
240.648	-1.77
240.865	-4.45
241.081	-1.32
241.298	-1.18
241.514	-0.97
241.731	-1.55
241.947	-0.16
242.164	1.07
242.38	-0.04
242.597	1.88
242.814	2.46
243.03	2.81
243.246	3.91
243.463	2.51
243.679	2.86
243.896	2.94
244.112	3.99
244.329	5.01
244.545	7.58
244.762	7.48
244.978	9.59
245.194	13.55
245.411	12.57
245.627	13.03
245.843	15.31
246.06	15.09
246.276	14.15
246.492	13.5
246.709	12.18
246.925	11.16
247.141	13.14
247.357	11.38
247.574	10.61
247.79	9.52
248.006	10.1
248.222	9.09
248.439	9.12
248.655	8.09
248.871	8.31
249.087	7.93
249.303	9.03
249.519	6.11
249.736	5.16
249.952	4.15
250.168	5.85
250.384	3.6
250.6	3.7
250.816	2.48
251.032	4.38
251.248	0.9
251.464	1.81
251.68	-0.28
251.896	2.59
252.112	5.18
252.328	4.37
252.544	6.12
252.76	4.9
252.976	5.25
253.192	2.95
253.408	3.7
253.624	2.87
253.84	1.84
254.056	0.66
254.272	-1.77
254.487	-5.5
254.703	-5.52
254.919	-7.66
255.135	-6.57
255.351	-5.6
255.567	-4.74
255.782	-7.93
255.998	-1.15
256.214	2.14
256.43	8.51
256.646	6.51
256.861	8.05
257.077	8.65
257.293	8.72
257.508	10.5
257.724	9.5
257.94	11.24
258.155	11.07
258.371	10.84
258.587	10.26
258.802	8.67
259.018	9.61
259.234	11.31
259.449	10.59
259.665	11.19
259.88	11.55
260.096	11.17
260.312	11.91
260.527	12.06
260.743	11.4
260.958	10.39
261.174	9.73
261.389	10.26
261.605	8
261.82	7.41
262.036	6.16
262.251	4.79
262.466	4.29
262.682	2.57
262.897	0.22
263.113	0.05
263.328	1.38
263.543	3.43
263.759	2.56
263.974	4.24
264.189	6.05
264.405	4.4
264.62	4.74
264.835	4.66
265.051	5.37
265.266	7.31
265.481	4.84
265.696	4.62
265.912	3.57
266.127	3.57
266.342	1.08
266.557	-0.44
266.773	2.03
266.988	1.78
267.203	2.53
267.418	1.67
267.633	1.1
267.848	1.56
268.064	2.18
268.279	1.35
268.494	0.67
268.709	3.99
268.924	5.17
269.139	3.35
269.354	3.78
269.569	3.23
269.784	2.67
269.999	3.31
270.214	3.66
270.429	2.93
270.644	3.22
270.859	5.85
271.074	5.11
271.289	5.02
271.504	5.81
271.719	5.9
271.934	5.45
272.149	5.86
272.363	7.05
272.578	7.89
272.793	7.41
273.008	8.94
273.223	7.79
273.438	7.54
273.653	7.66
273.867	9.2
274.082	8.75
274.297	10.34
274.512	10.72
274.726	9.11
274.941	10.7
275.156	11.59
275.371	9.25
275.585	8.09
275.8	7.48
276.015	8.76
276.229	5.29
276.444	3.88
276.659	2.44
276.873	1.72
277.088	2.61
277.302	0.13
277.517	-1.35
277.732	0.74
277.946	-1.05
278.161	0.96
278.375	0.97
278.59	1.91
278.804	1.15
279.019	-0.96
279.233	0.23
279.448	-1.27
279.662	-0.31
279.877	-0.4
280.091	-0.66
280.306	3.78
280.52	1.89
280.735	-0.21
280.949	0.09
281.163	2.75
281.378	4.3
281.592	4.59
281.806	5.92
282.021	5.44
282.235	4.9
282.449	4.84
282.664	3.7
282.878	4.88
283.092	6.12
283.307	7.1
283.521	6.64
283.735	4.71
283.949	4.8
284.164	5.9
284.378	5.98
284.592	9.2
284.806	9.64
285.02	11.86
285.234	11.63
285.449	11.43
285.663	10.87
285.877	11.07
286.091	11.76
286.305	10.86
286.519	8.74
286.733	8.8
286.947	5.88
287.161	4.9
287.375	2.5
287.589	1.55
287.803	0.58
288.017	0.6
288.231	0.04
288.445	0.94
288.659	1.87
288.873	4.21
289.087	5.18
289.301	7.81
289.515	8.83
289.729	9.7
289.943	9.98
290.157	11.65
290.371	10.88
290.584	12.51
290.798	12.16
291.012	11.32
291.226	10.45
291.44	9.61
291.654	8.76
291.867	8.94
292.081	7.3
292.295	8.01
292.509	6.92
292.722	7.66
292.936	5.75
293.15	6.29
293.364	6.32
293.577	7.23
293.791	6.37
294.005	5.45
294.218	2.53
294.432	4.03
294.645	4.03
294.859	4.77
295.073	3.97
295.286	4.24
295.5	4.24
295.713	4.44
295.927	4.09
296.14	5.03
296.354	5.66
296.568	6.4
296.781	7.01
296.994	7.87
297.208	8.32
297.421	9.65
297.635	9.44
297.848	8.69
298.062	8.6
298.275	9.1
298.489	9.45
298.702	9.63
298.915	11.22
299.129	10.09
299.342	9.03
299.555	8.82
299.769	8.22
299.982	8.41
300.195	9.69
300.409	9.6
300.622	7.09
300.835	6.8
301.048	7.06
301.262	7.13
301.475	7.36
301.688	7.23
301.901	5.85
302.115	4.62
302.328	4.97
302.541	6.6
302.754	6.45
302.967	10.8
303.18	12.97
303.393	12.68
303.607	12.54
303.82	13.7
304.033	13.61
304.246	13.52
304.459	13.6
304.672	13.38
304.885	12.06
305.098	12.69
305.311	10.69
305.524	9.38
305.737	8.45
305.95	7.8
306.163	5.41
306.376	6.84
306.589	7.9
306.802	6.74
307.015	5.6
307.228	3.65
307.44	3.57
307.653	2.29
307.866	1.22
308.079	2.34
308.292	1.08
308.505	3.56
308.718	5.4
308.93	5.59
309.143	8.44
309.356	10.57
309.569	9.99
309.781	11.38
309.994	10.62
310.207	10.5
310.42	10.37
310.632	11.38
310.845	11.68
311.058	9.15
311.27	8.19
311.483	8.43
311.696	6.8
311.908	8.09
312.121	6.48
312.333	7.57
312.546	6.93
312.759	7.22
312.971	6.14
313.184	4.16
313.396	4.69
313.609	4.31
313.821	4.13
314.034	3.87
314.246	1.3
314.459	1.75
314.671	1.6
314.884	2.47
315.096	1.13
315.309	-1.16
315.521	0.3
315.733	0.24
315.946	-0.8
316.158	-1.97
316.371	0.39
316.583	2.1
316.795	2.3
317.008	3.63
317.22	3.59
317.432	3.82
317.644	6.1
317.857	5.22
318.069	4.14
318.281	5.59
318.494	3.55
318.706	2.78
318.918	5.88
319.13	5.36
319.342	6.34
319.555	5.61
319.767	7.74
319.979	6.75
320.191	9
320.403	9.62
320.615	10.63
320.827	10.86
321.039	10.63
321.252	9.98
321.464	9.85
321.676	9.61
321.888	11.71
322.1	9.46
322.312	10.67
322.524	8.54
322.736	8.48
322.948	7.62
323.16	10.24
323.372	9.98
323.584	8.93
323.796	8.39
324.007	7.25
324.219	4.94
324.431	6.35
324.643	6.6
324.855	8.03
325.067	7.54
325.279	8.55
325.491	8.68
325.702	9.61
325.914	9.47
326.126	10.19
326.338	9.75
326.55	10.64
326.761	9.66
326.973	9.28
327.185	8.5
327.396	9.36
327.608	8.9
327.82	7.5
328.032	6.66
328.243	7.27
328.455	6.63
328.666	5.44
328.878	7.48
329.09	8.13
329.301	9.16
329.513	8.18
329.725	8.66
329.936	9.88
330.148	10.47
330.359	10.82
330.571	10.9
330.782	12.15
330.994	13.65
331.205	11.86
331.417	11.23
331.628	10.75
331.84	12.94
332.051	12.35
332.262	13.17
332.474	11.98
332.685	9.79
332.897	8.53
333.108	8.18
333.319	6.81
333.531	6.15
333.742	8.4
333.953	8.91
334.165	7.2
334.376	7.63
334.587	5.36
334.799	7.25
335.01	9.37
335.221	9.06
335.432	6.64
335.644	8.26
335.855	6.91
336.066	6.86
336.277	5.74
336.488	6.02
336.7	6.15
336.911	8.57
337.122	8.54
337.333	7.91
337.544	8.57
337.755	11.81
337.966	11.16
338.177	11.8
338.388	10.07
338.599	10.88
338.811	11.42
339.022	12.62
339.233	9.18
339.444	8.04
339.655	8.55
339.866	8.03
340.076	7.35
340.287	6.27
340.498	7.76
340.709	8.69
340.92	9.21
341.131	10.4
341.342	7.78
341.553	8.37
341.764	8.21
341.975	9.32
342.185	10.14
342.396	9.49
342.607	12.43
342.818	11.9
343.029	10.84
343.239	10.62
343.45	10.15
343.661	10.58
343.872	11.72
344.082	12.49
344.293	11.67
344.504	12.62
344.714	12.79
344.925	11.63
345.136	11.85
345.346	11.78
345.557	13.02
345.768	11.74
345.978	12.55
346.189	12.8
346.399	11.55
346.61	11.32
346.821	10.38
347.031	10.38
347.242	7.58
347.452	7.99
347.663	8.75
347.873	6.33
348.084	7.93
348.294	6.37
348.504	6.19
348.715	8.16
348.925	8.91
349.136	10.13
349.346	9.13
349.557	11.4
349.767	11.54
349.977	11.39
350.188	12.21
350.398	11.54
350.608	12.59
350.819	12
351.029	10.23
351.239	9.38
351.449	8.95
351.66	8.28
351.87	8.53
352.08	8.36
352.29	7.12
352.501	7.47
352.711	7.33
352.921	6.09
353.131	6.41
353.341	7.42
353.552	7.02
353.762	7.14
353.972	9.39
354.182	11.19
354.392	11.52
354.602	12.43
354.812	11.26
355.022	11.93
355.232	13.47
355.442	14.04
355.652	13.92
355.862	14.53
356.072	13.8
356.282	13.43
356.492	12.16
356.702	10.83
356.912	11.25
357.122	11.72
357.332	11.37
357.542	10.6
357.752	10.4
357.962	10.11
358.171	9.77
358.381	9.39
358.591	9.22
358.801	9.56
359.011	10.12
359.221	9.23
359.43	10.46
359.64	9.58
359.85	9.59
360.06	8.92
360.269	9.76
360.479	8.98
360.689	9.63
360.899	8.84
361.108	8.6
361.318	8.78
361.528	9.7
361.737	9.14
361.947	9.55
362.156	9.4
362.366	9.21
362.576	8.9
362.785	9.74
362.995	10.37
363.204	11.04
363.414	10.78
363.623	10.75
363.833	10.03
364.042	9.43
364.252	10.63
364.461	10.81
364.671	11.18
364.88	10.91
365.09	10.38
365.299	9.76
365.509	9.96
365.718	10.88
365.927	10.55
366.137	10.74
366.346	10.97
366.555	9.34
366.765	10.36
366.974	10.94
367.183	10.58
367.393	10.3
367.602	9.3
367.811	8.56
368.021	8.83
368.23	8.97
368.439	8.08
368.648	7.44
368.857	6.58
369.067	5.42
369.276	4.76
369.485	4.8
369.694	4.56
369.903	4.38
370.112	4.75
370.321	3.62
370.531	3.8
370.74	4.94
370.949	5.49
371.158	7.39
371.367	6.91
371.576	7.12
371.785	7.53
371.994	8.41
372.203	9.33
372.412	9.8
372.621	9.45
372.83	9.52
373.039	8.72
373.248	8.62
373.457	7.78
373.666	8.77
373.874	9.47
374.083	9.56
374.292	9.41
374.501	9.34
374.71	7.96
374.919	8.34
375.128	8.48
375.336	9.69
375.545	9.91
375.754	9.78
375.963	9.02
376.171	8.03
376.38	7.61
376.589	7.21
376.798	7.05
377.006	7.57
377.215	7.73
377.424	7.33
377.632	6.52
377.841	6.21
378.05	7.1
378.258	7.32
378.467	7.28
378.675	7.14
378.884	7.29
379.093	7.22
379.301	7.79
379.51	8.19
379.718	8.79
379.927	9.6
380.135	9.89
380.344	9.45
380.552	10.06
380.761	10.28
380.969	11.87
381.177	12.21
381.386	12.78
381.594	12.65
381.803	13.07
382.011	12.49
382.219	12.42
382.428	12.32
382.636	11.78
382.845	11.48
383.053	11.11
383.261	9.05
383.469	8.82
383.678	8.2
383.886	8.18
384.094	7.25
384.302	7.19
384.511	6.92
384.719	6.72
384.927	6.97
385.135	6.91
385.343	7.4
385.552	7.65
385.76	7.1
385.968	6.7
386.176	6.76
386.384	6.63
386.592	7.22
386.8	7.1
387.008	6.9
387.216	7.13
387.424	6.67
387.633	6.02
387.841	6.32
388.049	6.67
388.257	6.8
388.465	6.51
388.672	6.42
388.88	5.21
389.088	4.49
389.296	4.77
389.504	4.16
389.712	4.64
389.92	5.2
390.128	5.12
390.336	5.33
390.544	5.77
390.751	5.73
390.959	5.67
391.167	5.83
391.375	6.01
391.583	6.14
391.79	6.17
391.998	5.87
392.206	5.38
392.414	5.26
392.621	4.7
392.829	4.26
393.037	4.36
393.244	4.29
393.452	4.62
393.66	4.69
393.867	4.74
394.075	4.83
394.283	4.66
394.49	4.85
394.698	4.94
394.905	4.98
395.113	5.19
395.32	5.19
395.528	5.26
395.735	5.41
395.943	5.4
396.15	5.26
396.358	5.39
396.565	5.41
396.773	5.48
396.98	5.17
397.188	5.32
397.395	5.28
397.602	4.76
397.81	4.88
398.017	4.35
398.225	4.31
398.432	4.25
398.639	4.1
398.847	4.49
399.054	4.54
399.261	4.9
399.468	4.95
399.676	4.81
399.883	5.12
400.09	4.92
400.297	5.34
400.505	5.85
400.712	5.67
400.919	5.69
401.126	5.18
401.333	5.42
401.54	5.56
401.748	5.54
401.955	5.49
402.162	5.37
402.369	5.36
402.576	5.67
402.783	5.21
402.99	5.15
403.197	5.22
403.404	5.34
403.611	4.98
403.818	4.76
404.025	4.84
404.232	4.87
404.439	4.83
404.646	5.13
404.853	4.84
405.06	4.72
405.267	4.93
405.474	4.99
405.681	5
405.887	5.09
406.094	5.08
406.301	5.23
406.508	5.3
406.715	5.88
406.922	5.8
407.128	5.78
407.335	6.11
407.542	5.75
407.749	5.27
407.955	5.68
408.162	5.8
408.369	5.74
408.575	5.6
408.782	5.5
408.989	5.15
409.195	4.97
409.402	4.89
409.609	4.75
409.815	4.66
410.022	5.08
410.228	4.77
410.435	4.87
410.642	5.23
410.848	4.88
411.055	5.05
411.261	5.09
411.468	5.2
411.674	5.06
411.881	4.8
412.087	5.18
412.294	4.81
412.5	4.84
412.706	4.52
412.913	4.02
413.119	4.16
413.326	4
413.532	4.07
413.738	3.8
413.945	3.89
414.151	3.9
414.357	3.66
414.564	4.04
414.77	3.89
414.976	3.9
415.182	4
415.389	4.09
415.595	3.98
415.801	3.88
416.007	3.98
416.214	4.02
416.42	4.28
416.626	4.44
416.832	4.43
417.038	4.75
417.244	4.94
417.45	5
417.657	4.71
417.863	4.78
418.069	4.76
418.275	4.92
418.481	4.94
418.687	5.03
418.893	4.85
419.099	4.77
419.305	4.45
419.511	4.44
419.717	4.59
419.923	4.9
420.129	4.94
420.335	5.07
420.541	4.91
420.746	4.95
420.952	4.93
421.158	4.95
421.364	4.96
421.57	5.08
421.776	4.98
421.982	4.96
422.187	4.86
422.393	4.92
422.599	4.92
422.805	4.9
423.01	4.83
423.216	4.88
423.422	5.01
423.628	4.97
423.833	5
424.039	5.07
424.245	5.12
424.45	5.01
424.656	4.97
424.862	4.92
425.067	5.15
425.273	5.11
425.478	4.89
425.684	4.85
425.889	4.78
426.095	4.72
426.301	4.77
426.506	4.48
426.712	4.77
426.917	4.92
427.123	4.82
427.328	4.42
427.533	4.44
427.739	4.79
427.944	4.62
428.15	4.87
428.355	4.69
428.561	4.34
428.766	4.45
428.971	4.28
429.177	4.19
429.382	4
429.587	4.16
429.793	4.12
429.998	3.66
430.203	3.57
430.408	3.3
430.614	3.53
430.819	3.69
431.024	3.63
431.229	3.69
431.434	3.59
431.64	3.66
431.845	3.86
432.05	3.92
432.255	4.04
432.46	4.19
432.665	4.37
432.87	4.21
433.076	4.36
433.281	4.42
433.486	4.15
433.691	4.25
433.896	4.34
434.101	4.37
434.306	4.49
434.511	4.62
434.716	4.74
434.921	4.78
435.126	4.7
435.331	4.48
435.535	4.54
435.74	4.82
435.945	4.79
436.15	4.74
436.355	4.47
436.56	4.42
436.765	4.35
436.97	3.99
437.174	3.9
437.379	4
437.584	4.28
437.789	4.28
437.993	4.3
438.198	4.17
438.403	4.22
438.608	4.27
438.812	4.12
439.017	4.16
439.222	4.66
439.426	4.37
439.631	4.43
439.836	4.2
440.04	4.22
440.245	4.13
440.45	4.11
440.654	4.04
440.859	4.2
441.063	4.4
441.268	4.52
441.472	4.41
441.677	4.71
441.881	4.63
442.086	4.77
442.29	4.69
442.495	4.65
442.699	4.68
442.904	4.63
443.108	4.55
443.312	4.34
443.517	4.06
443.721	3.9
443.925	3.88
444.13	4.03
444.334	3.97
444.538	3.72
444.743	3.85
444.947	3.76
445.151	3.79
445.356	3.83
445.56	3.85
445.764	3.91
445.968	3.92
446.173	3.82
446.377	3.68
446.581	3.76
446.785	3.95
446.989	4.02
447.193	4.17
447.398	4.19
447.602	4.16
447.806	4.29
448.01	4.23
448.214	4.25
448.418	4.32
448.622	4.52
448.826	4.31
449.03	4.31
449.234	4.1
449.438	4
449.642	4.19
449.846	4.26
450.05	4.09
450.254	4.11
450.458	4.08
450.662	3.98
450.866	3.9
451.069	4.03
451.273	3.97
451.477	3.97
451.681	4.08
451.885	3.94
452.089	3.89
452.292	4.14
452.496	4.22
452.7	4.17
452.904	4.07
453.107	4.08
453.311	4.1
453.515	4.27
453.719	4.22
453.922	3.98
454.126	3.95
454.33	3.69
454.533	3.6
454.737	3.61
454.94	3.96
455.144	4.22
455.348	4.09
455.551	4.14
455.755	4.02
455.958	4.16
456.162	4.45
456.365	4.51
456.569	4.66
456.772	4.5
456.976	4.33
457.179	4.07
457.383	4.06
457.586	4.11
457.79	3.94
457.993	3.98
458.196	3.92
458.4	3.67
458.603	3.6
458.807	3.64
459.01	3.81
459.213	3.96
459.417	3.89
459.62	3.74
459.823	3.74
460.026	3.85
460.23	3.96
460.433	3.98
460.636	4.15
460.839	4.2
461.042	4.2
461.246	4.17
461.449	3.91
461.652	4.05
461.855	4.14
462.058	4.25
462.261	4.37
462.464	4.16
462.668	4.15
462.871	4.02
463.074	4.01
463.277	3.92
463.48	3.81
463.683	4.02
463.886	4.01
464.089	4.04
464.292	3.92
464.495	3.59
464.698	3.54
464.901	3.7
465.104	3.73
465.306	3.66
465.509	3.75
465.712	3.85
465.915	3.98
466.118	3.69
466.321	3.6
466.524	3.49
466.726	3.7
466.929	3.8
467.132	3.76
467.335	3.76
467.538	3.77
467.74	3.88
467.943	3.79
468.146	3.67
468.348	3.94
468.551	3.96
468.754	4.04
468.956	3.9
469.159	4
469.362	3.85
469.564	3.86
469.767	3.63
469.969	3.57
470.172	3.51
470.375	3.58
470.577	3.55
470.78	3.71
470.982	3.71
471.185	3.77
471.387	3.55
471.59	3.67
471.792	3.66
471.995	3.71
472.197	3.65
472.399	3.77
472.602	3.9
472.804	3.77
473.007	3.6
473.209	3.62
473.411	3.52
473.614	3.56
473.816	3.63
474.018	3.56
474.22	3.88
474.423	3.8
474.625	3.75
474.827	3.34
475.03	3.47
475.232	3.54
475.434	3.53
475.636	3.64
475.838	3.83
476.04	3.6
476.243	3.66
476.445	3.64
476.647	3.73
476.849	3.76
477.051	4.21
477.253	4.09
477.455	4.04
477.657	3.95
477.859	3.99
478.061	4.02
478.263	4.11
478.465	4.13
478.667	4.12
478.869	4.14
479.071	4.21
479.273	3.93
479.475	4.07
479.677	4.19
479.879	4.26
480.081	4.21
480.283	3.95
480.485	4.12
480.686	4.17
480.888	3.99
481.09	3.94
481.292	3.82
481.494	3.8
481.695	3.79
481.897	3.74
482.099	3.88
482.301	3.97
482.502	4.04
482.704	3.97
482.906	3.95
483.107	3.97
483.309	3.97
483.511	4.07
483.712	4.17
483.914	4.14
484.115	4.16
484.317	4.13
484.519	4.1
484.72	4.08
484.922	4.1
485.123	4.11
485.325	4.19
485.526	4.25
485.728	4.21
485.929	4.14
486.131	4.19
486.332	4.19
486.534	4.18
486.735	4.2
486.936	4.24
487.138	4.22
487.339	4.26
487.541	4.23
487.742	4.21
487.943	4.19
488.144	4.23
488.346	4.15
488.547	4.17
488.748	4.19
488.95	4.23
489.151	4.17
489.352	4.2
489.553	4.21
489.755	4.2
489.956	4.16
490.157	4.12
490.358	4.05
490.559	4.15
490.76	4.08
490.961	4.07
491.163	3.96
491.364	4.07
491.565	4.1
491.766	4.13
491.967	4.13
492.168	4.15
492.369	4.22
492.57	4.22
492.771	4.24
492.972	4.26
493.173	4.26
493.374	4.37
493.575	4.42
493.776	4.32
493.976	4.32
494.177	4.31
494.378	4.29
494.579	4.34
494.78	4.37
494.981	4.23
495.182	4.27
495.382	4.25
495.583	4.2
495.784	4.05
495.985	4.17
496.185	4.02
496.386	3.88
496.587	4
496.788	3.94
496.988	3.95
497.189	4.09
497.39	3.95
497.59	3.99
497.791	3.95
497.992	4.04
498.192	3.97
498.393	3.91
498.593	4.1
498.794	3.98
498.994	3.93
499.195	3.96
499.395	4.04
499.596	4.11
499.796	4.16
499.997	4.17
500.197	4.32
500.398	4.42
500.598	4.49
500.799	4.43
500.999	4.45
501.199	4.57
501.4	4.54
501.6	4.42
501.801	4.41
502.001	4.32
502.201	4.35
502.402	4.31
502.602	4.25
502.802	4.39
503.002	4.36
503.203	4.33
503.403	4.33
503.603	4.26
503.803	4.29
504.003	4.51
504.204	4.57
504.404	4.63
504.604	4.48
504.804	4.39
505.004	4.28
505.204	4.31
505.404	4.44
505.604	4.49
505.804	4.62
506.005	4.63
506.205	4.59
506.405	4.54
506.605	4.56
506.805	4.69
507.005	4.76
507.204	4.88
507.404	4.92
507.604	4.87
507.804	4.8
508.004	4.78
508.204	4.82
508.404	4.8
508.604	4.74
508.804	4.73
509.003	4.67
509.203	4.63
509.403	4.56
509.603	4.67
509.803	4.79
510.002	4.75
510.202	4.74
510.402	4.63
510.602	4.68
510.801	4.84
511.001	4.84
511.201	4.93
511.4	5.15
511.6	5.24
511.8	5.15
511.999	5.13
512.199	5.15
512.398	5.11
512.598	5.18
512.797	5.08
512.997	5.02
513.197	5.16
513.396	5.2
513.596	5.13
513.795	5.07
513.994	5.18
514.194	5.01
514.393	5.1
514.593	5.26
514.792	5.39
514.992	5.6
515.191	5.71
515.39	5.56
515.59	5.42
515.789	5.34
515.988	5.52
516.188	5.37
516.387	5.46
516.586	5.52
516.786	5.5
516.985	5.52
517.184	5.38
517.383	5.32
517.582	5.43
517.782	5.44
517.981	5.47
518.18	5.33
518.379	5.51
518.578	5.48
518.777	5.42
518.976	5.44
519.176	5.53
519.375	5.57
519.574	5.52
519.773	5.42
519.972	5.45
520.171	5.44
520.37	5.41
520.569	5.28
520.768	5.41
520.967	5.43
521.166	5.46
521.365	5.13
521.564	5.27
521.762	5.43
521.961	5.57
522.16	5.63
522.359	5.7
522.558	5.84
522.757	5.88
522.956	5.85
523.154	5.74
523.353	5.76
523.552	5.96
523.751	5.76
523.949	5.77
524.148	5.78
524.347	5.9
524.546	5.93
524.744	5.91
524.943	5.94
525.142	5.94
525.34	6.1
525.539	6.03
525.737	6.12
525.936	6.19
526.135	6.23
526.333	6.17
526.532	6.18
526.73	6.34
526.929	6.35
527.127	6.46
527.326	6.51
527.524	6.61
527.723	6.63
527.921	6.67
528.12	6.75
528.318	6.76
528.516	6.76
528.715	6.76
528.913	6.68
529.112	6.72
529.31	6.7
529.508	6.75
529.707	6.69
529.905	6.77
530.103	6.72
530.301	6.67
530.5	6.71
530.698	6.77
530.896	6.8
531.094	6.83
531.293	6.84
531.491	6.91
531.689	6.87
531.887	7.01
532.085	7
532.283	7.07
532.481	7.14
532.68	7.11
532.878	7.12
533.076	7.25
533.274	7.35
533.472	7.4
533.67	7.37
533.868	7.42
534.066	7.41
534.264	7.59
534.462	7.57
534.66	7.65
534.858	7.7
535.056	7.77
535.253	7.71
535.451	7.72
535.649	7.76
535.847	7.94
536.045	7.97
536.243	7.93
536.441	7.79
536.638	7.96
536.836	7.94
537.034	8.05
537.232	8.08
537.43	8.08
537.627	8.16
537.825	8.08
538.023	8
538.22	7.99
538.418	8.12
538.616	8.18
538.813	8.21
539.011	8.33
539.209	8.29
539.406	8.39
539.604	8.54
539.801	8.61
539.999	8.89
540.196	8.96
540.394	9.03
540.591	9.13
540.789	9.15
540.986	9.11
541.184	9.07
541.381	9.13
541.579	9.09
541.776	9.14
541.974	9.1
542.171	9.13
542.368	9.15
542.566	9.23
542.763	9.26
542.96	9.37
543.158	9.45
543.355	9.52
543.552	9.56
543.75	9.75
543.947	9.82
544.144	9.95
544.341	10.03
544.539	10.19
544.736	10.22
544.933	10.23
545.13	10.18
545.327	10.2
545.524	10.28
545.722	10.39
545.919	10.42
546.116	10.39
546.313	10.43
546.51	10.31
546.707	10.32
546.904	10.39
547.101	10.34
547.298	10.44
547.495	10.52
547.692	10.64
547.889	10.62
548.086	10.73
548.283	10.81
548.48	10.98
548.677	11.25
548.874	11.28
549.07	11.37
549.267	11.71
549.464	11.84
549.661	11.92
549.858	12.02
550.055	12.2
550.251	12.26
550.448	12.14
550.645	12.06
550.842	12
551.038	12.12
551.235	12.2
551.432	12.23
551.628	12.11
551.825	12.23
552.022	12.33
552.218	12.68
552.415	12.77
552.612	12.82
552.808	12.94
553.005	12.94
553.201	13.12
553.398	13.27
553.594	13.14
553.791	13.36
553.987	13.44
554.184	13.33
554.38	13.07
554.577	13.13
554.773	13.41
554.97	13.43
555.166	13.53
555.362	13.57
555.559	13.69
555.755	14.01
555.952	14.23
556.148	14.38
556.344	14.58
556.541	14.69
556.737	14.54
556.933	14.76
557.129	15.03
557.326	15.02
557.522	15.13
557.718	15.2
557.914	15.15
558.11	15.12
558.307	15.13
558.503	15.18
558.699	15.3
558.895	15.69
559.091	15.77
559.287	15.79
559.483	16.16
559.679	16.16
559.876	16.15
560.072	16.41
560.268	16.71
560.464	16.61
560.66	16.79
560.856	16.98
561.052	16.97
561.247	17.07
561.443	17.35
561.639	17.31
561.835	17.45
562.031	17.5
562.227	17.47
562.423	17.19
562.619	17.58
562.815	17.78
563.01	18
563.206	18.11
563.402	17.97
563.598	17.96
563.793	18.1
563.989	18.23
564.185	18.38
564.381	18.56
564.576	18.9
564.772	18.94
564.968	18.95
565.163	18.98
565.359	19.17
565.555	19.23
565.75	19.17
565.946	19.3
566.141	19.27
566.337	19.32
566.532	19.3
566.728	19.01
566.923	19.05
567.119	19.1
567.314	19.09
567.51	18.88
567.705	19.04
567.901	19.07
568.096	19.24
568.292	19.42
568.487	19.6
568.682	19.82
568.878	20.19
569.073	20.41
569.268	20.43
569.464	20.47
569.659	20.61
569.854	20.87
570.05	20.94
570.245	20.76
570.44	20.82
570.635	20.82
570.831	20.79
571.026	20.76
571.221	20.75
571.416	20.94
571.611	21
571.806	21.12
572.002	21.04
572.197	21.33
572.392	21.6
572.587	21.61
572.782	21.62
572.977	21.71
573.172	21.84
573.367	21.84
573.562	21.76
573.757	21.85
573.952	21.83
574.147	21.67
574.342	21.81
574.537	21.91
574.732	21.95
574.927	22.01
575.121	22.03
575.316	22.3
575.511	22.36
575.706	22.51
575.901	22.65
576.096	22.74
576.29	23.08
576.485	22.79
576.68	22.78
576.875	22.93
577.069	23.01
577.264	22.94
577.459	22.55
577.654	22.39
577.848	22.36
578.043	22.38
578.238	22.47
578.432	22.7
578.627	22.84
578.821	22.89
579.016	22.99
579.21	22.98
579.405	23.07
579.6	23.22
579.794	23.64
579.989	23.73
580.183	23.87
580.378	23.77
580.572	23.41
580.766	23.37
580.961	23.21
581.155	23.12
581.35	23.07
581.544	23.39
581.738	23.62
581.933	23.63
582.127	23.7
582.321	23.48
582.516	23.74
582.71	23.77
582.904	24.05
583.099	24
583.293	24.04
583.487	24.28
583.681	24.04
583.875	24.18
584.07	24.33
584.264	24.46
584.458	24.38
584.652	24.28
584.846	24.32
585.04	24.05
585.234	24.32
585.428	24.44
585.623	24.26
585.817	24.45
586.011	24.37
586.205	24.24
586.399	23.96
586.593	24.34
586.787	24.71
586.981	24.71
587.174	24.94
587.368	24.58
587.562	24.62
587.756	24.94
587.95	24.95
588.144	24.86
588.338	24.97
588.532	25.12
588.725	25.05
588.919	24.97
589.113	25.19
589.307	25.16
589.501	25.64
589.694	25.21
589.888	25.14
590.082	25.18
590.275	25.46
590.469	25.23
590.663	25.22
590.856	25.19
591.05	25.28
591.244	25.45
591.437	25.64
591.631	25.34
591.824	25.6
592.018	25.55
592.212	25.54
592.405	25.34
592.599	25.7
592.792	25.67
592.986	25.56
593.179	25.63
593.372	25.3
593.566	25.07
593.759	25.32
593.953	25.57
594.146	25.58
594.339	25.55
594.533	25.62
594.726	25.52
594.92	25.74
595.113	26.02
595.306	25.93
595.499	26.33
595.693	26.24
595.886	26.06
596.079	26.11
596.272	26.24
596.466	26.3
596.659	26.36
596.852	26.5
597.045	26.49
597.238	26.44
597.431	26.55
597.624	26.38
597.818	26.77
598.011	26.97
598.204	26.93
598.397	27.1
598.59	27.14
598.783	27.13
598.976	26.98
599.169	27.19
599.362	27.11
599.555	26.87
599.748	27.02
599.941	26.71
600.134	26.7
600.326	26.63
600.519	26.33
600.712	26.47
600.905	26.57
601.098	26.5
601.291	26.27
601.483	26.41
601.676	26.71
601.869	26.61
602.062	26.61
602.255	26.28
602.447	26.56
602.64	26.61
602.833	26.55
603.025	26.51
603.218	26.63
603.411	26.46
603.603	26.61
603.796	26.57
603.989	26.38
604.181	26.57
604.374	26.87
604.566	26.67
604.759	26.75
604.951	27.01
605.144	27.22
605.336	27.27
605.529	27.57
605.721	27.5
605.914	27.57
606.106	27.95
606.299	28.02
606.491	28.09
606.683	28.27
606.876	28.23
607.068	28.07
607.26	27.87
607.453	27.77
607.645	27.78
607.837	27.91
608.03	27.73
608.222	27.58
608.414	27.5
608.606	27.34
608.799	27.19
608.991	27.07
609.183	27.04
609.375	26.97
609.567	27.06
609.759	27.04
609.952	27.05
610.144	27.09
610.336	27.06
610.528	27.1
610.72	27.35
610.912	27.19
611.104	27.29
611.296	27.26
611.488	27.31
611.68	27.42
611.872	27.38
612.064	27.22
612.256	27.68
612.448	27.55
612.64	27.52
612.832	27.04
613.023	27.29
613.215	27.34
613.407	27.19
613.599	27.29
613.791	27.31
613.983	27.07
614.174	27.43
614.366	26.85
614.558	26.69
614.75	26.62
614.941	27.35
615.133	27.27
615.325	27.41
615.516	27.51
615.708	27.65
615.9	27.58
616.091	27.78
616.283	27.46
616.475	27.31
616.666	27.69
616.858	27.74
617.049	27.52
617.241	27.76
617.432	27.75
617.624	27.61
617.815	27.52
618.007	27.61
618.198	27.68
618.39	27.8
618.581	28.11
618.773	28.07
618.964	28.18
619.155	28
619.347	27.67
619.538	27.63
619.729	27.93
619.921	28.12
620.112	28.31
620.303	28.36
620.494	28.46
620.686	28.51
620.877	28.64
621.068	29.02
621.259	29.04
621.451	29.32
621.642	29.34
621.833	29.63
622.024	29.57
622.215	29.69
622.406	29.53
622.597	29.46
622.788	29.83
622.98	29.71
623.171	29.45
623.362	29.56
623.553	29.46
623.744	29.97
623.935	29.75
624.126	29.58
624.317	29.06
624.508	29.21
624.698	29.36
624.889	28.8
625.08	29.02
625.271	29.03
625.462	28.9
625.653	29.19
625.844	28.63
626.034	28.48
626.225	28.76
626.416	29.18
626.607	29.17
626.798	29.26
626.988	29.45
627.179	29.39
627.37	29.23
627.56	29.32
627.751	29.29
627.942	29.49
628.132	29.38
628.323	29.28
628.514	29.05
628.704	29.16
628.895	28.89
629.085	29.14
629.276	28.96
629.466	28.9
629.657	28.93
629.847	29.15
630.038	29.27
630.228	29.49
630.419	29.55
630.609	29.37
630.8	29.51
630.99	29.55
631.181	29.44
631.371	29.56
631.561	29.98
631.752	29.91
631.942	29.79
632.132	29.32
632.323	29.33
632.513	29.46
632.703	29.8
632.893	29.52
633.084	29.26
633.274	28.85
633.464	28.78
633.654	28.39
633.844	28.36
634.034	28.2
634.225	28.34
634.415	28.36
634.605	28.14
634.795	27.94
634.985	28.04
635.175	28.26
635.365	28.38
635.555	28.38
635.745	28.55
635.935	28.71
636.125	28.8
636.315	29.13
636.505	29.11
636.695	29.27
636.885	29.58
637.075	29.44
637.265	29.55
637.455	29.81
637.644	30.04
637.834	30.17
638.024	29.94
638.214	29.63
638.404	29.54
638.593	29.29
638.783	29.25
638.973	29.08
639.163	29.15
639.352	28.76
639.542	28.76
639.732	29.11
639.921	29.1
640.111	29.5
640.301	29.82
640.49	29.69
640.68	30.25
640.87	30.14
641.059	29.82
641.249	29.81
641.438	30.02
641.628	29.99
641.817	29.48
642.007	29.43
642.196	28.99
642.386	28.68
642.575	28.64
642.764	27.9
642.954	27.86
643.143	28.52
643.333	28.29
643.522	27.81
643.711	27.76
643.901	27.48
644.09	27.51
644.279	27.74
644.469	27.9
644.658	28.39
644.847	28.83
645.036	28.83
645.226	28.28
645.415	28.75
645.604	29.21
645.793	29.41
645.982	29.62
646.171	29.47
646.361	29.62
646.55	29.77
646.739	29.41
646.928	29.2
647.117	29.11
647.306	29.56
647.495	29.35
647.684	29.42
647.873	28.91
648.062	29.32
648.251	29.22
648.44	29.24
648.629	29.14
648.818	29.23
649.007	29.69
649.196	30.13
649.384	29.63
649.573	29.53
649.762	29.48
649.951	29.34
650.14	28.96
650.328	29.34
650.517	29.07
650.706	28.89
650.895	28.92
651.083	29.11
651.272	28.73
651.461	28.93
651.65	29.27
651.838	29.44
652.027	29.87
652.216	30.13
652.404	30.1
652.593	30.34
652.781	30.37
652.97	30.5
653.158	30.46
653.347	30.3
653.535	30.32
653.724	29.93
653.912	29.97
654.101	30.16
654.289	29.64
654.478	29.4
654.666	29.13
654.855	28.87
655.043	28.53
655.231	27.81
655.42	27.69
655.608	27.75
655.796	27.95
655.985	27.61
656.173	26.97
656.361	27.66
656.55	27.77
656.738	28.12
656.926	28.64
657.114	28.59
657.302	29.1
657.491	29.28
657.679	29.41
657.867	29.17
658.055	29.89
658.243	30.64
658.431	30.17
658.619	30.08
658.807	30.14
658.996	30.08
659.184	30.43
659.372	30.34
659.56	30.51
659.748	30.21
659.936	30.47
660.124	30.16
660.311	29.67
660.499	29.63
660.687	29.97
660.875	29.68
661.063	30.08
661.251	29.65
661.439	29.39
661.627	29.8
661.814	30.11
662.002	29.99
662.19	29.64
662.378	30.08
662.565	30.17
662.753	29.65
662.941	29.87
663.129	29.63
663.316	30.27
663.504	30.67
663.692	30.32
663.879	30.17
664.067	30.14
664.254	30.18
664.442	29.42
664.63	29.94
664.817	30.32
665.005	30.18
665.192	30.09
665.38	29.71
665.567	29.46
665.755	29.47
665.942	29.32
666.13	29.56
666.317	29.73
666.504	30.53
666.692	30.13
666.879	30.31
667.067	30.58
667.254	30.43
667.441	30.24
667.629	30.49
667.816	30.04
668.003	30.32
668.19	30.22
668.378	30.51
668.565	29.96
668.752	30.12
668.939	30.21
669.127	29.75
669.314	29.86
669.501	29.78
669.688	29.82
669.875	29.93
670.062	29.79
670.249	29.53
670.436	29.78
670.623	29.96
670.81	29.96
670.997	29.85
671.184	29.97
671.371	30.41
671.558	30.87
671.745	30.82
671.932	30.75
672.119	30.71
672.306	31.36
672.493	31.34
672.68	31.16
672.867	31.01
673.054	30.79
673.24	31.12
673.427	30.43
673.614	30.42
673.801	30.05
673.988	30.49
674.174	30.85
674.361	30.31
674.548	30.37
674.734	30.5
674.921	30.31
675.108	30.36
675.294	30.22
675.481	30.64
675.668	30.61
675.854	30.99
676.041	30.64
676.227	30.53
676.414	30.95
676.601	30.45
676.787	30.67
676.974	31.04
677.16	30.8
677.347	30.85
677.533	30.78
677.719	31.01
677.906	31.1
678.092	31.06
678.279	30.85
678.465	30.52
678.651	30.64
678.838	30.88
679.024	31.24
679.21	31.28
679.397	31.39
679.583	31.43
679.769	31.13
679.955	31.17
680.142	31.53
680.328	31.18
680.514	31.36
680.7	31.22
680.886	30.87
681.073	30.61
681.259	30.75
681.445	30.58
681.631	30.67
681.817	31.15
682.003	31.08
682.189	31.14
682.375	31.41
682.561	31.78
682.747	31.86
682.933	31.88
683.119	32.15
683.305	32.01
683.491	32.6
683.677	32.67
683.863	32.77
684.049	32.57
684.235	32.09
684.42	32.26
684.606	31.72
684.792	31.79
684.978	32.1
685.164	31.33
685.349	31.66
685.535	30.96
685.721	30.87
685.907	30.54
686.092	30.52
686.278	31.19
686.464	31.17
686.649	31.24
686.835	30.99
687.021	30.45
687.206	30.97
687.392	31.01
687.577	30.98
687.763	30.74
687.948	30.54
688.134	30.97
688.319	30.76
688.505	31.03
688.69	31.01
688.876	31.42
689.061	31.53
689.247	31.14
689.432	31.25
689.618	31.53
689.803	31.44
689.988	31.44
690.174	31.13
690.359	30.99
690.544	30.7
690.73	31.09
690.915	31.42
691.1	31.21
691.285	31.76
691.471	30.69
691.656	30.77
691.841	31.48
692.026	31.72
692.211	31.15
692.396	30.93
692.582	31.01
692.767	30.35
692.952	29.14
693.137	29.73
693.322	29.64
693.507	30.26
693.692	29.96
693.877	28.98
694.062	28.24
694.247	28.65
694.432	28.79
694.617	28.67
694.802	29.39
694.987	30.39
695.172	30.32
695.357	31.02
695.541	31.27
695.726	31.38
695.911	31.21
696.096	32.49
696.281	32.45
696.466	32.41
696.65	32.45
696.835	32.1
697.02	31.94
697.204	32.2
697.389	31.73
697.574	31.66
697.759	31.54
697.943	32.1
698.128	31.61
698.312	32.24
698.497	32.31
698.682	32.13
698.866	32.39
699.051	32.29
699.235	32.25
699.42	32.02
699.604	31.92
699.789	31.72
699.973	31.5
700.158	31.48
700.342	31.22
700.527	31.62
700.711	32.12
700.895	31.94
701.08	31.96
701.264	31.97
701.448	31.91
701.633	31.73
701.817	32.56
702.001	32.67
702.186	32.12
702.37	31.51
702.554	31.1
702.738	30.3
702.923	30.08
703.107	29.29
703.291	28.59
703.475	28.6
703.659	28.71
703.843	27.66
704.027	27.41
704.212	27.66
704.396	27.93
704.58	28.4
704.764	28.37
704.948	28.01
705.132	28.76
705.316	29.1
705.5	29.73
705.684	29.32
705.868	30.06
706.052	29.88
706.235	29.75
706.419	29.84
706.603	29.36
706.787	29.22
706.971	30.46
707.155	30.43
707.339	30.43
707.522	29.94
707.706	30.47
707.89	30.21
708.074	30.91
708.257	31.22
708.441	31.63
708.625	31.76
708.808	32.21
708.992	31.49
709.176	31.54
709.359	31.63
709.543	32.22
709.727	31.92
709.91	32.33
710.094	31.49
710.277	31.52
710.461	31.42
710.644	31.13
710.828	31.06
711.011	31.69
711.195	31.79
711.378	31.51
711.562	30.63
711.745	31.12
711.928	30.47
712.112	30.27
712.295	30.41
712.478	29.89
712.662	30.34
712.845	30.44
713.028	28.83
713.212	29.09
713.395	28.54
713.578	28.92
713.761	29.04
713.945	28.82
714.128	29.53
714.311	29.25
714.494	29.98
714.677	29.34
714.86	29.6
715.043	30.06
715.227	30.17
715.41	31.58
715.593	31.67
715.776	31.54
715.959	31.73
716.142	31.72
716.325	31.79
716.508	31.03
716.691	30.77
716.874	30.46
717.057	30.66
717.239	30.45
717.422	30.12
717.605	29.17
717.788	28.83
717.971	29.08
718.154	29.43
718.337	29.91
718.519	29.52
718.702	29.95
718.885	30.01
719.068	30.85
719.25	30
719.433	29.49
719.616	29.29
719.798	30.23
719.981	30.66
720.164	30.11
720.346	29.58
720.529	30.37
720.712	30.74
720.894	30.98
721.077	29.99
721.259	30.3
721.442	30.23
721.624	31.36
721.807	30.32
721.989	30.55
722.172	30.53
722.354	29.51
722.537	30.1
722.719	29.36
722.901	29.65
723.084	30.11
723.266	29.84
723.448	30.13
723.631	29.12
723.813	29.08
723.995	28.69
724.178	29.23
724.36	30.3
724.542	29.25
724.724	28.9
724.907	28.68
725.089	29.05
725.271	30.44
725.453	29.25
725.635	30.35
725.817	30.05
725.999	29.91
726.181	29.35
726.364	29.45
726.546	30.23
726.728	31.69
726.91	31.8
727.092	29.98
727.274	28.61
727.456	29.44
727.638	30.62
727.819	31.09
728.001	30.61
728.183	30.7
728.365	32.21
728.547	31.47
728.729	30.83
728.911	30.75
729.093	31.97
729.274	32.21
729.456	31.71
729.638	29.75
729.82	29.64
730.001	29.72
730.183	29.5
730.365	28.31
730.546	29.27
730.728	29.08
730.91	28.27
731.091	29.18
731.273	29.27
731.455	30.13
731.636	30.85
731.818	31.47
731.999	31.9
732.181	31.86
732.362	31.35
732.544	31.07
732.725	30.52
732.907	31.07
733.088	29.92
733.27	30.31
733.451	30.88
733.633	30.58
733.814	30.38
733.995	31.17
734.177	31.75
734.358	32.14
734.539	31.75
734.721	32.46
734.902	32.8
735.083	33.01
735.264	32.88
735.446	32.89
735.627	33.06
735.808	32.26
735.989	30.24
736.17	27.98
736.351	26.26
736.533	25.7
736.714	24.98
736.895	23.52
737.076	23.77
737.257	23.83
737.438	22.35
737.619	22.76
737.8	23.01
737.981	25.69
738.162	26.83
738.343	27.39
738.524	28.21
738.705	28.89
738.886	29.8
739.067	30.4
739.247	29.93
739.428	30.57
739.609	30.62
739.79	30.87
739.971	29.53
740.151	29.48
740.332	29.77
740.513	29.75
740.694	30.22
740.874	30.62
741.055	30.45
741.236	30.17
741.417	29.2
741.597	28.55
741.778	27.82
741.958	26.6
742.139	28.02
742.32	27.03
742.5	26.88
742.681	26.67
742.861	26.33
743.042	26.2
743.222	26.66
743.403	27.64
743.583	28.42
743.764	29.19
743.944	30.76
744.124	30.34
744.305	32.5
744.485	32.37
744.666	31.95
744.846	32.22
745.026	32.16
745.207	33.05
745.387	32.82
745.567	32.66
745.747	33.78
745.928	33.4
746.108	33.85
746.288	32.74
746.468	33.2
746.648	33.46
746.829	34.91
747.009	34.94
747.189	34.97
747.369	35.85
747.549	36.26
747.729	35.95
747.909	35.06
748.089	33.79
748.269	33.28
748.449	33.2
748.629	32.41
748.809	30.77
748.989	29.26
749.169	27.62
749.349	26.98
749.529	27.09
749.709	26.95
749.889	26.67
750.068	26.45
750.248	28.38
750.428	27.57
750.608	26.33
750.788	26.8
750.967	28.87
751.147	28.8
751.327	28.13
751.507	25.63
751.686	24.57
751.866	25.41
752.046	29.03
752.225	28.15
752.405	28.8
752.585	30.83
752.764	30.41
752.944	28.18
753.123	29.36
753.303	29.38
753.482	30.35
753.662	30.33
753.841	29.48
754.021	26.09
754.2	25.22
754.38	24.79
754.559	24.94
754.739	24.83
754.918	24.15
755.097	22.89
755.277	22.13
755.456	22.71
755.635	22.18
755.815	23.37
755.994	23.24
756.173	25.11
756.352	25.12
756.532	25.55
756.711	26.17
756.89	27.6
757.069	29.37
757.248	31.52
757.427	32.18
757.607	33.97
757.786	32.63
757.965	33.43
758.144	32.17
758.323	32.01
758.502	29.88
758.681	28.08
758.86	27.56
759.039	26.6
759.218	26.29
759.397	25.96
759.576	25.68
759.755	26.12
759.934	24.74
760.113	25.46
760.291	25.99
760.47	28.48
760.649	29.08
760.828	30.17
761.007	30.34
761.186	29.12
761.364	29.64
761.543	28.92
761.722	29.49
761.901	30.85
762.079	30.39
762.258	30.41
762.437	28.66
762.615	29.42
762.794	30.82
762.972	30.99
763.151	31.63
763.33	31.42
763.508	31.74
763.687	32.39
763.865	31.54
764.044	30.97
764.222	31.94
764.401	32.51
764.579	33.01
764.758	31.89
764.936	31.36
765.114	30.41
765.293	29.63
765.471	29.23
765.65	27.55
765.828	28.6
766.006	30.06
766.184	28.53
766.363	29.41
766.541	28.13
766.719	28.14
766.898	28.96
767.076	29.71
767.254	30.5
767.432	30.85
767.61	32.4
767.788	32.4
767.967	31.42
768.145	30.35
768.323	29.13
768.501	29.3
768.679	27.84
768.857	27.37
769.035	26.09
769.213	25.36
769.391	24.6
769.569	24.68
769.747	23.92
769.925	21.61
770.103	22.9
770.281	21.51
770.459	21.23
770.636	22.94
770.814	22.05
770.992	25.34
771.17	25.64
771.348	24.38
771.525	21.54
771.703	20.65
771.881	24.36
772.059	23.92
772.236	25.87
772.414	26.81
772.592	25.93
772.769	27.49
772.947	25.31
773.125	24.17
773.302	23.75
773.48	27.86
773.657	28.39
773.835	25.24
774.013	24.02
774.19	22.27
774.368	21.96
774.545	23.33
774.723	23.08
774.9	25.23
775.077	26.66
775.255	30.05
775.432	26.35
775.61	27.78
775.787	30.41
775.964	29.99
776.142	32.58
776.319	32.78
776.496	31.15
776.674	28.52
776.851	26.62
777.028	24.57
777.205	22.04
777.382	23.61
777.56	21.59
777.737	19.74
777.914	20.48
778.091	20.88
778.268	21.91
778.445	22.9
778.622	24.92
778.8	24.61
778.977	25.18
779.154	27.39
779.331	27.99
779.508	28.81
779.685	28.4
779.862	31.05
780.038	28.77
780.215	26.12
780.392	26.32
780.569	25.77
780.746	25.5
780.923	27.63
781.1	27.92
781.277	26
781.453	27.2
781.63	27.39
781.807	26.77
781.984	28.78
782.16	29.57
782.337	30.44
782.514	29.53
782.691	29.11
782.867	25.67
783.044	24.55
783.221	24.83
783.397	23.97
783.574	28
783.75	27.38
783.927	26.32
784.103	25.02
784.28	20.16
784.456	21.05
784.633	21.56
784.809	24.15
784.986	22.67
785.162	23.1
785.339	23.05
785.515	20.36
785.692	22.35
785.868	23.77
786.044	20.62
786.221	25.67
786.397	26.02
786.573	26.52
786.749	27.84
786.926	32.51
787.102	33.79
787.278	32.52
787.454	31.51
787.631	29.75
787.807	29.49
787.983	34.14
788.159	31.58
788.335	31.26
788.511	32.94
788.687	31.49
788.863	31.13
789.039	31.96
789.216	33.57
789.392	34.83
789.568	34.15
789.744	32.41
789.919	30.54
790.095	29.41
790.271	28.59
790.447	25.13
790.623	24.85
790.799	22.23
790.975	21.85
791.151	19.57
791.327	19.59
791.502	22.17
791.678	23.87
791.854	25.72
792.03	26.08
792.205	25.82
792.381	25.36
792.557	26.85
792.733	25.85
792.908	25.31
793.084	26.16
793.259	24.15
793.435	24.27
793.611	20.03
793.786	19.22
793.962	20.31
794.137	23.86
794.313	25.52
794.488	26.31
794.664	27.36
794.839	23.9
795.015	26.76
795.19	27.72
795.366	25.8
795.541	28.45
795.716	29.26
795.892	28.47
796.067	26.37
796.242	25.55
796.418	24.24
796.593	25.94
796.768	26.02
796.944	23.3
797.119	23.26
797.294	24.42
797.469	23.86
797.644	22.71
797.82	24.54
797.995	24.03
798.17	24.88
798.345	26.86
798.52	24.98
798.695	29.17
798.87	30.88
799.045	28.4
799.22	29.99
799.395	27.89
799.57	30.29
799.745	31.62
799.92	31.2
800.095	34.09
800.27	30.74
800.445	28.75
800.62	27.87
800.795	28.39
800.97	32.23
801.145	27.94
801.319	31.08
801.494	25.75
801.669	23.47
801.844	24.5
802.018	18.29
802.193	21.14
802.368	27.29
802.543	20.72
802.717	18.45
802.892	18.66
803.067	21.43
803.241	18.2
803.416	18
803.59	22.66
803.765	20.73
803.94	24.5
804.114	21.82
804.289	18.5
804.463	21.37
804.638	17.8
804.812	16.88
804.986	15.99
805.161	16.32
805.335	18.46
805.51	15.76
805.684	17.54
805.858	13.79
806.033	12.78
806.207	12.18
806.381	12.02
806.556	18.09
806.73	13.43
806.904	12.82
807.078	9.19
807.253	11.29
807.427	10.14
807.601	11.5
807.775	13.44
807.949	15.5
808.123	13.07
808.298	16.87
808.472	15.71
808.646	23.44
808.82	19.24
808.994	26.39
809.168	26.48
809.342	25.7
809.516	29.21
809.69	32.52
809.864	33.44
810.038	37.37
810.212	39.76
810.385	36.74
810.559	34.81
810.733	34.88
810.907	33.3
811.081	29.66
811.255	30.76
811.428	28.72
811.602	24.82
811.776	23.55
811.95	20.52
812.123	14.9
812.297	21.66
812.471	18.06
812.644	21.5
812.818	21.67
812.992	25.37
813.165	25.03
813.339	28.93
813.512	27.47
813.686	34.38
813.86	31.92
814.033	36.21
814.207	32.75
814.38	33.99
814.554	31.95
814.727	33.69
814.9	31.02
815.074	28.64
815.247	27.49
815.421	23.02
815.594	17
815.767	22.48
815.941	17.36
816.114	21.11
816.287	24.5
816.46	27.25
816.634	27.43
816.807	26.9
816.98	32
817.153	34.73
817.327	45.91
817.5	43.6
817.673	38.91
817.846	38.73
818.019	35.08
818.192	30.55
818.365	35.3
818.538	33.55
818.711	33.65
818.884	28.6
819.057	25.25
819.23	26.12
819.403	31.2
819.576	32.48
819.749	32.25
819.922	32.46
820.095	36.07
820.268	32.09
820.441	31.34
820.614	32.4
820.786	31.34
820.959	31.28
821.132	31.14
821.305	30.83
821.477	30.02
821.65	30.48
821.823	30.42
821.996	31.09
822.168	30.91
822.341	30.67
822.514	30.96
822.686	31.42
822.859	31.01
823.031	30.41
823.204	29.89
823.376	29.83
823.549	30.58
823.722	30.64
823.894	30.12
824.067	29.54
824.239	29.59
824.411	29.62
824.584	28.95
824.756	28.84
824.929	29.47
825.101	29.4
825.273	30.46
825.446	28.73
825.618	28.84
825.79	28.14
825.963	28.52
826.135	28.13
826.307	27.71
826.479	29.09
826.652	29.76
826.824	30.96
826.996	31.03
827.168	29.7
827.34	30.84
827.512	30.4
827.684	31.31
827.856	31.51
828.029	31.92
828.201	31.21
828.373	30.37
828.545	29.07
828.717	26.76
828.889	27.47
829.061	27.54
829.232	27.75
829.404	25.7
829.576	22.98
829.748	22.86
829.92	21.11
830.092	22.62
830.264	22.14
830.436	22.53
830.607	21.64
830.779	17.28
830.951	15.84
831.123	11.95
831.294	12.2
831.466	15.48
831.638	17.98
831.809	21.04
831.981	17.34
832.153	14.7
832.324	13.06
832.496	14.2
832.667	22.33
832.839	24.48
833.011	24.75
833.182	26.47
833.354	26.69
833.525	24.57
833.697	20.98
833.868	22.27
834.039	25.15
834.211	26.6
834.382	27.97
834.554	23.79
834.725	24.6
834.896	24.86
835.068	21.72
835.239	19.56
835.41	21.65
835.581	24.53
835.753	24.44
835.924	24.27
836.095	21.3
836.266	20.67
836.438	21
836.609	19.33
836.78	16.31
836.951	22.4
837.122	20.28
837.293	15.05
837.464	12.86
837.635	14.47
837.806	12.62
837.977	18.37
838.148	15.27
838.319	17.41
838.49	17.56
838.661	23.92
838.832	20.44
839.003	30.34
839.174	34.84
839.345	39.05
839.516	33.94
839.687	34.31
839.857	33.87
840.028	30.32
840.199	21.16
840.37	25.58
840.54	29.67
840.711	30.03
840.882	31.35
841.053	22.77
841.223	20.46
841.394	19.21
841.564	17.01
841.735	13.1
841.906	17.94
842.076	28.33
842.247	25.83
842.417	15.68
842.588	17.45
842.758	10.54
842.929	18.86
843.099	16.02
843.27	18.27
843.44	28.77
843.611	40.13
843.781	37.65
843.951	35.35
844.122	36.79
844.292	35.59
844.462	35.3
844.633	32.55
844.803	41.6
844.973	50.29
845.144	48.02
845.314	48.83
845.484	46.67
845.654	26.91
845.824	31.63
845.995	29.22
846.165	23.33
846.335	0.1
846.505	-0.65
846.675	-14.81
846.845	-29.39
847.015	-17.89
847.185	-18.52
847.355	-25.66
847.525	7.64
847.695	-11.36
847.865	-28.72
848.035	-17.89
848.205	-8.26
848.375	-12.65
848.545	-20.06
848.715	-11.59
848.884	-20.14
849.054	-31.8
849.224	-58.29
849.394	-41.33
849.564	-48.21
849.733	-46.37
849.903	-51.88
850.073	-75.61
850.243	-75.82
850.412	-73.01
850.582	-99.94
850.752	-89.24
850.921	-113.71
851.091	-81.65
851.26	-215.86
851.43	-125.47
851.599	-344.37
851.769	-1362.4
851.939	-373.25
852.108	-1594.3
852.278	515.33
852.447	970.69
852.616	265.04
852.786	1334.11
852.955	-774.32
853.125	-391.52
853.294	-407.92
853.463	-213.78
853.633	-49.44
853.802	-26.67
853.971	-34.42
854.141	-7.07
854.31	-10.43
854.479	6.71
854.648	11.97
854.818	14.41
854.987	27.16
855.156	31.16
855.325	30.81
855.494	33.04
855.663	18.39
855.832	9.05
856.001	4.6
856.171	15.59
856.34	2.04
856.509	18.81
856.678	29.38
856.847	37.42
857.016	29.33
857.185	35.56
857.353	27.75
857.522	34.13
857.691	70.64
857.86	69.84
858.029	59.73
858.198	93.61
858.367	63.8
858.535	42.42
858.704	48.38
858.873	68.74
859.042	52.32
859.21	66.11
859.379	47.42
859.548	21.9
859.717	32.96
859.885	11.09
860.054	-11.94
860.222	-8.2
860.391	-17.48
860.56	-15.56
860.728	-12.54
860.897	-24.87
861.065	-44.65
861.234	-38.45
861.402	-4.98
861.571	-6.39
861.739	10.38
861.908	4.12
862.076	-1.38
862.244	14.5
862.413	19.84
862.581	4.04
862.749	28.66
862.918	15.57
863.086	42.19
863.254	18.62
863.423	-6.33
863.591	-1.52
863.759	6.17
863.927	1.77
864.096	-3.83
864.264	-20.44
864.432	-38.09
864.6	-61.41
864.768	-28.24
864.936	-61.62
865.104	-62.79
865.272	-56.99
865.44	-42.68
865.608	-31.04
865.776	-13.94
865.944	-23.06
866.112	-7.17
866.28	-7.39
866.448	-0.61
866.616	-17.94
866.784	20.39
866.952	1.71
867.12	-14.67
867.288	-35.01
867.455	-65.64
867.623	-75.5
867.791	-17.49
867.959	-53.43
868.127	-9.66
868.294	-16.88
868.462	3.67
868.63	-15.89
868.797	-1.72
868.965	25.89
869.133	27.18
869.3	23.72
869.468	21.33
869.636	24.87
869.803	16.45
869.971	17.13
870.138	-0.23
870.306	-19.51
870.473	-65.58
870.641	-35.57
870.808	-49.64
870.975	-112.85
871.143	-155.05
871.31	-164.08
871.478	-185.87
871.645	-208.77
871.812	-179.44
871.98	-67.83
872.147	-45.78
872.314	-15.02
872.482	-46.8
872.649	-50.44
872.816	-33.15
872.983	-16.46
873.15	7.09
873.318	-62.17
873.485	16.58
873.652	-44.88
873.819	-582.14
873.986	-256.97
874.153	1254.1
874.32	454.44
874.487	544.04
874.654	2282.41
874.821	1554.41
874.988	-407.8
875.155	-69.49
875.322	-61.53
875.489	-43.46
875.656	-67.15
875.823	-83.68
875.99	-123.25
876.157	-14.94
876.324	-29.99
876.49	-14.81
876.657	21.42
876.824	7.22
876.991	13.23
877.157	-4.68
877.324	5.28
877.491	29.41
877.658	9.93
877.824	15.78
877.991	13.4
878.157	18.69
878.324	-21.9
878.491	-97.19
878.657	-46.05
878.824	-55.41
878.99	-39.34
879.157	-58.04
879.323	-52.74
879.49	-28.52
879.656	-48.3
879.823	-24.93
879.989	-81.34
880.156	-77.47
880.322	-41.67
880.488	-81.32
880.655	-184.9
880.821	-6.67
880.987	0.35
881.154	-19.21
881.32	-4.87
881.486	17.07
881.652	10.18
881.819	22.68
881.985	30.32
882.151	24.87
882.317	28.81
882.483	34.1
882.649	28.05
882.816	28.06
882.982	34.21
883.148	30.67
883.314	27.02
883.48	29.78
883.646	28.39
883.812	30.67
883.978	34.84
884.144	34.63
884.31	32.49
884.476	31.34
884.642	30.67
884.807	29.64
884.973	30.93
885.139	31.12
885.305	29.24
885.471	32.04
885.637	31.54
885.802	27.78
885.968	26.84
886.134	30.45
886.3	33.08
886.465	32.47
886.631	24.76
886.797	30.27
886.962	28.49
887.128	28.82
887.293	26.5
887.459	26.93
887.625	39.54
887.79	34.57
887.956	40.21
888.121	41
888.287	53.26
888.452	68.99
888.618	66.02
888.783	75.58
