Data from 2937834_Reflection_3.txt Node
Date: Wed Jul 15 16:36:41 EDT 2015
User: robert
Spectrometer: USB4E03001
Autoset integration time: false
Trigger mode: 4
Integration Time (sec): 1.000000E-1
Scans to average: 10
Electric dark correction enabled: true
Nonlinearity correction enabled: false
Boxcar width: 5
Stray light correction enabled: false
XAxis mode: Wavelengths
Stop averaging: false
Number of Pixels in Spectrum: 3648
>>>>>Begin Spectral Data<<<<<
177.566	284.07
177.785	331.6
178.005	-87.89
178.225	72.33
178.445	57.28
178.665	81.49
178.885	187.09
179.105	127.13
179.324	90.1
179.544	166.25
179.764	66.44
179.984	36.9
180.204	393.19
180.423	295.12
180.643	225.59
180.863	226.47
181.083	304.06
181.302	-1832.6
181.522	-1212.37
181.742	154.32
181.961	209.11
182.181	112.65
182.401	81.1
182.621	-441.31
182.84	24.13
183.06	40.08
183.279	26.74
183.499	44.19
183.719	40.91
183.938	44.76
184.158	75.3
184.377	69.51
184.597	36.56
184.816	52.96
185.036	74.03
185.256	63.49
185.475	94.94
185.695	88.11
185.914	75.3
186.134	85.51
186.353	116.88
186.572	105.18
186.792	111.85
187.011	127
187.231	109.58
187.45	140.36
187.67	141.04
187.889	118.29
188.108	137.33
188.328	151.83
188.547	218.38
188.766	149.86
188.986	118.98
189.205	120.42
189.424	126.32
189.644	131.25
189.863	116.4
190.082	131.92
190.302	133.61
190.521	165.96
190.74	152.44
190.959	147.67
191.178	220.7
191.398	525.09
191.617	306.17
191.836	230.02
192.055	381.19
192.274	294.06
192.494	179.59
192.713	126.74
192.932	80.38
193.151	192.69
193.37	122.69
193.589	72.8
193.808	68.74
194.027	52.84
194.246	51.59
194.465	37.08
194.685	22.83
194.904	38.68
195.123	57.2
195.342	66.82
195.561	56.16
195.78	39.2
195.999	62.81
196.218	91.67
196.436	433.58
196.655	156.54
196.874	114.05
197.093	-116.92
197.312	123.22
197.531	-18.02
197.75	574.73
197.969	349.02
198.188	426.84
198.407	-294.53
198.625	-79.75
198.844	-63.16
199.063	9.45
199.282	38.41
199.501	62.5
199.719	74.07
199.938	68.7
200.157	77.05
200.376	77.38
200.594	78.85
200.813	67.5
201.032	77.13
201.251	82.29
201.469	83.33
201.688	97.14
201.907	101.17
202.125	91.01
202.344	90.51
202.563	86.78
202.781	74.18
203	72.41
203.218	96.21
203.437	88.98
203.656	94.16
203.874	103.15
204.093	97.03
204.311	87.93
204.53	86.44
204.748	80.75
204.967	86.71
205.185	97.26
205.404	101.15
205.622	102.49
205.841	106.46
206.059	103.88
206.278	101.09
206.496	93.58
206.715	89.21
206.933	197.39
207.151	260.99
207.37	-3771.15
207.588	-214.74
207.806	292.31
208.025	218.03
208.243	183.34
208.461	331.68
208.68	365.82
208.898	474.33
209.116	477.21
209.335	221.04
209.553	330.92
209.771	286.25
209.989	256.46
210.208	164.46
210.426	129.92
210.644	133.51
210.862	108.24
211.081	92.05
211.299	71.74
211.517	65.44
211.735	58.19
211.953	60.33
212.171	47.21
212.39	49.02
212.608	48.66
212.826	71.14
213.044	81.46
213.262	78.84
213.48	71.8
213.698	81.42
213.916	72.32
214.134	66.45
214.352	76.91
214.57	86.31
214.788	79.36
215.006	112.31
215.224	82.74
215.442	67.7
215.66	66.48
215.878	65.66
216.096	73.68
216.314	83.12
216.532	91.95
216.75	64.54
216.968	58.56
217.185	62.35
217.403	42.59
217.621	60.48
217.839	45.56
218.057	55.69
218.275	72.62
218.492	59.63
218.71	59.23
218.928	51.85
219.146	69.04
219.363	70.77
219.581	58.5
219.799	49.41
220.017	71.55
220.234	68.45
220.452	65.79
220.67	57.88
220.887	72.25
221.105	72.49
221.323	64.34
221.54	71.12
221.758	72.07
221.976	90.34
222.193	105.59
222.411	77.56
222.629	99.14
222.846	79.89
223.064	72.84
223.281	38.66
223.499	28.32
223.716	40.08
223.934	28.99
224.151	20.62
224.369	6.3
224.586	8.36
224.804	12.18
225.021	14.01
225.239	23.33
225.456	23.89
225.674	36.81
225.891	39.33
226.108	33.37
226.326	23.74
226.543	18.71
226.76	20.7
226.978	17.78
227.195	17.3
227.413	13.97
227.63	11.64
227.847	11.09
228.064	8.62
228.282	8.44
228.499	12
228.716	11.85
228.934	14.83
229.151	14.4
229.368	13.02
229.585	13.23
229.802	10.53
230.02	11.35
230.237	8.21
230.454	6.97
230.671	8.75
230.888	6.16
231.105	8.28
231.323	9.35
231.54	7.5
231.757	7.37
231.974	1.46
232.191	3.39
232.408	3.41
232.625	8.26
232.842	14.3
233.059	12.41
233.276	18.37
233.493	18.38
233.71	10.14
233.927	13.42
234.144	16.01
234.361	18.5
234.578	22.81
234.795	23.78
235.012	25.98
235.229	22.15
235.446	22.4
235.663	19.61
235.879	21.13
236.096	25.94
236.313	27.8
236.53	29.74
236.747	33.25
236.964	34.1
237.181	31.56
237.397	31.79
237.614	25.83
237.831	27.13
238.048	25.55
238.264	23.36
238.481	24.26
238.698	22.14
238.915	19.7
239.131	19.4
239.348	14.52
239.565	14.88
239.781	14.71
239.998	18.36
240.215	18.2
240.431	19.42
240.648	22.66
240.865	21.8
241.081	22.07
241.298	21.09
241.514	18.47
241.731	19.56
241.947	18.26
242.164	16.05
242.38	18.19
242.597	18.01
242.814	18.92
243.03	16.94
243.246	16.2
243.463	16.74
243.679	17.02
243.896	18.01
244.112	19.65
244.329	21.63
244.545	22.9
244.762	22.33
244.978	17.98
245.194	14.93
245.411	15.43
245.627	14.93
245.843	14.26
246.06	11.95
246.276	11.95
246.492	11.5
246.709	11.05
246.925	9.98
247.141	10
247.357	11.08
247.574	11.41
247.79	11.28
248.006	11.03
248.222	10.09
248.439	10.1
248.655	9.71
248.871	9.01
249.087	8.65
249.303	8.31
249.519	6.62
249.736	8.66
249.952	8.65
250.168	7.36
250.384	7.17
250.6	7.99
250.816	9.37
251.032	7.92
251.248	7.98
251.464	8.39
251.68	11.49
251.896	13.95
252.112	13.09
252.328	12.54
252.544	11.77
252.76	9.68
252.976	8.68
253.192	9.91
253.408	10.25
253.624	10.1
253.84	10.24
254.056	7.97
254.272	6.82
254.487	6.05
254.703	6.11
254.919	9.07
255.135	13.22
255.351	14.28
255.567	14.07
255.782	16.18
255.998	14.68
256.214	9.81
256.43	11.49
256.646	10.71
256.861	8.45
257.077	9.1
257.293	7.39
257.508	5.53
257.724	7.22
257.94	7.26
258.155	7.39
258.371	7.87
258.587	11.39
258.802	10.16
259.018	10.14
259.234	10.47
259.449	9.68
259.665	10.02
259.88	9.48
260.096	8.77
260.312	8.35
260.527	7.35
260.743	7.4
260.958	6.28
261.174	5.8
261.389	6.18
261.605	6.65
261.82	6.69
262.036	6.52
262.251	8.58
262.466	7.94
262.682	7.53
262.897	8.62
263.113	6.69
263.328	8.75
263.543	9.8
263.759	6.65
263.974	5.81
264.189	7.32
264.405	4.89
264.62	3.06
264.835	4.9
265.051	6.12
265.266	8.61
265.481	11.67
265.696	10.81
265.912	11.34
266.127	12.67
266.342	10.59
266.557	9.01
266.773	10.82
266.988	10.28
267.203	10.03
267.418	9.69
267.633	7.98
267.848	8.69
268.064	8.44
268.279	9.23
268.494	8.98
268.709	10.32
268.924	10.31
269.139	9.52
269.354	10.74
269.569	10.36
269.784	9.56
269.999	9.15
270.214	6.42
270.429	6.57
270.644	5.88
270.859	5.74
271.074	4.47
271.289	5.7
271.504	6.85
271.719	6.86
271.934	6.47
272.149	5.97
272.363	7.17
272.578	8.65
272.793	8.69
273.008	8.86
273.223	9.63
273.438	10.31
273.653	9.93
273.867	9
274.082	7.89
274.297	9.27
274.512	11.13
274.726	10.41
274.941	9.54
275.156	10.07
275.371	9.79
275.585	10.51
275.8	10.3
276.015	11.03
276.229	11.53
276.444	12.93
276.659	12.38
276.873	12.3
277.088	11.74
277.302	10.81
277.517	9.99
277.732	8.93
277.946	6.97
278.161	7.75
278.375	4.9
278.59	4.37
278.804	3.05
279.019	3.43
279.233	3.42
279.448	3.66
279.662	5.12
279.877	7.12
280.091	7.63
280.306	8.26
280.52	9.42
280.735	9.16
280.949	10.97
281.163	12.19
281.378	12.59
281.592	12.61
281.806	12.32
282.021	11.9
282.235	10.03
282.449	10.72
282.664	11.71
282.878	11.66
283.092	13.92
283.307	13.85
283.521	14.04
283.735	13.02
283.949	11.41
284.164	11.52
284.378	12.52
284.592	12.37
284.806	11.86
285.02	9.95
285.234	8.89
285.449	8.26
285.663	7.48
285.877	7.71
286.091	7.26
286.305	8.05
286.519	7.26
286.733	5.99
286.947	6.53
287.161	7.09
287.375	7.77
287.589	7.46
287.803	7.95
288.017	7.66
288.231	7.51
288.445	9.26
288.659	10.2
288.873	11.84
289.087	13.44
289.301	12.58
289.515	11.68
289.729	11.99
289.943	12.81
290.157	12.77
290.371	13.65
290.584	13.47
290.798	12.75
291.012	11.19
291.226	10.44
291.44	9.25
291.654	9.47
291.867	9.24
292.081	11.01
292.295	11.63
292.509	10.98
292.722	10.96
292.936	10.45
293.15	12
293.364	13.82
293.577	14.87
293.791	15.71
294.005	16.38
294.218	17.24
294.432	16.2
294.645	15.96
294.859	16.68
295.073	16.92
295.286	17.49
295.5	15.68
295.713	14.93
295.927	14.2
296.14	13.21
296.354	12.53
296.568	13.9
296.781	14.05
296.994	14.25
297.208	14.12
297.421	13.3
297.635	13.03
297.848	13.45
298.062	14.02
298.275	15.04
298.489	15.14
298.702	15.12
298.915	14.11
299.129	12.82
299.342	13.58
299.555	12.42
299.769	13.7
299.982	13.34
300.195	14.92
300.409	14.27
300.622	12.8
300.835	14.86
301.048	16.34
301.262	16.79
301.475	18.43
301.688	17.79
301.901	18.61
302.115	18.67
302.328	18.76
302.541	17.69
302.754	18.67
302.967	20.18
303.18	18.96
303.393	18.38
303.607	18.29
303.82	17.89
304.033	16.14
304.246	16.24
304.459	15.74
304.672	14.93
304.885	15.95
305.098	14.18
305.311	13.02
305.524	13.12
305.737	13.73
305.95	13.96
306.163	15.28
306.376	18.29
306.589	18.84
306.802	18.01
307.015	21.89
307.228	21.56
307.44	22.6
307.653	23.85
307.866	24.84
308.079	25.41
308.292	25.3
308.505	25.61
308.718	23.72
308.93	22.93
309.143	23.64
309.356	23.28
309.569	22.88
309.781	23.03
309.994	22.16
310.207	20.13
310.42	19.13
310.632	19.18
310.845	17.72
311.058	18.95
311.27	18.74
311.483	18.17
311.696	17.04
311.908	16.77
312.121	16.39
312.333	17.26
312.546	19.48
312.759	19.18
312.971	18.63
313.184	17.35
313.396	16.95
313.609	18.53
313.821	18.49
314.034	18.81
314.246	19.21
314.459	18.74
314.671	18.38
314.884	16.37
315.096	17.34
315.309	17.38
315.521	19.4
315.733	19.26
315.946	18.62
316.158	20.26
316.371	19.84
316.583	19.2
316.795	20.42
317.008	19.74
317.22	20.85
317.432	19.2
317.644	20.29
317.857	19.7
318.069	19.39
318.281	19.36
318.494	17.86
318.706	16.85
318.918	18.01
319.13	16.4
319.342	16.34
319.555	16.25
319.767	17.79
319.979	17.5
320.191	17.61
320.403	17.55
320.615	16.46
320.827	17.79
321.039	18.4
321.252	18.42
321.464	18.97
321.676	19.5
321.888	20.71
322.1	21.49
322.312	21.67
322.524	22.09
322.736	24.7
322.948	25.61
323.16	25.76
323.372	26.88
323.584	26.13
323.796	26.97
324.007	27.19
324.219	27.1
324.431	26.72
324.643	25.93
324.855	24.07
325.067	22.14
325.279	23.53
325.491	22.76
325.702	20.67
325.914	22.25
326.126	22.86
326.338	22.58
326.55	22.75
326.761	22.85
326.973	24.23
327.185	26.1
327.396	25.01
327.608	25.17
327.82	26.81
328.032	27.91
328.243	27.2
328.455	27.76
328.666	28.96
328.878	29.41
329.09	31.33
329.301	31.17
329.513	30.95
329.725	32.36
329.936	31.42
330.148	30.06
330.359	32.26
330.571	33.54
330.782	33.28
330.994	34.14
331.205	34.87
331.417	33.38
331.628	34.94
331.84	38.12
332.051	39.85
332.262	42.05
332.474	43.77
332.685	43.78
332.897	42.2
333.108	44.75
333.319	44.26
333.531	44.73
333.742	47.2
333.953	46.78
334.165	46.38
334.376	45.15
334.587	45.6
334.799	45.86
335.01	46.83
335.221	48.79
335.432	48.46
335.644	48.88
335.855	47.84
336.066	47.35
336.277	47.46
336.488	47.68
336.7	48.96
336.911	49.14
337.122	50.49
337.333	51.21
337.544	50.15
337.755	49.5
337.966	49.74
338.177	50.04
338.388	51.34
338.599	52.31
338.811	51.45
339.022	51.47
339.233	50.78
339.444	50.98
339.655	51.27
339.866	51.83
340.076	51.17
340.287	51.61
340.498	53.78
340.709	52.26
340.92	52.67
341.131	54.88
341.342	54.91
341.553	56.35
341.764	55.35
341.975	54.39
342.185	55.54
342.396	58.6
342.607	59.68
342.818	58.89
343.029	58.89
343.239	58.78
343.45	57.2
343.661	56.95
343.872	56.37
344.082	56.53
344.293	56.47
344.504	55.95
344.714	54.28
344.925	54.31
345.136	54.41
345.346	55.24
345.557	55
345.768	54.93
345.978	56.57
346.189	55.69
346.399	55.88
346.61	56.46
346.821	56.79
347.031	55.65
347.242	54.41
347.452	52.46
347.663	53.06
347.873	54.03
348.084	56.26
348.294	54.67
348.504	54.76
348.715	54.33
348.925	53.56
349.136	53.97
349.346	54.69
349.557	55.94
349.767	58.25
349.977	55.94
350.188	55.87
350.398	54.47
350.608	55.4
350.819	54.88
351.029	55.9
351.239	56.54
351.449	55.37
351.66	54.86
351.87	54.41
352.08	53.7
352.29	55.53
352.501	53.97
352.711	54.88
352.921	55.85
353.131	56.47
353.341	56.77
353.552	56.65
353.762	59.12
353.972	60.57
354.182	60.53
354.392	60.69
354.602	60.52
354.812	61.53
355.022	60.53
355.232	59.53
355.442	60.52
355.652	60.5
355.862	60.83
356.072	59.46
356.282	58.94
356.492	58.9
356.702	59.38
356.912	58.74
357.122	58.62
357.332	60.02
357.542	59.9
357.752	59.57
357.962	58.42
358.171	57.88
358.381	57.51
358.591	58
358.801	58.23
359.011	57.06
359.221	56.73
359.43	56.59
359.64	55.2
359.85	54.64
360.06	54.11
360.269	54.34
360.479	54.68
360.689	55.2
360.899	54.87
361.108	53.62
361.318	54.93
361.528	55.9
361.737	56.17
361.947	56.23
362.156	56.37
362.366	56.93
362.576	56.36
362.785	56.29
362.995	55.33
363.204	55.8
363.414	56.46
363.623	55.61
363.833	54.71
364.042	54.05
364.252	53.65
364.461	53.83
364.671	53.77
364.88	54.09
365.09	54
365.299	54.37
365.509	53.77
365.718	53.98
365.927	54.6
366.137	54.55
366.346	54.94
366.555	54.17
366.765	54
366.974	53.15
367.183	53.5
367.393	53.28
367.602	53.4
367.811	53.31
368.021	53.02
368.23	52.63
368.439	52.62
368.648	52.2
368.857	52.78
369.067	51.27
369.276	50.63
369.485	51.31
369.694	50.72
369.903	50.54
370.112	49.96
370.321	49.75
370.531	48.95
370.74	48.56
370.949	48.24
371.158	47.64
371.367	48.75
371.576	49.63
371.785	48.64
371.994	48.83
372.203	48.2
372.412	47.62
372.621	47.24
372.83	47.32
373.039	47.37
373.248	47.16
373.457	47.29
373.666	47.18
373.874	46.66
374.083	46.57
374.292	46.49
374.501	46.31
374.71	46.48
374.919	46.06
375.128	45.72
375.336	45.22
375.545	45.17
375.754	44.94
375.963	44.81
376.171	44.41
376.38	43.88
376.589	43.66
376.798	43.82
377.006	43.7
377.215	43.61
377.424	43.86
377.632	44.07
377.841	43.82
378.05	44.25
378.258	43.1
378.467	42.34
378.675	42.68
378.884	42.12
379.093	41.85
379.301	41.97
379.51	41.58
379.718	40.9
379.927	40.21
380.135	40.12
380.344	39.6
380.552	39.93
380.761	40.24
380.969	40.12
381.177	39.94
381.386	39.77
381.594	38.94
381.803	39.12
382.011	39.3
382.219	39.66
382.428	38.96
382.636	38.37
382.845	38.26
383.053	38.2
383.261	37.6
383.469	38.07
383.678	37.51
383.886	37.93
384.094	37.92
384.302	37.02
384.511	36.69
384.719	37.34
384.927	37.2
385.135	36.75
385.343	37.08
385.552	36.71
385.76	36.43
385.968	35.99
386.176	35.41
386.384	35.27
386.592	35.43
386.8	35.12
387.008	34.47
387.216	34.57
387.424	34.9
387.633	34.26
387.841	34.3
388.049	33.69
388.257	34.46
388.465	34.23
388.672	33.57
388.88	33.5
389.088	33.7
389.296	33.29
389.504	32.88
389.712	32.12
389.92	31.59
390.128	30.78
390.336	30.89
390.544	30.57
390.751	30.64
390.959	30.39
391.167	29.83
391.375	29.56
391.583	29.66
391.79	29.88
391.998	30.17
392.206	29.92
392.414	30.36
392.621	30.09
392.829	29.84
393.037	29.39
393.244	29.56
393.452	29.69
393.66	29.27
393.867	29.65
394.075	29.37
394.283	29.26
394.49	29.55
394.698	29.25
394.905	29.42
395.113	28.97
395.32	29.21
395.528	29.08
395.735	28.89
395.943	29.08
396.15	28.59
396.358	28.99
396.565	28.82
396.773	28.83
396.98	29.2
397.188	28.9
397.395	28.84
397.602	28.85
397.81	28.8
398.017	28.72
398.225	28.68
398.432	28.64
398.639	27.97
398.847	27.57
399.054	27.26
399.261	26.72
399.468	26.82
399.676	27.03
399.883	26.73
400.09	26.78
400.297	26.57
400.505	26.15
400.712	26.2
400.919	26.33
401.126	26.69
401.333	26.91
401.54	27.07
401.748	27.04
401.955	27.11
402.162	27
402.369	26.91
402.576	27.17
402.783	27.64
402.99	27.67
403.197	27.48
403.404	27.38
403.611	27.3
403.818	27.29
404.025	27.44
404.232	27.56
404.439	27.86
404.646	27.9
404.853	27.86
405.06	27.59
405.267	27.7
405.474	27.82
405.681	27.85
405.887	27.88
406.094	28.06
406.301	28.01
406.508	27.92
406.715	27.64
406.922	27.49
407.128	27.72
407.335	27.57
407.542	26.9
407.749	26.75
407.955	26.61
408.162	26.62
408.369	26.51
408.575	26.27
408.782	26.01
408.989	26.18
409.195	26.26
409.402	26.34
409.609	26.36
409.815	26.54
410.022	26.47
410.228	26.71
410.435	26.8
410.642	26.55
410.848	26.46
411.055	26.5
411.261	26.2
411.468	25.88
411.674	25.85
411.881	25.96
412.087	25.84
412.294	25.83
412.5	25.88
412.706	25.72
412.913	25.72
413.119	25.48
413.326	25.35
413.532	25.47
413.738	25.61
413.945	25.43
414.151	25.49
414.357	25.76
414.564	25.71
414.77	25.35
414.976	24.84
415.182	24.67
415.389	24.75
415.595	24.85
415.801	24.92
416.007	24.89
416.214	24.5
416.42	24.37
416.626	24.22
416.832	24.11
417.038	24.19
417.244	24.47
417.45	24.46
417.657	24.42
417.863	24.5
418.069	24.34
418.275	24.34
418.481	24.65
418.687	24.8
418.893	24.66
419.099	24.5
419.305	24.41
419.511	24.26
419.717	24.38
419.923	24.51
420.129	24.43
420.335	24.36
420.541	24.37
420.746	24.26
420.952	24.33
421.158	24.46
421.364	24.67
421.57	24.72
421.776	24.83
421.982	24.78
422.187	24.74
422.393	24.78
422.599	24.68
422.805	24.68
423.01	24.62
423.216	24.39
423.422	24.25
423.628	24.2
423.833	24.07
424.039	23.96
424.245	23.99
424.45	24.14
424.656	23.99
424.862	24.23
425.067	24.13
425.273	24.06
425.478	24.24
425.684	24.34
425.889	24.32
426.095	24.47
426.301	24.44
426.506	24.31
426.712	24.01
426.917	23.94
427.123	23.84
427.328	24.12
427.533	24.44
427.739	24.23
427.944	24.33
428.15	24.56
428.355	24.35
428.561	24.64
428.766	24.7
428.971	24.64
429.177	24.7
429.382	24.73
429.587	24.59
429.793	24.37
429.998	24.46
430.203	24.17
430.408	23.82
430.614	23.87
430.819	23.61
431.024	23.33
431.229	23.46
431.434	23.63
431.64	23.75
431.845	23.46
432.05	23.35
432.255	23.09
432.46	23.23
432.665	23.43
432.87	23.36
433.076	23.37
433.281	23.62
433.486	23.74
433.691	23.7
433.896	23.7
434.101	23.81
434.306	23.86
434.511	24.05
434.716	24.02
434.921	23.84
435.126	23.95
435.331	23.91
435.535	23.83
435.74	23.77
435.945	23.65
436.15	23.35
436.355	23.28
436.56	23.44
436.765	23.5
436.97	23.55
437.174	23.66
437.379	23.75
437.584	23.74
437.789	23.76
437.993	23.59
438.198	23.65
438.403	23.86
438.608	23.98
438.812	23.85
439.017	23.78
439.222	23.58
439.426	23.54
439.631	23.31
439.836	23.4
440.04	23.54
440.245	23.51
440.45	23.53
440.654	23.33
440.859	23.37
441.063	23.36
441.268	23.38
441.472	23.49
441.677	23.49
441.881	23.63
442.086	23.52
442.29	23.42
442.495	23.48
442.699	23.31
442.904	23.47
443.108	23.31
443.312	23.25
443.517	23.21
443.721	23.09
443.925	23.08
444.13	23.03
444.334	23.08
444.538	23.11
444.743	23.2
444.947	23.41
445.151	23.34
445.356	23.37
445.56	23.33
445.764	23.3
445.968	23.35
446.173	23.27
446.377	23.28
446.581	23.44
446.785	23.22
446.989	23.3
447.193	23.26
447.398	23.33
447.602	23.25
447.806	23.25
448.01	23.24
448.214	23.11
448.418	22.97
448.622	22.94
448.826	22.69
449.03	22.95
449.234	22.79
449.438	22.63
449.642	22.66
449.846	22.63
450.05	22.61
450.254	22.6
450.458	22.8
450.662	22.96
450.866	23.04
451.069	23.07
451.273	22.87
451.477	22.86
451.681	23.07
451.885	22.98
452.089	23.31
452.292	23.09
452.496	23.12
452.7	22.99
452.904	23.14
453.107	23.19
453.311	23.26
453.515	23.33
453.719	23.26
453.922	23.08
454.126	23.02
454.33	22.79
454.533	22.98
454.737	22.91
454.94	22.87
455.144	22.83
455.348	22.83
455.551	22.85
455.755	22.83
455.958	22.93
456.162	22.92
456.365	22.81
456.569	22.93
456.772	22.81
456.976	22.91
457.179	22.92
457.383	22.72
457.586	22.55
457.79	22.51
457.993	22.49
458.196	22.51
458.4	22.56
458.603	22.56
458.807	22.51
459.01	22.64
459.213	22.64
459.417	22.65
459.62	22.67
459.823	22.65
460.026	22.64
460.23	22.59
460.433	22.36
460.636	22.41
460.839	22.64
461.042	22.57
461.246	22.61
461.449	22.49
461.652	22.59
461.855	22.71
462.058	22.83
462.261	22.69
462.464	22.59
462.668	22.84
462.871	22.78
463.074	22.49
463.277	22.62
463.48	22.5
463.683	22.71
463.886	22.68
464.089	22.65
464.292	22.36
464.495	22.36
464.698	22.67
464.901	22.73
465.104	22.84
465.306	22.85
465.509	22.56
465.712	22.66
465.915	22.39
466.118	22.43
466.321	22.45
466.524	22.51
466.726	22.64
466.929	22.62
467.132	22.64
467.335	22.49
467.538	22.63
467.74	22.9
467.943	22.79
468.146	23.04
468.348	23.08
468.551	23.02
468.754	23.09
468.956	23.18
469.159	23.2
469.362	23.17
469.564	23.33
469.767	23.42
469.969	23.56
470.172	23.55
470.375	23.57
470.577	23.56
470.78	23.57
470.982	23.74
471.185	23.67
471.387	23.46
471.59	23.49
471.792	23.5
471.995	23.5
472.197	23.5
472.399	23.62
472.602	23.59
472.804	23.55
473.007	23.7
473.209	23.75
473.411	23.8
473.614	23.83
473.816	23.74
474.018	23.52
474.22	23.32
474.423	23.06
474.625	23.14
474.827	23.02
475.03	23.1
475.232	22.94
475.434	22.82
475.636	22.69
475.838	22.79
476.04	22.86
476.243	23.11
476.445	23.18
476.647	23.29
476.849	23.1
477.051	23.27
477.253	23.29
477.455	23.36
477.657	23.37
477.859	23.42
478.061	23.43
478.263	23.47
478.465	23.28
478.667	23.4
478.869	23.18
479.071	23.35
479.273	23.11
479.475	22.8
479.677	22.71
479.879	22.84
480.081	22.79
480.283	22.8
480.485	22.7
480.686	22.91
480.888	22.76
481.09	22.89
481.292	22.94
481.494	23.03
481.695	23.24
481.897	23.25
482.099	23.13
482.301	23.24
482.502	23.21
482.704	23.14
482.906	23.1
483.107	23.08
483.309	23.05
483.511	22.94
483.712	22.91
483.914	22.89
484.115	22.86
484.317	22.81
484.519	22.74
484.72	22.7
484.922	22.72
485.123	22.74
485.325	22.72
485.526	22.75
485.728	22.77
485.929	22.79
486.131	22.76
486.332	22.75
486.534	22.84
486.735	22.8
486.936	22.91
487.138	22.89
487.339	22.85
487.541	22.83
487.742	22.82
487.943	22.82
488.144	22.84
488.346	22.93
488.547	22.96
488.748	22.88
488.95	23.03
489.151	22.91
489.352	22.91
489.553	22.89
489.755	22.92
489.956	22.98
490.157	23.05
490.358	23.07
490.559	23.04
490.76	23.05
490.961	23.12
491.163	23.05
491.364	23.1
491.565	23.17
491.766	23.03
491.967	23.09
492.168	23
492.369	22.93
492.57	22.91
492.771	22.92
492.972	22.92
493.173	22.93
493.374	23.01
493.575	23.02
493.776	23.03
493.976	23.09
494.177	23.15
494.378	23.33
494.579	23.36
494.78	23.4
494.981	23.27
495.182	23.35
495.382	23.37
495.583	23.37
495.784	23.45
495.985	23.28
496.185	23.48
496.386	23.26
496.587	23.27
496.788	23.35
496.988	23.33
497.189	23.31
497.39	23.19
497.59	23.2
497.791	23.11
497.992	22.98
498.192	23
498.393	23.03
498.593	23.09
498.794	23.03
498.994	23.04
499.195	23.02
499.395	23.22
499.596	23.28
499.796	23.23
499.997	23.16
500.197	23.29
500.398	23.38
500.598	23.43
500.799	23.7
500.999	23.64
501.199	23.75
501.4	23.96
501.6	23.96
501.801	24.29
502.001	24.43
502.201	24.58
502.402	24.79
502.602	24.97
502.802	25.06
503.002	25.03
503.203	25.21
503.403	25.21
503.603	25
503.803	24.93
504.003	24.73
504.204	24.94
504.404	24.92
504.604	24.83
504.804	24.88
505.004	24.91
505.204	25.04
505.404	25.12
505.604	25.11
505.804	25.18
506.005	25.2
506.205	25.18
506.405	25.08
506.605	25.47
506.805	25.55
507.005	25.42
507.204	25.47
507.404	25.51
507.604	25.62
507.804	25.74
508.004	25.88
508.204	26.04
508.404	26.15
508.604	26.1
508.804	25.76
509.003	25.88
509.203	26.01
509.403	26.13
509.603	26.19
509.803	25.99
510.002	25.9
510.202	26.06
510.402	26.1
510.602	26.21
510.801	26.34
511.001	26.45
511.201	26.39
511.4	26.46
511.6	26.46
511.8	26.35
511.999	26.51
512.199	26.65
512.398	26.64
512.598	26.64
512.797	26.89
512.997	27.03
513.197	27.28
513.396	27.39
513.596	27.48
513.795	27.53
513.994	27.81
514.194	27.91
514.393	27.97
514.593	28.33
514.792	28.5
514.992	28.47
515.191	28.45
515.39	28.47
515.59	28.64
515.789	28.79
515.988	29
516.188	29
516.387	29.22
516.586	29.35
516.786	29.25
516.985	29.29
517.184	29.44
517.383	29.7
517.582	29.97
517.782	30.06
517.981	29.99
518.18	30.09
518.379	30.29
518.578	30.3
518.777	30.31
518.976	30.42
519.176	30.63
519.375	30.73
519.574	30.74
519.773	30.66
519.972	30.71
520.171	30.91
520.37	30.95
520.569	30.96
520.768	31.19
520.967	31.45
521.166	31.46
521.365	31.55
521.564	31.52
521.762	31.71
521.961	32.01
522.16	32.23
522.359	32.33
522.558	32.28
522.757	32.39
522.956	32.28
523.154	32.35
523.353	32.62
523.552	32.72
523.751	32.87
523.949	33.1
524.148	33.18
524.347	33.27
524.546	33.37
524.744	33.61
524.943	33.62
525.142	33.97
525.34	34.06
525.539	34.12
525.737	34.33
525.936	34.42
526.135	34.34
526.333	34.49
526.532	34.48
526.73	34.7
526.929	34.91
527.127	35.09
527.326	35.17
527.524	35.46
527.723	35.55
527.921	35.59
528.12	35.7
528.318	35.8
528.516	35.81
528.715	35.99
528.913	36.01
529.112	36.01
529.31	36.1
529.508	36.17
529.707	36.14
529.905	36.28
530.103	36.33
530.301	36.41
530.5	36.48
530.698	36.62
530.896	36.58
531.094	36.7
531.293	36.88
531.491	37.01
531.689	37.11
531.887	37.19
532.085	37.23
532.283	37.38
532.481	37.5
532.68	37.6
532.878	37.75
533.076	37.88
533.274	37.91
533.472	37.94
533.67	38
533.868	37.98
534.066	38.07
534.264	38.15
534.462	38.26
534.66	38.44
534.858	38.69
535.056	38.75
535.253	38.84
535.451	39.02
535.649	39.19
535.847	39.34
536.045	39.51
536.243	39.66
536.441	39.71
536.638	39.77
536.836	39.69
537.034	39.6
537.232	39.67
537.43	39.87
537.627	39.93
537.825	40
538.023	40.03
538.22	40.22
538.418	40.35
538.616	40.51
538.813	40.66
539.011	40.79
539.209	41.05
539.406	41.03
539.604	41.02
539.801	41.17
539.999	41.26
540.196	41.34
540.394	41.42
540.591	41.5
540.789	41.54
540.986	41.55
541.184	41.73
541.381	41.78
541.579	41.84
541.776	41.86
541.974	41.86
542.171	41.94
542.368	42
542.566	41.98
542.763	41.98
542.96	42.03
543.158	42.03
543.355	42.01
543.552	42
543.75	42.07
543.947	42.17
544.144	42.17
544.341	42.14
544.539	41.99
544.736	42.06
544.933	42.18
545.13	42.35
545.327	42.48
545.524	42.45
545.722	42.62
545.919	42.64
546.116	42.84
546.313	43
546.51	43.08
546.707	43.41
546.904	43.59
547.101	43.57
547.298	43.51
547.495	43.56
547.692	43.68
547.889	43.76
548.086	43.85
548.283	43.76
548.48	43.76
548.677	43.83
548.874	43.68
549.07	43.55
549.267	43.57
549.464	43.7
549.661	43.77
549.858	43.84
550.055	43.76
550.251	43.94
550.448	44.21
550.645	44.38
550.842	44.54
551.038	44.72
551.235	44.65
551.432	44.62
551.628	44.83
551.825	45
552.022	45.18
552.218	45.3
552.415	45.18
552.612	45.02
552.808	45.05
553.005	45.11
553.201	45.11
553.398	45.3
553.594	45.42
553.791	45.28
553.987	45.32
554.184	45.27
554.38	45.36
554.577	45.61
554.773	45.74
554.97	46.04
555.166	46.12
555.362	46.32
555.559	46.64
555.755	46.74
555.952	46.88
556.148	46.68
556.344	46.66
556.541	46.58
556.737	46.66
556.933	46.75
557.129	46.42
557.326	46.43
557.522	46.25
557.718	46.11
557.914	46.22
558.11	46.2
558.307	46.48
558.503	46.56
558.699	46.81
558.895	46.86
559.091	46.85
559.287	47.01
559.483	47.21
559.679	47.46
559.876	47.79
560.072	47.98
560.268	48.26
560.464	48.19
560.66	48.17
560.856	48.25
561.052	48.4
561.247	48.39
561.443	48.79
561.639	48.81
561.835	48.88
562.031	48.76
562.227	48.84
562.423	48.67
562.619	48.79
562.815	48.84
563.01	49.03
563.206	49.01
563.402	49.13
563.598	48.84
563.793	48.82
563.989	48.95
564.185	49.12
564.381	49.1
564.576	49.01
564.772	48.94
564.968	49.15
565.163	48.92
565.359	48.96
565.555	49.19
565.75	49.3
565.946	49.51
566.141	49.4
566.337	49.22
566.532	49.23
566.728	49.56
566.923	49.61
567.119	49.73
567.314	49.56
567.51	49.76
567.705	49.62
567.901	49.82
568.096	49.58
568.292	49.56
568.487	49.74
568.682	49.76
568.878	49.67
569.073	49.92
569.268	50
569.464	50.29
569.659	50.26
569.854	50.42
570.05	50.45
570.245	50.66
570.44	50.75
570.635	50.86
570.831	50.91
571.026	50.84
571.221	50.74
571.416	50.66
571.611	50.74
571.806	50.57
572.002	50.77
572.197	50.67
572.392	50.64
572.587	50.46
572.782	50.36
572.977	50.31
573.172	50.49
573.367	50.36
573.562	50.33
573.757	50.3
573.952	50.29
574.147	50.06
574.342	50.1
574.537	50.13
574.732	50.54
574.927	50.56
575.121	50.72
575.316	50.77
575.511	51.17
575.706	51.26
575.901	51.35
576.096	51.46
576.29	51.69
576.485	51.88
576.68	52.01
576.875	52.05
577.069	52.06
577.264	52.1
577.459	51.99
577.654	51.74
577.848	51.8
578.043	51.95
578.238	52.29
578.432	52.14
578.627	52.05
578.821	51.98
579.016	52.02
579.21	52.23
579.405	52.24
579.6	52.34
579.794	52.52
579.989	52.57
580.183	52.93
580.378	52.85
580.572	52.6
580.766	52.78
580.961	52.57
581.155	52.59
581.35	52.73
581.544	52.75
581.738	52.91
581.933	53.06
582.127	52.96
582.321	52.38
582.516	52.34
582.71	52.79
582.904	52.81
583.099	53.07
583.293	53.16
583.487	52.82
583.681	52.57
583.875	52.44
584.07	52.08
584.264	52.35
584.458	52.69
584.652	52.4
584.846	52.2
585.04	51.91
585.234	52
585.428	52.13
585.623	52.43
585.817	52.91
586.011	53.03
586.205	53.12
586.399	53.04
586.593	52.91
586.787	53.4
586.981	53.66
587.174	53.96
587.368	53.9
587.562	53.47
587.756	53.48
587.95	53.2
588.144	53.3
588.338	53.35
588.532	53.47
588.725	53.59
588.919	53.6
589.113	53.67
589.307	53.68
589.501	53.78
589.694	53.87
589.888	53.71
590.082	53.84
590.275	53.78
590.469	54.07
590.663	53.94
590.856	54.08
591.05	53.94
591.244	53.99
591.437	54.21
591.631	54.19
591.824	54.16
592.018	54.04
592.212	54.07
592.405	54.16
592.599	53.95
592.792	53.99
592.986	53.96
593.179	54.05
593.372	53.98
593.566	53.79
593.759	53.86
593.953	54.28
594.146	54.69
594.339	54.85
594.533	54.81
594.726	55.03
594.92	55.25
595.113	54.84
595.306	54.82
595.499	55.14
595.693	55.34
595.886	55.44
596.079	55.43
596.272	55.43
596.466	55.48
596.659	55.5
596.852	55.51
597.045	55.37
597.238	55.81
597.431	55.68
597.624	55.28
597.818	55.03
598.011	54.67
598.204	54.58
598.397	54.44
598.59	54.5
598.783	54.32
598.976	54.31
599.169	54.55
599.362	54.38
599.555	54.38
599.748	54.76
599.941	54.92
600.134	55.51
600.326	55.6
600.519	55.32
600.712	54.85
600.905	54.86
601.098	54.91
601.291	54.46
601.483	54.46
601.676	54.72
601.869	54.57
602.062	54.8
602.255	55.01
602.447	54.9
602.64	55.25
602.833	55.72
603.025	55.92
603.218	56.11
603.411	56.3
603.603	56.42
603.796	56.35
603.989	56.55
604.181	56.36
604.374	56.18
604.566	56.34
604.759	56.51
604.951	56.45
605.144	56.46
605.336	56.43
605.529	56.27
605.721	56.24
605.914	56.21
606.106	56.07
606.299	56.16
606.491	56.3
606.683	56.44
606.876	56.44
607.068	56.15
607.26	56.33
607.453	56.23
607.645	56.44
607.837	56.37
608.03	56.56
608.222	56.47
608.414	56.59
608.606	56.37
608.799	56.29
608.991	56.09
609.183	56.24
609.375	56.06
609.567	55.73
609.759	55.9
609.952	55.73
610.144	55.63
610.336	55.62
610.528	55.37
610.72	55.53
610.912	55.21
611.104	55.25
611.296	55.14
611.488	55.15
611.68	55.34
611.872	55.17
612.064	55.43
612.256	55.23
612.448	55.11
612.64	55.25
612.832	55.06
613.023	54.96
613.215	55.19
613.407	55.58
613.599	55.83
613.791	55.87
613.983	55.85
614.174	55.97
614.366	56.19
614.558	56.16
614.75	56.32
614.941	56.38
615.133	56.51
615.325	56.43
615.516	56.34
615.708	56.18
615.9	56.13
616.091	56.03
616.283	55.92
616.475	56.05
616.666	56.47
616.858	56.44
617.049	56.24
617.241	56.35
617.432	56.48
617.624	56.48
617.815	56.49
618.007	56.62
618.198	57.22
618.39	56.88
618.581	56.46
618.773	56.46
618.964	56.58
619.155	56.79
619.347	57.05
619.538	57.1
619.729	56.97
619.921	56.78
620.112	56.67
620.303	56.2
620.494	56.53
620.686	56.99
620.877	56.9
621.068	57.02
621.259	56.69
621.451	56.79
621.642	56.74
621.833	56.99
622.024	57.08
622.215	57.23
622.406	57.11
622.597	57.23
622.788	57.21
622.98	57.04
623.171	56.62
623.362	57.17
623.553	56.66
623.744	56.72
623.935	56.52
624.126	56.51
624.317	56.45
624.508	56.65
624.698	56.89
624.889	57.15
625.08	57.42
625.271	57.57
625.462	57.57
625.653	57.79
625.844	57.52
626.034	57.69
626.225	58.08
626.416	58.13
626.607	58.36
626.798	58.18
626.988	58.05
627.179	58.03
627.37	57.9
627.56	58.02
627.751	58.04
627.942	58.19
628.132	57.9
628.323	57.43
628.514	57.29
628.704	57.37
628.895	57.36
629.085	57.39
629.276	57.14
629.466	57.55
629.657	57.26
629.847	57.43
630.038	57.31
630.228	57.76
630.419	58.2
630.609	58.24
630.8	58.16
630.99	58.2
631.181	58.33
631.371	58.87
631.561	58.6
631.752	58.65
631.942	58.76
632.132	58.8
632.323	58.75
632.513	58.75
632.703	58.51
632.893	58.07
633.084	58.14
633.274	58.04
633.464	57.69
633.654	57.67
633.844	57.75
634.034	58.09
634.225	58.25
634.415	58.27
634.605	58.25
634.795	58.89
634.985	58.93
635.175	58.84
635.365	58.67
635.555	59.06
635.745	58.92
635.935	58.9
636.125	58.39
636.315	58.45
636.505	58.76
636.695	58.54
636.885	58.85
637.075	59.13
637.265	59.18
637.455	59.21
637.644	58.74
637.834	59.3
638.024	59.46
638.214	59.31
638.404	59.2
638.593	58.91
638.783	58.97
638.973	57.85
639.163	58.03
639.352	57.95
639.542	58.03
639.732	58.26
639.921	57.75
640.111	57.65
640.301	57.58
640.49	57.75
640.68	57.46
640.87	57.36
641.059	57.68
641.249	57.3
641.438	57.28
641.628	57.36
641.817	57.48
642.007	57.74
642.196	57.45
642.386	57.43
642.575	57.11
642.764	57.09
642.954	57.53
643.143	58.02
643.333	58.54
643.522	58.77
643.711	58.77
643.901	58.59
644.09	58.63
644.279	59
644.469	59.16
644.658	59.28
644.847	59.69
645.036	59.34
645.226	58.66
645.415	58.6
645.604	58.2
645.793	58.23
645.982	58.17
646.171	57.92
646.361	58.24
646.55	58.49
646.739	58.2
646.928	58.07
647.117	58.09
647.306	58.92
647.495	58.75
647.684	59.19
647.873	59.4
648.062	59.34
648.251	59.42
648.44	59.12
648.629	59.46
648.818	59.79
649.007	59.69
649.196	59.79
649.384	59.83
649.573	59.76
649.762	59.31
649.951	58.88
650.14	58.81
650.328	58.77
650.517	58.56
650.706	58.13
650.895	57.71
651.083	57.09
651.272	56.97
651.461	56.8
651.65	56.69
651.838	56.91
652.027	57.16
652.216	57.28
652.404	57.27
652.593	57.36
652.781	57.6
652.97	58.42
653.158	59.34
653.347	59.19
653.535	58.78
653.724	58.79
653.912	58.65
654.101	58.94
654.289	58.89
654.478	58.9
654.666	59.03
654.855	58.98
655.043	58.85
655.231	58.39
655.42	58.9
655.608	58.7
655.796	58.61
655.985	59.13
656.173	58.69
656.361	58.8
656.55	58.63
656.738	58.29
656.926	58.47
657.114	58.05
657.302	58.22
657.491	57.8
657.679	58.18
657.867	58.45
658.055	58.17
658.243	58.11
658.431	58.43
658.619	58.9
658.807	59.12
658.996	59.22
659.184	59.27
659.372	58.75
659.56	59.16
659.748	59.35
659.936	59.46
660.124	59.46
660.311	59.52
660.499	59.66
660.687	59.77
660.875	59.51
661.063	59.12
661.251	59.01
661.439	59.38
661.627	58.99
661.814	58.68
662.002	58.47
662.19	58.04
662.378	58.21
662.565	57.87
662.753	57.57
662.941	57.96
663.129	58.31
663.316	58.19
663.504	58.07
663.692	58.01
663.879	58.38
664.067	58.56
664.254	59.28
664.442	59.11
664.63	59.24
664.817	58.91
665.005	58.94
665.192	59.13
665.38	59.45
665.567	59.75
665.755	59.72
665.942	59.35
666.13	59.08
666.317	59.39
666.504	59.7
666.692	59.76
666.879	59.83
667.067	59.86
667.254	59.41
667.441	59.38
667.629	59.18
667.816	58.92
668.003	58.99
668.19	59.05
668.378	58.43
668.565	58.05
668.752	57.86
668.939	58.53
669.127	58.12
669.314	58.65
669.501	59.02
669.688	59.37
669.875	59.74
670.062	59.78
670.249	59.84
670.436	60.01
670.623	60.01
670.81	60.01
670.997	59.69
671.184	60
671.371	59.39
671.558	59.51
671.745	59.37
671.932	59.75
672.119	59.83
672.306	60.1
672.493	59.95
672.68	60.53
672.867	60.05
673.054	60.43
673.24	60.09
673.427	60.24
673.614	59.05
673.801	59.01
673.988	58.94
674.174	59.27
674.361	58.62
674.548	59.39
674.734	59.06
674.921	59.45
675.108	58.98
675.294	58.98
675.481	58.99
675.668	59.72
675.854	59.88
676.041	59.58
676.227	58.92
676.414	59.48
676.601	59.2
676.787	58.79
676.974	59.09
677.16	59.04
677.347	59.71
677.533	59.19
677.719	59.65
677.906	59.54
678.092	59.31
678.279	59.43
678.465	59.18
678.651	59.18
678.838	59.45
679.024	59.11
679.21	59.26
679.397	59.26
679.583	59.8
679.769	59.41
679.955	59.92
680.142	59.86
680.328	60
680.514	60.1
680.7	59.6
680.886	59.51
681.073	59.7
681.259	60.14
681.445	60.49
681.631	60.31
681.817	60.01
682.003	59.38
682.189	59.75
682.375	60.45
682.561	60.78
682.747	60.84
682.933	61.01
683.119	61.07
683.305	60.28
683.491	59.25
683.677	59.14
683.863	59.8
684.049	60.2
684.235	59.73
684.42	59.35
684.606	58.77
684.792	59.24
684.978	59.28
685.164	58.8
685.349	58.76
685.535	59.29
685.721	59.52
685.907	59.3
686.092	59.47
686.278	60.21
686.464	59.93
686.649	59.94
686.835	59.61
687.021	59.42
687.206	59.44
687.392	59.4
687.577	58.98
687.763	58.97
687.948	58.99
688.134	58.72
688.319	58.74
688.505	58.49
688.69	58.74
688.876	58.9
689.061	59.63
689.247	59.77
689.432	59.81
689.618	60.06
689.803	59.99
689.988	59.69
690.174	59.24
690.359	58.96
690.544	58.47
690.73	58.55
690.915	58.33
691.1	57.9
691.285	58.71
691.471	59.41
691.656	59.64
691.841	59.49
692.026	59.54
692.211	59.49
692.396	59.72
692.582	60.19
692.767	59.84
692.952	59.74
693.137	60.23
693.322	59.68
693.507	59.03
693.692	58.23
693.877	58.3
694.062	59.13
694.247	59.69
694.432	60.36
694.617	60.76
694.802	61.17
694.987	61.32
695.172	60.72
695.357	60.9
695.541	61.15
695.726	61.29
695.911	61.26
696.096	61.08
696.281	61.48
696.466	60.22
696.65	60.22
696.835	60.16
697.02	60.48
697.204	59.91
697.389	59.45
697.574	59.81
697.759	60
697.943	60.03
698.128	59.59
698.312	58.69
698.497	59.06
698.682	59.04
698.866	59.18
699.051	58.95
699.235	59.77
699.42	60.22
699.604	59.75
699.789	59.69
699.973	59.46
700.158	59.29
700.342	59.97
700.527	59.99
700.711	59.54
700.895	59
701.08	59.41
701.264	58.79
701.448	58.82
701.633	59.24
701.817	59.6
702.001	59.97
702.186	60.41
702.37	60.16
702.554	60.59
702.738	60.84
702.923	61.22
703.107	60.48
703.291	59.52
703.475	59.39
703.659	58.8
703.843	58.29
704.027	58.44
704.212	58.82
704.396	58.28
704.58	57.73
704.764	57.21
704.948	57.39
705.132	57.18
705.316	58.61
705.5	58.22
705.684	57.93
705.868	58.52
706.052	57.85
706.235	57.95
706.419	58.61
706.603	59.16
706.787	60.28
706.971	60.74
707.155	60.83
707.339	60.25
707.522	59.43
707.706	59.81
707.89	59.43
708.074	60.12
708.257	59.83
708.441	59.53
708.625	59.39
708.808	59.37
708.992	58.01
709.176	57.99
709.359	58.75
709.543	59.67
709.727	60.03
709.91	59.77
710.094	59.32
710.277	59.53
710.461	59.14
710.644	59.21
710.828	59
711.011	59.47
711.195	60.31
711.378	59.57
711.562	59.27
711.745	58.8
711.928	59.71
712.112	59.76
712.295	59.54
712.478	60.39
712.662	59.58
712.845	60.11
713.028	60.44
713.212	59.81
713.395	60.14
713.578	60.06
713.761	60.33
713.945	60.04
714.128	60.13
714.311	59.63
714.494	60.3
714.677	60.94
714.86	60.04
715.043	59.96
715.227	59.55
715.41	59.36
715.593	59.29
715.776	59.49
715.959	59.33
716.142	59.6
716.325	59.45
716.508	59
716.691	58.44
716.874	59.22
717.057	59.72
717.239	59.88
717.422	60.26
717.605	61.37
717.788	61.23
717.971	62.12
718.154	62.37
718.337	62.97
718.519	63.57
718.702	64.47
718.885	63.48
719.068	63.31
719.25	64.43
719.433	64.36
719.616	63.41
719.798	63.49
719.981	63.36
720.164	62.81
720.346	62.97
720.529	62.09
720.712	62.15
720.894	62.91
721.077	63.9
721.259	63.57
721.442	63.41
721.624	63.53
721.807	63.35
721.989	61.91
722.172	61.12
722.354	60.51
722.537	59.56
722.719	58.92
722.901	58.26
723.084	56.4
723.266	55.83
723.448	55.43
723.631	55.64
723.813	55.7
723.995	56.69
724.178	57.58
724.36	58.51
724.542	60.83
724.724	60.3
724.907	60.82
725.089	61.66
725.271	62.35
725.453	62.63
725.635	62.77
725.817	63.22
725.999	61.79
726.181	62.48
726.364	61.8
726.546	59.62
726.728	61
726.91	60.23
727.092	60.43
727.274	60.69
727.456	60.66
727.638	60.36
727.819	61.03
728.001	62.87
728.183	62.84
728.365	63.61
728.547	63.82
728.729	63.21
728.911	64.16
729.093	63.79
729.274	64
729.456	63.38
729.638	63.23
729.82	62.44
730.001	60.91
730.183	60.07
730.365	59.1
730.546	59.59
730.728	57.99
730.91	57.47
731.091	57.35
731.273	55.85
731.455	55.95
731.636	57.18
731.818	57.66
731.999	58.55
732.181	58.92
732.362	59.39
732.544	59.1
732.725	59.8
732.907	59
733.088	59.21
733.27	60.16
733.451	59.9
733.633	59.52
733.814	58.38
733.995	57.72
734.177	57.67
734.358	57.9
734.539	58.39
734.721	58.09
734.902	59.04
735.083	58.87
735.264	59.65
735.446	60.1
735.627	60.33
735.808	60.75
735.989	61.65
736.17	60.3
736.351	60.28
736.533	59.43
736.714	59.29
736.895	58.7
737.076	57.64
737.257	57.65
737.438	58.28
737.619	56.68
737.8	57.19
737.981	56.49
738.162	57.27
738.343	57.03
738.524	57.1
738.705	58.62
738.886	59.3
739.067	60.3
739.247	59.62
739.428	58.72
739.609	59.52
739.79	58.62
739.971	58.9
740.151	58.56
740.332	59.06
740.513	60.43
740.694	59.82
740.874	59.13
741.055	58.41
741.236	57.74
741.417	58.71
741.597	59.12
741.778	59.84
741.958	59.35
742.139	60.31
742.32	58.47
742.5	56.01
742.681	57.91
742.861	58.33
743.042	59.08
743.222	60.34
743.403	58.99
743.583	58.85
743.764	58.91
743.944	59.66
744.124	60.24
744.305	61.25
744.485	62.11
744.666	61.91
744.846	61.55
745.026	61.36
745.207	60.92
745.387	62.74
745.567	62.83
745.747	63.53
745.928	62.53
746.108	62.21
746.288	62.1
746.468	62.31
746.648	60.68
746.829	61.95
747.009	60.67
747.189	60.86
747.369	61.2
747.549	59.47
747.729	58.89
747.909	58.85
748.089	58.43
748.269	59.74
748.449	60.25
748.629	60.34
748.809	58.46
748.989	60.13
749.169	59.11
749.349	57.34
749.529	58.86
749.709	59.81
749.889	59.49
750.068	59.37
750.248	57.78
750.428	57.52
750.608	58.11
750.788	59.91
750.967	58.84
751.147	59.17
751.327	59.59
751.507	57.91
751.686	56.51
751.866	57.66
752.046	57.45
752.225	57.61
752.405	57.11
752.585	55.85
752.764	56.44
752.944	57.3
753.123	57.31
753.303	58.1
753.482	60.09
753.662	61.72
753.841	60.26
754.021	61.25
754.2	61.74
754.38	62.87
754.559	64.52
754.739	63.27
754.918	65.07
755.097	65.02
755.277	64.84
755.456	62.16
755.635	60.89
755.815	62.15
755.994	60.49
756.173	62.54
756.352	61.64
756.532	59.99
756.711	60.97
756.89	59.23
757.069	59.25
757.248	57.44
757.427	59.98
757.607	59.87
757.786	59.85
757.965	60.85
758.144	58.52
758.323	58.15
758.502	57.93
758.681	58.51
758.86	58.04
759.039	58.18
759.218	59.74
759.397	57.59
759.576	57.49
759.755	57.49
759.934	57.3
760.113	58.01
760.291	59.8
760.47	61.89
760.649	60.93
760.828	60.5
761.007	59.84
761.186	59.02
761.364	60.62
761.543	59.88
761.722	59.8
761.901	60.93
762.079	61.78
762.258	61.58
762.437	59.56
762.615	60.24
762.794	59.65
762.972	59.68
763.151	60.31
763.33	59.87
763.508	59.33
763.687	58.94
763.865	59.83
764.044	58.71
764.222	58.64
764.401	59.71
764.579	58.59
764.758	59.49
764.936	58.99
765.114	59.39
765.293	59.08
765.471	60.61
765.65	61.19
765.828	59.07
766.006	58.59
766.184	58.59
766.363	57.39
766.541	58.27
766.719	58.26
766.898	60.16
767.076	59.28
767.254	59.31
767.432	59.46
767.61	57.88
767.788	58.09
767.967	57.86
768.145	57.31
768.323	58.04
768.501	56.36
768.679	54.65
768.857	53.41
769.035	53.69
769.213	55.6
769.391	54.19
769.569	55.28
769.747	55.38
769.925	57.48
770.103	55.97
770.281	57
770.459	59.58
770.636	62.76
770.814	61.66
770.992	61.18
771.17	57.41
771.348	57.24
771.525	58.31
771.703	58.21
771.881	55.74
772.059	57.6
772.236	57.09
772.414	55.21
772.592	53.71
772.769	54.29
772.947	55.5
773.125	59.61
773.302	59.75
773.48	59.82
773.657	60.38
773.835	61.74
774.013	58.33
774.19	57.14
774.368	59.3
774.545	57.96
774.723	58.88
774.9	57.17
775.077	57.51
775.255	57.49
775.432	57.8
775.61	56.12
775.787	57.09
775.964	58.37
776.142	57.78
776.319	52.89
776.496	53.55
776.674	53.07
776.851	53.41
777.028	53.15
777.205	53.43
777.382	53.48
777.56	53.42
777.737	54.5
777.914	55.1
778.091	55.5
778.268	58.46
778.445	58.86
778.622	57.69
778.8	58.15
778.977	57.48
779.154	58.53
779.331	58.66
779.508	59.6
779.685	58.84
779.862	59.73
780.038	62.69
780.215	59.63
780.392	59.05
780.569	59.33
780.746	58.16
780.923	58.04
781.1	57.84
781.277	57.1
781.453	55.61
781.63	53.44
781.807	53.69
781.984	53.08
782.16	54.12
782.337	55.25
782.514	59.94
782.691	60.09
782.867	57.79
783.044	58.72
783.221	58.3
783.397	59.97
783.574	61.94
783.75	59.93
783.927	58.02
784.103	59.88
784.28	59.87
784.456	55.6
784.633	56.79
784.809	58.89
784.986	58.43
785.162	55.84
785.339	53.95
785.515	51.86
785.692	53.36
785.868	52.39
786.044	55.95
786.221	58.47
786.397	59.47
786.573	60.59
786.749	61.14
786.926	61.03
787.102	63.5
787.278	64.52
787.454	67.81
787.631	67.08
787.807	67.5
787.983	63.8
788.159	60.17
788.335	59.1
788.511	57.54
788.687	55.93
788.863	54.5
789.039	54.7
789.216	56.67
789.392	55.18
789.568	53.7
789.744	55.12
789.919	54.9
790.095	55.79
790.271	54.97
790.447	53.6
790.623	53.45
790.799	54.68
790.975	55.52
791.151	54.59
791.327	55.52
791.502	57.48
791.678	58.8
791.854	57.71
792.03	56.77
792.205	58.1
792.381	59.62
792.557	61.74
792.733	59.92
792.908	59.05
793.084	60.12
793.259	58.91
793.435	59.97
793.611	53.93
793.786	56.15
793.962	54.35
794.137	53.52
794.313	53.24
794.488	51.08
794.664	52.19
794.839	52.82
795.015	52.32
795.19	52.93
795.366	49.28
795.541	51.63
795.716	50.78
795.892	52.78
796.067	56.24
796.242	57.74
796.418	61.26
796.593	63.02
796.768	61.29
796.944	63.74
797.119	63.05
797.294	66.74
797.469	67.74
797.644	68.6
797.82	71.11
797.995	68.96
798.17	69.59
798.345	68.94
798.52	68.99
798.695	69.74
798.87	68.48
799.045	67.75
799.22	65.22
799.395	63.6
799.57	64.92
799.745	65.06
799.92	63.83
800.095	64
800.27	62.69
800.445	59.03
800.62	57.63
800.795	55.27
800.97	55.93
801.145	58.16
801.319	57.62
801.494	51.74
801.669	49.44
801.844	48.93
802.018	50.59
802.193	48.53
802.368	50.19
802.543	50.5
802.717	53.45
802.892	50.79
803.067	50.08
803.241	52.06
803.416	57.43
803.59	57.67
803.765	56.05
803.94	54.44
804.114	55.67
804.289	54.46
804.463	55.9
804.638	52.17
804.812	55.53
804.986	54.89
805.161	56.58
805.335	54.91
805.51	55.21
805.684	57.17
805.858	56.61
806.033	59.65
806.207	67.55
806.381	65.58
806.556	70.33
806.73	67.04
806.904	68.21
807.078	67.31
807.253	67.12
807.427	65.84
807.601	67.33
807.775	66.1
807.949	63.54
808.123	59.44
808.298	58.93
808.472	56.02
808.646	60.08
808.82	57.73
808.994	59.79
809.168	60
809.342	62.23
809.516	63.22
809.69	65.18
809.864	66.1
810.038	65.12
810.212	67.98
810.385	67.66
810.559	63.75
810.733	65.43
810.907	60.8
811.081	62.54
811.255	62.16
811.428	58.57
811.602	55.66
811.776	54.42
811.95	55.9
812.123	56.42
812.297	53.97
812.471	57.78
812.644	57.33
812.818	56.98
812.992	57.78
813.165	57.85
813.339	59.72
813.512	62.94
813.686	60.41
813.86	57.11
814.033	55.33
814.207	54.89
814.38	54.39
814.554	53.28
814.727	53.8
814.9	55.55
815.074	56.67
815.247	55.55
815.421	52.7
815.594	58.72
815.767	61.47
815.941	60.78
816.114	60.6
816.287	56.77
816.46	61.34
816.634	59.35
816.807	57.31
816.98	59.62
817.153	61.36
817.327	65.27
817.5	59.69
817.673	58.35
817.846	59.34
818.019	65.8
818.192	65.15
818.365	59.62
818.538	58.16
818.711	55.87
818.884	51.61
819.057	52.53
819.23	52.55
819.403	53.53
819.576	52.45
819.749	54.62
819.922	54.5
820.095	57.89
820.268	61.26
820.441	65.62
820.614	64.26
820.786	63.33
820.959	62.31
821.132	60.1
821.305	62.68
821.477	63.44
821.65	61.44
821.823	60.21
821.996	59.32
822.168	59.14
822.341	58.77
822.514	59.38
822.686	59.43
822.859	59.81
823.031	59.91
823.204	59.19
823.376	57.83
823.549	57.3
823.722	56.42
823.894	56.95
824.067	56.74
824.239	55.9
824.411	55.83
824.584	56.46
824.756	55.85
824.929	55.62
825.101	56.04
825.273	57.07
825.446	57.07
825.618	58.38
825.79	60.26
825.963	59.91
826.135	60.85
826.307	61.01
826.479	59.45
826.652	59.71
826.824	61.11
826.996	60.41
827.168	60.4
827.34	61.06
827.512	59.84
827.684	58.73
827.856	59.17
828.029	58.26
828.201	58.04
828.373	56.81
828.545	55.31
828.717	54.21
828.889	53.15
829.061	52.79
829.232	52.32
829.404	54.04
829.576	52.98
829.748	52.75
829.92	54.33
830.092	53.74
830.264	54.33
830.436	54.77
830.607	51.7
830.779	50.29
830.951	53.66
831.123	54.44
831.294	55.16
831.466	52.55
831.638	52.28
831.809	53.25
831.981	54.55
832.153	58.61
832.324	58.88
832.496	62.7
832.667	63.56
832.839	62.65
833.011	62.26
833.182	59.55
833.354	60.6
833.525	58.42
833.697	58.81
833.868	57.12
834.039	55.05
834.211	55.17
834.382	53.51
834.554	54.67
834.725	49.17
834.896	51.05
835.068	54.09
835.239	55.13
835.41	55.25
835.581	49.53
835.753	48.45
835.924	50.64
836.095	52.3
836.266	51.76
836.438	47.75
836.609	48.85
836.78	46.4
836.951	43.8
837.122	41.46
837.293	38.46
837.464	47.86
837.635	52.75
837.806	52.52
837.977	47.84
838.148	49.83
838.319	53.14
838.49	58.73
838.661	61.7
838.832	62.68
839.003	60.53
839.174	64.25
839.345	66.44
839.516	63.12
839.687	56.46
839.857	60.74
840.028	63.39
840.199	67.33
840.37	64.32
840.54	68.53
840.711	61.15
840.882	62.72
841.053	60.22
841.223	50.77
841.394	54.33
841.564	59.53
841.735	57.23
841.906	54.15
842.076	53.08
842.247	61.72
842.417	57.59
842.588	64.97
842.758	71.18
842.929	72.16
843.099	80.87
843.27	79.29
843.44	79.85
843.611	74.53
843.781	75.48
843.951	80.75
844.122	74.31
844.292	71.97
844.462	74.63
844.633	78.07
844.803	85.03
844.973	74.23
845.144	73.81
845.314	77.93
845.484	90.48
845.654	92.38
845.824	74.88
845.995	70.29
846.165	55
846.335	50.5
846.505	48.1
846.675	48.81
846.845	49.26
847.015	49.06
847.185	46.6
847.355	47.18
847.525	44.55
847.695	48.54
847.865	56
848.035	68.66
848.205	77.79
848.375	72.28
848.545	73.59
848.715	81.38
848.884	77.2
849.054	79.85
849.224	76.91
849.394	81.98
849.564	82.41
849.733	73.83
849.903	71.79
850.073	71.31
850.243	78.63
850.412	75.44
850.582	67.28
850.752	62.93
850.921	60.72
851.091	60.84
851.26	67.37
851.43	68.54
851.599	72.83
851.769	81.93
851.939	80.23
852.108	69.87
852.278	74.33
852.447	92.95
852.616	110.8
852.786	111.27
852.955	100.25
853.125	102.01
853.294	95.16
853.463	94.34
853.633	83.23
853.802	77.92
853.971	94.07
854.141	89.39
854.31	68.01
854.479	60.26
854.648	60.17
854.818	52.12
854.987	59.38
855.156	67.05
855.325	63.8
855.494	61.84
855.663	58.8
855.832	54.14
856.001	57.48
856.171	70.54
856.34	76.09
856.509	70.52
856.678	89.89
856.847	81.42
857.016	78.05
857.185	87.31
857.353	82.05
857.522	73.7
857.691	70.67
857.86	75.98
858.029	75.82
858.198	75.71
858.367	87.22
858.535	80.98
858.704	81.76
858.873	72.17
859.042	61.08
859.21	60.17
859.379	78.44
859.548	84.39
859.717	70.96
859.885	64.6
860.054	67.61
860.222	66.62
860.391	63.79
860.56	65.25
860.728	67.9
860.897	75.01
861.065	91.41
861.234	73.06
861.402	76.96
861.571	90.72
861.739	76.12
861.908	72.78
862.076	68.66
862.244	80.12
862.413	92.48
862.581	118.3
862.749	106.77
862.918	86.72
863.086	91.88
863.254	85.52
863.423	70.92
863.591	80.63
863.759	84.28
863.927	95.45
864.096	98.79
864.264	99.34
864.432	81.67
864.6	85.44
864.768	90.56
864.936	86.95
865.104	83.35
865.272	82.89
865.44	78.11
865.608	67.27
865.776	63.99
865.944	68.51
866.112	60.56
866.28	66.23
866.448	52.69
866.616	49.35
866.784	58.53
866.952	60.49
867.12	70.78
867.288	71.44
867.455	82.18
867.623	75.97
867.791	56.74
867.959	57.6
868.127	44.31
868.294	50.98
868.462	39.2
868.63	42.17
868.797	33.47
868.965	45.47
869.133	44.21
869.3	42.74
869.468	42.61
869.636	46.15
869.803	32.27
869.971	33.57
870.138	15.85
870.306	2.54
870.473	-9.43
870.641	39.35
870.808	33.72
870.975	38.02
871.143	19.89
871.31	-3.1
871.478	2.8
871.645	28.08
871.812	31.76
871.98	51.14
872.147	59.01
872.314	54.58
872.482	45.61
872.649	50.86
872.816	64.43
872.983	82.15
873.15	82.05
873.318	94.72
873.485	107.24
873.652	119.84
873.819	93.75
873.986	98.58
874.153	133.81
874.32	118.29
874.487	113.45
874.654	112.66
874.821	110.32
874.988	119.18
875.155	125.38
875.322	129.02
875.489	113.24
875.656	118.5
875.823	109.26
875.99	88.63
876.157	83.97
876.324	57.45
876.49	44.3
876.657	44.23
876.824	52.32
876.991	37.78
877.157	44.96
877.324	46.35
877.491	57.5
877.658	66.8
877.824	66.1
877.991	65.6
878.157	74
878.324	76.33
878.491	71.5
878.657	74.37
878.824	72.57
878.99	63.96
879.157	68.72
879.323	62.28
879.49	47.15
879.656	51.75
879.823	52.01
879.989	58.37
880.156	59.25
880.322	66.13
880.488	53.27
880.655	72.65
880.821	78.98
880.987	66.02
881.154	61.48
881.32	65.72
881.486	65.41
881.652	60.16
881.819	57.38
881.985	56.42
882.151	53.07
882.317	53.58
882.483	50.98
882.649	49.42
882.816	50.83
882.982	51.17
883.148	50.39
883.314	51.18
883.48	53.54
883.646	57.15
883.812	55.54
883.978	59.38
884.144	59.82
884.31	58.97
884.476	57.06
884.642	59.96
884.807	60.78
884.973	60.75
885.139	60.1
885.305	61.94
885.471	59.51
885.637	64.33
885.802	59.24
885.968	59.41
886.134	60.2
886.3	64.61
886.465	60.22
886.631	62.49
886.797	60.18
886.962	63
887.128	50.4
887.293	48.9
887.459	41.76
887.625	42.4
887.79	47.72
887.956	51.53
888.121	49.99
888.287	52.59
888.452	50.6
888.618	61
888.783	55.91
