Data from 2937843_Reflection_2.txt Node
Date: Wed Jul 15 16:11:28 EDT 2015
User: robert
Spectrometer: USB4E03001
Autoset integration time: false
Trigger mode: 4
Integration Time (sec): 1.000000E-1
Scans to average: 10
Electric dark correction enabled: true
Nonlinearity correction enabled: false
Boxcar width: 5
Stray light correction enabled: false
XAxis mode: Wavelengths
Stop averaging: false
Number of Pixels in Spectrum: 3648
>>>>>Begin Spectral Data<<<<<
177.566	34.76
177.785	6.95
178.005	32.53
178.225	-877.63
178.445	-161.53
178.665	-81.79
178.885	62.02
179.105	79.96
179.324	58.09
179.544	1971.87
179.764	187.57
179.984	69.95
180.204	54.67
180.423	21.35
180.643	-19.15
180.863	30.23
181.083	57.54
181.302	163.24
181.522	170.68
181.742	112.26
181.961	83.74
182.181	-5348.15
182.401	102.67
182.621	3.25
182.84	858.47
183.06	75.57
183.279	18.66
183.499	12.64
183.719	-46.44
183.938	8.56
184.158	17.11
184.377	39.52
184.597	59.29
184.816	32.72
185.036	50.67
185.256	46.02
185.475	47
185.695	107.4
185.914	90.75
186.134	305.77
186.353	4507.59
186.572	312.06
186.792	86.6
187.011	182.7
187.231	469.35
187.45	299.75
187.67	168.46
187.889	64.31
188.108	21.7
188.328	-5.76
188.547	-72.8
188.766	-55.95
188.986	-36.24
189.205	108.03
189.424	173.71
189.644	225
189.863	210.34
190.082	103.42
190.302	0.74
190.521	-12.95
190.74	-90.67
190.959	-80.38
191.178	-530.95
191.398	-89.47
191.617	2716.67
191.836	-846.45
192.055	118.69
192.274	255.87
192.494	363.19
192.713	-677.04
192.932	165.64
193.151	128.53
193.37	260.06
193.589	133.77
193.808	77.53
194.027	53.33
194.246	-27.04
194.465	-47.94
194.685	4645
194.904	311.84
195.123	-673.73
195.342	2307.18
195.561	218.68
195.78	287.8
195.999	281.86
196.218	-4855.26
196.436	150.77
196.655	111.77
196.874	267.19
197.093	11311.11
197.312	-656.86
197.531	184.21
197.75	174.04
197.969	141.05
198.188	146.89
198.407	95.68
198.625	92.69
198.844	82.92
199.063	73.55
199.282	70.16
199.501	61.11
199.719	20.79
199.938	-15.41
200.157	-45.78
200.376	-68.89
200.594	-74.47
200.813	627.12
201.032	231.81
201.251	243.02
201.469	493.44
201.688	343.53
201.907	58.72
202.125	613.49
202.344	-114.88
202.563	-378.12
202.781	-24176
203	-113.75
203.218	-136.29
203.437	24.1
203.656	17.52
203.874	37.49
204.093	34.86
204.311	78.35
204.53	86.22
204.748	172.47
204.967	2382.58
205.185	-247.27
205.404	-14.94
205.622	55.62
205.841	135.19
206.059	110.65
206.278	101.01
206.496	131.29
206.715	97.17
206.933	126.64
207.151	145.94
207.37	158.35
207.588	166.33
207.806	176.01
208.025	129.66
208.243	109.33
208.461	98.37
208.68	112.85
208.898	92.43
209.116	100.15
209.335	68.12
209.553	83.18
209.771	78.78
209.989	53.19
210.208	4.54
210.426	37.24
210.644	-3.15
210.862	28.04
211.081	-34.56
211.299	18.94
211.517	55.01
211.735	671.33
211.953	817.65
212.171	-25.1
212.39	-357.88
212.608	6388.98
212.826	2251.06
213.044	391.26
213.262	275.21
213.48	413.86
213.698	-2579.38
213.916	272.51
214.134	171.63
214.352	252.78
214.57	436.98
214.788	-189.28
215.006	-143.73
215.224	1177.19
215.442	1392.33
215.66	-149.32
215.878	-271.05
216.096	-1473.29
216.314	-368.91
216.532	-172.42
216.75	-208.26
216.968	1785.59
217.185	214.07
217.403	144.02
217.621	-158.26
217.839	85.05
218.057	3.24
218.275	-236.73
218.492	22.59
218.71	-465.36
218.928	-212.55
219.146	70.27
219.363	56.77
219.581	30.68
219.799	59.84
220.017	61.13
220.234	71.46
220.452	79.5
220.67	55.72
220.887	61.83
221.105	87.07
221.323	79.49
221.54	60.68
221.758	51.1
221.976	66.17
222.193	75.05
222.411	77.97
222.629	92.33
222.846	83.5
223.064	123.96
223.281	103.71
223.499	88.84
223.716	72.9
223.934	67.91
224.151	66.7
224.369	74.1
224.586	59.68
224.804	25.61
225.021	27.06
225.239	25.29
225.456	-1.15
225.674	-4.03
225.891	-10.5
226.108	10.72
226.326	14.24
226.543	24.91
226.76	6.95
226.978	5.82
227.195	14.59
227.413	15.45
227.63	12
227.847	16.06
228.064	13.54
228.282	16.83
228.499	15.54
228.716	12.6
228.934	11.32
229.151	13.64
229.368	12.38
229.585	14.27
229.802	16.18
230.02	19.61
230.237	16.18
230.454	18.34
230.671	15.11
230.888	17.48
231.105	22.6
231.323	18.9
231.54	20.57
231.757	21.53
231.974	19.67
232.191	21.2
232.408	19.71
232.625	25.74
232.842	25.11
233.059	15.26
233.276	6.96
233.493	-2.16
233.71	6.86
233.927	4.65
234.144	12.04
234.361	9.85
234.578	2.69
234.795	-3.18
235.012	0.22
235.229	5.46
235.446	9.22
235.663	12.31
235.879	16.59
236.096	17.7
236.313	18.44
236.53	15.77
236.747	15.76
236.964	21.8
237.181	23.19
237.397	21.96
237.614	19.01
237.831	28.35
238.048	25.85
238.264	26.29
238.481	27.47
238.698	28.22
238.915	25.06
239.131	32.31
239.348	33.16
239.565	36.2
239.781	28.03
239.998	28.93
240.215	29.55
240.431	30.62
240.648	27.73
240.865	25.05
241.081	23.68
241.298	22.15
241.514	19.73
241.731	19.69
241.947	19.26
242.164	18.83
242.38	17.48
242.597	16.02
242.814	16.38
243.03	16.17
243.246	17.93
243.463	17.71
243.679	18
243.896	16.94
244.112	15.7
244.329	13.46
244.545	14.96
244.762	14.24
244.978	11.38
245.194	9.06
245.411	10.3
245.627	8.96
245.843	10.91
246.06	12.38
246.276	13.69
246.492	14
246.709	15.38
246.925	16.5
247.141	17.33
247.357	19.19
247.574	18.43
247.79	17.42
248.006	17.07
248.222	18
248.439	18.91
248.655	17.98
248.871	17.01
249.087	16.63
249.303	15.92
249.519	14.91
249.736	13.76
249.952	15.9
250.168	17.26
250.384	18.27
250.6	16.86
250.816	13.84
251.032	16.17
251.248	16.7
251.464	15.81
251.68	15.4
251.896	18.04
252.112	15.09
252.328	14.53
252.544	12.93
252.76	13.64
252.976	13.87
253.192	13.48
253.408	13.36
253.624	10.55
253.84	12.7
254.056	14.53
254.272	11.02
254.487	13.82
254.703	16.77
254.919	19.27
255.135	19.41
255.351	15.1
255.567	19.73
255.782	19.46
255.998	21.39
256.214	18.78
256.43	16.52
256.646	13.77
256.861	11.5
257.077	8.79
257.293	12.77
257.508	11.75
257.724	12.83
257.94	12.97
258.155	14.16
258.371	14.96
258.587	13.73
258.802	13.43
259.018	14.47
259.234	14.32
259.449	14.44
259.665	12.79
259.88	12.66
260.096	13.09
260.312	11.78
260.527	10.4
260.743	11
260.958	11.62
261.174	11.69
261.389	11.92
261.605	11.76
261.82	11.27
262.036	12.17
262.251	12.68
262.466	12.15
262.682	12.25
262.897	13.55
263.113	12.98
263.328	12.11
263.543	12.68
263.759	12.86
263.974	12.81
264.189	13.67
264.405	13.61
264.62	11.92
264.835	12.06
265.051	13.17
265.266	13.28
265.481	14.68
265.696	14.91
265.912	14.03
266.127	12.87
266.342	13.71
266.557	12.86
266.773	11.42
266.988	11.89
267.203	12.47
267.418	12.06
267.633	10.36
267.848	9.1
268.064	10.21
268.279	9.89
268.494	11.44
268.709	9.68
268.924	9.68
269.139	11.12
269.354	11.03
269.569	9.68
269.784	10.77
269.999	11.03
270.214	10.47
270.429	9.13
270.644	9.87
270.859	11.2
271.074	13.06
271.289	13.87
271.504	12.56
271.719	13.99
271.934	15.02
272.149	15.43
272.363	15.9
272.578	16.84
272.793	17.19
273.008	16.99
273.223	15.5
273.438	13.82
273.653	13.25
273.867	13.61
274.082	12.39
274.297	11.99
274.512	10.13
274.726	11.29
274.941	10.94
275.156	10.3
275.371	10.2
275.585	9.44
275.8	10.77
276.015	10
276.229	11.19
276.444	10.63
276.659	9.89
276.873	10.89
277.088	10.13
277.302	8.93
277.517	9.34
277.732	10.05
277.946	9.64
278.161	10.18
278.375	13.19
278.59	12.04
278.804	11.14
279.019	11.06
279.233	11.37
279.448	12.29
279.662	13.65
279.877	15.87
280.091	14.55
280.306	16.71
280.52	17.37
280.735	15.93
280.949	14.86
281.163	17.16
281.378	18.65
281.592	17.88
281.806	16.57
282.021	15.56
282.235	14.77
282.449	15.84
282.664	15.17
282.878	12.92
283.092	13.15
283.307	13.23
283.521	11.98
283.735	9.77
283.949	9.89
284.164	10.87
284.378	10.33
284.592	9.71
284.806	7.62
285.02	8.34
285.234	9.46
285.449	9.38
285.663	11.34
285.877	11.2
286.091	12.4
286.305	12.41
286.519	12.5
286.733	12.79
286.947	11.67
287.161	13.38
287.375	11.43
287.589	12.5
287.803	10.94
288.017	10.51
288.231	11.36
288.445	10.69
288.659	12.05
288.873	12.05
289.087	13.71
289.301	14.74
289.515	15.44
289.729	14.65
289.943	13.95
290.157	15.08
290.371	13.98
290.584	13.97
290.798	15.72
291.012	14.9
291.226	13.9
291.44	12.26
291.654	12.83
291.867	12.32
292.081	14.74
292.295	16.92
292.509	18.83
292.722	18.94
292.936	18.26
293.15	19.16
293.364	18.99
293.577	18.31
293.791	18.63
294.005	17.21
294.218	15.41
294.432	14.56
294.645	12.3
294.859	9.86
295.073	9.44
295.286	9.54
295.5	6.79
295.713	7.85
295.927	8.63
296.14	9.08
296.354	10.41
296.568	12.3
296.781	12.71
296.994	12.76
297.208	13.5
297.421	14.02
297.635	14.11
297.848	14.25
298.062	14.13
298.275	14.63
298.489	14.71
298.702	13.5
298.915	13.12
299.129	14.96
299.342	15.15
299.555	15.3
299.769	14.99
299.982	15.14
300.195	15.75
300.409	14.92
300.622	13.67
300.835	13.83
301.048	15.42
301.262	13.44
301.475	11.87
301.688	11.83
301.901	10.45
302.115	10.88
302.328	11.33
302.541	9.83
302.754	10.54
302.967	11.29
303.18	10.31
303.393	7.83
303.607	8.7
303.82	8.19
304.033	8.33
304.246	9.74
304.459	9.19
304.672	8.97
304.885	10.59
305.098	10.05
305.311	10.84
305.524	12.34
305.737	15.87
305.95	15.47
306.163	15.55
306.376	15.77
306.589	16.77
306.802	15.8
307.015	15.28
307.228	13.95
307.44	14.42
307.653	15.29
307.866	15.07
308.079	13.56
308.292	14.96
308.505	15.11
308.718	15.09
308.93	13.51
309.143	13.96
309.356	13.51
309.569	12.85
309.781	11.79
309.994	11.69
310.207	10.8
310.42	12.41
310.632	13.59
310.845	13.85
311.058	11.97
311.27	13.22
311.483	13.77
311.696	14.1
311.908	16.17
312.121	16.02
312.333	14.04
312.546	14.32
312.759	13.41
312.971	11.32
313.184	10.81
313.396	13.27
313.609	11.92
313.821	12.41
314.034	12.43
314.246	12.5
314.459	12.97
314.671	16.74
314.884	16.84
315.096	19.02
315.309	19.33
315.521	18.18
315.733	17.84
315.946	17.81
316.158	17
316.371	18.84
316.583	18.17
316.795	18.58
317.008	16.21
317.22	17.58
317.432	13.83
317.644	12.53
317.857	12.83
318.069	11.43
318.281	12.97
318.494	14.78
318.706	13.57
318.918	12.16
319.13	10.72
319.342	10.68
319.555	10.14
319.767	10.78
319.979	14.69
320.191	15.94
320.403	16.55
320.615	15.86
320.827	14.3
321.039	14.25
321.252	15.36
321.464	16.86
321.676	16.31
321.888	17.01
322.1	16.41
322.312	14.5
322.524	14.16
322.736	14.37
322.948	14.36
323.16	13.71
323.372	13.76
323.584	15.74
323.796	14.82
324.007	15.88
324.219	13.47
324.431	13.65
324.643	13.91
324.855	13.83
325.067	14.8
325.279	14.02
325.491	14.84
325.702	14.37
325.914	12.57
326.126	12.26
326.338	12.27
326.55	13.83
326.761	14.06
326.973	13.66
327.185	14.52
327.396	14.2
327.608	13.24
327.82	13
328.032	12.6
328.243	13.07
328.455	14.35
328.666	14.13
328.878	13.24
329.09	11.61
329.301	11.37
329.513	10.42
329.725	10.19
329.936	11.05
330.148	12.44
330.359	13.37
330.571	14.55
330.782	13.26
330.994	13.19
331.205	13.52
331.417	15.37
331.628	14.52
331.84	15.51
332.051	14.12
332.262	14.54
332.474	13.92
332.685	13.36
332.897	11.12
333.108	13.65
333.319	13.61
333.531	14.15
333.742	13.53
333.953	14.87
334.165	12.75
334.376	14.33
334.587	15.24
334.799	14.74
335.01	14.66
335.221	14.46
335.432	13
335.644	13.06
335.855	11.45
336.066	12.36
336.277	11.15
336.488	13.98
336.7	13.73
336.911	14.43
337.122	16.14
337.333	16.63
337.544	17.52
337.755	18.02
337.966	18.29
338.177	20.72
338.388	19.86
338.599	21.8
338.811	20.67
339.022	20.56
339.233	19.27
339.444	18.4
339.655	19.51
339.866	20.25
340.076	19.88
340.287	20.52
340.498	19.32
340.709	19.12
340.92	18.16
341.131	17.28
341.342	17.37
341.553	17.66
341.764	17.38
341.975	15.99
342.185	14.06
342.396	13.97
342.607	13.89
342.818	15.36
343.029	16.51
343.239	16.95
343.45	16.8
343.661	16.85
343.872	17.16
344.082	18.11
344.293	18.79
344.504	20.19
344.714	21.13
344.925	19.65
345.136	19.15
345.346	18.63
345.557	17.98
345.768	19.32
345.978	18.68
346.189	17.73
346.399	16.83
346.61	16.6
346.821	16.16
347.031	16.09
347.242	16.47
347.452	16.65
347.663	16.2
347.873	16.63
348.084	16.68
348.294	17.45
348.504	18.9
348.715	19.06
348.925	18.17
349.136	18.27
349.346	17.24
349.557	17.36
349.767	16
349.977	16.56
350.188	16.16
350.398	14.8
350.608	16.23
350.819	16.18
351.029	15.79
351.239	16.28
351.449	17.19
351.66	18.05
351.87	18.8
352.08	19.22
352.29	19.37
352.501	20.17
352.711	20.61
352.921	18.94
353.131	19.55
353.341	19.59
353.552	20.95
353.762	20.07
353.972	20.23
354.182	20.34
354.392	20.78
354.602	21
354.812	20.86
355.022	21.44
355.232	21.66
355.442	20.95
355.652	21.98
355.862	21.37
356.072	21.11
356.282	20.54
356.492	20.88
356.702	20.59
356.912	20.3
357.122	19.23
357.332	19.11
357.542	19.26
357.752	18.44
357.962	17.16
358.171	16.81
358.381	16.77
358.591	17.55
358.801	17.41
359.011	17.82
359.221	17.83
359.43	18.06
359.64	18.06
359.85	18.64
360.06	19.14
360.269	19.61
360.479	20.16
360.689	19.77
360.899	19.74
361.108	18.6
361.318	18.12
361.528	18.77
361.737	19.27
361.947	18.46
362.156	18.09
362.366	17.97
362.576	17.54
362.785	16.83
362.995	17.54
363.204	16.92
363.414	17.97
363.623	17.81
363.833	17.34
364.042	17.2
364.252	17.34
364.461	16.99
364.671	17.35
364.88	17.81
365.09	17.45
365.299	17.48
365.509	17.82
365.718	17.17
365.927	16.87
366.137	16.43
366.346	16.41
366.555	16
366.765	16.68
366.974	15.93
367.183	15.89
367.393	16.55
367.602	16.65
367.811	15.16
368.021	15.51
368.23	16.05
368.439	16.63
368.648	16.42
368.857	17.53
369.067	17.41
369.276	17.56
369.485	16.31
369.694	16.3
369.903	16.38
370.112	18.08
370.321	17.8
370.531	17.16
370.74	16.36
370.949	16.49
371.158	15.26
371.367	14.34
371.576	14.23
371.785	15.41
371.994	14.92
372.203	14.44
372.412	13.47
372.621	12.9
372.83	13.63
373.039	13.69
373.248	13.16
373.457	14.46
373.666	14.52
373.874	14.74
374.083	13.98
374.292	14.15
374.501	13.83
374.71	14.59
374.919	14.52
375.128	14.31
375.336	14.88
375.545	14.86
375.754	14.36
375.963	14.42
376.171	14.54
376.38	14.87
376.589	14.47
376.798	14.42
377.006	13.28
377.215	13.64
377.424	13.14
377.632	12.79
377.841	12.6
378.05	12.44
378.258	12.25
378.467	12.15
378.675	11.68
378.884	12.24
379.093	12.48
379.301	13.51
379.51	13.49
379.718	13.57
379.927	13.26
380.135	13.29
380.344	13.1
380.552	13.06
380.761	13.03
380.969	13.18
381.177	13.44
381.386	13.31
381.594	12.6
381.803	11.77
382.011	12.06
382.219	12.37
382.428	12.42
382.636	12.55
382.845	12.64
383.053	12.66
383.261	13.11
383.469	13.18
383.678	12.94
383.886	13.29
384.094	13.97
384.302	14.42
384.511	13.8
384.719	13.7
384.927	13.43
385.135	13.1
385.343	12.75
385.552	11.94
385.76	11.19
385.968	10.98
386.176	10.95
386.384	11.02
386.592	10.26
386.8	10.72
387.008	10.93
387.216	10.92
387.424	10.59
387.633	10.27
387.841	10.88
388.049	11.45
388.257	11.31
388.465	11.09
388.672	10.79
388.88	10.88
389.088	10.62
389.296	10.39
389.504	10.39
389.712	10.7
389.92	10.83
390.128	10.57
390.336	10.27
390.544	10.34
390.751	10.39
390.959	10.12
391.167	10.1
391.375	10.11
391.583	9.82
391.79	9.78
391.998	10.39
392.206	10.45
392.414	10.2
392.621	10.09
392.829	10.31
393.037	9.96
393.244	10.28
393.452	10.12
393.66	9.75
393.867	10.1
394.075	9.99
394.283	9.53
394.49	9.42
394.698	9.48
394.905	9.5
395.113	9.55
395.32	9.67
395.528	9.4
395.735	9.45
395.943	9.67
396.15	9.43
396.358	9.44
396.565	9.42
396.773	9.58
396.98	9.24
397.188	8.93
397.395	8.42
397.602	8.57
397.81	8.61
398.017	8.51
398.225	8.23
398.432	8.26
398.639	8.5
398.847	8.5
399.054	7.71
399.261	7.98
399.468	7.82
399.676	7.86
399.883	7.23
400.09	7.13
400.297	6.93
400.505	7.27
400.712	7.32
400.919	7.25
401.126	7.17
401.333	7.74
401.54	7.67
401.748	7.96
401.955	8.15
402.162	8.63
402.369	8.91
402.576	8.75
402.783	8.58
402.99	8.69
403.197	8.16
403.404	8.19
403.611	8.39
403.818	8.54
404.025	8.52
404.232	8.52
404.439	8.62
404.646	8.3
404.853	8.52
405.06	8.79
405.267	8.55
405.474	8.65
405.681	8.69
405.887	8.24
406.094	7.92
406.301	7.8
406.508	7.91
406.715	7.72
406.922	7.98
407.128	7.98
407.335	8
407.542	7.95
407.749	8.23
407.955	8
408.162	8.29
408.369	8.71
408.575	8.68
408.782	8.23
408.989	8.19
409.195	7.83
409.402	7.69
409.609	7.25
409.815	7.2
410.022	6.95
410.228	7.11
410.435	7.17
410.642	6.86
410.848	6.95
411.055	7.15
411.261	7.46
411.468	7.61
411.674	7.83
411.881	7.78
412.087	8.16
412.294	8.31
412.5	8.25
412.706	8.24
412.913	8.37
413.119	8.02
413.326	7.95
413.532	7.64
413.738	7.84
413.945	7.59
414.151	7.87
414.357	7.85
414.564	7.89
414.77	7.97
414.976	7.82
415.182	7.76
415.389	8.08
415.595	7.91
415.801	7.94
416.007	7.77
416.214	7.97
416.42	7.72
416.626	7.64
416.832	7.45
417.038	7.2
417.244	7.44
417.45	7.38
417.657	7.27
417.863	7.34
418.069	7.31
418.275	7.2
418.481	7.07
418.687	7.23
418.893	7.04
419.099	7.27
419.305	7.39
419.511	7.29
419.717	7.36
419.923	7.37
420.129	7.45
420.335	7.38
420.541	7.45
420.746	7.47
420.952	7.52
421.158	7.61
421.364	7.41
421.57	7.35
421.776	7.26
421.982	7.26
422.187	7.16
422.393	7.12
422.599	7.1
422.805	7.13
423.01	7.12
423.216	6.99
423.422	6.95
423.628	7.21
423.833	7.4
424.039	7.4
424.245	7.48
424.45	7.62
424.656	7.77
424.862	7.84
425.067	7.78
425.273	7.8
425.478	7.67
425.684	7.69
425.889	7.52
426.095	7.22
426.301	7.2
426.506	7.1
426.712	7.05
426.917	6.88
427.123	6.57
427.328	6.75
427.533	6.74
427.739	6.87
427.944	6.93
428.15	6.91
428.355	7.19
428.561	7.13
428.766	6.87
428.971	6.77
429.177	6.72
429.382	7.21
429.587	6.9
429.793	6.93
429.998	7.12
430.203	7.03
430.408	7
430.614	6.79
430.819	6.97
431.024	7.26
431.229	7.22
431.434	7.38
431.64	7.37
431.845	7.51
432.05	7.44
432.255	7.36
432.46	7.46
432.665	7.41
432.87	7.56
433.076	7.68
433.281	7.47
433.486	7.53
433.691	7.3
433.896	7.06
434.101	7
434.306	6.95
434.511	6.9
434.716	6.73
434.921	6.72
435.126	6.69
435.331	6.52
435.535	6.69
435.74	6.83
435.945	6.95
436.15	7.03
436.355	7.03
436.56	7.07
436.765	7.08
436.97	7.07
437.174	7.2
437.379	6.95
437.584	6.8
437.789	6.71
437.993	6.67
438.198	6.55
438.403	6.48
438.608	6.51
438.812	6.49
439.017	6.65
439.222	6.81
439.426	6.72
439.631	6.9
439.836	6.99
440.04	7.14
440.245	7.15
440.45	7.14
440.654	7.3
440.859	7.19
441.063	7.36
441.268	7.23
441.472	7.07
441.677	7.24
441.881	7.26
442.086	7.27
442.29	7.17
442.495	7.08
442.699	6.98
442.904	7.07
443.108	7.12
443.312	6.86
443.517	6.92
443.721	7.04
443.925	6.88
444.13	6.77
444.334	6.64
444.538	6.6
444.743	6.53
444.947	6.67
445.151	6.53
445.356	6.42
445.56	6.45
445.764	6.43
445.968	6.41
446.173	6.39
446.377	6.48
446.581	6.55
446.785	6.65
446.989	6.66
447.193	6.65
447.398	6.39
447.602	6.63
447.806	6.65
448.01	6.6
448.214	6.49
448.418	6.45
448.622	6.3
448.826	6.22
449.03	6.08
449.234	6.16
449.438	6.35
449.642	6.61
449.846	6.55
450.05	6.63
450.254	6.57
450.458	6.75
450.662	6.8
450.866	6.91
451.069	6.98
451.273	6.9
451.477	6.79
451.681	6.67
451.885	6.87
452.089	6.74
452.292	6.52
452.496	6.65
452.7	6.45
452.904	6.41
453.107	6.26
453.311	6.36
453.515	6.49
453.719	6.53
453.922	6.33
454.126	6.1
454.33	5.94
454.533	6.26
454.737	6.14
454.94	6.13
455.144	6.09
455.348	6.15
455.551	5.89
455.755	5.8
455.958	5.68
456.162	5.68
456.365	5.63
456.569	6
456.772	5.94
456.976	6.05
457.179	6.01
457.383	6.17
457.586	6.32
457.79	6.41
457.993	6.41
458.196	6.43
458.4	6.54
458.603	6.73
458.807	6.52
459.01	6.55
459.213	6.52
459.417	6.62
459.62	6.66
459.823	6.65
460.026	6.87
460.23	6.9
460.433	7.02
460.636	7.04
460.839	6.89
461.042	6.95
461.246	6.85
461.449	6.8
461.652	6.65
461.855	6.68
462.058	6.51
462.261	6.28
462.464	6.42
462.668	6.36
462.871	6.43
463.074	6.45
463.277	6.47
463.48	6.45
463.683	6.65
463.886	6.89
464.089	6.67
464.292	6.89
464.495	6.92
464.698	6.81
464.901	6.79
465.104	6.78
465.306	6.71
465.509	6.71
465.712	6.67
465.915	6.8
466.118	6.85
466.321	6.88
466.524	6.86
466.726	6.81
466.929	6.66
467.132	6.5
467.335	6.29
467.538	6.44
467.74	6.43
467.943	6.58
468.146	6.34
468.348	6.13
468.551	6.44
468.754	6.43
468.956	6.39
469.159	6.28
469.362	6.47
469.564	6.59
469.767	6.64
469.969	6.49
470.172	6.53
470.375	6.42
470.577	6.68
470.78	6.41
470.982	6.29
471.185	6.39
471.387	6.5
471.59	6.31
471.792	6.18
471.995	6.02
472.197	6.12
472.399	6.2
472.602	6.32
472.804	6.41
473.007	6.3
473.209	6.38
473.411	6.3
473.614	6.32
473.816	6.3
474.018	6.53
474.22	6.51
474.423	6.43
474.625	6.14
474.827	6.1
475.03	5.85
475.232	6.02
475.434	6.06
475.636	6.09
475.838	6.21
476.04	6.11
476.243	6.08
476.445	6.17
476.647	6.15
476.849	6.28
477.051	6.25
477.253	6.35
477.455	6.24
477.657	6.03
477.859	6.02
478.061	6.12
478.263	6.32
478.465	6.25
478.667	6.24
478.869	6.29
479.071	6.31
479.273	6.38
479.475	6.21
479.677	6.2
479.879	6.39
480.081	6.52
480.283	6.45
480.485	6.31
480.686	6.37
480.888	6.27
481.09	6.47
481.292	6.44
481.494	6.42
481.695	6.6
481.897	6.59
482.099	6.52
482.301	6.46
482.502	6.41
482.704	6.45
482.906	6.4
483.107	6.36
483.309	6.35
483.511	6.37
483.712	6.4
483.914	6.4
484.115	6.38
484.317	6.36
484.519	6.35
484.72	6.31
484.922	6.27
485.123	6.21
485.325	6.28
485.526	6.25
485.728	6.22
485.929	6.17
486.131	6.13
486.332	6.15
486.534	6.14
486.735	6.09
486.936	6.1
487.138	6.19
487.339	6.32
487.541	6.3
487.742	6.37
487.943	6.31
488.144	6.24
488.346	6.2
488.547	6.21
488.748	6.24
488.95	6.26
489.151	6.28
489.352	6.28
489.553	6.26
489.755	6.22
489.956	6.14
490.157	6.18
490.358	6.17
490.559	6.26
490.76	6.24
490.961	6.26
491.163	6.37
491.364	6.42
491.565	6.43
491.766	6.45
491.967	6.45
492.168	6.4
492.369	6.45
492.57	6.48
492.771	6.4
492.972	6.48
493.173	6.45
493.374	6.35
493.575	6.31
493.776	6.35
493.976	6.3
494.177	6.38
494.378	6.41
494.579	6.28
494.78	6.44
494.981	6.51
495.182	6.41
495.382	6.52
495.583	6.52
495.784	6.47
495.985	6.35
496.185	6.29
496.386	6.23
496.587	6.33
496.788	6.47
496.988	6.44
497.189	6.41
497.39	6.34
497.59	6.39
497.791	6.41
497.992	6.51
498.192	6.59
498.393	6.56
498.593	6.6
498.794	6.59
498.994	6.62
499.195	6.62
499.395	6.85
499.596	6.92
499.796	6.78
499.997	6.55
500.197	6.51
500.398	6.57
500.598	6.6
500.799	6.47
500.999	6.37
501.199	6.35
501.4	6.37
501.6	6.12
501.801	6.25
502.001	6.38
502.201	6.65
502.402	6.65
502.602	6.64
502.802	6.76
503.002	6.78
503.203	6.88
503.403	7.04
503.603	6.75
503.803	6.75
504.003	6.72
504.204	6.72
504.404	6.77
504.604	6.85
504.804	6.81
505.004	6.84
505.204	6.79
505.404	6.64
505.604	6.48
505.804	6.79
506.005	7
506.205	6.87
506.405	6.84
506.605	6.83
506.805	6.66
507.005	6.58
507.204	6.59
507.404	6.77
507.604	6.82
507.804	6.62
508.004	6.63
508.204	6.47
508.404	6.4
508.604	6.45
508.804	6.32
509.003	6.42
509.203	6.48
509.403	6.47
509.603	6.59
509.803	6.72
510.002	6.92
510.202	6.76
510.402	6.83
510.602	6.84
510.801	6.83
511.001	6.95
511.201	6.93
511.4	7.05
511.6	7.01
511.8	7.05
511.999	6.98
512.199	6.9
512.398	6.95
512.598	7
512.797	7.1
512.997	7.08
513.197	7.13
513.396	7.23
513.596	7.11
513.795	7.24
513.994	7.18
514.194	7.15
514.393	7.26
514.593	7.37
514.792	7.28
514.992	7.44
515.191	7.54
515.39	7.58
515.59	7.56
515.789	7.6
515.988	7.46
516.188	7.43
516.387	7.53
516.586	7.6
516.786	7.48
516.985	7.58
517.184	7.52
517.383	7.62
517.582	7.65
517.782	7.51
517.981	7.51
518.18	7.51
518.379	7.47
518.578	7.56
518.777	7.55
518.976	7.7
519.176	7.79
519.375	7.71
519.574	7.6
519.773	7.58
519.972	7.75
520.171	7.87
520.37	7.98
520.569	8.06
520.768	8.08
520.967	8.12
521.166	7.97
521.365	7.85
521.564	7.88
521.762	7.81
521.961	7.81
522.16	7.76
522.359	7.68
522.558	7.69
522.757	7.79
522.956	7.73
523.154	7.68
523.353	7.91
523.552	7.94
523.751	7.95
523.949	8.16
524.148	8.15
524.347	8.17
524.546	8.18
524.744	8.22
524.943	8.16
525.142	8.2
525.34	8.12
525.539	8.07
525.737	8.2
525.936	8.26
526.135	8.28
526.333	8.32
526.532	8.27
526.73	8.39
526.929	8.34
527.127	8.31
527.326	8.3
527.524	8.45
527.723	8.45
527.921	8.42
528.12	8.4
528.318	8.38
528.516	8.38
528.715	8.4
528.913	8.25
529.112	8.29
529.31	8.32
529.508	8.34
529.707	8.31
529.905	8.32
530.103	8.29
530.301	8.46
530.5	8.53
530.698	8.48
530.896	8.61
531.094	8.76
531.293	8.82
531.491	8.91
531.689	8.94
531.887	8.98
532.085	9.04
532.283	9.16
532.481	9.1
532.68	9.03
532.878	9.14
533.076	9.05
533.274	9.17
533.472	9.14
533.67	9.09
533.868	9.13
534.066	9.21
534.264	9.2
534.462	9.24
534.66	9.16
534.858	9.27
535.056	9.27
535.253	9.38
535.451	9.39
535.649	9.4
535.847	9.42
536.045	9.38
536.243	9.39
536.441	9.55
536.638	9.58
536.836	9.65
537.034	9.61
537.232	9.7
537.43	9.74
537.627	9.56
537.825	9.65
538.023	9.67
538.22	9.79
538.418	9.71
538.616	9.65
538.813	9.61
539.011	9.77
539.209	9.77
539.406	9.7
539.604	9.63
539.801	9.79
539.999	9.78
540.196	9.8
540.394	9.8
540.591	9.9
540.789	9.84
540.986	9.75
541.184	9.65
541.381	9.75
541.579	9.84
541.776	9.9
541.974	9.92
542.171	9.96
542.368	10
542.566	10.08
542.763	10.08
542.96	10.15
543.158	10.28
543.355	10.41
543.552	10.38
543.75	10.4
543.947	10.39
544.144	10.49
544.341	10.59
544.539	10.73
544.736	10.7
544.933	10.69
545.13	10.74
545.327	10.82
545.524	10.81
545.722	10.79
545.919	10.93
546.116	11.07
546.313	11.11
546.51	11.24
546.707	11.12
546.904	11.19
547.101	11.22
547.298	11.22
547.495	11.33
547.692	11.43
547.889	11.6
548.086	11.57
548.283	11.66
548.48	11.54
548.677	11.43
548.874	11.68
549.07	11.81
549.267	11.95
549.464	12.15
549.661	12.1
549.858	12.08
550.055	12.16
550.251	12.05
550.448	11.94
550.645	12.25
550.842	12.15
551.038	12.32
551.235	12.28
551.432	12.24
551.628	12.27
551.825	12.34
552.022	12.48
552.218	12.31
552.415	12.61
552.612	12.71
552.808	12.69
553.005	12.76
553.201	12.56
553.398	12.53
553.594	12.64
553.791	12.57
553.987	12.68
554.184	12.69
554.38	13.02
554.577	12.95
554.773	12.81
554.97	12.83
555.166	12.95
555.362	13.02
555.559	13.13
555.755	13.18
555.952	13.42
556.148	13.29
556.344	13.21
556.541	13.15
556.737	13.18
556.933	13.24
557.129	13.32
557.326	13.4
557.522	13.52
557.718	13.68
557.914	13.64
558.11	13.67
558.307	13.67
558.503	13.79
558.699	13.92
558.895	13.95
559.091	14.09
559.287	14.1
559.483	14.21
559.679	14.28
559.876	14.28
560.072	14.62
560.268	14.67
560.464	14.77
560.66	14.79
560.856	14.74
561.052	14.81
561.247	15.04
561.443	15.12
561.639	14.93
561.835	14.83
562.031	14.76
562.227	14.37
562.423	14.32
562.619	14.47
562.815	14.57
563.01	14.88
563.206	15.05
563.402	15.05
563.598	15.08
563.793	15.29
563.989	15.51
564.185	15.47
564.381	15.88
564.576	15.98
564.772	16.05
564.968	15.9
565.163	15.59
565.359	15.42
565.555	15.48
565.75	15.67
565.946	16.06
566.141	16.09
566.337	16.38
566.532	16.2
566.728	16.27
566.923	16.24
567.119	16.49
567.314	16.53
567.51	16.74
567.705	16.87
567.901	16.85
568.096	16.66
568.292	16.86
568.487	16.94
568.682	17.3
568.878	17.48
569.073	17.61
569.268	17.62
569.464	17.86
569.659	18.08
569.854	18.13
570.05	18.28
570.245	18.27
570.44	18.19
570.635	17.99
570.831	18.01
571.026	17.92
571.221	18.01
571.416	18.23
571.611	18.19
571.806	18.25
572.002	18.07
572.197	18.07
572.392	18.03
572.587	17.89
572.782	18.01
572.977	18.09
573.172	18.04
573.367	17.88
573.562	17.74
573.757	17.87
573.952	17.69
574.147	17.81
574.342	17.8
574.537	17.98
574.732	18.08
574.927	18.02
575.121	18.04
575.316	18.03
575.511	18.26
575.706	18.61
575.901	18.67
576.096	18.83
576.29	19.12
576.485	19.13
576.68	19.29
576.875	19.49
577.069	19.65
577.264	19.72
577.459	20.08
577.654	19.89
577.848	19.7
578.043	19.73
578.238	19.68
578.432	19.47
578.627	19.7
578.821	19.72
579.016	19.35
579.21	19.59
579.405	19.42
579.6	19.23
579.794	19.44
579.989	19.59
580.183	19.48
580.378	19.71
580.572	19.84
580.766	19.62
580.961	19.74
581.155	20.25
581.35	20.39
581.544	20.66
581.738	20.64
581.933	20.8
582.127	20.63
582.321	20.77
582.516	21.02
582.71	20.74
582.904	21.08
583.099	20.96
583.293	20.58
583.487	20.26
583.681	19.97
583.875	20
584.07	19.83
584.264	19.78
584.458	19.9
584.652	19.47
584.846	19.89
585.04	19.74
585.234	19.67
585.428	20.09
585.623	20.42
585.817	20.48
586.011	20.59
586.205	20.67
586.399	20.96
586.593	20.99
586.787	21.14
586.981	20.98
587.174	21.22
587.368	20.9
587.562	20.94
587.756	20.93
587.95	20.94
588.144	20.84
588.338	20.91
588.532	20.93
588.725	20.89
588.919	20.98
589.113	21.14
589.307	21.17
589.501	21.67
589.694	21.59
589.888	21.52
590.082	21.79
590.275	21.99
590.469	22.14
590.663	22.35
590.856	22.5
591.05	22.38
591.244	22.32
591.437	22.19
591.631	22.01
591.824	21.78
592.018	21.69
592.212	21.73
592.405	21.8
592.599	21.86
592.792	21.48
592.986	21.3
593.179	21.28
593.372	21.2
593.566	21.28
593.759	21.18
593.953	21.53
594.146	21.65
594.339	21.68
594.533	21.68
594.726	21.69
594.92	21.81
595.113	21.98
595.306	22.13
595.499	22.35
595.693	22.48
595.886	22.63
596.079	22.68
596.272	22.5
596.466	22.41
596.659	22.34
596.852	22.24
597.045	22.21
597.238	22.2
597.431	22.23
597.624	22.16
597.818	22.01
598.011	22.05
598.204	21.87
598.397	22.26
598.59	22.43
598.783	22.72
598.976	22.89
599.169	22.8
599.362	22.92
599.555	23.09
599.748	23.3
599.941	23.39
600.134	23.46
600.326	23.83
600.519	23.79
600.712	23.61
600.905	23.61
601.098	23.42
601.291	23.54
601.483	23.63
601.676	23.55
601.869	23.59
602.062	23.5
602.255	23.29
602.447	23.14
602.64	22.94
602.833	22.89
603.025	22.85
603.218	23.12
603.411	23.17
603.603	22.98
603.796	22.89
603.989	22.67
604.181	22.94
604.374	23.16
604.566	23.31
604.759	23.45
604.951	23.59
605.144	23.76
605.336	23.64
605.529	23.66
605.721	23.86
605.914	24.16
606.106	24.32
606.299	24.04
606.491	24.09
606.683	23.97
606.876	23.79
607.068	23.7
607.26	23.32
607.453	23.71
607.645	23.74
607.837	23.69
608.03	23.54
608.222	23.5
608.414	23.49
608.606	23.3
608.799	23.47
608.991	23.63
609.183	23.79
609.375	23.86
609.567	23.59
609.759	23.55
609.952	23.67
610.144	23.61
610.336	23.68
610.528	23.77
610.72	23.83
610.912	23.51
611.104	23.55
611.296	23.63
611.488	23.66
611.68	24.02
611.872	24.14
612.064	24.07
612.256	24.2
612.448	24.33
612.64	24.36
612.832	24.83
613.023	24.89
613.215	24.8
613.407	24.62
613.599	24.67
613.791	24.15
613.983	24.19
614.174	24.07
614.366	23.94
614.558	23.86
614.75	24.16
614.941	23.84
615.133	24.11
615.325	24.21
615.516	24.37
615.708	24.38
615.9	24.42
616.091	24.6
616.283	24.56
616.475	24.74
616.666	24.65
616.858	24.48
617.049	24.32
617.241	24.22
617.432	23.94
617.624	24.05
617.815	24.33
618.007	24.53
618.198	24.21
618.39	24.36
618.581	24.32
618.773	24.58
618.964	24.7
619.155	24.97
619.347	25.12
619.538	25.29
619.729	24.89
619.921	24.75
620.112	24.42
620.303	24.32
620.494	24.19
620.686	24.53
620.877	24.3
621.068	23.88
621.259	23.76
621.451	23.64
621.642	24.06
621.833	24.52
622.024	24.61
622.215	24.96
622.406	25.65
622.597	25.81
622.788	25.54
622.98	25.56
623.171	25.41
623.362	25.38
623.553	25.46
623.744	25.25
623.935	25.02
624.126	24.95
624.317	25
624.508	24.46
624.698	24.33
624.889	23.99
625.08	23.76
625.271	24.42
625.462	24.32
625.653	24.45
625.844	24.38
626.034	24.35
626.225	24.37
626.416	24.14
626.607	24.15
626.798	24.1
626.988	24.4
627.179	24.99
627.37	24.95
627.56	25.2
627.751	25.36
627.942	25.56
628.132	25.83
628.323	25.85
628.514	26.25
628.704	26.23
628.895	26.41
629.085	26.3
629.276	25.85
629.466	25.63
629.657	25.78
629.847	25.36
630.038	25.33
630.228	25.13
630.419	25
630.609	24.95
630.8	25.41
630.99	25.45
631.181	25.77
631.371	25.79
631.561	26.03
631.752	25.7
631.942	26.13
632.132	25.75
632.323	25.78
632.513	25.82
632.703	25.53
632.893	25.35
633.084	25.34
633.274	25.19
633.464	25.16
633.654	24.91
633.844	24.84
634.034	24.72
634.225	24.82
634.415	24.91
634.605	24.79
634.795	25.04
634.985	25.11
635.175	25.11
635.365	25.17
635.555	25.65
635.745	25.89
635.935	26.01
636.125	25.97
636.315	26.21
636.505	26.4
636.695	26.45
636.885	26.44
637.075	26.23
637.265	26.49
637.455	26.79
637.644	26.47
637.834	26.51
638.024	27.06
638.214	26.85
638.404	27.18
638.593	26.95
638.783	27.03
638.973	26.76
639.163	27.12
639.352	26.96
639.542	26.78
639.732	27.08
639.921	27.25
640.111	26.76
640.301	27.28
640.49	26.91
640.68	26.75
640.87	26.71
641.059	26.9
641.249	26.82
641.438	26.86
641.628	26.95
641.817	26.8
642.007	26.27
642.196	26.49
642.386	26.25
642.575	26.62
642.764	26.78
642.954	27.22
643.143	27.2
643.333	27.14
643.522	27.27
643.711	27.59
643.901	27.64
644.09	28.09
644.279	28.13
644.469	28.16
644.658	27.96
644.847	27.96
645.036	27.88
645.226	27.87
645.415	27.74
645.604	27.9
645.793	27.24
645.982	27.24
646.171	27.19
646.361	27.23
646.55	27.22
646.739	27.33
646.928	27.6
647.117	27.53
647.306	27.56
647.495	27.38
647.684	27.32
647.873	27.51
648.062	27.66
648.251	27.77
648.44	27.76
648.629	27.68
648.818	27.36
649.007	27.25
649.196	27.01
649.384	27.42
649.573	27.49
649.762	27.41
649.951	27.37
650.14	27.14
650.328	26.72
650.517	26.5
650.706	26.36
650.895	26.87
651.083	27.24
651.272	27.27
651.461	27.24
651.65	27.06
651.838	27.22
652.027	26.96
652.216	26.81
652.404	27.33
652.593	27.53
652.781	27.65
652.97	27.34
653.158	26.8
653.347	27.22
653.535	27.16
653.724	27.56
653.912	27.22
654.101	27.48
654.289	27.85
654.478	28.17
654.666	28.35
654.855	28.61
655.043	28.52
655.231	28.69
655.42	28.85
655.608	28.63
655.796	28.64
655.985	29.12
656.173	29.04
656.361	28.89
656.55	28.08
656.738	27.56
656.926	27.75
657.114	27.92
657.302	27.99
657.491	27.74
657.679	27.79
657.867	27.98
658.055	27.84
658.243	28
658.431	27.86
658.619	28.39
658.807	28.7
658.996	28.64
659.184	28.45
659.372	28.4
659.56	28.7
659.748	28.75
659.936	28.73
660.124	28.46
660.311	28.47
660.499	28.63
660.687	28.58
660.875	28.79
661.063	28.56
661.251	28.73
661.439	28.93
661.627	28.31
661.814	28.7
662.002	28.72
662.19	28.57
662.378	28.71
662.565	28.43
662.753	27.9
662.941	27.29
663.129	27.26
663.316	27.37
663.504	27.36
663.692	27.66
663.879	27.28
664.067	27.15
664.254	27.46
664.442	27.62
664.63	28.09
664.817	28.59
665.005	29.33
665.192	29.53
665.38	29.07
665.567	29.31
665.755	29.18
665.942	29.08
666.13	29.36
666.317	29.06
666.504	29.12
666.692	29.2
666.879	28.94
667.067	28.16
667.254	28.84
667.441	29.28
667.629	29.34
667.816	30.16
668.003	30.47
668.19	30.17
668.378	30.46
668.565	30.22
668.752	30.33
668.939	30.08
669.127	30.92
669.314	30.16
669.501	29.96
669.688	29.53
669.875	28.53
670.062	28.65
670.249	28.71
670.436	28.71
670.623	28.57
670.81	28.06
670.997	28.09
671.184	27.57
671.371	27.68
671.558	27.95
671.745	28.07
671.932	28.75
672.119	28.39
672.306	28.4
672.493	28.19
672.68	28.34
672.867	28.57
673.054	28.69
673.24	27.99
673.427	28.2
673.614	28.24
673.801	28.43
673.988	28.13
674.174	28.42
674.361	28.23
674.548	28.24
674.734	28.24
674.921	28.03
675.108	28.39
675.294	29.67
675.481	29.66
675.668	29.49
675.854	29.41
676.041	29.73
676.227	29.69
676.414	29.91
676.601	30.48
676.787	30.27
676.974	30.41
677.16	30.21
677.347	29.79
677.533	29.54
677.719	29.68
677.906	29.73
678.092	29.23
678.279	28.69
678.465	28.98
678.651	28.85
678.838	29.45
679.024	29.93
679.21	29.99
679.397	30.17
679.583	30.44
679.769	30.55
679.955	30.51
680.142	30.7
680.328	31.24
680.514	31.23
680.7	31.38
680.886	30.87
681.073	30.37
681.259	30.61
681.445	30.53
681.631	30.4
681.817	30.29
682.003	30.28
682.189	30.54
682.375	30.15
682.561	29.69
682.747	30
682.933	30.5
683.119	30.49
683.305	30.17
683.491	29.65
683.677	29.94
683.863	29.59
684.049	29.63
684.235	29.39
684.42	29.26
684.606	29.65
684.792	28.67
684.978	28.2
685.164	28.67
685.349	28.56
685.535	29.65
685.721	28.94
685.907	28.71
686.092	28.46
686.278	28.13
686.464	28.77
686.649	28.92
686.835	29.71
687.021	30.22
687.206	29.77
687.392	29.98
687.577	29.51
687.763	29.86
687.948	30.57
688.134	30.41
688.319	30.45
688.505	30.15
688.69	29.92
688.876	28.89
689.061	28.37
689.247	28.85
689.432	29.07
689.618	28.48
689.803	28.89
689.988	28.52
690.174	28.96
690.359	29.23
690.544	29
690.73	29.28
690.915	29.84
691.1	30.13
691.285	30.09
691.471	29.56
691.656	30.09
691.841	29.33
692.026	29.25
692.211	29.49
692.396	30.11
692.582	29.64
692.767	29.13
692.952	29.57
693.137	29.44
693.322	28.62
693.507	29.07
693.692	29.09
693.877	29.42
694.062	29.72
694.247	29.71
694.432	29.69
694.617	30.53
694.802	30.99
694.987	30.66
695.172	31.07
695.357	32.07
695.541	32.28
695.726	32.07
695.911	32.1
696.096	31.88
696.281	31.77
696.466	30.63
696.65	30.45
696.835	29.87
697.02	30.07
697.204	29.6
697.389	29.73
697.574	29.44
697.759	29.27
697.943	29.52
698.128	29.49
698.312	29.2
698.497	29.97
698.682	29.96
698.866	30.47
699.051	30.03
699.235	29.97
699.42	29.48
699.604	29.81
699.789	29.79
699.973	30.09
700.158	30.05
700.342	30.25
700.527	29.42
700.711	29.51
700.895	29.3
701.08	29.98
701.264	30.66
701.448	31.01
701.633	30.7
701.817	31.08
702.001	30.27
702.186	30.41
702.37	29.93
702.554	30.73
702.738	30.62
702.923	29.95
703.107	29.4
703.291	29.19
703.475	28.91
703.659	29.11
703.843	29.17
704.027	28.87
704.212	28.66
704.396	28.73
704.58	27.76
704.764	28.02
704.948	28.88
705.132	28.21
705.316	27.93
705.5	28.79
705.684	28.57
705.868	28.33
706.052	28.56
706.235	29.19
706.419	29.86
706.603	30.62
706.787	30.23
706.971	30.04
707.155	30.6
707.339	30.38
707.522	29.13
707.706	29.58
707.89	29.74
708.074	30.12
708.257	30.41
708.441	30.64
708.625	30.16
708.808	30.18
708.992	30.24
709.176	31.18
709.359	31.52
709.543	32.33
709.727	31.62
709.91	31.72
710.094	31.5
710.277	31.07
710.461	30.75
710.644	31.29
710.828	31.5
711.011	31.74
711.195	30.74
711.378	30.22
711.562	30.43
711.745	31.41
711.928	31.27
712.112	31.27
712.295	31.5
712.478	31.1
712.662	31.29
712.845	30.96
713.028	30.75
713.212	30.96
713.395	31.58
713.578	31.1
713.761	30.46
713.945	30.87
714.128	31.03
714.311	30.91
714.494	30.77
714.677	30.36
714.86	30.26
715.043	30.59
715.227	30.9
715.41	30.1
715.593	30.43
715.776	29.91
715.959	30.11
716.142	30.53
716.325	30.86
716.508	30.91
716.691	31.1
716.874	31.63
717.057	30.71
717.239	30.75
717.422	32.27
717.605	31.83
717.788	31.74
717.971	31.95
718.154	32.33
718.337	32.22
718.519	32.48
718.702	32.45
718.885	32.6
719.068	32.87
719.25	32.57
719.433	31.01
719.616	31.34
719.798	32.15
719.981	32.24
720.164	31.02
720.346	30.9
720.529	32.25
720.712	32.84
720.894	32.6
721.077	33
721.259	33.33
721.442	34.23
721.624	33.3
721.807	33.39
721.989	32.36
722.172	32.32
722.354	31.61
722.537	30.13
722.719	31.38
722.901	30.68
723.084	31.03
723.266	32.06
723.448	31.31
723.631	31.46
723.813	31.93
723.995	32.47
724.178	33.3
724.36	33.24
724.542	32.65
724.724	31.6
724.907	32.1
725.089	32.19
725.271	31.77
725.453	32.11
725.635	32.95
725.817	32.85
725.999	32.65
726.181	32.52
726.364	33.52
726.546	33.71
726.728	32.52
726.91	33.28
727.092	33.64
727.274	33.26
727.456	33.32
727.638	34.21
727.819	34.05
728.001	33.85
728.183	32.88
728.365	32.46
728.547	33.36
728.729	33.9
728.911	32.69
729.093	32.07
729.274	31.88
729.456	31.66
729.638	31.42
729.82	31.26
730.001	32.18
730.183	32.68
730.365	32.87
730.546	32.73
730.728	32.77
730.91	33.11
731.091	33.3
731.273	33.32
731.455	33.12
731.636	32.81
731.818	32.96
731.999	32.28
732.181	32.53
732.362	31.72
732.544	31.98
732.725	32.72
732.907	32.88
733.088	32.7
733.27	32.56
733.451	32.23
733.633	32.14
733.814	31.16
733.995	31.48
734.177	31
734.358	32.25
734.539	31.86
734.721	31.05
734.902	32.22
735.083	31.92
735.264	31.8
735.446	33.67
735.627	32.98
735.808	34.06
735.989	33.62
736.17	34.76
736.351	35.28
736.533	35.43
736.714	35.73
736.895	34.51
737.076	34.52
737.257	34.85
737.438	34.45
737.619	35.57
737.8	35.43
737.981	35.24
738.162	34.79
738.343	33.38
738.524	33.32
738.705	32.36
738.886	32.89
739.067	34.36
739.247	33.33
739.428	33.67
739.609	32.86
739.79	33.55
739.971	32.31
740.151	32.49
740.332	32.44
740.513	32.05
740.694	32.65
740.874	31.69
741.055	30.16
741.236	30.8
741.417	29.59
741.597	30.13
741.778	29.81
741.958	32.1
742.139	31.87
742.32	32.25
742.5	32.7
742.681	33.73
742.861	35.13
743.042	35.32
743.222	35.08
743.403	36.1
743.583	35.87
743.764	35
743.944	35.14
744.124	35.27
744.305	35.08
744.485	35.34
744.666	34.32
744.846	33.59
745.026	33.26
745.207	34.71
745.387	32.99
745.567	32.11
745.747	32.46
745.928	32.82
746.108	33.19
746.288	32.79
746.468	32.99
746.648	33.07
746.829	33.68
747.009	33.92
747.189	32.94
747.369	32.39
747.549	32.46
747.729	32.93
747.909	32.73
748.089	32.65
748.269	33.25
748.449	32.71
748.629	33.12
748.809	32.39
748.989	32.18
749.169	30.8
749.349	32.11
749.529	31.99
749.709	32.81
749.889	31.77
750.068	31.32
750.248	31
750.428	30.83
750.608	30.06
750.788	31.24
750.967	32.16
751.147	33.66
751.327	33.38
751.507	36.14
751.686	35.88
751.866	36.86
752.046	37.12
752.225	37.19
752.405	37.48
752.585	38.83
752.764	38.31
752.944	38.59
753.123	39
753.303	38.78
753.482	37.06
753.662	36.15
753.841	35.75
754.021	35.66
754.2	35.77
754.38	36.07
754.559	35.21
754.739	35.02
754.918	32.31
755.097	31.47
755.277	31.6
755.456	30.99
755.635	31.54
755.815	29.84
755.994	29.91
756.173	30.17
756.352	30.96
756.532	30.16
756.711	28.83
756.89	31.16
757.069	32.06
757.248	32.75
757.427	33.15
757.607	33.56
757.786	33.08
757.965	33.77
758.144	34.01
758.323	32.69
758.502	34.38
758.681	34.56
758.86	34.58
759.039	35.07
759.218	35.16
759.397	34.2
759.576	34.09
759.755	36.86
759.934	36.14
760.113	35.5
760.291	35.58
760.47	34.7
760.649	34.92
760.828	33.15
761.007	33
761.186	33.36
761.364	33.35
761.543	31.28
761.722	29.59
761.901	30.14
762.079	30.52
762.258	30.65
762.437	30.98
762.615	31.3
762.794	32.54
762.972	31.6
763.151	30.81
763.33	31.58
763.508	32.3
763.687	33.35
763.865	32.59
764.044	32.8
764.222	32.55
764.401	32.03
764.579	32
764.758	32.04
764.936	32.69
765.114	33.3
765.293	32.74
765.471	33.52
765.65	32.43
765.828	32.91
766.006	31.81
766.184	32.44
766.363	31.96
766.541	31.52
766.719	30.84
766.898	29.64
767.076	27.54
767.254	27.89
767.432	26.96
767.61	25.45
767.788	24.87
767.967	26.33
768.145	25.82
768.323	26.03
768.501	25.61
768.679	25.39
768.857	28.29
769.035	30.1
769.213	30.69
769.391	32.46
769.569	33.87
769.747	34.24
769.925	34.02
770.103	33.95
770.281	34.49
770.459	36.88
770.636	37.22
770.814	35.32
770.992	35.76
771.17	35.44
771.348	35.2
771.525	34.55
771.703	33.78
771.881	32.06
772.059	33.38
772.236	32.93
772.414	31.3
772.592	33.84
772.769	33.63
772.947	31.88
773.125	30.63
773.302	30.76
773.48	30.28
773.657	31.32
773.835	33.24
774.013	32.49
774.19	34.21
774.368	36.24
774.545	34.25
774.723	33.19
774.9	33.54
775.077	36.64
775.255	33.34
775.432	35.73
775.61	36.43
775.787	34.47
775.964	31.23
776.142	28.11
776.319	25.86
776.496	25.41
776.674	26.53
776.851	28.6
777.028	26.96
777.205	26.98
777.382	27.73
777.56	26.56
777.737	28.61
777.914	30.65
778.091	32.25
778.268	33.14
778.445	34.55
778.622	35.83
778.8	33.12
778.977	32.29
779.154	35.43
779.331	33.69
779.508	33.71
779.685	33.42
779.862	33.25
780.038	33.6
780.215	33.29
780.392	34.32
780.569	34.79
780.746	35.49
780.923	35.92
781.1	31.88
781.277	31.9
781.453	32.66
781.63	32.34
781.807	31.69
781.984	32.82
782.16	33.9
782.337	32.32
782.514	28.53
782.691	29.98
782.867	28.57
783.044	29.94
783.221	32.78
783.397	32.1
783.574	31.41
783.75	31.35
783.927	30.41
784.103	31.3
784.28	31.97
784.456	34.05
784.633	35.34
784.809	36.14
784.986	38.63
785.162	35.7
785.339	37.53
785.515	40.14
785.692	43.17
785.868	43.79
786.044	41.49
786.221	40.11
786.397	36.96
786.573	34.95
786.749	35.73
786.926	34.94
787.102	36.16
787.278	33.7
787.454	34.28
787.631	31.53
787.807	31.83
787.983	31.11
788.159	31.65
788.335	35.98
788.511	37.22
788.687	36.35
788.863	37.23
789.039	35.1
789.216	34.9
789.392	34.22
789.568	32.95
789.744	32.46
789.919	31.8
790.095	31.31
790.271	32.83
790.447	31.12
790.623	32.6
790.799	33.51
790.975	37.47
791.151	38.25
791.327	36.09
791.502	37.65
791.678	38.92
791.854	40.49
792.03	39.85
792.205	36.51
792.381	38.95
792.557	38.71
792.733	35.6
792.908	30.69
793.084	33.42
793.259	33.41
793.435	33.35
793.611	36.5
793.786	36.29
793.962	35.9
794.137	38.15
794.313	35.5
794.488	36.07
794.664	39.85
794.839	42.37
795.015	42.79
795.19	40.1
795.366	43.51
795.541	41.76
795.716	42.71
795.892	44.68
796.067	42.67
796.242	43.13
796.418	43.7
796.593	40.34
796.768	39.68
796.944	37.72
797.119	42.13
797.294	37.75
797.469	37.13
797.644	37.44
797.82	36.69
797.995	37.85
798.17	37.81
798.345	35.95
798.52	34.37
798.695	32.36
798.87	29.99
799.045	26.56
799.22	27.76
799.395	25.96
799.57	28.02
799.745	26.33
799.92	23.71
800.095	23.25
800.27	23.02
800.445	26.65
800.62	27.91
800.795	28.47
800.97	30.14
801.145	32.91
801.319	30.34
801.494	27.62
801.669	29.88
801.844	31.86
802.018	31.83
802.193	32.8
802.368	28.53
802.543	29.7
802.717	31.33
802.892	32.61
803.067	28.76
803.241	28.44
803.416	28.32
803.59	28.73
803.765	28.89
803.94	31
804.114	30.45
804.289	34.55
804.463	33.48
804.638	37.91
804.812	35.75
804.986	38.92
805.161	42.76
805.335	44.38
805.51	42.62
805.684	43.38
805.858	41.8
806.033	41.84
806.207	37.76
806.381	41.2
806.556	37.33
806.73	39.29
806.904	36.76
807.078	35.88
807.253	32.12
807.427	31.27
807.601	28.85
807.775	28.42
807.949	30.48
808.123	34.4
808.298	30.65
808.472	32.93
808.646	32.37
808.82	33.54
808.994	33.04
809.168	39.55
809.342	40.25
809.516	43.91
809.69	45.25
809.864	43.64
810.038	39.91
810.212	36.88
810.385	38.37
810.559	39.69
810.733	44.28
810.907	42.46
811.081	36.86
811.255	42.24
811.428	39.3
811.602	40.18
811.776	36.97
811.95	41.51
812.123	43.41
812.297	37.05
812.471	34.69
812.644	27.69
812.818	27.45
812.992	29.7
813.165	27.56
813.339	28.46
813.512	27.74
813.686	32.4
813.86	34.48
814.033	36.7
814.207	40.2
814.38	38.72
814.554	40.62
814.727	43.46
814.9	41.65
815.074	36.8
815.247	35
815.421	32.16
815.594	30.89
815.767	27.42
815.941	28.85
816.114	26.43
816.287	30.79
816.46	30.26
816.634	29.92
816.807	30.33
816.98	35.75
817.153	42.76
817.327	44.08
817.5	39.83
817.673	39.69
817.846	35.36
818.019	39.41
818.192	38.32
818.365	39.29
818.538	37.04
818.711	39.58
818.884	37
819.057	30.97
819.23	32.96
819.403	32.55
819.576	36.28
819.749	36.22
819.922	34.59
820.095	34.11
820.268	31.79
820.441	33.77
820.614	34.84
820.786	35.72
820.959	37.71
821.132	38.42
821.305	39.34
821.477	36.44
821.65	36.96
821.823	36.26
821.996	34.8
822.168	35.79
822.341	35.78
822.514	35.33
822.686	35.38
822.859	35.2
823.031	34.69
823.204	35.12
823.376	35.77
823.549	36.21
823.722	36.69
823.894	37.19
824.067	36.89
824.239	36.07
824.411	36.23
824.584	36.39
824.756	37.23
824.929	36.13
825.101	34.77
825.273	34.2
825.446	32.8
825.618	30.48
825.79	30.51
825.963	31.27
826.135	32.7
826.307	32.93
826.479	32.68
826.652	32.13
826.824	33.32
826.996	34.86
827.168	34.54
827.34	35.75
827.512	39.47
827.684	38.43
827.856	37.98
828.029	36.92
828.201	35.3
828.373	35.67
828.545	35.44
828.717	36.85
828.889	36.15
829.061	36.06
829.232	35.09
829.404	32.22
829.576	33.25
829.748	32.32
829.92	32.65
830.092	32.62
830.264	28.42
830.436	28.02
830.607	26.3
830.779	27.93
830.951	30.04
831.123	28.4
831.294	28.2
831.466	29.69
831.638	33.34
831.809	34.27
831.981	37.46
832.153	41.88
832.324	42.21
832.496	44.21
832.667	42.29
832.839	42.62
833.011	42.44
833.182	41.93
833.354	42.04
833.525	37.17
833.697	39.9
833.868	37.84
834.039	39.86
834.211	41.67
834.382	40.56
834.554	38.7
834.725	40.67
834.896	41.88
835.068	43.47
835.239	42.44
835.41	43.75
835.581	43.56
835.753	45.64
835.924	43.31
836.095	41.46
836.266	39.73
836.438	42.15
836.609	40.91
836.78	40.88
836.951	39.66
837.122	41.12
837.293	44.82
837.464	41.43
837.635	39.84
837.806	43.55
837.977	43.38
838.148	48.55
838.319	48.22
838.49	43.41
838.661	42.19
838.832	42.37
839.003	45.78
839.174	44.19
839.345	45.95
839.516	44.42
839.687	42.98
839.857	45.28
840.028	47.77
840.199	49.57
840.37	48.84
840.54	52.37
840.711	53.93
840.882	44.62
841.053	35.8
841.223	31.91
841.394	29.55
841.564	26.42
841.735	31.49
841.906	32.68
842.076	34.78
842.247	35.2
842.417	43.23
842.588	45.45
842.758	48.2
842.929	53.79
843.099	60.49
843.27	70.51
843.44	68.97
843.611	67.74
843.781	58.19
843.951	46.59
844.122	48.38
844.292	48.58
844.462	40.25
844.633	49.39
844.803	58.76
844.973	52.75
845.144	33.59
845.314	33.67
845.484	24.42
845.654	15.65
845.824	35.28
845.995	37.25
846.165	14.36
846.335	25.13
846.505	10.94
846.675	10.03
846.845	24.27
847.015	38.04
847.185	42.35
847.355	51.64
847.525	51.47
847.695	58.33
847.865	59.48
848.035	59
848.205	58.07
848.375	70.05
848.545	68.59
848.715	73.09
848.884	61.81
849.054	68.45
849.224	52.04
849.394	68.55
849.564	54.31
849.733	38.97
849.903	39.76
850.073	45.5
850.243	51.06
850.412	62.89
850.582	47.99
850.752	46.93
850.921	47.13
851.091	50.06
851.26	41.37
851.43	42.15
851.599	47.11
851.769	59.32
851.939	58.44
852.108	53.54
852.278	34.53
852.447	36.35
852.616	37.63
852.786	37.74
852.955	34.02
853.125	33.54
853.294	29.47
853.463	37.47
853.633	18.58
853.802	12.92
853.971	-8.32
854.141	-4.77
854.31	11.5
854.479	21.21
854.648	13.61
854.818	29.5
854.987	39.42
855.156	35.06
855.325	30.76
855.494	40.74
855.663	50.03
855.832	53.49
856.001	60.74
856.171	64.26
856.34	58.21
856.509	65.82
856.678	65.8
856.847	61.05
857.016	73.16
857.185	71.82
857.353	75.57
857.522	74.68
857.691	78.69
857.86	103.17
858.029	95.51
858.198	131.57
858.367	92.68
858.535	87.17
858.704	90.99
858.873	86.14
859.042	85.94
859.21	76.92
859.379	75.38
859.548	77.21
859.717	64.18
859.885	71.31
860.054	59.58
860.222	74.44
860.391	68.69
860.56	59.9
860.728	58.67
860.897	62.58
861.065	73.71
861.234	74.01
861.402	70.29
861.571	58.33
861.739	59.41
861.908	43.14
862.076	28.97
862.244	22.47
862.413	39.08
862.581	25.43
862.749	31.58
862.918	21.7
863.086	9.67
863.254	14.47
863.423	29.81
863.591	13.47
863.759	43.43
863.927	45.01
864.096	48.87
864.264	53.25
864.432	68.01
864.6	62.93
864.768	66.95
864.936	77.8
865.104	72.14
865.272	67.73
865.44	73.8
865.608	44.55
865.776	40.7
865.944	56.51
866.112	54.98
866.28	34.13
866.448	23
866.616	9.11
866.784	-8.8
866.952	-9.27
867.12	9.5
867.288	14
867.455	44.43
867.623	60.19
867.791	46.53
867.959	47.82
868.127	51.57
868.294	56.74
868.462	57.57
868.63	65.61
868.797	59.2
868.965	46.87
869.133	47.64
869.3	42.93
869.468	49.24
869.636	53.18
869.803	52.33
869.971	53.34
870.138	64.23
870.306	77.38
870.473	91.1
870.641	107.28
870.808	154.8
870.975	130.94
871.143	97.1
871.31	76.25
871.478	70.91
871.645	64.6
871.812	81.48
871.98	79.07
872.147	75.7
872.314	78.45
872.482	85.41
872.649	83.37
872.816	98.02
872.983	89.12
873.15	88.92
873.318	83.23
873.485	86.41
873.652	75.84
873.819	77.97
873.986	72.27
874.153	58.82
874.32	53.64
874.487	45.02
874.654	23.84
874.821	36.3
874.988	18.62
875.155	41.57
875.322	35.1
875.489	36.87
875.656	19.02
875.823	15.36
875.99	21.68
876.157	28.6
876.324	30.13
876.49	57.05
876.657	45.92
876.824	87.14
876.991	58.29
877.157	59.83
877.324	46.36
877.491	66.55
877.658	81.65
877.824	72.81
877.991	65.78
878.157	76.19
878.324	75.48
878.491	85.68
878.657	64.97
878.824	62.01
878.99	60.08
879.157	58.69
879.323	62.22
879.49	69.05
879.656	77.91
879.823	68.28
879.989	54.6
880.156	37.33
880.322	57.25
880.488	64.48
880.655	62.09
880.821	80.56
880.987	87.22
881.154	83.96
881.32	69.2
881.486	55.93
881.652	59.21
881.819	57.22
881.985	54.68
882.151	48.15
882.317	55.12
882.483	53.87
882.649	48.89
882.816	39.93
882.982	32.83
883.148	32.04
883.314	35.02
883.48	35
883.646	33.02
883.812	32.92
883.978	32.87
884.144	29.53
884.31	28.99
884.476	31.14
884.642	35.46
884.807	41.51
884.973	44.25
885.139	43.16
885.305	41.43
885.471	43.72
885.637	42.12
885.802	42.28
885.968	40.56
886.134	41.86
886.3	35.38
886.465	36.32
886.631	28.08
886.797	29
886.962	27.49
887.128	27.24
887.293	25.74
887.459	37.89
887.625	41.98
887.79	38.59
887.956	42.91
888.121	47.39
888.287	43.96
888.452	50.3
888.618	45.26
888.783	48.26
