Data from 2937843_Reflection_4.txt Node
Date: Wed Jul 15 16:12:25 EDT 2015
User: robert
Spectrometer: USB4E03001
Autoset integration time: false
Trigger mode: 4
Integration Time (sec): 1.000000E-1
Scans to average: 10
Electric dark correction enabled: true
Nonlinearity correction enabled: false
Boxcar width: 5
Stray light correction enabled: false
XAxis mode: Wavelengths
Stop averaging: false
Number of Pixels in Spectrum: 3648
>>>>>Begin Spectral Data<<<<<
177.566	130.43
177.785	501.56
178.005	-448.28
178.225	-1501.83
178.445	-265.95
178.665	97.9
178.885	482.2
179.105	165.56
179.324	174.68
179.544	7535.94
179.764	-689.21
179.984	-310.09
180.204	-103.94
180.423	-83.44
180.643	-172.1
180.863	-208.64
181.083	-256.82
181.302	-110.95
181.522	-261.99
181.742	-272.82
181.961	-358.25
182.181	-30766.67
182.401	-867.15
182.621	-664.99
182.84	-5299.15
183.06	-155.18
183.279	-42.3
183.499	-37.2
183.719	-83.79
183.938	-28.74
184.158	-55.61
184.377	-63.5
184.597	-36.43
184.816	-85.75
185.036	-108.89
185.256	-119.25
185.475	-222.24
185.695	-220.46
185.914	-157.63
186.134	-264.16
186.353	-6368.35
186.572	-342.69
186.792	-50.65
187.011	-44.77
187.231	-55.37
187.45	-48.73
187.67	-6.41
187.889	-38.24
188.108	-45.39
188.328	-66.45
188.547	-164.66
188.766	-288.42
188.986	-362.55
189.205	634.16
189.424	495.06
189.644	597.18
189.863	528.92
190.082	373.82
190.302	227.11
190.521	334.74
190.74	277.21
190.959	273.78
191.178	600.83
191.398	311.25
191.617	-6086.36
191.836	1501.29
192.055	-66.03
192.274	-379.47
192.494	-724.21
192.713	-2003.06
192.932	271.98
193.151	171.22
193.37	353.48
193.589	197.49
193.808	483.92
194.027	138.16
194.246	132.98
194.465	223.05
194.685	-11440
194.904	-580.32
195.123	771.8
195.342	-1928.23
195.561	-80.79
195.78	-55.48
195.999	-78.17
196.218	12726.32
196.436	-69.05
196.655	4.03
196.874	-186.29
197.093	-1540.74
197.312	22.03
197.531	25.97
197.75	45.38
197.969	44.24
198.188	31.38
198.407	51.99
198.625	52.84
198.844	27.77
199.063	6.69
199.282	-7.86
199.501	-19.44
199.719	-29.94
199.938	-26.16
200.157	-42.95
200.376	-66.45
200.594	-88.72
200.813	729.12
201.032	256.78
201.251	146.03
201.469	357.92
201.688	29.2
201.907	37.35
202.125	-93.72
202.344	111.33
202.563	191.73
202.781	4576
203	143.6
203.218	276.06
203.437	268.21
203.656	178.22
203.874	151.59
204.093	139.72
204.311	111.66
204.53	105.32
204.748	111.6
204.967	1333.55
205.185	-92.92
205.404	47.79
205.622	71.54
205.841	56.93
206.059	52.01
206.278	79.16
206.496	93.14
206.715	65.51
206.933	85.9
207.151	62.6
207.37	57.54
207.588	56.65
207.806	40.15
208.025	17.57
208.243	26.22
208.461	17.95
208.68	22.44
208.898	31.48
209.116	13.73
209.335	9.77
209.553	-2.2
209.771	3.77
209.989	-19.82
210.208	-90.87
210.426	-101.19
210.644	-139.55
210.862	-185.05
211.081	-346.77
211.299	-331.36
211.517	-262.91
211.735	-2626
211.953	-4351.18
212.171	315.31
212.39	438.79
212.608	-3106.78
212.826	-2196.17
213.044	-182.91
213.262	-138.76
213.48	-176.27
213.698	1903.09
213.916	-249.1
214.134	-142.59
214.352	-194.62
214.57	-684.34
214.788	586.72
215.006	418.76
215.224	-1211.62
215.442	-1153.97
215.66	312.14
215.878	318.22
216.096	1554.6
216.314	281.42
216.532	139.42
216.75	339.33
216.968	-925.23
217.185	-75.39
217.403	-151.91
217.621	808.4
217.839	534.2
218.057	421.39
218.275	-570.78
218.492	-943.64
218.71	-715.85
218.928	-465.37
219.146	-90.22
219.363	-36.64
219.581	-73.02
219.799	8.42
220.017	5.02
220.234	-30.55
220.452	-2.9
220.67	-26.62
220.887	-4.49
221.105	-3.12
221.323	-10.57
221.54	-44.31
221.758	-91.92
221.976	-84.34
222.193	-186.9
222.411	-67.56
222.629	-46.73
222.846	-56.79
223.064	-36.42
223.281	-43.74
223.499	-17.56
223.716	-28.44
223.934	3.35
224.151	6.47
224.369	-5.54
224.586	12.98
224.804	10.02
225.021	-20.39
225.239	-30.05
225.456	-18.56
225.674	-24.6
225.891	-27.96
226.108	-10.89
226.326	-12.21
226.543	-1.64
226.76	-6.01
226.978	-15.77
227.195	-10.42
227.413	2.94
227.63	10.16
227.847	8.97
228.064	6.62
228.282	5.24
228.499	8
228.716	3.8
228.934	-0.13
229.151	2.79
229.368	3.83
229.585	-0.39
229.802	-3.4
230.02	-4.31
230.237	-5.2
230.454	-5.98
230.671	-4.35
230.888	-3.25
231.105	3.52
231.323	6.1
231.54	9.9
231.757	7.58
231.974	12.73
232.191	15.22
232.408	9.02
232.625	11.54
232.842	12.15
233.059	2.99
233.276	-6.72
233.493	-23.5
233.71	-18.58
233.927	-19.26
234.144	-11.82
234.361	-18.12
234.578	-15.48
234.795	-14.93
235.012	-19.82
235.229	-17.17
235.446	-12.77
235.663	-11.14
235.879	-6.33
236.096	-8.51
236.313	-12.78
236.53	-10.97
236.747	-12.26
236.964	-6.61
237.181	-4.54
237.397	0.56
237.614	0.66
237.831	2.44
238.048	3.04
238.264	2.36
238.481	4.38
238.698	9
238.915	11.86
239.131	19.29
239.348	15.87
239.565	16.93
239.781	14.62
239.998	14.89
240.215	17.82
240.431	20.59
240.648	18.06
240.865	14.27
241.081	11.4
241.298	8.91
241.514	6.72
241.731	4.78
241.947	4.34
242.164	2.58
242.38	0.56
242.597	-0.37
242.814	-0.05
243.03	3.57
243.246	7.6
243.463	7.69
243.679	6.84
243.896	6.92
244.112	7.89
244.329	5.42
244.545	9.04
244.762	8.99
244.978	7.11
245.194	3.23
245.411	-0.69
245.627	-1.08
245.843	3.53
246.06	5.99
246.276	7.9
246.492	7.31
246.709	9.76
246.925	8.41
247.141	9.75
247.357	10.7
247.574	11.31
247.79	11.68
248.006	10.57
248.222	8.84
248.439	9.73
248.655	8.5
248.871	8.24
249.087	7.3
249.303	8.1
249.519	6.98
249.736	5.91
249.952	5.43
250.168	5.41
250.384	4.81
250.6	5.3
250.816	4.52
251.032	5.5
251.248	6.95
251.464	8.29
251.68	8.34
251.896	10.15
252.112	7.89
252.328	7.76
252.544	5.44
252.76	6.47
252.976	5.71
253.192	3.91
253.408	3.22
253.624	1.39
253.84	1.16
254.056	2.33
254.272	1.2
254.487	3.31
254.703	4.82
254.919	7.95
255.135	8.02
255.351	4.1
255.567	3.23
255.782	7.63
255.998	7.52
256.214	6.8
256.43	5.95
256.646	2.76
256.861	0.75
257.077	-1.2
257.293	0.68
257.508	-0.09
257.724	4.08
257.94	6.42
258.155	5.02
258.371	6.83
258.587	5.85
258.802	6.21
259.018	6.76
259.234	7.26
259.449	8.14
259.665	6.86
259.88	6.75
260.096	6.89
260.312	5.68
260.527	4.75
260.743	5.49
260.958	5.61
261.174	5.07
261.389	4.64
261.605	3.59
261.82	1.57
262.036	2.57
262.251	2.54
262.466	1.56
262.682	0.9
262.897	0.77
263.113	-3.37
263.328	-3.51
263.543	-3.58
263.759	-3.33
263.974	-1.81
264.189	1
264.405	1.03
264.62	1.73
264.835	2.82
265.051	3.48
265.266	4.08
265.481	6.88
265.696	5.45
265.912	3.62
266.127	2.81
266.342	2.92
266.557	3.46
266.773	0.33
266.988	-0.76
267.203	-1.11
267.418	-0.01
267.633	-2.15
267.848	-2.85
268.064	-0.85
268.279	-0.47
268.494	1.64
268.709	0.19
268.924	0.93
269.139	2.79
269.354	3.33
269.569	1.05
269.784	1.46
269.999	3.71
270.214	3.68
270.429	2.43
270.644	1.79
270.859	2.59
271.074	4.31
271.289	4.54
271.504	4.57
271.719	5.16
271.934	6.67
272.149	6.58
272.363	6.31
272.578	5.91
272.793	5.2
273.008	6.47
273.223	5.29
273.438	3.6
273.653	2.32
273.867	1.34
274.082	0.7
274.297	0.65
274.512	-0.74
274.726	0.32
274.941	-0.26
275.156	1.19
275.371	1.05
275.585	-0.16
275.8	1.5
276.015	0.07
276.229	0.4
276.444	-0.57
276.659	-0.79
276.873	1.1
277.088	1.25
277.302	1.28
277.517	1.38
277.732	0.35
277.946	1.85
278.161	2.91
278.375	4.92
278.59	6.51
278.804	4.61
279.019	3.29
279.233	0.69
279.448	-0.49
279.662	1.44
279.877	1.31
280.091	0.89
280.306	1.56
280.52	0.13
280.735	-0.33
280.949	-1.03
281.163	1.56
281.378	4.29
281.592	4.9
281.806	4.88
282.021	4.25
282.235	5.26
282.449	4.84
282.664	3.12
282.878	2.87
283.092	3.97
283.307	4.06
283.521	3.91
283.735	1.28
283.949	1.36
284.164	2.08
284.378	1.36
284.592	0.43
284.806	0.65
285.02	2.07
285.234	3.28
285.449	3.27
285.663	5.09
285.877	5.15
286.091	5.86
286.305	7.02
286.519	6.15
286.733	7.34
286.947	5.76
287.161	6.11
287.375	3.22
287.589	3.47
287.803	1.24
288.017	-0.26
288.231	-0.82
288.445	-0.07
288.659	-1.14
288.873	-0.96
289.087	0.04
289.301	2.67
289.515	4.51
289.729	5.84
289.943	4
290.157	4.46
290.371	3.91
290.584	4.57
290.798	4.16
291.012	3.81
291.226	3.6
291.44	2.8
291.654	2.11
291.867	0.67
292.081	2.21
292.295	4.97
292.509	6.87
292.722	7.37
292.936	7.42
293.15	8.57
293.364	10.72
293.577	12.11
293.791	12.32
294.005	12.85
294.218	12.4
294.432	11.84
294.645	10.72
294.859	10.28
295.073	10.09
295.286	9.89
295.5	9.11
295.713	7.83
295.927	7.69
296.14	7.86
296.354	8.03
296.568	8.61
296.781	9.79
296.994	10.69
297.208	11.02
297.421	10.6
297.635	11.43
297.848	10.88
298.062	11.71
298.275	10.79
298.489	10.32
298.702	11.3
298.915	11.27
299.129	11.96
299.342	10.02
299.555	10.16
299.769	10.87
299.982	10.07
300.195	11.63
300.409	11.02
300.622	11.15
300.835	11.66
301.048	10.34
301.262	10.22
301.475	8.52
301.688	8.71
301.901	8.89
302.115	9.34
302.328	9.29
302.541	9.16
302.754	9.27
302.967	12.14
303.18	10.19
303.393	9.85
303.607	10.07
303.82	10.98
304.033	13.17
304.246	12.11
304.459	12.31
304.672	13.06
304.885	12.38
305.098	11.41
305.311	10.76
305.524	12.62
305.737	13.27
305.95	12.63
306.163	11.74
306.376	12.12
306.589	14.14
306.802	13.53
307.015	13.87
307.228	13
307.44	12.64
307.653	12.36
307.866	12.42
308.079	11.93
308.292	14.49
308.505	13
308.718	11.21
308.93	11.21
309.143	11.18
309.356	10.67
309.569	10.67
309.781	12.71
309.994	12.86
310.207	13.38
310.42	14.97
310.632	15.43
310.845	17.28
311.058	17.69
311.27	18.51
311.483	18.71
311.696	19.66
311.908	21.08
312.121	20.58
312.333	19.92
312.546	20.53
312.759	20.72
312.971	19.35
313.184	19.51
313.396	19.69
313.609	17.12
313.821	16.25
314.034	15.22
314.246	13.9
314.459	12.87
314.671	14.48
314.884	14.46
315.096	15.15
315.309	16.63
315.521	15.27
315.733	16.54
315.946	17.85
316.158	18.39
316.371	19.85
316.583	20.81
316.795	20.88
317.008	19.76
317.22	19.28
317.432	15.9
317.644	12.83
317.857	14.03
318.069	10.76
318.281	10.24
318.494	12.93
318.706	12.25
318.918	12.72
319.13	14.24
319.342	15.14
319.555	15.55
319.767	16.23
319.979	19.58
320.191	21.92
320.403	22.02
320.615	22.31
320.827	20.51
321.039	20.08
321.252	18.4
321.464	19.98
321.676	19.22
321.888	18.9
322.1	19.28
322.312	19.83
322.524	18.58
322.736	20.61
322.948	18.61
323.16	18.28
323.372	19.94
323.584	23.03
323.796	19.95
324.007	20.82
324.219	19.61
324.431	20.81
324.643	20.31
324.855	20.17
325.067	22.3
325.279	25.12
325.491	28.06
325.702	26.99
325.914	27.56
326.126	29.57
326.338	30.29
326.55	32.44
326.761	32.43
326.973	33.26
327.185	33.48
327.396	32.75
327.608	32.4
327.82	32.14
328.032	31.74
328.243	31.75
328.455	32.18
328.666	31.7
328.878	32.42
329.09	32.88
329.301	33.31
329.513	35.1
329.725	36.6
329.936	36.31
330.148	36.32
330.359	39.42
330.571	40.16
330.782	41.47
330.994	42.92
331.205	42.48
331.417	44.1
331.628	44.41
331.84	45.77
332.051	45.38
332.262	48.44
332.474	49.9
332.685	48.96
332.897	49.53
333.108	52.81
333.319	54.36
333.531	56.04
333.742	56.01
333.953	57.45
334.165	58.15
334.376	60.09
334.587	61.3
334.799	61.58
335.01	64.17
335.221	64.36
335.432	62.35
335.644	62.73
335.855	62.62
336.066	62.27
336.277	61.15
336.488	61.57
336.7	61.23
336.911	61.37
337.122	60.95
337.333	60.49
337.544	60.26
337.755	61.44
337.966	61.44
338.177	63.17
338.388	65.57
338.599	66.12
338.811	66.49
339.022	67.59
339.233	67.29
339.444	69.39
339.655	70.08
339.866	71.4
340.076	71.95
340.287	72.57
340.498	73.02
340.709	73.69
340.92	75.81
341.131	75.49
341.342	75.82
341.553	76.89
341.764	75.87
341.975	74.99
342.185	76.14
342.396	75.89
342.607	75.48
342.818	75.96
343.029	74.98
343.239	74.36
343.45	73.92
343.661	73.08
343.872	72.55
344.082	72.29
344.293	73.61
344.504	72.52
344.714	72.38
344.925	74.86
345.136	74.34
345.346	73.9
345.557	73.87
345.768	74.16
345.978	74.97
346.189	75.05
346.399	75.97
346.61	75.02
346.821	74.89
347.031	76.72
347.242	75.08
347.452	74.61
347.663	74.85
347.873	75.17
348.084	75.43
348.294	75.54
348.504	76.25
348.715	76.73
348.925	77.62
349.136	78.51
349.346	76.95
349.557	75.75
349.767	75.14
349.977	76.42
350.188	76.08
350.398	75.96
350.608	76.87
350.819	76.21
351.029	75.2
351.239	75.96
351.449	75.54
351.66	74.84
351.87	75.62
352.08	77.19
352.29	76.13
352.501	77.29
352.711	78.15
352.921	76.4
353.131	76.36
353.341	76.35
353.552	75.81
353.762	76.06
353.972	77.5
354.182	77.31
354.392	76.74
354.602	76.91
354.812	76.56
355.022	75.78
355.232	76.12
355.442	75.94
355.652	76.82
355.862	76.76
356.072	76.71
356.282	76.76
356.492	76.94
356.702	77.67
356.912	77.03
357.122	76.49
357.332	77.37
357.542	77.93
357.752	78.25
357.962	77.44
358.171	77.33
358.381	77.27
358.591	77.05
358.801	77.16
359.011	76.59
359.221	75.95
359.43	75.89
359.64	75.35
359.85	74.66
360.06	73.56
360.269	73.43
360.479	73.55
360.689	73.33
360.899	73.24
361.108	73.22
361.318	72.84
361.528	73.31
361.737	73.1
361.947	72.72
362.156	72.84
362.366	73.53
362.576	72.87
362.785	72.63
362.995	72.77
363.204	72.18
363.414	72.02
363.623	71.75
363.833	71.81
364.042	72.22
364.252	71.85
364.461	71.44
364.671	71.87
364.88	72.66
365.09	72.1
365.299	71.82
365.509	71.72
365.718	71.88
365.927	71.9
366.137	72.21
366.346	71.67
366.555	71.76
366.765	71.72
366.974	70.09
367.183	69.29
367.393	68.88
367.602	68.43
367.811	67.7
368.021	67.1
368.23	67.24
368.439	66.86
368.648	65.83
368.857	66.09
369.067	65.99
369.276	66.2
369.485	66.33
369.694	66.09
369.903	65.4
370.112	65.48
370.321	65.4
370.531	64.83
370.74	64.4
370.949	64.9
371.158	63.9
371.367	63.48
371.576	63.3
371.785	63.6
371.994	62.9
372.203	62.56
372.412	62.39
372.621	61.9
372.83	62.5
373.039	62.3
373.248	61.61
373.457	61.28
373.666	60.74
373.874	60.06
374.083	59.45
374.292	59.98
374.501	60.23
374.71	59.51
374.919	59.62
375.128	58.76
375.336	59.29
375.545	58.85
375.754	59.47
375.963	59.64
376.171	59.89
376.38	59.84
376.589	59.1
376.798	59.06
377.006	58.85
377.215	58.85
377.424	58.04
377.632	56.7
377.841	56.51
378.05	56.3
378.258	55.27
378.467	54.94
378.675	54.37
378.884	54.15
379.093	54.35
379.301	54.54
379.51	54.1
379.718	53.95
379.927	54.05
380.135	53.69
380.344	53.29
380.552	53.86
380.761	53.64
380.969	53.54
381.177	53.82
381.386	53.06
381.594	52.71
381.803	51.94
382.011	52.12
382.219	51.7
382.428	52.18
382.636	51.66
382.845	51.28
383.053	50.93
383.261	50.73
383.469	50.33
383.678	49.77
383.886	49.58
384.094	49.21
384.302	49.06
384.511	49.06
384.719	47.98
384.927	47.81
385.135	47.89
385.343	48.04
385.552	46.79
385.76	46.37
385.968	46.22
386.176	46.05
386.384	45.68
386.592	45.16
386.8	45.19
387.008	45.32
387.216	44.68
387.424	44.08
387.633	43.26
387.841	44.27
388.049	44.55
388.257	44.39
388.465	43.94
388.672	43.78
388.88	43.7
389.088	42.98
389.296	42.87
389.504	42.9
389.712	42.84
389.92	43.19
390.128	42.73
390.336	41.91
390.544	41.65
390.751	41.69
390.959	41.85
391.167	41.48
391.375	41.52
391.583	41.41
391.79	41.42
391.998	41.32
392.206	41.04
392.414	40.6
392.621	40.58
392.829	40.49
393.037	40.25
393.244	39.99
393.452	39.76
393.66	39.57
393.867	39.53
394.075	39.35
394.283	39.34
394.49	39.18
394.698	38.96
394.905	39.11
395.113	39.1
395.32	39
395.528	38.9
395.735	39.1
395.943	38.93
396.15	38.45
396.358	38.56
396.565	38.78
396.773	38.43
396.98	38.25
397.188	38.01
397.395	37.73
397.602	37.75
397.81	37.36
398.017	37.07
398.225	36.9
398.432	37.24
398.639	36.74
398.847	36.17
399.054	35.8
399.261	36.15
399.468	35.92
399.676	36.04
399.883	35.82
400.09	35.98
400.297	35.76
400.505	35.67
400.712	35.29
400.919	35.56
401.126	35.35
401.333	35.98
401.54	35.56
401.748	35.22
401.955	34.62
402.162	34.72
402.369	34.68
402.576	34.6
402.783	34.46
402.99	34.69
403.197	34.31
403.404	34.25
403.611	33.9
403.818	33.91
404.025	33.87
404.232	34.26
404.439	34.4
404.646	34.41
404.853	34.32
405.06	34.42
405.267	34.11
405.474	34
405.681	34.23
405.887	34.13
406.094	34.01
406.301	34.24
406.508	34.3
406.715	34.08
406.922	33.86
407.128	33.88
407.335	33.96
407.542	33.92
407.749	34
407.955	33.66
408.162	33.66
408.369	33.74
408.575	33.64
408.782	33.29
408.989	33.08
409.195	33.24
409.402	33.34
409.609	33.04
409.815	33.12
410.022	33.26
410.228	32.99
410.435	33.28
410.642	33.31
410.848	33.25
411.055	33.19
411.261	33.19
411.468	33.05
411.674	33.24
411.881	33.28
412.087	33.16
412.294	32.96
412.5	33.29
412.706	33.05
412.913	32.87
413.119	32.94
413.326	32.91
413.532	32.51
413.738	32.36
413.945	32.06
414.151	32.05
414.357	32.07
414.564	31.93
414.77	31.85
414.976	31.88
415.182	31.96
415.389	32.02
415.595	31.99
415.801	32.24
416.007	32.21
416.214	32.19
416.42	31.77
416.626	31.65
416.832	31.46
417.038	31.43
417.244	31.53
417.45	31.39
417.657	31.23
417.863	31.04
418.069	30.97
418.275	30.93
418.481	30.84
418.687	31.12
418.893	30.94
419.099	31.16
419.305	31.05
419.511	30.82
419.717	30.76
419.923	30.68
420.129	30.71
420.335	30.64
420.541	30.7
420.746	30.59
420.952	30.63
421.158	30.79
421.364	30.55
421.57	30.45
421.776	30.38
421.982	30.41
422.187	30.4
422.393	30.33
422.599	30.35
422.805	30.07
423.01	30.22
423.216	30.06
423.422	30.03
423.628	30.08
423.833	30.16
424.039	30.31
424.245	30.26
424.45	30.11
424.656	30.09
424.862	30.05
425.067	30.19
425.273	30.08
425.478	30.01
425.684	29.8
425.889	29.69
426.095	29.55
426.301	29.34
426.506	29.31
426.712	29.29
426.917	29.23
427.123	29.08
427.328	28.94
427.533	28.8
427.739	28.83
427.944	28.88
428.15	28.96
428.355	29.05
428.561	29
428.766	28.87
428.971	29.11
429.177	29.29
429.382	29.54
429.587	29.53
429.793	29.44
429.998	29.48
430.203	29.25
430.408	29.3
430.614	29.1
430.819	29.19
431.024	29.33
431.229	29.12
431.434	29.06
431.64	28.79
431.845	28.82
432.05	28.86
432.255	28.68
432.46	28.88
432.665	28.89
432.87	28.95
433.076	28.86
433.281	28.65
433.486	28.65
433.691	28.55
433.896	28.58
434.101	28.4
434.306	28.22
434.511	28.15
434.716	28.06
434.921	27.9
435.126	27.85
435.331	27.86
435.535	27.9
435.74	27.9
435.945	27.87
436.15	27.85
436.355	28.08
436.56	28.28
436.765	28.42
436.97	28.53
437.174	28.97
437.379	29.01
437.584	28.84
437.789	28.85
437.993	29
438.198	29.07
438.403	29.05
438.608	29.15
438.812	29.25
439.017	29.36
439.222	29.36
439.426	29.08
439.631	29.08
439.836	29.29
440.04	29.52
440.245	29.42
440.45	29.39
440.654	29.32
440.859	29.16
441.063	29.16
441.268	28.94
441.472	28.89
441.677	28.77
441.881	28.97
442.086	28.8
442.29	28.66
442.495	28.57
442.699	28.68
442.904	28.79
443.108	28.86
443.312	28.65
443.517	28.88
443.721	28.91
443.925	29.05
444.13	28.72
444.334	28.84
444.538	28.89
444.743	28.91
444.947	28.74
445.151	28.8
445.356	28.82
445.56	29.03
445.764	28.89
445.968	28.77
446.173	28.69
446.377	28.84
446.581	28.73
446.785	28.58
446.989	28.56
447.193	28.53
447.398	28.4
447.602	28.48
447.806	28.28
448.01	28.17
448.214	28.19
448.418	28.36
448.622	28.16
448.826	28.12
449.03	28.18
449.234	28.18
449.438	28.4
449.642	28.39
449.846	28.12
450.05	28.02
450.254	28.25
450.458	28.28
450.662	27.91
450.866	27.92
451.069	28.04
451.273	27.74
451.477	27.57
451.681	27.29
451.885	27.29
452.089	27.28
452.292	27.39
452.496	27.33
452.7	27.26
452.904	27.38
453.107	27.37
453.311	27.24
453.515	27.63
453.719	27.65
453.922	27.64
454.126	27.58
454.33	27.63
454.533	27.6
454.737	27.5
454.94	27.41
455.144	27.43
455.348	27.24
455.551	27.2
455.755	27.08
455.958	27.09
456.162	27.05
456.365	27.09
456.569	27.17
456.772	27.3
456.976	27.3
457.179	27.11
457.383	27.01
457.586	26.98
457.79	27.14
457.993	27.06
458.196	27.07
458.4	27.18
458.603	27.22
458.807	27.09
459.01	27.06
459.213	27.12
459.417	27.42
459.62	27.53
459.823	27.73
460.026	27.79
460.23	27.92
460.433	28.01
460.636	28.04
460.839	27.98
461.042	28.07
461.246	28.1
461.449	28.07
461.652	27.84
461.855	27.89
462.058	27.86
462.261	27.71
462.464	27.66
462.668	27.48
462.871	27.54
463.074	27.64
463.277	27.63
463.48	27.66
463.683	27.75
463.886	27.94
464.089	27.8
464.292	27.68
464.495	27.67
464.698	27.58
464.901	27.7
465.104	27.73
465.306	27.69
465.509	27.72
465.712	27.51
465.915	27.54
466.118	27.67
466.321	27.69
466.524	27.9
466.726	28.02
466.929	28
467.132	28.06
467.335	27.88
467.538	27.95
467.74	27.97
467.943	28.19
468.146	28.16
468.348	27.98
468.551	27.99
468.754	28.11
468.956	27.99
469.159	28.07
469.362	28.06
469.564	28.26
469.767	28.35
469.969	28.38
470.172	28.34
470.375	28.36
470.577	28.52
470.78	28.53
470.982	28.51
471.185	28.63
471.387	28.52
471.59	28.66
471.792	28.69
471.995	28.76
472.197	28.65
472.399	28.84
472.602	28.84
472.804	28.76
473.007	28.96
473.209	28.82
473.411	28.58
473.614	28.63
473.816	28.44
474.018	28.31
474.22	27.92
474.423	28.02
474.625	27.78
474.827	27.74
475.03	27.79
475.232	27.74
475.434	27.82
475.636	28.06
475.838	28.12
476.04	28.02
476.243	28.12
476.445	28.28
476.647	28.23
476.849	28.29
477.051	28.22
477.253	28.43
477.455	28.3
477.657	28.28
477.859	28.29
478.061	28.28
478.263	28.48
478.465	28.41
478.667	28.46
478.869	28.35
479.071	28.5
479.273	28.54
479.475	28.21
479.677	28.2
479.879	28.18
480.081	28.14
480.283	28.17
480.485	28.01
480.686	28.04
480.888	28.13
481.09	28.33
481.292	28.12
481.494	28.22
481.695	28.48
481.897	28.48
482.099	28.51
482.301	28.54
482.502	28.45
482.704	28.65
482.906	28.56
483.107	28.49
483.309	28.48
483.511	28.5
483.712	28.47
483.914	28.46
484.115	28.48
484.317	28.42
484.519	28.41
484.72	28.38
484.922	28.23
485.123	28.21
485.325	28.23
485.526	28.19
485.728	28.18
485.929	28.2
486.131	28.12
486.332	28.11
486.534	28.15
486.735	28.11
486.936	28.23
487.138	28.29
487.339	28.36
487.541	28.28
487.742	28.34
487.943	28.34
488.144	28.37
488.346	28.32
488.547	28.34
488.748	28.35
488.95	28.35
489.151	28.35
489.352	28.31
489.553	28.34
489.755	28.33
489.956	28.29
490.157	28.33
490.358	28.37
490.559	28.35
490.76	28.36
490.961	28.39
491.163	28.49
491.364	28.5
491.565	28.63
491.766	28.66
491.967	28.78
492.168	28.76
492.369	28.77
492.57	28.67
492.771	28.72
492.972	28.73
493.173	28.74
493.374	28.66
493.575	28.62
493.776	28.61
493.976	28.62
494.177	28.52
494.378	28.62
494.579	28.55
494.78	28.58
494.981	28.71
495.182	28.76
495.382	28.95
495.583	28.99
495.784	29.12
495.985	29.17
496.185	29.1
496.386	29.09
496.587	29.11
496.788	29.18
496.988	29.36
497.189	29.29
497.39	29.36
497.59	29.32
497.791	29.44
497.992	29.37
498.192	29.43
498.393	29.48
498.593	29.62
498.794	29.75
498.994	29.92
499.195	29.93
499.395	30.08
499.596	30.05
499.796	30.09
499.997	29.9
500.197	30.07
500.398	30.18
500.598	30.26
500.799	30.35
500.999	30.15
501.199	30.23
501.4	30.27
501.6	30.38
501.801	30.46
502.001	30.58
502.201	30.77
502.402	30.62
502.602	30.59
502.802	30.55
503.002	30.78
503.203	31.02
503.403	31.09
503.603	31.07
503.803	31.06
504.003	31.2
504.204	31.33
504.404	31.56
504.604	31.8
504.804	31.79
505.004	31.97
505.204	31.78
505.404	31.73
505.604	31.79
505.804	32.06
506.005	32.2
506.205	32.23
506.405	32.08
506.605	31.94
506.805	32.06
507.005	32.29
507.204	32.6
507.404	32.82
507.604	32.99
507.804	33.06
508.004	33.03
508.204	33.12
508.404	33.06
508.604	33.29
508.804	33.39
509.003	33.61
509.203	33.69
509.403	33.8
509.603	34
509.803	34.21
510.002	34.21
510.202	34.35
510.402	34.53
510.602	34.62
510.801	34.84
511.001	35.13
511.201	35.14
511.4	35.39
511.6	35.43
511.8	35.52
511.999	35.62
512.199	35.78
512.398	35.78
512.598	35.91
512.797	36.22
512.997	36.15
513.197	36.17
513.396	36.42
513.596	36.34
513.795	36.49
513.994	36.62
514.194	36.75
514.393	37.02
514.593	37.38
514.792	37.34
514.992	37.45
515.191	37.66
515.39	37.86
515.59	37.92
515.789	38.27
515.988	38.28
516.188	38.51
516.387	38.57
516.586	38.55
516.786	38.65
516.985	38.94
517.184	39.18
517.383	39.5
517.582	39.75
517.782	39.85
517.981	39.92
518.18	40.09
518.379	40.2
518.578	40.36
518.777	40.46
518.976	40.58
519.176	40.72
519.375	40.71
519.574	40.66
519.773	40.59
519.972	40.67
520.171	40.77
520.37	40.76
520.569	40.78
520.768	40.87
520.967	41.13
521.166	41.19
521.365	41.28
521.564	41.43
521.762	41.46
521.961	41.6
522.16	41.7
522.359	41.8
522.558	42.02
522.757	42.28
522.956	42.35
523.154	42.34
523.353	42.5
523.552	42.44
523.751	42.64
523.949	42.96
524.148	43.19
524.347	43.37
524.546	43.59
524.744	43.67
524.943	43.77
525.142	44.02
525.34	44.15
525.539	44.26
525.737	44.6
525.936	44.66
526.135	44.74
526.333	44.84
526.532	44.84
526.73	44.85
526.929	44.99
527.127	45.11
527.326	45.26
527.524	45.46
527.723	45.65
527.921	45.72
528.12	45.83
528.318	45.88
528.516	45.99
528.715	46.06
528.913	46.12
529.112	46.16
529.31	46.19
529.508	46.15
529.707	46.14
529.905	46.07
530.103	46.03
530.301	46.09
530.5	46.11
530.698	46.05
530.896	46.25
531.094	46.3
531.293	46.41
531.491	46.44
531.689	46.53
531.887	46.72
532.085	46.92
532.283	47.18
532.481	47.28
532.68	47.39
532.878	47.6
533.076	47.55
533.274	47.74
533.472	47.8
533.67	47.87
533.868	47.94
534.066	47.94
534.264	47.88
534.462	47.79
534.66	47.7
534.858	47.75
535.056	47.78
535.253	47.8
535.451	47.67
535.649	47.66
535.847	47.78
536.045	47.95
536.243	48.03
536.441	48.21
536.638	48.48
536.836	48.71
537.034	48.82
537.232	48.66
537.43	48.84
537.627	49.03
537.825	49.12
538.023	49.08
538.22	49.04
538.418	49.07
538.616	49.1
538.813	49.03
539.011	48.98
539.209	48.83
539.406	49.02
539.604	48.93
539.801	48.94
539.999	48.87
540.196	48.89
540.394	48.94
540.591	49.01
540.789	48.97
540.986	48.87
541.184	48.94
541.381	49.03
541.579	49.03
541.776	49.08
541.974	49.16
542.171	49.35
542.368	49.41
542.566	49.47
542.763	49.42
542.96	49.49
543.158	49.64
543.355	49.75
543.552	49.79
543.75	49.92
543.947	49.9
544.144	49.81
544.341	49.74
544.539	49.77
544.736	49.85
544.933	49.93
545.13	50
545.327	49.96
545.524	49.95
545.722	50.17
545.919	50.41
546.116	50.48
546.313	50.4
546.51	50.56
546.707	50.69
546.904	50.65
547.101	50.69
547.298	50.83
547.495	50.92
547.692	50.86
547.889	50.84
548.086	50.6
548.283	50.61
548.48	50.75
548.677	50.63
548.874	50.47
549.07	50.51
549.267	50.64
549.464	50.61
549.661	50.7
549.858	50.66
550.055	50.44
550.251	50.32
550.448	50.33
550.645	50.43
550.842	50.4
551.038	50.52
551.235	50.6
551.432	50.55
551.628	50.32
551.825	50.3
552.022	50.56
552.218	50.75
552.415	50.64
552.612	50.74
552.808	50.8
553.005	50.63
553.201	50.72
553.398	50.68
553.594	50.72
553.791	50.83
553.987	50.87
554.184	50.77
554.38	50.91
554.577	51.26
554.773	51.23
554.97	51.26
555.166	51.6
555.362	51.58
555.559	51.74
555.755	51.72
555.952	51.77
556.148	51.88
556.344	51.84
556.541	51.71
556.737	51.57
556.933	51.5
557.129	51.39
557.326	51.33
557.522	51.48
557.718	51.38
557.914	51.6
558.11	51.6
558.307	51.45
558.503	51.66
558.699	51.69
558.895	51.89
559.091	52.08
559.287	52.32
559.483	52.48
559.679	52.3
559.876	52.13
560.072	51.96
560.268	52.13
560.464	52.3
560.66	52.32
560.856	52.3
561.052	52.3
561.247	52.39
561.443	52.18
561.639	51.98
561.835	51.91
562.031	52.11
562.227	51.93
562.423	52
562.619	51.75
562.815	51.57
563.01	51.57
563.206	51.58
563.402	51.5
563.598	51.73
563.793	51.98
563.989	51.93
564.185	51.92
564.381	52.09
564.576	52.11
564.772	52.3
564.968	52.34
565.163	52.57
565.359	52.66
565.555	52.82
565.75	52.84
565.946	53.05
566.141	53.18
566.337	53.14
566.532	53.2
566.728	52.97
566.923	53.04
567.119	53.08
567.314	52.85
567.51	52.8
567.705	52.71
567.901	52.63
568.096	52.33
568.292	52.34
568.487	52.55
568.682	52.73
568.878	52.94
569.073	52.79
569.268	52.95
569.464	53.12
569.659	53.37
569.854	53.3
570.05	53.32
570.245	53.53
570.44	53.57
570.635	53.38
570.831	53.36
571.026	53.55
571.221	53.76
571.416	53.72
571.611	53.61
571.806	53.51
572.002	53.42
572.197	53.4
572.392	53.4
572.587	53.53
572.782	53.68
572.977	53.53
573.172	53.29
573.367	53.26
573.562	53.12
573.757	53.07
573.952	53.01
574.147	53.11
574.342	53.14
574.537	53.15
574.732	53.03
574.927	52.94
575.121	52.84
575.316	52.94
575.511	52.75
575.706	52.94
575.901	53.13
576.096	53.04
576.29	53.17
576.485	53.16
576.68	52.99
576.875	53.11
577.069	53.19
577.264	53.28
577.459	53.15
577.654	53.1
577.848	53.21
578.043	53.33
578.238	53.55
578.432	53.43
578.627	53.56
578.821	53.71
579.016	53.53
579.21	53.53
579.405	53.54
579.6	53.67
579.794	53.78
579.989	53.78
580.183	53.3
580.378	53.31
580.572	53.51
580.766	53.47
580.961	53.53
581.155	53.61
581.35	53.62
581.544	53.8
581.738	53.8
581.933	53.93
582.127	53.95
582.321	54.25
582.516	54.26
582.71	54.28
582.904	54.56
583.099	54.46
583.293	54.39
583.487	54.16
583.681	54.1
583.875	53.91
584.07	53.61
584.264	53.39
584.458	53.4
584.652	53.39
584.846	53.41
585.04	53.2
585.234	53.46
585.428	53.62
585.623	54.18
585.817	54.14
586.011	54.33
586.205	54.89
586.399	55.18
586.593	55.37
586.787	55.29
586.981	55.14
587.174	55.29
587.368	54.78
587.562	55.02
587.756	55.05
587.95	55.21
588.144	55.14
588.338	55.03
588.532	54.71
588.725	54.46
588.919	54.46
589.113	54.76
589.307	54.7
589.501	55.18
589.694	55.1
589.888	55.07
590.082	55.1
590.275	55.49
590.469	55.51
590.663	55.73
590.856	55.85
591.05	55.87
591.244	55.67
591.437	55.8
591.631	55.54
591.824	55.55
592.018	55.21
592.212	55.24
592.405	55.19
592.599	55.44
592.792	55.53
592.986	55.5
593.179	55.68
593.372	55.67
593.566	55.72
593.759	55.52
593.953	55.69
594.146	55.73
594.339	55.73
594.533	55.5
594.726	55.31
594.92	55.41
595.113	55.65
595.306	55.52
595.499	55.51
595.693	55.53
595.886	55.87
596.079	55.86
596.272	56.08
596.466	56.11
596.659	56.28
596.852	56.32
597.045	56.33
597.238	56.29
597.431	56.25
597.624	56.13
597.818	56.08
598.011	56.15
598.204	56.09
598.397	56.26
598.59	56.19
598.783	56.02
598.976	56.15
599.169	56.12
599.362	56.25
599.555	56.31
599.748	56.77
599.941	56.57
600.134	56.66
600.326	56.75
600.519	56.52
600.712	56.55
600.905	56.77
601.098	56.49
601.291	56.31
601.483	56.16
601.676	56.14
601.869	56.05
602.062	56.19
602.255	55.93
602.447	55.97
602.64	55.97
602.833	56.1
603.025	56.01
603.218	56.12
603.411	56.3
603.603	56.4
603.796	56.64
603.989	56.61
604.181	56.52
604.374	56.53
604.566	56.53
604.759	56.6
604.951	56.8
605.144	56.95
605.336	57.02
605.529	56.77
605.721	56.87
605.914	56.91
606.106	57.22
606.299	57.15
606.491	57.4
606.683	57.53
606.876	57.45
607.068	57.17
607.26	57.16
607.453	57.11
607.645	57.39
607.837	57.4
608.03	57.39
608.222	57.07
608.414	57.51
608.606	57.43
608.799	57.2
608.991	57.23
609.183	57.49
609.375	57.59
609.567	57.75
609.759	57.82
609.952	57.57
610.144	57.35
610.336	57.3
610.528	57.07
610.72	56.81
610.912	56.94
611.104	57
611.296	56.97
611.488	56.76
611.68	56.44
611.872	56.43
612.064	56.54
612.256	56.62
612.448	56.49
612.64	56.59
612.832	56.8
613.023	56.27
613.215	56.28
613.407	55.83
613.599	55.97
613.791	56.09
613.983	55.97
614.174	55.76
614.366	55.82
614.558	55.99
614.75	56.17
614.941	56.38
615.133	56.75
615.325	56.81
615.516	56.88
615.708	56.73
615.9	56.87
616.091	56.69
616.283	56.78
616.475	56.69
616.666	56.84
616.858	56.46
617.049	56.33
617.241	56.45
617.432	56.21
617.624	56.59
617.815	56.88
618.007	56.89
618.198	57.33
618.39	57.68
618.581	57.65
618.773	57.47
618.964	58.01
619.155	57.98
619.347	57.88
619.538	58.12
619.729	57.93
619.921	58.03
620.112	58.04
620.303	57.75
620.494	57.63
620.686	57.71
620.877	57.78
621.068	57.32
621.259	57.35
621.451	57.11
621.642	57.1
621.833	57.05
622.024	56.61
622.215	57.03
622.406	57.12
622.597	57.34
622.788	57.28
622.98	56.96
623.171	56.92
623.362	56.89
623.553	57.34
623.744	57.44
623.935	57.51
624.126	57.91
624.317	57.47
624.508	57.03
624.698	56.75
624.889	56.79
625.08	57.01
625.271	57.22
625.462	57.11
625.653	57.09
625.844	56.96
626.034	56.66
626.225	56.58
626.416	56.51
626.607	57.07
626.798	56.93
626.988	56.91
627.179	57.15
627.37	57.13
627.56	57.09
627.751	57.29
627.942	57.43
628.132	57.92
628.323	57.91
628.514	58
628.704	57.65
628.895	58.1
629.085	58.11
629.276	58.02
629.466	57.93
629.657	58.28
629.847	58.03
630.038	58.04
630.228	57.61
630.419	57.7
630.609	57.81
630.8	57.95
630.99	57.71
631.181	57.68
631.371	57.59
631.561	57.74
631.752	57.73
631.942	57.49
632.132	57.32
632.323	57.45
632.513	57.44
632.703	57.53
632.893	57.44
633.084	57.42
633.274	57.56
633.464	57.89
633.654	57.88
633.844	57.79
634.034	57.8
634.225	57.98
634.415	57.81
634.605	57.42
634.795	57.34
634.985	57.51
635.175	57.65
635.365	57.77
635.555	57.51
635.745	57.29
635.935	57.34
636.125	57.47
636.315	57.13
636.505	57.33
636.695	57.3
636.885	56.99
637.075	56.96
637.265	57.16
637.455	56.81
637.644	56.85
637.834	57.46
638.024	57.83
638.214	57.47
638.404	57.76
638.593	57.84
638.783	57.87
638.973	58.02
639.163	58.09
639.352	57.36
639.542	57.4
639.732	57.39
639.921	57.07
640.111	56.47
640.301	56.82
640.49	56.57
640.68	56.29
640.87	56.27
641.059	56.41
641.249	56.42
641.438	56.29
641.628	56.31
641.817	55.93
642.007	55.94
642.196	56.08
642.386	56.17
642.575	56.4
642.764	56.44
642.954	56.68
643.143	56.08
643.333	55.96
643.522	56.55
643.711	56.79
643.901	57.07
644.09	56.87
644.279	56.77
644.469	56.86
644.658	56.63
644.847	56.71
645.036	56.75
645.226	56.99
645.415	56.95
645.604	56.86
645.793	56.9
645.982	56.71
646.171	56.66
646.361	56.29
646.55	56.06
646.739	56.56
646.928	56.68
647.117	56.36
647.306	56.47
647.495	56.18
647.684	56.11
647.873	56.16
648.062	56.58
648.251	56.36
648.44	56.83
648.629	56.95
648.818	56.58
649.007	56.79
649.196	57.38
649.384	57.63
649.573	57.5
649.762	57.41
649.951	57.67
650.14	57.23
650.328	57.72
650.517	57.57
650.706	57.1
650.895	57.29
651.083	57.43
651.272	56.85
651.461	56.77
651.65	57.16
651.838	57.28
652.027	56.83
652.216	57.03
652.404	56.87
652.593	56.93
652.781	57.08
652.97	56.59
653.158	55.83
653.347	56.25
653.535	56.24
653.724	56.29
653.912	56.34
654.101	56.49
654.289	56.65
654.478	57.07
654.666	57.42
654.855	57.68
655.043	58.17
655.231	58.32
655.42	58.47
655.608	58.73
655.796	58.78
655.985	58.94
656.173	58.73
656.361	58.65
656.55	58.25
656.738	57.92
656.926	58.14
657.114	58.07
657.302	58.19
657.491	57.92
657.679	57.59
657.867	57.78
658.055	57.99
658.243	58.14
658.431	58.38
658.619	58.52
658.807	58.59
658.996	58.56
659.184	58.71
659.372	58.77
659.56	58.92
659.748	58.81
659.936	58.61
660.124	58.18
660.311	58.37
660.499	58.13
660.687	57.9
660.875	58.43
661.063	58.29
661.251	57.77
661.439	58.1
661.627	57.63
661.814	57.99
662.002	57.95
662.19	57.77
662.378	57.57
662.565	57.12
662.753	57.44
662.941	56.94
663.129	57.22
663.316	57.81
663.504	57.44
663.692	57.66
663.879	58.08
664.067	57.89
664.254	58.36
664.442	58.47
664.63	58.97
664.817	58.8
665.005	58.69
665.192	58.28
665.38	57.73
665.567	57.98
665.755	58.29
665.942	57.57
666.13	57.59
666.317	57.66
666.504	57.43
666.692	57.27
666.879	57.12
667.067	56.57
667.254	56.96
667.441	57.39
667.629	57.36
667.816	57.63
668.003	57.93
668.19	57.97
668.378	57.76
668.565	57.58
668.752	57.7
668.939	57.65
669.127	57.66
669.314	57.72
669.501	57.44
669.688	57.26
669.875	56.96
670.062	56.85
670.249	56.86
670.436	56.66
670.623	57.01
670.81	56.87
670.997	57.09
671.184	57.44
671.371	56.86
671.558	57.13
671.745	57.41
671.932	56.9
672.119	56.52
672.306	56.57
672.493	56.64
672.68	56.47
672.867	56.55
673.054	56.36
673.24	56.04
673.427	56.03
673.614	55.76
673.801	55.38
673.988	55.98
674.174	56.69
674.361	57.17
674.548	57.32
674.734	56.97
674.921	56.63
675.108	56.69
675.294	57.41
675.481	57.34
675.668	57.66
675.854	57.92
676.041	58.03
676.227	57.71
676.414	56.98
676.601	57.19
676.787	57.7
676.974	58.24
677.16	58.17
677.347	57.76
677.533	58.49
677.719	58.5
677.906	58.39
678.092	58.29
678.279	58.27
678.465	58.4
678.651	58.27
678.838	58.28
679.024	58.37
679.21	58.34
679.397	58.76
679.583	58.28
679.769	58.12
679.955	58.07
680.142	57.86
680.328	57.9
680.514	58.14
680.7	58.14
680.886	57.73
681.073	57.52
681.259	57.79
681.445	57.4
681.631	57.8
681.817	57.88
682.003	57.9
682.189	58.15
682.375	58.05
682.561	57.99
682.747	58.43
682.933	58.83
683.119	58.89
683.305	58.52
683.491	58.65
683.677	58.32
683.863	58.19
684.049	58.48
684.235	58.35
684.42	58.31
684.606	58.3
684.792	57.34
684.978	56.92
685.164	56.83
685.349	57.03
685.535	56.94
685.721	57.27
685.907	57.27
686.092	56.59
686.278	56.45
686.464	56.47
686.649	56.83
686.835	57.5
687.021	57.92
687.206	58.39
687.392	57.76
687.577	58.22
687.763	57.28
687.948	57.72
688.134	58.08
688.319	58.32
688.505	57.91
688.69	57.69
688.876	57.25
689.061	57.35
689.247	57.47
689.432	58.07
689.618	57.33
689.803	58.29
689.988	57.65
690.174	57.83
690.359	57.94
690.544	58.24
690.73	58.28
690.915	58.41
691.1	58.63
691.285	57.99
691.471	57.74
691.656	57.7
691.841	57.54
692.026	57.28
692.211	57.19
692.396	56.92
692.582	56.45
692.767	55.79
692.952	56.41
693.137	56.24
693.322	55.89
693.507	55.95
693.692	55.97
693.877	55.92
694.062	56.93
694.247	57.1
694.432	57.68
694.617	58.17
694.802	58.72
694.987	57.48
695.172	57.36
695.357	57.92
695.541	58.27
695.726	58.56
695.911	58.66
696.096	57.96
696.281	57.56
696.466	57.18
696.65	57.09
696.835	56.96
697.02	57.98
697.204	58.04
697.389	57.86
697.574	57.24
697.759	57.61
697.943	57.22
698.128	57.11
698.312	56.82
698.497	56.78
698.682	56.89
698.866	56.77
699.051	56.21
699.235	55.89
699.42	55.84
699.604	56.61
699.789	56.14
699.973	56.81
700.158	57.08
700.342	57.26
700.527	56.69
700.711	56.16
700.895	56.26
701.08	56.7
701.264	56.84
701.448	57.24
701.633	56.94
701.817	56.77
702.001	56.03
702.186	56.08
702.37	55.39
702.554	56.25
702.738	57.4
702.923	57.81
703.107	57.77
703.291	56.93
703.475	56.33
703.659	56.5
703.843	56.69
704.027	56.21
704.212	56.56
704.396	58.2
704.58	58.33
704.764	57.67
704.948	57.31
705.132	55.96
705.316	57.35
705.5	57.52
705.684	56.66
705.868	56.14
706.052	56.61
706.235	55.6
706.419	55.22
706.603	54.91
706.787	55.55
706.971	55.93
707.155	57.26
707.339	57.01
707.522	56.44
707.706	56.86
707.89	57.35
708.074	56.81
708.257	57.56
708.441	57.03
708.625	56.94
708.808	56.14
708.992	55.65
709.176	56.15
709.359	56.13
709.543	56.17
709.727	56.5
709.91	57.09
710.094	57.29
710.277	56.33
710.461	56.18
710.644	56.06
710.828	56.71
711.011	57.06
711.195	56.25
711.378	55.22
711.562	55.55
711.745	55.47
711.928	54.86
712.112	55.11
712.295	55.65
712.478	56.31
712.662	55.7
712.845	54.88
713.028	54.22
713.212	53.94
713.395	55.08
713.578	54.77
713.761	54.37
713.945	54.71
714.128	54.6
714.311	54.81
714.494	54.2
714.677	54.87
714.86	55.04
715.043	55.65
715.227	56.37
715.41	56.11
715.593	56.86
715.776	56.72
715.959	56.42
716.142	57.07
716.325	57.05
716.508	57.76
716.691	57.89
716.874	58.29
717.057	57.94
717.239	57.45
717.422	57.52
717.605	57.76
717.788	57.3
717.971	57.05
718.154	56.53
718.337	56.55
718.519	55.67
718.702	55.41
718.885	55.58
719.068	55.84
719.25	56.3
719.433	55.34
719.616	54.09
719.798	54.44
719.981	54.77
720.164	54.63
720.346	54.01
720.529	54.65
720.712	54.72
720.894	54.2
721.077	53.91
721.259	53.5
721.442	54.57
721.624	54.41
721.807	54.68
721.989	55.08
722.172	54.68
722.354	54.15
722.537	53.47
722.719	53.72
722.901	53.05
723.084	53.12
723.266	53.34
723.448	52.65
723.631	53.17
723.813	53.22
723.995	52.95
724.178	53.19
724.36	52.6
724.542	52.78
724.724	52.69
724.907	53.18
725.089	52.6
725.271	53.04
725.453	53.98
725.635	54.22
725.817	54.04
725.999	53.51
726.181	53.32
726.364	55.06
726.546	55.78
726.728	55.53
726.91	56.99
727.092	57.37
727.274	56.38
727.456	55.38
727.638	55.54
727.819	56.38
728.001	56.61
728.183	57.2
728.365	57.19
728.547	56.59
728.729	57.11
728.911	56.04
729.093	55.71
729.274	56.15
729.456	56.89
729.638	56.71
729.82	55.9
730.001	55.86
730.183	55.4
730.365	55.49
730.546	55.21
730.728	54.82
730.91	54.99
731.091	55.43
731.273	55.49
731.455	55.27
731.636	55.11
731.818	55.66
731.999	56.32
732.181	56.76
732.362	56.4
732.544	57.47
732.725	56.88
732.907	56.33
733.088	55.27
733.27	55.1
733.451	54.87
733.633	55.26
733.814	55.09
733.995	54.88
734.177	54.42
734.358	54.43
734.539	53.52
734.721	54.62
734.902	55.08
735.083	56.9
735.264	56.43
735.446	56.49
735.627	55.35
735.808	54.85
735.989	55.13
736.17	55.41
736.351	55.39
736.533	55.71
736.714	55.98
736.895	55.96
737.076	55.47
737.257	56.45
737.438	57.53
737.619	58.19
737.8	58.61
737.981	56.72
738.162	56.05
738.343	55.63
738.524	55.76
738.705	54.11
738.886	53.97
739.067	54.69
739.247	53.64
739.428	53.2
739.609	53.5
739.79	53.4
739.971	53.44
740.151	54.93
740.332	54.85
740.513	53.9
740.694	54.54
740.874	55.1
741.055	54.67
741.236	54.41
741.417	54.08
741.597	54.12
741.778	53.61
741.958	55.61
742.139	53.36
742.32	53.03
742.5	53.87
742.681	55.2
742.861	55.13
743.042	54.74
743.222	53.96
743.403	54.35
743.583	54.27
743.764	55.01
743.944	54.82
744.124	56.03
744.305	56.93
744.485	57.07
744.666	55.88
744.846	55.76
745.026	54.8
745.207	57.07
745.387	55.01
745.567	54.47
745.747	53.4
745.928	53.2
746.108	53.48
746.288	52.48
746.468	53.01
746.648	52.36
746.829	52.66
747.009	55.07
747.189	53.85
747.369	55.23
747.549	54.74
747.729	56.96
747.909	56.75
748.089	55.45
748.269	55.36
748.449	54.67
748.629	55
748.809	53.87
748.989	51.81
749.169	52.25
749.349	52.24
749.529	53.8
749.709	51.89
749.889	52.38
750.068	53.22
750.248	54.04
750.428	53.99
750.608	54.26
750.788	55.74
750.967	56.63
751.147	56.41
751.327	55.62
751.507	55.5
751.686	56.04
751.866	56.52
752.046	55.86
752.225	55.31
752.405	55.95
752.585	55.71
752.764	53.7
752.944	53.83
753.123	54.43
753.303	55.57
753.482	54.44
753.662	54.82
753.841	54.42
754.021	56.43
754.2	57.74
754.38	56.13
754.559	55.66
754.739	55.23
754.918	54.78
755.097	53.62
755.277	53
755.456	51.91
755.635	50.11
755.815	47.29
755.994	46.92
756.173	47.07
756.352	48.19
756.532	47.71
756.711	48.78
756.89	49.5
757.069	50.65
757.248	51.25
757.427	52.37
757.607	53.6
757.786	54.4
757.965	53.53
758.144	51.58
758.323	51.76
758.502	52.41
758.681	52.83
758.86	53.67
759.039	52.24
759.218	51.54
759.397	51.07
759.576	51.7
759.755	53.42
759.934	54.51
760.113	54.86
760.291	53.85
760.47	53.44
760.649	52.14
760.828	49.09
761.007	51.43
761.186	50.98
761.364	51.37
761.543	50.09
761.722	49.02
761.901	47.71
762.079	49.16
762.258	50.69
762.437	51.82
762.615	53.27
762.794	55.4
762.972	54.07
763.151	54.56
763.33	55.29
763.508	55.49
763.687	55.19
763.865	54.51
764.044	54.08
764.222	53.2
764.401	52.67
764.579	51.45
764.758	50.28
764.936	50.56
765.114	50.69
765.293	49.89
765.471	49.86
765.65	49.91
765.828	51.59
766.006	50.93
766.184	51.19
766.363	50.73
766.541	51.92
766.719	52.13
766.898	51.06
767.076	50.89
767.254	52.18
767.432	52.4
767.61	53.22
767.788	51.89
767.967	53.39
768.145	53.09
768.323	53.95
768.501	52.42
768.679	52.67
768.857	53.63
769.035	53.86
769.213	52.59
769.391	53.33
769.569	52.33
769.747	53.28
769.925	51.76
770.103	52.14
770.281	52.84
770.459	53.94
770.636	54.19
770.814	53.46
770.992	53.64
771.17	55.33
771.348	53.38
771.525	52.36
771.703	50.73
771.881	51.42
772.059	51.5
772.236	49.63
772.414	50.7
772.592	49.26
772.769	51.75
772.947	49.91
773.125	47.81
773.302	50.29
773.48	50.44
773.657	49.59
773.835	49.65
774.013	48.43
774.19	50.01
774.368	49.39
774.545	50.28
774.723	48.54
774.9	51.74
775.077	51.25
775.255	49.48
775.432	52.32
775.61	54.53
775.787	54.09
775.964	53.15
776.142	51.28
776.319	52.53
776.496	51.16
776.674	51.72
776.851	49.6
777.028	49.55
777.205	49.43
777.382	47.83
777.56	47.86
777.737	49.21
777.914	52.55
778.091	52.53
778.268	50.23
778.445	53.21
778.622	53.17
778.8	52.02
778.977	53.05
779.154	53.76
779.331	52.29
779.508	51.51
779.685	47.86
779.862	45.55
780.038	46.92
780.215	46.31
780.392	45.35
780.569	47.04
780.746	47.65
780.923	46.64
781.1	45.64
781.277	46.91
781.453	46.72
781.63	47.91
781.807	47.43
781.984	50.22
782.16	52.22
782.337	51.67
782.514	46.96
782.691	47.32
782.867	46.44
783.044	45.1
783.221	45.35
783.397	45.99
783.574	46.32
783.75	44.99
783.927	43.66
784.103	42.23
784.28	42.44
784.456	43.73
784.633	44.38
784.809	43.57
784.986	47.12
785.162	47.43
785.339	48.16
785.515	48.4
785.692	51.08
785.868	48.46
786.044	47.64
786.221	46.82
786.397	46.25
786.573	42.92
786.749	43.19
786.926	42
787.102	42.12
787.278	40.73
787.454	39.58
787.631	37.81
787.807	39.41
787.983	41.59
788.159	40.57
788.335	43.62
788.511	45.47
788.687	47.17
788.863	48
789.039	48.59
789.216	49.83
789.392	51.29
789.568	51.27
789.744	48.8
789.919	47.89
790.095	49.72
790.271	48.84
790.447	47.73
790.623	48.56
790.799	46.58
790.975	45.32
791.151	46.61
791.327	47.31
791.502	48.67
791.678	51.79
791.854	50.19
792.03	50.67
792.205	49.61
792.381	50.59
792.557	49.62
792.733	49.4
792.908	49.62
793.084	47.52
793.259	49.09
793.435	51
793.611	51.66
793.786	53.17
793.962	50.61
794.137	51.54
794.313	54.58
794.488	53.49
794.664	57.12
794.839	58.47
795.015	59.67
795.19	54.79
795.366	56.01
795.541	53.69
795.716	53.48
795.892	57.14
796.067	57.24
796.242	52.3
796.418	54.51
796.593	51.04
796.768	51.03
796.944	50.54
797.119	54.29
797.294	50.58
797.469	52.76
797.644	54
797.82	49.89
797.995	52.7
798.17	58.01
798.345	59.41
798.52	60.89
798.695	60
798.87	57.37
799.045	58.88
799.22	60.09
799.395	57.02
799.57	59.18
799.745	61.03
799.92	57.41
800.095	53.32
800.27	49.36
800.445	49.78
800.62	49.01
800.795	50.31
800.97	47.36
801.145	47.18
801.319	49.06
801.494	44.82
801.669	47.85
801.844	47.37
802.018	49.87
802.193	48.84
802.368	46.21
802.543	47.11
802.717	48.24
802.892	49.69
803.067	51.03
803.241	46.55
803.416	46.11
803.59	39.88
803.765	40.38
803.94	39.08
804.114	41.11
804.289	42.62
804.463	43.25
804.638	44.39
804.812	41.35
804.986	38.9
805.161	42.8
805.335	41.91
805.51	45.09
805.684	45.82
805.858	42.24
806.033	42.1
806.207	41.94
806.381	43.25
806.556	40.14
806.73	40
806.904	40.2
807.078	41.38
807.253	40.88
807.427	37.53
807.601	38.25
807.775	41.24
807.949	41.87
808.123	43.33
808.298	39.93
808.472	40.58
808.646	39.95
808.82	38.86
808.994	38.67
809.168	39.57
809.342	43.14
809.516	42.91
809.69	43.34
809.864	42.82
810.038	42.45
810.212	40.03
810.385	39.96
810.559	43.04
810.733	46.42
810.907	49.12
811.081	47.67
811.255	49.21
811.428	47.29
811.602	48.99
811.776	50.84
811.95	50.45
812.123	53.9
812.297	53.11
812.471	51.54
812.644	48.57
812.818	45.39
812.992	46.08
813.165	44.57
813.339	40.43
813.512	42.72
813.686	41.99
813.86	41.7
814.033	42.52
814.207	43.8
814.38	44.83
814.554	46.89
814.727	47.99
814.9	53.15
815.074	50.03
815.247	54.16
815.421	50.42
815.594	51.49
815.767	48.19
815.941	47.5
816.114	48.82
816.287	48.11
816.46	47.54
816.634	46.56
816.807	43.83
816.98	52.1
817.153	52.36
817.327	51.77
817.5	47.93
817.673	44.57
817.846	45.36
818.019	46.66
818.192	46.45
818.365	47.45
818.538	46.32
818.711	47.59
818.884	44.32
819.057	45.07
819.23	44.39
819.403	46.15
819.576	50.1
819.749	46.27
819.922	46.89
820.095	49.33
820.268	47.24
820.441	51.01
820.614	51.48
820.786	50.32
820.959	51.32
821.132	52.32
821.305	52.61
821.477	53.33
821.65	55
821.823	54.08
821.996	53.89
822.168	53.99
822.341	52.87
822.514	51.91
822.686	51.37
822.859	50.78
823.031	50.94
823.204	51.13
823.376	50.99
823.549	50.71
823.722	51.2
823.894	50.41
824.067	50.61
824.239	50.37
824.411	50.87
824.584	52.16
824.756	51.03
824.929	48.91
825.101	48.26
825.273	48.01
825.446	47.77
825.618	46.67
825.79	47.66
825.963	47.21
826.135	47.81
826.307	47.14
826.479	46.97
826.652	48.31
826.824	50.31
826.996	50.63
827.168	50.78
827.34	50.72
827.512	51.66
827.684	50.43
827.856	50.39
828.029	50.14
828.201	50.2
828.373	50.17
828.545	50.88
828.717	51.76
828.889	49.87
829.061	49.66
829.232	51.73
829.404	50.18
829.576	51.89
829.748	51.87
829.92	50.87
830.092	51.66
830.264	48.69
830.436	46.76
830.607	47.06
830.779	47.67
830.951	49.85
831.123	46.1
831.294	44.74
831.466	44.7
831.638	43.12
831.809	42.92
831.981	40.29
832.153	46.33
832.324	49.82
832.496	48.31
832.667	49.86
832.839	44.05
833.011	44.68
833.182	46.59
833.354	46.1
833.525	45.49
833.697	46.8
833.868	45.91
834.039	46.05
834.211	46.37
834.382	46.83
834.554	46.13
834.725	48.36
834.896	48.21
835.068	48.11
835.239	46.58
835.41	46.31
835.581	42.92
835.753	43.09
835.924	43.42
836.095	42.18
836.266	39.45
836.438	41.71
836.609	41.29
836.78	43.08
836.951	41.91
837.122	43.25
837.293	43.2
837.464	48.66
837.635	45.87
837.806	45.22
837.977	43.77
838.148	48.2
838.319	40.85
838.49	40.06
838.661	33.87
838.832	37.38
839.003	33.51
839.174	37.77
839.345	32.85
839.516	36.3
839.687	27.45
839.857	30.5
840.028	22.37
840.199	29.54
840.37	30.31
840.54	32.31
840.711	27.98
840.882	30.33
841.053	22.81
841.223	25
841.394	25.34
841.564	32.05
841.735	33.55
841.906	41.85
842.076	44.08
842.247	47.53
842.417	50.54
842.588	52
842.758	57.28
842.929	63.19
843.099	68.08
843.27	80.6
843.44	73.03
843.611	79.92
843.781	68.84
843.951	55.59
844.122	45.36
844.292	51.49
844.462	46.32
844.633	41.38
844.803	40.54
844.973	25.52
845.144	-22.04
845.314	-10.03
845.484	-14.75
845.654	-9.29
845.824	4.78
845.995	-2
846.165	-6.85
846.335	8.13
846.505	9.47
846.675	20.61
846.845	31.65
847.015	46.79
847.185	52.79
847.355	60.51
847.525	60.57
847.695	62.05
847.865	59.87
848.035	49.74
848.205	43.08
848.375	40.86
848.545	28.22
848.715	26.35
848.884	17.77
849.054	3.66
849.224	-16.63
849.394	-10.08
849.564	-21.41
849.733	-18.35
849.903	6.54
850.073	30.42
850.243	38.85
850.412	44.21
850.582	36.91
850.752	32.52
850.921	35.73
851.091	33.79
851.26	24.74
851.43	31.74
851.599	16.67
851.769	27.54
851.939	14.37
852.108	7.25
852.278	8.76
852.447	8.92
852.616	20.54
852.786	32.84
852.955	42.95
853.125	45.8
853.294	47.23
853.463	59.6
853.633	44.97
853.802	50.49
853.971	29.97
854.141	15.54
854.31	36.14
854.479	20.33
854.648	5.17
854.818	14.7
854.987	24.1
855.156	12.8
855.325	22.5
855.494	28.97
855.663	29.26
855.832	42.05
856.001	40.35
856.171	33.2
856.34	33.29
856.509	29.19
856.678	-8.11
856.847	-11.27
857.016	-20.45
857.185	-11.62
857.353	-12.86
857.522	-5.12
857.691	-15.37
857.86	-15.02
858.029	-31.67
858.198	-31.19
858.367	-9.64
858.535	17.82
858.704	22
858.873	32.33
859.042	26.64
859.21	19.73
859.379	15.94
859.548	14.99
859.717	20.08
859.885	30.55
860.054	33.18
860.222	37.41
860.391	44.36
860.56	36.31
860.728	50.62
860.897	55.57
861.065	68.7
861.234	66.47
861.402	63.16
861.571	61.37
861.739	60.26
861.908	36.72
862.076	31.41
862.244	13.09
862.413	20.97
862.581	-30.03
862.749	-30.87
862.918	-23.79
863.086	-30.58
863.254	-31.03
863.423	-20.84
863.591	-28.11
863.759	-12.63
863.927	-1.93
864.096	7.66
864.264	12.15
864.432	22.05
864.6	28.19
864.768	27.45
864.936	43.06
865.104	39.16
865.272	28.46
865.44	46.34
865.608	43.84
865.776	44.87
865.944	38.93
866.112	28.12
866.28	22.27
866.448	0.17
866.616	-27.71
866.784	-53.64
866.952	-40.21
867.12	-16.73
867.288	-20.23
867.455	-21.73
867.623	-43.49
867.791	-8.55
867.959	-7.06
868.127	5.05
868.294	11.83
868.462	25.83
868.63	29.44
868.797	23.58
868.965	19.37
869.133	1.09
869.3	3.19
869.468	-0.84
869.636	-5.96
869.803	-2.74
869.971	-11.8
870.138	-25.27
870.306	-37.34
870.473	-17.44
870.641	-8.94
870.808	-38.57
870.975	-11.27
871.143	26.93
871.31	14.97
871.478	8.73
871.645	27.05
871.812	38.55
871.98	53.99
872.147	46.85
872.314	47.33
872.482	30.98
872.649	37.89
872.816	42.27
872.983	28.23
873.15	28.77
873.318	36.08
873.485	24.56
873.652	26.64
873.819	29.13
873.986	48.15
874.153	54.22
874.32	51.38
874.487	52.45
874.654	50.28
874.821	75.05
874.988	71.12
875.155	71.02
875.322	79.89
875.489	73.76
875.656	49.77
875.823	42.63
875.99	26.47
876.157	31.58
876.324	35.63
876.49	46.54
876.657	18.26
876.824	17.72
876.991	17.87
877.157	31.08
877.324	18.31
877.491	60.23
877.658	60.95
877.824	62.9
877.991	86.77
878.157	79.21
878.324	73.84
878.491	71.86
878.657	84.71
878.824	78.5
878.99	66.19
879.157	72.49
879.323	66.58
879.49	69.58
879.656	63.31
879.823	43.34
879.989	43.53
880.156	46.75
880.322	60.53
880.488	40.93
880.655	36.53
880.821	57.18
880.987	46.1
881.154	37.83
881.32	31.8
881.486	24.83
881.652	28.17
881.819	25.54
881.985	29.58
882.151	28.76
882.317	36.23
882.483	36.05
882.649	35.01
882.816	35.77
882.982	33.26
883.148	35.43
883.314	42.83
883.48	42.63
883.646	42.77
883.812	42.02
883.978	41.28
884.144	39
884.31	40.63
884.476	38.47
884.642	37.47
884.807	41.81
884.973	41.78
885.139	39.26
885.305	36.38
885.471	36.13
885.637	33.71
885.802	37.82
885.968	37.34
886.134	31.87
886.3	33.01
886.465	36.02
886.631	31.14
886.797	23.65
886.962	16.98
887.128	20.96
887.293	20.19
887.459	28.61
887.625	20.14
887.79	13.86
887.956	27.23
888.121	24.45
888.287	23.32
888.452	21.5
888.618	33.23
888.783	37.99
