Data from 2937826_Reflection_1.txt Node
Date: Wed Jul 15 17:02:12 EDT 2015
User: robert
Spectrometer: USB4E03001
Autoset integration time: false
Trigger mode: 4
Integration Time (sec): 1.000000E-1
Scans to average: 10
Electric dark correction enabled: true
Nonlinearity correction enabled: false
Boxcar width: 5
Stray light correction enabled: false
XAxis mode: Wavelengths
Stop averaging: false
Number of Pixels in Spectrum: 3648
>>>>>Begin Spectral Data<<<<<
177.566	37.67
177.785	25.72
178.005	34.86
178.225	51.42
178.445	68.88
178.665	35.02
178.885	-242.75
179.105	24.42
179.324	24.93
179.544	21.18
179.764	31.02
179.984	23.82
180.204	19.71
180.423	23.24
180.643	41.2
180.863	47.81
181.083	45.97
181.302	50.01
181.522	18.42
181.742	17.08
181.961	38.84
182.181	81.27
182.401	63.66
182.621	83.66
182.84	89.89
183.06	106.66
183.279	101.62
183.499	75.43
183.719	60.82
183.938	97.46
184.158	123.75
184.377	163.64
184.597	134.1
184.816	195.15
185.036	172.85
185.256	626.44
185.475	380.46
185.695	290.93
185.914	619.77
186.134	537.74
186.353	420.59
186.572	327.85
186.792	276.83
187.011	193.56
187.231	155.31
187.45	138.22
187.67	103.82
187.889	98.24
188.108	101.25
188.328	81.09
188.547	96.65
188.766	65.4
188.986	79.44
189.205	82.19
189.424	118.55
189.644	111.94
189.863	111.36
190.082	171.42
190.302	110.81
190.521	91.81
190.74	144.21
190.959	105.87
191.178	120.97
191.398	84.01
191.617	77.02
191.836	76.49
192.055	85.97
192.274	119.78
192.494	78.73
192.713	80.74
192.932	74.74
193.151	67.42
193.37	67.88
193.589	44.31
193.808	50.66
194.027	63.94
194.246	35.33
194.465	45.3
194.685	33.71
194.904	52.57
195.123	95.58
195.342	144.84
195.561	209.71
195.78	603.39
195.999	241.43
196.218	440.88
196.436	914.95
196.655	-919.14
196.874	-4024.08
197.093	-902.48
197.312	-603.17
197.531	644.01
197.75	440.92
197.969	210.47
198.188	196.98
198.407	179.32
198.625	151.89
198.844	145.94
199.063	132
199.282	131.26
199.501	118.49
199.719	97.14
199.938	107.47
200.157	104.2
200.376	85.78
200.594	71.3
200.813	84.15
201.032	90.48
201.251	88.2
201.469	60.15
201.688	48.91
201.907	32.03
202.125	72.57
202.344	73
202.563	113.5
202.781	224.73
203	188.67
203.218	183.33
203.437	141.14
203.656	135.92
203.874	178.8
204.093	175.16
204.311	177.53
204.53	164.33
204.748	155.69
204.967	192.6
205.185	126.41
205.404	556
205.622	-734.31
205.841	4390.7
206.059	-55
206.278	554.46
206.496	-59.86
206.715	18.3
206.933	-0.11
207.151	-167.56
207.37	-26.8
207.588	139.4
207.806	95.33
208.025	31.25
208.243	35.68
208.461	52.62
208.68	49.07
208.898	36.14
209.116	36.23
209.335	52.91
209.553	53.38
209.771	50.43
209.989	37.27
210.208	24.86
210.426	61.96
210.644	46.44
210.862	68.42
211.081	71.29
211.299	65.95
211.517	60.2
211.735	51.6
211.953	52.85
212.171	70.78
212.39	82.07
212.608	94.26
212.826	89.58
213.044	120.43
213.262	236.01
213.48	135.29
213.698	601.27
213.916	-285.52
214.134	-214.15
214.352	-289.17
214.57	558.68
214.788	-400.77
215.006	-271.95
215.224	390.5
215.442	223.18
215.66	70.5
215.878	126.25
216.096	130.45
216.314	102.97
216.532	113.62
216.75	83.19
216.968	83.41
217.185	70.52
217.403	70.09
217.621	69.28
217.839	86.34
218.057	92.67
218.275	91.17
218.492	87.91
218.71	82.82
218.928	93.69
219.146	101.51
219.363	124.45
219.581	123.16
219.799	128.36
220.017	178.75
220.234	245.61
220.452	485.09
220.67	-849.05
220.887	-200.42
221.105	-107.53
221.323	-134.01
221.54	-51.6
221.758	-107.28
221.976	-306.52
222.193	-814.33
222.411	400
222.629	354.34
222.846	1399.74
223.064	1578.62
223.281	782.09
223.499	715.98
223.716	-441.6
223.934	1996.2
224.151	-492.67
224.369	-109.95
224.586	-101.35
224.804	-98.95
225.021	-71.55
225.239	-71.38
225.456	-108.27
225.674	-37.8
225.891	-98.28
226.108	2656.6
226.326	-5782.01
226.543	9959.76
226.76	-906.35
226.978	-1734.79
227.195	-395.39
227.413	-309.09
227.63	-233.49
227.847	-99.81
228.064	-57.81
228.282	-33.67
228.499	-11.46
228.716	-8.32
228.934	-7.9
229.151	-4.96
229.368	-0.97
229.585	1.18
229.802	4.08
230.02	4.09
230.237	-0.16
230.454	0.66
230.671	-2.24
230.888	-3.88
231.105	0.41
231.323	-0.12
231.54	-3.98
231.757	-1
231.974	-8.4
232.191	-15.32
232.408	-13.48
232.625	-18.75
232.842	-33
233.059	-27
233.276	-26.6
233.493	-23.3
233.71	-22.09
233.927	-23.66
234.144	-20.46
234.361	-17.88
234.578	-4.02
234.795	-6.44
235.012	-3.5
235.229	-3
235.446	-12.32
235.663	-8.62
235.879	-13.69
236.096	-19.02
236.313	-19.61
236.53	-37.06
236.747	-34.77
236.964	-55.61
237.181	-45.38
237.397	-35.1
237.614	-33.07
237.831	-36.25
238.048	-45.27
238.264	-37.69
238.481	-21.47
238.698	-16.55
238.915	-4.26
239.131	-11.52
239.348	-6.47
239.565	-7.99
239.781	-3.76
239.998	-5.38
240.215	-0.86
240.431	3.76
240.648	4.64
240.865	0.72
241.081	3.17
241.298	4.27
241.514	7.09
241.731	7
241.947	7.97
242.164	9.94
242.38	10.54
242.597	11.29
242.814	9.44
243.03	9.13
243.246	12.89
243.463	12.87
243.679	10.85
243.896	7.73
244.112	4.68
244.329	4.27
244.545	0.96
244.762	-0.38
244.978	-2.58
245.194	0.23
245.411	0.86
245.627	-2.66
245.843	-3.26
246.06	-0.95
246.276	5.23
246.492	7.24
246.709	8.33
246.925	7.5
247.141	8.99
247.357	10.09
247.574	8.95
247.79	7.78
248.006	8.25
248.222	9.26
248.439	8.56
248.655	7.19
248.871	7.76
249.087	8.05
249.303	7.15
249.519	7.02
249.736	6.23
249.952	5.31
250.168	7
250.384	7.72
250.6	7.76
250.816	6.71
251.032	5.01
251.248	4.06
251.464	1.21
251.68	3.01
251.896	0.55
252.112	-2.12
252.328	-0.23
252.544	-3.21
252.76	-4.65
252.976	-6.09
253.192	-4.54
253.408	-4.74
253.624	-5.62
253.84	-2.97
254.056	-5.43
254.272	-6.68
254.487	-6.62
254.703	-7.82
254.919	-2.61
255.135	-1.02
255.351	-0.19
255.567	-2.38
255.782	1.02
255.998	-0.59
256.214	2.72
256.43	4.99
256.646	11.04
256.861	14.26
257.077	13.38
257.293	11.12
257.508	8.5
257.724	8.87
257.94	9.27
258.155	7.81
258.371	6.25
258.587	4.5
258.802	5.33
259.018	6.16
259.234	5.42
259.449	7.41
259.665	8.56
259.88	8.34
260.096	8.28
260.312	8.78
260.527	7.74
260.743	8.92
260.958	8.02
261.174	7.35
261.389	5.51
261.605	5.05
261.82	3.16
262.036	0.34
262.251	0.58
262.466	-0.45
262.682	-0.05
262.897	0.7
263.113	-1.79
263.328	-2.76
263.543	-1.8
263.759	-0.9
263.974	-3.41
264.189	-2.86
264.405	-4.56
264.62	-0.94
264.835	-2.68
265.051	-3.39
265.266	-0.65
265.481	1.08
265.696	2.16
265.912	3.53
266.127	6.72
266.342	8.24
266.557	8.91
266.773	7.81
266.988	5.9
267.203	6.47
267.418	5.75
267.633	5.73
267.848	5.61
268.064	6.89
268.279	6.65
268.494	1.3
268.709	0.61
268.924	-1.25
269.139	1.94
269.354	0.3
269.569	-0.17
269.784	-0.26
269.999	0.42
270.214	0.51
270.429	-2.12
270.644	-3.77
270.859	0.06
271.074	0.92
271.289	3.98
271.504	5.2
271.719	5.83
271.934	7.69
272.149	7.5
272.363	6.02
272.578	6.23
272.793	7.26
273.008	7.82
273.223	6.97
273.438	6.58
273.653	3.48
273.867	2.54
274.082	1.35
274.297	-0.81
274.512	-2.64
274.726	-2.08
274.941	-3.36
275.156	-2.92
275.371	-4.11
275.585	-3.4
275.8	-3.06
276.015	-1.67
276.229	-2.24
276.444	-1.18
276.659	-0.59
276.873	3
277.088	0.45
277.302	2.6
277.517	2.32
277.732	5.05
277.946	4.2
278.161	3.39
278.375	2.95
278.59	2.51
278.804	2.86
279.019	0.93
279.233	-0.87
279.448	2.27
279.662	1.17
279.877	-1.16
280.091	-4.09
280.306	-3.32
280.52	-3.91
280.735	-3.53
280.949	-2.28
281.163	-0.74
281.378	1.34
281.592	0.02
281.806	-1
282.021	0.81
282.235	3.4
282.449	4.56
282.664	3.2
282.878	5.66
283.092	6.8
283.307	6.31
283.521	6.09
283.735	6.22
283.949	7.28
284.164	6.64
284.378	5.05
284.592	4.71
284.806	4.43
285.02	5.85
285.234	3.96
285.449	2.99
285.663	3.15
285.877	3.64
286.091	3.35
286.305	3.55
286.519	4.86
286.733	6.52
286.947	7.51
287.161	8.97
287.375	9.61
287.589	11.69
287.803	10.58
288.017	11.39
288.231	9.39
288.445	6.85
288.659	5.75
288.873	4.36
289.087	3.69
289.301	2.55
289.515	2.2
289.729	-0.27
289.943	0.72
290.157	2.34
290.371	1.51
290.584	3.65
290.798	6.28
291.012	7.95
291.226	7.54
291.44	6.39
291.654	6.98
291.867	5.47
292.081	5.72
292.295	4.6
292.509	4.42
292.722	5.29
292.936	3.85
293.15	2.73
293.364	-0.75
293.577	2.27
293.791	1.72
294.005	0.98
294.218	1.52
294.432	2.85
294.645	2.41
294.859	3.13
295.073	3.47
295.286	3.5
295.5	3.84
295.713	7.28
295.927	4.93
296.14	7.36
296.354	6.55
296.568	7.39
296.781	7.89
296.994	9.88
297.208	10.93
297.421	10.35
297.635	9.76
297.848	11.19
298.062	11.08
298.275	12.71
298.489	12.45
298.702	14.74
298.915	16.15
299.129	16.95
299.342	16.61
299.555	14.83
299.769	15.98
299.982	18.81
300.195	18.3
300.409	16.72
300.622	15.35
300.835	13.3
301.048	11.18
301.262	9.01
301.475	7.54
301.688	6.5
301.901	7.43
302.115	7.3
302.328	4.41
302.541	3.94
302.754	1.27
302.967	2.88
303.18	4.77
303.393	3.78
303.607	2.28
303.82	2.22
304.033	3.36
304.246	2.98
304.459	1.84
304.672	2.21
304.885	3.94
305.098	5.11
305.311	2.72
305.524	3.2
305.737	4.36
305.95	3.91
306.163	6.81
306.376	6.38
306.589	9.39
306.802	10.04
307.015	10.91
307.228	7.68
307.44	10.88
307.653	11.87
307.866	10.62
308.079	10.05
308.292	10.73
308.505	8.16
308.718	7.96
308.93	6.87
309.143	5.57
309.356	6.33
309.569	8.5
309.781	7.87
309.994	7.87
310.207	6.89
310.42	8.12
310.632	8.52
310.845	8.1
311.058	7.12
311.27	6.58
311.483	7.03
311.696	6.77
311.908	5.64
312.121	5.74
312.333	7.07
312.546	8.42
312.759	6.97
312.971	8.23
313.184	8.6
313.396	9.06
313.609	9.91
313.821	11.72
314.034	10.6
314.246	12.17
314.459	11.55
314.671	11.71
314.884	12.25
315.096	12.73
315.309	15.19
315.521	15.4
315.733	14.16
315.946	14.2
316.158	14.94
316.371	17.49
316.583	16.88
316.795	16.03
317.008	14.83
317.22	14.61
317.432	14.19
317.644	10.88
317.857	13.34
318.069	15.82
318.281	15.9
318.494	16.77
318.706	15.03
318.918	14.61
319.13	16.87
319.342	17.69
319.555	18.39
319.767	19.81
319.979	19.6
320.191	18.85
320.403	18.23
320.615	18.41
320.827	13.82
321.039	12.42
321.252	13.61
321.464	13.14
321.676	12.45
321.888	11.77
322.1	7.55
322.312	9.22
322.524	8.54
322.736	8.29
322.948	6.67
323.16	10.81
323.372	12.04
323.584	8.99
323.796	11.86
324.007	10.49
324.219	7.85
324.431	9.43
324.643	8.6
324.855	9.52
325.067	10.52
325.279	11.42
325.491	9.51
325.702	11.46
325.914	14.04
326.126	12.32
326.338	13.81
326.55	15.82
326.761	17.17
326.973	16.67
327.185	15.77
327.396	14.74
327.608	14.28
327.82	16.41
328.032	15.15
328.243	15.1
328.455	14.95
328.666	15.65
328.878	16.7
329.09	16.02
329.301	17.3
329.513	17.62
329.725	18.36
329.936	19.18
330.148	18.31
330.359	16.47
330.571	16.5
330.782	15.08
330.994	13.3
331.205	14.07
331.417	14.93
331.628	15.17
331.84	15.71
332.051	17.33
332.262	16.77
332.474	15.76
332.685	18.09
332.897	17.99
333.108	17.82
333.319	18.95
333.531	19.21
333.742	18.99
333.953	20.02
334.165	19.37
334.376	18.17
334.587	19.12
334.799	18.54
335.01	17.6
335.221	15.79
335.432	17.52
335.644	17.79
335.855	16.59
336.066	16.82
336.277	16.58
336.488	17.78
336.7	18.14
336.911	16.88
337.122	19.21
337.333	20.17
337.544	22.23
337.755	21.9
337.966	20.58
338.177	20.11
338.388	20.76
338.599	19.2
338.811	18.68
339.022	18.52
339.233	18.64
339.444	17.63
339.655	17.43
339.866	15.83
340.076	15.15
340.287	17.37
340.498	18.96
340.709	18.86
340.92	20.33
341.131	20.07
341.342	19.83
341.553	18.95
341.764	18.14
341.975	17.76
342.185	19.44
342.396	19.92
342.607	18.65
342.818	17.79
343.029	17.22
343.239	16.52
343.45	15.81
343.661	13.58
343.872	14.91
344.082	17.5
344.293	18.54
344.504	18.57
344.714	19.04
344.925	18.55
345.136	19.92
345.346	19
345.557	18.83
345.768	19.77
345.978	21.94
346.189	22.52
346.399	20.5
346.61	20.37
346.821	20.68
347.031	20.1
347.242	21.24
347.452	19.71
347.663	19.72
347.873	19.67
348.084	18.87
348.294	19.28
348.504	19
348.715	17.67
348.925	18.68
349.136	18.91
349.346	18.52
349.557	18.73
349.767	18.77
349.977	20.19
350.188	21.01
350.398	22.69
350.608	22.04
350.819	21.79
351.029	25.24
351.239	22.77
351.449	22.47
351.66	24.09
351.87	23.67
352.08	25.6
352.29	24.57
352.501	24.6
352.711	23.52
352.921	22.58
353.131	22.15
353.341	19.9
353.552	20.62
353.762	19.89
353.972	18.78
354.182	20.4
354.392	18.44
354.602	19.35
354.812	18.84
355.022	19.09
355.232	19.92
355.442	20.53
355.652	20.64
355.862	21.67
356.072	22.42
356.282	22.96
356.492	22.98
356.702	24.31
356.912	23.98
357.122	23.45
357.332	25.09
357.542	23.94
357.752	25.04
357.962	24.51
358.171	24.56
358.381	24.38
358.591	23.72
358.801	23.13
359.011	22.23
359.221	22.11
359.43	22.83
359.64	20.93
359.85	23.09
360.06	22.58
360.269	24.12
360.479	23.39
360.689	23.59
360.899	24.03
361.108	23.53
361.318	23.13
361.528	22.87
361.737	22.79
361.947	22.71
362.156	21.74
362.366	21.62
362.576	20.76
362.785	20.57
362.995	19.67
363.204	19.14
363.414	18.18
363.623	18.93
363.833	19.04
364.042	17.99
364.252	17.9
364.461	18.76
364.671	18.58
364.88	18.88
365.09	18.12
365.299	17.76
365.509	17.47
365.718	18.26
365.927	17.18
366.137	17.36
366.346	17.94
366.555	18.52
366.765	18.51
366.974	17.76
367.183	17.08
367.393	17.45
367.602	17.84
367.811	17.64
368.021	17.48
368.23	18.14
368.439	18.21
368.648	18.16
368.857	16.69
369.067	15.65
369.276	15.71
369.485	15.93
369.694	15.8
369.903	15.65
370.112	16.18
370.321	16.26
370.531	16.49
370.74	16
370.949	16.55
371.158	16.71
371.367	16.78
371.576	17.02
371.785	17.29
371.994	17.27
372.203	17.33
372.412	16.83
372.621	16.33
372.83	16.68
373.039	17.08
373.248	16.69
373.457	17.47
373.666	17.72
373.874	17.46
374.083	17.32
374.292	17.05
374.501	16.35
374.71	17.01
374.919	17.55
375.128	17.38
375.336	17.57
375.545	17.27
375.754	16.51
375.963	16.55
376.171	16.55
376.38	16.2
376.589	16.46
376.798	16.59
377.006	16.03
377.215	15.75
377.424	15.73
377.632	14.83
377.841	15.01
378.05	15.6
378.258	15.27
378.467	14.49
378.675	14.16
378.884	14.54
379.093	14.94
379.301	15.29
379.51	15.5
379.718	14.05
379.927	14.85
380.135	14.97
380.344	14.74
380.552	15.17
380.761	15.68
380.969	15.9
381.177	15.57
381.386	15.71
381.594	15.25
381.803	14.81
382.011	15.47
382.219	15.16
382.428	14.96
382.636	14.96
382.845	13.9
383.053	13.73
383.261	13.75
383.469	13.88
383.678	13.59
383.886	13.32
384.094	13.6
384.302	13.15
384.511	13.22
384.719	12.89
384.927	12.94
385.135	13
385.343	13.03
385.552	12.86
385.76	12.33
385.968	11.82
386.176	11.55
386.384	11.02
386.592	10.96
386.8	10.49
387.008	10.44
387.216	9.62
387.424	9.61
387.633	9.49
387.841	9.49
388.049	9.77
388.257	9.79
388.465	10.42
388.672	10.58
388.88	10.85
389.088	10.77
389.296	10.72
389.504	10.65
389.712	10.87
389.92	11.32
390.128	11.68
390.336	11.75
390.544	11.8
390.751	11.44
390.959	11.31
391.167	10.88
391.375	11.09
391.583	10.79
391.79	10.75
391.998	10.36
392.206	9.86
392.414	9.58
392.621	9.4
392.829	9.54
393.037	9.48
393.244	9.26
393.452	9.9
393.66	9.57
393.867	9.75
394.075	9.74
394.283	9.73
394.49	9.74
394.698	9.49
394.905	9.17
395.113	9.26
395.32	8.78
395.528	8.91
395.735	8.58
395.943	8.3
396.15	8.4
396.358	9.08
396.565	9.31
396.773	9.29
396.98	9.13
397.188	9.67
397.395	9.22
397.602	10.06
397.81	10.19
398.017	10.12
398.225	10.36
398.432	10.28
398.639	9.75
398.847	9.52
399.054	9.65
399.261	9.82
399.468	9.33
399.676	9.8
399.883	9.55
400.09	9.23
400.297	9.24
400.505	9.12
400.712	9.22
400.919	9.2
401.126	9.18
401.333	9.27
401.54	9.04
401.748	9.11
401.955	8.58
402.162	8.66
402.369	8.9
402.576	8.73
402.783	8.61
402.99	8.6
403.197	8.48
403.404	8.52
403.611	8.26
403.818	8.28
404.025	8.09
404.232	7.9
404.439	7.6
404.646	7.47
404.853	7.55
405.06	8.03
405.267	7.89
405.474	8.17
405.681	8.05
405.887	7.97
406.094	8.21
406.301	8.15
406.508	8.51
406.715	8.4
406.922	8.38
407.128	8.23
407.335	7.85
407.542	7.78
407.749	7.78
407.955	7.8
408.162	7.87
408.369	7.87
408.575	7.98
408.782	7.96
408.989	8.05
409.195	8.05
409.402	8.16
409.609	8.42
409.815	8.68
410.022	8.3
410.228	8.46
410.435	8.42
410.642	8.41
410.848	8.48
411.055	8.42
411.261	8.26
411.468	8.08
411.674	8.08
411.881	7.56
412.087	7.54
412.294	7.61
412.5	7.48
412.706	7.59
412.913	7.38
413.119	7.53
413.326	7.33
413.532	7.35
413.738	7.33
413.945	7.32
414.151	7.79
414.357	7.71
414.564	7.69
414.77	7.76
414.976	7.65
415.182	7.76
415.389	7.62
415.595	7.83
415.801	8.21
416.007	8.74
416.214	8.56
416.42	8.39
416.626	8.25
416.832	8.32
417.038	8.24
417.244	8.13
417.45	8.16
417.657	8.2
417.863	8.44
418.069	8.25
418.275	7.86
418.481	7.95
418.687	7.86
418.893	7.93
419.099	8.03
419.305	8.06
419.511	8.15
419.717	8.14
419.923	8.12
420.129	7.92
420.335	7.93
420.541	8.02
420.746	8.07
420.952	8.16
421.158	8.21
421.364	8.14
421.57	8.06
421.776	8.05
421.982	8.07
422.187	7.9
422.393	7.82
422.599	7.78
422.805	7.76
423.01	7.81
423.216	7.91
423.422	7.91
423.628	7.81
423.833	7.87
424.039	7.96
424.245	8.07
424.45	8.24
424.656	8.32
424.862	8.34
425.067	8.53
425.273	8.32
425.478	8.19
425.684	8.17
425.889	8.25
426.095	8.3
426.301	8.15
426.506	8.08
426.712	8.09
426.917	8.02
427.123	8.11
427.328	7.93
427.533	8.03
427.739	7.94
427.944	7.8
428.15	7.82
428.355	7.69
428.561	7.82
428.766	7.58
428.971	7.39
429.177	7.39
429.382	7.29
429.587	7.18
429.793	7.16
429.998	7.29
430.203	7.44
430.408	7.41
430.614	7.57
430.819	7.32
431.024	7.23
431.229	7.48
431.434	7.61
431.64	7.63
431.845	7.45
432.05	7.57
432.255	7.56
432.46	7.53
432.665	7.51
432.87	7.33
433.076	7.48
433.281	7.63
433.486	7.59
433.691	7.59
433.896	7.6
434.101	7.5
434.306	7.49
434.511	7.37
434.716	7.16
434.921	7.14
435.126	7.42
435.331	7.41
435.535	7.36
435.74	7.33
435.945	7.29
436.15	7.27
436.355	7.53
436.56	7.57
436.765	7.87
436.97	7.95
437.174	7.85
437.379	7.51
437.584	7.56
437.789	7.6
437.993	7.52
438.198	7.47
438.403	7.54
438.608	7.72
438.812	7.64
439.017	7.49
439.222	7.48
439.426	7.48
439.631	7.8
439.836	7.86
440.04	7.85
440.245	7.85
440.45	7.93
440.654	7.98
440.859	7.81
441.063	7.82
441.268	7.82
441.472	7.72
441.677	7.84
441.881	7.56
442.086	7.3
442.29	7.25
442.495	7.25
442.699	6.97
442.904	6.92
443.108	6.87
443.312	6.77
443.517	6.7
443.721	6.8
443.925	6.67
444.13	6.78
444.334	6.89
444.538	6.88
444.743	7.12
444.947	7.39
445.151	7.5
445.356	7.54
445.56	7.6
445.764	7.66
445.968	7.67
446.173	7.8
446.377	7.79
446.581	7.82
446.785	7.98
446.989	7.88
447.193	7.78
447.398	7.65
447.602	7.68
447.806	7.65
448.01	7.51
448.214	7.63
448.418	7.54
448.622	7.63
448.826	7.55
449.03	7.29
449.234	7.08
449.438	7.12
449.642	7.11
449.846	6.87
450.05	6.84
450.254	6.96
450.458	6.7
450.662	6.56
450.866	6.3
451.069	6.47
451.273	6.48
451.477	6.71
451.681	6.63
451.885	6.61
452.089	6.8
452.292	6.82
452.496	6.83
452.7	6.85
452.904	7.11
453.107	7.27
453.311	7.26
453.515	7.44
453.719	7.43
453.922	7.52
454.126	7.53
454.33	7.58
454.533	7.49
454.737	7.47
454.94	7.43
455.144	7.24
455.348	7.14
455.551	7.01
455.755	6.78
455.958	6.57
456.162	6.53
456.365	6.49
456.569	6.35
456.772	6.31
456.976	6.36
457.179	6.55
457.383	6.59
457.586	6.64
457.79	6.56
457.993	6.4
458.196	6.55
458.4	6.65
458.603	6.73
458.807	6.79
459.01	6.84
459.213	6.79
459.417	6.8
459.62	6.81
459.823	6.87
460.026	6.89
460.23	6.93
460.433	6.9
460.636	6.77
460.839	6.64
461.042	6.66
461.246	6.72
461.449	6.64
461.652	6.48
461.855	6.56
462.058	6.62
462.261	6.59
462.464	6.98
462.668	7.1
462.871	7.32
463.074	7.36
463.277	7.12
463.48	7.11
463.683	7.42
463.886	7.55
464.089	7.5
464.292	7.37
464.495	7.52
464.698	7.28
464.901	7.18
465.104	6.95
465.306	6.86
465.509	7.19
465.712	7.18
465.915	7.08
466.118	6.99
466.321	7.02
466.524	6.89
466.726	7
466.929	6.96
467.132	6.9
467.335	6.77
467.538	6.84
467.74	6.86
467.943	6.87
468.146	6.7
468.348	6.69
468.551	6.56
468.754	6.69
468.956	6.48
469.159	6.55
469.362	6.3
469.564	6.43
469.767	6.32
469.969	6.21
470.172	6.22
470.375	6.14
470.577	6.2
470.78	6.36
470.982	6.19
471.185	6.35
471.387	6.39
471.59	6.63
471.792	6.56
471.995	6.57
472.197	6.3
472.399	6.15
472.602	6.43
472.804	6.62
473.007	6.56
473.209	6.66
473.411	6.37
473.614	6.14
473.816	6.15
474.018	6.3
474.22	6.41
474.423	6.51
474.625	6.74
474.827	6.65
475.03	6.48
475.232	6.42
475.434	6.51
475.636	6.78
475.838	7.02
476.04	7.06
476.243	6.91
476.445	6.78
476.647	6.92
476.849	6.76
477.051	6.79
477.253	6.93
477.455	6.95
477.657	6.91
477.859	6.81
478.061	6.74
478.263	6.79
478.465	6.68
478.667	6.82
478.869	6.78
479.071	6.85
479.273	6.76
479.475	6.65
479.677	6.7
479.879	6.72
480.081	6.76
480.283	6.81
480.485	6.65
480.686	6.81
480.888	6.88
481.09	6.77
481.292	6.7
481.494	6.82
481.695	6.89
481.897	6.89
482.099	6.95
482.301	6.98
482.502	7
482.704	7.11
482.906	7.22
483.107	7.26
483.309	7.36
483.511	7.43
483.712	7.36
483.914	7.4
484.115	7.41
484.317	7.47
484.519	7.47
484.72	7.44
484.922	7.36
485.123	7.3
485.325	7.27
485.526	7.26
485.728	7.2
485.929	7.17
486.131	7.1
486.332	7.08
486.534	6.98
486.735	6.96
486.936	7.01
487.138	7.17
487.339	7.25
487.541	7.25
487.742	7.28
487.943	7.29
488.144	7.36
488.346	7.36
488.547	7.37
488.748	7.37
488.95	7.33
489.151	7.36
489.352	7.32
489.553	7.27
489.755	7.26
489.956	7.2
490.157	7.16
490.358	7.21
490.559	7.11
490.76	7.12
490.961	7.08
491.163	7.09
491.364	7.03
491.565	7.09
491.766	7.05
491.967	7.12
492.168	7.15
492.369	7.22
492.57	7.15
492.771	7.3
492.972	7.26
493.173	7.25
493.374	7.32
493.575	7.31
493.776	7.18
493.976	7.19
494.177	7.04
494.378	7.06
494.579	7.06
494.78	7.07
494.981	7
495.182	7.05
495.382	7.21
495.583	7.18
495.784	7.2
495.985	7.32
496.185	7.45
496.386	7.6
496.587	7.52
496.788	7.49
496.988	7.53
497.189	7.5
497.39	7.52
497.59	7.56
497.791	7.76
497.992	7.79
498.192	7.73
498.393	7.73
498.593	7.64
498.794	7.64
498.994	7.62
499.195	7.58
499.395	7.56
499.596	7.53
499.796	7.35
499.997	7.01
500.197	7.13
500.398	7.25
500.598	7.22
500.799	7.11
500.999	7.02
501.199	7.17
501.4	7.18
501.6	7.12
501.801	7.15
502.001	7.28
502.201	7.32
502.402	7.21
502.602	7.07
502.802	7
503.002	7.12
503.203	7.3
503.403	7.29
503.603	7.37
503.803	7.65
504.003	7.65
504.204	7.63
504.404	7.91
504.604	8.1
504.804	8.05
505.004	8.22
505.204	8.41
505.404	8.45
505.604	8.42
505.804	8.46
506.005	8.3
506.205	8.34
506.405	8.46
506.605	8.47
506.805	8.41
507.005	8.44
507.204	8.29
507.404	8.22
507.604	8.05
507.804	8.16
508.004	8.2
508.204	8.34
508.404	8.46
508.604	8.39
508.804	8.36
509.003	8.41
509.203	8.49
509.403	8.63
509.603	8.76
509.803	8.84
510.002	8.71
510.202	8.67
510.402	8.56
510.602	8.47
510.801	8.39
511.001	8.45
511.201	8.43
511.4	8.46
511.6	8.54
511.8	8.48
511.999	8.51
512.199	8.61
512.398	8.7
512.598	8.89
512.797	8.85
512.997	9.08
513.197	9.06
513.396	9.08
513.596	9.09
513.795	8.94
513.994	8.87
514.194	8.88
514.393	9
514.593	9.02
514.792	8.85
514.992	8.98
515.191	8.86
515.39	8.83
515.59	8.76
515.789	8.81
515.988	8.97
516.188	8.97
516.387	8.94
516.586	8.85
516.786	8.77
516.985	8.83
517.184	8.81
517.383	8.84
517.582	8.95
517.782	9.04
517.981	9.03
518.18	9.15
518.379	9.3
518.578	9.52
518.777	9.57
518.976	9.64
519.176	9.75
519.375	9.92
519.574	9.9
519.773	9.96
519.972	10.07
520.171	10.1
520.37	9.95
520.569	9.92
520.768	9.77
520.967	9.78
521.166	9.72
521.365	9.69
521.564	9.58
521.762	9.66
521.961	9.58
522.16	9.46
522.359	9.51
522.558	9.52
522.757	9.6
522.956	9.67
523.154	9.63
523.353	9.78
523.552	10.01
523.751	9.99
523.949	10.13
524.148	10.18
524.347	10.27
524.546	10.36
524.744	10.61
524.943	10.69
525.142	10.87
525.34	10.98
525.539	10.95
525.737	10.86
525.936	10.86
526.135	10.8
526.333	10.85
526.532	10.92
526.73	10.93
526.929	10.91
527.127	10.95
527.326	10.97
527.524	11.02
527.723	11.14
527.921	11.19
528.12	11.37
528.318	11.39
528.516	11.48
528.715	11.52
528.913	11.53
529.112	11.53
529.31	11.54
529.508	11.52
529.707	11.51
529.905	11.51
530.103	11.58
530.301	11.61
530.5	11.65
530.698	11.62
530.896	11.55
531.094	11.62
531.293	11.64
531.491	11.65
531.689	11.65
531.887	11.71
532.085	11.74
532.283	11.67
532.481	11.67
532.68	11.78
532.878	11.85
533.076	12
533.274	12.01
533.472	12.01
533.67	12.03
533.868	12.04
534.066	12.1
534.264	12.12
534.462	12.14
534.66	12.07
534.858	12.01
535.056	11.98
535.253	12.04
535.451	12.05
535.649	12.11
535.847	12.17
536.045	12.37
536.243	12.42
536.441	12.37
536.638	12.37
536.836	12.42
537.034	12.41
537.232	12.43
537.43	12.41
537.627	12.43
537.825	12.35
538.023	12.43
538.22	12.47
538.418	12.38
538.616	12.6
538.813	12.6
539.011	12.68
539.209	12.87
539.406	13.02
539.604	12.86
539.801	12.93
539.999	13.1
540.196	13.15
540.394	13.16
540.591	13.24
540.789	13.23
540.986	13.41
541.184	13.41
541.381	13.47
541.579	13.46
541.776	13.58
541.974	13.67
542.171	13.7
542.368	13.7
542.566	13.73
542.763	13.8
542.96	13.89
543.158	13.8
543.355	13.83
543.552	13.76
543.75	13.83
543.947	13.85
544.144	13.75
544.341	13.78
544.539	13.89
544.736	13.95
544.933	14.01
545.13	14.01
545.327	14.09
545.524	14.24
545.722	14.32
545.919	14.32
546.116	14.36
546.313	14.46
546.51	14.53
546.707	14.43
546.904	14.39
547.101	14.38
547.298	14.32
547.495	14.43
547.692	14.44
547.889	14.49
548.086	14.53
548.283	14.62
548.48	14.75
548.677	14.77
548.874	14.87
549.07	14.95
549.267	15.05
549.464	15.1
549.661	15.04
549.858	15.02
550.055	15.04
550.251	15.28
550.448	15.18
550.645	15.15
550.842	15.41
551.038	15.5
551.235	15.56
551.432	15.48
551.628	15.65
551.825	15.81
552.022	15.91
552.218	15.97
552.415	15.9
552.612	16.08
552.808	16.23
553.005	16.07
553.201	16.13
553.398	16.16
553.594	16.22
553.791	16.29
553.987	16.56
554.184	16.61
554.38	16.59
554.577	16.73
554.773	16.71
554.97	16.75
555.166	16.85
555.362	16.77
555.559	16.88
555.755	17.03
555.952	17.11
556.148	16.85
556.344	16.97
556.541	16.99
556.737	16.94
556.933	16.89
557.129	17.06
557.326	17.22
557.522	17.23
557.718	17.29
557.914	17.31
558.11	17.36
558.307	17.57
558.503	17.44
558.699	17.58
558.895	17.59
559.091	17.85
559.287	17.81
559.483	17.68
559.679	17.93
559.876	18.12
560.072	18.04
560.268	18.02
560.464	18.15
560.66	18.36
560.856	18.57
561.052	18.8
561.247	18.71
561.443	18.94
561.639	19.23
561.835	19.36
562.031	19.23
562.227	19.43
562.423	19.52
562.619	19.52
562.815	19.47
563.01	19.48
563.206	19.44
563.402	19.49
563.598	19.25
563.793	19.07
563.989	19.1
564.185	19.32
564.381	19.48
564.576	19.71
564.772	19.66
564.968	19.75
565.163	19.88
565.359	19.87
565.555	20.25
565.75	20.37
565.946	20.7
566.141	20.69
566.337	20.71
566.532	20.61
566.728	20.57
566.923	20.76
567.119	20.97
567.314	21.09
567.51	21.28
567.705	21.12
567.901	21.11
568.096	20.92
568.292	20.99
568.487	21.2
568.682	21.36
568.878	21.55
569.073	21.49
569.268	21.5
569.464	21.52
569.659	21.59
569.854	21.67
570.05	21.77
570.245	22.03
570.44	21.96
570.635	22.03
570.831	22.23
571.026	22.13
571.221	21.96
571.416	22.04
571.611	21.82
571.806	21.86
572.002	21.84
572.197	21.96
572.392	21.81
572.587	21.9
572.782	21.93
572.977	21.77
573.172	21.86
573.367	22.13
573.562	22.1
573.757	22.28
573.952	22.35
574.147	22.55
574.342	22.7
574.537	22.81
574.732	22.87
574.927	22.69
575.121	22.78
575.316	22.73
575.511	22.99
575.706	23.13
575.901	23.16
576.096	23.19
576.29	23.29
576.485	23.32
576.68	23.43
576.875	23.52
577.069	23.75
577.264	23.87
577.459	23.8
577.654	23.39
577.848	23.21
578.043	23.22
578.238	23.24
578.432	22.98
578.627	22.8
578.821	22.83
579.016	22.96
579.21	22.77
579.405	22.82
579.6	23.03
579.794	23.36
579.989	23.8
580.183	23.81
580.378	23.72
580.572	23.87
580.766	23.73
580.961	23.73
581.155	23.68
581.35	23.59
581.544	23.47
581.738	23.54
581.933	23.29
582.127	22.82
582.321	22.79
582.516	22.79
582.71	22.98
582.904	23.29
583.099	23.44
583.293	23.36
583.487	23.51
583.681	23.6
583.875	23.75
584.07	23.98
584.264	24.46
584.458	24.76
584.652	25.02
584.846	24.98
585.04	24.85
585.234	24.75
585.428	24.8
585.623	24.91
585.817	25.01
586.011	25.1
586.205	25.16
586.399	25.01
586.593	24.98
586.787	24.95
586.981	24.96
587.174	24.96
587.368	25
587.562	25.09
587.756	25.23
587.95	25.39
588.144	24.92
588.338	24.71
588.532	24.62
588.725	24.58
588.919	24.66
589.113	24.7
589.307	24.86
589.501	24.67
589.694	24.83
589.888	24.78
590.082	24.64
590.275	24.91
590.469	25.27
590.663	25.04
590.856	25.05
591.05	24.89
591.244	24.83
591.437	24.71
591.631	24.8
591.824	24.84
592.018	24.81
592.212	24.95
592.405	24.82
592.599	24.97
592.792	25.29
592.986	25.23
593.179	25.39
593.372	25.31
593.566	25.11
593.759	25.09
593.953	25.13
594.146	25.22
594.339	24.98
594.533	25.13
594.726	24.96
594.92	25.02
595.113	25.2
595.306	25.11
595.499	25.32
595.693	25.62
595.886	25.6
596.079	25.68
596.272	25.62
596.466	25.61
596.659	25.71
596.852	25.79
597.045	25.8
597.238	25.92
597.431	25.91
597.624	25.89
597.818	25.85
598.011	26.05
598.204	25.59
598.397	25.59
598.59	25.7
598.783	25.68
598.976	25.65
599.169	25.58
599.362	25.53
599.555	25.46
599.748	25.4
599.941	25.44
600.134	25.66
600.326	26.02
600.519	26
600.712	25.96
600.905	25.59
601.098	25.3
601.291	25.21
601.483	25.19
601.676	25.33
601.869	25.28
602.062	25.49
602.255	25.12
602.447	25.07
602.64	25.1
602.833	25.5
603.025	25.81
603.218	26.1
603.411	26.29
603.603	26.24
603.796	26.34
603.989	26.58
604.181	26.5
604.374	26.7
604.566	26.92
604.759	27.19
604.951	27.04
605.144	27.11
605.336	27.09
605.529	27.11
605.721	27.16
605.914	27.02
606.106	26.99
606.299	27.15
606.491	26.94
606.683	26.97
606.876	26.89
607.068	26.73
607.26	26.6
607.453	26.38
607.645	26.33
607.837	26.42
608.03	26.64
608.222	26.76
608.414	26.53
608.606	26.83
608.799	26.93
608.991	27
609.183	27.05
609.375	27.12
609.567	27.23
609.759	27.14
609.952	27.11
610.144	27.01
610.336	26.96
610.528	27.08
610.72	27.03
610.912	26.78
611.104	26.72
611.296	26.82
611.488	26.75
611.68	26.75
611.872	26.87
612.064	26.59
612.256	26.48
612.448	26.41
612.64	26.47
612.832	26.15
613.023	26.14
613.215	26.07
613.407	26.04
613.599	26.19
613.791	26.26
613.983	26.12
614.174	26.25
614.366	26.65
614.558	26.5
614.75	26.51
614.941	26.66
615.133	26.8
615.325	26.65
615.516	26.6
615.708	26.62
615.9	26.56
616.091	26.59
616.283	26.79
616.475	26.69
616.666	26.9
616.858	26.73
617.049	27.12
617.241	26.67
617.432	26.54
617.624	26.39
617.815	26.31
618.007	26.38
618.198	26.28
618.39	26.47
618.581	26.2
618.773	26.06
618.964	26.35
619.155	26.05
619.347	26.52
619.538	26.62
619.729	26.86
619.921	26.83
620.112	27.02
620.303	27.11
620.494	26.81
620.686	26.83
620.877	27.07
621.068	27.06
621.259	27.22
621.451	27.22
621.642	27.32
621.833	27.22
622.024	27.36
622.215	27.31
622.406	27.35
622.597	27.58
622.788	27.92
622.98	27.3
623.171	26.9
623.362	27
623.553	26.91
623.744	26.87
623.935	26.88
624.126	26.86
624.317	26.69
624.508	26.77
624.698	26.57
624.889	26.25
625.08	26.92
625.271	27.15
625.462	27.12
625.653	26.91
625.844	27.22
626.034	27.38
626.225	27.59
626.416	27.75
626.607	27.73
626.798	27.79
626.988	27.8
627.179	27.47
627.37	27.38
627.56	27.55
627.751	27.95
627.942	27.95
628.132	27.85
628.323	27.87
628.514	27.92
628.704	28.11
628.895	28.24
629.085	28.08
629.276	28.41
629.466	28.5
629.657	28.18
629.847	27.81
630.038	27.62
630.228	27.71
630.419	27.55
630.609	27.61
630.8	27.56
630.99	27.26
631.181	27.74
631.371	27.44
631.561	27.69
631.752	27.9
631.942	28.14
632.132	28.24
632.323	28.11
632.513	27.98
632.703	27.84
632.893	27.87
633.084	28.35
633.274	28.21
633.464	28.15
633.654	28.05
633.844	27.89
634.034	27.84
634.225	28.12
634.415	28.21
634.605	28.25
634.795	28.2
634.985	28.12
635.175	28.11
635.365	28.26
635.555	28.62
635.745	28.43
635.935	28.35
636.125	28.18
636.315	27.58
636.505	27.73
636.695	28.08
636.885	28.1
637.075	28.12
637.265	27.52
637.455	27.67
637.644	27.45
637.834	27.48
638.024	27.63
638.214	27.76
638.404	28.19
638.593	27.99
638.783	27.65
638.973	27.55
639.163	27.93
639.352	28.36
639.542	28.13
639.732	28.41
639.921	28.51
640.111	28.91
640.301	28.86
640.49	28.24
640.68	27.91
640.87	27.87
641.059	28.05
641.249	27.72
641.438	27.77
641.628	27.78
641.817	27.64
642.007	27.72
642.196	26.97
642.386	26.8
642.575	27.38
642.764	27.57
642.954	27.32
643.143	27.25
643.333	27.45
643.522	27.4
643.711	27.1
643.901	26.84
644.09	27.16
644.279	27.49
644.469	27.79
644.658	27.6
644.847	27.86
645.036	28.14
645.226	27.97
645.415	27.72
645.604	27.47
645.793	27.79
645.982	27.97
646.171	27.83
646.361	27.78
646.55	28.15
646.739	28.04
646.928	28.21
647.117	28.17
647.306	28.62
647.495	28.31
647.684	28.35
647.873	28.27
648.062	28.32
648.251	27.88
648.44	28.08
648.629	27.72
648.818	27.67
649.007	27.63
649.196	27.76
649.384	27.53
649.573	27.81
649.762	28.21
649.951	28.44
650.14	28.21
650.328	28.48
650.517	28.65
650.706	28.27
650.895	27.9
651.083	27.56
651.272	27.55
651.461	27.23
651.65	27.13
651.838	26.26
652.027	25.96
652.216	26.15
652.404	25.84
652.593	25.63
652.781	25.56
652.97	26.27
653.158	26.13
653.347	25.84
653.535	25.98
653.724	26.27
653.912	26.53
654.101	26.34
654.289	25.7
654.478	26.18
654.666	26.2
654.855	26.67
655.043	26.38
655.231	26.42
655.42	26.72
655.608	26.96
655.796	26.9
655.985	27.43
656.173	27.94
656.361	28.7
656.55	28.09
656.738	27.95
656.926	28.05
657.114	28.19
657.302	28.42
657.491	28.18
657.679	28.16
657.867	28.44
658.055	28.23
658.243	28.13
658.431	27.81
658.619	28.12
658.807	28.22
658.996	28.09
659.184	27.97
659.372	27.96
659.56	28.14
659.748	27.95
659.936	27.48
660.124	27.65
660.311	27.67
660.499	27.59
660.687	27.8
660.875	27.6
661.063	27.07
661.251	27.26
661.439	27.31
661.627	27.45
661.814	27.4
662.002	27.67
662.19	28.19
662.378	28.45
662.565	29.02
662.753	28.64
662.941	28.48
663.129	29.19
663.316	29.14
663.504	29.36
663.692	29.07
663.879	29.38
664.067	29.09
664.254	28.69
664.442	27.99
664.63	27.82
664.817	27.85
665.005	28.36
665.192	28.33
665.38	28.16
665.567	27.66
665.755	27.85
665.942	27.79
666.13	27.57
666.317	27.03
666.504	27.4
666.692	26.97
666.879	27.11
667.067	27.09
667.254	27.16
667.441	27.68
667.629	28.03
667.816	28.32
668.003	28.27
668.19	29.19
668.378	29.31
668.565	28.81
668.752	29.23
668.939	29.3
669.127	28.91
669.314	29.17
669.501	28.66
669.688	28.95
669.875	28.88
670.062	29
670.249	28.64
670.436	28.63
670.623	28.71
670.81	28.86
670.997	28.55
671.184	28.87
671.371	28.46
671.558	28.18
671.745	27.54
671.932	27.16
672.119	26.83
672.306	26.8
672.493	26.47
672.68	27.13
672.867	26.28
673.054	26.58
673.24	26.37
673.427	26.06
673.614	27.01
673.801	27.32
673.988	26.97
674.174	27.52
674.361	27.11
674.548	27.92
674.734	27.79
674.921	28.96
675.108	28.82
675.294	29.41
675.481	29.66
675.668	29.26
675.854	28.74
676.041	28.91
676.227	28.54
676.414	29.04
676.601	28.94
676.787	29.28
676.974	28.48
677.16	28.54
677.347	28.23
677.533	28.08
677.719	27.95
677.906	28.05
678.092	28.39
678.279	28.56
678.465	28.1
678.651	27.71
678.838	27.62
679.024	28
679.21	28.25
679.397	28.66
679.583	28.76
679.769	29.02
679.955	29.48
680.142	29.34
680.328	29.56
680.514	29.9
680.7	29.81
680.886	29.69
681.073	29.21
681.259	28.9
681.445	28.58
681.631	28.87
681.817	28.68
682.003	28.09
682.189	28.13
682.375	27.76
682.561	27.99
682.747	28.2
682.933	27.81
683.119	28.19
683.305	28.57
683.491	28.4
683.677	28.05
683.863	28.11
684.049	28.38
684.235	28.77
684.42	28.42
684.606	27.81
684.792	28.15
684.978	28.1
685.164	28.01
685.349	27.68
685.535	27.98
685.721	28.08
685.907	28.22
686.092	28.91
686.278	28.84
686.464	29.34
686.649	30.34
686.835	30.07
687.021	31.02
687.206	30.77
687.392	30.93
687.577	30.46
687.763	30.61
687.948	30.53
688.134	29.9
688.319	29.87
688.505	29.76
688.69	29.22
688.876	28.7
689.061	28.12
689.247	27.73
689.432	27.75
689.618	27.78
689.803	27.54
689.988	27.56
690.174	27.44
690.359	26.69
690.544	26.68
690.73	26.35
690.915	26.88
691.1	26.47
691.285	27.4
691.471	27.51
691.656	27.16
691.841	27.27
692.026	26.5
692.211	27.02
692.396	27.52
692.582	26.97
692.767	26.87
692.952	27.2
693.137	27.48
693.322	27.02
693.507	27.09
693.692	27.49
693.877	27.3
694.062	27.75
694.247	27.32
694.432	26.72
694.617	27.44
694.802	28.11
694.987	27.6
695.172	27.58
695.357	27.55
695.541	27.04
695.726	27.47
695.911	27.87
696.096	28.23
696.281	28.81
696.466	29.56
696.65	29.7
696.835	28.83
697.02	28.8
697.204	29.14
697.389	29.33
697.574	29.53
697.759	29.34
697.943	29.2
698.128	28.84
698.312	28.29
698.497	27.98
698.682	27.95
698.866	28.86
699.051	29.24
699.235	29.1
699.42	29.18
699.604	28.95
699.789	28.76
699.973	28.8
700.158	28.84
700.342	29.21
700.527	29.12
700.711	28.78
700.895	27.8
701.08	27.44
701.264	27.07
701.448	26.91
701.633	27.13
701.817	26.97
702.001	27.1
702.186	27.53
702.37	27.06
702.554	27.55
702.738	27.7
702.923	28.48
703.107	28.26
703.291	28.19
703.475	28.2
703.659	27.89
703.843	28.52
704.027	28.26
704.212	28.12
704.396	27.85
704.58	27.66
704.764	27.95
704.948	27.67
705.132	28.2
705.316	28.08
705.5	27.7
705.684	27.71
705.868	27.63
706.052	28
706.235	27.59
706.419	28.52
706.603	28.74
706.787	28.55
706.971	28.5
707.155	28.14
707.339	29.27
707.522	28.93
707.706	29.21
707.89	28.63
708.074	27.53
708.257	27.05
708.441	26.22
708.625	26.75
708.808	26.47
708.992	26.45
709.176	25.94
709.359	25.48
709.543	26.21
709.727	26.17
709.91	25.83
710.094	26.43
710.277	26.38
710.461	26.71
710.644	25.78
710.828	25.79
711.011	25.5
711.195	25.75
711.378	25.38
711.562	25.3
711.745	25.6
711.928	25.78
712.112	26.23
712.295	26.98
712.478	26.77
712.662	27.06
712.845	27.47
713.028	27.56
713.212	27.21
713.395	26.98
713.578	26.76
713.761	25.63
713.945	26.06
714.128	26.31
714.311	26.03
714.494	25.69
714.677	25.17
714.86	24.51
715.043	24.9
715.227	25.67
715.41	25.99
715.593	26.22
715.776	27.66
715.959	28.01
716.142	27.43
716.325	27.48
716.508	28.55
716.691	28.5
716.874	28.46
717.057	27.88
717.239	27.47
717.422	26.66
717.605	25.82
717.788	24.68
717.971	24.66
718.154	24.72
718.337	26.15
718.519	24.79
718.702	25.07
718.885	25.75
719.068	26.03
719.25	26.07
719.433	27.3
719.616	28.28
719.798	29.19
719.981	28.75
720.164	28.21
720.346	26.56
720.529	28.14
720.712	27.44
720.894	26.13
721.077	26.24
721.259	26.25
721.442	25.48
721.624	25.07
721.807	24.91
721.989	25.1
722.172	25.05
722.354	24.87
722.537	23.91
722.719	24.85
722.901	26.38
723.084	26.92
723.266	27.3
723.448	27.99
723.631	28.88
723.813	27.35
723.995	27.1
724.178	27.93
724.36	28.15
724.542	27.48
724.724	27.7
724.907	27.47
725.089	28.43
725.271	28.25
725.453	28.07
725.635	26.82
725.817	27.65
725.999	27.17
726.181	26.94
726.364	27.03
726.546	27.42
726.728	26.91
726.91	26.92
727.092	24.09
727.274	24.46
727.456	24.22
727.638	25.01
727.819	24.4
728.001	24.27
728.183	24.87
728.365	24.95
728.547	25.21
728.729	25.36
728.911	25.41
729.093	26.47
729.274	25.9
729.456	26.92
729.638	26.97
729.82	27.9
730.001	28.57
730.183	27.39
730.365	27.49
730.546	26.79
730.728	26.32
730.91	25.91
731.091	25.53
731.273	26.04
731.455	25.87
731.636	26.38
731.818	26.08
731.999	25.86
732.181	25.71
732.362	26.33
732.544	27.84
732.725	28.72
732.907	29.47
733.088	30.48
733.27	29.94
733.451	28.99
733.633	28.33
733.814	27.81
733.995	27.64
734.177	28.5
734.358	27.6
734.539	26.9
734.721	26.33
734.902	25.44
735.083	24.42
735.264	24.43
735.446	24.59
735.627	24.7
735.808	24.71
735.989	25.03
736.17	25.76
736.351	25.37
736.533	24.14
736.714	24.84
736.895	25.3
737.076	26.65
737.257	25.33
737.438	25.31
737.619	24.72
737.8	26.33
737.981	26.47
738.162	24.85
738.343	25.85
738.524	26.26
738.705	26.2
738.886	25.1
739.067	24.15
739.247	25.2
739.428	25.11
739.609	25.89
739.79	26.38
739.971	26.53
740.151	26.88
740.332	25.99
740.513	27.04
740.694	26.4
740.874	26.86
741.055	26.67
741.236	27.65
741.417	28.1
741.597	27.52
741.778	25.97
741.958	25.32
742.139	26.5
742.32	26.98
742.5	26.85
742.681	26.41
742.861	25.79
743.042	25.45
743.222	24.19
743.403	23.58
743.583	24.26
743.764	25.09
743.944	25.34
744.124	23.59
744.305	22.52
744.485	23.38
744.666	24.02
744.846	25.83
745.026	26.25
745.207	26.16
745.387	26.48
745.567	25.89
745.747	24.81
745.928	24.01
746.108	24.98
746.288	26.06
746.468	24.87
746.648	25.24
746.829	24.15
747.009	22.78
747.189	23.59
747.369	23.8
747.549	24.99
747.729	24.6
747.909	25.31
748.089	24.67
748.269	22.99
748.449	22.47
748.629	22.21
748.809	21.93
748.989	23.84
749.169	25.01
749.349	24.92
749.529	23.9
749.709	24.63
749.889	25.39
750.068	24.75
750.248	24.91
750.428	24.22
750.608	24.65
750.788	25.93
750.967	26.24
751.147	25.61
751.327	25.06
751.507	24.92
751.686	25.55
751.866	25.63
752.046	26.46
752.225	28.63
752.405	29.83
752.585	29.46
752.764	29.55
752.944	27.1
753.123	26.49
753.303	26.77
753.482	26.69
753.662	26.45
753.841	25.33
754.021	25.63
754.2	24.51
754.38	24.3
754.559	23.76
754.739	22.58
754.918	23.87
755.097	22.94
755.277	22.3
755.456	22.16
755.635	20.79
755.815	20.83
755.994	21.84
756.173	21.76
756.352	22.8
756.532	22.28
756.711	23.87
756.89	24.86
757.069	25.76
757.248	26.79
757.427	26.97
757.607	27.52
757.786	29.62
757.965	29.66
758.144	30.2
758.323	29.37
758.502	30.07
758.681	28.17
758.86	28.06
759.039	28.25
759.218	27.97
759.397	27.17
759.576	27.86
759.755	26.28
759.934	25.4
760.113	24.71
760.291	25.15
760.47	26.89
760.649	27.76
760.828	27.56
761.007	27.47
761.186	27.78
761.364	28.29
761.543	28
761.722	28.5
761.901	29.14
762.079	28.48
762.258	27.76
762.437	27.16
762.615	27.22
762.794	26.34
762.972	26.12
763.151	26.24
763.33	26.11
763.508	26.31
763.687	26.09
763.865	25.73
764.044	26.5
764.222	26.86
764.401	26.19
764.579	26.62
764.758	26.74
764.936	27.76
765.114	27.32
765.293	27.26
765.471	27
765.65	26.19
765.828	25.86
766.006	25.71
766.184	25.63
766.363	25.5
766.541	24.92
766.719	25.43
766.898	23.77
767.076	23.02
767.254	23
767.432	22.49
767.61	22.72
767.788	22.65
767.967	22.81
768.145	21.85
768.323	21.8
768.501	22.75
768.679	22.3
768.857	21.71
769.035	21.73
769.213	22.61
769.391	21.97
769.569	22.21
769.747	21.64
769.925	20.35
770.103	19.94
770.281	19.73
770.459	16.71
770.636	17.49
770.814	18.67
770.992	19.84
771.17	20.4
771.348	20.91
771.525	19.62
771.703	21.07
771.881	22.78
772.059	22.72
772.236	24.19
772.414	23.83
772.592	23.86
772.769	23.78
772.947	24.26
773.125	25.53
773.302	23.65
773.48	25.02
773.657	27.58
773.835	27.34
774.013	26.83
774.19	26.06
774.368	29.38
774.545	28.98
774.723	30.33
774.9	30.92
775.077	28.81
775.255	31.83
775.432	34.34
775.61	28.53
775.787	26.64
775.964	29.02
776.142	27.49
776.319	23.8
776.496	23.94
776.674	22.85
776.851	21.48
777.028	23.14
777.205	20.73
777.382	16.91
777.56	18.31
777.737	19.02
777.914	18.21
778.091	20.42
778.268	20.51
778.445	19.12
778.622	19.15
778.8	17.42
778.977	14.91
779.154	14.96
779.331	15.44
779.508	16.37
779.685	16.66
779.862	15.71
780.038	13.83
780.215	14
780.392	15.74
780.569	12.6
780.746	15.22
780.923	13.41
781.1	13.61
781.277	12.24
781.453	10.77
781.63	10.85
781.807	12.35
781.984	13.91
782.16	16.36
782.337	16.38
782.514	16.26
782.691	15.21
782.867	17.06
783.044	20.79
783.221	23.12
783.397	25
783.574	25.31
783.75	23.01
783.927	21.54
784.103	21.87
784.28	21.31
784.456	23.89
784.633	28.21
784.809	24.76
784.986	20.43
785.162	17.77
785.339	16.47
785.515	15.22
785.692	17.45
785.868	15.34
786.044	15.41
786.221	13.15
786.397	10.88
786.573	7.97
786.749	13.04
786.926	11.83
787.102	15.28
787.278	15.69
787.454	16.95
787.631	15.95
787.807	19.7
787.983	14.91
788.159	16.35
788.335	20.45
788.511	19.97
788.687	20.69
788.863	23.59
789.039	21.09
789.216	18.15
789.392	19.16
789.568	19.7
789.744	20.88
789.919	24.97
790.095	24.59
790.271	19.89
790.447	20.65
790.623	19.78
790.799	17.11
790.975	18.63
791.151	22.7
791.327	23.28
791.502	23.16
791.678	16.68
791.854	13.93
792.03	12.96
792.205	17.75
792.381	16.02
792.557	11.48
792.733	10.64
792.908	12.56
793.084	10.21
793.259	5.96
793.435	5.89
793.611	11.92
793.786	13.81
793.962	17.36
794.137	18.59
794.313	18.11
794.488	22.08
794.664	26.41
794.839	25.4
795.015	20.53
795.19	25.38
795.366	28.83
795.541	23.36
795.716	21.55
795.892	18.07
796.067	13.16
796.242	15.99
796.418	15.44
796.593	13.05
796.768	13.6
796.944	15.48
797.119	14.15
797.294	10.38
797.469	12.7
797.644	13.91
797.82	15.46
797.995	19.63
798.17	17.92
798.345	19.82
798.52	23.74
798.695	22.22
798.87	21.99
799.045	18.49
799.22	18.48
799.395	18.26
799.57	18.8
799.745	19.65
799.92	16.08
800.095	11.88
800.27	11.77
800.445	5.99
800.62	6.83
800.795	6.5
800.97	6.42
801.145	10.49
801.319	7.47
801.494	9.24
801.669	5.94
801.844	8.82
802.018	15.45
802.193	10.48
802.368	11.32
802.543	9.04
802.717	12.08
802.892	14.32
803.067	10.43
803.241	12.62
803.416	10.48
803.59	13.94
803.765	16.4
803.94	15.86
804.114	15.65
804.289	22.1
804.463	23.89
804.638	24.67
804.812	21.16
804.986	24.07
805.161	19.36
805.335	21.82
805.51	22.9
805.684	21.36
805.858	17.17
806.033	18.95
806.207	13.32
806.381	12.23
806.556	12.43
806.73	15.51
806.904	15.09
807.078	22.23
807.253	18.4
807.427	12.82
807.601	11.49
807.775	16.58
807.949	15.48
808.123	11.86
808.298	10.22
808.472	3.01
808.646	-2.13
808.82	-5.41
808.994	-2.72
809.168	0.06
809.342	2.16
809.516	2.42
809.69	-1.34
809.864	1.52
810.038	7.42
810.212	9.74
810.385	15.5
810.559	21.68
810.733	20.2
810.907	18.4
811.081	16.95
811.255	18.57
811.428	12.24
811.602	9.05
811.776	0.91
811.95	-5.65
812.123	-6.54
812.297	-8.92
812.471	-17.17
812.644	-12.42
812.818	-14.2
812.992	-13.14
813.165	-17.62
813.339	-7.61
813.512	-4.09
813.686	3.27
813.86	5.29
814.033	6.78
814.207	8.29
814.38	14.95
814.554	6.39
814.727	5.53
814.9	0.97
815.074	3.98
815.247	3.66
815.421	4.99
815.594	1.63
815.767	3.82
815.941	0.98
816.114	-1.41
816.287	4.43
816.46	9.22
816.634	5.53
816.807	-0.14
816.98	-6.26
817.153	-5.17
817.327	-12.28
817.5	-9.13
817.673	-8.1
817.846	-6.72
818.019	-10.2
818.192	-17.13
818.365	-17.85
818.538	-12.73
818.711	-4.33
818.884	-0.39
819.057	-7.22
819.23	-4.14
819.403	-2.19
819.576	-4.41
819.749	-4.17
819.922	0.77
820.095	-1.9
820.268	2.52
820.441	3.98
820.614	6.37
820.786	11.04
820.959	14.45
821.132	18.81
821.305	19.52
821.477	21.6
821.65	23.78
821.823	25.86
821.996	27.79
822.168	27.97
822.341	28.11
822.514	28.14
822.686	27.43
822.859	27.23
823.031	26.4
823.204	26.5
823.376	26.58
823.549	26.38
823.722	25.2
823.894	25.18
824.067	24.41
824.239	24.27
824.411	24.16
824.584	24.43
824.756	24.7
824.929	25.57
825.101	25.14
825.273	24.73
825.446	24.55
825.618	25.04
825.79	24
825.963	24.52
826.135	22.39
826.307	23.98
826.479	23.95
826.652	24.12
826.824	23.59
826.996	22.68
827.168	23.44
827.34	22.85
827.512	20.48
827.684	20.11
827.856	19.7
828.029	21.53
828.201	18.86
828.373	17.81
828.545	16.55
828.717	15.72
828.889	17.79
829.061	16.33
829.232	15.56
829.404	18.18
829.576	19.24
829.748	19.03
829.92	16.94
830.092	18.95
830.264	19.11
830.436	21.65
830.607	18.45
830.779	15.9
830.951	15.98
831.123	18.4
831.294	14.17
831.466	10.23
831.638	12.91
831.809	16.52
831.981	12.19
832.153	10.56
832.324	5.73
832.496	5.97
832.667	3.83
832.839	3.12
833.011	0.24
833.182	1.98
833.354	8.33
833.525	12.21
833.697	11.11
833.868	14.39
834.039	14.99
834.211	14.81
834.382	21.87
834.554	26.4
834.725	27.45
834.896	27.3
835.068	30.72
835.239	29.61
835.41	26.65
835.581	26.73
835.753	27.8
835.924	28.39
836.095	30.04
836.266	26.61
836.438	24.49
836.609	24.97
836.78	22.56
836.951	17.66
837.122	17
837.293	14.74
837.464	14.36
837.635	7.61
837.806	8.67
837.977	5.74
838.148	2.39
838.319	-7.59
838.49	-15.67
838.661	-11.09
838.832	-2.61
839.003	-1.04
839.174	-4.95
839.345	-5.75
839.516	-3.26
839.687	-8.54
839.857	-8.27
840.028	-8.81
840.199	4.47
840.37	7.72
840.54	10.56
840.711	5.28
840.882	2.55
841.053	11.31
841.223	13.88
841.394	15.6
841.564	10.33
841.735	9.97
841.906	16.71
842.076	11.58
842.247	14.61
842.417	28.96
842.588	22.73
842.758	16.13
842.929	15.6
843.099	13.89
843.27	8.25
843.44	18.47
843.611	16.53
843.781	1
843.951	-5.19
844.122	-19.73
844.292	-33.21
844.462	-28.13
844.633	-24.37
844.803	-37.48
844.973	-57.09
845.144	-75.89
845.314	-102.28
845.484	-113.86
845.654	-76.08
845.824	-41.17
845.995	-28.08
846.165	-36.7
846.335	-23.55
846.505	-22.43
846.675	-33.08
846.845	-30.05
847.015	-9.88
847.185	8
847.355	17.39
847.525	1.06
847.695	-19.79
847.865	-36.29
848.035	-64.94
848.205	-122.83
848.375	-78.95
848.545	-94.44
848.715	-181.41
848.884	-405.61
849.054	-190.06
849.224	-264.68
849.394	-186.63
849.564	-242.11
849.733	-239.1
849.903	-139.52
850.073	-143.07
850.243	-200.46
850.412	-52.79
850.582	-28.45
850.752	-11.9
850.921	4.85
851.091	29.72
851.26	43.88
851.43	99.22
851.599	73.77
851.769	65.36
851.939	66.13
852.108	45.9
852.278	47.45
852.447	41.5
852.616	69.77
852.786	23.82
852.955	26.35
853.125	16.56
853.294	-33.13
853.463	-77.09
853.633	-158.3
853.802	151.52
853.971	177.79
854.141	1540.43
854.31	-263.04
854.479	-69.91
854.648	-39.7
854.818	-107.4
854.987	-154.68
855.156	-107.5
855.325	-62.37
855.494	-61.32
855.663	-6.16
855.832	5.55
856.001	9.61
856.171	18.69
856.34	-8.98
856.509	-10.1
856.678	-45.57
856.847	-54.91
857.016	-61.26
857.185	-9.52
857.353	-49.27
857.522	-62.11
857.691	-89.6
857.86	-112.62
858.029	-84.82
858.198	-63.81
858.367	-118.05
858.535	-49.72
858.704	-37.53
858.873	-4.78
859.042	-54.15
859.21	-44.68
859.379	-93.42
859.548	-168.03
859.717	-208.3
859.885	-734.29
860.054	657.05
860.222	779
860.391	-1043.49
860.56	-354.36
860.728	-516.37
860.897	-402.01
861.065	-330.72
861.234	-283.72
861.402	-277.34
861.571	-290.42
861.739	-361.87
861.908	-390.06
862.076	-238.76
862.244	-101.89
862.413	-159.48
862.581	-108.94
862.749	17690
862.918	511.63
863.086	488.82
863.254	-522.58
863.423	1567.05
863.591	-199.02
863.759	-108.02
863.927	-134.23
864.096	-350.26
864.264	-227.32
864.432	-745.07
864.6	-273.79
864.768	-269.7
864.936	-361.12
865.104	-449.61
865.272	-486.24
865.44	1511.55
865.608	326.46
865.776	-4201.59
865.944	387.13
866.112	182.75
866.28	315.01
866.448	264.11
866.616	165.27
866.784	356.95
866.952	-639.52
867.12	-524.24
867.288	-251
867.455	-163.61
867.623	-202.26
867.791	-193.04
867.959	-170.83
868.127	-101.05
868.294	-131.06
868.462	-174.48
868.63	-319.26
868.797	-1859.22
868.965	-513.24
869.133	-738.13
869.3	2756.57
869.468	626.78
869.636	437.63
869.803	280.65
869.971	135.91
870.138	103.53
870.306	118.15
870.473	95.78
870.641	118.17
870.808	141.22
870.975	151.48
871.143	136.47
871.31	101.4
871.478	108.94
871.645	90.37
871.812	107.07
871.98	138
872.147	189.39
872.314	428.98
872.482	177.11
872.649	127.26
872.816	118.5
872.983	115.9
873.15	134.49
873.318	125.99
873.485	174.09
873.652	227.99
873.819	390.22
873.986	295.33
874.153	272.61
874.32	235.5
874.487	214.73
874.654	684.15
874.821	-99.71
874.988	-499.27
875.155	-107.3
875.322	-62.41
875.489	-4.83
875.656	-68.75
875.823	-565.24
875.99	512.79
876.157	-141.32
876.324	-228.01
876.49	-77.38
876.657	10648.84
876.824	270.55
876.991	237.5
877.157	476.63
877.324	419.22
877.491	202.11
877.658	248.14
877.824	336.73
877.991	340.24
878.157	269.41
878.324	184.86
878.491	186.44
878.657	-7.64
878.824	-291.42
878.99	4673.15
879.157	246.67
879.323	-1436.04
879.49	-346.7
879.656	-969.56
879.823	-325.47
879.989	-443.04
880.156	6284.21
880.322	-3944.03
880.488	-1868.13
880.655	-1592.03
880.821	-329.97
880.987	-247.41
881.154	-186.07
881.32	-203.22
881.486	-107.63
881.652	-115.82
881.819	-66.15
881.985	-40.95
882.151	-17.17
882.317	-8.85
882.483	-5.82
882.649	0.79
882.816	-1.31
882.982	9.86
883.148	16.28
883.314	19.49
883.48	17.11
883.646	17.69
883.812	22.03
883.978	21.27
884.144	21.93
884.31	23.56
884.476	21.42
884.642	24.29
884.807	19.42
884.973	17.88
885.139	16.86
885.305	19.6
885.471	19.28
885.637	13.55
885.802	13.8
885.968	13.98
886.134	10.35
886.3	10.96
886.465	0.36
886.631	-2.76
886.797	-9.98
886.962	-12.02
887.128	-40.26
887.293	-32.37
887.459	-18.82
887.625	-41.7
887.79	-74.96
887.956	-100.97
888.121	-105
888.287	-98.44
888.452	-99.97
888.618	-93.65
888.783	-103.23
