Data from 2937840_Reflection_1.txt Node
Date: Wed Jul 15 16:19:47 EDT 2015
User: robert
Spectrometer: USB4E03001
Autoset integration time: false
Trigger mode: 4
Integration Time (sec): 1.000000E-1
Scans to average: 10
Electric dark correction enabled: true
Nonlinearity correction enabled: false
Boxcar width: 5
Stray light correction enabled: false
XAxis mode: Wavelengths
Stop averaging: false
Number of Pixels in Spectrum: 3648
>>>>>Begin Spectral Data<<<<<
177.566	25.55
177.785	-83.12
178.005	197.3
178.225	477.17
178.445	368.24
178.665	520.67
178.885	75.96
179.105	-59.25
179.324	-116.79
179.544	-4860.94
179.764	825.41
179.984	434.29
180.204	211.51
180.423	138.73
180.643	162.14
180.863	336.72
181.083	510.54
181.302	416.22
181.522	382.62
181.742	291.81
181.961	416.91
182.181	21633.33
182.401	452.12
182.621	293.42
182.84	2239.83
183.06	231.01
183.279	73.7
183.499	63.63
183.719	9.6
183.938	39.54
184.158	35.78
184.377	30.28
184.597	20.24
184.816	14.64
185.036	12.93
185.256	14.46
185.475	-28.11
185.695	-42.04
185.914	-60.01
186.134	-21.83
186.353	-2907.59
186.572	-113.34
186.792	50.34
187.011	112.09
187.231	249.54
187.45	129.92
187.67	94.38
187.889	33.92
188.108	50.49
188.328	50.53
188.547	-19
188.766	-19.8
188.986	-73.32
189.205	364.01
189.424	285.49
189.644	409.32
189.863	359.22
190.082	293.74
190.302	169.69
190.521	188.86
190.74	124.06
190.959	99.89
191.178	72.76
191.398	82.9
191.617	1306.06
191.836	-1277.42
192.055	246.13
192.274	643.3
192.494	1014.17
192.713	1879.08
192.932	-92.52
193.151	-23.11
193.37	-122.19
193.589	-7.44
193.808	-1186.34
194.027	-83.76
194.246	-27.19
194.465	21.28
194.685	3942.5
194.904	491.52
195.123	-510.68
195.342	1345.45
195.561	140.08
195.78	129.43
195.999	191.13
196.218	-4663.16
196.436	141.61
196.655	166.33
196.874	483.7
197.093	9596.3
197.312	-263.02
197.531	82.47
197.75	107.17
197.969	127.95
198.188	132.83
198.407	87.61
198.625	60.96
198.844	48.48
199.063	47.5
199.282	67.4
199.501	80.59
199.719	67.25
199.938	73.88
200.157	58.28
200.376	62.31
200.594	108.32
200.813	-343.14
201.032	-101.88
201.251	-206.5
201.469	-412.27
201.688	-210.37
201.907	17.65
202.125	152.09
202.344	-20.17
202.563	-71.96
202.781	-5268
203	86.08
203.218	259.22
203.437	298.92
203.656	211.58
203.874	153.54
204.093	123.8
204.311	82.08
204.53	33.45
204.748	63.65
204.967	-245.81
205.185	73.03
205.404	38.72
205.622	69.19
205.841	90.93
206.059	89.61
206.278	76.63
206.496	79.27
206.715	50.7
206.933	57.85
207.151	67.43
207.37	82.98
207.588	53.41
207.806	60.44
208.025	47.34
208.243	6.86
208.461	0.07
208.68	5.62
208.898	30.95
209.116	33.5
209.335	15.5
209.553	2.93
209.771	-19.62
209.989	-34.94
210.208	-45.25
210.426	-44.74
210.644	-28.7
210.862	-37.73
211.081	-25.09
211.299	-54.47
211.517	-74.29
211.735	-822
211.953	-1182.94
212.171	60.6
212.39	9.33
212.608	697.46
212.826	-628.94
213.044	-8.94
213.262	-1.69
213.48	-180.75
213.698	2175.77
213.916	-219.34
214.134	-41.3
214.352	-76.84
214.57	-334.29
214.788	317.58
215.006	264.37
215.224	-577.85
215.442	-333.7
215.66	111.82
215.878	6.26
216.096	18.1
216.314	-85.45
216.532	-29.56
216.75	-15.75
216.968	1090.99
217.185	124.26
217.403	136.77
217.621	-126.19
217.839	62.49
218.057	57.62
218.275	15.86
218.492	696.49
218.71	278.92
218.928	203.99
219.146	160.64
219.363	139.84
219.581	99.06
219.799	82.54
220.017	91.12
220.234	95.57
220.452	80.25
220.67	51.63
220.887	24.16
221.105	48.55
221.323	41.51
221.54	25.94
221.758	-16.8
221.976	7.63
222.193	-35.84
222.411	40.88
222.629	24.11
222.846	37.3
223.064	82.79
223.281	112.06
223.499	48.22
223.716	47.7
223.934	61.26
224.151	63.76
224.369	99.12
224.586	106.45
224.804	101.59
225.021	93
225.239	73.33
225.456	51.38
225.674	44.38
225.891	59.08
226.108	45.74
226.326	20.27
226.543	28.82
226.76	14.38
226.978	2.63
227.195	5.73
227.413	12.94
227.63	17.84
227.847	23.52
228.064	23.79
228.282	29.04
228.499	27.33
228.716	27.21
228.934	23.96
229.151	26.28
229.368	25.11
229.585	25.32
229.802	27.31
230.02	28.44
230.237	25.94
230.454	24.26
230.671	20.56
230.888	21.37
231.105	21.38
231.323	20.12
231.54	20.45
231.757	23.61
231.974	21.71
232.191	18.21
232.408	15.31
232.625	19.36
232.842	22.21
233.059	23.71
233.276	22.03
233.493	22.74
233.71	33.3
233.927	29.64
234.144	28.8
234.361	25.93
234.578	24.23
234.795	28.31
235.012	27.08
235.229	30.21
235.446	24.04
235.663	22.64
235.879	24.45
236.096	25.96
236.313	25.5
236.53	29.33
236.747	30.23
236.964	34.82
237.181	35.15
237.397	35.8
237.614	32.89
237.831	41.65
238.048	41.07
238.264	43.27
238.481	38.07
238.698	39.36
238.915	33.75
239.131	37.08
239.348	37.58
239.565	37.95
239.781	31.52
239.998	29.55
240.215	26.93
240.431	28.99
240.648	27.72
240.865	27.86
241.081	26.45
241.298	26.25
241.514	25
241.731	23.14
241.947	20.45
242.164	20.49
242.38	18.26
242.597	17.2
242.814	16.87
243.03	18.03
243.246	17.39
243.463	17.05
243.679	16.62
243.896	16.96
244.112	17.87
244.329	17.01
244.545	19.21
244.762	22.44
244.978	22.76
245.194	21.05
245.411	16.51
245.627	18.57
245.843	18.34
246.06	19.55
246.276	19.36
246.492	17.2
246.709	18.06
246.925	17.13
247.141	16.47
247.357	16.8
247.574	16.52
247.79	16.37
248.006	15.32
248.222	15.46
248.439	16.53
248.655	15.58
248.871	16.35
249.087	15.45
249.303	15.52
249.519	14.81
249.736	14.39
249.952	14.79
250.168	16.28
250.384	15.67
250.6	16.74
250.816	12.99
251.032	12.69
251.248	13.08
251.464	14.7
251.68	14.97
251.896	14.16
252.112	12.93
252.328	13.12
252.544	13.92
252.76	14.43
252.976	14.8
253.192	14.87
253.408	14.85
253.624	14.94
253.84	17.19
254.056	19.56
254.272	19.7
254.487	20.6
254.703	23.39
254.919	24.4
255.135	24.59
255.351	20.81
255.567	19.58
255.782	22.83
255.998	20.46
256.214	17.68
256.43	14.8
256.646	14.65
256.861	15.81
257.077	16.13
257.293	15.45
257.508	15.86
257.724	16.52
257.94	18.84
258.155	18.05
258.371	18.31
258.587	17.14
258.802	16.02
259.018	17.09
259.234	16.7
259.449	15.85
259.665	14.56
259.88	14.73
260.096	14.42
260.312	13.25
260.527	12.46
260.743	13.14
260.958	13.22
261.174	12.93
261.389	12.66
261.605	13.05
261.82	12.11
262.036	14.51
262.251	13.54
262.466	15.43
262.682	16.05
262.897	16.93
263.113	15.29
263.328	16
263.543	17.65
263.759	18.14
263.974	16.38
264.189	17.8
264.405	14.55
264.62	15.7
264.835	14.51
265.051	13.73
265.266	12.02
265.481	12.01
265.696	11.89
265.912	11.26
266.127	9.56
266.342	11.08
266.557	9.15
266.773	9.16
266.988	8.46
267.203	7.41
267.418	7.96
267.633	6.47
267.848	6.16
268.064	5.18
268.279	5.01
268.494	7.28
268.709	5.06
268.924	7.49
269.139	7.34
269.354	9.07
269.569	7.82
269.784	7.88
269.999	10.29
270.214	10.31
270.429	11.95
270.644	10.61
270.859	11.17
271.074	12.13
271.289	11.93
271.504	12.09
271.719	12.16
271.934	12.76
272.149	13.47
272.363	12.87
272.578	12.76
272.793	11.57
273.008	12.75
273.223	12.37
273.438	12.57
273.653	12.34
273.867	12.74
274.082	11.67
274.297	12.28
274.512	11.02
274.726	12.83
274.941	12.4
275.156	12.25
275.371	11.67
275.585	10.25
275.8	10.39
276.015	9.84
276.229	9.97
276.444	8.68
276.659	9.86
276.873	10.92
277.088	9.33
277.302	10.35
277.517	11.2
277.732	11.27
277.946	10.83
278.161	12.31
278.375	13.38
278.59	12.78
278.804	11.89
279.019	8.44
279.233	6.95
279.448	8.16
279.662	9.3
279.877	10.61
280.091	10.33
280.306	11.13
280.52	8.79
280.735	7.99
280.949	7.46
281.163	10.13
281.378	12.78
281.592	13.87
281.806	13.31
282.021	11.98
282.235	11.02
282.449	10.14
282.664	9.56
282.878	8.95
283.092	9.01
283.307	9.65
283.521	9.22
283.735	8.45
283.949	8.3
284.164	9.7
284.378	11.17
284.592	10.46
284.806	11.66
285.02	12.45
285.234	13.35
285.449	14.31
285.663	15.91
285.877	15.27
286.091	14.75
286.305	15.33
286.519	14.8
286.733	15.03
286.947	15.46
287.161	15.06
287.375	14.56
287.589	14.51
287.803	13.08
288.017	11.06
288.231	11.05
288.445	10.53
288.659	9.93
288.873	8.74
289.087	9.2
289.301	9.44
289.515	10.18
289.729	8.38
289.943	9.7
290.157	10.51
290.371	11.54
290.584	12.3
290.798	12.79
291.012	11.72
291.226	12.62
291.44	11.14
291.654	12.15
291.867	12.23
292.081	14.49
292.295	15.26
292.509	15.93
292.722	15.44
292.936	15.06
293.15	16.07
293.364	17.94
293.577	16.84
293.791	16.89
294.005	15.25
294.218	13.14
294.432	13
294.645	10.42
294.859	9.31
295.073	8.77
295.286	7.94
295.5	6.55
295.713	5.43
295.927	5.2
296.14	5.44
296.354	6.92
296.568	8.92
296.781	8.61
296.994	9.81
297.208	11.42
297.421	11.39
297.635	12.74
297.848	13.45
298.062	14.16
298.275	15.65
298.489	15.27
298.702	14.38
298.915	13.9
299.129	15.46
299.342	15.01
299.555	13.37
299.769	13.25
299.982	12.77
300.195	13.52
300.409	14.52
300.622	13.12
300.835	14.31
301.048	15.2
301.262	14
301.475	12.03
301.688	11.19
301.901	12.57
302.115	14.15
302.328	13.89
302.541	12.23
302.754	11.96
302.967	14.58
303.18	12.91
303.393	10.99
303.607	11.2
303.82	12.23
304.033	13.57
304.246	13.08
304.459	12.85
304.672	12.29
304.885	13.48
305.098	12
305.311	11.06
305.524	10.81
305.737	12.74
305.95	12.69
306.163	12.59
306.376	12.58
306.589	12.78
306.802	13.01
307.015	14.04
307.228	13.04
307.44	12.75
307.653	11.23
307.866	11.94
308.079	10.76
308.292	12.85
308.505	12.16
308.718	11.76
308.93	11.03
309.143	10.64
309.356	10.73
309.569	10.99
309.781	10.41
309.994	10.97
310.207	10.89
310.42	12.2
310.632	12.63
310.845	14.11
311.058	13.42
311.27	15.17
311.483	16.47
311.696	17.18
311.908	17.14
312.121	18.75
312.333	18.23
312.546	18.7
312.759	17.86
312.971	17.35
313.184	15.24
313.396	16.77
313.609	14.03
313.821	13.1
314.034	11.38
314.246	12.43
314.459	12.08
314.671	13.72
314.884	14.8
315.096	16.44
315.309	16.75
315.521	16.92
315.733	16.02
315.946	17.48
316.158	15.36
316.371	16.66
316.583	16.73
316.795	15.68
317.008	13.68
317.22	13.04
317.432	11.47
317.644	9.98
317.857	10.61
318.069	10.2
318.281	11.32
318.494	13.42
318.706	11.92
318.918	11.76
319.13	10.68
319.342	12.92
319.555	13.84
319.767	13.31
319.979	16.94
320.191	18.97
320.403	18.71
320.615	17.73
320.827	16.06
321.039	17.44
321.252	15.35
321.464	17.35
321.676	15.1
321.888	15.43
322.1	15.16
322.312	12.12
322.524	9.14
322.736	10.41
322.948	7.64
323.16	6.37
323.372	5.43
323.584	6.38
323.796	5.42
324.007	7.46
324.219	5.56
324.431	5.44
324.643	4.81
324.855	5.88
325.067	6.11
325.279	8.52
325.491	10.02
325.702	10.44
325.914	10.77
326.126	11.45
326.338	11.04
326.55	12.67
326.761	14.09
326.973	15.22
327.185	15.15
327.396	15.23
327.608	14.61
327.82	15.73
328.032	15.24
328.243	15.81
328.455	15.67
328.666	15.24
328.878	15.36
329.09	14.78
329.301	15.18
329.513	16.21
329.725	15.78
329.936	16.56
330.148	16.59
330.359	17.79
330.571	18.27
330.782	19.76
330.994	18.6
331.205	16.75
331.417	17.59
331.628	16.1
331.84	15.15
332.051	14.96
332.262	16.08
332.474	15.08
332.685	13.64
332.897	13.07
333.108	13.55
333.319	14.48
333.531	16.17
333.742	16.13
333.953	17.43
334.165	17.58
334.376	19.04
334.587	17.75
334.799	17.67
335.01	19.05
335.221	19.49
335.432	18.36
335.644	19.66
335.855	19
336.066	17.71
336.277	15.96
336.488	16.92
336.7	17.18
336.911	18.22
337.122	17.98
337.333	16.93
337.544	16.62
337.755	16.66
337.966	15.79
338.177	16.82
338.388	17.73
338.599	19.4
338.811	19.77
339.022	18.75
339.233	18.1
339.444	18.52
339.655	19.29
339.866	19.99
340.076	19.56
340.287	20
340.498	19.47
340.709	19.84
340.92	19.69
341.131	17.73
341.342	18.09
341.553	18.09
341.764	19.34
341.975	19.57
342.185	17.65
342.396	18.18
342.607	17.76
342.818	18.11
343.029	18.98
343.239	19.17
343.45	18.78
343.661	17.74
343.872	18.56
344.082	17.42
344.293	17.19
344.504	18.76
344.714	18.89
344.925	19.18
345.136	18.72
345.346	17.9
345.557	17.83
345.768	18.79
345.978	18.68
346.189	17.05
346.399	17.34
346.61	16.88
346.821	16.75
347.031	16.41
347.242	16.64
347.452	16.86
347.663	16.03
347.873	15.93
348.084	16.1
348.294	17.43
348.504	19.1
348.715	18.78
348.925	19.47
349.136	19.57
349.346	18.79
349.557	19.52
349.767	18.39
349.977	18.17
350.188	17.43
350.398	16.67
350.608	16.94
350.819	15.89
351.029	15.67
351.239	15.22
351.449	15.52
351.66	16.17
351.87	15.18
352.08	15.53
352.29	15.37
352.501	16.44
352.711	17.1
352.921	15.56
353.131	16.75
353.341	16.73
353.552	17.25
353.762	16.71
353.972	17.25
354.182	16.97
354.392	18
354.602	18.63
354.812	17.41
355.022	17.2
355.232	17.72
355.442	17.28
355.652	17.55
355.862	18.02
356.072	17.71
356.282	17.05
356.492	18.31
356.702	16.85
356.912	15.68
357.122	16.42
357.332	16.7
357.542	17.15
357.752	15.89
357.962	16.16
358.171	15.93
358.381	15.25
358.591	15.88
358.801	14.51
359.011	16.16
359.221	16.72
359.43	16.14
359.64	16.19
359.85	15.73
360.06	17.07
360.269	17.14
360.479	16.85
360.689	17.27
360.899	16.64
361.108	16.24
361.318	15.67
361.528	16.22
361.737	16.46
361.947	16.21
362.156	16.39
362.366	15.54
362.576	14.99
362.785	14.99
362.995	14.75
363.204	15.03
363.414	16.03
363.623	16.28
363.833	16.21
364.042	16.44
364.252	16.09
364.461	16.03
364.671	16.41
364.88	16.29
365.09	15.83
365.299	16.38
365.509	16.73
365.718	16.92
365.927	15.25
366.137	15.25
366.346	14.35
366.555	14.57
366.765	14.26
366.974	13.74
367.183	13.75
367.393	13.81
367.602	13.23
367.811	12.74
368.021	11.65
368.23	12.32
368.439	11.79
368.648	12.06
368.857	11.65
369.067	11.69
369.276	11.75
369.485	11.86
369.694	11.58
369.903	12.75
370.112	12.99
370.321	13.91
370.531	14.73
370.74	14.62
370.949	15.61
371.158	15.13
371.367	14.78
371.576	15.18
371.785	15.68
371.994	15.32
372.203	14.68
372.412	14.19
372.621	13.34
372.83	12.64
373.039	12.97
373.248	12.07
373.457	12.88
373.666	13.05
373.874	12.85
374.083	12.24
374.292	12.83
374.501	12.14
374.71	12.54
374.919	12.58
375.128	12.53
375.336	12.27
375.545	12.21
375.754	12.56
375.963	12.54
376.171	12.21
376.38	12.63
376.589	12.1
376.798	12.75
377.006	12.27
377.215	12.6
377.424	12.29
377.632	12.4
377.841	12.16
378.05	11.64
378.258	11.56
378.467	12.25
378.675	12.34
378.884	12.7
379.093	12.88
379.301	13.22
379.51	13.03
379.718	12.67
379.927	12.85
380.135	12.86
380.344	12.77
380.552	13.02
380.761	12.23
380.969	11.65
381.177	11.64
381.386	11.46
381.594	11.48
381.803	10.92
382.011	11.18
382.219	10.8
382.428	11.26
382.636	11.47
382.845	11.55
383.053	11.85
383.261	12.24
383.469	12.23
383.678	11.71
383.886	11.45
384.094	12.1
384.302	12.47
384.511	12.25
384.719	11.2
384.927	11.06
385.135	10.55
385.343	10.6
385.552	9.75
385.76	9.34
385.968	9.45
386.176	9.48
386.384	8.84
386.592	8.68
386.8	8.66
387.008	9.67
387.216	9.84
387.424	9.89
387.633	9.21
387.841	9.87
388.049	10.17
388.257	9.63
388.465	9.7
388.672	9.92
388.88	9.94
389.088	9.98
389.296	9.87
389.504	9.32
389.712	9.33
389.92	9.77
390.128	9.66
390.336	9.49
390.544	9.54
390.751	9.23
390.959	9.33
391.167	9.27
391.375	9.26
391.583	8.74
391.79	8.96
391.998	9.11
392.206	9.06
392.414	8.82
392.621	8.6
392.829	9.18
393.037	9.02
393.244	9.09
393.452	8.77
393.66	8.56
393.867	8.81
394.075	8.5
394.283	8.37
394.49	8.37
394.698	8.14
394.905	8.44
395.113	8.09
395.32	8.38
395.528	8.01
395.735	8.2
395.943	8.28
396.15	8.16
396.358	8.02
396.565	7.9
396.773	7.93
396.98	8.02
397.188	7.81
397.395	7.56
397.602	7.34
397.81	7.36
398.017	7.56
398.225	7.32
398.432	7.52
398.639	8.09
398.847	8.34
399.054	8.09
399.261	8.07
399.468	7.84
399.676	7.86
399.883	7.68
400.09	7.79
400.297	7.66
400.505	7.87
400.712	7.93
400.919	8.16
401.126	8.17
401.333	8.38
401.54	8.66
401.748	8.92
401.955	8.94
402.162	9.13
402.369	9.02
402.576	8.87
402.783	8.73
402.99	8.75
403.197	7.99
403.404	7.36
403.611	7.27
403.818	7.11
404.025	7.05
404.232	7.47
404.439	7.59
404.646	7.3
404.853	7.32
405.06	7.68
405.267	7.43
405.474	7.56
405.681	8.05
405.887	7.91
406.094	7.96
406.301	7.82
406.508	7.77
406.715	7.38
406.922	7.94
407.128	7.81
407.335	7.8
407.542	7.94
407.749	8.03
407.955	7.76
408.162	7.93
408.369	7.95
408.575	8.09
408.782	7.73
408.989	8.18
409.195	7.82
409.402	8.05
409.609	7.64
409.815	7.35
410.022	7.63
410.228	7.69
410.435	7.82
410.642	7.68
410.848	7.81
411.055	7.48
411.261	7.26
411.468	7.25
411.674	6.89
411.881	7.04
412.087	7.36
412.294	7.3
412.5	7.2
412.706	7.24
412.913	7.42
413.119	7.13
413.326	7.14
413.532	7.15
413.738	7.14
413.945	7.14
414.151	7.13
414.357	7.09
414.564	6.64
414.77	6.74
414.976	6.49
415.182	6.27
415.389	6.47
415.595	6.74
415.801	6.77
416.007	6.87
416.214	7
416.42	6.7
416.626	6.56
416.832	6.57
417.038	6.6
417.244	6.62
417.45	6.78
417.657	6.75
417.863	6.76
418.069	6.76
418.275	6.69
418.481	6.55
418.687	6.73
418.893	6.48
419.099	6.71
419.305	6.69
419.511	6.72
419.717	6.76
419.923	6.68
420.129	6.55
420.335	6.44
420.541	6.51
420.746	6.51
420.952	6.62
421.158	6.95
421.364	6.76
421.57	6.71
421.776	6.7
421.982	6.71
422.187	6.68
422.393	6.83
422.599	6.88
422.805	6.81
423.01	7.01
423.216	6.75
423.422	6.53
423.628	6.68
423.833	6.79
424.039	6.76
424.245	6.77
424.45	6.87
424.656	6.83
424.862	6.78
425.067	6.76
425.273	6.61
425.478	6.71
425.684	6.73
425.889	6.57
426.095	6.5
426.301	6.51
426.506	6.46
426.712	6.44
426.917	6.3
427.123	6.35
427.328	6.33
427.533	6.44
427.739	6.49
427.944	6.55
428.15	6.71
428.355	6.84
428.561	6.77
428.766	6.64
428.971	6.74
429.177	6.89
429.382	7.17
429.587	7.33
429.793	7.19
429.998	7.38
430.203	7.26
430.408	7.09
430.614	6.65
430.819	6.64
431.024	6.7
431.229	6.47
431.434	6.45
431.64	6.14
431.845	6.22
432.05	5.95
432.255	5.64
432.46	5.84
432.665	5.91
432.87	6.14
433.076	6.3
433.281	6.37
433.486	6.17
433.691	6.17
433.896	6.06
434.101	5.98
434.306	6.41
434.511	6.55
434.716	6.45
434.921	6.39
435.126	6.4
435.331	6.26
435.535	6.21
435.74	6.37
435.945	6.4
436.15	6.82
436.355	6.68
436.56	6.48
436.765	6.47
436.97	6.42
437.174	6.56
437.379	6.47
437.584	6.4
437.789	6.29
437.993	6.42
438.198	6.27
438.403	5.94
438.608	6.23
438.812	6.17
439.017	6.2
439.222	6.38
439.426	6.25
439.631	6.21
439.836	6.19
440.04	6.31
440.245	6.3
440.45	6.38
440.654	6.46
440.859	6.36
441.063	6.59
441.268	6.53
441.472	6.35
441.677	6.45
441.881	6.56
442.086	6.63
442.29	6.47
442.495	6.32
442.699	6.27
442.904	6.4
443.108	6.23
443.312	6.19
443.517	6.26
443.721	6.31
443.925	6.25
444.13	6.17
444.334	6.18
444.538	6.34
444.743	6.36
444.947	6.29
445.151	6.19
445.356	6.29
445.56	6.14
445.764	6.18
445.968	6.1
446.173	6.14
446.377	6.3
446.581	6.36
446.785	6.36
446.989	6.46
447.193	6.59
447.398	6.45
447.602	6.41
447.806	6.39
448.01	6.27
448.214	6.37
448.418	6.39
448.622	6.28
448.826	6.2
449.03	6.16
449.234	6.06
449.438	6.2
449.642	6.48
449.846	6.53
450.05	6.47
450.254	6.57
450.458	6.52
450.662	6.47
450.866	6.57
451.069	6.55
451.273	6.53
451.477	6.64
451.681	6.5
451.885	6.31
452.089	6.13
452.292	6.25
452.496	6.29
452.7	6.34
452.904	6.24
453.107	5.93
453.311	5.84
453.515	5.77
453.719	5.72
453.922	5.65
454.126	5.56
454.33	5.6
454.533	5.63
454.737	5.53
454.94	5.35
455.144	5.54
455.348	5.75
455.551	5.71
455.755	5.64
455.958	5.74
456.162	5.55
456.365	5.55
456.569	5.52
456.772	5.47
456.976	5.6
457.179	5.74
457.383	5.64
457.586	5.47
457.79	5.51
457.993	5.66
458.196	5.46
458.4	5.65
458.603	5.82
458.807	6.01
459.01	6
459.213	5.85
459.417	6.02
459.62	6.05
459.823	6.16
460.026	6.24
460.23	6.16
460.433	6.28
460.636	6.31
460.839	6.22
461.042	6.21
461.246	6.24
461.449	6.4
461.652	6.25
461.855	6.35
462.058	6.37
462.261	6.43
462.464	6.54
462.668	6.58
462.871	6.6
463.074	6.55
463.277	6.5
463.48	6.35
463.683	6.3
463.886	6.17
464.089	6.02
464.292	5.97
464.495	5.99
464.698	5.82
464.901	5.61
465.104	5.7
465.306	5.9
465.509	5.89
465.712	5.79
465.915	5.96
466.118	6.26
466.321	6.18
466.524	6.13
466.726	6.03
466.929	6.16
467.132	6.21
467.335	5.98
467.538	5.91
467.74	5.88
467.943	6.07
468.146	5.89
468.348	5.55
468.551	5.66
468.754	5.78
468.956	5.92
469.159	5.87
469.362	6.12
469.564	6.26
469.767	6.34
469.969	6.3
470.172	6.31
470.375	6.28
470.577	6.41
470.78	6.25
470.982	6.05
471.185	5.99
471.387	5.99
471.59	5.75
471.792	5.85
471.995	5.74
472.197	5.87
472.399	5.83
472.602	5.94
472.804	6.02
473.007	6.47
473.209	6.62
473.411	6.58
473.614	6.57
473.816	6.71
474.018	6.53
474.22	6.51
474.423	6.55
474.625	6.55
474.827	6.54
475.03	6.48
475.232	6.34
475.434	6.27
475.636	6.18
475.838	6.24
476.04	6.17
476.243	6.26
476.445	6.31
476.647	6.18
476.849	6.24
477.051	6.15
477.253	6.17
477.455	5.97
477.657	5.97
477.859	5.97
478.061	5.94
478.263	5.92
478.465	5.92
478.667	5.92
478.869	5.92
479.071	6.02
479.273	5.94
479.475	6.01
479.677	6.02
479.879	6.04
480.081	6.16
480.283	6.2
480.485	6.24
480.686	6.17
480.888	6.09
481.09	6.14
481.292	6
481.494	6.09
481.695	6.03
481.897	6.05
482.099	6.06
482.301	5.98
482.502	5.89
482.704	5.78
482.906	5.76
483.107	5.78
483.309	5.82
483.511	5.86
483.712	5.87
483.914	5.91
484.115	5.89
484.317	5.84
484.519	5.87
484.72	5.87
484.922	5.89
485.123	5.91
485.325	5.9
485.526	5.87
485.728	5.88
485.929	5.81
486.131	5.74
486.332	5.78
486.534	5.83
486.735	5.78
486.936	5.76
487.138	5.8
487.339	5.8
487.541	5.81
487.742	5.87
487.943	5.81
488.144	5.87
488.346	5.85
488.547	5.84
488.748	5.81
488.95	5.89
489.151	5.91
489.352	5.87
489.553	5.95
489.755	6
489.956	5.86
490.157	5.87
490.358	5.86
490.559	5.89
490.76	5.86
490.961	5.84
491.163	5.89
491.364	6.02
491.565	6.05
491.766	6.05
491.967	6.06
492.168	6.07
492.369	6.11
492.57	6.14
492.771	6.13
492.972	6.29
493.173	6.26
493.374	6.2
493.575	6.05
493.776	6.02
493.976	6.04
494.177	5.92
494.378	5.98
494.579	5.71
494.78	5.76
494.981	5.86
495.182	5.72
495.382	5.92
495.583	6
495.784	6.19
495.985	6.15
496.185	6.09
496.386	6.04
496.587	6.09
496.788	6.46
496.988	6.35
497.189	6.19
497.39	6.16
497.59	6.15
497.791	6.11
497.992	5.98
498.192	6.15
498.393	6.1
498.593	6.24
498.794	6.22
498.994	6.25
499.195	6.17
499.395	6.46
499.596	6.49
499.796	6.37
499.997	6.29
500.197	6.31
500.398	6.43
500.598	6.4
500.799	6.27
500.999	6.24
501.199	6
501.4	6.04
501.6	5.83
501.801	6.01
502.001	6.13
502.201	6.11
502.402	6.18
502.602	5.98
502.802	6.03
503.002	6.17
503.203	6.16
503.403	6.43
503.603	6.39
503.803	6.42
504.003	6.27
504.204	6.32
504.404	6.47
504.604	6.51
504.804	6.51
505.004	6.62
505.204	6.58
505.404	6.6
505.604	6.4
505.804	6.56
506.005	6.83
506.205	6.86
506.405	6.81
506.605	6.67
506.805	6.62
507.005	6.58
507.204	6.55
507.404	6.6
507.604	6.6
507.804	6.52
508.004	6.36
508.204	6.14
508.404	6.07
508.604	6.04
508.804	6
509.003	6.2
509.203	6.27
509.403	6.22
509.603	6.26
509.803	6.33
510.002	6.41
510.202	6.45
510.402	6.41
510.602	6.33
510.801	6.32
511.001	6.42
511.201	6.21
511.4	6.28
511.6	6.3
511.8	6.48
511.999	6.54
512.199	6.61
512.398	6.74
512.598	6.87
512.797	7.01
512.997	7
513.197	7.08
513.396	7.26
513.596	7.13
513.795	7.15
513.994	7.16
514.194	6.99
514.393	6.94
514.593	7.11
514.792	7.03
514.992	7.14
515.191	7.34
515.39	7.28
515.59	7.29
515.789	7.43
515.988	7.45
516.188	7.22
516.387	7.29
516.586	7.37
516.786	7.2
516.985	7.21
517.184	7.16
517.383	7.14
517.582	7.22
517.782	7.18
517.981	7.15
518.18	7.21
518.379	7.29
518.578	7.42
518.777	7.46
518.976	7.5
519.176	7.55
519.375	7.48
519.574	7.47
519.773	7.47
519.972	7.54
520.171	7.65
520.37	7.62
520.569	7.6
520.768	7.45
520.967	7.5
521.166	7.35
521.365	7.44
521.564	7.44
521.762	7.41
521.961	7.35
522.16	7.39
522.359	7.42
522.558	7.42
522.757	7.57
522.956	7.67
523.154	7.6
523.353	7.76
523.552	7.7
523.751	7.92
523.949	7.97
524.148	8.01
524.347	7.75
524.546	7.68
524.744	7.71
524.943	7.59
525.142	7.74
525.34	7.81
525.539	7.78
525.737	7.77
525.936	7.66
526.135	7.7
526.333	7.75
526.532	7.85
526.73	7.96
526.929	8.02
527.127	8.08
527.326	8
527.524	8.02
527.723	8.07
527.921	8.12
528.12	8.13
528.318	8.16
528.516	8.16
528.715	8.21
528.913	8.16
529.112	8.2
529.31	8.17
529.508	8.18
529.707	8.19
529.905	8.22
530.103	8.23
530.301	8.34
530.5	8.4
530.698	8.37
530.896	8.5
531.094	8.6
531.293	8.58
531.491	8.6
531.689	8.68
531.887	8.74
532.085	8.86
532.283	8.93
532.481	8.91
532.68	8.82
532.878	8.92
533.076	8.8
533.274	8.83
533.472	8.92
533.67	8.99
533.868	8.99
534.066	9.04
534.264	8.99
534.462	8.94
534.66	8.9
534.858	9.05
535.056	9.08
535.253	9.16
535.451	9.15
535.649	9.03
535.847	8.98
536.045	9.01
536.243	8.93
536.441	9.04
536.638	9.14
536.836	9.18
537.034	9.14
537.232	9.09
537.43	9.14
537.627	9.12
537.825	9.18
538.023	9.29
538.22	9.28
538.418	9.45
538.616	9.52
538.813	9.49
539.011	9.68
539.209	9.71
539.406	9.79
539.604	9.76
539.801	9.83
539.999	9.84
540.196	9.83
540.394	9.85
540.591	9.81
540.789	9.74
540.986	9.76
541.184	9.65
541.381	9.6
541.579	9.68
541.776	9.69
541.974	9.68
542.171	9.71
542.368	9.81
542.566	9.86
542.763	9.87
542.96	9.82
543.158	9.82
543.355	9.89
543.552	9.87
543.75	9.87
543.947	9.93
544.144	10.04
544.341	10.2
544.539	10.29
544.736	10.34
544.933	10.38
545.13	10.45
545.327	10.44
545.524	10.56
545.722	10.71
545.919	10.86
546.116	10.98
546.313	10.97
546.51	11
546.707	10.93
546.904	10.99
547.101	11.06
547.298	11.07
547.495	11.25
547.692	11.35
547.889	11.55
548.086	11.59
548.283	11.53
548.48	11.51
548.677	11.48
548.874	11.54
549.07	11.54
549.267	11.62
549.464	11.86
549.661	11.81
549.858	11.69
550.055	11.61
550.251	11.54
550.448	11.72
550.645	11.89
550.842	11.91
551.038	11.72
551.235	12
551.432	12.08
551.628	12.13
551.825	12
552.022	12.18
552.218	12.1
552.415	12.18
552.612	12.18
552.808	12.22
553.005	12.22
553.201	12.45
553.398	12.23
553.594	12.28
553.791	12.28
553.987	12.56
554.184	12.47
554.38	12.69
554.577	12.76
554.773	12.49
554.97	12.61
555.166	12.76
555.362	12.69
555.559	12.99
555.755	12.86
555.952	13.03
556.148	12.99
556.344	13.14
556.541	13.33
556.737	13.26
556.933	13.43
557.129	13.46
557.326	13.56
557.522	13.89
557.718	13.66
557.914	13.97
558.11	13.99
558.307	14.25
558.503	14.27
558.699	14.4
558.895	14.53
559.091	14.96
559.287	14.87
559.483	14.9
559.679	14.85
559.876	15.28
560.072	15.17
560.268	15.11
560.464	14.97
560.66	15.12
560.856	14.9
561.052	14.92
561.247	14.72
561.443	14.88
561.639	14.76
561.835	14.75
562.031	14.66
562.227	14.7
562.423	14.98
562.619	15.21
562.815	15.24
563.01	15.35
563.206	15.55
563.402	15.78
563.598	16.07
563.793	16.19
563.989	16.51
564.185	16.48
564.381	16.77
564.576	16.65
564.772	16.65
564.968	16.67
565.163	16.81
565.359	16.75
565.555	16.77
565.75	16.65
565.946	16.95
566.141	16.84
566.337	16.96
566.532	16.87
566.728	16.89
566.923	16.9
567.119	17.01
567.314	16.87
567.51	16.93
567.705	17.05
567.901	17.12
568.096	17.1
568.292	17.27
568.487	17.38
568.682	17.56
568.878	17.63
569.073	17.65
569.268	17.84
569.464	18.04
569.659	18.21
569.854	18.38
570.05	18.52
570.245	18.47
570.44	18.35
570.635	18.4
570.831	18.45
571.026	18.56
571.221	18.7
571.416	18.55
571.611	18.73
571.806	18.67
572.002	18.65
572.197	18.7
572.392	18.93
572.587	19.07
572.782	19.04
572.977	19.16
573.172	19.1
573.367	19.03
573.562	19.19
573.757	19.18
573.952	19.28
574.147	19.3
574.342	19.38
574.537	19.36
574.732	19.46
574.927	19.54
575.121	19.49
575.316	19.6
575.511	19.72
575.706	19.78
575.901	19.87
576.096	19.79
576.29	19.83
576.485	19.77
576.68	19.88
576.875	19.83
577.069	19.86
577.264	19.95
577.459	20.14
577.654	20.13
577.848	20.38
578.043	20.28
578.238	20.58
578.432	20.73
578.627	20.73
578.821	20.88
579.016	20.8
579.21	20.94
579.405	20.88
579.6	20.83
579.794	21.26
579.989	21.11
580.183	21.34
580.378	21.5
580.572	21.54
580.766	21.57
580.961	21.37
581.155	21.47
581.35	21.55
581.544	21.6
581.738	21.62
581.933	21.54
582.127	21.89
582.321	21.94
582.516	21.68
582.71	21.64
582.904	21.85
583.099	22.07
583.293	22.29
583.487	22.21
583.681	22.37
583.875	22.41
584.07	22.42
584.264	22.23
584.458	22.12
584.652	22.35
584.846	22.7
585.04	22.82
585.234	22.85
585.428	22.87
585.623	23.2
585.817	22.85
586.011	22.77
586.205	22.65
586.399	22.71
586.593	22.81
586.787	22.61
586.981	22.34
587.174	22.16
587.368	21.92
587.562	21.98
587.756	21.94
587.95	22.22
588.144	22.43
588.338	22.52
588.532	22.36
588.725	22.44
588.919	22.51
589.113	22.67
589.307	22.81
589.501	22.9
589.694	22.97
589.888	22.99
590.082	23.14
590.275	23.2
590.469	23.27
590.663	23.42
590.856	23.44
591.05	23.61
591.244	23.62
591.437	23.54
591.631	23.47
591.824	23.31
592.018	23.08
592.212	23.12
592.405	23.15
592.599	23.44
592.792	23.37
592.986	23.29
593.179	23.16
593.372	23.14
593.566	23.44
593.759	23.91
593.953	24
594.146	24.2
594.339	24.37
594.533	24.25
594.726	24.2
594.92	24.55
595.113	24.75
595.306	24.88
595.499	24.72
595.693	24.6
595.886	24.4
596.079	24.64
596.272	24.55
596.466	24.46
596.659	24.54
596.852	24.49
597.045	24.06
597.238	24.1
597.431	24.13
597.624	24.08
597.818	24.08
598.011	24.15
598.204	24.03
598.397	24.23
598.59	24.27
598.783	24.59
598.976	24.65
599.169	24.75
599.362	24.77
599.555	25.03
599.748	25.45
599.941	25.59
600.134	25.59
600.326	25.59
600.519	25.38
600.712	25.3
600.905	25.09
601.098	24.97
601.291	25.21
601.483	25.26
601.676	25.36
601.869	25.29
602.062	25.03
602.255	25.03
602.447	25.22
602.64	25.19
602.833	25.1
603.025	25.17
603.218	25.15
603.411	25.05
603.603	24.89
603.796	24.45
603.989	24.42
604.181	24.73
604.374	24.84
604.566	24.67
604.759	24.9
604.951	25.05
605.144	25.24
605.336	25.22
605.529	25.2
605.721	25.39
605.914	25.82
606.106	26.12
606.299	25.91
606.491	25.85
606.683	26.16
606.876	25.98
607.068	25.82
607.26	25.49
607.453	25.87
607.645	26.25
607.837	26.13
608.03	26.02
608.222	25.81
608.414	26.07
608.606	26.19
608.799	26.34
608.991	26.67
609.183	26.93
609.375	26.88
609.567	26.77
609.759	26.76
609.952	26.82
610.144	26.73
610.336	26.7
610.528	26.63
610.72	26.46
610.912	26.18
611.104	25.99
611.296	26.18
611.488	26.41
611.68	26.35
611.872	26.27
612.064	26.44
612.256	26.47
612.448	26.6
612.64	26.72
612.832	26.8
613.023	26.9
613.215	26.93
613.407	26.53
613.599	26.47
613.791	26.27
613.983	26.4
614.174	26.06
614.366	26.11
614.558	26.03
614.75	26.04
614.941	26.14
615.133	25.85
615.325	25.91
615.516	26.05
615.708	26.04
615.9	26.16
616.091	26.12
616.283	26.18
616.475	26.18
616.666	26.27
616.858	26.31
617.049	26.54
617.241	26.64
617.432	26.43
617.624	26.58
617.815	26.83
618.007	26.96
618.198	26.82
618.39	26.83
618.581	27.12
618.773	27.12
618.964	27.05
619.155	26.8
619.347	27
619.538	27.14
619.729	27.14
619.921	26.99
620.112	27.06
620.303	27.18
620.494	27.24
620.686	27.14
620.877	27.09
621.068	27.07
621.259	27.24
621.451	27.1
621.642	27.31
621.833	27.42
622.024	27.64
622.215	27.42
622.406	27.45
622.597	27.82
622.788	27.97
622.98	28.1
623.171	27.96
623.362	27.92
623.553	28.35
623.744	28.35
623.935	28.11
624.126	28.03
624.317	28.33
624.508	28.23
624.698	28.13
624.889	27.6
625.08	27.23
625.271	27.35
625.462	27.37
625.653	26.99
625.844	26.98
626.034	26.92
626.225	26.59
626.416	26.5
626.607	26.42
626.798	26.44
626.988	26.76
627.179	27.35
627.37	27.6
627.56	27.81
627.751	28.32
627.942	28.19
628.132	28.49
628.323	28.74
628.514	28.74
628.704	28.83
628.895	29.03
629.085	29.24
629.276	28.91
629.466	28.64
629.657	28.34
629.847	27.96
630.038	28.29
630.228	27.96
630.419	28.04
630.609	28.19
630.8	28.32
630.99	28.14
631.181	28.25
631.371	28.33
631.561	28.41
631.752	28.14
631.942	28.2
632.132	28.12
632.323	28.53
632.513	28.2
632.703	28.15
632.893	28.49
633.084	28.43
633.274	27.98
633.464	27.88
633.654	27.89
633.844	28.36
634.034	28.22
634.225	28.28
634.415	27.78
634.605	27.96
634.795	27.93
634.985	27.53
635.175	27.47
635.365	27.52
635.555	27.51
635.745	27.37
635.935	27.37
636.125	27.55
636.315	27.49
636.505	28.12
636.695	28.32
636.885	28.4
637.075	28.62
637.265	28.96
637.455	29.35
637.644	29.48
637.834	29.95
638.024	30.21
638.214	29.89
638.404	30.12
638.593	30.28
638.783	30.59
638.973	30.77
639.163	30.76
639.352	30.33
639.542	30.19
639.732	30.45
639.921	30.31
640.111	30.07
640.301	30.32
640.49	29.81
640.68	29.06
640.87	28.33
641.059	28.14
641.249	28.32
641.438	28.32
641.628	28.39
641.817	28.02
642.007	28.02
642.196	28.46
642.386	28.54
642.575	29.17
642.764	29.7
642.954	30.12
643.143	30.26
643.333	29.96
643.522	30.16
643.711	30.22
643.901	30.5
644.09	30.52
644.279	30.19
644.469	30.29
644.658	29.99
644.847	29.52
645.036	29.29
645.226	29.01
645.415	29.06
645.604	29.42
645.793	29.42
645.982	29.21
646.171	29.63
646.361	29.57
646.55	29.71
646.739	29.82
646.928	29.88
647.117	29.61
647.306	29.78
647.495	29.63
647.684	29.49
647.873	29.11
648.062	29.56
648.251	29.21
648.44	29.17
648.629	29.32
648.818	29.1
649.007	29.37
649.196	29.73
649.384	30.31
649.573	30.28
649.762	30.23
649.951	30.73
650.14	30.45
650.328	30.33
650.517	30.02
650.706	29.09
650.895	29.35
651.083	29.61
651.272	29.65
651.461	29.56
651.65	30.12
651.838	29.9
652.027	29.6
652.216	29.45
652.404	29.61
652.593	29.98
652.781	30.22
652.97	30.23
653.158	29.76
653.347	29.93
653.535	29.82
653.724	29.47
653.912	29.29
654.101	29.29
654.289	29.61
654.478	29.89
654.666	29.87
654.855	30.33
655.043	30.27
655.231	30.68
655.42	30.23
655.608	30.1
655.796	29.98
655.985	30.72
656.173	30.59
656.361	30.51
656.55	30.19
656.738	30.39
656.926	30.74
657.114	30.74
657.302	30.51
657.491	30.94
657.679	31.11
657.867	31.2
658.055	30.94
658.243	31.16
658.431	31.06
658.619	31.16
658.807	31.16
658.996	31.24
659.184	31.2
659.372	31.15
659.56	31.09
659.748	31.05
659.936	31.2
660.124	31.12
660.311	31.03
660.499	31.33
660.687	31.46
660.875	31.77
661.063	31.41
661.251	31.28
661.439	31.58
661.627	31.41
661.814	31.5
662.002	31.24
662.19	31.16
662.378	31.01
662.565	30.51
662.753	30.06
662.941	29.51
663.129	29.5
663.316	29.72
663.504	29.48
663.692	29.85
663.879	29.87
664.067	30.14
664.254	29.94
664.442	30.14
664.63	30.33
664.817	30.29
665.005	29.83
665.192	30.1
665.38	30.23
665.567	30.67
665.755	30.62
665.942	30.21
666.13	30.4
666.317	30.88
666.504	31.12
666.692	30.98
666.879	31.39
667.067	31.71
667.254	31.37
667.441	31.25
667.629	31.32
667.816	31.71
668.003	31.59
668.19	31.33
668.378	31.3
668.565	31.19
668.752	31.59
668.939	31.63
669.127	31.93
669.314	32.02
669.501	32.18
669.688	31.83
669.875	31.18
670.062	31.49
670.249	32
670.436	32.04
670.623	32.05
670.81	31.79
670.997	31.51
671.184	31.29
671.371	31.34
671.558	31.54
671.745	31.35
671.932	31.76
672.119	31.67
672.306	31.13
672.493	31.1
672.68	31.72
672.867	31.94
673.054	31.72
673.24	31.69
673.427	31.46
673.614	31.12
673.801	31.79
673.988	31.89
674.174	32.19
674.361	32.3
674.548	32.14
674.734	31.47
674.921	31.47
675.108	31.89
675.294	32.29
675.481	32.7
675.668	32.84
675.854	32.69
676.041	32.35
676.227	32.3
676.414	31.99
676.601	32.33
676.787	32.06
676.974	32.04
677.16	31.99
677.347	31.79
677.533	31.68
677.719	31.7
677.906	31.63
678.092	31.48
678.279	31.39
678.465	31.88
678.651	31.68
678.838	32.22
679.024	32.34
679.21	32.76
679.397	33.24
679.583	33.09
679.769	32.9
679.955	32.48
680.142	32.69
680.328	32.57
680.514	32.45
680.7	32.47
680.886	32.5
681.073	32.45
681.259	31.86
681.445	31.39
681.631	31.41
681.817	31.61
682.003	31.93
682.189	32.05
682.375	32.04
682.561	31.94
682.747	32.39
682.933	32.25
683.119	32.12
683.305	32.29
683.491	32.15
683.677	32.35
683.863	32.22
684.049	31.99
684.235	32.33
684.42	31.88
684.606	32.15
684.792	31.79
684.978	32.37
685.164	32.45
685.349	32.61
685.535	32.55
685.721	32.6
685.907	32.36
686.092	32.68
686.278	32.15
686.464	32.91
686.649	33.05
686.835	33.06
687.021	32.59
687.206	32.37
687.392	32.54
687.577	32.85
687.763	32.78
687.948	33.37
688.134	33.27
688.319	33.48
688.505	33.27
688.69	32.95
688.876	32.54
689.061	32.54
689.247	32.68
689.432	32.34
689.618	32.34
689.803	32.94
689.988	32.49
690.174	32.54
690.359	32.23
690.544	32.17
690.73	32.27
690.915	32.55
691.1	32.51
691.285	32.74
691.471	32.55
691.656	32.5
691.841	32.01
692.026	31.89
692.211	31.31
692.396	31.73
692.582	31.49
692.767	31.05
692.952	31.36
693.137	31.64
693.322	31.09
693.507	31.87
693.692	31.67
693.877	31.6
694.062	31.86
694.247	32.14
694.432	32.39
694.617	33.03
694.802	33.52
694.987	33.29
695.172	33.11
695.357	33.62
695.541	33.23
695.726	33.54
695.911	33.69
696.096	33.39
696.281	33.22
696.466	32.82
696.65	32.89
696.835	32.2
697.02	31.86
697.204	31.74
697.389	31.96
697.574	31.97
697.759	31.75
697.943	31.66
698.128	31.7
698.312	31.66
698.497	31.91
698.682	32.01
698.866	32.7
699.051	32.63
699.235	32.25
699.42	32.04
699.604	32.51
699.789	32.74
699.973	32.97
700.158	32.98
700.342	33.57
700.527	33.42
700.711	33.03
700.895	32.98
701.08	33.41
701.264	33.91
701.448	33.65
701.633	32.97
701.817	32.61
702.001	32.09
702.186	33.1
702.37	32.62
702.554	32.52
702.738	32.9
702.923	32.28
703.107	32.38
703.291	31.82
703.475	31.1
703.659	31.45
703.843	32.11
704.027	32.4
704.212	31.23
704.396	31.55
704.58	31.78
704.764	31.92
704.948	32.28
705.132	32.18
705.316	32.74
705.5	34.26
705.684	34.02
705.868	33.78
706.052	33
706.235	33.82
706.419	34.32
706.603	34.53
706.787	34.28
706.971	34.54
707.155	34.63
707.339	34.59
707.522	33.93
707.706	33.89
707.89	33.58
708.074	34.44
708.257	34.63
708.441	34.43
708.625	34.29
708.808	34.14
708.992	34.46
709.176	34.07
709.359	34.41
709.543	34.18
709.727	34.39
709.91	34.66
710.094	34.57
710.277	34.25
710.461	33.27
710.644	33.22
710.828	33.17
711.011	33.28
711.195	33.78
711.378	33.44
711.562	34.06
711.745	34.68
711.928	34.91
712.112	34.36
712.295	34.33
712.478	35.17
712.662	34.57
712.845	34.24
713.028	33.76
713.212	33.56
713.395	33.96
713.578	33.87
713.761	33.57
713.945	33.19
714.128	33.8
714.311	34.02
714.494	33.86
714.677	34.44
714.86	34.41
715.043	34.82
715.227	34.67
715.41	34.44
715.593	34.23
715.776	33.68
715.959	33.99
716.142	34.85
716.325	35.04
716.508	34.39
716.691	34.38
716.874	34.47
717.057	33.27
717.239	34.05
717.422	34.41
717.605	34.35
717.788	34.36
717.971	34.55
718.154	33.39
718.337	33.61
718.519	34.37
718.702	33.94
718.885	34.71
719.068	35.9
719.25	35.89
719.433	35.24
719.616	35.72
719.798	35.84
719.981	35.44
720.164	34.94
720.346	33.38
720.529	34.42
720.712	35.46
720.894	35.17
721.077	35.48
721.259	35.72
721.442	36.64
721.624	37.26
721.807	37.11
721.989	36.98
722.172	37.93
722.354	37.88
722.537	36.47
722.719	36.69
722.901	37.53
723.084	37.85
723.266	36.72
723.448	36.43
723.631	35.64
723.813	36.55
723.995	37.4
724.178	37.18
724.36	37.17
724.542	37.85
724.724	37.38
724.907	36.85
725.089	34.76
725.271	35.18
725.453	35.34
725.635	35.71
725.817	35.47
725.999	34.94
726.181	35.3
726.364	36.7
726.546	35.88
726.728	35.16
726.91	35.07
727.092	35.74
727.274	36.01
727.456	35.72
727.638	35.42
727.819	35.78
728.001	36.21
728.183	35.78
728.365	35.69
728.547	36.04
728.729	37.21
728.911	37.3
729.093	37.48
729.274	37.23
729.456	37.75
729.638	37.86
729.82	37.62
730.001	37
730.183	36.89
730.365	37.41
730.546	37.42
730.728	36.33
730.91	35.9
731.091	36.3
731.273	36.38
731.455	35.87
731.636	35.83
731.818	35.94
731.999	36.35
732.181	36.29
732.362	36.03
732.544	36.97
732.725	36.88
732.907	36.83
733.088	36.77
733.27	37.14
733.451	36.96
733.633	36.79
733.814	35.84
733.995	35.95
734.177	35.47
734.358	34.36
734.539	32.62
734.721	33.87
734.902	34.85
735.083	35
735.264	33.83
735.446	34.84
735.627	34.79
735.808	36.04
735.989	36.28
736.17	36.82
736.351	37.13
736.533	38.01
736.714	37.82
736.895	36.71
737.076	36.22
737.257	36.8
737.438	36.01
737.619	36.01
737.8	34.67
737.981	34.22
738.162	34.85
738.343	34.64
738.524	34.97
738.705	34.77
738.886	35.66
739.067	36.81
739.247	35.42
739.428	35.63
739.609	36.56
739.79	37.17
739.971	36.55
740.151	36.24
740.332	35.85
740.513	36.26
740.694	35.21
740.874	34.26
741.055	32.91
741.236	32.72
741.417	33.49
741.597	33.06
741.778	33.25
741.958	34.77
742.139	35.21
742.32	35.63
742.5	35.42
742.681	35.99
742.861	36.32
743.042	35.75
743.222	37.23
743.403	37.15
743.583	37.16
743.764	35.37
743.944	33.73
744.124	32.59
744.305	32.25
744.485	32.98
744.666	32.89
744.846	32.79
745.026	32.75
745.207	35.25
745.387	33.54
745.567	33.06
745.747	34.99
745.928	36.59
746.108	38.43
746.288	38.37
746.468	36.74
746.648	37.36
746.829	38.13
747.009	39.96
747.189	37.35
747.369	36.75
747.549	36.25
747.729	36.33
747.909	36.05
748.089	35.35
748.269	36.35
748.449	36.04
748.629	34.82
748.809	33.53
748.989	31.61
749.169	31.25
749.349	31.37
749.529	31.93
749.709	32.16
749.889	32.36
750.068	31.24
750.248	30.39
750.428	30.01
750.608	30.53
750.788	32.19
750.967	33.58
751.147	33.93
751.327	34.53
751.507	35.94
751.686	35.42
751.866	36.04
752.046	36.21
752.225	36.81
752.405	38.51
752.585	40.41
752.764	38.19
752.944	38.19
753.123	38.91
753.303	38.54
753.482	37.5
753.662	37.09
753.841	36.76
754.021	36.96
754.2	36.73
754.38	35.39
754.559	34.17
754.739	35.2
754.918	34.37
755.097	31.87
755.277	32.04
755.456	30.83
755.635	30.76
755.815	29.61
755.994	30.36
756.173	31.2
756.352	31.44
756.532	30.42
756.711	29.79
756.89	31.29
757.069	33.77
757.248	35.79
757.427	37.33
757.607	38.59
757.786	38.34
757.965	37.06
758.144	36.54
758.323	36.77
758.502	37.95
758.681	38.94
758.86	40.02
759.039	39.77
759.218	38.38
759.397	37.82
759.576	37.56
759.755	38.83
759.934	40.87
760.113	40.84
760.291	39.78
760.47	38.58
760.649	37.35
760.828	35.81
761.007	36.78
761.186	36.95
761.364	36.37
761.543	36.27
761.722	34.7
761.901	33.3
762.079	33.1
762.258	34.67
762.437	35.59
762.615	36.78
762.794	36.59
762.972	35.51
763.151	35.36
763.33	35.67
763.508	35.28
763.687	36.81
763.865	36.18
764.044	36.34
764.222	36.01
764.401	35.13
764.579	33.55
764.758	33.07
764.936	33.33
765.114	33.49
765.293	33.61
765.471	34.18
765.65	33.01
765.828	33.72
766.006	33.15
766.184	33.55
766.363	33.3
766.541	34.14
766.719	34.69
766.898	34.11
767.076	34.2
767.254	34.35
767.432	35.5
767.61	35.51
767.788	34.27
767.967	35.9
768.145	35.04
768.323	36.52
768.501	37.47
768.679	37.28
768.857	38.87
769.035	39.41
769.213	38.77
769.391	37.13
769.569	36.98
769.747	40.36
769.925	39.42
770.103	40.48
770.281	40.55
770.459	39.19
770.636	38.91
770.814	36.37
770.992	36.88
771.17	38.04
771.348	38.61
771.525	38.41
771.703	35.24
771.881	33.19
772.059	31.61
772.236	30.15
772.414	32.15
772.592	31.93
772.769	33.88
772.947	31.58
773.125	30.63
773.302	29.47
773.48	29.92
773.657	30.59
773.835	32.73
774.013	35.22
774.19	35.31
774.368	35.57
774.545	36.55
774.723	35.95
774.9	36.41
775.077	36.03
775.255	36.1
775.432	36.8
775.61	37.84
775.787	38.69
775.964	35.91
776.142	35.24
776.319	36.75
776.496	34.54
776.674	34.89
776.851	34.22
777.028	34.17
777.205	32.94
777.382	32.23
777.56	32.18
777.737	29.43
777.914	31.2
778.091	33.35
778.268	30.95
778.445	34.09
778.622	34.78
778.8	38.18
778.977	38.22
779.154	43.16
779.331	43.21
779.508	42.02
779.685	42.77
779.862	44.34
780.038	45.13
780.215	44.86
780.392	42.89
780.569	43.83
780.746	40.95
780.923	40.74
781.1	37.31
781.277	36.73
781.453	37.14
781.63	38.24
781.807	34.87
781.984	35.51
782.16	38.2
782.337	37.37
782.514	33.63
782.691	33.59
782.867	33.25
783.044	33.69
783.221	35.3
783.397	37.33
783.574	38.47
783.75	39.11
783.927	38.2
784.103	38.71
784.28	40.08
784.456	42.13
784.633	45.19
784.809	44.95
784.986	44.18
785.162	44.43
785.339	44.44
785.515	45.23
785.692	45.46
785.868	43.44
786.044	41.42
786.221	41.49
786.397	40.49
786.573	37.2
786.749	37.01
786.926	37.59
787.102	36.09
787.278	35.05
787.454	33.27
787.631	33.85
787.807	34.49
787.983	33.97
788.159	33.59
788.335	35.57
788.511	36.14
788.687	36.52
788.863	37.02
789.039	36.57
789.216	34.83
789.392	34.47
789.568	32.21
789.744	33.77
789.919	33.26
790.095	35.06
790.271	34.65
790.447	33.8
790.623	32.59
790.799	30.57
790.975	33.35
791.151	35.17
791.327	37.88
791.502	40.57
791.678	38.42
791.854	37.46
792.03	35.92
792.205	36.37
792.381	39.88
792.557	42.5
792.733	42.58
792.908	39.64
793.084	38.54
793.259	36.21
793.435	36.8
793.611	40.59
793.786	44.98
793.962	41.16
794.137	40.47
794.313	38.38
794.488	38.83
794.664	42.04
794.839	45.08
795.015	47.69
795.19	43.9
795.366	46.36
795.541	40.67
795.716	39.24
795.892	43.02
796.067	42.24
796.242	43.12
796.418	43.15
796.593	40.15
796.768	41.39
796.944	39.67
797.119	44.69
797.294	39.7
797.469	41.89
797.644	43.3
797.82	42.49
797.995	45.77
798.17	45.07
798.345	46.01
798.52	48.7
798.695	45.72
798.87	44.67
799.045	42.92
799.22	43.88
799.395	43.76
799.57	44.22
799.745	46.18
799.92	39.12
800.095	38.72
800.27	37.41
800.445	34.44
800.62	37.71
800.795	37.57
800.97	34.07
801.145	34.97
801.319	34.21
801.494	32.08
801.669	31.47
801.844	36.58
802.018	38.27
802.193	38.33
802.368	37.78
802.543	31.18
802.717	33.63
802.892	38.55
803.067	38.5
803.241	40.52
803.416	34.61
803.59	34.46
803.765	35.62
803.94	36.15
804.114	37.68
804.289	38.47
804.463	42.42
804.638	42.06
804.812	38.5
804.986	36.79
805.161	36.18
805.335	38.32
805.51	37.46
805.684	35.73
805.858	31.27
806.033	31.56
806.207	33.31
806.381	35.34
806.556	37.48
806.73	38.9
806.904	40.71
807.078	38.4
807.253	38.3
807.427	40.11
807.601	37.92
807.775	41.37
807.949	37.19
808.123	38.98
808.298	36.01
808.472	35.53
808.646	38.14
808.82	37.38
808.994	38.89
809.168	40.75
809.342	38
809.516	40.8
809.69	36.16
809.864	38.12
810.038	33.9
810.212	32.09
810.385	32.11
810.559	28.97
810.733	30.7
810.907	32.8
811.081	33.81
811.255	37.3
811.428	38.31
811.602	44.43
811.776	47.57
811.95	50.09
812.123	52.85
812.297	45.78
812.471	48.35
812.644	50.13
812.818	48.68
812.992	46.77
813.165	44.72
813.339	43.53
813.512	45.02
813.686	43.63
813.86	46.67
814.033	47.74
814.207	53.26
814.38	51.74
814.554	52.19
814.727	51.35
814.9	55.4
815.074	54.48
815.247	51.39
815.421	49.53
815.594	49.08
815.767	46.64
815.941	45.8
816.114	41.8
816.287	44.39
816.46	39.97
816.634	36.54
816.807	31.31
816.98	32.14
817.153	35.83
817.327	32.39
817.5	30.43
817.673	29.73
817.846	31.03
818.019	38.12
818.192	35.27
818.365	37.86
818.538	39.66
818.711	40.55
818.884	38.09
819.057	37.82
819.23	39.9
819.403	40.74
819.576	40.94
819.749	39.55
819.922	37.24
820.095	39.32
820.268	38.78
820.441	41.49
820.614	43.5
820.786	44.66
820.959	44.72
821.132	44.04
821.305	43.07
821.477	43.9
821.65	44.02
821.823	42.19
821.996	40.85
822.168	40.3
822.341	40.06
822.514	39.09
822.686	37.51
822.859	37.36
823.031	37.37
823.204	37.32
823.376	37.16
823.549	37.39
823.722	38.26
823.894	37.89
824.067	38.13
824.239	37.45
824.411	37.41
824.584	38.52
824.756	38.31
824.929	37.21
825.101	37.08
825.273	37.12
825.446	36
825.618	35.17
825.79	36.09
825.963	35.61
826.135	35.19
826.307	35.28
826.479	36.11
826.652	36.14
826.824	36.95
826.996	38.18
827.168	37.92
827.34	38.82
827.512	40.08
827.684	38.75
827.856	38.9
828.029	39.36
828.201	39.22
828.373	38.61
828.545	39.46
828.717	39.09
828.889	37.71
829.061	36.84
829.232	37.55
829.404	36.13
829.576	36.69
829.748	37.01
829.92	38.16
830.092	38.15
830.264	36.96
830.436	36.9
830.607	38.44
830.779	38.77
830.951	43.28
831.123	41.28
831.294	39.23
831.466	42.77
831.638	42.64
831.809	42.55
831.981	44.61
832.153	50.4
832.324	52.01
832.496	53.38
832.667	54.32
832.839	46.98
833.011	44.82
833.182	47.09
833.354	42.05
833.525	40.52
833.697	40.87
833.868	39.59
834.039	38.4
834.211	39.12
834.382	38.57
834.554	38.86
834.725	41.34
834.896	42.49
835.068	43.78
835.239	45.04
835.41	44.34
835.581	42.7
835.753	41.7
835.924	41.16
836.095	41.78
836.266	41.71
836.438	44.23
836.609	41.38
836.78	39.81
836.951	39.65
837.122	41.6
837.293	46.42
837.464	47.86
837.635	49.02
837.806	51.63
837.977	46.43
838.148	50.06
838.319	45.46
838.49	49.96
838.661	51.52
838.832	50.87
839.003	46.42
839.174	47.39
839.345	46.93
839.516	48.39
839.687	40.45
839.857	46.58
840.028	39.67
840.199	44.39
840.37	40.16
840.54	43.34
840.711	43.89
840.882	48.34
841.053	35.56
841.223	41.09
841.394	45.81
841.564	55.7
841.735	54.38
841.906	60.52
842.076	57.78
842.247	54.73
842.417	57.2
842.588	52.55
842.758	49.74
842.929	59.93
843.099	56.25
843.27	61.44
843.44	51.32
843.611	54.72
843.781	46.17
843.951	36.71
844.122	39.77
844.292	41.06
844.462	50.54
844.633	54.13
844.803	45.48
844.973	55.12
845.144	25.35
845.314	34.87
845.484	15.35
845.654	24.2
845.824	35.64
845.995	19.37
846.165	19.22
846.335	10.14
846.505	22.35
846.675	22
846.845	21.4
847.015	35.86
847.185	39.04
847.355	43.32
847.525	45.28
847.695	54.09
847.865	63.45
848.035	52.16
848.205	63.96
848.375	60.7
848.545	63.3
848.715	68.52
848.884	50.69
849.054	46.96
849.224	54.7
849.394	47.89
849.564	38.19
849.733	32.31
849.903	35.3
850.073	35.19
850.243	41.17
850.412	47.99
850.582	45.63
850.752	50.2
850.921	46.5
851.091	45.97
851.26	52.4
851.43	51.37
851.599	38.42
851.769	37.93
851.939	34.47
852.108	37.28
852.278	15.23
852.447	16.54
852.616	12.94
852.786	24.01
852.955	18.5
853.125	8.33
853.294	0.44
853.463	16.13
853.633	27.59
853.802	43.88
853.971	25.11
854.141	50.32
854.31	43.1
854.479	47.03
854.648	40.47
854.818	81.05
854.987	76.66
855.156	82.49
855.325	77.91
855.494	75.31
855.663	72.92
855.832	73.3
856.001	73.89
856.171	76.8
856.34	73.55
856.509	73.63
856.678	60.92
856.847	71.49
857.016	58.47
857.185	66.4
857.353	63.58
857.522	54.53
857.691	52.28
857.86	60.1
858.029	52.52
858.198	58.27
858.367	45.41
858.535	51.56
858.704	45.12
858.873	55.4
859.042	54.68
859.21	53.82
859.379	45.51
859.548	42.56
859.717	42.22
859.885	53.59
860.054	51.31
860.222	58.07
860.391	60.53
860.56	52.06
860.728	65.6
860.897	66.58
861.065	71.89
861.234	84.26
861.402	88.94
861.571	84.5
861.739	71.57
861.908	61.61
862.076	65.78
862.244	58.87
862.413	64.65
862.581	38.65
862.749	31.64
862.918	31.64
863.086	13.97
863.254	9.12
863.423	21.19
863.591	35.45
863.759	38.76
863.927	39.15
864.096	55.89
864.264	70.8
864.432	82.29
864.6	88.05
864.768	82.29
864.936	105.5
865.104	104.41
865.272	100.02
865.44	111.48
865.608	111.82
865.776	104.09
865.944	102.99
866.112	95.61
866.28	67.44
866.448	67.22
866.616	59.44
866.784	24.91
866.952	33.24
867.12	40.71
867.288	13.14
867.455	19.91
867.623	-2.76
867.791	9.81
867.959	12.36
868.127	30.13
868.294	12.7
868.462	18.36
868.63	40.36
868.797	38.12
868.965	52.78
869.133	48.55
869.3	56.85
869.468	71.04
869.636	81.5
869.803	87.34
869.971	82.21
870.138	93.23
870.306	139.62
870.473	122.31
870.641	188.45
870.808	163.3
870.975	186.81
871.143	116.98
871.31	120.26
871.478	107.07
871.645	94.23
871.812	91.72
871.98	77.8
872.147	74.18
872.314	78.39
872.482	60.43
872.649	68.44
872.816	68.2
872.983	70.72
873.15	60.35
873.318	58.54
873.485	54.43
873.652	58.92
873.819	71.82
873.986	65.93
874.153	57.8
874.32	52.69
874.487	53.47
874.654	56.61
874.821	57.12
874.988	44.04
875.155	49.27
875.322	60.85
875.489	45.62
875.656	54.5
875.823	55.46
875.99	59.47
876.157	73.18
876.324	68.33
876.49	85.9
876.657	69.79
876.824	65.43
876.991	56.31
877.157	50.42
877.324	64.44
877.491	52.6
877.658	70.98
877.824	49.09
877.991	43.25
878.157	38.48
878.324	32.31
878.491	26.76
878.657	54.28
878.824	56.76
878.99	50.64
879.157	36.27
879.323	52.99
879.49	36.46
879.656	58.79
879.823	42.16
879.989	51.58
880.156	51.12
880.322	79.57
880.488	66.95
880.655	69.32
880.821	78.67
880.987	83.71
881.154	70.9
881.32	61.24
881.486	51.22
881.652	60.52
881.819	61.43
881.985	53.6
882.151	47.91
882.317	47.96
882.483	45.19
882.649	42.84
882.816	39.06
882.982	35.94
883.148	36.74
883.314	37.4
883.48	35.03
883.646	31.72
883.812	31.07
883.978	28.46
884.144	27.64
884.31	29.65
884.476	28.11
884.642	29.25
884.807	33.24
884.973	35.43
885.139	34.88
885.305	35.89
885.471	35.37
885.637	34.78
885.802	38.84
885.968	39.34
886.134	35.27
886.3	34.56
886.465	36.97
886.631	30.8
886.797	29.17
886.962	31.93
887.128	30.98
887.293	37
887.459	40.48
887.625	39.31
887.79	40.65
887.956	45.71
888.121	49.82
888.287	46.43
888.452	47.34
888.618	46.22
888.783	44.22
