Data from 2937814_Reflection_2.txt Node
Date: Wed Jul 15 17:39:05 EDT 2015
User: robert
Spectrometer: USB4E03001
Autoset integration time: false
Trigger mode: 4
Integration Time (sec): 1.000000E-1
Scans to average: 10
Electric dark correction enabled: true
Nonlinearity correction enabled: false
Boxcar width: 5
Stray light correction enabled: false
XAxis mode: Wavelengths
Stop averaging: false
Number of Pixels in Spectrum: 3648
>>>>>Begin Spectral Data<<<<<
177.566	15.29
177.785	9.87
178.005	-9.29
178.225	-229.28
178.445	-100
178.665	94.38
178.885	7.28
179.105	-94.21
179.324	-226.5
179.544	122.6
179.764	-1137.16
179.984	143.87
180.204	109.61
180.423	105.86
180.643	83.39
180.863	72.12
181.083	62.87
181.302	55.57
181.522	67.63
181.742	74.34
181.961	106.19
182.181	94.03
182.401	89.85
182.621	160.56
182.84	159.26
183.06	238.12
183.279	200.45
183.499	231.33
183.719	266.19
183.938	208.44
184.158	225.77
184.377	167.67
184.597	232.47
184.816	164.96
185.036	105.84
185.256	142.9
185.475	126.46
185.695	147.45
185.914	137.24
186.134	139.08
186.353	84.03
186.572	57.12
186.792	72.88
187.011	52.09
187.231	58.04
187.45	79.91
187.67	54.17
187.889	52.91
188.108	68.51
188.328	83.67
188.547	64.86
188.766	83.27
188.986	115.17
189.205	117.1
189.424	139.03
189.644	275.89
189.863	226.96
190.082	244.39
190.302	352.8
190.521	508.98
190.74	451.86
190.959	411.64
191.178	3018.62
191.398	-512.54
191.617	-4154.41
191.836	-412.18
192.055	-633.55
192.274	-341.61
192.494	-305.05
192.713	-818.94
192.932	-884.41
193.151	-170.17
193.37	-204.57
193.589	-21574.07
193.808	689.63
194.027	-74.61
194.246	-74.65
194.465	-924.26
194.685	577.08
194.904	-154.77
195.123	-66.43
195.342	6.89
195.561	73.33
195.78	151.33
195.999	64.58
196.218	112.44
196.436	124.92
196.655	107.72
196.874	134.71
197.093	147.81
197.312	146.15
197.531	135.1
197.75	110.54
197.969	115.92
198.188	124.34
198.407	174.89
198.625	208.13
198.844	185.37
199.063	209.35
199.282	147.81
199.501	200.27
199.719	305.96
199.938	128.5
200.157	82.89
200.376	109.3
200.594	-103.34
200.813	4.42
201.032	-163.7
201.251	-122.29
201.469	99.33
201.688	335.88
201.907	179.32
202.125	184.6
202.344	2871.43
202.563	39.36
202.781	39.11
203	25.05
203.218	31.15
203.437	5.47
203.656	258.62
203.874	-115.66
204.093	120.25
204.311	-7.8
204.53	344.46
204.748	540.99
204.967	183.42
205.185	193.02
205.404	275.79
205.622	172.43
205.841	145.62
206.059	325.49
206.278	260.59
206.496	336.41
206.715	418.14
206.933	244.18
207.151	206.51
207.37	330.95
207.588	201.13
207.806	105.42
208.025	238.57
208.243	316.47
208.461	391.7
208.68	520.08
208.898	1053.75
209.116	-58.71
209.335	-59.25
209.553	440.26
209.771	147.62
209.989	-22.36
210.208	-420.49
210.426	-126.55
210.644	-82.16
210.862	-267.28
211.081	-248.21
211.299	-536.94
211.517	859.91
211.735	5794.83
211.953	1432.05
212.171	4999.22
212.39	308.39
212.608	186.6
212.826	112.08
213.044	108.13
213.262	104.32
213.48	103.68
213.698	110.09
213.916	144.77
214.134	125.24
214.352	108.22
214.57	101.72
214.788	38.89
215.006	180.68
215.224	-411.76
215.442	747.75
215.66	-294.07
215.878	-194.57
216.096	-323.15
216.314	-1012.22
216.532	280.47
216.75	-1536.65
216.968	352.99
217.185	196.08
217.403	145.2
217.621	99.13
217.839	144.29
218.057	166.3
218.275	144.12
218.492	106.52
218.71	95.31
218.928	100.03
219.146	113.84
219.363	138.11
219.581	215.54
219.799	219.7
220.017	134.21
220.234	81.86
220.452	130.06
220.67	152.64
220.887	172.59
221.105	89.25
221.323	89.82
221.54	82.85
221.758	96.82
221.976	110.8
222.193	102.17
222.411	123.77
222.629	116.13
222.846	95.37
223.064	94.43
223.281	92.85
223.499	122.97
223.716	128.13
223.934	108.36
224.151	108.37
224.369	114.29
224.586	97.11
224.804	67.43
225.021	69.74
225.239	77.54
225.456	24.2
225.674	49.11
225.891	26.61
226.108	19.29
226.326	37.89
226.543	38.46
226.76	32.77
226.978	32.65
227.195	34.14
227.413	38.12
227.63	37.15
227.847	40.43
228.064	35.6
228.282	36.6
228.499	33.09
228.716	25.41
228.934	25.14
229.151	24.03
229.368	27.32
229.585	25.67
229.802	21.08
230.02	18.47
230.237	21.26
230.454	17.68
230.671	16.71
230.888	15.67
231.105	15.4
231.323	17.93
231.54	14.89
231.757	8.53
231.974	3.4
232.191	2.05
232.408	4.18
232.625	-1.15
232.842	8.3
233.059	16.76
233.276	20.11
233.493	22.55
233.71	16.71
233.927	20.42
234.144	23.02
234.361	24.41
234.578	26.69
234.795	27
235.012	26.89
235.229	22.3
235.446	18.3
235.663	18.97
235.879	22.78
236.096	23.31
236.313	19.43
236.53	15.82
236.747	19.53
236.964	22.04
237.181	23.79
237.397	26.47
237.614	30.96
237.831	33.96
238.048	36.32
238.264	32.06
238.481	36.18
238.698	38.89
238.915	37.66
239.131	36.22
239.348	31.92
239.565	35.14
239.781	25.8
239.998	30.34
240.215	26.07
240.431	23.9
240.648	25.05
240.865	24.73
241.081	23
241.298	24.26
241.514	25.32
241.731	26.24
241.947	23.63
242.164	25.52
242.38	21.01
242.597	20.05
242.814	20.26
243.03	21.28
243.246	20.29
243.463	20.75
243.679	21.98
243.896	20.29
244.112	19.49
244.329	17.42
244.545	17.36
244.762	16.2
244.978	19.05
245.194	19
245.411	17.03
245.627	17.99
245.843	17.27
246.06	18.95
246.276	18.24
246.492	17.49
246.709	19.25
246.925	17.01
247.141	18.56
247.357	17.49
247.574	16.93
247.79	15.97
248.006	15.79
248.222	16.71
248.439	15.83
248.655	15.23
248.871	16.1
249.087	14.63
249.303	15.6
249.519	14.78
249.736	13.56
249.952	12.67
250.168	13.86
250.384	10.6
250.6	9.23
250.816	7.7
251.032	9.26
251.248	7.78
251.464	9.17
251.68	8.24
251.896	7.18
252.112	8.47
252.328	8.28
252.544	6.86
252.76	7.72
252.976	7.42
253.192	8.95
253.408	9.82
253.624	11.58
253.84	10.27
254.056	11.98
254.272	13.51
254.487	13.7
254.703	16.39
254.919	17.51
255.135	15.87
255.351	15.3
255.567	12.23
255.782	11.55
255.998	8.5
256.214	12.95
256.43	14.6
256.646	16.76
256.861	17.38
257.077	14
257.293	12
257.508	12.49
257.724	12.6
257.94	13.13
258.155	12.34
258.371	13.41
258.587	12.18
258.802	13.27
259.018	12.65
259.234	13.25
259.449	13.68
259.665	13.1
259.88	13.6
260.096	13.76
260.312	12.41
260.527	12.81
260.743	12.55
260.958	12.1
261.174	9.81
261.389	8.96
261.605	8.35
261.82	8.47
262.036	9.36
262.251	9.95
262.466	9.51
262.682	11.21
262.897	10
263.113	10.08
263.328	9.14
263.543	12.76
263.759	12.71
263.974	11.58
264.189	8.91
264.405	7.22
264.62	5.65
264.835	3.3
265.051	1.96
265.266	3.17
265.481	4.61
265.696	7.89
265.912	7.65
266.127	8.16
266.342	7.17
266.557	9.66
266.773	11.77
266.988	12.89
267.203	12.86
267.418	13.53
267.633	14.29
267.848	12.02
268.064	11.33
268.279	10.35
268.494	11.42
268.709	13.24
268.924	12.94
269.139	11.98
269.354	11.18
269.569	10.68
269.784	12.87
269.999	12.16
270.214	11.9
270.429	9.67
270.644	11.34
270.859	10.35
271.074	10.49
271.289	10.41
271.504	11.01
271.719	9.87
271.934	12.78
272.149	13.23
272.363	12.65
272.578	11.58
272.793	11.81
273.008	10.16
273.223	10.39
273.438	9.6
273.653	8.81
273.867	8
274.082	8.54
274.297	6.34
274.512	4.09
274.726	4.69
274.941	7.07
275.156	8.26
275.371	9.12
275.585	8.57
275.8	9.07
276.015	10.07
276.229	11.66
276.444	12.06
276.659	11.97
276.873	14.17
277.088	16.07
277.302	17.03
277.517	17.24
277.732	16.58
277.946	15.22
278.161	15.6
278.375	14.72
278.59	14.28
278.804	13.3
279.019	12.86
279.233	11.7
279.448	7.49
279.662	5.33
279.877	5.49
280.091	4.58
280.306	8.23
280.52	7.68
280.735	9.13
280.949	8.9
281.163	10.77
281.378	10.8
281.592	9.51
281.806	10.98
282.021	10.05
282.235	9.91
282.449	12.9
282.664	13.56
282.878	13.43
283.092	12.11
283.307	11.13
283.521	10.48
283.735	12.1
283.949	12.82
284.164	13.38
284.378	15.63
284.592	15.6
284.806	13.25
285.02	10.41
285.234	10.61
285.449	11.05
285.663	11.36
285.877	12.12
286.091	13.03
286.305	11.91
286.519	11.25
286.733	10.98
286.947	10.8
287.161	11.65
287.375	12.03
287.589	11.47
287.803	11.78
288.017	11.85
288.231	10.94
288.445	9.39
288.659	9.98
288.873	9.46
289.087	9.31
289.301	9.79
289.515	9.22
289.729	8.67
289.943	9.88
290.157	11.9
290.371	12.68
290.584	13.23
290.798	13.32
291.012	13.42
291.226	14.37
291.44	14.2
291.654	13.43
291.867	13.84
292.081	16.17
292.295	15.8
292.509	14.49
292.722	14.13
292.936	13.08
293.15	14.33
293.364	14.38
293.577	15.3
293.791	15.66
294.005	17.14
294.218	16.38
294.432	14.85
294.645	14.24
294.859	13.16
295.073	12.22
295.286	13.31
295.5	11.26
295.713	11.3
295.927	10.2
296.14	10.64
296.354	10.16
296.568	10.86
296.781	11.14
296.994	12.38
297.208	13.24
297.421	13.43
297.635	12.43
297.848	12.98
298.062	13.89
298.275	14.26
298.489	13.78
298.702	14.31
298.915	13.29
299.129	13.47
299.342	11.96
299.555	12.59
299.769	13.09
299.982	13.02
300.195	12.13
300.409	10.97
300.622	9.49
300.835	10.94
301.048	10.82
301.262	12.5
301.475	13.65
301.688	13.65
301.901	12.2
302.115	13.56
302.328	13.81
302.541	13.07
302.754	13.42
302.967	15.21
303.18	12.9
303.393	13.94
303.607	13.17
303.82	11.48
304.033	12.65
304.246	14.02
304.459	13.43
304.672	12.25
304.885	14.3
305.098	13.54
305.311	12.06
305.524	13.03
305.737	10.99
305.95	11.54
306.163	12.58
306.376	12.55
306.589	10.95
306.802	9.54
307.015	11.52
307.228	9.45
307.44	10.83
307.653	12.53
307.866	12.46
308.079	12.88
308.292	13.86
308.505	13.84
308.718	13.32
308.93	12.75
309.143	13.38
309.356	14.1
309.569	14.62
309.781	13.79
309.994	12.87
310.207	13.3
310.42	13.82
310.632	12.91
310.845	12.89
311.058	13.85
311.27	12.96
311.483	13.48
311.696	13.55
311.908	13.82
312.121	13.66
312.333	15.05
312.546	13.01
312.759	13.54
312.971	14.28
313.184	14.32
313.396	12.71
313.609	14.57
313.821	15.03
314.034	15.17
314.246	14.55
314.459	15.32
314.671	14.06
314.884	14.86
315.096	12.99
315.309	14.84
315.521	14.72
315.733	16.02
315.946	15.46
316.158	14.96
316.371	14.01
316.583	12.84
316.795	10.71
317.008	11.62
317.22	13.66
317.432	14.34
317.644	12.49
317.857	12.31
318.069	11.9
318.281	12.12
318.494	10.51
318.706	10.46
318.918	11.42
319.13	12.49
319.342	11.07
319.555	11.43
319.767	11.37
319.979	10.52
320.191	8.96
320.403	10.08
320.615	8.18
320.827	9.38
321.039	9.55
321.252	12.28
321.464	14.51
321.676	16.45
321.888	16.61
322.1	15.68
322.312	15.03
322.524	17.1
322.736	17.48
322.948	17.97
323.16	17.99
323.372	17.45
323.584	16.41
323.796	14.78
324.007	13.77
324.219	13.28
324.431	12.81
324.643	13.64
324.855	13.87
325.067	12.19
325.279	11.89
325.491	11.12
325.702	10.29
325.914	11.06
326.126	10.18
326.338	10.54
326.55	11.41
326.761	13.77
326.973	13.32
327.185	12.65
327.396	12.86
327.608	14.22
327.82	14.79
328.032	16.46
328.243	16.27
328.455	17.09
328.666	17.31
328.878	16.32
329.09	15.78
329.301	15.9
329.513	16.66
329.725	17.65
329.936	18.46
330.148	20.15
330.359	20.38
330.571	18.97
330.782	20.96
330.994	22.13
331.205	21.52
331.417	21.53
331.628	21.79
331.84	21.13
332.051	20.71
332.262	21.1
332.474	18.14
332.685	16.29
332.897	16.4
333.108	14.73
333.319	13.85
333.531	14.53
333.742	12.78
333.953	12.42
334.165	13.77
334.376	13.59
334.587	12.73
334.799	14.06
335.01	14.78
335.221	15.56
335.432	15.71
335.644	16.28
335.855	16.41
336.066	16.86
336.277	18.07
336.488	16.55
336.7	16.29
336.911	16.72
337.122	17.14
337.333	16.86
337.544	17.46
337.755	18.17
337.966	17.21
338.177	15.22
338.388	16.86
338.599	15.32
338.811	15.13
339.022	15.02
339.233	14.68
339.444	14.55
339.655	16.15
339.866	16.39
340.076	15.83
340.287	15.51
340.498	16.3
340.709	13.98
340.92	14.93
341.131	15.54
341.342	14.49
341.553	14.29
341.764	14.73
341.975	12.92
342.185	12.12
342.396	12.63
342.607	12.46
342.818	12.57
343.029	13.2
343.239	11.56
343.45	12.77
343.661	14.67
343.872	14.8
344.082	14.11
344.293	15.24
344.504	16.1
344.714	14.96
344.925	14.84
345.136	14.49
345.346	14.34
345.557	15.48
345.768	14.46
345.978	14.33
346.189	13.65
346.399	13.6
346.61	13.78
346.821	12.19
347.031	12.62
347.242	12.03
347.452	13.77
347.663	14.5
347.873	14.87
348.084	14.82
348.294	14.54
348.504	15.14
348.715	16.37
348.925	15.33
349.136	16.51
349.346	16.38
349.557	17.28
349.767	15.97
349.977	14.85
350.188	14
350.398	14.39
350.608	13.19
350.819	11.98
351.029	9.74
351.239	11.89
351.449	12.42
351.66	12.71
351.87	12.35
352.08	11.43
352.29	11.98
352.501	12.53
352.711	12.74
352.921	16.13
353.131	17.4
353.341	18.07
353.552	15.97
353.762	13.83
353.972	14.59
354.182	14.75
354.392	16.28
354.602	15.9
354.812	15.32
355.022	14.48
355.232	11.79
355.442	11.29
355.652	12.66
355.862	13.26
356.072	14.89
356.282	13.43
356.492	13.37
356.702	13.69
356.912	14.14
357.122	14.71
357.332	14.32
357.542	14.71
357.752	14.77
357.962	13.15
358.171	13.02
358.381	12.67
358.591	13.04
358.801	12.81
359.011	12.25
359.221	12.34
359.43	12.02
359.64	13.19
359.85	13.72
360.06	14.1
360.269	14.3
360.479	14.28
360.689	13.86
360.899	14.32
361.108	14.63
361.318	14.73
361.528	14.34
361.737	14.24
361.947	13.61
362.156	12.71
362.366	13.21
362.576	13.56
362.785	13.46
362.995	13.28
363.204	13.4
363.414	14.33
363.623	14.72
363.833	14.94
364.042	15.03
364.252	15.53
364.461	15.08
364.671	15.88
364.88	16.19
365.09	16.92
365.299	17.42
365.509	16.88
365.718	15.71
365.927	15.36
366.137	15.05
366.346	15.34
366.555	15.17
366.765	16.56
366.974	14.77
367.183	14.56
367.393	14.24
367.602	13.84
367.811	14.48
368.021	14.33
368.23	14
368.439	13.62
368.648	12.94
368.857	12.18
369.067	10.96
369.276	10.89
369.485	10.95
369.694	9.94
369.903	9.94
370.112	9.48
370.321	9.41
370.531	9.83
370.74	11.05
370.949	11.35
371.158	11.57
371.367	11.73
371.576	12.81
371.785	12.31
371.994	11.7
372.203	11.54
372.412	10.75
372.621	10.7
372.83	9.65
373.039	9.21
373.248	9.76
373.457	9.92
373.666	9.76
373.874	8.75
374.083	8.24
374.292	9.73
374.501	9.74
374.71	10.55
374.919	10.8
375.128	11.62
375.336	11.22
375.545	10.38
375.754	9.49
375.963	9.75
376.171	10.1
376.38	10.25
376.589	10.45
376.798	10.15
377.006	9.85
377.215	10.12
377.424	9.61
377.632	9.91
377.841	10.1
378.05	10.77
378.258	10.78
378.467	10.77
378.675	11.15
378.884	10.56
379.093	10.54
379.301	10.34
379.51	10.27
379.718	9.86
379.927	9.56
380.135	9.42
380.344	9.74
380.552	9.7
380.761	9.04
380.969	8.59
381.177	8.23
381.386	8.53
381.594	8.44
381.803	7.87
382.011	8.18
382.219	8.55
382.428	8.48
382.636	8.42
382.845	8.5
383.053	8.94
383.261	9.43
383.469	9.67
383.678	9.43
383.886	9.99
384.094	10.14
384.302	10.19
384.511	9.62
384.719	9.76
384.927	8.91
385.135	8.59
385.343	8.3
385.552	8.62
385.76	8.42
385.968	8.27
386.176	7.89
386.384	8.12
386.592	7.49
386.8	7.66
387.008	7.74
387.216	7.95
387.424	7.96
387.633	7.42
387.841	6.46
388.049	6.47
388.257	6.28
388.465	6.46
388.672	6.24
388.88	6.79
389.088	6.48
389.296	6.13
389.504	6.54
389.712	6.59
389.92	6.98
390.128	7.34
390.336	7.29
390.544	7.8
390.751	7.54
390.959	7.76
391.167	7.78
391.375	8.14
391.583	8.42
391.79	8.16
391.998	7.99
392.206	7.97
392.414	7.98
392.621	8.22
392.829	8.34
393.037	8.43
393.244	8.69
393.452	8.6
393.66	8.52
393.867	8.27
394.075	8.01
394.283	7.78
394.49	7.78
394.698	7.81
394.905	7.8
395.113	7.3
395.32	7.26
395.528	6.77
395.735	6.59
395.943	6.52
396.15	6.25
396.358	6.43
396.565	6.95
396.773	7.27
396.98	7.13
397.188	6.99
397.395	7.16
397.602	7.01
397.81	6.86
398.017	7.41
398.225	7.5
398.432	7.68
398.639	7.47
398.847	7.59
399.054	7.22
399.261	7.26
399.468	7.33
399.676	7.3
399.883	7.43
400.09	7.41
400.297	7.1
400.505	6.98
400.712	7.17
400.919	7.49
401.126	7.43
401.333	7.41
401.54	7.47
401.748	7.14
401.955	6.98
402.162	7
402.369	7.01
402.576	6.76
402.783	6.8
402.99	6.88
403.197	6.71
403.404	6.44
403.611	6.48
403.818	6.51
404.025	6.62
404.232	6.73
404.439	6.71
404.646	6.66
404.853	7.05
405.06	7.12
405.267	7.25
405.474	7.55
405.681	7.49
405.887	7.68
406.094	7.3
406.301	7.12
406.508	7.36
406.715	7.68
406.922	8.01
407.128	7.84
407.335	7.63
407.542	7.42
407.749	7.45
407.955	7.59
408.162	7.43
408.369	7.85
408.575	8.09
408.782	7.81
408.989	7.24
409.195	6.86
409.402	6.84
409.609	6.74
409.815	6.54
410.022	6.24
410.228	6.54
410.435	6.64
410.642	6.44
410.848	6.16
411.055	6.25
411.261	6.46
411.468	6.62
411.674	6.71
411.881	6.91
412.087	7.03
412.294	6.96
412.5	6.45
412.706	6.33
412.913	6.11
413.119	6.25
413.326	6.16
413.532	6.36
413.738	6.51
413.945	6.33
414.151	6.32
414.357	6.29
414.564	6.81
414.77	7.1
414.976	7.18
415.182	7.19
415.389	7.26
415.595	7.14
415.801	6.87
416.007	6.88
416.214	6.97
416.42	6.89
416.626	6.87
416.832	6.24
417.038	5.97
417.244	5.98
417.45	6.35
417.657	6.41
417.863	6.54
418.069	6.68
418.275	6.73
418.481	6.72
418.687	6.79
418.893	6.82
419.099	7.11
419.305	7.18
419.511	7.02
419.717	6.87
419.923	6.86
420.129	6.97
420.335	7.04
420.541	6.93
420.746	6.88
420.952	6.86
421.158	6.86
421.364	6.78
421.57	6.85
421.776	6.92
421.982	6.9
422.187	7.01
422.393	6.81
422.599	6.69
422.805	6.67
423.01	6.74
423.216	6.69
423.422	6.73
423.628	6.84
423.833	6.89
424.039	6.98
424.245	6.97
424.45	6.71
424.656	6.74
424.862	6.75
425.067	6.68
425.273	6.69
425.478	6.62
425.684	6.58
425.889	6.24
426.095	6.29
426.301	6.14
426.506	6.02
426.712	6.27
426.917	6.13
427.123	5.98
427.328	5.98
427.533	5.72
427.739	5.98
427.944	5.99
428.15	6.17
428.355	5.94
428.561	5.87
428.766	6.24
428.971	6
429.177	6.39
429.382	6.21
429.587	6.08
429.793	6.34
429.998	6.26
430.203	6.04
430.408	6.01
430.614	5.94
430.819	6.07
431.024	6.07
431.229	6.31
431.434	6.01
431.64	6.4
431.845	6.59
432.05	6.37
432.255	6.36
432.46	6.6
432.665	6.54
432.87	6.53
433.076	6.37
433.281	6.13
433.486	5.97
433.691	6.12
433.896	6.08
434.101	6.14
434.306	6.15
434.511	5.96
434.716	5.76
434.921	5.8
435.126	5.94
435.331	6.02
435.535	6.22
435.74	6.17
435.945	5.96
436.15	6.11
436.355	6.08
436.56	6.2
436.765	6.3
436.97	6.61
437.174	6.87
437.379	6.83
437.584	6.88
437.789	6.63
437.993	6.79
438.198	6.91
438.403	6.62
438.608	6.45
438.812	6.34
439.017	6.37
439.222	6.25
439.426	6.06
439.631	5.94
439.836	5.8
440.04	5.99
440.245	6.12
440.45	6.23
440.654	6.28
440.859	6.23
441.063	6.3
441.268	6.42
441.472	6.27
441.677	6.28
441.881	6.4
442.086	6.56
442.29	6.31
442.495	6.17
442.699	6.1
442.904	6.06
443.108	6.19
443.312	6.13
443.517	6
443.721	5.92
443.925	6.11
444.13	6.04
444.334	5.8
444.538	5.98
444.743	5.84
444.947	5.84
445.151	5.92
445.356	5.88
445.56	5.96
445.764	5.86
445.968	5.99
446.173	5.97
446.377	5.96
446.581	6.01
446.785	5.96
446.989	5.9
447.193	5.79
447.398	5.8
447.602	5.87
447.806	5.92
448.01	5.9
448.214	5.87
448.418	5.82
448.622	5.89
448.826	5.98
449.03	6.03
449.234	6.14
449.438	6.08
449.642	5.92
449.846	5.94
450.05	5.81
450.254	5.87
450.458	5.8
450.662	5.64
450.866	5.49
451.069	5.31
451.273	5.3
451.477	5.43
451.681	5.56
451.885	5.68
452.089	5.58
452.292	5.53
452.496	5.6
452.7	5.9
452.904	5.88
453.107	5.99
453.311	6.12
453.515	6.06
453.719	6.03
453.922	5.92
454.126	5.78
454.33	5.94
454.533	6.07
454.737	5.92
454.94	5.75
455.144	6.02
455.348	5.94
455.551	5.95
455.755	6
455.958	6.13
456.162	6.09
456.365	6.22
456.569	6
456.772	5.87
456.976	6.11
457.179	6.09
457.383	6.07
457.586	6.11
457.79	6.03
457.993	6.2
458.196	6.13
458.4	6.27
458.603	6.14
458.807	6.16
459.01	6.34
459.213	6.26
459.417	6.22
459.62	6.1
459.823	6.09
460.026	6.03
460.23	5.9
460.433	5.81
460.636	5.81
460.839	5.86
461.042	6.01
461.246	5.73
461.449	5.57
461.652	5.58
461.855	5.5
462.058	5.34
462.261	5.46
462.464	5.31
462.668	5.46
462.871	5.44
463.074	5.47
463.277	5.44
463.48	5.42
463.683	5.58
463.886	5.53
464.089	5.62
464.292	5.62
464.495	5.57
464.698	5.75
464.901	5.63
465.104	5.63
465.306	5.38
465.509	5.18
465.712	5.26
465.915	5.22
466.118	5.05
466.321	5.1
466.524	5.11
466.726	4.93
466.929	4.8
467.132	4.79
467.335	4.89
467.538	5.21
467.74	5.11
467.943	5.22
468.146	5.14
468.348	5.16
468.551	5.23
468.754	5.45
468.956	5.49
469.159	5.68
469.362	5.74
469.564	5.65
469.767	5.51
469.969	5.8
470.172	5.81
470.375	5.91
470.577	5.92
470.78	5.65
470.982	5.61
471.185	5.75
471.387	5.66
471.59	5.58
471.792	5.66
471.995	5.71
472.197	5.5
472.399	5.51
472.602	5.56
472.804	5.61
473.007	5.76
473.209	5.76
473.411	5.74
473.614	5.73
473.816	5.52
474.018	5.57
474.22	5.6
474.423	5.57
474.625	5.47
474.827	5.36
475.03	5.57
475.232	5.72
475.434	5.62
475.636	5.85
475.838	5.77
476.04	5.96
476.243	5.9
476.445	5.8
476.647	5.81
476.849	5.92
477.051	5.86
477.253	5.63
477.455	5.6
477.657	5.72
477.859	5.58
478.061	5.44
478.263	5.39
478.465	5.31
478.667	5.32
478.869	5.37
479.071	5.34
479.273	5.41
479.475	5.54
479.677	5.59
479.879	5.49
480.081	5.53
480.283	5.72
480.485	5.74
480.686	5.85
480.888	5.88
481.09	5.83
481.292	5.86
481.494	5.85
481.695	5.81
481.897	5.64
482.099	5.67
482.301	5.63
482.502	5.7
482.704	5.68
482.906	5.75
483.107	5.77
483.309	5.83
483.511	5.85
483.712	5.92
483.914	5.92
484.115	5.97
484.317	5.98
484.519	6
484.72	5.96
484.922	5.99
485.123	5.87
485.325	5.83
485.526	5.83
485.728	5.82
485.929	5.75
486.131	5.77
486.332	5.72
486.534	5.69
486.735	5.65
486.936	5.74
487.138	5.78
487.339	5.85
487.541	5.84
487.742	5.85
487.943	5.91
488.144	5.95
488.346	5.91
488.547	5.88
488.748	5.89
488.95	5.93
489.151	5.84
489.352	5.83
489.553	5.83
489.755	5.95
489.956	5.98
490.157	5.88
490.358	5.87
490.559	5.84
490.76	5.98
490.961	6.02
491.163	5.93
491.364	6
491.565	5.96
491.766	6.03
491.967	5.92
492.168	5.92
492.369	5.9
492.57	5.8
492.771	5.85
492.972	5.79
493.173	5.82
493.374	5.92
493.575	5.88
493.776	5.93
493.976	5.79
494.177	5.91
494.378	5.82
494.579	5.82
494.78	5.94
494.981	5.95
495.182	5.89
495.382	5.74
495.583	5.72
495.784	5.7
495.985	5.74
496.185	5.77
496.386	5.7
496.587	5.72
496.788	5.87
496.988	5.98
497.189	6.15
497.39	6.28
497.59	6.24
497.791	6.29
497.992	6.25
498.192	6.09
498.393	6.06
498.593	6.08
498.794	6.13
498.994	6.15
499.195	6.23
499.395	6.1
499.596	6.11
499.796	6.15
499.997	6.15
500.197	6.2
500.398	6.36
500.598	6.4
500.799	6.43
500.999	6.4
501.199	6.32
501.4	6.25
501.6	6.16
501.801	6.14
502.001	6.17
502.201	6.28
502.402	6.38
502.602	6.35
502.802	6.37
503.002	6.33
503.203	6.36
503.403	6.33
503.603	6.43
503.803	6.43
504.003	6.44
504.204	6.27
504.404	6.2
504.604	6.12
504.804	6.03
505.004	6.1
505.204	6.14
505.404	6.14
505.604	6.19
505.804	6.07
506.005	6.1
506.205	6.05
506.405	6.27
506.605	6.28
506.805	6.4
507.005	6.48
507.204	6.5
507.404	6.45
507.604	6.65
507.804	6.78
508.004	6.77
508.204	6.65
508.404	6.88
508.604	6.84
508.804	6.97
509.003	6.97
509.203	7.04
509.403	7.11
509.603	7.34
509.803	7.14
510.002	7.14
510.202	7.1
510.402	7.33
510.602	7.16
510.801	7.22
511.001	7.1
511.201	7.17
511.4	7.22
511.6	7.21
511.8	7.16
511.999	7.34
512.199	7.36
512.398	7.22
512.598	7.2
512.797	7.16
512.997	7.25
513.197	7.17
513.396	7.09
513.596	7.03
513.795	7.01
513.994	6.91
514.194	6.87
514.393	6.9
514.593	7.19
514.792	7.1
514.992	7.08
515.191	6.98
515.39	7.05
515.59	7.02
515.789	7.15
515.988	7.17
516.188	7.34
516.387	7.23
516.586	7.09
516.786	7.1
516.985	7.25
517.184	7.49
517.383	7.52
517.582	7.67
517.782	7.74
517.981	7.76
518.18	7.76
518.379	7.82
518.578	7.79
518.777	7.84
518.976	7.93
519.176	7.9
519.375	7.86
519.574	7.86
519.773	7.84
519.972	7.87
520.171	7.86
520.37	7.92
520.569	7.89
520.768	7.94
520.967	8.15
521.166	7.95
521.365	7.99
521.564	7.95
521.762	8.03
521.961	7.83
522.16	7.87
522.359	8.06
522.558	7.99
522.757	7.98
522.956	8.01
523.154	7.88
523.353	8.12
523.552	8.17
523.751	8.3
523.949	8.4
524.148	8.74
524.347	8.86
524.546	8.71
524.744	8.74
524.943	8.83
525.142	8.94
525.34	8.98
525.539	9
525.737	8.92
525.936	8.95
526.135	8.81
526.333	8.79
526.532	8.78
526.73	8.82
526.929	8.91
527.127	8.87
527.326	8.84
527.524	8.82
527.723	8.83
527.921	9
528.12	8.97
528.318	8.99
528.516	8.99
528.715	9.05
528.913	9.11
529.112	9.08
529.31	9.17
529.508	9.19
529.707	9.21
529.905	9.29
530.103	9.22
530.301	9.26
530.5	9.34
530.698	9.34
530.896	9.3
531.094	9.39
531.293	9.46
531.491	9.41
531.689	9.53
531.887	9.69
532.085	9.65
532.283	9.71
532.481	9.76
532.68	9.85
532.878	9.97
533.076	9.88
533.274	9.79
533.472	9.85
533.67	9.93
533.868	9.86
534.066	9.8
534.264	9.82
534.462	9.85
534.66	9.85
534.858	9.87
535.056	9.86
535.253	9.99
535.451	9.98
535.649	10.07
535.847	10.1
536.045	10.15
536.243	10.24
536.441	10.29
536.638	10.28
536.836	10.39
537.034	10.36
537.232	10.37
537.43	10.53
537.627	10.64
537.825	10.56
538.023	10.54
538.22	10.72
538.418	10.74
538.616	10.71
538.813	10.77
539.011	10.78
539.209	10.84
539.406	10.92
539.604	10.78
539.801	10.86
539.999	10.9
540.196	10.85
540.394	10.84
540.591	10.93
540.789	11.03
540.986	11.17
541.184	11.19
541.381	11.24
541.579	11.23
541.776	11.36
541.974	11.39
542.171	11.46
542.368	11.56
542.566	11.63
542.763	11.56
542.96	11.56
543.158	11.54
543.355	11.66
543.552	11.69
543.75	11.81
543.947	11.79
544.144	11.79
544.341	11.79
544.539	11.73
544.736	11.66
544.933	11.86
545.13	11.99
545.327	12.07
545.524	11.91
545.722	12.05
545.919	12.02
546.116	12.12
546.313	12.27
546.51	12.37
546.707	12.49
546.904	12.47
547.101	12.48
547.298	12.51
547.495	12.57
547.692	12.7
547.889	12.69
548.086	12.9
548.283	12.8
548.48	12.85
548.677	12.85
548.874	13.01
549.07	13.16
549.267	13.2
549.464	13.33
549.661	13.4
549.858	13.53
550.055	13.59
550.251	13.51
550.448	13.64
550.645	13.56
550.842	13.51
551.038	13.39
551.235	13.65
551.432	13.67
551.628	13.59
551.825	13.48
552.022	13.62
552.218	13.56
552.415	13.52
552.612	13.59
552.808	13.74
553.005	14.02
553.201	14.1
553.398	13.99
553.594	14.03
553.791	14.08
553.987	14.49
554.184	14.51
554.38	14.74
554.577	14.83
554.773	14.81
554.97	14.84
555.166	14.98
555.362	15.06
555.559	15.27
555.755	15.3
555.952	15.43
556.148	15.1
556.344	15.3
556.541	15.43
556.737	15.67
556.933	16.06
557.129	16.14
557.326	15.97
557.522	16.1
557.718	16.34
557.914	16.62
558.11	16.74
558.307	17.11
558.503	16.8
558.699	16.71
558.895	16.66
559.091	16.38
559.287	16.47
559.483	16.64
559.679	16.79
559.876	16.54
560.072	16.44
560.268	16.34
560.464	16.35
560.66	16.58
560.856	16.75
561.052	16.85
561.247	17.01
561.443	16.92
561.639	16.88
561.835	17.13
562.031	17.16
562.227	17.3
562.423	17.38
562.619	17.44
562.815	17.6
563.01	17.74
563.206	17.81
563.402	18.08
563.598	18.2
563.793	18.17
563.989	18.09
564.185	18.16
564.381	18.42
564.576	18.59
564.772	18.69
564.968	18.88
565.163	18.99
565.359	19.21
565.555	19.16
565.75	19.53
565.946	19.73
566.141	19.63
566.337	19.82
566.532	19.81
566.728	19.96
566.923	20
567.119	19.86
567.314	19.8
567.51	19.64
567.705	19.66
567.901	19.62
568.096	19.76
568.292	19.75
568.487	19.56
568.682	19.53
568.878	19.38
569.073	19.33
569.268	19.44
569.464	19.59
569.659	19.75
569.854	19.86
570.05	19.81
570.245	19.73
570.44	19.9
570.635	20.15
570.831	20.19
571.026	20.32
571.221	20.71
571.416	20.83
571.611	20.99
571.806	21.01
572.002	21.12
572.197	21.1
572.392	21.29
572.587	21.37
572.782	21.32
572.977	21.43
573.172	21.44
573.367	21.28
573.562	21.39
573.757	21.35
573.952	21.35
574.147	21.43
574.342	21.56
574.537	21.71
574.732	21.85
574.927	21.95
575.121	21.92
575.316	22.07
575.511	22.19
575.706	22.19
575.901	22.01
576.096	22.02
576.29	21.97
576.485	22
576.68	21.99
576.875	22.02
577.069	22.26
577.264	22.4
577.459	22.42
577.654	22.38
577.848	22.37
578.043	22.67
578.238	22.87
578.432	22.74
578.627	22.91
578.821	22.75
579.016	22.79
579.21	22.94
579.405	22.9
579.6	23.1
579.794	23.09
579.989	23.13
580.183	23.09
580.378	23.04
580.572	23.12
580.766	23.08
580.961	23.14
581.155	23.04
581.35	22.96
581.544	23.04
581.738	23.01
581.933	23.15
582.127	23.12
582.321	22.97
582.516	23.23
582.71	23.49
582.904	23.35
583.099	23.4
583.293	23.55
583.487	23.7
583.681	23.82
583.875	23.98
584.07	23.76
584.264	23.83
584.458	24.08
584.652	24.2
584.846	24.23
585.04	24.38
585.234	24.37
585.428	24.38
585.623	24.25
585.817	24.21
586.011	24.06
586.205	24.48
586.399	24.27
586.593	24.44
586.787	24.34
586.981	24.11
587.174	24.48
587.368	24.42
587.562	24.55
587.756	24.48
587.95	24.41
588.144	24.21
588.338	24.02
588.532	24.42
588.725	24.43
588.919	24.47
589.113	24.86
589.307	24.68
589.501	24.81
589.694	24.79
589.888	25.12
590.082	25.27
590.275	25.18
590.469	25.28
590.663	24.92
590.856	24.86
591.05	24.86
591.244	24.69
591.437	24.7
591.631	24.8
591.824	24.62
592.018	24.56
592.212	24.5
592.405	24.88
592.599	24.86
592.792	25.2
592.986	25.16
593.179	24.96
593.372	24.99
593.566	25.01
593.759	25.19
593.953	25.64
594.146	25.67
594.339	25.95
594.533	25.99
594.726	26.07
594.92	26.25
595.113	26.38
595.306	26.58
595.499	26.58
595.693	26.41
595.886	26.54
596.079	26.27
596.272	26.26
596.466	26.07
596.659	26.13
596.852	26.18
597.045	25.9
597.238	25.69
597.431	25.77
597.624	25.84
597.818	26.06
598.011	25.93
598.204	26.09
598.397	25.98
598.59	26.14
598.783	26.24
598.976	26.21
599.169	26.43
599.362	26.55
599.555	26.57
599.748	26.47
599.941	26.37
600.134	26.13
600.326	25.97
600.519	26.29
600.712	26.19
600.905	25.99
601.098	25.89
601.291	25.56
601.483	25.66
601.676	25.62
601.869	25.69
602.062	25.86
602.255	25.94
602.447	26.25
602.64	26.09
602.833	26.16
603.025	26.15
603.218	26.56
603.411	26.9
603.603	26.9
603.796	26.9
603.989	27
604.181	26.95
604.374	27.15
604.566	26.88
604.759	26.86
604.951	26.83
605.144	26.94
605.336	26.66
605.529	26.71
605.721	26.81
605.914	26.82
606.106	26.92
606.299	27.1
606.491	26.92
606.683	26.97
606.876	27.07
607.068	27.23
607.26	27.35
607.453	27.51
607.645	27.29
607.837	27.36
608.03	27.24
608.222	27.1
608.414	27.1
608.606	27.02
608.799	27.27
608.991	27.22
609.183	26.97
609.375	26.72
609.567	26.7
609.759	26.71
609.952	26.65
610.144	26.77
610.336	26.73
610.528	26.67
610.72	26.83
610.912	26.75
611.104	26.92
611.296	27.06
611.488	27.11
611.68	26.96
611.872	26.88
612.064	26.86
612.256	26.77
612.448	26.81
612.64	26.56
612.832	26.38
613.023	26.13
613.215	25.82
613.407	26.22
613.599	26.45
613.791	26.57
613.983	26.93
614.174	26.96
614.366	26.96
614.558	27.13
614.75	27.26
614.941	27.26
615.133	27.46
615.325	27.48
615.516	26.76
615.708	26.71
615.9	26.68
616.091	26.6
616.283	26.75
616.475	26.78
616.666	26.6
616.858	26.53
617.049	26.79
617.241	26.83
617.432	26.73
617.624	26.94
617.815	26.77
618.007	27.01
618.198	27.13
618.39	27.13
618.581	27.2
618.773	27.42
618.964	27.44
619.155	27.39
619.347	27.27
619.538	27.4
619.729	27.57
619.921	27.8
620.112	27.76
620.303	27.44
620.494	27.51
620.686	28.07
620.877	28.17
621.068	28.28
621.259	28.21
621.451	28.04
621.642	28.15
621.833	28.11
622.024	27.81
622.215	27.58
622.406	27.62
622.597	27.21
622.788	26.62
622.98	26.26
623.171	26.5
623.362	26.65
623.553	26.98
623.744	27.01
623.935	27.24
624.126	27.41
624.317	27.74
624.508	27.94
624.698	28.32
624.889	28.76
625.08	28.97
625.271	28.9
625.462	29.04
625.653	29.12
625.844	28.95
626.034	28.85
626.225	28.59
626.416	28.56
626.607	28.43
626.798	28.43
626.988	28.09
627.179	27.91
627.37	27.98
627.56	27.98
627.751	27.96
627.942	28.12
628.132	27.96
628.323	28.07
628.514	27.97
628.704	28.41
628.895	28.43
629.085	28.54
629.276	28.53
629.466	28.52
629.657	28.33
629.847	28.32
630.038	28.6
630.228	28.49
630.419	28.97
630.609	28.9
630.8	28.75
630.99	28.94
631.181	29.14
631.371	29.21
631.561	28.94
631.752	29.13
631.942	29.15
632.132	28.86
632.323	29
632.513	28.55
632.703	28.96
632.893	28.91
633.084	28.65
633.274	28.57
633.464	29.05
633.654	29.25
633.844	29.16
634.034	29.23
634.225	29.42
634.415	29.54
634.605	29.69
634.795	29.28
634.985	29.03
635.175	29.02
635.365	29.09
635.555	28.93
635.745	28.87
635.935	29.22
636.125	29.15
636.315	28.94
636.505	28.83
636.695	28.85
636.885	29.08
637.075	29.29
637.265	29.02
637.455	28.88
637.644	28.87
637.834	28.96
638.024	28.56
638.214	28.53
638.404	28.73
638.593	29.01
638.783	29.17
638.973	29.66
639.163	29.59
639.352	29.92
639.542	30.14
639.732	30.17
639.921	30.08
640.111	30.05
640.301	30.01
640.49	29.83
640.68	29.82
640.87	29.67
641.059	29.01
641.249	29.1
641.438	29.31
641.628	29.35
641.817	29.56
642.007	29.37
642.196	29.56
642.386	29.41
642.575	29.63
642.764	29.79
642.954	30.14
643.143	30.22
643.333	30.1
643.522	30.08
643.711	29.85
643.901	29.58
644.09	29.8
644.279	30
644.469	30.52
644.658	30.22
644.847	30.28
645.036	30.05
645.226	30.29
645.415	30.22
645.604	29.96
645.793	30.14
645.982	29.9
646.171	30.14
646.361	30.12
646.55	29.92
646.739	30.13
646.928	29.77
647.117	29.48
647.306	29.1
647.495	29.27
647.684	29.35
647.873	29.4
648.062	29.33
648.251	29.22
648.44	28.92
648.629	29.22
648.818	29.47
649.007	29.91
649.196	30.18
649.384	30.57
649.573	30.45
649.762	30.59
649.951	30.5
650.14	31.26
650.328	31.21
650.517	31.06
650.706	30.59
650.895	30.07
651.083	29.8
651.272	30.05
651.461	30.1
651.65	30.1
651.838	29.86
652.027	29.69
652.216	28.89
652.404	28.81
652.593	29.3
652.781	29.38
652.97	29.35
653.158	29.49
653.347	29.56
653.535	29.16
653.724	29.17
653.912	29.12
654.101	28.93
654.289	29.36
654.478	29.37
654.666	29.42
654.855	29.81
655.043	29.95
655.231	29.65
655.42	29.36
655.608	29.84
655.796	29.87
655.985	30.11
656.173	30.47
656.361	30.53
656.55	30.5
656.738	30.02
656.926	29.68
657.114	29.82
657.302	29.96
657.491	29.91
657.679	29.56
657.867	29.75
658.055	29.85
658.243	29.95
658.431	29.57
658.619	29.75
658.807	29.68
658.996	30.02
659.184	30.01
659.372	30.43
659.56	30.44
659.748	30.59
659.936	30.46
660.124	30.53
660.311	30.3
660.499	30.73
660.687	30.87
660.875	31.25
661.063	30.88
661.251	31.12
661.439	31
661.627	31.18
661.814	31.05
662.002	31.16
662.19	30.91
662.378	31.14
662.565	30.81
662.753	30.47
662.941	30.49
663.129	30.35
663.316	30.56
663.504	29.81
663.692	29.79
663.879	29.88
664.067	29.97
664.254	30.59
664.442	30.26
664.63	30.51
664.817	30.37
665.005	30.08
665.192	30.53
665.38	30.11
665.567	30.59
665.755	30.63
665.942	30.86
666.13	30.57
666.317	30.13
666.504	30.56
666.692	30.76
666.879	31.07
667.067	30.98
667.254	30.65
667.441	30.92
667.629	30.32
667.816	30.62
668.003	30.58
668.19	30.82
668.378	30.54
668.565	30.41
668.752	30.22
668.939	30.18
669.127	29.89
669.314	29.97
669.501	29.7
669.688	29.76
669.875	29.67
670.062	29.98
670.249	29.8
670.436	30.49
670.623	30.65
670.81	30.47
670.997	30.47
671.184	30.99
671.371	31.55
671.558	31.84
671.745	32.11
671.932	32.06
672.119	31.56
672.306	31.74
672.493	31.05
672.68	30.72
672.867	31.31
673.054	31.07
673.24	31.24
673.427	30.46
673.614	29.99
673.801	29.49
673.988	29.01
674.174	29.41
674.361	29.69
674.548	29.97
674.734	30.28
674.921	29.95
675.108	30.44
675.294	30.27
675.481	30.68
675.668	30.83
675.854	31.82
676.041	32.16
676.227	32.19
676.414	31.54
676.601	31.49
676.787	31.43
676.974	31.48
677.16	31.22
677.347	31.19
677.533	31.2
677.719	31.36
677.906	31.02
678.092	31.21
678.279	30.6
678.465	31.05
678.651	31.05
678.838	31.4
679.024	31.33
679.21	31.54
679.397	31.57
679.583	31.82
679.769	31.68
679.955	31.82
680.142	31.53
680.328	31.61
680.514	31.54
680.7	31.46
680.886	31.03
681.073	30.98
681.259	31.09
681.445	31.62
681.631	31.47
681.817	31.61
682.003	31.74
682.189	31.74
682.375	32.17
682.561	32.91
682.747	33.13
682.933	33.23
683.119	33.27
683.305	32.78
683.491	32.36
683.677	32.07
683.863	32.07
684.049	32.41
684.235	32.66
684.42	32.66
684.606	32.42
684.792	32.41
684.978	32.38
685.164	32.51
685.349	32.78
685.535	32.41
685.721	32.7
685.907	32.35
686.092	32.2
686.278	32.07
686.464	31.67
686.649	31.37
686.835	31.3
687.021	31.41
687.206	31.89
687.392	32.11
687.577	32.16
687.763	32.3
687.948	32.62
688.134	32.51
688.319	32.84
688.505	33.07
688.69	33.48
688.876	33.43
689.061	33.33
689.247	33.39
689.432	33.3
689.618	33.11
689.803	33.04
689.988	33.27
690.174	33
690.359	33.37
690.544	32.92
690.73	32.35
690.915	31.98
691.1	32.08
691.285	31.95
691.471	31.67
691.656	31.69
691.841	31.49
692.026	30.99
692.211	31.23
692.396	30.63
692.582	31.25
692.767	31.54
692.952	31.66
693.137	31.79
693.322	31.09
693.507	31.11
693.692	31.24
693.877	31.8
694.062	32.25
694.247	32.43
694.432	32.17
694.617	32.39
694.802	31.86
694.987	32.27
695.172	32.39
695.357	32.08
695.541	31.79
695.726	32.47
695.911	31.66
696.096	31.33
696.281	31.5
696.466	31.62
696.65	31.04
696.835	31.35
697.02	31.19
697.204	31.1
697.389	31.58
697.574	31.81
697.759	31.45
697.943	31.49
698.128	31.81
698.312	31.41
698.497	31.38
698.682	31.42
698.866	31.09
699.051	31.4
699.235	31.69
699.42	31.51
699.604	31.63
699.789	32.03
699.973	32.35
700.158	32.2
700.342	32.16
700.527	32.64
700.711	33.32
700.895	33.79
701.08	33.64
701.264	33.16
701.448	33.42
701.633	33.56
701.817	32.81
702.001	32.35
702.186	31.96
702.37	31.78
702.554	30.74
702.738	30.35
702.923	30.56
703.107	30.85
703.291	30.9
703.475	31.22
703.659	31.56
703.843	31.75
704.027	31.66
704.212	31.33
704.396	31.8
704.58	32.43
704.764	31.65
704.948	31.72
705.132	31.12
705.316	31.89
705.5	31.51
705.684	31.57
705.868	31.81
706.052	32.09
706.235	32.92
706.419	33.31
706.603	33.24
706.787	34.38
706.971	33.68
707.155	33.43
707.339	32.87
707.522	32.28
707.706	31.32
707.89	31.51
708.074	31.5
708.257	31.67
708.441	30.99
708.625	30.83
708.808	30.4
708.992	30.37
709.176	31.05
709.359	31.11
709.543	31.58
709.727	32.31
709.91	31.94
710.094	32.08
710.277	31.85
710.461	32.3
710.644	32.38
710.828	31.73
711.011	31.94
711.195	31.57
711.378	31.39
711.562	31.42
711.745	31.12
711.928	30.77
712.112	30.8
712.295	30.92
712.478	31.48
712.662	31.63
712.845	31.66
713.028	30.95
713.212	31.42
713.395	31.59
713.578	31.7
713.761	31.95
713.945	32.46
714.128	32.56
714.311	31.74
714.494	30.98
714.677	31.24
714.86	31.4
715.043	32.48
715.227	32.43
715.41	32.13
715.593	32.06
715.776	31.84
715.959	32.24
716.142	32.39
716.325	33.19
716.508	33.51
716.691	32.76
716.874	33.24
717.057	33.86
717.239	34.1
717.422	34.52
717.605	34.68
717.788	34.76
717.971	35
718.154	35.12
718.337	34.55
718.519	34.28
718.702	34.49
718.885	33.86
719.068	32.27
719.25	32.09
719.433	31.78
719.616	31.1
719.798	30.57
719.981	30.85
720.164	30.9
720.346	31.86
720.529	31.82
720.712	32.21
720.894	32.39
721.077	33.27
721.259	32.48
721.442	32.84
721.624	32.94
721.807	34.08
721.989	33.02
722.172	32.42
722.354	31.86
722.537	32.12
722.719	30.47
722.901	29.95
723.084	29.74
723.266	29.8
723.448	28.61
723.631	29.48
723.813	29.53
723.995	29.08
724.178	29.08
724.36	29.6
724.542	28.4
724.724	30.35
724.907	30.46
725.089	30.86
725.271	32.53
725.453	33.02
725.635	33.26
725.817	32.21
725.999	33.72
726.181	33.57
726.364	33.64
726.546	35.31
726.728	35.24
726.91	35.43
727.092	34.88
727.274	34.56
727.456	34.93
727.638	34.11
727.819	34.18
728.001	34.11
728.183	33.94
728.365	33.74
728.547	33.44
728.729	32.95
728.911	34.04
729.093	33.63
729.274	32.11
729.456	31.74
729.638	33.08
729.82	32.53
730.001	31.09
730.183	31.65
730.365	32.23
730.546	31.9
730.728	32.01
730.91	31.55
731.091	31.76
731.273	32.58
731.455	32.32
731.636	31.52
731.818	32.27
731.999	33.15
732.181	33.94
732.362	33.22
732.544	33.17
732.725	33.4
732.907	33.01
733.088	32.59
733.27	32.97
733.451	33.04
733.633	33.84
733.814	33.95
733.995	33.78
734.177	32.83
734.358	33.43
734.539	32.92
734.721	33.08
734.902	33.53
735.083	33.77
735.264	34.32
735.446	34.43
735.627	32.37
735.808	33.09
735.989	33.08
736.17	34.03
736.351	34.21
736.533	34.79
736.714	33.14
736.895	33.18
737.076	34.28
737.257	32.88
737.438	34.22
737.619	35.22
737.8	33.93
737.981	33.54
738.162	32.94
738.343	32.04
738.524	31.9
738.705	32.83
738.886	31.69
739.067	31
739.247	31.06
739.428	29.52
739.609	29.97
739.79	30.43
739.971	31.8
740.151	31.87
740.332	31.85
740.513	32.13
740.694	32.66
740.874	34.41
741.055	35.32
741.236	35.16
741.417	35.15
741.597	34.85
741.778	34.66
741.958	33.21
742.139	33.36
742.32	34.75
742.5	33.96
742.681	34.74
742.861	33.96
743.042	33.86
743.222	33.46
743.403	34.05
743.583	33.27
743.764	33.95
743.944	34.68
744.124	34.89
744.305	35.09
744.485	36.5
744.666	35.2
744.846	35.37
745.026	34.8
745.207	34.43
745.387	34.68
745.567	34.55
745.747	33.81
745.928	33.54
746.108	32.92
746.288	31.51
746.468	31.41
746.648	30.9
746.829	30.82
747.009	30.57
747.189	31.24
747.369	31.46
747.549	33.13
747.729	32.37
747.909	31.88
748.089	30.52
748.269	30.18
748.449	29.74
748.629	31.32
748.809	30.99
748.989	30.82
749.169	29.65
749.349	30.11
749.529	29.24
749.709	30.3
749.889	30.87
750.068	31.7
750.248	30.68
750.428	29.72
750.608	28.58
750.788	27.48
750.967	27.42
751.147	29.09
751.327	28.92
751.507	27.96
751.686	27.86
751.866	27.14
752.046	26.07
752.225	27.76
752.405	28.85
752.585	28.58
752.764	29.53
752.944	29.33
753.123	30.42
753.303	29.75
753.482	30.58
753.662	30.66
753.841	31.93
754.021	34.26
754.2	33.7
754.38	33.12
754.559	34.09
754.739	32.19
754.918	32.69
755.097	32.03
755.277	32.09
755.456	31.2
755.635	31.73
755.815	31.4
755.994	31.79
756.173	31.26
756.352	31.27
756.532	31
756.711	33.45
756.89	34.18
757.069	34.21
757.248	33.08
757.427	34.39
757.607	35.11
757.786	34.39
757.965	33.92
758.144	34.8
758.323	34.21
758.502	34.01
758.681	33.69
758.86	33.08
759.039	32.41
759.218	34.57
759.397	33.2
759.576	31.37
759.755	31.54
759.934	31.56
760.113	31.02
760.291	32.78
760.47	33.56
760.649	34.76
760.828	34.49
761.007	35.04
761.186	35.51
761.364	35.58
761.543	36.2
761.722	35.84
761.901	35.12
762.079	34.68
762.258	33.86
762.437	32.25
762.615	32.04
762.794	33.58
762.972	33.4
763.151	32.65
763.33	33.41
763.508	34.14
763.687	34.38
763.865	34.74
764.044	35.42
764.222	35.57
764.401	36.15
764.579	35.98
764.758	34.46
764.936	34.14
765.114	34.69
765.293	34.95
765.471	33.85
765.65	33.78
765.828	33.19
766.006	33.41
766.184	34.68
766.363	35.62
766.541	35.58
766.719	35.39
766.898	35.77
767.076	36.08
767.254	34.09
767.432	34
767.61	35.31
767.788	36.29
767.967	35.72
768.145	34.97
768.323	33.99
768.501	35.04
768.679	36.52
768.857	36.01
769.035	34.45
769.213	37.84
769.391	36.72
769.569	35.36
769.747	34.57
769.925	32.14
770.103	31.41
770.281	30.59
770.459	29.28
770.636	27.95
770.814	28.49
770.992	30.23
771.17	29.81
771.348	30.44
771.525	29.5
771.703	30.58
771.881	33.16
772.059	32.98
772.236	33.41
772.414	33.66
772.592	33.6
772.769	32.01
772.947	30.04
773.125	29.14
773.302	29.46
773.48	30.93
773.657	27.52
773.835	25.86
774.013	24.38
774.19	24.42
774.368	23.69
774.545	26.28
774.723	28.12
774.9	28.97
775.077	28.14
775.255	27.16
775.432	26.96
775.61	27.63
775.787	29.01
775.964	31.18
776.142	32.81
776.319	33.08
776.496	30.47
776.674	31
776.851	29.27
777.028	30.88
777.205	30.85
777.382	30.3
777.56	31.88
777.737	30.48
777.914	25.27
778.091	21.38
778.268	20.48
778.445	24.57
778.622	24.8
778.8	24.35
778.977	23.14
779.154	22.76
779.331	24.37
779.508	22.63
779.685	23.78
779.862	29.08
780.038	30.94
780.215	33.15
780.392	29.38
780.569	30.89
780.746	33.8
780.923	34.23
781.1	38.51
781.277	35.7
781.453	36.24
781.63	37.34
781.807	37.25
781.984	37.88
782.16	35.7
782.337	38.27
782.514	36.02
782.691	37.78
782.867	39.29
783.044	39.05
783.221	39.69
783.397	38.35
783.574	37.93
783.75	39.06
783.927	41.15
784.103	43.48
784.28	40.95
784.456	40.92
784.633	37.62
784.809	36.92
784.986	36.21
785.162	34.26
785.339	38.32
785.515	38.16
785.692	35.4
785.868	31.24
786.044	28.14
786.221	27.83
786.397	25.74
786.573	22.59
786.749	20.92
786.926	20.19
787.102	25.13
787.278	25.67
787.454	24.92
787.631	24.91
787.807	26.41
787.983	28.98
788.159	27.42
788.335	27.08
788.511	27.83
788.687	27.68
788.863	25.8
789.039	27.14
789.216	24.88
789.392	25.78
789.568	25.76
789.744	26.83
789.919	26.42
790.095	28.14
790.271	31.22
790.447	34.67
790.623	36.2
790.799	36
790.975	33.89
791.151	35.13
791.327	32.53
791.502	34.18
791.678	35.48
791.854	36.87
792.03	37.25
792.205	33.54
792.381	30.31
792.557	28.08
792.733	31.13
792.908	30.6
793.084	32
793.259	33.72
793.435	33.33
793.611	33.45
793.786	31.31
793.962	29.95
794.137	32.62
794.313	33.79
794.488	31.83
794.664	31.67
794.839	30.81
795.015	28.2
795.19	28.02
795.366	27.88
795.541	27.73
795.716	28.78
795.892	33.01
796.067	34.56
796.242	34.43
796.418	39.26
796.593	41.41
796.768	42.9
796.944	46.26
797.119	45.49
797.294	42.2
797.469	39.92
797.644	38.92
797.82	37.92
797.995	35.12
798.17	33.82
798.345	33.52
798.52	29.45
798.695	31.18
798.87	28.37
799.045	29.21
799.22	31.97
799.395	31.94
799.57	31.91
799.745	33.2
799.92	32.95
800.095	35.71
800.27	34.67
800.445	36.52
800.62	32.79
800.795	34.3
800.97	34.45
801.145	32.3
801.319	34.83
801.494	35.39
801.669	32.99
801.844	32.64
802.018	32.61
802.193	31.46
802.368	24.86
802.543	25.2
802.717	23.61
802.892	22.92
803.067	26.42
803.241	26.59
803.416	25.51
803.59	23.27
803.765	25.97
803.94	26.01
804.114	28.23
804.289	33.1
804.463	32.11
804.638	33.73
804.812	35.38
804.986	34.77
805.161	35.3
805.335	34.51
805.51	36.37
805.684	33.99
805.858	34.68
806.033	30.47
806.207	29.72
806.381	30.89
806.556	27.4
806.73	27.06
806.904	30.75
807.078	31.35
807.253	33.69
807.427	35.56
807.601	39.48
807.775	41.84
807.949	41.62
808.123	38.95
808.298	43.63
808.472	45.86
808.646	46.81
808.82	39.96
808.994	34.36
809.168	30.11
809.342	33.1
809.516	28.6
809.69	26.12
809.864	27.81
810.038	33.05
810.212	35.21
810.385	37.11
810.559	35.56
810.733	40.95
810.907	44.6
811.081	50.59
811.255	46.71
811.428	49.88
811.602	45.72
811.776	47.54
811.95	44.88
812.123	40.22
812.297	40.17
812.471	44.27
812.644	38.87
812.818	38.35
812.992	36.76
813.165	34.05
813.339	31.11
813.512	34.78
813.686	35.63
813.86	38.59
814.033	36.33
814.207	34.82
814.38	34.4
814.554	36.76
814.727	38.56
814.9	43.26
815.074	44.34
815.247	46.68
815.421	46.98
815.594	45.9
815.767	40.05
815.941	42.4
816.114	44.83
816.287	45.7
816.46	44.69
816.634	43.85
816.807	40.01
816.98	48.54
817.153	50.05
817.327	52.85
817.5	52.53
817.673	57.58
817.846	57.01
818.019	55.74
818.192	55.64
818.365	56.64
818.538	58.98
818.711	56.11
818.884	46.45
819.057	48.05
819.23	45.95
819.403	48.66
819.576	43.61
819.749	47.74
819.922	48.56
820.095	48.23
820.268	44.4
820.441	43.09
820.614	42.27
820.786	42.97
820.959	41.34
821.132	38.45
821.305	36.27
821.477	36.84
821.65	32.7
821.823	31.87
821.996	31.25
822.168	31.76
822.341	31.14
822.514	31.8
822.686	32.88
822.859	32.42
823.031	33.43
823.204	32.84
823.376	33.63
823.549	34.87
823.722	35.6
823.894	35.72
824.067	36.7
824.239	37.93
824.411	38.21
824.584	38.11
824.756	39.2
824.929	37.99
825.101	38.35
825.273	37.6
825.446	37.74
825.618	36.93
825.79	36.64
825.963	36.79
826.135	35.51
826.307	36.04
826.479	35.56
826.652	34.79
826.824	37.77
826.996	38.96
827.168	39.37
827.34	39.03
827.512	37.69
827.684	37.07
827.856	36.06
828.029	35.14
828.201	33.44
828.373	32.32
828.545	31.76
828.717	29.99
828.889	28.9
829.061	29.07
829.232	27.47
829.404	30.21
829.576	33.23
829.748	32.17
829.92	35.54
830.092	36.27
830.264	37.1
830.436	39.72
830.607	39.63
830.779	39.78
830.951	35.54
831.123	34.33
831.294	33.68
831.466	26.42
831.638	24.62
831.809	22.67
831.981	21.5
832.153	23.5
832.324	21.68
832.496	17.39
832.667	17.95
832.839	26.6
833.011	34.34
833.182	35.32
833.354	39.13
833.525	35.58
833.697	32.92
833.868	32.7
834.039	30
834.211	31.59
834.382	34.28
834.554	36.22
834.725	35.59
834.896	33.92
835.068	33.83
835.239	36.64
835.41	40.73
835.581	40.82
835.753	42.9
835.924	43.33
836.095	44.11
836.266	42.19
836.438	42.16
836.609	42.54
836.78	44.64
836.951	43.86
837.122	42.07
837.293	44.64
837.464	44.22
837.635	46.09
837.806	50.37
837.977	48.62
838.148	50.32
838.319	43.61
838.49	48.19
838.661	47.5
838.832	52.12
839.003	53.99
839.174	53.45
839.345	57.28
839.516	51.54
839.687	55.09
839.857	50.45
840.028	53.56
840.199	58.7
840.37	51.49
840.54	52.16
840.711	47.17
840.882	38.55
841.053	33.09
841.223	33.28
841.394	38.48
841.564	27.77
841.735	39.62
841.906	34.92
842.076	33.37
842.247	25.21
842.417	25.15
842.588	24.45
842.758	30.43
842.929	29.9
843.099	31.46
843.27	33.64
843.44	37.37
843.611	31.15
843.781	35.87
843.951	49.46
844.122	60.78
844.292	55.95
844.462	67
844.633	81.59
844.803	88.18
844.973	93.28
845.144	85.71
845.314	105.78
845.484	91.25
845.654	83.82
845.824	77.72
845.995	88.6
846.165	101.48
846.335	90.37
846.505	76.36
846.675	70.36
846.845	62.67
847.015	59.56
847.185	62.77
847.355	79.46
847.525	84.7
847.695	71.7
847.865	56.85
848.035	52.53
848.205	55.36
848.375	54.62
848.545	56.48
848.715	61.09
848.884	60.51
849.054	54.8
849.224	43.7
849.394	40.59
849.564	38.88
849.733	45.28
849.903	58.32
850.073	55.77
850.243	60.51
850.412	57.63
850.582	51.07
850.752	65.7
850.921	74.96
851.091	71.18
851.26	66.76
851.43	55.9
851.599	53.63
851.769	23.89
851.939	16.26
852.108	22.9
852.278	21.94
852.447	14.55
852.616	7.79
852.786	2.41
852.955	13.37
853.125	11.81
853.294	29.38
853.463	28.84
853.633	42.04
853.802	36.42
853.971	35.52
854.141	49.36
854.31	61.68
854.479	52.4
854.648	55.93
854.818	55.57
854.987	54.85
855.156	59.45
855.325	53.98
855.494	59.3
855.663	61.06
855.832	45.73
856.001	39.14
856.171	42.44
856.34	47.43
856.509	33.02
856.678	26.85
856.847	28.21
857.016	12.6
857.185	18.96
857.353	5.86
857.522	19.7
857.691	40.99
857.86	53.76
858.029	54.73
858.198	58.42
858.367	69.79
858.535	74.35
858.704	78.71
858.873	92.35
859.042	87.91
859.21	86.53
859.379	78.39
859.548	85.35
859.717	70.06
859.885	67.97
860.054	54.13
860.222	39.9
860.391	38.25
860.56	20.54
860.728	39.03
860.897	37.65
861.065	34.73
861.234	60.15
861.402	67.93
861.571	72.85
861.739	46.1
861.908	63.66
862.076	102.32
862.244	112.82
862.413	130.11
862.581	90.19
862.749	93.46
862.918	103.56
863.086	74.18
863.254	58.02
863.423	58.99
863.591	71.91
863.759	80.33
863.927	71.05
864.096	61.48
864.264	70.88
864.432	77.56
864.6	55.65
864.768	45.81
864.936	64.34
865.104	76.42
865.272	81.42
865.44	89.19
865.608	85.55
865.776	77.87
865.944	89.7
866.112	85.4
866.28	91.18
866.448	136.14
866.616	221.24
866.784	136.09
866.952	157.07
867.12	142.56
867.288	105.45
867.455	102.17
867.623	112.51
867.791	90.08
867.959	77.4
868.127	69.16
868.294	102.2
868.462	86.99
868.63	119.27
868.797	91.84
868.965	66.99
869.133	90.39
869.3	73.31
869.468	73.47
869.636	66.87
869.803	66.44
869.971	64.95
870.138	51.12
870.306	45.44
870.473	22.97
870.641	8.2
870.808	12.24
870.975	-2.04
871.143	12.07
871.31	20.04
871.478	17.07
871.645	22.19
871.812	43.86
871.98	43.3
872.147	34.6
872.314	44.22
872.482	70.99
872.649	74.66
872.816	72.92
872.983	57.36
873.15	49.1
873.318	48.73
873.485	52.14
873.652	29.84
873.819	25.76
873.986	50.49
874.153	51.62
874.32	32.78
874.487	21.28
874.654	38.72
874.821	31.09
874.988	29.23
875.155	37.48
875.322	25.11
875.489	29.65
875.656	34.9
875.823	33.18
875.99	14.52
876.157	8.2
876.324	34.21
876.49	12.35
876.657	21.68
876.824	-19.71
876.991	-25.1
877.157	-8.02
877.324	13.68
877.491	10.44
877.658	7.91
877.824	32.41
877.991	37.42
878.157	42.5
878.324	59.48
878.491	47.66
878.657	69.99
878.824	62.15
878.99	62.63
879.157	49.81
879.323	40.89
879.49	46.94
879.656	35.21
879.823	45.96
879.989	35.08
880.156	34.18
880.322	56.31
880.488	46.82
880.655	54.66
880.821	59.55
880.987	66.3
881.154	65.45
881.32	47.78
881.486	55.95
881.652	59.16
881.819	60.6
881.985	55.11
882.151	47.48
882.317	46.82
882.483	43.06
882.649	44.46
882.816	44.12
882.982	42.88
883.148	43.96
883.314	45.63
883.48	41.85
883.646	38.83
883.812	36.7
883.978	36.13
884.144	37.6
884.31	39.54
884.476	37.58
884.642	35.89
884.807	39.52
884.973	38.97
885.139	33.47
885.305	34.14
885.471	35.85
885.637	33.71
885.802	30.5
885.968	30.99
886.134	26.32
886.3	20.97
886.465	23.34
886.631	14.24
886.797	14.93
886.962	17.52
887.128	16.32
887.293	13.26
887.459	23.73
887.625	25.71
887.79	17.56
887.956	33.9
888.121	41.57
888.287	38.53
888.452	43.01
888.618	42.19
888.783	48.92
