Data from 2937808_Reflection_2.txt Node
Date: Wed Jul 15 17:52:49 EDT 2015
User: robert
Spectrometer: USB4E03001
Autoset integration time: false
Trigger mode: 4
Integration Time (sec): 1.000000E-1
Scans to average: 10
Electric dark correction enabled: true
Nonlinearity correction enabled: false
Boxcar width: 5
Stray light correction enabled: false
XAxis mode: Wavelengths
Stop averaging: false
Number of Pixels in Spectrum: 3648
>>>>>Begin Spectral Data<<<<<
177.566	-13.54
177.785	-83.13
178.005	-20.72
178.225	-331.33
178.445	108.15
178.665	523.5
178.885	329.44
179.105	-61.26
179.324	-20.03
179.544	-6.18
179.764	-10.03
179.984	8.12
180.204	-67.79
180.423	-73.57
180.643	-123.68
180.863	-64.26
181.083	-84.3
181.302	-96.15
181.522	-86.6
181.742	-157.16
181.961	30210
182.181	497.99
182.401	349.92
182.621	256.04
182.84	28.74
183.06	73.4
183.279	76.9
183.499	64.53
183.719	21.25
183.938	57.58
184.158	76.81
184.377	79.27
184.597	90.23
184.816	282.06
185.036	-51.54
185.256	-5.45
185.475	50
185.695	56.07
185.914	7.58
186.134	3.38
186.353	43.11
186.572	29.32
186.792	0.23
187.011	10
187.231	-17.62
187.45	0.66
187.67	-46.55
187.889	-241.94
188.108	-77.7
188.328	-7.94
188.547	27.03
188.766	19.41
188.986	42.28
189.205	78.02
189.424	46.69
189.644	44.36
189.863	67.4
190.082	47.28
190.302	37.14
190.521	-20.23
190.74	-30.74
190.959	-91.67
191.178	-365.83
191.398	-600
191.617	-30.19
191.836	-20.75
192.055	-12.17
192.274	-18.04
192.494	-11.13
192.713	-2.41
192.932	51.66
193.151	36.27
193.37	67.76
193.589	57.69
193.808	10.23
194.027	-8.93
194.246	33.36
194.465	58.78
194.685	120.68
194.904	147.14
195.123	111.05
195.342	161.22
195.561	123.73
195.78	-531.58
195.999	43.81
196.218	47.36
196.436	116.9
196.655	164.76
196.874	208.13
197.093	459.06
197.312	450.55
197.531	612.21
197.75	-104.34
197.969	-57.67
198.188	-30.58
198.407	0.27
198.625	36.76
198.844	41.79
199.063	45.58
199.282	40.22
199.501	4.86
199.719	-8.91
199.938	-5.47
200.157	-1.5
200.376	-15.55
200.594	-47.42
200.813	-131.86
201.032	-176
201.251	663.28
201.469	389.11
201.688	202.85
201.907	37.92
202.125	36.77
202.344	-237.97
202.563	-261.1
202.781	-217.37
203	-561.5
203.218	-476.11
203.437	4265.44
203.656	175.6
203.874	164.3
204.093	152.54
204.311	150.56
204.53	141.29
204.748	106.09
204.967	72.67
205.185	71.22
205.404	54.61
205.622	54.16
205.841	40.64
206.059	49.23
206.278	43.66
206.496	-548.26
206.715	-78.01
206.933	-213.24
207.151	-3409.4
207.37	319.01
207.588	801.04
207.806	-218.21
208.025	-117.99
208.243	-303.8
208.461	-225.59
208.68	-125.34
208.898	-168.15
209.116	-912.32
209.335	730.61
209.553	715.92
209.771	616.08
209.989	-1878.69
210.208	297.53
210.426	149.98
210.644	-1474.55
210.862	-206.49
211.081	-238.43
211.299	-81.05
211.517	605.59
211.735	-7953.12
211.953	92.14
212.171	107.51
212.39	535.14
212.608	306
212.826	178.31
213.044	-40.92
213.262	103.78
213.48	-2157.66
213.698	-1053.65
213.916	319.96
214.134	267.32
214.352	429.86
214.57	-3412.24
214.788	-1192.56
215.006	2924.74
215.224	959.02
215.442	117.51
215.66	26.03
215.878	-50.06
216.096	1031.46
216.314	154.99
216.532	122.67
216.75	103.49
216.968	20.44
217.185	21.99
217.403	-11.57
217.621	34.65
217.839	59.85
218.057	38.33
218.275	12.46
218.492	-277.29
218.71	114.75
218.928	-3.94
219.146	-15.56
219.363	-116.83
219.581	-26.25
219.799	-167.47
220.017	-65.86
220.234	-901.63
220.452	-2234.65
220.67	949.37
220.887	-267.03
221.105	-167.98
221.323	-54.07
221.54	-68.1
221.758	-99.55
221.976	-629.68
222.193	194.05
222.411	89.24
222.629	60.04
222.846	34.15
223.064	43.41
223.281	11.27
223.499	-8.12
223.716	0.04
223.934	0.21
224.151	-27.2
224.369	-22.19
224.586	-12.55
224.804	-62.53
225.021	-12.56
225.239	19.23
225.456	6.07
225.674	6.53
225.891	56.09
226.108	94.74
226.326	56.68
226.543	1678.04
226.76	-139.25
226.978	-3.96
227.195	-26.11
227.413	21.71
227.63	35.97
227.847	39.47
228.064	34.71
228.282	35.23
228.499	39.93
228.716	32.18
228.934	29.37
229.151	35.94
229.368	26.05
229.585	22.45
229.802	19.49
230.02	17.74
230.237	11.06
230.454	8.35
230.671	6.69
230.888	-9.93
231.105	-0.7
231.323	-0.3
231.54	-0.09
231.757	5.14
231.974	7.49
232.191	-1.97
232.408	1.97
232.625	4.43
232.842	24.37
233.059	2.71
233.276	8.85
233.493	-14.16
233.71	-17.05
233.927	-33.67
234.144	-14.53
234.361	-28.4
234.578	-18.73
234.795	-26.99
235.012	-18.13
235.229	-23.62
235.446	-7.13
235.663	-2.55
235.879	-0.02
236.096	4.56
236.313	4.99
236.53	-1.06
236.747	17.11
236.964	5.56
237.181	3.98
237.397	-6.13
237.614	-17.49
237.831	-21.31
238.048	-28.3
238.264	-26.88
238.481	-21.36
238.698	-0.8
238.915	2.27
239.131	-4.39
239.348	8.84
239.565	16.2
239.781	15.79
239.998	10.42
240.215	8.33
240.431	17.07
240.648	16.65
240.865	15.91
241.081	10.92
241.298	9.8
241.514	12.66
241.731	10.62
241.947	7.76
242.164	10.69
242.38	15.02
242.597	20.04
242.814	18.12
243.03	18.24
243.246	20.17
243.463	21.98
243.679	22.64
243.896	20.87
244.112	19.26
244.329	22.41
244.545	20.71
244.762	20.05
244.978	15.11
245.194	17.04
245.411	15.09
245.627	10.89
245.843	9.29
246.06	9.57
246.276	11.7
246.492	14.33
246.709	12.86
246.925	13.78
247.141	15.56
247.357	14.72
247.574	16.71
247.79	17.55
248.006	19.11
248.222	19.25
248.439	19.6
248.655	18.18
248.871	17.14
249.087	15.47
249.303	17.1
249.519	15.56
249.736	16.42
249.952	12.76
250.168	12.38
250.384	9.91
250.6	9.62
250.816	8.41
251.032	12.35
251.248	12.74
251.464	13.38
251.68	8.97
251.896	8.06
252.112	10.96
252.328	8.56
252.544	6.67
252.76	4.82
252.976	3.57
253.192	2.85
253.408	1.54
253.624	0.09
253.84	3.97
254.056	4.64
254.272	0.49
254.487	-3.49
254.703	-1.69
254.919	0.03
255.135	7.04
255.351	13.18
255.567	10.25
255.782	11.95
255.998	7.25
256.214	6.22
256.43	6.17
256.646	6.63
256.861	5.77
257.077	6.14
257.293	4.49
257.508	2.18
257.724	-4.4
257.94	-1.5
258.155	0.56
258.371	4.09
258.587	5.1
258.802	3.77
259.018	8.07
259.234	8.39
259.449	7.59
259.665	8.96
259.88	10.84
260.096	13.15
260.312	12.92
260.527	13.38
260.743	14.68
260.958	13.44
261.174	14.81
261.389	13.37
261.605	14.33
261.82	11.83
262.036	11.42
262.251	8.43
262.466	5.75
262.682	6.16
262.897	2.42
263.113	0.32
263.328	0.95
263.543	1.23
263.759	0.14
263.974	1.09
264.189	8.05
264.405	6.7
264.62	7.45
264.835	6.58
265.051	4.79
265.266	5.84
265.481	5.81
265.696	11.15
265.912	11.04
266.127	10.75
266.342	9.36
266.557	8.29
266.773	11.45
266.988	12.68
267.203	13.85
267.418	14.2
267.633	14.29
267.848	11.67
268.064	7.95
268.279	10.89
268.494	11.4
268.709	10.66
268.924	10.69
269.139	10.83
269.354	9.98
269.569	8.33
269.784	7.72
269.999	5.75
270.214	5.52
270.429	6.9
270.644	5.15
270.859	8.99
271.074	11.05
271.289	11.22
271.504	10.19
271.719	11.1
271.934	13.56
272.149	13.11
272.363	15.7
272.578	17.43
272.793	17.63
273.008	16.25
273.223	13.63
273.438	11.72
273.653	13.48
273.867	14.39
274.082	12.33
274.297	13.25
274.512	12.29
274.726	9.96
274.941	10.88
275.156	10
275.371	11.3
275.585	11.88
275.8	12.88
276.015	9.86
276.229	7.17
276.444	7.91
276.659	5.74
276.873	8.18
277.088	6.5
277.302	5.62
277.517	5.6
277.732	0.44
277.946	-0.74
278.161	-2.18
278.375	0.17
278.59	-0.87
278.804	0.25
279.019	-0
279.233	0.28
279.448	4.03
279.662	6.28
279.877	8.58
280.091	10.35
280.306	11.49
280.52	13.32
280.735	12.17
280.949	13.43
281.163	14.77
281.378	11.88
281.592	9.74
281.806	8.8
282.021	6.11
282.235	2.38
282.449	3.12
282.664	2.95
282.878	3.85
283.092	4.27
283.307	4.57
283.521	5.03
283.735	9.2
283.949	11.97
284.164	13.09
284.378	14.11
284.592	16.54
284.806	15.18
285.02	15.13
285.234	12.56
285.449	12.85
285.663	11.18
285.877	10.01
286.091	9.66
286.305	8.6
286.519	7.38
286.733	7.34
286.947	5.26
287.161	8.24
287.375	8.84
287.589	10.15
287.803	10.52
288.017	12.48
288.231	12.85
288.445	10.17
288.659	9.75
288.873	10.03
289.087	10.29
289.301	13.71
289.515	13.98
289.729	14.9
289.943	13.81
290.157	13.08
290.371	11.54
290.584	12.12
290.798	14.88
291.012	15.71
291.226	15.73
291.44	16.17
291.654	14.73
291.867	14.93
292.081	12.93
292.295	14.51
292.509	16.1
292.722	16.29
292.936	13.27
293.15	14.28
293.364	13.84
293.577	13.09
293.791	12.27
294.005	11.09
294.218	9.37
294.432	10.31
294.645	10.26
294.859	9.34
295.073	11.04
295.286	14.18
295.5	14.46
295.713	14.73
295.927	15.05
296.14	15.63
296.354	16.27
296.568	15.44
296.781	15.96
296.994	17.83
297.208	17.51
297.421	16.65
297.635	16.01
297.848	13.65
298.062	15.36
298.275	15.97
298.489	14.94
298.702	14.99
298.915	17.69
299.129	17.59
299.342	14.04
299.555	13.8
299.769	15.06
299.982	15.54
300.195	17.69
300.409	16.48
300.622	16.03
300.835	17.08
301.048	14.77
301.262	13.3
301.475	12.91
301.688	14.13
301.901	14.03
302.115	12.77
302.328	11.89
302.541	9.72
302.754	4.53
302.967	5.28
303.18	4.66
303.393	6.28
303.607	7.9
303.82	8.4
304.033	9.44
304.246	10.4
304.459	10.85
304.672	10.11
304.885	10.92
305.098	15.76
305.311	14.35
305.524	13.8
305.737	13.03
305.95	12.7
306.163	11.31
306.376	13.12
306.589	15.2
306.802	16.2
307.015	16.35
307.228	16.79
307.44	17.06
307.653	18.79
307.866	20.73
308.079	22.89
308.292	20.97
308.505	22.92
308.718	21.55
308.93	20.46
309.143	19.42
309.356	21.52
309.569	21.53
309.781	19.75
309.994	20.26
310.207	19.69
310.42	18.73
310.632	19.35
310.845	18.1
311.058	19.34
311.27	18.45
311.483	17.04
311.696	16.39
311.908	16.26
312.121	16.07
312.333	13.66
312.546	12.75
312.759	11.81
312.971	9.66
313.184	8.68
313.396	5.05
313.609	2.25
313.821	3.95
314.034	0.67
314.246	-0.6
314.459	2.66
314.671	2.6
314.884	1.99
315.096	3.8
315.309	6.58
315.521	12.03
315.733	11.91
315.946	15.6
316.158	15.93
316.371	15.72
316.583	18.65
316.795	15.96
317.008	16.63
317.22	16.96
317.432	17.63
317.644	16.28
317.857	11.97
318.069	12.08
318.281	12.64
318.494	12.18
318.706	14.6
318.918	9.54
319.13	8.8
319.342	8.63
319.555	10.24
319.767	8.46
319.979	9.75
320.191	10.46
320.403	13.05
320.615	12.95
320.827	13.4
321.039	7.09
321.252	8.69
321.464	6.3
321.676	7.69
321.888	5.44
322.1	6.51
322.312	6.92
322.524	4.17
322.736	1.42
322.948	-0.14
323.16	-1.28
323.372	4.91
323.584	4.89
323.796	7.44
324.007	8.19
324.219	11.32
324.431	10.35
324.643	9.79
324.855	11.88
325.067	14.68
325.279	14.97
325.491	15.48
325.702	14.12
325.914	14.29
326.126	13.73
326.338	12.97
326.55	11.59
326.761	11.1
326.973	11.73
327.185	11.17
327.396	8.63
327.608	8.16
327.82	9.41
328.032	10.08
328.243	11.03
328.455	10.58
328.666	11.61
328.878	11.72
329.09	13.26
329.301	11.78
329.513	12.09
329.725	13.42
329.936	12.52
330.148	10.29
330.359	10.82
330.571	10.68
330.782	11.14
330.994	11.1
331.205	9.85
331.417	7.51
331.628	9.75
331.84	10.1
332.051	8.98
332.262	8.27
332.474	10.36
332.685	7.28
332.897	5.91
333.108	5.27
333.319	6.28
333.531	5.44
333.742	6.87
333.953	5.42
334.165	6.61
334.376	8.02
334.587	7.33
334.799	8.3
335.01	10.75
335.221	11.28
335.432	11.08
335.644	8.29
335.855	9.16
336.066	6.57
336.277	7.32
336.488	6.36
336.7	5.5
336.911	8.28
337.122	7
337.333	5.57
337.544	4.94
337.755	5.6
337.966	5.75
338.177	6.01
338.388	8.46
338.599	7.12
338.811	7.54
339.022	6.78
339.233	5.27
339.444	5.76
339.655	7.18
339.866	6.73
340.076	8.12
340.287	8.59
340.498	8.56
340.709	8.75
340.92	10.65
341.131	9.65
341.342	9.4
341.553	9.17
341.764	10.53
341.975	10.41
342.185	11.54
342.396	10.56
342.607	11.82
342.818	12.95
343.029	14.11
343.239	15.05
343.45	14.03
343.661	15.35
343.872	16.98
344.082	15.52
344.293	14.88
344.504	15.33
344.714	14.82
344.925	14.23
345.136	13.22
345.346	12.62
345.557	9.7
345.768	11.12
345.978	11.08
346.189	8.1
346.399	7.87
346.61	8.36
346.821	8.27
347.031	9.91
347.242	10.11
347.452	9.81
347.663	9.01
347.873	9.75
348.084	8.63
348.294	7.43
348.504	9.38
348.715	10.71
348.925	11.16
349.136	12.29
349.346	11.1
349.557	9.17
349.767	9.9
349.977	10.99
350.188	10.37
350.398	11.75
350.608	13.43
350.819	13.46
351.029	10.54
351.239	10.63
351.449	8.73
351.66	6.36
351.87	6.73
352.08	7.46
352.29	6.45
352.501	7.01
352.711	6.7
352.921	5.03
353.131	3.91
353.341	4.84
353.552	5.93
353.762	5.9
353.972	8.47
354.182	8.33
354.392	7.97
354.602	9.25
354.812	10.04
355.022	9.11
355.232	8.85
355.442	10.59
355.652	11.59
355.862	10.42
356.072	10.24
356.282	9.24
356.492	10.18
356.702	9.96
356.912	9.75
357.122	9.18
357.332	9.78
357.542	11.37
357.752	10.41
357.962	10.36
358.171	10.21
358.381	11.17
358.591	12.14
358.801	12.02
359.011	11.75
359.221	11.47
359.43	12.5
359.64	12.28
359.85	10.74
360.06	11.57
360.269	12.26
360.479	11.31
360.689	10.62
360.899	9.95
361.108	9.27
361.318	8.64
361.528	7.49
361.737	7.08
361.947	6.95
362.156	7.15
362.366	7.29
362.576	6.58
362.785	7.41
362.995	6.68
363.204	6.89
363.414	7.59
363.623	7.99
363.833	9
364.042	7.97
364.252	8.85
364.461	10.11
364.671	8.9
364.88	8.83
365.09	7.43
365.299	8.29
365.509	8.58
365.718	7.62
365.927	8.32
366.137	7.95
366.346	8.41
366.555	7.27
366.765	6.27
366.974	6.83
367.183	4.43
367.393	5.56
367.602	5.29
367.811	5.56
368.021	5.93
368.23	5.09
368.439	5.61
368.648	5.99
368.857	5.64
369.067	5.16
369.276	4.92
369.485	7.03
369.694	6.83
369.903	6.28
370.112	4.86
370.321	5.26
370.531	5.41
370.74	5.07
370.949	4.93
371.158	5.53
371.367	6.07
371.576	6.27
371.785	6.44
371.994	5.57
372.203	6.11
372.412	6.13
372.621	5.99
372.83	5.43
373.039	5.32
373.248	5.24
373.457	5.19
373.666	5.5
373.874	5.71
374.083	5.88
374.292	7.59
374.501	7.59
374.71	7.82
374.919	8.29
375.128	8.93
375.336	8.88
375.545	8.91
375.754	8.78
375.963	8.25
376.171	8.08
376.38	8.52
376.589	8.85
376.798	9.3
377.006	9.81
377.215	9.95
377.424	10.16
377.632	9.58
377.841	9.29
378.05	8.45
378.258	8.53
378.467	8.63
378.675	7.17
378.884	6.33
379.093	5.72
379.301	5.44
379.51	5.04
379.718	4.48
379.927	5.8
380.135	6.38
380.344	7.04
380.552	6.46
380.761	4.87
380.969	5.24
381.177	5.5
381.386	5.92
381.594	5.74
381.803	5.9
382.011	6.18
382.219	4.76
382.428	4.14
382.636	4.36
382.845	5.01
383.053	5.43
383.261	5.06
383.469	4.96
383.678	4.6
383.886	5.2
384.094	4.6
384.302	4.25
384.511	5.14
384.719	5.5
384.927	4.71
385.135	4.98
385.343	5.51
385.552	6.4
385.76	5.78
385.968	5.94
386.176	4.9
386.384	5.5
386.592	5.55
386.8	5.27
387.008	4.78
387.216	5.67
387.424	4.96
387.633	4.96
387.841	4.27
388.049	4.12
388.257	4.21
388.465	4.73
388.672	4.63
388.88	4.94
389.088	4.85
389.296	5.22
389.504	4.58
389.712	4.65
389.92	5.16
390.128	5.36
390.336	5.66
390.544	5.14
390.751	4.97
390.959	4.52
391.167	4.44
391.375	4.43
391.583	4.81
391.79	5.33
391.998	5.4
392.206	5.14
392.414	4.76
392.621	4.66
392.829	4.72
393.037	4.42
393.244	4.33
393.452	4.09
393.66	4.07
393.867	3.27
394.075	3.01
394.283	2.89
394.49	2.34
394.698	2.73
394.905	2.75
395.113	3.37
395.32	3.55
395.528	3.69
395.735	3.52
395.943	3.46
396.15	3.92
396.358	3.72
396.565	4.01
396.773	4.46
396.98	4.59
397.188	4.43
397.395	4.15
397.602	4.54
397.81	4.29
398.017	4.51
398.225	4.29
398.432	4.03
398.639	4.4
398.847	4.33
399.054	3.87
399.261	3.72
399.468	4.07
399.676	3.86
399.883	3.58
400.09	3.94
400.297	3.92
400.505	4.22
400.712	4.37
400.919	4.43
401.126	4.49
401.333	5.23
401.54	4.84
401.748	4.31
401.955	3.71
402.162	3.94
402.369	3.73
402.576	3.56
402.783	3.5
402.99	3.07
403.197	3.04
403.404	2.98
403.611	2.51
403.818	2.82
404.025	3.14
404.232	3.64
404.439	3.57
404.646	3.54
404.853	3.85
405.06	4.21
405.267	4.33
405.474	4
405.681	3.94
405.887	4.15
406.094	4.13
406.301	3.89
406.508	4.04
406.715	3.92
406.922	3.83
407.128	3.33
407.335	3.06
407.542	3.21
407.749	3.35
407.955	3.37
408.162	3.39
408.369	3.59
408.575	3.88
408.782	3.85
408.989	3.51
409.195	3.71
409.402	3.85
409.609	3.96
409.815	3.84
410.022	3.9
410.228	3.83
410.435	3.57
410.642	3.7
410.848	3.61
411.055	3.64
411.261	4.19
411.468	4.18
411.674	4.32
411.881	3.97
412.087	4.2
412.294	3.86
412.5	3.86
412.706	3.81
412.913	3.26
413.119	3.37
413.326	2.93
413.532	2.8
413.738	2.98
413.945	3.01
414.151	3.01
414.357	2.67
414.564	2.83
414.77	2.64
414.976	2.89
415.182	3.4
415.389	3.29
415.595	3.66
415.801	3.48
416.007	3.47
416.214	3.48
416.42	3.74
416.626	3.8
416.832	3.76
417.038	3.74
417.244	3.53
417.45	3.18
417.657	3.26
417.863	3.38
418.069	3.45
418.275	3.52
418.481	3.66
418.687	3.57
418.893	3.67
419.099	3.8
419.305	3.98
419.511	4.19
419.717	4.12
419.923	4.11
420.129	3.77
420.335	3.72
420.541	3.64
420.746	3.54
420.952	3.49
421.158	3.42
421.364	3.43
421.57	3.24
421.776	3.2
421.982	3.32
422.187	3.19
422.393	3.32
422.599	3.46
422.805	3.42
423.01	3.53
423.216	3.59
423.422	3.7
423.628	3.5
423.833	3.64
424.039	3.41
424.245	3.55
424.45	3.61
424.656	3.57
424.862	3.46
425.067	3.41
425.273	3.28
425.478	3.37
425.684	3.43
425.889	3.67
426.095	3.64
426.301	3.81
426.506	3.59
426.712	3.78
426.917	3.77
427.123	3.67
427.328	3.73
427.533	3.55
427.739	3.33
427.944	3.12
428.15	3.19
428.355	3.13
428.561	2.96
428.766	2.87
428.971	2.92
429.177	3.03
429.382	3.13
429.587	3.06
429.793	3.29
429.998	3.16
430.203	3.48
430.408	3.14
430.614	3.5
430.819	3.5
431.024	3.79
431.229	3.54
431.434	3.32
431.64	3.41
431.845	3.52
432.05	3.77
432.255	3.84
432.46	3.56
432.665	3.78
432.87	3.63
433.076	3.77
433.281	3.65
433.486	3.7
433.691	4.01
433.896	3.78
434.101	3.9
434.306	3.71
434.511	3.82
434.716	3.93
434.921	3.82
435.126	3.89
435.331	3.78
435.535	3.81
435.74	3.64
435.945	3.34
436.15	3.46
436.355	3.07
436.56	2.9
436.765	2.75
436.97	2.58
437.174	2.61
437.379	2.45
437.584	2.48
437.789	2.35
437.993	2.47
438.198	2.54
438.403	2.45
438.608	2.75
438.812	2.85
439.017	3.02
439.222	3.07
439.426	3.01
439.631	3.05
439.836	3.33
440.04	3.33
440.245	3.34
440.45	3.43
440.654	3.45
440.859	3.25
441.063	3.25
441.268	3.16
441.472	3.13
441.677	3.18
441.881	3.09
442.086	3.04
442.29	3.09
442.495	3.06
442.699	2.89
442.904	2.97
443.108	3.18
443.312	3.1
443.517	3.17
443.721	3.38
443.925	3.45
444.13	3.63
444.334	3.55
444.538	3.44
444.743	3.5
444.947	3.54
445.151	3.49
445.356	3.5
445.56	3.54
445.764	3.5
445.968	3.38
446.173	3.3
446.377	3.14
446.581	3.19
446.785	3.26
446.989	3.31
447.193	3.45
447.398	3.5
447.602	3.39
447.806	3.31
448.01	3.21
448.214	3.14
448.418	3.15
448.622	3.1
448.826	3
449.03	3.2
449.234	2.94
449.438	2.95
449.642	2.92
449.846	3.04
450.05	3.08
450.254	3.18
450.458	3.18
450.662	3.14
450.866	3.15
451.069	3.24
451.273	3
451.477	3.16
451.681	3.12
451.885	3.07
452.089	2.97
452.292	3.16
452.496	3.13
452.7	3.35
452.904	3.61
453.107	3.66
453.311	3.48
453.515	3.36
453.719	3.27
453.922	3.24
454.126	3.11
454.33	3.12
454.533	2.9
454.737	3
454.94	2.83
455.144	2.49
455.348	2.43
455.551	2.54
455.755	2.84
455.958	3.12
456.162	2.96
456.365	2.99
456.569	2.93
456.772	3.11
456.976	3.02
457.179	3.21
457.383	3.22
457.586	3.25
457.79	3.03
457.993	2.85
458.196	2.65
458.4	2.55
458.603	2.59
458.807	2.69
459.01	2.72
459.213	2.73
459.417	2.64
459.62	2.7
459.823	2.86
460.026	2.95
460.23	3.08
460.433	3.16
460.636	3.27
460.839	3.45
461.042	3.36
461.246	3.37
461.449	3.34
461.652	3.31
461.855	3.18
462.058	2.99
462.261	3
462.464	2.88
462.668	2.95
462.871	2.93
463.074	2.76
463.277	2.71
463.48	2.5
463.683	2.39
463.886	2.33
464.089	2.5
464.292	2.66
464.495	2.84
464.698	2.96
464.901	2.73
465.104	2.73
465.306	2.87
465.509	3.15
465.712	3.39
465.915	3.48
466.118	3.52
466.321	3.33
466.524	3.29
466.726	3.03
466.929	2.82
467.132	2.85
467.335	2.88
467.538	2.75
467.74	2.64
467.943	2.7
468.146	2.85
468.348	2.77
468.551	2.92
468.754	3.08
468.956	2.97
469.159	2.92
469.362	3.17
469.564	3.33
469.767	3.3
469.969	3.41
470.172	2.97
470.375	2.97
470.577	3.12
470.78	3.16
470.982	2.95
471.185	3.26
471.387	3.49
471.59	3.19
471.792	3.01
471.995	2.91
472.197	2.76
472.399	3.01
472.602	2.77
472.804	2.93
473.007	2.82
473.209	2.81
473.411	2.68
473.614	2.53
473.816	2.63
474.018	2.61
474.22	2.89
474.423	2.95
474.625	3.02
474.827	3.33
475.03	2.95
475.232	3.07
475.434	3.11
475.636	3.12
475.838	3.22
476.04	3.18
476.243	3.31
476.445	3.35
476.647	3.38
476.849	3.22
477.051	3.11
477.253	3.24
477.455	3.22
477.657	3.11
477.859	3.11
478.061	3.13
478.263	3.18
478.465	2.98
478.667	2.72
478.869	2.73
479.071	2.77
479.273	2.79
479.475	2.87
479.677	2.83
479.879	2.85
480.081	2.83
480.283	2.87
480.485	2.71
480.686	2.76
480.888	2.9
481.09	3.01
481.292	2.99
481.494	2.95
481.695	2.97
481.897	2.97
482.099	3.02
482.301	3.17
482.502	3.08
482.704	3.19
482.906	3.22
483.107	3.21
483.309	3.12
483.511	3.22
483.712	3.23
483.914	3.19
484.115	3.26
484.317	3.28
484.519	3.23
484.72	3.24
484.922	3.22
485.123	3.29
485.325	3.26
485.526	3.29
485.728	3.2
485.929	3.21
486.131	3.22
486.332	3.12
486.534	3.12
486.735	3.1
486.936	3.15
487.138	3.2
487.339	3.14
487.541	3.19
487.742	3.22
487.943	3.25
488.144	3.27
488.346	3.24
488.547	3.3
488.748	3.31
488.95	3.42
489.151	3.34
489.352	3.3
489.553	3.34
489.755	3.3
489.956	3.25
490.157	3.27
490.358	3.2
490.559	3.21
490.76	3.17
490.961	3.15
491.163	3.07
491.364	3.21
491.565	3.32
491.766	3.23
491.967	3.09
492.168	3.2
492.369	3.23
492.57	3.24
492.771	3.23
492.972	3.21
493.173	3.16
493.374	3.16
493.575	3.03
493.776	2.97
493.976	2.99
494.177	3.26
494.378	3.2
494.579	3.16
494.78	3.25
494.981	3.26
495.182	3.28
495.382	3.26
495.583	3.23
495.784	3.25
495.985	3.14
496.185	3.27
496.386	3.09
496.587	3.03
496.788	2.97
496.988	2.88
497.189	2.98
497.39	3.1
497.59	3
497.791	2.97
497.992	3.05
498.192	3.03
498.393	2.79
498.593	2.76
498.794	2.71
498.994	2.73
499.195	2.8
499.395	2.77
499.596	2.71
499.796	2.75
499.997	2.89
500.197	2.73
500.398	2.67
500.598	2.82
500.799	2.91
500.999	3.01
501.199	3.08
501.4	2.98
501.6	2.77
501.801	2.79
502.001	2.94
502.201	2.78
502.402	2.86
502.602	3.04
502.802	3.06
503.002	3.14
503.203	3.31
503.403	3.26
503.603	3.42
503.803	3.78
504.003	3.76
504.204	3.78
504.404	3.79
504.604	3.64
504.804	3.66
505.004	3.52
505.204	3.56
505.404	3.32
505.604	3.18
505.804	3.08
506.005	3.02
506.205	3.18
506.405	3.4
506.605	3.58
506.805	3.71
507.005	3.66
507.204	3.83
507.404	3.88
507.604	4.07
507.804	4.21
508.004	4.22
508.204	4.04
508.404	3.97
508.604	3.81
508.804	3.71
509.003	3.79
509.203	3.78
509.403	3.89
509.603	3.91
509.803	3.74
510.002	3.81
510.202	3.85
510.402	3.94
510.602	3.96
510.801	3.87
511.001	3.77
511.201	3.66
511.4	3.63
511.6	3.54
511.8	3.58
511.999	3.56
512.199	3.54
512.398	3.63
512.598	3.65
512.797	3.47
512.997	3.46
513.197	3.55
513.396	3.68
513.596	3.67
513.795	3.58
513.994	3.41
514.194	3.44
514.393	3.36
514.593	3.29
514.792	3.36
514.992	3.39
515.191	3.57
515.39	3.81
515.59	3.93
515.789	3.98
515.988	4.11
516.188	4.23
516.387	4.36
516.586	4.39
516.786	4.4
516.985	4.53
517.184	4.5
517.383	4.46
517.582	4.31
517.782	4.27
517.981	4.31
518.18	4.38
518.379	4.22
518.578	4.16
518.777	4.25
518.976	4.34
519.176	4.2
519.375	4.37
519.574	4.25
519.773	4.3
519.972	4.19
520.171	4.29
520.37	4.13
520.569	4.36
520.768	4.48
520.967	4.49
521.166	4.45
521.365	4.47
521.564	4.37
521.762	4.56
521.961	4.53
522.16	4.64
522.359	4.62
522.558	4.7
522.757	4.65
522.956	4.48
523.154	4.38
523.353	4.26
523.552	4.41
523.751	4.4
523.949	4.34
524.148	4.52
524.347	4.59
524.546	4.54
524.744	4.62
524.943	4.63
525.142	4.78
525.34	4.85
525.539	4.92
525.737	4.86
525.936	4.84
526.135	4.92
526.333	4.88
526.532	4.87
526.73	4.81
526.929	4.85
527.127	4.94
527.326	4.99
527.524	5.03
527.723	5.11
527.921	5.16
528.12	5.16
528.318	5.18
528.516	5.17
528.715	5.2
528.913	5.29
529.112	5.28
529.31	5.29
529.508	5.27
529.707	5.29
529.905	5.23
530.103	5.2
530.301	5.28
530.5	5.33
530.698	5.36
530.896	5.4
531.094	5.38
531.293	5.33
531.491	5.32
531.689	5.3
531.887	5.19
532.085	5.3
532.283	5.33
532.481	5.34
532.68	5.27
532.878	5.41
533.076	5.36
533.274	5.4
533.472	5.47
533.67	5.43
533.868	5.44
534.066	5.55
534.264	5.56
534.462	5.66
534.66	5.69
534.858	5.77
535.056	5.6
535.253	5.58
535.451	5.7
535.649	5.75
535.847	5.94
536.045	6.08
536.243	6.16
536.441	6.08
536.638	6.02
536.836	6.08
537.034	6.09
537.232	6.21
537.43	6.31
537.627	6.16
537.825	6.14
538.023	6.06
538.22	6.04
538.418	6.01
538.616	6.18
538.813	6.37
539.011	6.4
539.209	6.43
539.406	6.42
539.604	6.47
539.801	6.55
539.999	6.67
540.196	6.83
540.394	6.77
540.591	6.91
540.789	6.88
540.986	6.79
541.184	6.83
541.381	6.93
541.579	7.04
541.776	7.09
541.974	7.19
542.171	7.28
542.368	7.23
542.566	7.33
542.763	7.29
542.96	7.3
543.158	7.47
543.355	7.43
543.552	7.41
543.75	7.34
543.947	7.29
544.144	7.33
544.341	7.17
544.539	7.22
544.736	7.1
544.933	7.16
545.13	7.24
545.327	7.3
545.524	7.47
545.722	7.48
545.919	7.61
546.116	7.77
546.313	7.82
546.51	8.12
546.707	8.22
546.904	8.44
547.101	8.43
547.298	8.45
547.495	8.3
547.692	8.31
547.889	8.38
548.086	8.44
548.283	8.54
548.48	8.55
548.677	8.18
548.874	8.37
549.07	8.46
549.267	8.52
549.464	8.55
549.661	8.79
549.858	8.69
550.055	8.9
550.251	8.92
550.448	8.82
550.645	8.9
550.842	9.22
551.038	8.92
551.235	8.91
551.432	9.04
551.628	9.03
551.825	8.86
552.022	9.22
552.218	9.12
552.415	9.09
552.612	9.13
552.808	9.12
553.005	9.36
553.201	9.51
553.398	9.61
553.594	9.85
553.791	9.95
553.987	10.21
554.184	9.84
554.38	10.12
554.577	10.23
554.773	10.49
554.97	10.51
555.166	10.53
555.362	10.51
555.559	10.45
555.755	10.28
555.952	10.47
556.148	10.61
556.344	10.87
556.541	10.76
556.737	10.85
556.933	10.96
557.129	11.17
557.326	11.19
557.522	11.14
557.718	11.32
557.914	11.52
558.11	11.59
558.307	11.37
558.503	11.83
558.699	11.82
558.895	11.78
559.091	11.51
559.287	11.51
559.483	11.6
559.679	11.84
559.876	11.78
560.072	11.54
560.268	11.74
560.464	11.95
560.66	11.63
560.856	11.71
561.052	11.65
561.247	11.85
561.443	11.85
561.639	12.19
561.835	12.4
562.031	12.49
562.227	12.77
562.423	12.78
562.619	12.76
562.815	12.84
563.01	12.85
563.206	13.21
563.402	13.17
563.598	13.1
563.793	12.76
563.989	12.69
564.185	12.7
564.381	12.77
564.576	12.71
564.772	12.7
564.968	12.97
565.163	13.13
565.359	13.07
565.555	13.39
565.75	13.56
565.946	13.77
566.141	13.88
566.337	14.08
566.532	14.15
566.728	14.28
566.923	14.44
567.119	14.35
567.314	14.19
567.51	14.29
567.705	14.25
567.901	14.44
568.096	14.3
568.292	14.25
568.487	14.3
568.682	14.3
568.878	14.46
569.073	14.41
569.268	14.54
569.464	14.89
569.659	14.97
569.854	15.18
570.05	15.15
570.245	15.27
570.44	15.43
570.635	15.55
570.831	15.87
571.026	15.84
571.221	15.78
571.416	15.87
571.611	15.92
571.806	16.02
572.002	15.98
572.197	16.22
572.392	16.41
572.587	16.29
572.782	16.18
572.977	15.92
573.172	15.87
573.367	16.22
573.562	16.18
573.757	16.11
573.952	16.22
574.147	16.11
574.342	16.01
574.537	16.07
574.732	16.23
574.927	16.42
575.121	16.53
575.316	16.61
575.511	16.44
575.706	16.55
575.901	16.64
576.096	16.54
576.29	16.47
576.485	16.39
576.68	16.18
576.875	16.33
577.069	16.42
577.264	16.61
577.459	16.74
577.654	16.8
577.848	16.96
578.043	17.05
578.238	17.32
578.432	17.81
578.627	17.85
578.821	17.77
579.016	17.71
579.21	17.81
579.405	17.55
579.6	17.31
579.794	17.36
579.989	17.04
580.183	16.67
580.378	16.72
580.572	16.45
580.766	16.41
580.961	16.59
581.155	16.79
581.35	16.56
581.544	16.56
581.738	16.65
581.933	16.61
582.127	16.9
582.321	17.35
582.516	16.92
582.71	17.08
582.904	17.15
583.099	17.35
583.293	17.2
583.487	17.43
583.681	17.71
583.875	18.01
584.07	18.14
584.264	17.93
584.458	17.86
584.652	18.14
584.846	18.17
585.04	18.34
585.234	18.31
585.428	18.48
585.623	18.55
585.817	18.32
586.011	18.3
586.205	18.64
586.399	18.81
586.593	18.88
586.787	19.02
586.981	19.15
587.174	19.21
587.368	19.24
587.562	19.26
587.756	19.15
587.95	19.25
588.144	18.97
588.338	18.77
588.532	18.86
588.725	19.03
588.919	19
589.113	18.86
589.307	18.72
589.501	18.71
589.694	18.33
589.888	18.19
590.082	18.21
590.275	18.44
590.469	18.67
590.663	18.67
590.856	18.67
591.05	18.41
591.244	18.46
591.437	18.59
591.631	18.45
591.824	18.65
592.018	18.57
592.212	18.61
592.405	18.63
592.599	18.35
592.792	18.52
592.986	18.39
593.179	18.46
593.372	18.32
593.566	18.14
593.759	18.26
593.953	18.27
594.146	18.38
594.339	18.35
594.533	18.22
594.726	18.33
594.92	18.16
595.113	18.07
595.306	18.26
595.499	18.31
595.693	18.52
595.886	18.81
596.079	18.97
596.272	19.26
596.466	19.25
596.659	19.59
596.852	19.33
597.045	19.44
597.238	19.53
597.431	19.64
597.624	19.7
597.818	19.79
598.011	19.68
598.204	19.71
598.397	19.57
598.59	19.61
598.783	19.52
598.976	19.62
599.169	19.7
599.362	19.59
599.555	19.73
599.748	19.61
599.941	19.51
600.134	19.52
600.326	19.49
600.519	19.45
600.712	19.57
600.905	19.26
601.098	19.17
601.291	19.06
601.483	19.34
601.676	19.07
601.869	19.19
602.062	19.37
602.255	19.52
602.447	19.53
602.64	19.54
602.833	19.77
603.025	19.98
603.218	20.48
603.411	20.51
603.603	20.5
603.796	20.47
603.989	20.58
604.181	20.43
604.374	20.45
604.566	20.55
604.759	20.5
604.951	20.53
605.144	20.72
605.336	20.56
605.529	20.59
605.721	20.67
605.914	20.63
606.106	20.68
606.299	20.78
606.491	20.76
606.683	20.69
606.876	20.69
607.068	20.6
607.26	20.17
607.453	20.02
607.645	19.92
607.837	19.45
608.03	19.53
608.222	19.41
608.414	19.37
608.606	19.42
608.799	19.42
608.991	19.47
609.183	19.33
609.375	19.47
609.567	19.6
609.759	19.89
609.952	20.24
610.144	20.56
610.336	20.67
610.528	20.71
610.72	20.82
610.912	20.88
611.104	20.88
611.296	21.08
611.488	20.97
611.68	20.85
611.872	20.55
612.064	20.44
612.256	20.34
612.448	20.13
612.64	20.24
612.832	19.95
613.023	19.79
613.215	19.86
613.407	19.72
613.599	19.67
613.791	19.48
613.983	19.46
614.174	19.59
614.366	19.37
614.558	19.64
614.75	19.18
614.941	19.35
615.133	19.24
615.325	19.44
615.516	19.57
615.708	20.1
615.9	20.5
616.091	20.61
616.283	20.71
616.475	20.62
616.666	20.61
616.858	20.76
617.049	20.7
617.241	20.98
617.432	20.93
617.624	20.78
617.815	20.91
618.007	20.86
618.198	20.82
618.39	20.7
618.581	21
618.773	20.9
618.964	21.08
619.155	21.05
619.347	20.92
619.538	21.17
619.729	20.98
619.921	20.48
620.112	20.73
620.303	20.92
620.494	20.62
620.686	20.33
620.877	20.43
621.068	20.51
621.259	20.43
621.451	20.34
621.642	20.03
621.833	20
622.024	20.56
622.215	20.28
622.406	20.07
622.597	20.35
622.788	20.33
622.98	20.51
623.171	20.5
623.362	20.39
623.553	20.43
623.744	20.41
623.935	20.56
624.126	20.22
624.317	20.55
624.508	20.61
624.698	20.88
624.889	21
625.08	20.68
625.271	20.72
625.462	21.19
625.653	21.08
625.844	21.23
626.034	21.46
626.225	21.56
626.416	21.39
626.607	21.4
626.798	21.35
626.988	21.59
627.179	21.59
627.37	21.64
627.56	21.42
627.751	21.83
627.942	21.8
628.132	22.06
628.323	21.69
628.514	21.82
628.704	21.62
628.895	21.68
629.085	21.27
629.276	21.21
629.466	21.33
629.657	21.32
629.847	21.25
630.038	21.17
630.228	20.46
630.419	20.72
630.609	20.57
630.8	21.18
630.99	20.9
631.181	20.85
631.371	20.94
631.561	20.92
631.752	20.69
631.942	20.51
632.132	20.81
632.323	21.47
632.513	21.48
632.703	21.29
632.893	20.98
633.084	21.04
633.274	21.34
633.464	21.42
633.654	21.21
633.844	21.25
634.034	21.5
634.225	21.34
634.415	20.87
634.605	20.96
634.795	21.09
634.985	21.35
635.175	21.44
635.365	21.07
635.555	20.95
635.745	20.88
635.935	21.2
636.125	20.9
636.315	20.93
636.505	21.3
636.695	21.36
636.885	21.28
637.075	21.12
637.265	21.31
637.455	21.87
637.644	22.34
637.834	22.71
638.024	22.48
638.214	22.46
638.404	22.41
638.593	21.85
638.783	22.05
638.973	21.85
639.163	22.01
639.352	22.05
639.542	21.52
639.732	21.01
639.921	20.54
640.111	21
640.301	21.34
640.49	21.17
640.68	22.15
640.87	21.94
641.059	22.29
641.249	22.04
641.438	22.13
641.628	22.19
641.817	22.58
642.007	23
642.196	22.66
642.386	22.86
642.575	23.31
642.764	22.67
642.954	22.88
643.143	23.01
643.333	22.77
643.522	22.65
643.711	23.22
643.901	23.03
644.09	22.87
644.279	22.84
644.469	22.31
644.658	21.78
644.847	22.09
645.036	21.91
645.226	21.89
645.415	22.13
645.604	22.01
645.793	21.9
645.982	21.64
646.171	21.83
646.361	21.8
646.55	22.27
646.739	22.22
646.928	22.28
647.117	22.2
647.306	21.87
647.495	21.75
647.684	21.75
647.873	21.52
648.062	21.63
648.251	21.54
648.44	21.48
648.629	21.24
648.818	21.42
649.007	21.05
649.196	21.2
649.384	21.21
649.573	21.38
649.762	21.39
649.951	21.53
650.14	21.85
650.328	21.85
650.517	22.46
650.706	22.4
650.895	22.83
651.083	22.71
651.272	22.65
651.461	22.73
651.65	22.69
651.838	23
652.027	22.7
652.216	22.52
652.404	22.38
652.593	22.16
652.781	22.02
652.97	21.83
653.158	21.83
653.347	22.37
653.535	22.47
653.724	22.78
653.912	22.49
654.101	23.13
654.289	23.36
654.478	23.77
654.666	23.64
654.855	23.96
655.043	23.85
655.231	24.38
655.42	23.99
655.608	23.95
655.796	23.58
655.985	23.88
656.173	23.41
656.361	23.32
656.55	23.13
656.738	23.33
656.926	23.28
657.114	23.36
657.302	23.72
657.491	23.43
657.679	23.96
657.867	24.01
658.055	23.95
658.243	24.16
658.431	24.12
658.619	24.13
658.807	24.22
658.996	24.38
659.184	23.91
659.372	23.35
659.56	23.21
659.748	22.74
659.936	22.55
660.124	22.29
660.311	22.45
660.499	22.21
660.687	22.02
660.875	21.8
661.063	21.66
661.251	22.15
661.439	22.28
661.627	22.14
661.814	22.25
662.002	22.43
662.19	22.08
662.378	21.86
662.565	21.96
662.753	21.67
662.941	21.46
663.129	21.25
663.316	21.16
663.504	21.21
663.692	21.86
663.879	22.33
664.067	22.37
664.254	22.61
664.442	22.3
664.63	22.35
664.817	22.84
665.005	23.08
665.192	23.03
665.38	22.99
665.567	22.77
665.755	22.37
665.942	22.07
666.13	22.04
666.317	22.47
666.504	22.52
666.692	22.67
666.879	22.96
667.067	22.82
667.254	22.46
667.441	22.41
667.629	22.27
667.816	22.16
668.003	22.04
668.19	21.95
668.378	21.75
668.565	21.88
668.752	22.12
668.939	21.84
669.127	21.85
669.314	22.33
669.501	22.11
669.688	22.13
669.875	22.64
670.062	22.8
670.249	22.92
670.436	22.94
670.623	23.27
670.81	23.06
670.997	23.09
671.184	22.9
671.371	23.04
671.558	23.36
671.745	23.81
671.932	22.83
672.119	22.73
672.306	22.89
672.493	23.08
672.68	22.32
672.867	22.01
673.054	21.9
673.24	22.02
673.427	21.81
673.614	22.13
673.801	22.2
673.988	22.8
674.174	22.79
674.361	22.21
674.548	22.26
674.734	22.58
674.921	22.63
675.108	22.78
675.294	22.81
675.481	23.19
675.668	22.49
675.854	22.1
676.041	22.74
676.227	22.79
676.414	22.82
676.601	22.68
676.787	22.51
676.974	23.23
677.16	23.12
677.347	23.6
677.533	23.51
677.719	23.9
677.906	24.17
678.092	23.54
678.279	23.22
678.465	23.55
678.651	23.96
678.838	24.47
679.024	24.21
679.21	24.35
679.397	24.28
679.583	24.38
679.769	24.25
679.955	24.79
680.142	25.21
680.328	25.38
680.514	25.75
680.7	25.43
680.886	25.44
681.073	25.25
681.259	25.12
681.445	25.33
681.631	25.01
681.817	24.72
682.003	23.6
682.189	23.55
682.375	24.3
682.561	23.72
682.747	23.28
682.933	22.53
683.119	22.71
683.305	22.25
683.491	21.97
683.677	22.24
683.863	22.98
684.049	23.38
684.235	22.69
684.42	21.75
684.606	21.96
684.792	22.07
684.978	22.94
685.164	22.98
685.349	23.74
685.535	23.76
685.721	23.72
685.907	23.61
686.092	23.71
686.278	24.55
686.464	24.03
686.649	24.54
686.835	24.55
687.021	24.37
687.206	24.53
687.392	24.16
687.577	24.27
687.763	23.58
687.948	22.79
688.134	23.13
688.319	22.91
688.505	23.23
688.69	23.18
688.876	22.79
689.061	22.35
689.247	21.98
689.432	22.33
689.618	22.21
689.803	23.07
689.988	22.91
690.174	21.66
690.359	21.72
690.544	22.59
690.73	21.85
690.915	22.99
691.1	23.76
691.285	24.45
691.471	23.73
691.656	23.82
691.841	23.68
692.026	24.75
692.211	25.97
692.396	24.98
692.582	24.31
692.767	25.24
692.952	24.47
693.137	24.2
693.322	23.3
693.507	23.4
693.692	23.33
693.877	22.9
694.062	22.44
694.247	21.97
694.432	23.31
694.617	24.16
694.802	23.96
694.987	24.63
695.172	24.8
695.357	25.14
695.541	25.56
695.726	24.94
695.911	25.35
696.096	25.44
696.281	25.72
696.466	25.5
696.65	24.86
696.835	24.16
697.02	24.09
697.204	23.62
697.389	23.79
697.574	24
697.759	24.09
697.943	23.84
698.128	23.95
698.312	23.8
698.497	23.55
698.682	23.78
698.866	24.41
699.051	24.18
699.235	24.48
699.42	24.65
699.604	23.92
699.789	23.99
699.973	24.46
700.158	24.21
700.342	24.66
700.527	24.79
700.711	25
700.895	24.77
701.08	24.89
701.264	24.49
701.448	24.21
701.633	25.05
701.817	25.15
702.001	24.79
702.186	25.63
702.37	25.58
702.554	25.72
702.738	25.06
702.923	24.38
703.107	24.35
703.291	24.82
703.475	24.55
703.659	24.14
703.843	23.94
704.027	23.91
704.212	23.41
704.396	22.97
704.58	22.44
704.764	23.08
704.948	24.59
705.132	24.35
705.316	24.32
705.5	24.76
705.684	24.72
705.868	24.6
706.052	24.32
706.235	24.56
706.419	24.3
706.603	24.85
706.787	23.89
706.971	22.64
707.155	22.84
707.339	23.26
707.522	22.93
707.706	24.12
707.89	24.32
708.074	24.29
708.257	24.1
708.441	24.68
708.625	25.11
708.808	25.34
708.992	25.15
709.176	25.29
709.359	24.36
709.543	24.25
709.727	23.52
709.91	23.65
710.094	24.53
710.277	25.27
710.461	25.67
710.644	25.81
710.828	25.96
711.011	26.06
711.195	26.31
711.378	27.25
711.562	27.18
711.745	27.09
711.928	26.38
712.112	25.61
712.295	25.73
712.478	25.57
712.662	24.72
712.845	25.12
713.028	25.35
713.212	24.33
713.395	24.33
713.578	24.53
713.761	24.43
713.945	24.94
714.128	25
714.311	24.78
714.494	24.26
714.677	24.33
714.86	24.21
715.043	24.18
715.227	25.07
715.41	24.68
715.593	24.69
715.776	24.91
715.959	25.66
716.142	25.21
716.325	24.64
716.508	24.47
716.691	25.27
716.874	24.62
717.057	24.3
717.239	24.11
717.422	23.97
717.605	23.26
717.788	23.08
717.971	22.89
718.154	23.43
718.337	23.64
718.519	24.18
718.702	23.09
718.885	23.67
719.068	24.28
719.25	24.59
719.433	24.66
719.616	25.35
719.798	24.64
719.981	23.56
720.164	23.4
720.346	23.11
720.529	22.65
720.712	22.7
720.894	23.35
721.077	23.4
721.259	22.84
721.442	21.64
721.624	21.79
721.807	22.89
721.989	23.52
722.172	24.68
722.354	24.77
722.537	24.31
722.719	26.01
722.901	25.02
723.084	25.19
723.266	24.52
723.448	26.45
723.631	27.06
723.813	26.64
723.995	26.78
724.178	25.67
724.36	25.67
724.542	26.34
724.724	24.8
724.907	25.69
725.089	25.62
725.271	26.9
725.453	25.67
725.635	24.43
725.817	24.17
725.999	24.61
726.181	24.71
726.364	24.54
726.546	24.73
726.728	24.45
726.91	24.32
727.092	23.68
727.274	22.71
727.456	23.16
727.638	23.02
727.819	24.05
728.001	23.53
728.183	23.11
728.365	22.77
728.547	22.44
728.729	23.57
728.911	22.79
729.093	24.03
729.274	24.3
729.456	24.77
729.638	24.64
729.82	25.03
730.001	24.56
730.183	24.71
730.365	25.2
730.546	25.07
730.728	24.38
730.91	24.64
731.091	24.71
731.273	24.59
731.455	24.13
731.636	25.13
731.818	25.33
731.999	25.71
732.181	25.75
732.362	24.84
732.544	25.08
732.725	24.66
732.907	24.07
733.088	22.17
733.27	23.5
733.451	23.18
733.633	23.73
733.814	22.62
733.995	22.04
734.177	22.3
734.358	23.95
734.539	23.89
734.721	24.6
734.902	25.86
735.083	26.44
735.264	25.62
735.446	26.48
735.627	26.11
735.808	27.03
735.989	28.15
736.17	27.31
736.351	25.87
736.533	25.69
736.714	24.52
736.895	24.15
737.076	24.17
737.257	23.31
737.438	23.79
737.619	23.74
737.8	21.75
737.981	21.18
738.162	22.86
738.343	25.05
738.524	24.81
738.705	25.89
738.886	25.27
739.067	24.27
739.247	24.62
739.428	22.99
739.609	21.94
739.79	23.62
739.971	23.85
740.151	22.93
740.332	20.56
740.513	21.46
740.694	21.57
740.874	22.59
741.055	24.97
741.236	26.2
741.417	28.02
741.597	30.05
741.778	29.91
741.958	30.27
742.139	29.81
742.32	30.23
742.5	30.86
742.681	30.08
742.861	30.46
743.042	30.71
743.222	29.46
743.403	27.35
743.583	26.48
743.764	25.66
743.944	24.15
744.124	24.9
744.305	25.85
744.485	25.23
744.666	25.22
744.846	23.04
745.026	21.22
745.207	21.53
745.387	22.9
745.567	22.57
745.747	21.77
745.928	23.3
746.108	23.93
746.288	23.69
746.468	24.2
746.648	26.14
746.829	26.96
747.009	27.55
747.189	28
747.369	28.53
747.549	27.52
747.729	28
747.909	27.44
748.089	27.95
748.269	28.2
748.449	26.49
748.629	25.81
748.809	26.36
748.989	27.07
749.169	27.86
749.349	26.59
749.529	27.76
749.709	27.94
749.889	28.31
750.068	29.07
750.248	29.06
750.428	30.77
750.608	30.85
750.788	31.45
750.967	31.49
751.147	31.16
751.327	31.54
751.507	30.19
751.686	30.21
751.866	29.49
752.046	26.87
752.225	26.71
752.405	26
752.585	25.38
752.764	24.1
752.944	22.23
753.123	21.45
753.303	21.08
753.482	21.05
753.662	21.89
753.841	21.72
754.021	23.11
754.2	23.72
754.38	22.51
754.559	21.77
754.739	21
754.918	22.59
755.097	22.32
755.277	23.55
755.456	24.14
755.635	23.67
755.815	25.55
755.994	25.08
756.173	24.61
756.352	26.29
756.532	26.49
756.711	28.05
756.89	28.58
757.069	27.45
757.248	25.97
757.427	26.11
757.607	24.58
757.786	24
757.965	24.12
758.144	23.79
758.323	23.84
758.502	24.59
758.681	22.35
758.86	21.25
759.039	22.01
759.218	22.8
759.397	22.64
759.576	23.11
759.755	20.56
759.934	21.09
760.113	21.83
760.291	20.91
760.47	20.68
760.649	20.17
760.828	19.72
761.007	19.47
761.186	19.32
761.364	20.84
761.543	21.51
761.722	23.67
761.901	23.7
762.079	23.74
762.258	24.47
762.437	25.73
762.615	28.44
762.794	29.57
762.972	30.5
763.151	31.52
763.33	30.52
763.508	31.41
763.687	31.99
763.865	32.23
764.044	32.51
764.222	32.17
764.401	31.79
764.579	31.36
764.758	30.77
764.936	30.56
765.114	29.19
765.293	30.16
765.471	28.93
765.65	29.91
765.828	29.9
766.006	28.92
766.184	28.56
766.363	27.83
766.541	28.6
766.719	29.83
766.898	30.36
767.076	30.44
767.254	30.29
767.432	31.22
767.61	29.73
767.788	29.48
767.967	29.44
768.145	29.55
768.323	29.89
768.501	27.94
768.679	27.86
768.857	27.15
769.035	27.29
769.213	26.18
769.391	26.29
769.569	24.5
769.747	23.52
769.925	23.01
770.103	22.73
770.281	23.67
770.459	25.61
770.636	28.66
770.814	28.63
770.992	30.09
771.17	30.37
771.348	29.3
771.525	27.9
771.703	27.36
771.881	28.86
772.059	29.6
772.236	27.05
772.414	24.86
772.592	21.53
772.769	23.57
772.947	21.33
773.125	22.82
773.302	23.58
773.48	25.87
773.657	25.91
773.835	23.03
774.013	23.41
774.19	24.06
774.368	23.95
774.545	21.26
774.723	19.05
774.9	19.39
775.077	17.67
775.255	17.03
775.432	18.21
775.61	18.28
775.787	19.52
775.964	17.12
776.142	16.63
776.319	13.99
776.496	14.91
776.674	14.8
776.851	15.36
777.028	16.31
777.205	16.32
777.382	15.02
777.56	15.55
777.737	17.5
777.914	18.93
778.091	21.63
778.268	25.99
778.445	26.96
778.622	25.7
778.8	27.08
778.977	26.15
779.154	26.22
779.331	23.14
779.508	23.73
779.685	23.19
779.862	23.69
780.038	20.94
780.215	20.35
780.392	17.73
780.569	18.46
780.746	15.7
780.923	15.82
781.1	17.57
781.277	17.85
781.453	14.77
781.63	14.72
781.807	16.29
781.984	17.8
782.16	17.31
782.337	19.03
782.514	21.43
782.691	21.21
782.867	18.66
783.044	17.58
783.221	21.41
783.397	24.89
783.574	23.46
783.75	21.85
783.927	23.95
784.103	24.55
784.28	23.8
784.456	24.78
784.633	23.13
784.809	29.77
784.986	32.13
785.162	32.3
785.339	28.85
785.515	31.06
785.692	29.74
785.868	25.73
786.044	24.48
786.221	28.8
786.397	26.7
786.573	29.17
786.749	25.3
786.926	20.43
787.102	19.76
787.278	23.59
787.454	23.23
787.631	25.48
787.807	23.45
787.983	24.84
788.159	20.77
788.335	19.25
788.511	19.92
788.687	20.63
788.863	24.85
789.039	25.03
789.216	24.93
789.392	23.8
789.568	22.46
789.744	25.8
789.919	25.72
790.095	25.83
790.271	29.34
790.447	31.59
790.623	31.41
790.799	31.1
790.975	31.66
791.151	28.04
791.327	28.41
791.502	28.35
791.678	27.18
791.854	25.94
792.03	29.63
792.205	26.85
792.381	22.3
792.557	20.1
792.733	16.98
792.908	15.83
793.084	19.46
793.259	20.78
793.435	19.51
793.611	21.54
793.786	25.25
793.962	23.58
794.137	24.27
794.313	26.13
794.488	27.61
794.664	31.53
794.839	29.34
795.015	29.01
795.19	28.27
795.366	30.98
795.541	29.41
795.716	23.65
795.892	19
796.067	18.92
796.242	18.42
796.418	18.11
796.593	16.36
796.768	18.24
796.944	15.18
797.119	17.56
797.294	15.26
797.469	15.14
797.644	11.66
797.82	13.41
797.995	18.59
798.17	18.85
798.345	17.43
798.52	15.73
798.695	16.49
798.87	20.21
799.045	16.3
799.22	13.71
799.395	12.74
799.57	19.44
799.745	19.19
799.92	10.2
800.095	9.15
800.27	7.56
800.445	9.41
800.62	10.16
800.795	9.17
800.97	13.39
801.145	19.68
801.319	20.44
801.494	17.42
801.669	13.99
801.844	14.73
802.018	16.82
802.193	19.01
802.368	19.44
802.543	19.03
802.717	17.9
802.892	20.76
803.067	17.93
803.241	15.47
803.416	17.12
803.59	24.87
803.765	27.36
803.94	26.26
804.114	28.54
804.289	26.41
804.463	25.81
804.638	25.58
804.812	22.12
804.986	23.88
805.161	25.02
805.335	26.08
805.51	19.6
805.684	21.51
805.858	21.23
806.033	21.01
806.207	22.14
806.381	23.81
806.556	24
806.73	20.64
806.904	20.02
807.078	15.73
807.253	16.91
807.427	22.07
807.601	16.52
807.775	16.14
807.949	13.87
808.123	15.1
808.298	16.11
808.472	15.73
808.646	17.97
808.82	16.32
808.994	18.3
809.168	19.52
809.342	19.15
809.516	22.6
809.69	25.16
809.864	28.36
810.038	28.43
810.212	27.04
810.385	26.84
810.559	27.45
810.733	30.43
810.907	32.04
811.081	24.49
811.255	22.95
811.428	21.03
811.602	11.62
811.776	14.78
811.95	18.92
812.123	15.01
812.297	13.32
812.471	8.79
812.644	6.69
812.818	11.16
812.992	7
813.165	0.93
813.339	4.18
813.512	13.08
813.686	10.46
813.86	6.94
814.033	9.21
814.207	8.2
814.38	16.82
814.554	21.95
814.727	21.04
814.9	26.54
815.074	33.86
815.247	34.82
815.421	28.08
815.594	20.31
815.767	7.71
815.941	13.33
816.114	12.42
816.287	-0.27
816.46	-6.38
816.634	-3.24
816.807	2.18
816.98	-7.76
817.153	-2.77
817.327	-2.44
817.5	-1.99
817.673	12.22
817.846	8.35
818.019	12.78
818.192	21.74
818.365	21.14
818.538	21.36
818.711	19.58
818.884	22.39
819.057	17.09
819.23	18.96
819.403	23.23
819.576	21.75
819.749	22.24
819.922	21.8
820.095	18.39
820.268	21.3
820.441	19.96
820.614	23.39
820.786	25.52
820.959	23.78
821.132	25.76
821.305	26.67
821.477	26.86
821.65	29.02
821.823	29.03
821.996	29.5
822.168	28.73
822.341	29.17
822.514	28.64
822.686	29.06
822.859	30.6
823.031	31.22
823.204	31.85
823.376	31.61
823.549	30.47
823.722	30.57
823.894	31.06
824.067	31.8
824.239	31.75
824.411	31.8
824.584	31.92
824.756	31.79
824.929	31.71
825.101	31.5
825.273	31.86
825.446	32.95
825.618	32.51
825.79	31.82
825.963	31.74
826.135	31.72
826.307	33.47
826.479	33.87
826.652	33.35
826.824	35.11
826.996	33.98
827.168	33.55
827.34	30.87
827.512	31.05
827.684	30.79
827.856	28.97
828.029	29.1
828.201	25.68
828.373	25.38
828.545	23.36
828.717	19.43
828.889	17.44
829.061	16.43
829.232	16.12
829.404	16.66
829.576	15.59
829.748	17.71
829.92	17.32
830.092	17.13
830.264	13.04
830.436	14.13
830.607	16.24
830.779	17.73
830.951	16.48
831.123	20.46
831.294	18.21
831.466	20.12
831.638	20.18
831.809	16.69
831.981	19.77
832.153	29.67
832.324	32.3
832.496	33.41
832.667	35.07
832.839	34.66
833.011	29.99
833.182	30
833.354	29.87
833.525	31.16
833.697	32.29
833.868	35.24
834.039	30.35
834.211	32.59
834.382	29.31
834.554	28.08
834.725	27.08
834.896	28.03
835.068	29.65
835.239	27.9
835.41	21.97
835.581	20.12
835.753	18.23
835.924	20.1
836.095	16.73
836.266	17.85
836.438	16.32
836.609	18.76
836.78	20.29
836.951	15.16
837.122	14.26
837.293	11.68
837.464	17.56
837.635	12.93
837.806	9.61
837.977	11.99
838.148	13.57
838.319	10.64
838.49	4.69
838.661	6.28
838.832	11.68
839.003	11.2
839.174	22.42
839.345	18.9
839.516	19.29
839.687	15.56
839.857	5.34
840.028	-0.46
840.199	3.92
840.37	5.42
840.54	3.86
840.711	2.49
840.882	8.54
841.053	9.35
841.223	9.29
841.394	7.34
841.564	3.71
841.735	1.9
841.906	-3.78
842.076	-10.03
842.247	-4.56
842.417	-12.41
842.588	-10.63
842.758	-13.33
842.929	-16.09
843.099	-31.04
843.27	-30.16
843.44	-35.52
843.611	-31.88
843.781	-31.98
843.951	-22.66
844.122	-25.85
844.292	-30.14
844.462	-20.48
844.633	-41.95
844.803	-52.68
844.973	-31.87
845.144	-40.69
845.314	-21.14
845.484	-7.44
845.654	-9.65
845.824	-2.71
845.995	-0.67
846.165	7.58
846.335	-7.24
846.505	40.61
846.675	27.17
846.845	20.03
847.015	15.66
847.185	1.86
847.355	-12.04
847.525	-4.18
847.695	5.42
847.865	-7.81
848.035	6.57
848.205	-5.28
848.375	-19.99
848.545	-6.57
848.715	-27.91
848.884	2.65
849.054	-0.8
849.224	13.39
849.394	18.2
849.564	12.95
849.733	24.6
849.903	19.43
850.073	42.05
850.243	55.41
850.412	60.84
850.582	85.59
850.752	72.58
850.921	81.42
851.091	62.97
851.26	62.76
851.43	47.29
851.599	33.42
851.769	33.03
851.939	22.26
852.108	3.63
852.278	10.8
852.447	-25.95
852.616	-36.38
852.786	-49.63
852.955	-28.92
853.125	-27.75
853.294	-34.51
853.463	-8.49
853.633	-3.99
853.802	4.63
853.971	17.26
854.141	-3.22
854.31	23.52
854.479	31.5
854.648	27.95
854.818	14.78
854.987	32.09
855.156	57.56
855.325	34.26
855.494	19.37
855.663	-170.75
855.832	-9.63
856.001	-10.12
856.171	-1.42
856.34	-13.4
856.509	-120.98
856.678	-353.33
856.847	-280.83
857.016	-215.65
857.185	-72.08
857.353	-42.28
857.522	-34.04
857.691	-86.66
857.86	-145.25
858.029	-243.29
858.198	-75.49
858.367	-24.91
858.535	-339.73
858.704	-312.57
858.873	704.6
859.042	379.63
859.21	286.54
859.379	-389.35
859.548	1897.23
859.717	-62.76
859.885	-30.97
860.054	-4.35
860.222	-37.51
860.391	-15.46
860.56	0.89
860.728	-14.2
860.897	-36.1
861.065	-12.75
861.234	-32.08
861.402	-26.91
861.571	-49.7
861.739	-86.17
861.908	-184.7
862.076	-60.78
862.244	-27.55
862.413	-49.03
862.581	-27.97
862.749	-50.71
862.918	-25.7
863.086	-24.12
863.254	-58.92
863.423	-61.09
863.591	-97.29
863.759	-65.31
863.927	-75.59
864.096	-72.51
864.264	-23.44
864.432	65.06
864.6	50
864.768	49.65
864.936	122.67
865.104	-278.01
865.272	6.53
865.44	23.52
865.608	-0.17
865.776	-144.13
865.944	-177.2
866.112	-219.43
866.28	-353.29
866.448	-531.53
866.616	-1408.48
866.784	-470.08
866.952	-68.72
867.12	-9.22
867.288	41.04
867.455	-12.56
867.623	25.41
867.791	50.12
867.959	66.85
868.127	91.31
868.294	121.84
868.462	159.04
868.63	513.13
868.797	462.61
868.965	71.96
869.133	-1620.86
869.3	-119.25
869.468	3.25
869.636	-52.13
869.803	3.16
869.971	-37.51
870.138	-49.67
870.306	-24.29
870.473	3.08
870.641	-3.83
870.808	-11.79
870.975	10.16
871.143	6.23
871.31	-20.65
871.478	-6.73
871.645	-39.17
871.812	-33.46
871.98	-8.45
872.147	-35.64
872.314	-21.7
872.482	17.12
872.649	12.55
872.816	10.47
872.983	10.88
873.15	-17.69
873.318	-43.55
873.485	-9.52
873.652	18.98
873.819	9.67
873.986	38.29
874.153	28.79
874.32	2.34
874.487	-11.95
874.654	-52.63
874.821	34.06
874.988	139.1
875.155	86.46
875.322	120.95
875.489	47.19
875.656	-127.71
875.823	-329.59
875.99	593.12
876.157	585.1
876.324	-872.35
876.49	-555.33
876.657	594.98
876.824	1148.78
876.991	-436.64
877.157	-180.11
877.324	-121.15
877.491	-17.87
877.658	-21.06
877.824	-0.21
877.991	19.43
878.157	-10.06
878.324	-9.14
878.491	15.85
878.657	6.49
878.824	-14.8
878.99	6.25
879.157	-6.99
879.323	-45.24
879.49	-62.51
879.656	-103.97
879.823	-87.92
879.989	-27.12
880.156	50
880.322	-9.07
880.488	52.25
880.655	45.33
880.821	-6.06
880.987	7.4
881.154	11.89
881.32	19.48
881.486	24.15
881.652	27.15
881.819	23.09
881.985	18.1
882.151	20.87
882.317	13.96
882.483	19.95
882.649	26.98
882.816	27.53
882.982	26.28
883.148	27.43
883.314	29.8
883.48	28.11
883.646	27.81
883.812	27.93
883.978	28.91
884.144	29.99
884.31	25.12
884.476	22.96
884.642	23.13
884.807	23.82
884.973	21.38
885.139	14.59
885.305	21.24
885.471	21.83
885.637	21.51
885.802	18.96
885.968	23.82
886.134	32.39
886.3	34.77
886.465	35.65
886.631	37.08
886.797	35.54
886.962	44.56
887.128	37.01
887.293	44.14
887.459	47.31
887.625	48.64
887.79	42.63
887.956	33.73
888.121	29.59
888.287	30.01
888.452	33.63
888.618	40.49
888.783	27.34
