Data from 2937835_Reflection_1.txt Node
Date: Wed Jul 15 16:33:02 EDT 2015
User: robert
Spectrometer: USB4E03001
Autoset integration time: false
Trigger mode: 4
Integration Time (sec): 1.000000E-1
Scans to average: 10
Electric dark correction enabled: true
Nonlinearity correction enabled: false
Boxcar width: 5
Stray light correction enabled: false
XAxis mode: Wavelengths
Stop averaging: false
Number of Pixels in Spectrum: 3648
>>>>>Begin Spectral Data<<<<<
177.566	-4.71
177.785	-95.38
178.005	101.64
178.225	131.01
178.445	115.48
178.665	140.63
178.885	95.24
179.105	83.78
179.324	60.15
179.544	107.35
179.764	69.6
179.984	11.65
180.204	336.07
180.423	176.98
180.643	195.65
180.863	186.53
181.083	204.17
181.302	-895.24
181.522	-1000
181.742	175.51
181.961	135.58
182.181	68.57
182.401	77.96
182.621	25.93
182.84	21.46
183.06	19.74
183.279	21.91
183.499	23.8
183.719	6.32
183.938	-5.06
184.158	-4.63
184.377	19.09
184.597	1.59
184.816	13.84
185.036	10.73
185.256	-1.02
185.475	-37.05
185.695	-64.46
185.914	-14.87
186.134	19.54
186.353	23.67
186.572	12.8
186.792	-2.19
187.011	13.15
187.231	19.51
187.45	37.09
187.67	36.34
187.889	40.17
188.108	53.02
188.328	37.77
188.547	40.79
188.766	23.33
188.986	32.58
189.205	41.03
189.424	39.33
189.644	47.23
189.863	44.6
190.082	52.82
190.302	57.4
190.521	83.4
190.74	96.65
190.959	86.59
191.178	118.44
191.398	231.78
191.617	161.46
191.836	117.7
192.055	153.55
192.274	119.48
192.494	68.68
192.713	24.8
192.932	-143.22
193.151	-40.72
193.37	-17.05
193.589	7.79
193.808	0.8
194.027	-3.78
194.246	3.39
194.465	-15.42
194.685	-33.4
194.904	-18.64
195.123	-21.17
195.342	0.18
195.561	27.54
195.78	21.75
195.999	23.9
196.218	80.41
196.436	258.11
196.655	155.24
196.874	215.75
197.093	-1940
197.312	-119.23
197.531	139.73
197.75	200
197.969	224.42
198.188	185.71
198.407	-136.54
198.625	-30.51
198.844	-26.52
199.063	-44.04
199.282	-14.53
199.501	0.66
199.719	4.35
199.938	6.68
200.157	37.37
200.376	29.75
200.594	27.18
200.813	26.04
201.032	33.17
201.251	39.12
201.469	50.14
201.688	45.5
201.907	58.92
202.125	49.88
202.344	43.57
202.563	27.95
202.781	34.52
203	26.03
203.218	29.6
203.437	21.44
203.656	17.07
203.874	11.59
204.093	33.3
204.311	26.81
204.53	30.04
204.748	34.58
204.967	33.04
205.185	35.18
205.404	42.41
205.622	40.6
205.841	46.36
206.059	40.72
206.278	57.14
206.496	59.59
206.715	80.78
206.933	232.7
207.151	207.94
207.37	-8125
207.588	-463.33
207.806	440.57
208.025	405.05
208.243	476.86
208.461	632.73
208.68	639.18
208.898	618.37
209.116	569.81
209.335	222.45
209.553	364.56
209.771	287.43
209.989	222.13
210.208	156.06
210.426	109.46
210.644	116.44
210.862	131.39
211.081	94.19
211.299	77.27
211.517	72.34
211.735	55.54
211.953	57.73
212.171	39.11
212.39	42.39
212.608	19.87
212.826	41.49
213.044	26.16
213.262	-2.63
213.48	-0.75
213.698	-13.04
213.916	-19.57
214.134	2.15
214.352	12.89
214.57	21.12
214.788	10.88
215.006	46.84
215.224	38.2
215.442	42.63
215.66	44.01
215.878	44.14
216.096	37.47
216.314	54.71
216.532	63.82
216.75	42.75
216.968	40.71
217.185	39.16
217.403	15.65
217.621	20.73
217.839	-16.56
218.057	13.37
218.275	23.25
218.492	42.78
218.71	20.8
218.928	4.44
219.146	4.33
219.363	17.8
219.581	48.35
219.799	64.14
220.017	84.86
220.234	91.04
220.452	90.39
220.67	79.19
220.887	75.87
221.105	64.06
221.323	65.21
221.54	60.49
221.758	53.48
221.976	53.81
222.193	52.54
222.411	26.62
222.629	10.34
222.846	-9.83
223.064	-1.33
223.281	10.12
223.499	23.18
223.716	19.35
223.934	0.94
224.151	-4.83
224.369	-15.15
224.586	-24.45
224.804	-16.63
225.021	-8.28
225.239	1.02
225.456	-10.56
225.674	-20.17
225.891	-12.55
226.108	-12.44
226.326	0.06
226.543	8.55
226.76	9.93
226.978	10.97
227.195	8.21
227.413	7.82
227.63	5.25
227.847	4.68
228.064	5.98
228.282	9.03
228.499	12.33
228.716	11.24
228.934	12.44
229.151	10.18
229.368	9.23
229.585	10.88
229.802	10.78
230.02	8.31
230.237	9.81
230.454	9.57
230.671	10.42
230.888	8.43
231.105	10.08
231.323	9.3
231.54	8.31
231.757	7.47
231.974	1.12
232.191	0.5
232.408	6.41
232.625	5.94
232.842	4.48
233.059	0.56
233.276	6.44
233.493	6.66
233.71	-2.62
233.927	4.08
234.144	9.1
234.361	17.76
234.578	17.16
234.795	21.71
235.012	20.12
235.229	21.36
235.446	20.19
235.663	17.44
235.879	18.71
236.096	23.15
236.313	24.06
236.53	25.03
236.747	30.4
236.964	32.77
237.181	27.15
237.397	30
237.614	26.32
237.831	30.39
238.048	33.88
238.264	29.13
238.481	25.95
238.698	25.35
238.915	19.07
239.131	10.47
239.348	8.92
239.565	7.96
239.781	7.53
239.998	10.71
240.215	7.01
240.431	4.7
240.648	9.05
240.865	13.38
241.081	16.24
241.298	19.15
241.514	18.87
241.731	18.92
241.947	18.41
242.164	18.7
242.38	18.57
242.597	22.49
242.814	22.4
243.03	22.3
243.246	22.6
243.463	22.1
243.679	21.68
243.896	21.73
244.112	23.13
244.329	24.21
244.545	24.81
244.762	22.16
244.978	16.14
245.194	16.79
245.411	15.31
245.627	12.31
245.843	10.16
246.06	10.38
246.276	10.49
246.492	9.94
246.709	10.56
246.925	9.27
247.141	11.81
247.357	13.17
247.574	12.94
247.79	12.64
248.006	12.93
248.222	12.86
248.439	13.07
248.655	12.86
248.871	13.39
249.087	12.68
249.303	13.23
249.519	10.9
249.736	11.96
249.952	10.86
250.168	9.79
250.384	8.82
250.6	9.88
250.816	7.99
251.032	9.44
251.248	8.42
251.464	9.78
251.68	10.59
251.896	12.16
252.112	10.35
252.328	12.64
252.544	13.19
252.76	11.58
252.976	10.72
253.192	11.61
253.408	11.56
253.624	12.49
253.84	11.83
254.056	10.08
254.272	10.7
254.487	9.28
254.703	9.29
254.919	9.02
255.135	14.45
255.351	13.65
255.567	14.49
255.782	15.25
255.998	12.58
256.214	11.73
256.43	15.24
256.646	10.79
256.861	12.72
257.077	10.93
257.293	11.23
257.508	9.91
257.724	11.62
257.94	11.23
258.155	9.51
258.371	10.58
258.587	11.43
258.802	11.17
259.018	13.33
259.234	12.99
259.449	11.57
259.665	11.6
259.88	11.28
260.096	10.77
260.312	10.49
260.527	10.94
260.743	10.39
260.958	9.89
261.174	8.83
261.389	8.76
261.605	7.84
261.82	8.73
262.036	7.99
262.251	8.59
262.466	7.96
262.682	8.45
262.897	8.11
263.113	8.08
263.328	8.68
263.543	8.84
263.759	9.63
263.974	9.88
264.189	9.83
264.405	10.39
264.62	8.67
264.835	10.66
265.051	10.72
265.266	13.38
265.481	14.66
265.696	12.99
265.912	15.4
266.127	12.31
266.342	14.15
266.557	13.73
266.773	13.15
266.988	12.78
267.203	10.89
267.418	9.52
267.633	7.14
267.848	8.22
268.064	10.53
268.279	9.92
268.494	9.34
268.709	9.1
268.924	8.18
269.139	9.65
269.354	9.99
269.569	10.58
269.784	11.24
269.999	12.11
270.214	10.81
270.429	10.09
270.644	10.19
270.859	11.24
271.074	9.49
271.289	9.79
271.504	10.6
271.719	11.48
271.934	10.2
272.149	9.22
272.363	8.95
272.578	10.09
272.793	9.78
273.008	8.21
273.223	8.14
273.438	8.89
273.653	9.93
273.867	7.67
274.082	6.58
274.297	9.02
274.512	9.82
274.726	9.4
274.941	8.17
275.156	8.34
275.371	9.31
275.585	9.98
275.8	8.94
276.015	9.43
276.229	10.36
276.444	11.23
276.659	10.85
276.873	10.71
277.088	10.89
277.302	10.2
277.517	10.17
277.732	10.44
277.946	9.49
278.161	11.74
278.375	8.8
278.59	7.65
278.804	6.22
279.019	5.1
279.233	5.18
279.448	4.43
279.662	5.23
279.877	5.06
280.091	4.84
280.306	5.31
280.52	4.23
280.735	4.67
280.949	6.88
281.163	8.53
281.378	9.32
281.592	10.15
281.806	9.21
282.021	8.7
282.235	7.66
282.449	8.52
282.664	8.36
282.878	8.36
283.092	10.99
283.307	10.38
283.521	9.39
283.735	9.66
283.949	9.06
284.164	10.25
284.378	9.58
284.592	9.87
284.806	9.33
285.02	8.93
285.234	7.89
285.449	5.94
285.663	5.34
285.877	5.34
286.091	4.53
286.305	5.55
286.519	5.21
286.733	5.31
286.947	5.91
287.161	5.12
287.375	4.68
287.589	5.38
287.803	5.97
288.017	6.16
288.231	6.06
288.445	6.9
288.659	7.18
288.873	6.89
289.087	7.65
289.301	6.43
289.515	6.44
289.729	7.59
289.943	7.08
290.157	6.7
290.371	6.4
290.584	6.46
290.798	6.93
291.012	5.33
291.226	6.19
291.44	6.01
291.654	6.53
291.867	6.75
292.081	5.97
292.295	7.02
292.509	7.12
292.722	7.98
292.936	7.18
293.15	7.75
293.364	9.53
293.577	8.95
293.791	10
294.005	10.9
294.218	11.2
294.432	12.41
294.645	13.16
294.859	12.84
295.073	13.07
295.286	15.36
295.5	13.84
295.713	13.22
295.927	13.82
296.14	12.79
296.354	12.41
296.568	13.65
296.781	13.74
296.994	12.53
297.208	13.75
297.421	12.81
297.635	11.43
297.848	11.16
298.062	11.02
298.275	10.36
298.489	9.88
298.702	9.29
298.915	7.02
299.129	6
299.342	6.99
299.555	4.77
299.769	5.99
299.982	7.22
300.195	9.44
300.409	8.28
300.622	7.5
300.835	8.1
301.048	8.21
301.262	9.53
301.475	9.6
301.688	10.64
301.901	11.02
302.115	9.55
302.328	8.1
302.541	5.91
302.754	7.18
302.967	7.62
303.18	7.65
303.393	8.9
303.607	8.86
303.82	9.27
304.033	7.24
304.246	7.03
304.459	8.05
304.672	9.32
304.885	8.88
305.098	7.56
305.311	8.26
305.524	9.08
305.737	8.27
305.95	7.41
306.163	5.54
306.376	6.43
306.589	7.1
306.802	5.99
307.015	6.25
307.228	8.15
307.44	10.38
307.653	11.06
307.866	10.23
308.079	12.16
308.292	13.07
308.505	16.96
308.718	15.81
308.93	16.42
309.143	16.84
309.356	16.55
309.569	14.62
309.781	13.87
309.994	13.98
310.207	13.2
310.42	12.44
310.632	11.27
310.845	9.51
311.058	9.85
311.27	9.32
311.483	9.35
311.696	9.07
311.908	9.95
312.121	8.64
312.333	8.04
312.546	8.56
312.759	8.08
312.971	8.45
313.184	6.06
313.396	5.62
313.609	6.26
313.821	5.62
314.034	5.01
314.246	4.85
314.459	5.29
314.671	5.91
314.884	5.53
315.096	5.1
315.309	6.97
315.521	7.8
315.733	7.68
315.946	7.82
316.158	8.88
316.371	9.86
316.583	9.21
316.795	9.36
317.008	8.62
317.22	8.76
317.432	7.8
317.644	7.9
317.857	9.79
318.069	10.66
318.281	11.01
318.494	9.3
318.706	9.25
318.918	9.64
319.13	10.12
319.342	9.24
319.555	9.84
319.767	11.16
319.979	10.48
320.191	10.22
320.403	8.39
320.615	5.09
320.827	6.23
321.039	6.83
321.252	7.75
321.464	8.31
321.676	9.49
321.888	8.2
322.1	9.49
322.312	10.51
322.524	11.46
322.736	13.47
322.948	15.48
323.16	15.54
323.372	14.33
323.584	14.24
323.796	13.55
324.007	12.6
324.219	14.82
324.431	13.33
324.643	9.97
324.855	7.27
325.067	7.86
325.279	7.9
325.491	8.63
325.702	9.43
325.914	9.31
326.126	8.82
326.338	9.91
326.55	9.36
326.761	9.1
326.973	10.73
327.185	11.83
327.396	9.6
327.608	9.14
327.82	9.87
328.032	8.19
328.243	8.51
328.455	10.07
328.666	9.43
328.878	10.44
329.09	11.94
329.301	12.92
329.513	14.04
329.725	15.21
329.936	15.45
330.148	12.62
330.359	12.1
330.571	12.1
330.782	12.18
330.994	13.04
331.205	12.04
331.417	11.12
331.628	12.13
331.84	11.34
332.051	11.64
332.262	11.73
332.474	15.17
332.685	18.01
332.897	17.54
333.108	18.06
333.319	17.12
333.531	17.42
333.742	17.6
333.953	16.32
334.165	16.9
334.376	17.22
334.587	19.21
334.799	18.26
335.01	16.96
335.221	17.87
335.432	18.09
335.644	19.65
335.855	18.63
336.066	17.99
336.277	17.84
336.488	19.26
336.7	20.08
336.911	20.2
337.122	20.09
337.333	21.08
337.544	20.22
337.755	19.3
337.966	16.6
338.177	17.31
338.388	18.48
338.599	18.89
338.811	17.33
339.022	16.32
339.233	15.09
339.444	15.4
339.655	16.05
339.866	17.16
340.076	18.15
340.287	19.66
340.498	20.38
340.709	20.26
340.92	21.7
341.131	22.97
341.342	23.92
341.553	25.69
341.764	26.3
341.975	25.85
342.185	24.99
342.396	25.29
342.607	25.8
342.818	26.34
343.029	26.89
343.239	25.94
343.45	25.51
343.661	25.08
343.872	23.63
344.082	23.31
344.293	22.32
344.504	22.51
344.714	20.89
344.925	20.59
345.136	19.93
345.346	20.44
345.557	20.64
345.768	19.66
345.978	19.99
346.189	19.95
346.399	19.23
346.61	19.55
346.821	20.09
347.031	20.59
347.242	20.1
347.452	19.13
347.663	18.51
347.873	17.99
348.084	19.45
348.294	17.1
348.504	16.76
348.715	17.34
348.925	17.11
349.136	17.03
349.346	17.18
349.557	19.62
349.767	20.57
349.977	21.01
350.188	20.98
350.398	21.06
350.608	23.92
350.819	23.05
351.029	22.97
351.239	24.58
351.449	25.11
351.66	24.65
351.87	23.59
352.08	23.18
352.29	23.41
352.501	23.51
352.711	22.57
352.921	22.41
353.131	23.78
353.341	24.29
353.552	23.07
353.762	22.11
353.972	23.05
354.182	23.11
354.392	23.73
354.602	22.87
354.812	22.79
355.022	22.62
355.232	22.35
355.442	22.56
355.652	22.64
355.862	22.23
356.072	22.54
356.282	21.85
356.492	21.58
356.702	20.54
356.912	20.85
357.122	21.3
357.332	22.41
357.542	22.52
357.752	21.48
357.962	20.3
358.171	20.15
358.381	19.7
358.591	20.3
358.801	19.82
359.011	19.94
359.221	19.35
359.43	18.97
359.64	18.17
359.85	17.3
360.06	17.62
360.269	17.48
360.479	17.89
360.689	18.79
360.899	18.64
361.108	19.77
361.318	19.63
361.528	19.79
361.737	19.86
361.947	20.44
362.156	20.25
362.366	20.37
362.576	20.98
362.785	20.85
362.995	20
363.204	19.46
363.414	18.15
363.623	18.86
363.833	19
364.042	18.45
364.252	17.83
364.461	17.91
364.671	17.81
364.88	17.54
365.09	18.2
365.299	18.67
365.509	20.51
365.718	20.43
365.927	20.07
366.137	19.58
366.346	21.36
366.555	21.24
366.765	21.12
366.974	20.86
367.183	20.69
367.393	19.64
367.602	19.64
367.811	18.22
368.021	18.2
368.23	18.11
368.439	18.58
368.648	17.15
368.857	17.59
369.067	17.03
369.276	16.89
369.485	16.95
369.694	16.99
369.903	17.22
370.112	17.6
370.321	18.27
370.531	18
370.74	17.66
370.949	18.37
371.158	17.73
371.367	18.55
371.576	19.03
371.785	19.4
371.994	20.15
372.203	19.78
372.412	19.23
372.621	18.9
372.83	19.44
373.039	19.58
373.248	18.08
373.457	17.82
373.666	17.52
373.874	16.94
374.083	16.34
374.292	15.35
374.501	14.57
374.71	14.54
374.919	14.41
375.128	14.59
375.336	14.15
375.545	15.57
375.754	15.86
375.963	15.68
376.171	16.56
376.38	16.53
376.589	17.06
376.798	18.02
377.006	18.05
377.215	17.92
377.424	17.52
377.632	18.34
377.841	17.98
378.05	18.12
378.258	17.57
378.467	17.1
378.675	16.97
378.884	16.35
379.093	15.77
379.301	16.24
379.51	16.64
379.718	16.55
379.927	16
380.135	15.06
380.344	15.08
380.552	15.72
380.761	15.64
380.969	15.35
381.177	15.54
381.386	15.7
381.594	15.04
381.803	14.17
382.011	14.03
382.219	14.36
382.428	15.09
382.636	14.76
382.845	14.63
383.053	13.96
383.261	14.07
383.469	13.84
383.678	13.95
383.886	14.31
384.094	14.74
384.302	14.65
384.511	14.61
384.719	14.44
384.927	14.34
385.135	14.04
385.343	14.26
385.552	14.26
385.76	14.23
385.968	13.66
386.176	13.41
386.384	13.52
386.592	13.7
386.8	13.15
387.008	13.39
387.216	13.2
387.424	13.3
387.633	13.23
387.841	13.48
388.049	13.41
388.257	13.74
388.465	13.49
388.672	12.89
388.88	12.43
389.088	13
389.296	12.61
389.504	12.91
389.712	12.75
389.92	12.8
390.128	12.49
390.336	12.64
390.544	12.11
390.751	12.07
390.959	12.3
391.167	12.24
391.375	11.72
391.583	11.89
391.79	11.97
391.998	12.2
392.206	12.12
392.414	12.09
392.621	12.14
392.829	12.33
393.037	12.56
393.244	12.23
393.452	12.38
393.66	12.39
393.867	12.24
394.075	11.94
394.283	11.8
394.49	12
394.698	12.21
394.905	12.33
395.113	12.54
395.32	12.3
395.528	12.45
395.735	12.53
395.943	12.51
396.15	12.26
396.358	12.46
396.565	12.32
396.773	11.88
396.98	11.95
397.188	11.49
397.395	11.21
397.602	11.18
397.81	11.66
398.017	11.35
398.225	11.27
398.432	11.47
398.639	11.54
398.847	11.31
399.054	11.37
399.261	10.69
399.468	10.9
399.676	10.77
399.883	10.67
400.09	10.49
400.297	10.47
400.505	10.31
400.712	10.79
400.919	10.37
401.126	11.02
401.333	11.34
401.54	11.78
401.748	11.82
401.955	12.15
402.162	11.97
402.369	12.01
402.576	11.82
402.783	11.97
402.99	11.62
403.197	11.88
403.404	11.58
403.611	11.42
403.818	11.35
404.025	11.28
404.232	11.01
404.439	11.19
404.646	10.81
404.853	11.31
405.06	11.46
405.267	11.78
405.474	11.5
405.681	11.57
405.887	11.6
406.094	11.43
406.301	11.31
406.508	11.51
406.715	11.47
406.922	11.69
407.128	11.36
407.335	10.95
407.542	10.18
407.749	10.04
407.955	9.71
408.162	9.7
408.369	9.77
408.575	9.97
408.782	9.55
408.989	9.52
409.195	9.39
409.402	9.66
409.609	9.87
409.815	10.16
410.022	10.5
410.228	10.74
410.435	10.78
410.642	10.92
410.848	10.86
411.055	11.15
411.261	11.11
411.468	10.83
411.674	10.75
411.881	10.65
412.087	10.69
412.294	10.74
412.5	10.64
412.706	10.36
412.913	10.36
413.119	10.25
413.326	10.09
413.532	10.22
413.738	10.43
413.945	10.41
414.151	10.46
414.357	10.34
414.564	9.97
414.77	9.87
414.976	9.86
415.182	9.66
415.389	9.94
415.595	10.06
415.801	9.99
416.007	10.04
416.214	9.87
416.42	9.93
416.626	10.07
416.832	10.35
417.038	10.64
417.244	10.74
417.45	10.7
417.657	10.55
417.863	10.61
418.069	10.76
418.275	10.72
418.481	10.85
418.687	10.81
418.893	10.56
419.099	10.43
419.305	10.53
419.511	10.47
419.717	10.49
419.923	10.59
420.129	10.61
420.335	10.52
420.541	10.67
420.746	10.69
420.952	10.85
421.158	11.01
421.364	11.05
421.57	11.01
421.776	11.04
421.982	11.15
422.187	10.96
422.393	10.97
422.599	10.83
422.805	10.77
423.01	10.52
423.216	10.37
423.422	10.26
423.628	10.23
423.833	10
424.039	9.83
424.245	9.79
424.45	10.01
424.656	9.91
424.862	10.12
425.067	10.02
425.273	10.21
425.478	10.24
425.684	10.24
425.889	10.16
426.095	10.34
426.301	10.62
426.506	10.56
426.712	10.34
426.917	10.47
427.123	10.36
427.328	10.45
427.533	10.32
427.739	10.14
427.944	10.45
428.15	10.63
428.355	10.37
428.561	10.23
428.766	10.46
428.971	10.42
429.177	10.19
429.382	10.14
429.587	10.05
429.793	10.34
429.998	10.33
430.203	9.97
430.408	9.8
430.614	9.8
430.819	9.6
431.024	9.32
431.229	9.54
431.434	9.8
431.64	9.89
431.845	9.83
432.05	9.69
432.255	9.79
432.46	9.93
432.665	10.12
432.87	10.16
433.076	10.31
433.281	10.45
433.486	10.3
433.691	10.24
433.896	10.13
434.101	10.16
434.306	10.16
434.511	10.2
434.716	10.21
434.921	10.16
435.126	10.25
435.331	10.28
435.535	10.11
435.74	10.25
435.945	10.01
436.15	9.95
436.355	9.86
436.56	9.9
436.765	9.9
436.97	9.78
437.174	9.43
437.379	9.57
437.584	9.61
437.789	9.76
437.993	9.53
438.198	9.59
438.403	9.63
438.608	9.85
438.812	9.78
439.017	9.87
439.222	9.89
439.426	10.07
439.631	9.78
439.836	9.73
440.04	9.66
440.245	9.74
440.45	9.98
440.654	10.02
440.859	9.98
441.063	10.07
441.268	9.95
441.472	9.93
441.677	10.03
441.881	10.11
442.086	9.88
442.29	9.85
442.495	9.88
442.699	9.52
442.904	9.53
443.108	9.39
443.312	9.3
443.517	9.43
443.721	9.34
443.925	9.24
444.13	9.35
444.334	9.76
444.538	9.9
444.743	9.87
444.947	10.07
445.151	9.97
445.356	10.01
445.56	9.86
445.764	9.85
445.968	9.96
446.173	9.96
446.377	9.89
446.581	9.83
446.785	9.73
446.989	9.76
447.193	9.79
447.398	9.8
447.602	9.82
447.806	9.83
448.01	9.72
448.214	9.67
448.418	9.66
448.622	9.7
448.826	9.45
449.03	9.42
449.234	9.31
449.438	9.16
449.642	9.16
449.846	9.08
450.05	9.06
450.254	9.13
450.458	9.16
450.662	9.03
450.866	9.15
451.069	9.11
451.273	9.13
451.477	9.22
451.681	9.21
451.885	9.26
452.089	9.56
452.292	9.69
452.496	9.81
452.7	9.76
452.904	9.86
453.107	9.55
453.311	9.77
453.515	9.84
453.719	9.81
453.922	9.69
454.126	9.69
454.33	9.43
454.533	9.37
454.737	9.26
454.94	9.3
455.144	9.16
455.348	9.37
455.551	9.38
455.755	9.19
455.958	9.42
456.162	9.51
456.365	9.63
456.569	9.67
456.772	9.54
456.976	9.58
457.179	9.56
457.383	9.71
457.586	9.72
457.79	9.68
457.993	9.89
458.196	9.69
458.4	9.65
458.603	9.44
458.807	9.48
459.01	9.6
459.213	9.44
459.417	9.5
459.62	9.48
459.823	9.56
460.026	9.57
460.23	9.44
460.433	9.34
460.636	9.39
460.839	9.46
461.042	9.39
461.246	9.28
461.449	9.32
461.652	9.31
461.855	9.33
462.058	9.17
462.261	9.12
462.464	9.18
462.668	9.22
462.871	9.22
463.074	9.18
463.277	9.27
463.48	9.36
463.683	9.43
463.886	9.31
464.089	9.14
464.292	9
464.495	8.92
464.698	8.95
464.901	8.83
465.104	8.82
465.306	8.88
465.509	8.59
465.712	8.67
465.915	8.52
466.118	8.52
466.321	8.57
466.524	8.53
466.726	8.59
466.929	8.57
467.132	8.55
467.335	8.53
467.538	8.64
467.74	8.85
467.943	8.91
468.146	8.92
468.348	9.06
468.551	9.29
468.754	9.44
468.956	9.62
469.159	9.55
469.362	9.62
469.564	9.8
469.767	9.81
469.969	9.74
470.172	9.6
470.375	9.65
470.577	9.6
470.78	9.51
470.982	9.67
471.185	9.57
471.387	9.48
471.59	9.49
471.792	9.32
471.995	9.31
472.197	9.52
472.399	9.51
472.602	9.69
472.804	9.69
473.007	9.64
473.209	9.35
473.411	9.3
473.614	9.46
473.816	9.57
474.018	9.69
474.22	9.53
474.423	9.55
474.625	9.64
474.827	9.49
475.03	9.4
475.232	9.36
475.434	9.53
475.636	9.36
475.838	9.45
476.04	9.65
476.243	9.68
476.445	9.73
476.647	9.57
476.849	9.55
477.051	9.48
477.253	9.58
477.455	9.75
477.657	9.84
477.859	9.93
478.061	9.89
478.263	9.76
478.465	9.59
478.667	9.83
478.869	9.84
479.071	9.8
479.273	9.83
479.475	9.8
479.677	9.68
479.879	9.74
480.081	9.77
480.283	9.92
480.485	9.97
480.686	10.03
480.888	9.94
481.09	9.98
481.292	9.86
481.494	9.84
481.695	9.86
481.897	9.8
482.099	9.7
482.301	9.78
482.502	9.63
482.704	9.61
482.906	9.72
483.107	9.72
483.309	9.66
483.511	9.74
483.712	9.72
483.914	9.75
484.115	9.73
484.317	9.67
484.519	9.61
484.72	9.61
484.922	9.57
485.123	9.5
485.325	9.44
485.526	9.47
485.728	9.44
485.929	9.41
486.131	9.31
486.332	9.36
486.534	9.43
486.735	9.45
486.936	9.46
487.138	9.47
487.339	9.48
487.541	9.49
487.742	9.45
487.943	9.44
488.144	9.5
488.346	9.54
488.547	9.57
488.748	9.49
488.95	9.52
489.151	9.51
489.352	9.45
489.553	9.43
489.755	9.41
489.956	9.51
490.157	9.56
490.358	9.5
490.559	9.53
490.76	9.58
490.961	9.7
491.163	9.69
491.364	9.69
491.565	9.83
491.766	9.78
491.967	9.82
492.168	9.72
492.369	9.72
492.57	9.73
492.771	9.72
492.972	9.64
493.173	9.69
493.374	9.76
493.575	9.81
493.776	9.74
493.976	9.69
494.177	9.66
494.378	9.75
494.579	9.76
494.78	9.78
494.981	9.76
495.182	9.96
495.382	9.82
495.583	9.7
495.784	9.74
495.985	9.66
496.185	9.73
496.386	9.68
496.587	9.56
496.788	9.47
496.988	9.54
497.189	9.44
497.39	9.14
497.59	9.09
497.791	9.13
497.992	9.1
498.192	9.08
498.393	8.99
498.593	9.09
498.794	9.1
498.994	9.13
499.195	9.23
499.395	9.37
499.596	9.44
499.796	9.49
499.997	9.36
500.197	9.34
500.398	9.54
500.598	9.64
500.799	9.6
500.999	9.64
501.199	9.77
501.4	9.71
501.6	9.63
501.801	9.79
502.001	9.9
502.201	10.05
502.402	10.16
502.602	10.12
502.802	10.16
503.002	10.28
503.203	10.3
503.403	10.16
503.603	9.92
503.803	9.97
504.003	9.86
504.204	9.82
504.404	9.83
504.604	9.88
504.804	9.85
505.004	9.99
505.204	10.03
505.404	10.07
505.604	10
505.804	10.08
506.005	9.97
506.205	9.9
506.405	9.95
506.605	9.96
506.805	9.95
507.005	9.93
507.204	9.69
507.404	9.55
507.604	9.58
507.804	9.66
508.004	9.89
508.204	10
508.404	10.16
508.604	10.21
508.804	10.14
509.003	10.07
509.203	10.2
509.403	10.42
509.603	10.58
509.803	10.51
510.002	10.6
510.202	10.38
510.402	10.47
510.602	10.42
510.801	10.34
511.001	10.38
511.201	10.33
511.4	10.33
511.6	10.22
511.8	9.97
511.999	10.12
512.199	10.23
512.398	10.39
512.598	10.31
512.797	10.39
512.997	10.36
513.197	10.44
513.396	10.56
513.596	10.49
513.795	10.54
513.994	10.87
514.194	10.81
514.393	10.68
514.593	10.72
514.792	10.7
514.992	10.7
515.191	10.88
515.39	10.81
515.59	10.76
515.789	10.91
515.988	10.99
516.188	10.98
516.387	11.04
516.586	11.16
516.786	11.27
516.985	11.32
517.184	11.41
517.383	11.32
517.582	11.36
517.782	11.34
517.981	11.28
518.18	11.29
518.379	11.17
518.578	11.11
518.777	10.92
518.976	10.87
519.176	10.86
519.375	10.89
519.574	10.91
519.773	10.97
519.972	10.98
520.171	11.04
520.37	10.98
520.569	10.99
520.768	11.22
520.967	11.42
521.166	11.26
521.365	11.37
521.564	11.07
521.762	11.19
521.961	11.28
522.16	11.52
522.359	11.42
522.558	11.47
522.757	11.53
522.956	11.2
523.154	11.12
523.353	11.2
523.552	11.05
523.751	11.35
523.949	11.27
524.148	11.22
524.347	11.25
524.546	11.33
524.744	11.52
524.943	11.48
525.142	11.75
525.34	11.8
525.539	11.93
525.737	12.09
525.936	12.05
526.135	12.06
526.333	12.07
526.532	11.95
526.73	12.04
526.929	12.04
527.127	12.06
527.326	12.01
527.524	12.09
527.723	12.05
527.921	12.08
528.12	12.11
528.318	12.12
528.516	12.08
528.715	12.15
528.913	12.09
529.112	12.1
529.31	12.1
529.508	12.16
529.707	12.13
529.905	12.2
530.103	12.2
530.301	12.18
530.5	12.17
530.698	12.23
530.896	12.19
531.094	12.38
531.293	12.3
531.491	12.42
531.689	12.44
531.887	12.52
532.085	12.52
532.283	12.6
532.481	12.75
532.68	12.83
532.878	12.96
533.076	12.93
533.274	12.82
533.472	12.86
533.67	12.86
533.868	12.73
534.066	12.72
534.264	12.68
534.462	12.68
534.66	12.59
534.858	12.71
535.056	12.61
535.253	12.72
535.451	12.72
535.649	12.8
535.847	12.9
536.045	13.07
536.243	13.07
536.441	13.12
536.638	13.1
536.836	13.16
537.034	13.04
537.232	13.17
537.43	13.18
537.627	13.21
537.825	13.33
538.023	13.36
538.22	13.47
538.418	13.57
538.616	13.71
538.813	13.75
539.011	13.83
539.209	13.91
539.406	13.83
539.604	13.86
539.801	14.15
539.999	14.08
540.196	14.01
540.394	13.97
540.591	14.06
540.789	14.12
540.986	14.28
541.184	14.31
541.381	14.3
541.579	14.35
541.776	14.35
541.974	14.26
542.171	14.33
542.368	14.37
542.566	14.5
542.763	14.41
542.96	14.47
543.158	14.47
543.355	14.58
543.552	14.63
543.75	14.67
543.947	14.82
544.144	14.83
544.341	14.9
544.539	14.87
544.736	14.8
544.933	14.99
545.13	15.04
545.327	15.05
545.524	14.93
545.722	14.98
545.919	14.98
546.116	14.9
546.313	14.96
546.51	15.03
546.707	15.21
546.904	15.36
547.101	15.41
547.298	15.29
547.495	15.24
547.692	15.43
547.889	15.49
548.086	15.59
548.283	15.69
548.48	15.73
548.677	15.64
548.874	15.69
549.07	15.56
549.267	15.5
549.464	15.68
549.661	15.76
549.858	15.77
550.055	16.07
550.251	16.3
550.448	16.46
550.645	16.57
550.842	16.91
551.038	16.98
551.235	17.18
551.432	17.34
551.628	17.37
551.825	17.4
552.022	17.4
552.218	17.26
552.415	17.13
552.612	17.17
552.808	17.27
553.005	17.03
553.201	17.09
553.398	17.07
553.594	17.07
553.791	17.17
553.987	17.31
554.184	17.38
554.38	17.51
554.577	17.5
554.773	17.51
554.97	17.51
555.166	17.57
555.362	17.72
555.559	17.91
555.755	18.17
555.952	18.36
556.148	18.27
556.344	18.31
556.541	18.22
556.737	18.61
556.933	18.81
557.129	19.13
557.326	19.4
557.522	19.33
557.718	19.23
557.914	19.23
558.11	19.25
558.307	19.69
558.503	19.8
558.699	20.12
558.895	20.08
559.091	19.94
559.287	19.89
559.483	20.04
559.679	20.21
559.876	20.49
560.072	20.79
560.268	21.04
560.464	20.93
560.66	21
560.856	20.97
561.052	21.04
561.247	21.25
561.443	21.29
561.639	21.16
561.835	21.21
562.031	21.18
562.227	21.24
562.423	20.93
562.619	20.92
562.815	21.12
563.01	21.24
563.206	21.22
563.402	21.27
563.598	21.35
563.793	21.57
563.989	21.58
564.185	21.7
564.381	21.44
564.576	21.51
564.772	21.66
564.968	21.87
565.163	21.93
565.359	22.23
565.555	22.33
565.75	22.54
565.946	22.6
566.141	22.63
566.337	22.54
566.532	22.74
566.728	22.85
566.923	22.97
567.119	22.86
567.314	23.01
567.51	22.97
567.705	23.03
567.901	23.02
568.096	23.18
568.292	23.41
568.487	23.7
568.682	23.79
568.878	23.94
569.073	24.05
569.268	24.3
569.464	24.23
569.659	24.48
569.854	24.76
570.05	24.84
570.245	24.92
570.44	25.04
570.635	24.96
570.831	25
571.026	25
571.221	24.98
571.416	24.93
571.611	24.98
571.806	24.88
572.002	24.84
572.197	24.9
572.392	24.98
572.587	24.95
572.782	25.34
572.977	25.27
573.172	25.5
573.367	25.62
573.562	25.67
573.757	25.76
573.952	25.85
574.147	26.08
574.342	26.27
574.537	26.36
574.732	26.45
574.927	26.32
575.121	26.75
575.316	26.64
575.511	26.69
575.706	26.8
575.901	26.9
576.096	26.94
576.29	27.12
576.485	27.05
576.68	27.04
576.875	27.06
577.069	27.18
577.264	27.12
577.459	27.23
577.654	27.28
577.848	27.17
578.043	27.52
578.238	27.86
578.432	27.53
578.627	27.66
578.821	27.61
579.016	27.8
579.21	27.82
579.405	27.92
579.6	28.15
579.794	28.4
579.989	28.67
580.183	28.67
580.378	28.51
580.572	28.4
580.766	28.61
580.961	28.69
581.155	28.61
581.35	28.71
581.544	28.51
581.738	28.57
581.933	28.72
582.127	28.71
582.321	28.41
582.516	28.52
582.71	28.92
582.904	28.53
583.099	28.47
583.293	28.58
583.487	28.49
583.681	28.44
583.875	28.35
584.07	28.22
584.264	28.23
584.458	28.5
584.652	28.11
584.846	27.98
585.04	28.27
585.234	28.43
585.428	28.66
585.623	28.58
585.817	28.76
586.011	28.78
586.205	28.64
586.399	28.38
586.593	28.36
586.787	28.83
586.981	28.84
587.174	28.82
587.368	28.92
587.562	28.8
587.756	28.92
587.95	29.02
588.144	29.32
588.338	29.48
588.532	29.77
588.725	29.71
588.919	29.61
589.113	29.94
589.307	29.81
589.501	29.92
589.694	29.92
589.888	29.95
590.082	29.87
590.275	29.75
590.469	29.71
590.663	29.79
590.856	29.81
591.05	29.83
591.244	29.67
591.437	29.97
591.631	30.17
591.824	30.11
592.018	30.16
592.212	30.19
592.405	30.2
592.599	30.47
592.792	30.53
592.986	30.64
593.179	30.8
593.372	31.1
593.566	30.99
593.759	30.84
593.953	31.01
594.146	31.37
594.339	31.54
594.533	31.62
594.726	31.61
594.92	31.8
595.113	31.78
595.306	31.64
595.499	31.4
595.693	31.67
595.886	31.66
596.079	31.7
596.272	31.49
596.466	31.26
596.659	31.3
596.852	31.3
597.045	31.23
597.238	31.42
597.431	31.3
597.624	31.34
597.818	30.98
598.011	30.78
598.204	30.61
598.397	30.6
598.59	30.83
598.783	30.73
598.976	30.6
599.169	30.67
599.362	30.44
599.555	30.62
599.748	30.8
599.941	30.86
600.134	31.08
600.326	31.31
600.519	31.35
600.712	31.32
600.905	31.42
601.098	31.37
601.291	31.09
601.483	31.33
601.676	31.42
601.869	31.36
602.062	31.66
602.255	31.75
602.447	31.82
602.64	31.81
602.833	32.1
603.025	32.32
603.218	32.44
603.411	32.66
603.603	32.56
603.796	32.51
603.989	32.62
604.181	32.65
604.374	32.84
604.566	32.91
604.759	33.02
604.951	33.01
605.144	32.88
605.336	33.11
605.529	32.96
605.721	32.87
605.914	32.85
606.106	32.87
606.299	32.75
606.491	32.8
606.683	32.83
606.876	32.69
607.068	32.41
607.26	32.37
607.453	32.38
607.645	32.51
607.837	32.67
608.03	32.88
608.222	32.8
608.414	32.78
608.606	32.32
608.799	32.31
608.991	32.47
609.183	32.5
609.375	32.58
609.567	32.36
609.759	32.33
609.952	32.23
610.144	32.1
610.336	31.95
610.528	31.96
610.72	32.19
610.912	32.09
611.104	31.97
611.296	32.16
611.488	31.93
611.68	31.81
611.872	32.05
612.064	32.24
612.256	32.18
612.448	32.35
612.64	32.34
612.832	32.54
613.023	32.53
613.215	32.76
613.407	32.82
613.599	32.92
613.791	32.85
613.983	32.52
614.174	32.83
614.366	33.27
614.558	32.79
614.75	32.97
614.941	32.66
615.133	32.41
615.325	32.5
615.516	32.34
615.708	32.56
615.9	32.96
616.091	33.13
616.283	32.86
616.475	32.95
616.666	33.5
616.858	33.5
617.049	33.44
617.241	33.76
617.432	33.72
617.624	33.82
617.815	33.84
618.007	33.75
618.198	33.5
618.39	33.23
618.581	33.19
618.773	33.41
618.964	33.59
619.155	33.81
619.347	33.81
619.538	33.71
619.729	33.6
619.921	33.34
620.112	33.31
620.303	33.17
620.494	33.29
620.686	33.22
620.877	33.03
621.068	32.96
621.259	32.87
621.451	33.1
621.642	33.18
621.833	33.56
622.024	33.7
622.215	33.85
622.406	34.23
622.597	34.38
622.788	34.23
622.98	34.44
623.171	34.4
623.362	34.65
623.553	34.44
623.744	34.19
623.935	34.13
624.126	34.19
624.317	34.39
624.508	34.54
624.698	34.82
624.889	35.06
625.08	34.87
625.271	34.93
625.462	35.03
625.653	35.09
625.844	35.23
626.034	35.15
626.225	35.27
626.416	35.28
626.607	35.61
626.798	35.69
626.988	35.4
627.179	35.39
627.37	35.48
627.56	35.64
627.751	35.82
627.942	35.85
628.132	35.56
628.323	35.34
628.514	35.12
628.704	34.95
628.895	34.72
629.085	34.91
629.276	35.01
629.466	35.23
629.657	34.85
629.847	34.9
630.038	35.14
630.228	35.49
630.419	36.03
630.609	35.94
630.8	35.81
630.99	35.68
631.181	35.71
631.371	35.78
631.561	35.39
631.752	35.61
631.942	35.46
632.132	35.13
632.323	35.06
632.513	34.82
632.703	34.84
632.893	34.74
633.084	34.74
633.274	34.64
633.464	34.29
633.654	34.35
633.844	34.4
634.034	34.71
634.225	35.27
634.415	35.63
634.605	35.53
634.795	35.56
634.985	35.19
635.175	35.2
635.365	35.32
635.555	35.78
635.745	35.81
635.935	35.55
636.125	35.15
636.315	34.83
636.505	34.84
636.695	35.14
636.885	35.38
637.075	35.82
637.265	35.96
637.455	36.08
637.644	36.01
637.834	36.07
638.024	36.47
638.214	36.71
638.404	36.54
638.593	36.28
638.783	36.2
638.973	35.91
639.163	36.24
639.352	36.21
639.542	35.92
639.732	35.49
639.921	35.47
640.111	35.05
640.301	34.74
640.49	34.85
640.68	34.73
640.87	34.88
641.059	34.94
641.249	34.64
641.438	35.07
641.628	35.51
641.817	36.13
642.007	36.15
642.196	36.42
642.386	36.53
642.575	37.01
642.764	36.98
642.954	36.84
643.143	37.51
643.333	37.71
643.522	37.15
643.711	36.72
643.901	36.43
644.09	36.49
644.279	36.24
644.469	36.19
644.658	35.54
644.847	35.86
645.036	35.94
645.226	35.21
645.415	34.93
645.604	35.25
645.793	35.71
645.982	35.67
646.171	35.55
646.361	35.76
646.55	35.81
646.739	35.88
646.928	36.08
647.117	35.42
647.306	35.9
647.495	35.94
647.684	35.54
647.873	35.55
648.062	35.18
648.251	35.32
648.44	34.81
648.629	34.78
648.818	35.06
649.007	34.48
649.196	35.1
649.384	34.95
649.573	35.18
649.762	35.72
649.951	35.39
650.14	35.65
650.328	35.6
650.517	36.24
650.706	36.58
650.895	36.2
651.083	36.38
651.272	35.98
651.461	36.02
651.65	35.87
651.838	35.85
652.027	35.85
652.216	36.41
652.404	36.13
652.593	36.17
652.781	36.31
652.97	36.71
653.158	36.91
653.347	36.84
653.535	37
653.724	37.22
653.912	36.54
654.101	36.71
654.289	36.38
654.478	36.28
654.666	36.07
654.855	35.91
655.043	35.55
655.231	35.39
655.42	35.88
655.608	35.51
655.796	35.05
655.985	35.55
656.173	35.49
656.361	35.74
656.55	36.18
656.738	35.77
656.926	35.68
657.114	35.87
657.302	35.9
657.491	35.65
657.679	35.63
657.867	36.24
658.055	35.91
658.243	35.7
658.431	35.52
658.619	35.64
658.807	36.14
658.996	36.32
659.184	36.32
659.372	35.86
659.56	36.17
659.748	36.62
659.936	36.6
660.124	36.74
660.311	37.1
660.499	37.36
660.687	37.59
660.875	37.72
661.063	37.49
661.251	37.73
661.439	38.21
661.627	38.27
661.814	38.04
662.002	37.93
662.19	38.23
662.378	38.2
662.565	37.93
662.753	37.87
662.941	38
663.129	38.35
663.316	38.15
663.504	38.04
663.692	37.57
663.879	37.63
664.067	37.36
664.254	37.65
664.442	37.75
664.63	37.6
664.817	37.2
665.005	36.89
665.192	36.45
665.38	36.42
665.567	36.3
665.755	36.48
665.942	36.36
666.13	36.61
666.317	36.6
666.504	36.59
666.692	36.85
666.879	36.87
667.067	36.4
667.254	36.9
667.441	36.77
667.629	37.27
667.816	37.51
668.003	37.06
668.19	36.77
668.378	36.38
668.565	36.42
668.752	36.01
668.939	36.76
669.127	36.99
669.314	36.83
669.501	36.89
669.688	37.25
669.875	37.27
670.062	37.73
670.249	38.45
670.436	38.59
670.623	38.62
670.81	39.02
670.997	38.35
671.184	38.29
671.371	38.56
671.558	38.75
671.745	38.53
671.932	38.58
672.119	38.86
672.306	38.7
672.493	38.73
672.68	38.22
672.867	37.91
673.054	38.28
673.24	38.25
673.427	38.06
673.614	37.93
673.801	37.59
673.988	37.82
674.174	37.48
674.361	37.15
674.548	36.88
674.734	37.05
674.921	37.75
675.108	37.4
675.294	37.46
675.481	37.16
675.668	37.17
675.854	37.22
676.041	36.61
676.227	36.63
676.414	36.38
676.601	36.71
676.787	36.64
676.974	36.24
677.16	36.59
677.347	36.82
677.533	35.88
677.719	36.28
677.906	36.72
678.092	37.04
678.279	37.32
678.465	37.81
678.651	38.19
678.838	38.24
679.024	38.09
679.21	38.31
679.397	38.44
679.583	39.36
679.769	39.3
679.955	38.87
680.142	38.43
680.328	38.11
680.514	37.94
680.7	37.79
680.886	37.84
681.073	38.18
681.259	38.5
681.445	38.66
681.631	38.86
681.817	38.58
682.003	38.67
682.189	39.31
682.375	39.8
682.561	40.09
682.747	39.56
682.933	39.97
683.119	39.67
683.305	39.31
683.491	38.9
683.677	38.9
683.863	39.19
684.049	39.18
684.235	38.94
684.42	38.56
684.606	38.04
684.792	38.57
684.978	38.09
685.164	38.15
685.349	37.63
685.535	38.18
685.721	38.05
685.907	38.09
686.092	38.37
686.278	38.65
686.464	39.17
686.649	39.44
686.835	39.84
687.021	40.29
687.206	40.58
687.392	40.4
687.577	40.44
687.763	40.64
687.948	40.6
688.134	40.31
688.319	40.45
688.505	39.89
688.69	40.22
688.876	40.15
689.061	40.17
689.247	39.62
689.432	39.83
689.618	39.53
689.803	38.9
689.988	38.83
690.174	38.78
690.359	38.74
690.544	39.09
690.73	39.05
690.915	38.35
691.1	38.28
691.285	38.51
691.471	39.03
691.656	38.94
691.841	39.48
692.026	39.58
692.211	39.47
692.396	38.74
692.582	38.95
692.767	39.01
692.952	39.08
693.137	39.42
693.322	39.55
693.507	39.18
693.692	38.79
693.877	38.2
694.062	38.79
694.247	39.36
694.432	40.31
694.617	40.11
694.802	39.59
694.987	39.72
695.172	39.13
695.357	39.41
695.541	39.94
695.726	40.24
695.911	40.79
696.096	40.31
696.281	40.33
696.466	39.87
696.65	39.9
696.835	40.15
697.02	40.49
697.204	40.85
697.389	40.74
697.574	40.34
697.759	40.59
697.943	40.78
698.128	40.73
698.312	40.92
698.497	40.66
698.682	40.8
698.866	40.53
699.051	40.08
699.235	40.08
699.42	40.03
699.604	39.89
699.789	39.66
699.973	39.28
700.158	39.21
700.342	38.6
700.527	38.68
700.711	38.4
700.895	38.75
701.08	39.17
701.264	39.19
701.448	38.9
701.633	39.17
701.817	39.01
702.001	39.35
702.186	39.24
702.37	39.96
702.554	40.37
702.738	40.47
702.923	40.01
703.107	39.65
703.291	39.12
703.475	39.83
703.659	39.67
703.843	39.66
704.027	39.81
704.212	40.17
704.396	39.53
704.58	38.94
704.764	38.25
704.948	38.33
705.132	38.25
705.316	38.91
705.5	38.28
705.684	37.42
705.868	37.66
706.052	36.7
706.235	36.63
706.419	36.98
706.603	37.18
706.787	38.26
706.971	39.08
707.155	39.3
707.339	38.62
707.522	38.35
707.706	38.75
707.89	38.47
708.074	39
708.257	38.42
708.441	38.17
708.625	37.86
708.808	37.26
708.992	36.83
709.176	37.16
709.359	38.02
709.543	38.67
709.727	38.98
709.91	39.52
710.094	39.42
710.277	39.92
710.461	40.14
710.644	40.67
710.828	40.9
711.011	40.35
711.195	40.44
711.378	39.58
711.562	39.71
711.745	39.2
711.928	38.76
712.112	38.82
712.295	38.59
712.478	38.58
712.662	39.19
712.845	39.25
713.028	40.14
713.212	39.72
713.395	40.34
713.578	40.14
713.761	41.12
713.945	41.91
714.128	41.7
714.311	41.3
714.494	40.92
714.677	40.3
714.86	40.74
715.043	39.94
715.227	39.67
715.41	38.67
715.593	38.92
715.776	39.23
715.959	38.31
716.142	38.84
716.325	39.68
716.508	40.6
716.691	40.09
716.874	40.18
717.057	41.16
717.239	41.5
717.422	42.32
717.605	42.55
717.788	42.21
717.971	43.15
718.154	42.82
718.337	42.83
718.519	42.25
718.702	42.59
718.885	41.65
719.068	40.97
719.25	42.58
719.433	43.28
719.616	43.23
719.798	42.34
719.981	41.37
720.164	41.44
720.346	41.55
720.529	41.28
720.712	42.04
720.894	42.32
721.077	43.16
721.259	41.52
721.442	40.32
721.624	40.71
721.807	41.85
721.989	43.05
722.172	42.03
722.354	41.48
722.537	41.87
722.719	42.06
722.901	41.71
723.084	40.77
723.266	41.03
723.448	42.05
723.631	41
723.813	40.55
723.995	40.53
724.178	41.36
724.36	41.77
724.542	42.36
724.724	40.74
724.907	40.96
725.089	41.72
725.271	41.69
725.453	40.82
725.635	40.13
725.817	40.75
725.999	39.43
726.181	40.4
726.364	41.04
726.546	39.66
726.728	40.01
726.91	41.17
727.092	40.84
727.274	41.46
727.456	41.76
727.638	42.22
727.819	41.62
728.001	42.8
728.183	42.41
728.365	41.44
728.547	40.97
728.729	41.43
728.911	41.27
729.093	40.35
729.274	40.21
729.456	40.34
729.638	40.91
729.82	40.99
730.001	40.1
730.183	39.5
730.365	39.7
730.546	40.53
730.728	39.68
730.91	39.06
731.091	40.27
731.273	39.3
731.455	38.59
731.636	38.38
731.818	38.41
731.999	38.84
732.181	39.58
732.362	40.38
732.544	40.61
732.725	41.15
732.907	41.03
733.088	41.08
733.27	41.99
733.451	42.89
733.633	43.11
733.814	42.5
733.995	41.9
734.177	41.78
734.358	40.03
734.539	39.94
734.721	39.48
734.902	39.65
735.083	38.2
735.264	38.07
735.446	36.66
735.627	35.68
735.808	35.88
735.989	36
736.17	34.44
736.351	35.23
736.533	35.02
736.714	35.7
736.895	35.25
737.076	35.96
737.257	35.31
737.438	35.58
737.619	36.08
737.8	36.17
737.981	36.96
738.162	38.58
738.343	38.58
738.524	39.5
738.705	39.75
738.886	40.21
739.067	40.32
739.247	40.31
739.428	40.83
739.609	41.14
739.79	41.5
739.971	41.82
740.151	40.76
740.332	40.58
740.513	40.95
740.694	40.36
740.874	39.84
741.055	39.98
741.236	40.13
741.417	40.43
741.597	40.26
741.778	39.04
741.958	38.28
742.139	39.89
742.32	38.83
742.5	37.86
742.681	38.42
742.861	38.58
743.042	38.91
743.222	38.68
743.403	39.04
743.583	38.51
743.764	39.61
743.944	39
744.124	39.07
744.305	41.04
744.485	40.89
744.666	42.13
744.846	42.12
745.026	42.45
745.207	42.36
745.387	42.58
745.567	43.99
745.747	44.16
745.928	45.06
746.108	43.67
746.288	43.87
746.468	44.61
746.648	42.27
746.829	42.31
747.009	42.04
747.189	42.29
747.369	40.34
747.549	39.46
747.729	39.17
747.909	37.93
748.089	38.47
748.269	38.19
748.449	37.93
748.629	39.52
748.809	38.57
748.989	38.77
749.169	38.79
749.349	41.39
749.529	40.69
749.709	41.56
749.889	41.8
750.068	41.26
750.248	40.39
750.428	40.14
750.608	38.97
750.788	40.27
750.967	38.96
751.147	38.49
751.327	36.83
751.507	36.7
751.686	36.61
751.866	37.75
752.046	37.98
752.225	39.79
752.405	38.67
752.585	39.06
752.764	38.18
752.944	38.97
753.123	38.94
753.303	40.06
753.482	41.63
753.662	40.51
753.841	39.99
754.021	39.94
754.2	37.35
754.38	38.86
754.559	39.86
754.739	40.78
754.918	41.86
755.097	42.75
755.277	42.84
755.456	42.64
755.635	42.1
755.815	43.57
755.994	44.54
756.173	46.82
756.352	46.22
756.532	45.53
756.711	45.84
756.89	45.6
757.069	45.48
757.248	44.55
757.427	44.91
757.607	45.44
757.786	43.23
757.965	43.02
758.144	41.92
758.323	42.55
758.502	41.72
758.681	41.53
758.86	39.69
759.039	39.74
759.218	40.21
759.397	37.9
759.576	37.63
759.755	38.42
759.934	37.56
760.113	37.55
760.291	36.1
760.47	36.89
760.649	37.06
760.828	37.82
761.007	38.47
761.186	38.61
761.364	40.24
761.543	40.73
761.722	41.32
761.901	42.93
762.079	43.33
762.258	44.73
762.437	44.39
762.615	43.9
762.794	43.58
762.972	42.32
763.151	41.42
763.33	41.7
763.508	41.29
763.687	41.09
763.865	41.05
764.044	40.46
764.222	40.36
764.401	40.69
764.579	40.37
764.758	39.85
764.936	40.61
765.114	41.42
765.293	41.15
765.471	41.34
765.65	41.45
765.828	41.68
766.006	41.57
766.184	40.56
766.363	40.4
766.541	39.47
766.719	40.38
766.898	40.09
767.076	39.89
767.254	39.88
767.432	40.38
767.61	39.56
767.788	38.43
767.967	38.79
768.145	39.4
768.323	38.26
768.501	38.44
768.679	37.29
768.857	37.13
769.035	37.7
769.213	38.65
769.391	38.58
769.569	39.26
769.747	40.48
769.925	41.74
770.103	42
770.281	43.08
770.459	43.92
770.636	44.67
770.814	44.42
770.992	44.09
771.17	42.13
771.348	39.83
771.525	39.97
771.703	38.12
771.881	37.17
772.059	37.02
772.236	36.88
772.414	36.98
772.592	37.99
772.769	38.13
772.947	36.98
773.125	38.14
773.302	41.57
773.48	42.21
773.657	42.53
773.835	42.09
774.013	42.89
774.19	42.58
774.368	43.83
774.545	43.02
774.723	43.49
774.9	44.32
775.077	41.81
775.255	41.27
775.432	38.72
775.61	35.97
775.787	36.09
775.964	36.37
776.142	37.55
776.319	36.51
776.496	35.78
776.674	36.47
776.851	36.59
777.028	38.47
777.205	36.52
777.382	39.03
777.56	39.55
777.737	39.06
777.914	37.53
778.091	35.6
778.268	34.35
778.445	34.58
778.622	33.68
778.8	33.86
778.977	34.62
779.154	37.14
779.331	37.38
779.508	39.9
779.685	39.79
779.862	39.42
780.038	40.81
780.215	43.12
780.392	42.25
780.569	40.99
780.746	41.1
780.923	39.85
781.1	37.67
781.277	37.36
781.453	36.56
781.63	36.82
781.807	37.48
781.984	38.45
782.16	39.6
782.337	41.78
782.514	41.48
782.691	39.28
782.867	41.5
783.044	43.96
783.221	42.32
783.397	43.43
783.574	45.86
783.75	46
783.927	44.13
784.103	40.96
784.28	39.69
784.456	41.21
784.633	41.88
784.809	41.7
784.986	43.1
785.162	42.04
785.339	40.09
785.515	37.96
785.692	37.62
785.868	36.26
786.044	36.75
786.221	37.13
786.397	38.03
786.573	39.52
786.749	36.63
786.926	36.86
787.102	40.09
787.278	39.32
787.454	41.23
787.631	40.04
787.807	44.02
787.983	45.09
788.159	42.63
788.335	42.79
788.511	41.78
788.687	46.95
788.863	43.92
789.039	41.19
789.216	43.01
789.392	42.22
789.568	43.09
789.744	42.44
789.919	43.03
790.095	45.95
790.271	45.14
790.447	44.76
790.623	39.45
790.799	40.71
790.975	39.47
791.151	39.36
791.327	41.02
791.502	41.85
791.678	41.16
791.854	38.12
792.03	35.75
792.205	38.87
792.381	40.2
792.557	44.55
792.733	43.3
792.908	45.19
793.084	49.06
793.259	46.66
793.435	45.61
793.611	44.76
793.786	46.57
793.962	45.67
794.137	43.12
794.313	43.74
794.488	39.16
794.664	37.08
794.839	36.34
795.015	32.86
795.19	33.31
795.366	34.25
795.541	33.25
795.716	33.46
795.892	33.88
796.067	33.1
796.242	33
796.418	36.31
796.593	39.23
796.768	41.6
796.944	43.16
797.119	43.12
797.294	42.97
797.469	44.06
797.644	42.65
797.82	47.18
797.995	47.35
798.17	46.49
798.345	44.48
798.52	42.98
798.695	42.03
798.87	38.61
799.045	36.64
799.22	35.51
799.395	34.49
799.57	34.28
799.745	31.42
799.92	34.03
800.095	32.69
800.27	31.72
800.445	32
800.62	31.8
800.795	31.72
800.97	30.5
801.145	30.46
801.319	28.19
801.494	27.94
801.669	28.1
801.844	23.68
802.018	27.76
802.193	31.24
802.368	30.24
802.543	30.78
802.717	33.33
802.892	38.49
803.067	39.92
803.241	42.1
803.416	45.67
803.59	48.65
803.765	48.72
803.94	45.56
804.114	42.88
804.289	43.84
804.463	44.43
804.638	41.3
804.812	38.14
804.986	39.68
805.161	43.56
805.335	39.91
805.51	38.57
805.684	39.27
805.858	41.05
806.033	44.4
806.207	46.72
806.381	47.18
806.556	51.26
806.73	52.28
806.904	48.29
807.078	46.76
807.253	46.66
807.427	46.75
807.601	44.78
807.775	42.19
807.949	40.63
808.123	42.33
808.298	40.93
808.472	40.48
808.646	43.25
808.82	44.25
808.994	43.26
809.168	43.65
809.342	40.27
809.516	43.2
809.69	48.54
809.864	49.29
810.038	46.69
810.212	44.87
810.385	44.28
810.559	39.86
810.733	38.19
810.907	34.34
811.081	34.6
811.255	36.53
811.428	35.25
811.602	32.71
811.776	30.2
811.95	26.85
812.123	29.88
812.297	25.93
812.471	28.55
812.644	28.99
812.818	28.78
812.992	31.89
813.165	31.03
813.339	35.78
813.512	33.03
813.686	31.01
813.86	33.29
814.033	33.41
814.207	34.63
814.38	35.01
814.554	34.55
814.727	36.6
814.9	36.04
815.074	36.47
815.247	32.56
815.421	33.8
815.594	40.59
815.767	42.39
815.941	41.46
816.114	43.16
816.287	41.87
816.46	43.03
816.634	42.93
816.807	41.53
816.98	43.92
817.153	45.68
817.327	41.96
817.5	31.47
817.673	27.41
817.846	27.99
818.019	28.63
818.192	32.84
818.365	36.12
818.538	36.11
818.711	36.61
818.884	33.18
819.057	34.45
819.23	40.88
819.403	43.16
819.576	41.77
819.749	42.93
819.922	41.58
820.095	37.27
820.268	35.16
820.441	38.85
820.614	38.15
820.786	41.56
820.959	42.25
821.132	40.13
821.305	41.02
821.477	44.22
821.65	42.79
821.823	42.15
821.996	42.84
822.168	42.86
822.341	41.94
822.514	42.07
822.686	41.19
822.859	40.92
823.031	40.23
823.204	40.46
823.376	39.64
823.549	40.05
823.722	40.67
823.894	41.3
824.067	41.52
824.239	41.43
824.411	41.69
824.584	42.84
824.756	42.48
824.929	43.79
825.101	43.02
825.273	43.23
825.446	43.02
825.618	43.19
825.79	42.19
825.963	41.65
826.135	42.62
826.307	43.89
826.479	41.99
826.652	41.79
826.824	41.98
826.996	42.17
827.168	41.76
827.34	41.88
827.512	42.14
827.684	43.31
827.856	43.02
828.029	41.94
828.201	41.13
828.373	42.86
828.545	43.01
828.717	42.87
828.889	42.55
829.061	42.3
829.232	41.98
829.404	40.95
829.576	40.79
829.748	43.61
829.92	43.77
830.092	40.86
830.264	40.13
830.436	41.52
830.607	40.45
830.779	43.77
830.951	45.84
831.123	46.47
831.294	44.73
831.466	44.96
831.638	40.77
831.809	39.69
831.981	37.22
832.153	37.36
832.324	33.01
832.496	33.74
832.667	29.72
832.839	33
833.011	30.1
833.182	33.99
833.354	32.17
833.525	33.55
833.697	36.87
833.868	39.12
834.039	35.28
834.211	37.28
834.382	37.39
834.554	39.42
834.725	36.5
834.896	38.42
835.068	38.79
835.239	39.3
835.41	39.45
835.581	37.17
835.753	38.89
835.924	42.33
836.095	42.57
836.266	43.07
836.438	43.87
836.609	43.8
836.78	43.43
836.951	42.1
837.122	42.9
837.293	43.49
837.464	51.1
837.635	50.88
837.806	48.92
837.977	49.17
838.148	48.66
838.319	49.05
838.49	51.14
838.661	51.4
838.832	53.05
839.003	49.91
839.174	49.06
839.345	44.99
839.516	44.24
839.687	46.28
839.857	45.34
840.028	46.9
840.199	44.2
840.37	41.47
840.54	41.82
840.711	38.09
840.882	35.31
841.053	34.15
841.223	28.76
841.394	30.37
841.564	27.63
841.735	29.36
841.906	23.8
842.076	21.57
842.247	23.46
842.417	24.14
842.588	23.49
842.758	25.98
842.929	26.14
843.099	35.7
843.27	34.47
843.44	40.65
843.611	34.17
843.781	35.83
843.951	43.99
844.122	48.9
844.292	41.17
844.462	51.82
844.633	50.81
844.803	50.12
844.973	38.26
845.144	42.55
845.314	43.73
845.484	52.73
845.654	58.05
845.824	56.33
845.995	28.1
846.165	27.34
846.335	26.75
846.505	33.91
846.675	37.81
846.845	37.95
847.015	27.03
847.185	30.78
847.355	20.9
847.525	18.63
847.695	19.43
847.865	30.44
848.035	36.75
848.205	27.64
848.375	27.71
848.545	24.67
848.715	30.37
848.884	28.16
849.054	24.22
849.224	38.53
849.394	43.48
849.564	36.47
849.733	37.92
849.903	36.57
850.073	48.46
850.243	54.62
850.412	56.37
850.582	50.42
850.752	56.29
850.921	54.31
851.091	46.38
851.26	53.16
851.43	52.18
851.599	62.14
851.769	75.8
851.939	70.39
852.108	62.69
852.278	66.41
852.447	83.84
852.616	92.29
852.786	90.61
852.955	78.37
853.125	86.94
853.294	94.1
853.463	70.18
853.633	58.33
853.802	60.13
853.971	54.96
854.141	43.93
854.31	34.69
854.479	33.76
854.648	38.46
854.818	45.81
854.987	47.2
855.156	56.88
855.325	55.09
855.494	52.83
855.663	43.62
855.832	49.35
856.001	51.1
856.171	48.08
856.34	42.3
856.509	39.29
856.678	34.2
856.847	21.15
857.016	17.39
857.185	19.39
857.353	21.18
857.522	24.74
857.691	24.08
857.86	31.41
858.029	38.34
858.198	41.95
858.367	43.31
858.535	46.15
858.704	47.33
858.873	36.46
859.042	37.98
859.21	37.15
859.379	37.71
859.548	32.92
859.717	28.39
859.885	21.25
860.054	20.17
860.222	34.15
860.391	30.65
860.56	30.31
860.728	36.64
860.897	34.93
861.065	15.07
861.234	2.72
861.402	13.98
861.571	6.44
861.739	-12.67
861.908	-7.54
862.076	-27.35
862.244	-22.74
862.413	-23.59
862.581	-27.19
862.749	-27.94
862.918	13.46
863.086	16.13
863.254	15.63
863.423	23.8
863.591	39.5
863.759	42.58
863.927	50.78
864.096	52.7
864.264	59.02
864.432	48.74
864.6	45.8
864.768	31.22
864.936	32.11
865.104	28.24
865.272	7.95
865.44	3.67
865.608	-18.11
865.776	-14.32
865.944	-7.85
866.112	-4.5
866.28	-1.78
866.448	10.38
866.616	16.67
866.784	27.87
866.952	31.04
867.12	48.82
867.288	56.16
867.455	67.26
867.623	53.2
867.791	28.48
867.959	22.47
868.127	17.76
868.294	23.67
868.462	27.04
868.63	28.12
868.797	32.14
868.965	40.56
869.133	38.59
869.3	41.96
869.468	53.26
869.636	66.88
869.803	76.65
869.971	79.74
870.138	77.38
870.306	61.2
870.473	34.86
870.641	47.88
870.808	42.57
870.975	53.88
871.143	42.05
871.31	22.37
871.478	9.31
871.645	8.85
871.812	18.61
871.98	27.35
872.147	33.58
872.314	40.03
872.482	30.38
872.649	27.68
872.816	33.33
872.983	39.03
873.15	22.05
873.318	46.2
873.485	74.84
873.652	79.27
873.819	67.91
873.986	70.41
874.153	80.47
874.32	67.75
874.487	65.28
874.654	66.73
874.821	61.84
874.988	78.12
875.155	63.84
875.322	55.13
875.489	45.62
875.656	43.17
875.823	41.53
875.99	42.52
876.157	33.94
876.324	27.44
876.49	9.83
876.657	11.68
876.824	17.42
876.991	19.43
877.157	25.03
877.324	35.29
877.491	44.4
877.658	44.4
877.824	44.89
877.991	51.92
878.157	62.18
878.324	65.39
878.491	61.83
878.657	61.47
878.824	56.77
878.99	51.73
879.157	46.54
879.323	42.29
879.49	45.83
879.656	41.56
879.823	32.55
879.989	29.04
880.156	39.39
880.322	41.33
880.488	35.27
880.655	51.89
880.821	47.29
880.987	38.05
881.154	26.38
881.32	25.76
881.486	26.68
881.652	34.57
881.819	30.92
881.985	27.09
882.151	27.12
882.317	28.54
882.483	22.8
882.649	24.57
882.816	28.6
882.982	31.36
883.148	29.13
883.314	28.41
883.48	28.64
883.646	31.34
883.812	30.07
883.978	30.14
884.144	30.44
884.31	35.87
884.476	36.16
884.642	35.18
884.807	36.81
884.973	38.84
885.139	42.9
885.305	42.26
885.471	40.23
885.637	44.09
885.802	44.77
885.968	45.74
886.134	41
886.3	43.6
886.465	42.1
886.631	42.57
886.797	41.78
886.962	38.8
887.128	33.32
887.293	34.12
887.459	31.81
887.625	32.45
887.79	28.24
887.956	35.03
888.121	31.95
888.287	35.64
888.452	29.7
888.618	29.67
888.783	28.03
