Data from 2937810_Reflection_1.txt Node
Date: Wed Jul 15 17:48:50 EDT 2015
User: robert
Spectrometer: USB4E03001
Autoset integration time: false
Trigger mode: 4
Integration Time (sec): 1.000000E-1
Scans to average: 10
Electric dark correction enabled: true
Nonlinearity correction enabled: false
Boxcar width: 5
Stray light correction enabled: false
XAxis mode: Wavelengths
Stop averaging: false
Number of Pixels in Spectrum: 3648
>>>>>Begin Spectral Data<<<<<
177.566	106.01
177.785	58.94
178.005	7.52
178.225	-438.67
178.445	222.07
178.665	80.16
178.885	441.12
179.105	178.23
179.324	117.2
179.544	45.59
179.764	20.89
179.984	24.35
180.204	-21.15
180.423	-26.35
180.643	-6.03
180.863	20.1
181.083	44.67
181.302	43.74
181.522	53.27
181.742	53.72
181.961	-7515
182.181	-209.98
182.401	-145.16
182.621	-417.74
182.84	-91.94
183.06	6.91
183.279	-10.76
183.499	-28.43
183.719	-37.71
183.938	-29.9
184.158	-85.53
184.377	-66.3
184.597	-151.64
184.816	546.87
185.036	433.75
185.256	108.18
185.475	123.03
185.695	95.78
185.914	92.81
186.134	78.72
186.353	101
186.572	94.74
186.792	106.49
187.011	79.12
187.231	51.11
187.45	14.25
187.67	-3.87
187.889	-136.18
188.108	52.03
188.328	89.03
188.547	92.34
188.766	68.93
188.986	74.35
189.205	80.55
189.424	122.29
189.644	171.35
189.863	259.09
190.082	250.5
190.302	166.25
190.521	157.72
190.74	178.09
190.959	129.47
191.178	321.62
191.398	767.97
191.617	152
191.836	148.43
192.055	65.46
192.274	-5.6
192.494	-26.25
192.713	4.85
192.932	3.91
193.151	38.33
193.37	49.27
193.589	52.32
193.808	28.34
194.027	-7.05
194.246	-16.59
194.465	10.12
194.685	69.12
194.904	128.82
195.123	101.85
195.342	161.5
195.561	115.26
195.78	-391.23
195.999	304.6
196.218	-68.35
196.436	-4.32
196.655	-28.34
196.874	-39.24
197.093	-254.99
197.312	-271.22
197.531	-172.99
197.75	107.74
197.969	84.42
198.188	51.06
198.407	56.31
198.625	57.17
198.844	59.82
199.063	68.29
199.282	72.2
199.501	49.93
199.719	59.3
199.938	64.73
200.157	63.24
200.376	74.89
200.594	126.78
200.813	172.83
201.032	138.25
201.251	-359.83
201.469	-240.69
201.688	-167.99
201.907	-152.99
202.125	-105.58
202.344	-673.78
202.563	-335.74
202.781	-254.08
203	-396.24
203.218	-417.28
203.437	3838.97
203.656	180.79
203.874	163.31
204.093	127.37
204.311	114.71
204.53	105.1
204.748	86.03
204.967	92.06
205.185	101.2
205.404	93.34
205.622	80.27
205.841	59.98
206.059	40.73
206.278	214.42
206.496	217.41
206.715	25
206.933	135.94
207.151	520.13
207.37	206.27
207.588	645.25
207.806	-114.6
208.025	9.89
208.243	-41.04
208.461	47.9
208.68	15.62
208.898	39.77
209.116	-41.07
209.335	443.63
209.553	457.01
209.771	-11.62
209.989	390.49
210.208	-46.04
210.426	-97.67
210.644	4947.27
210.862	1544.59
211.081	474.62
211.299	313.31
211.517	-1015.36
211.735	12943.75
211.953	407.47
212.171	322.45
212.39	832.79
212.608	302.59
212.826	100.43
213.044	72.72
213.262	489.83
213.48	-1588.29
213.698	-570.83
213.916	181.33
214.134	167.73
214.352	252.27
214.57	-684.69
214.788	-245.58
215.006	2447.42
215.224	1210.15
215.442	199.78
215.66	167.45
215.878	-138.92
216.096	433.45
216.314	59.85
216.532	77
216.75	87.51
216.968	13.56
217.185	34.98
217.403	31.01
217.621	45.08
217.839	91.32
218.057	57.1
218.275	42.21
218.492	90.65
218.71	-220.96
218.928	-79.46
219.146	-74.18
219.363	-173.61
219.581	-64.54
219.799	-149.03
220.017	-519.94
220.234	-724.84
220.452	-1902.48
220.67	795.6
220.887	-137.5
221.105	-75.26
221.323	-27.85
221.54	-54.74
221.758	-117.74
221.976	-956.93
222.193	189.55
222.411	102.41
222.629	71.35
222.846	28.04
223.064	42.48
223.281	74.79
223.499	81.9
223.716	53.05
223.934	62.13
224.151	37.02
224.369	30.9
224.586	41.94
224.804	42.85
225.021	68.24
225.239	98.03
225.456	123.51
225.674	112.62
225.891	102.47
226.108	131.15
226.326	125.21
226.543	3302.34
226.76	-191.92
226.978	-69.2
227.195	-91.98
227.413	-67.14
227.63	-25.1
227.847	-10.54
228.064	-2.08
228.282	3.24
228.499	0.27
228.716	-7.52
228.934	1.37
229.151	5.35
229.368	-2.71
229.585	-5.49
229.802	-3.92
230.02	-1.98
230.237	-2.6
230.454	-9.24
230.671	-9.65
230.888	-23.97
231.105	-18.56
231.323	-27.45
231.54	-28.14
231.757	-15.43
231.974	-8.35
232.191	-5.99
232.408	-6.95
232.625	0.89
232.842	11.66
233.059	-7.94
233.276	0.05
233.493	-2.59
233.71	-1.31
233.927	-23.89
234.144	-26.53
234.361	-44.43
234.578	-27.38
234.795	-41.19
235.012	-33.01
235.229	-38.36
235.446	-30.94
235.663	-21.27
235.879	-14.39
236.096	-14.52
236.313	-13.24
236.53	-14.37
236.747	6.9
236.964	-9.1
237.181	-5.11
237.397	-20.92
237.614	-28.25
237.831	-10.56
238.048	-27.59
238.264	-31.2
238.481	-17.94
238.698	-8.34
238.915	1.61
239.131	-10.74
239.348	2.32
239.565	8.63
239.781	10.03
239.998	11.14
240.215	5.74
240.431	16.37
240.648	17.95
240.865	20.58
241.081	19.46
241.298	13.02
241.514	19.22
241.731	15.55
241.947	14.49
242.164	14.88
242.38	15.86
242.597	16.18
242.814	16.66
243.03	17.9
243.246	16.53
243.463	18.91
243.679	22.28
243.896	19.54
244.112	18.65
244.329	18.25
244.545	17.74
244.762	17.36
244.978	16.67
245.194	17.1
245.411	13.64
245.627	12.76
245.843	10.87
246.06	10.91
246.276	12.51
246.492	13.37
246.709	12.75
246.925	14.29
247.141	14.59
247.357	15
247.574	15.33
247.79	15.4
248.006	15.34
248.222	14.67
248.439	14.73
248.655	12.73
248.871	12.97
249.087	12.82
249.303	10.59
249.519	10.63
249.736	10.15
249.952	8.41
250.168	9.26
250.384	6.23
250.6	5.42
250.816	1.43
251.032	3.22
251.248	1.84
251.464	3.01
251.68	5.11
251.896	6.94
252.112	8.62
252.328	5.71
252.544	4.61
252.76	7.04
252.976	10.18
253.192	14.33
253.408	15.1
253.624	15.6
253.84	16.76
254.056	15.06
254.272	13.74
254.487	15.79
254.703	16.61
254.919	16.85
255.135	18.93
255.351	19.85
255.567	13.7
255.782	17.41
255.998	14.88
256.214	18.11
256.43	20.71
256.646	19.66
256.861	15.33
257.077	16.13
257.293	17.89
257.508	16.19
257.724	12.54
257.94	8.58
258.155	4.6
258.371	3.4
258.587	3.11
258.802	0.9
259.018	2.53
259.234	2.83
259.449	2.58
259.665	3
259.88	4.29
260.096	5.59
260.312	7.87
260.527	8.25
260.743	9.57
260.958	8.68
261.174	9.42
261.389	8.56
261.605	9.39
261.82	10.66
262.036	11.03
262.251	8.52
262.466	7.11
262.682	5.89
262.897	4.48
263.113	4.05
263.328	3.41
263.543	3.13
263.759	1
263.974	2.1
264.189	3.33
264.405	1.85
264.62	3.8
264.835	3.3
265.051	2.68
265.266	3.34
265.481	3.98
265.696	5.64
265.912	6.1
266.127	9.59
266.342	6.16
266.557	1.41
266.773	0.98
266.988	1.99
267.203	2.8
267.418	2.05
267.633	5.48
267.848	3.71
268.064	2.56
268.279	3.37
268.494	2.48
268.709	3.09
268.924	6.53
269.139	7.48
269.354	7.98
269.569	8.58
269.784	10.78
269.999	7.07
270.214	7.48
270.429	7.75
270.644	7.5
270.859	10.49
271.074	10.82
271.289	10.09
271.504	11.03
271.719	11.9
271.934	13.28
272.149	12.92
272.363	15.23
272.578	15.7
272.793	15.2
273.008	15.51
273.223	13.3
273.438	13.18
273.653	14.2
273.867	13.27
274.082	9.24
274.297	8.99
274.512	7.35
274.726	4.95
274.941	4.64
275.156	5.24
275.371	4.91
275.585	6.95
275.8	6.64
276.015	6.35
276.229	6.68
276.444	9.53
276.659	5.93
276.873	6.3
277.088	6.61
277.302	9.43
277.517	9.39
277.732	7.66
277.946	4.7
278.161	4.87
278.375	2.98
278.59	-0.91
278.804	0.41
279.019	-0.58
279.233	1.67
279.448	0.79
279.662	1.13
279.877	2.65
280.091	4.57
280.306	6.44
280.52	7.25
280.735	6.62
280.949	9.23
281.163	10.28
281.378	12.86
281.592	10.5
281.806	11.41
282.021	10.14
282.235	6.69
282.449	5.17
282.664	4.18
282.878	5.62
283.092	7.18
283.307	6.99
283.521	6.15
283.735	8.22
283.949	9.63
284.164	9.27
284.378	9.93
284.592	12.57
284.806	14.44
285.02	14.18
285.234	11.99
285.449	11.71
285.663	11.37
285.877	10.7
286.091	9.9
286.305	11.04
286.519	9.75
286.733	9.54
286.947	7.97
287.161	8.47
287.375	8.78
287.589	9.58
287.803	10.35
288.017	11.06
288.231	9.57
288.445	7.09
288.659	4.66
288.873	7.38
289.087	6.37
289.301	9.63
289.515	8.46
289.729	9.95
289.943	9.99
290.157	10.46
290.371	11
290.584	12.89
290.798	14.64
291.012	16.86
291.226	15.51
291.44	15.02
291.654	14.21
291.867	14.53
292.081	13.36
292.295	14.61
292.509	14
292.722	12.69
292.936	10.57
293.15	12.3
293.364	10.69
293.577	6.24
293.791	7.06
294.005	4.31
294.218	4.84
294.432	6.84
294.645	8.56
294.859	7
295.073	8.27
295.286	8.69
295.5	9.41
295.713	12.14
295.927	16.08
296.14	15.55
296.354	18.03
296.568	18.22
296.781	18.15
296.994	18.12
297.208	17.91
297.421	15.85
297.635	17.42
297.848	14.96
298.062	13.7
298.275	13.28
298.489	13.94
298.702	12.13
298.915	10.98
299.129	9.88
299.342	7.12
299.555	10.46
299.769	11.65
299.982	11.01
300.195	13.03
300.409	12.25
300.622	11.9
300.835	9.2
301.048	6.42
301.262	6.2
301.475	7.68
301.688	9.08
301.901	7.17
302.115	6.35
302.328	5.09
302.541	4.34
302.754	3.13
302.967	6.03
303.18	7.27
303.393	11.24
303.607	12.88
303.82	12.99
304.033	10.55
304.246	9.25
304.459	10.85
304.672	12.1
304.885	12.3
305.098	13.79
305.311	12.19
305.524	11.36
305.737	11.11
305.95	10.81
306.163	9.85
306.376	10.43
306.589	13.64
306.802	14.04
307.015	15.84
307.228	16.07
307.44	15.87
307.653	16.64
307.866	20.95
308.079	21.93
308.292	21.34
308.505	18.99
308.718	20.12
308.93	18.25
309.143	17.68
309.356	17.28
309.569	15.28
309.781	17.87
309.994	16.64
310.207	15.27
310.42	14.06
310.632	14.7
310.845	15.81
311.058	16.82
311.27	15.23
311.483	13.91
311.696	13.86
311.908	14.16
312.121	11.93
312.333	11.7
312.546	11.65
312.759	9.77
312.971	7.52
313.184	5.56
313.396	1.9
313.609	0.79
313.821	4.43
314.034	1.46
314.246	1.8
314.459	1.28
314.671	0.38
314.884	-1.83
315.096	0.95
315.309	3.64
315.521	10.31
315.733	11.33
315.946	13.57
316.158	13.06
316.371	13.09
316.583	13.85
316.795	13.24
317.008	16.08
317.22	16.31
317.432	17.99
317.644	16.11
317.857	11.34
318.069	9.71
318.281	12.87
318.494	12.57
318.706	12.71
318.918	11
319.13	12.93
319.342	10.84
319.555	12.15
319.767	10.04
319.979	11.4
320.191	10.71
320.403	13.47
320.615	12.99
320.827	11.33
321.039	6.64
321.252	6.37
321.464	5.73
321.676	7.77
321.888	6.95
322.1	6.57
322.312	5.96
322.524	5.45
322.736	5.64
322.948	1.33
323.16	3.27
323.372	6.77
323.584	6.92
323.796	4.58
324.007	5.69
324.219	8.61
324.431	8.83
324.643	8.5
324.855	8.81
325.067	9.13
325.279	12.91
325.491	11.16
325.702	13.95
325.914	15.91
326.126	16.24
326.338	15.1
326.55	14.98
326.761	14.75
326.973	16.75
327.185	16.11
327.396	14.89
327.608	11.75
327.82	11.4
328.032	9.88
328.243	10.06
328.455	10.16
328.666	10.34
328.878	9.46
329.09	9.59
329.301	7.7
329.513	9.85
329.725	10.7
329.936	12.47
330.148	12.8
330.359	11.74
330.571	12.4
330.782	12.24
330.994	11.93
331.205	12.98
331.417	13.13
331.628	13.88
331.84	12.84
332.051	12.05
332.262	10.27
332.474	13
332.685	12.76
332.897	8.66
333.108	11.72
333.319	12.99
333.531	12.72
333.742	11.66
333.953	10.61
334.165	13.28
334.376	15.77
334.587	14.85
334.799	14.96
335.01	16.12
335.221	18.32
335.432	17.75
335.644	15.06
335.855	13.62
336.066	13.43
336.277	14.58
336.488	13.48
336.7	12.34
336.911	13.43
337.122	12.83
337.333	12.74
337.544	11.21
337.755	10.3
337.966	12.49
338.177	13.26
338.388	14.46
338.599	15.46
338.811	17.15
339.022	16.15
339.233	18.22
339.444	18.03
339.655	18.26
339.866	18.37
340.076	18.26
340.287	17.38
340.498	16.7
340.709	18.79
340.92	17.62
341.131	15.82
341.342	16.72
341.553	15.22
341.764	14.85
341.975	15.33
342.185	17.75
342.396	18.79
342.607	19.25
342.818	19.91
343.029	17.99
343.239	18.24
343.45	16.12
343.661	16.46
343.872	17.16
344.082	16.76
344.293	15.55
344.504	14.13
344.714	13.06
344.925	13.61
345.136	11.84
345.346	13
345.557	13.66
345.768	16.98
345.978	16.38
346.189	14.41
346.399	14.68
346.61	16.51
346.821	16.37
347.031	17.38
347.242	14.41
347.452	16.27
347.663	15.7
347.873	13.08
348.084	11.94
348.294	11.58
348.504	14.31
348.715	14.7
348.925	13.16
349.136	15.76
349.346	15.59
349.557	16.79
349.767	15.42
349.977	15.29
350.188	15.82
350.398	14.86
350.608	15.48
350.819	15.03
351.029	12.13
351.239	13.49
351.449	9.2
351.66	8.2
351.87	9.07
352.08	10.88
352.29	8.75
352.501	9.7
352.711	12.08
352.921	11.99
353.131	10.8
353.341	12.68
353.552	11.64
353.762	12.56
353.972	12.13
354.182	12.88
354.392	12.98
354.602	15.06
354.812	15.31
355.022	12.27
355.232	11.18
355.442	12.79
355.652	12.96
355.862	13.32
356.072	14.59
356.282	17.06
356.492	17.66
356.702	16.72
356.912	16.38
357.122	15.55
357.332	17.24
357.542	18.62
357.752	16.61
357.962	17.6
358.171	18.49
358.381	18.58
358.591	17.88
358.801	17.45
359.011	17.42
359.221	17.02
359.43	17.51
359.64	16.31
359.85	15.94
360.06	16.87
360.269	17.7
360.479	16.46
360.689	16.06
360.899	15.4
361.108	15.17
361.318	15.16
361.528	15.04
361.737	15.14
361.947	15.01
362.156	14.82
362.366	15.66
362.576	14.41
362.785	14.55
362.995	13.64
363.204	13.48
363.414	12.54
363.623	12.23
363.833	11.93
364.042	12.02
364.252	12.85
364.461	13.23
364.671	12.35
364.88	12.5
365.09	11
365.299	12.31
365.509	12.63
365.718	12.8
365.927	12.69
366.137	12.58
366.346	12.68
366.555	11.54
366.765	9.57
366.974	9.18
367.183	7.8
367.393	9
367.602	7.95
367.811	8.48
368.021	8.75
368.23	9.07
368.439	9.08
368.648	8.8
368.857	9.11
369.067	10.01
369.276	11.13
369.485	11.95
369.694	13.06
369.903	12.46
370.112	11.5
370.321	12.3
370.531	12.01
370.74	13.57
370.949	13.91
371.158	14.43
371.367	15.24
371.576	14.8
371.785	14.81
371.994	12.99
372.203	13.75
372.412	13.17
372.621	12
372.83	11.93
373.039	10.99
373.248	10.55
373.457	9.74
373.666	9.54
373.874	8.21
374.083	8.32
374.292	9.48
374.501	9.17
374.71	9.81
374.919	10.52
375.128	10.59
375.336	10.33
375.545	9.93
375.754	10.52
375.963	9.7
376.171	10.7
376.38	11.07
376.589	11.04
376.798	11.18
377.006	11.26
377.215	11.58
377.424	12.13
377.632	11.86
377.841	11.39
378.05	10.71
378.258	11.1
378.467	10.91
378.675	10.6
378.884	10.49
379.093	10.05
379.301	10.4
379.51	9.4
379.718	8.7
379.927	9.1
380.135	10.29
380.344	10.23
380.552	10.13
380.761	9.73
380.969	9.89
381.177	10.29
381.386	10.44
381.594	9.98
381.803	10.67
382.011	10.61
382.219	9.83
382.428	9.76
382.636	10.21
382.845	10.03
383.053	10.17
383.261	9.58
383.469	8.87
383.678	9.59
383.886	10.08
384.094	9.44
384.302	9.57
384.511	9.89
384.719	9.98
384.927	9.52
385.135	9.9
385.343	9.53
385.552	9.89
385.76	9.93
385.968	9.22
386.176	8.28
386.384	8.74
386.592	8.55
386.8	8.59
387.008	8.19
387.216	8.32
387.424	7.85
387.633	8.27
387.841	8.06
388.049	7.91
388.257	8.28
388.465	8.33
388.672	7.98
388.88	8.35
389.088	8.99
389.296	9.05
389.504	8.87
389.712	8.97
389.92	8.97
390.128	8.82
390.336	8.81
390.544	8.71
390.751	8.98
390.959	8.55
391.167	8.25
391.375	7.39
391.583	7.87
391.79	7.86
391.998	7.76
392.206	7.9
392.414	8.01
392.621	8.08
392.829	8.15
393.037	8.23
393.244	7.85
393.452	7.55
393.66	7.68
393.867	6.72
394.075	6.86
394.283	6.77
394.49	6.15
394.698	5.78
394.905	5.68
395.113	5.65
395.32	5.23
395.528	6.14
395.735	6.13
395.943	6.24
396.15	6.21
396.358	5.8
396.565	6.14
396.773	6.6
396.98	7.02
397.188	7.01
397.395	6.95
397.602	6.95
397.81	6.53
398.017	6.95
398.225	6.76
398.432	6.79
398.639	6.97
398.847	6.51
399.054	6.03
399.261	5.84
399.468	5.84
399.676	5.67
399.883	5.77
400.09	5.83
400.297	5.72
400.505	5.56
400.712	5.5
400.919	5.61
401.126	5.89
401.333	6.25
401.54	6.3
401.748	5.94
401.955	5.59
402.162	6
402.369	5.98
402.576	5.85
402.783	6.08
402.99	6.22
403.197	6.28
403.404	6
403.611	5.73
403.818	5.56
404.025	5.75
404.232	5.78
404.439	5.3
404.646	5.06
404.853	5.31
405.06	5.73
405.267	5.7
405.474	5.66
405.681	5.85
405.887	6.11
406.094	6.22
406.301	6.22
406.508	6.4
406.715	6.42
406.922	6.49
407.128	6.25
407.335	5.69
407.542	5.79
407.749	5.58
407.955	5.45
408.162	5.43
408.369	5.79
408.575	5.9
408.782	5.7
408.989	5.9
409.195	5.98
409.402	6.06
409.609	6.13
409.815	6.15
410.022	6.47
410.228	6.6
410.435	6.51
410.642	6.44
410.848	6.22
411.055	6.49
411.261	6.6
411.468	6.51
411.674	6.27
411.881	6.27
412.087	6.41
412.294	6.11
412.5	6.08
412.706	5.98
412.913	5.34
413.119	5.56
413.326	5.44
413.532	5.51
413.738	5.69
413.945	5.93
414.151	5.74
414.357	5.54
414.564	5.73
414.77	5.74
414.976	5.68
415.182	6.2
415.389	5.81
415.595	5.95
415.801	5.69
416.007	5.74
416.214	5.71
416.42	6.07
416.626	5.79
416.832	5.56
417.038	5.36
417.244	5.32
417.45	5.05
417.657	5.21
417.863	5.25
418.069	5.39
418.275	5.53
418.481	5.56
418.687	5.34
418.893	5.62
419.099	5.8
419.305	5.86
419.511	5.92
419.717	6.02
419.923	6.09
420.129	5.85
420.335	5.83
420.541	5.74
420.746	5.7
420.952	5.73
421.158	5.69
421.364	5.77
421.57	5.66
421.776	5.72
421.982	5.78
422.187	5.62
422.393	5.78
422.599	5.9
422.805	5.75
423.01	5.78
423.216	5.85
423.422	5.88
423.628	5.65
423.833	5.78
424.039	5.78
424.245	5.64
424.45	5.79
424.656	5.76
424.862	5.56
425.067	5.65
425.273	5.61
425.478	5.44
425.684	5.3
425.889	5.45
426.095	5.51
426.301	5.34
426.506	5.42
426.712	5.41
426.917	5.32
427.123	5.25
427.328	5.21
427.533	5.17
427.739	5.34
427.944	5.44
428.15	5.42
428.355	5.36
428.561	5.37
428.766	5.2
428.971	5.1
429.177	5.16
429.382	5.34
429.587	5.23
429.793	5.28
429.998	5.09
430.203	5.1
430.408	5.15
430.614	5.38
430.819	5.43
431.024	5.55
431.229	5.46
431.434	5.4
431.64	5.41
431.845	5.49
432.05	5.56
432.255	5.5
432.46	5.48
432.665	5.68
432.87	5.5
433.076	5.42
433.281	5.26
433.486	5.36
433.691	5.37
433.896	5.22
434.101	5.14
434.306	5.02
434.511	5.15
434.716	5.18
434.921	4.74
435.126	4.87
435.331	4.94
435.535	5
435.74	4.86
435.945	4.88
436.15	4.8
436.355	4.85
436.56	4.72
436.765	4.77
436.97	4.71
437.174	4.88
437.379	4.63
437.584	4.65
437.789	4.62
437.993	4.82
438.198	4.57
438.403	4.61
438.608	4.66
438.812	4.84
439.017	4.72
439.222	4.7
439.426	4.67
439.631	4.68
439.836	4.73
440.04	4.74
440.245	4.71
440.45	4.82
440.654	4.89
440.859	4.94
441.063	5.02
441.268	5.1
441.472	5
441.677	5.15
441.881	5.21
442.086	5.19
442.29	5.23
442.495	5.35
442.699	5.34
442.904	5.27
443.108	5.35
443.312	5.28
443.517	5.47
443.721	5.67
443.925	5.66
444.13	5.8
444.334	5.73
444.538	5.57
444.743	5.42
444.947	5.56
445.151	5.7
445.356	5.58
445.56	5.39
445.764	5.27
445.968	5.14
446.173	5.03
446.377	4.91
446.581	4.88
446.785	5.06
446.989	5.01
447.193	4.95
447.398	4.92
447.602	4.9
447.806	5.04
448.01	5.04
448.214	5.1
448.418	5.09
448.622	4.98
448.826	5.14
449.03	5.17
449.234	5.09
449.438	5.1
449.642	4.98
449.846	4.99
450.05	4.82
450.254	4.7
450.458	4.7
450.662	4.54
450.866	4.46
451.069	4.46
451.273	4.38
451.477	4.47
451.681	4.59
451.885	4.75
452.089	4.82
452.292	4.78
452.496	4.83
452.7	4.88
452.904	5.05
453.107	5.11
453.311	5.06
453.515	5.03
453.719	5.24
453.922	5.21
454.126	5.07
454.33	4.7
454.533	4.71
454.737	4.71
454.94	4.67
455.144	4.51
455.348	4.35
455.551	4.38
455.755	4.33
455.958	4.36
456.162	4.27
456.365	4.23
456.569	4.31
456.772	4.26
456.976	4.35
457.179	4.25
457.383	4.33
457.586	4.72
457.79	4.67
457.993	4.76
458.196	4.49
458.4	4.44
458.603	4.44
458.807	4.54
459.01	4.71
459.213	4.7
459.417	4.68
459.62	4.83
459.823	4.73
460.026	4.64
460.23	4.56
460.433	4.65
460.636	4.66
460.839	4.74
461.042	4.83
461.246	4.9
461.449	4.87
461.652	5.01
461.855	4.85
462.058	4.74
462.261	4.84
462.464	4.83
462.668	5.08
462.871	5.04
463.074	5.13
463.277	5.06
463.48	4.85
463.683	4.78
463.886	4.78
464.089	4.71
464.292	4.71
464.495	4.55
464.698	4.69
464.901	4.35
465.104	4.43
465.306	4.21
465.509	4.38
465.712	4.6
465.915	4.46
466.118	4.4
466.321	4.36
466.524	4.49
466.726	4.53
466.929	4.49
467.132	4.6
467.335	4.6
467.538	4.69
467.74	4.64
467.943	4.74
468.146	4.66
468.348	4.55
468.551	4.78
468.754	4.79
468.956	4.88
469.159	4.62
469.362	4.52
469.564	4.58
469.767	4.65
469.969	4.81
470.172	4.48
470.375	4.89
470.577	4.8
470.78	4.68
470.982	4.86
471.185	4.65
471.387	4.88
471.59	4.97
471.792	4.8
471.995	4.68
472.197	4.44
472.399	4.45
472.602	4.21
472.804	4.44
473.007	4.44
473.209	4.3
473.411	4.57
473.614	4.56
473.816	4.61
474.018	4.7
474.22	4.63
474.423	4.73
474.625	4.94
474.827	4.96
475.03	4.78
475.232	4.75
475.434	4.67
475.636	4.48
475.838	4.43
476.04	4.47
476.243	4.56
476.445	4.62
476.647	4.74
476.849	4.48
477.051	4.55
477.253	4.66
477.455	4.59
477.657	4.73
477.859	4.75
478.061	4.87
478.263	4.81
478.465	4.8
478.667	4.82
478.869	4.76
479.071	4.88
479.273	4.91
479.475	4.89
479.677	4.97
479.879	4.79
480.081	4.9
480.283	4.84
480.485	4.86
480.686	4.67
480.888	4.62
481.09	4.58
481.292	4.6
481.494	4.55
481.695	4.67
481.897	4.68
482.099	4.77
482.301	4.76
482.502	4.76
482.704	4.8
482.906	4.89
483.107	4.94
483.309	4.86
483.511	4.89
483.712	4.87
483.914	4.86
484.115	4.9
484.317	4.86
484.519	4.88
484.72	4.88
484.922	4.8
485.123	4.82
485.325	4.74
485.526	4.79
485.728	4.75
485.929	4.74
486.131	4.71
486.332	4.68
486.534	4.67
486.735	4.69
486.936	4.7
487.138	4.77
487.339	4.72
487.541	4.77
487.742	4.78
487.943	4.78
488.144	4.83
488.346	4.87
488.547	4.81
488.748	4.86
488.95	4.76
489.151	4.79
489.352	4.76
489.553	4.78
489.755	4.84
489.956	4.74
490.157	4.77
490.358	4.7
490.559	4.63
490.76	4.74
490.961	4.73
491.163	4.83
491.364	4.88
491.565	4.94
491.766	4.91
491.967	4.84
492.168	4.93
492.369	4.97
492.57	5.05
492.771	5.05
492.972	4.96
493.173	5.02
493.374	4.98
493.575	4.94
493.776	4.92
493.976	4.93
494.177	5.02
494.378	4.96
494.579	4.96
494.78	5.01
494.981	4.95
495.182	5
495.382	4.93
495.583	4.96
495.784	4.92
495.985	4.77
496.185	4.76
496.386	4.58
496.587	4.6
496.788	4.54
496.988	4.48
497.189	4.51
497.39	4.58
497.59	4.44
497.791	4.42
497.992	4.62
498.192	4.66
498.393	4.79
498.593	4.87
498.794	4.9
498.994	4.84
499.195	4.91
499.395	4.8
499.596	4.69
499.796	4.91
499.997	4.92
500.197	4.71
500.398	4.79
500.598	4.78
500.799	4.89
500.999	5.01
501.199	5.19
501.4	5.11
501.6	5.37
501.801	5.53
502.001	5.34
502.201	5.35
502.402	5.3
502.602	5.17
502.802	5.21
503.002	5.23
503.203	5.33
503.403	5.17
503.603	5.25
503.803	5.42
504.003	5.5
504.204	5.55
504.404	5.58
504.604	5.48
504.804	5.72
505.004	5.57
505.204	5.58
505.404	5.48
505.604	5.42
505.804	5.48
506.005	5.46
506.205	5.43
506.405	5.7
506.605	5.8
506.805	6.03
507.005	5.91
507.204	6.07
507.404	6.09
507.604	6.22
507.804	6.45
508.004	6.33
508.204	6.12
508.404	6.09
508.604	5.95
508.804	5.89
509.003	5.77
509.203	5.92
509.403	5.89
509.603	5.86
509.803	5.67
510.002	5.69
510.202	5.84
510.402	5.9
510.602	5.9
510.801	5.94
511.001	5.92
511.201	5.99
511.4	5.97
511.6	6.01
511.8	6.17
511.999	6.14
512.199	6.13
512.398	6.24
512.598	6.28
512.797	6.29
512.997	6.26
513.197	6.27
513.396	6.36
513.596	6.37
513.795	6.41
513.994	6.4
514.194	6.46
514.393	6.49
514.593	6.41
514.792	6.42
514.992	6.35
515.191	6.51
515.39	6.57
515.59	6.67
515.789	6.71
515.988	6.69
516.188	6.7
516.387	6.78
516.586	6.8
516.786	6.83
516.985	6.93
517.184	7.05
517.383	7.02
517.582	6.95
517.782	6.94
517.981	7.01
518.18	7.06
518.379	7.06
518.578	7.14
518.777	7.15
518.976	7.21
519.176	7.24
519.375	7.3
519.574	7.23
519.773	7.38
519.972	7.23
520.171	7.3
520.37	7.38
520.569	7.4
520.768	7.35
520.967	7.5
521.166	7.44
521.365	7.36
521.564	7.32
521.762	7.57
521.961	7.65
522.16	7.88
522.359	7.8
522.558	7.77
522.757	7.82
522.956	7.83
523.154	7.83
523.353	7.88
523.552	7.95
523.751	7.95
523.949	7.9
524.148	7.88
524.347	7.86
524.546	7.78
524.744	7.77
524.943	7.77
525.142	7.74
525.34	7.8
525.539	7.76
525.737	7.79
525.936	7.88
526.135	7.85
526.333	7.91
526.532	7.95
526.73	7.99
526.929	8.06
527.127	8.18
527.326	8.34
527.524	8.29
527.723	8.39
527.921	8.54
528.12	8.51
528.318	8.58
528.516	8.57
528.715	8.64
528.913	8.69
529.112	8.72
529.31	8.73
529.508	8.7
529.707	8.72
529.905	8.74
530.103	8.68
530.301	8.78
530.5	8.8
530.698	8.83
530.896	8.84
531.094	8.89
531.293	8.83
531.491	8.84
531.689	8.89
531.887	8.82
532.085	8.84
532.283	8.87
532.481	8.94
532.68	8.94
532.878	9.03
533.076	9.04
533.274	9.06
533.472	9.11
533.67	9.13
533.868	9.14
534.066	9.33
534.264	9.32
534.462	9.35
534.66	9.3
534.858	9.43
535.056	9.33
535.253	9.33
535.451	9.41
535.649	9.42
535.847	9.36
536.045	9.47
536.243	9.59
536.441	9.58
536.638	9.68
536.836	9.82
537.034	9.72
537.232	9.75
537.43	9.8
537.627	9.69
537.825	9.74
538.023	9.91
538.22	9.96
538.418	9.83
538.616	9.95
538.813	9.92
539.011	9.88
539.209	9.97
539.406	10.07
539.604	10.31
539.801	10.37
539.999	10.52
540.196	10.51
540.394	10.38
540.591	10.51
540.789	10.58
540.986	10.52
541.184	10.53
541.381	10.62
541.579	10.71
541.776	10.64
541.974	10.76
542.171	10.79
542.368	10.78
542.566	10.85
542.763	10.8
542.96	10.78
543.158	10.91
543.355	10.87
543.552	10.8
543.75	10.91
543.947	10.97
544.144	10.95
544.341	10.88
544.539	10.89
544.736	10.97
544.933	11.02
545.13	11.13
545.327	11.16
545.524	11.39
545.722	11.53
545.919	11.47
546.116	11.48
546.313	11.69
546.51	11.97
546.707	12.18
546.904	12.28
547.101	12.28
547.298	12.24
547.495	12.23
547.692	12.33
547.889	12.31
548.086	12.37
548.283	12.38
548.48	12.37
548.677	12.18
548.874	12.25
549.07	12.21
549.267	12.36
549.464	12.54
549.661	12.69
549.858	12.67
550.055	12.76
550.251	12.81
550.448	13.03
550.645	13.01
550.842	13.21
551.038	13.27
551.235	13.41
551.432	13.49
551.628	13.43
551.825	13.51
552.022	13.72
552.218	13.88
552.415	13.81
552.612	13.75
552.808	13.91
553.005	13.94
553.201	13.74
553.398	13.74
553.594	13.83
553.791	13.91
553.987	14.06
554.184	13.98
554.38	14.07
554.577	14.34
554.773	14.59
554.97	14.47
555.166	14.62
555.362	14.79
555.559	14.86
555.755	14.8
555.952	14.91
556.148	14.98
556.344	14.75
556.541	14.69
556.737	14.7
556.933	14.64
557.129	14.82
557.326	14.76
557.522	14.85
557.718	14.8
557.914	14.86
558.11	14.93
558.307	14.93
558.503	15.48
558.699	15.72
558.895	15.67
559.091	15.72
559.287	15.82
559.483	16.3
559.679	16.46
559.876	16.73
560.072	16.73
560.268	16.8
560.464	16.9
560.66	16.72
560.856	16.67
561.052	16.75
561.247	16.78
561.443	16.75
561.639	16.55
561.835	16.8
562.031	17.09
562.227	17.46
562.423	17.65
562.619	17.62
562.815	17.65
563.01	17.58
563.206	17.83
563.402	18.19
563.598	18.37
563.793	18.27
563.989	18.2
564.185	17.88
564.381	17.9
564.576	18.02
564.772	18.17
564.968	18.46
565.163	18.62
565.359	18.59
565.555	18.59
565.75	18.5
565.946	18.6
566.141	18.75
566.337	19
566.532	18.99
566.728	19.05
566.923	19.05
567.119	18.99
567.314	18.96
567.51	18.9
567.705	18.84
567.901	19.22
568.096	19.26
568.292	19.11
568.487	19.23
568.682	19.39
568.878	19.35
569.073	19.61
569.268	19.78
569.464	19.9
569.659	20.01
569.854	20.22
570.05	20.12
570.245	20.42
570.44	20.85
570.635	20.88
570.831	20.89
571.026	20.98
571.221	20.89
571.416	20.95
571.611	21.13
571.806	21.33
572.002	21.27
572.197	21.44
572.392	21.51
572.587	21.36
572.782	21.29
572.977	21.38
573.172	21.39
573.367	21.51
573.562	21.53
573.757	21.68
573.952	21.8
574.147	21.8
574.342	21.63
574.537	21.7
574.732	21.75
574.927	21.99
575.121	21.98
575.316	22.17
575.511	22.18
575.706	22.14
575.901	22.07
576.096	21.75
576.29	21.93
576.485	21.89
576.68	21.68
576.875	21.71
577.069	21.47
577.264	21.8
577.459	21.78
577.654	21.82
577.848	21.89
578.043	21.97
578.238	22.71
578.432	23
578.627	23.3
578.821	23.23
579.016	23.26
579.21	23.57
579.405	23.17
579.6	23.04
579.794	23.21
579.989	23.17
580.183	23.17
580.378	22.75
580.572	22.56
580.766	22.51
580.961	22.88
581.155	22.91
581.35	22.75
581.544	22.76
581.738	22.96
581.933	22.95
582.127	23.2
582.321	23.2
582.516	23.13
582.71	23.15
582.904	23.17
583.099	23.15
583.293	23.1
583.487	23.5
583.681	23.85
583.875	23.95
584.07	23.78
584.264	23.54
584.458	23.76
584.652	24.01
584.846	24.1
585.04	24.32
585.234	24.32
585.428	24.51
585.623	24.24
585.817	23.97
586.011	24.05
586.205	24.48
586.399	24.56
586.593	24.65
586.787	24.7
586.981	24.45
587.174	24.36
587.368	24.29
587.562	24.51
587.756	24.65
587.95	24.86
588.144	24.52
588.338	24.32
588.532	24.57
588.725	24.52
588.919	24.57
589.113	25.13
589.307	25.32
589.501	25.47
589.694	25.23
589.888	25.26
590.082	25.26
590.275	25.56
590.469	25.76
590.663	25.79
590.856	25.77
591.05	25.58
591.244	25.38
591.437	25.39
591.631	25.49
591.824	25.46
592.018	25.2
592.212	25.19
592.405	25.19
592.599	25.14
592.792	25.3
592.986	25.45
593.179	25.36
593.372	25.23
593.566	25
593.759	24.63
593.953	24.9
594.146	25.43
594.339	25.71
594.533	25.78
594.726	25.55
594.92	25.49
595.113	25.56
595.306	25.93
595.499	26.1
595.693	26.26
595.886	26.62
596.079	26.74
596.272	26.64
596.466	26.39
596.659	26.44
596.852	26.59
597.045	26.54
597.238	26.54
597.431	26.35
597.624	26.24
597.818	26.31
598.011	26.29
598.204	26.18
598.397	26.08
598.59	26.26
598.783	26.54
598.976	26.57
599.169	26.57
599.362	26.44
599.555	26.6
599.748	26.81
599.941	26.76
600.134	26.9
600.326	26.77
600.519	26.89
600.712	27.13
600.905	26.4
601.098	26.45
601.291	26.47
601.483	26.59
601.676	27.02
601.869	26.97
602.062	26.84
602.255	26.99
602.447	27.19
602.64	27.01
602.833	26.9
603.025	27.35
603.218	27.45
603.411	27.51
603.603	27.61
603.796	27.36
603.989	27.18
604.181	27.28
604.374	27.27
604.566	27.34
604.759	27.5
604.951	27.38
605.144	27.26
605.336	27.32
605.529	27.54
605.721	27.65
605.914	27.64
606.106	28.07
606.299	28.22
606.491	28.04
606.683	28.13
606.876	28.13
607.068	28.19
607.26	28.27
607.453	28.07
607.645	27.64
607.837	27.27
608.03	27.3
608.222	27.04
608.414	27.09
608.606	27.17
608.799	27.15
608.991	27.4
609.183	27.26
609.375	27.29
609.567	27.5
609.759	27.78
609.952	27.9
610.144	27.92
610.336	28
610.528	27.81
610.72	27.72
610.912	27.59
611.104	27.18
611.296	27.25
611.488	26.91
611.68	26.74
611.872	26.41
612.064	26.58
612.256	26.84
612.448	26.83
612.64	26.93
612.832	27.2
613.023	27.3
613.215	27.52
613.407	27.9
613.599	28.28
613.791	28.34
613.983	28.7
614.174	28.54
614.366	28.01
614.558	27.82
614.75	27.95
614.941	27.84
615.133	27.8
615.325	28.04
615.516	27.66
615.708	27.69
615.9	27.82
616.091	27.74
616.283	27.92
616.475	28.24
616.666	28.53
616.858	28.68
617.049	28.64
617.241	28.62
617.432	28.55
617.624	28.75
617.815	28.86
618.007	28.57
618.198	28.46
618.39	28.22
618.581	28.38
618.773	28.31
618.964	27.91
619.155	27.88
619.347	27.86
619.538	28.03
619.729	27.9
619.921	27.91
620.112	28.12
620.303	28.4
620.494	28.51
620.686	28.15
620.877	27.98
621.068	28.36
621.259	28.64
621.451	28.42
621.642	28.47
621.833	28.39
622.024	28.43
622.215	28.32
622.406	27.98
622.597	27.82
622.788	27.97
622.98	28.23
623.171	28.15
623.362	28
623.553	28.21
623.744	27.96
623.935	28.08
624.126	27.74
624.317	28.03
624.508	28.32
624.698	28.55
624.889	28.58
625.08	28.44
625.271	28.57
625.462	28.89
625.653	29.05
625.844	28.87
626.034	29.17
626.225	29.36
626.416	29
626.607	29.18
626.798	29.21
626.988	29.58
627.179	29.75
627.37	29.71
627.56	29.32
627.751	29.37
627.942	29.55
628.132	29.49
628.323	29.24
628.514	29.27
628.704	29.16
628.895	29.13
629.085	28.58
629.276	28.57
629.466	28.65
629.657	28.91
629.847	28.84
630.038	29.05
630.228	28.83
630.419	29.19
630.609	29.83
630.8	29.95
630.99	29.75
631.181	29.84
631.371	29.54
631.561	29.62
631.752	29.55
631.942	29.28
632.132	29.49
632.323	29.68
632.513	29.96
632.703	29.83
632.893	29.6
633.084	29.93
633.274	30.12
633.464	30.03
633.654	29.61
633.844	29.14
634.034	29.42
634.225	29.15
634.415	29
634.605	28.52
634.795	28.57
634.985	28.53
635.175	28.14
635.365	28.05
635.555	28.49
635.745	28.42
635.935	29.21
636.125	28.92
636.315	28.91
636.505	28.79
636.695	29.04
636.885	28.84
637.075	28.86
637.265	28.88
637.455	29.01
637.644	29.15
637.834	29.82
638.024	29.11
638.214	29.36
638.404	29.28
638.593	29.54
638.783	29.78
638.973	29.84
639.163	29.96
639.352	30.36
639.542	30.36
639.732	30.06
639.921	29.79
640.111	30.61
640.301	30.59
640.49	30.52
640.68	30.77
640.87	30.38
641.059	30.32
641.249	30.23
641.438	30.48
641.628	30.15
641.817	30.37
642.007	30.21
642.196	29.62
642.386	29.85
642.575	30.23
642.764	29.65
642.954	30.03
643.143	29.71
643.333	29.89
643.522	29.44
643.711	29.57
643.901	29.37
644.09	29.55
644.279	29.79
644.469	29.94
644.658	29.61
644.847	30.09
645.036	29.53
645.226	30.17
645.415	29.87
645.604	29.86
645.793	29.89
645.982	29.78
646.171	29.4
646.361	29.32
646.55	29.31
646.739	29.24
646.928	29.01
647.117	29.23
647.306	28.62
647.495	28.83
647.684	29.03
647.873	29.42
648.062	29.45
648.251	29.69
648.44	29.72
648.629	29.63
648.818	29.69
649.007	30.05
649.196	30.48
649.384	30.69
649.573	31.08
649.762	30.97
649.951	31.32
650.14	31.66
650.328	31.93
650.517	31.86
650.706	32.19
650.895	32.27
651.083	32.17
651.272	31.91
651.461	31.83
651.65	31.53
651.838	31.87
652.027	31.27
652.216	31.03
652.404	30.62
652.593	30.84
652.781	30.37
652.97	30.88
653.158	30.53
653.347	31.13
653.535	31.47
653.724	31.65
653.912	31.46
654.101	31.58
654.289	31.64
654.478	31.9
654.666	31.75
654.855	32.17
655.043	31.97
655.231	31.99
655.42	31.22
655.608	31.15
655.796	30.92
655.985	30.96
656.173	30.41
656.361	30.34
656.55	30.47
656.738	30.78
656.926	30.75
657.114	30.5
657.302	31.17
657.491	31.68
657.679	31.87
657.867	32.08
658.055	31.8
658.243	32.34
658.431	32.34
658.619	32.48
658.807	32.67
658.996	32.44
659.184	32.36
659.372	32.27
659.56	32.09
659.748	31.92
659.936	31.58
660.124	31.49
660.311	31.64
660.499	31.63
660.687	31.61
660.875	31.25
661.063	31.56
661.251	31.63
661.439	31.57
661.627	31.24
661.814	31.55
662.002	31.83
662.19	31.97
662.378	31.78
662.565	32.02
662.753	31.8
662.941	31.54
663.129	31.29
663.316	31.38
663.504	31.27
663.692	31.88
663.879	31.54
664.067	31.12
664.254	30.68
664.442	30.71
664.63	30.91
664.817	31.18
665.005	31.54
665.192	31.44
665.38	31.67
665.567	31.68
665.755	31.89
665.942	31.99
666.13	32.37
666.317	33.18
666.504	33.39
666.692	32.68
666.879	32.3
667.067	32.72
667.254	32.66
667.441	32.85
667.629	32.79
667.816	32.2
668.003	32.22
668.19	31.92
668.378	31.97
668.565	31.69
668.752	32.16
668.939	32.17
669.127	31.42
669.314	31.7
669.501	31.25
669.688	31.14
669.875	31.22
670.062	30.78
670.249	31.03
670.436	30.66
670.623	31.2
670.81	30.98
670.997	31.43
671.184	31.16
671.371	30.97
671.558	30.55
671.745	30.96
671.932	30.85
672.119	31.07
672.306	30.78
672.493	31.19
672.68	30.78
672.867	31.13
673.054	30.54
673.24	31.31
673.427	31.61
673.614	32.31
673.801	32.11
673.988	32.23
674.174	32.74
674.361	32.99
674.548	33.25
674.734	33.15
674.921	32.72
675.108	33.15
675.294	32.93
675.481	32.85
675.668	33.06
675.854	32.96
676.041	33.24
676.227	33.35
676.414	33.58
676.601	32.99
676.787	33.2
676.974	33.73
677.16	33.75
677.347	33.83
677.533	33.52
677.719	33.22
677.906	33.68
678.092	33.34
678.279	32.71
678.465	32.49
678.651	32.81
678.838	32.9
679.024	32.5
679.21	31.95
679.397	32.26
679.583	32.55
679.769	32.46
679.955	32.12
680.142	32.46
680.328	32.43
680.514	32.65
680.7	32.54
680.886	32.16
681.073	32.34
681.259	32.76
681.445	32.68
681.631	32.41
681.817	32.22
682.003	32.35
682.189	32.26
682.375	32.74
682.561	32.43
682.747	31.59
682.933	31.43
683.119	31.34
683.305	30.84
683.491	30.47
683.677	30.49
683.863	30.8
684.049	30.58
684.235	30.61
684.42	30.46
684.606	30.86
684.792	32.17
684.978	32.59
685.164	32.8
685.349	33.37
685.535	33.11
685.721	33.38
685.907	33.81
686.092	33.74
686.278	34.26
686.464	33.98
686.649	34.37
686.835	33.83
687.021	33.98
687.206	33.77
687.392	33.73
687.577	34.37
687.763	34.01
687.948	33.15
688.134	33.64
688.319	33.18
688.505	33.02
688.69	32.99
688.876	32.62
689.061	32.94
689.247	32.49
689.432	32.32
689.618	32.25
689.803	32.46
689.988	32.04
690.174	31.27
690.359	31.28
690.544	32.02
690.73	31.46
690.915	31.93
691.1	31.51
691.285	32.49
691.471	32.21
691.656	32.28
691.841	32.5
692.026	33
692.211	33.31
692.396	32.73
692.582	32.31
692.767	33.09
692.952	32.56
693.137	32.98
693.322	31.78
693.507	32.12
693.692	31.99
693.877	31.59
694.062	31.54
694.247	31.51
694.432	32.28
694.617	32.66
694.802	31.9
694.987	32.48
695.172	32.09
695.357	33.08
695.541	33.35
695.726	33.22
695.911	33.12
696.096	33.27
696.281	33.86
696.466	34
696.65	33.57
696.835	33.47
697.02	33.99
697.204	33.95
697.389	33.6
697.574	33.38
697.759	33.28
697.943	33.73
698.128	33.87
698.312	33.65
698.497	33.33
698.682	33.24
698.866	33.48
699.051	33.51
699.235	33.49
699.42	33.76
699.604	34.04
699.789	34.07
699.973	33.77
700.158	33.21
700.342	33.09
700.527	33.45
700.711	33.94
700.895	33.91
701.08	33.69
701.264	33.4
701.448	33.45
701.633	33.79
701.817	34.46
702.001	34.97
702.186	35.94
702.37	35.85
702.554	35.1
702.738	34.6
702.923	34.55
703.107	34.52
703.291	35.23
703.475	34.49
703.659	33.99
703.843	32.93
704.027	32.97
704.212	33.59
704.396	34.44
704.58	35.01
704.764	35.05
704.948	35.03
705.132	34.33
705.316	33.02
705.5	33.11
705.684	32.79
705.868	33.01
706.052	32.74
706.235	32.23
706.419	31.08
706.603	30.89
706.787	31.12
706.971	31.39
707.155	31.48
707.339	32.37
707.522	32.89
707.706	32.98
707.89	32.95
708.074	32
708.257	32.08
708.441	33.39
708.625	33.63
708.808	33.12
708.992	32.58
709.176	33.26
709.359	33.52
709.543	33.81
709.727	34.19
709.91	34.45
710.094	35.34
710.277	35.15
710.461	34.95
710.644	34.79
710.828	34.76
711.011	34.39
711.195	34.22
711.378	34.44
711.562	33.79
711.745	32.86
711.928	32.91
712.112	32.85
712.295	33.64
712.478	33.56
712.662	33.97
712.845	34.48
713.028	35.34
713.212	34.43
713.395	34.11
713.578	34.86
713.761	35.15
713.945	34.46
714.128	34.65
714.311	33.46
714.494	32.92
714.677	31.84
714.86	31.55
715.043	31.64
715.227	32.23
715.41	32.25
715.593	32.26
715.776	32.65
715.959	34.05
716.142	33.96
716.325	33.84
716.508	33.53
716.691	34.09
716.874	34.88
717.057	34.6
717.239	35.25
717.422	35.15
717.605	34.2
717.788	34.13
717.971	33.3
718.154	34.09
718.337	34.69
718.519	35.74
718.702	36.07
718.885	35.29
719.068	35.8
719.25	35.71
719.433	35.78
719.616	35.95
719.798	36.26
719.981	35.63
720.164	33.79
720.346	33.56
720.529	33.1
720.712	33.01
720.894	33.72
721.077	33.01
721.259	32.31
721.442	31.96
721.624	31.43
721.807	31.39
721.989	33.08
722.172	34.39
722.354	34.53
722.537	34.43
722.719	34.54
722.901	33.96
723.084	34.42
723.266	33.83
723.448	33.83
723.631	34.66
723.813	34.64
723.995	33.97
724.178	33.7
724.36	34.41
724.542	34.97
724.724	34.93
724.907	35.31
725.089	34.95
725.271	35.27
725.453	35.48
725.635	35.31
725.817	34.37
725.999	34.21
726.181	33.33
726.364	31.45
726.546	31.88
726.728	31.77
726.91	31.98
727.092	31.12
727.274	31.49
727.456	31.24
727.638	30.45
727.819	31.9
728.001	31.32
728.183	32.05
728.365	33.95
728.547	32.46
728.729	33.08
728.911	32.96
729.093	33.84
729.274	34.04
729.456	34.37
729.638	34.59
729.82	34.03
730.001	34.79
730.183	35.38
730.365	34.66
730.546	35
730.728	34.53
730.91	34.33
731.091	35.01
731.273	35.59
731.455	35.4
731.636	36.08
731.818	36.37
731.999	35.93
732.181	36.36
732.362	35.79
732.544	35.62
732.725	34.58
732.907	33.85
733.088	33.02
733.27	33.04
733.451	33
733.633	33.42
733.814	32.86
733.995	32.04
734.177	31.03
734.358	31.8
734.539	31.37
734.721	32.36
734.902	32.86
735.083	33.16
735.264	32.59
735.446	33.55
735.627	33.61
735.808	34.47
735.989	36.32
736.17	35.84
736.351	34.65
736.533	35.22
736.714	35.61
736.895	36.49
737.076	35.82
737.257	35.81
737.438	35.62
737.619	34.46
737.8	33.83
737.981	32.33
738.162	33.67
738.343	35.32
738.524	35.35
738.705	33.74
738.886	32.66
739.067	32.57
739.247	32.31
739.428	31.52
739.609	32.32
739.79	31.64
739.971	31.89
740.151	31.23
740.332	30.66
740.513	30.06
740.694	30.77
740.874	30.6
741.055	31.92
741.236	33.3
741.417	33.2
741.597	33.19
741.778	33.97
741.958	34.13
742.139	33.76
742.32	32.91
742.5	33.89
742.681	34.42
742.861	34.87
743.042	34.77
743.222	32.51
743.403	32.93
743.583	32.5
743.764	32.48
743.944	32.2
744.124	31.97
744.305	32.95
744.485	31.17
744.666	30.84
744.846	30.99
745.026	29.54
745.207	31.65
745.387	31.23
745.567	31.83
745.747	31.5
745.928	31.21
746.108	32.19
746.288	32.1
746.468	35.98
746.648	37.71
746.829	36.42
747.009	37.11
747.189	36.95
747.369	37.82
747.549	37.47
747.729	35.95
747.909	36.94
748.089	36.17
748.269	36.86
748.449	34.64
748.629	32.71
748.809	34.36
748.989	34.76
749.169	34.22
749.349	33.79
749.529	34.93
749.709	36.46
749.889	35.88
750.068	37.37
750.248	36.18
750.428	36.03
750.608	37.25
750.788	37.58
750.967	38.43
751.147	38.21
751.327	38.95
751.507	37.95
751.686	36.84
751.866	38.32
752.046	36.8
752.225	38.08
752.405	38.25
752.585	38.09
752.764	38.35
752.944	37.55
753.123	36.74
753.303	35.74
753.482	35.06
753.662	36.54
753.841	33.83
754.021	33.29
754.2	33.34
754.38	33.24
754.559	32.09
754.739	30.06
754.918	29.34
755.097	30.61
755.277	30.84
755.456	30.79
755.635	30.13
755.815	32.31
755.994	32.99
756.173	31.86
756.352	31.92
756.532	31.68
756.711	32.48
756.89	33.28
757.069	33.02
757.248	32.87
757.427	33.18
757.607	31.5
757.786	32.27
757.965	31.69
758.144	31.42
758.323	33.17
758.502	33.57
758.681	32.78
758.86	33.61
759.039	33.58
759.218	34.16
759.397	34.46
759.576	35.09
759.755	32.81
759.934	33.84
760.113	35.36
760.291	34.39
760.47	33.76
760.649	33.18
760.828	32.64
761.007	31.73
761.186	32.15
761.364	31.86
761.543	32.54
761.722	33.6
761.901	33.72
762.079	34.13
762.258	33.52
762.437	34.43
762.615	36.28
762.794	35.33
762.972	36.18
763.151	35.1
763.33	36.32
763.508	37.16
763.687	37.08
763.865	35.98
764.044	35.35
764.222	35.02
764.401	35.07
764.579	34.76
764.758	34.99
764.936	35.61
765.114	35.67
765.293	34.59
765.471	33.29
765.65	35.02
765.828	36.26
766.006	35.52
766.184	35.77
766.363	35.81
766.541	36.22
766.719	37.27
766.898	36.61
767.076	37.12
767.254	37.23
767.432	39.02
767.61	36.85
767.788	36.31
767.967	37.88
768.145	38.94
768.323	39.02
768.501	38.77
768.679	38.48
768.857	36.06
769.035	35.93
769.213	37.52
769.391	35.52
769.569	35.41
769.747	36.24
769.925	34.32
770.103	33.13
770.281	34.54
770.459	33.63
770.636	34.45
770.814	36.9
770.992	36.94
771.17	34.6
771.348	36.36
771.525	35.72
771.703	34.79
771.881	35.38
772.059	36.92
772.236	35.12
772.414	35.77
772.592	34.31
772.769	33.28
772.947	33.02
773.125	33.18
773.302	32.28
773.48	33.97
773.657	33.26
773.835	33.76
774.013	31.32
774.19	29.99
774.368	29.39
774.545	29.22
774.723	32.29
774.9	32.6
775.077	33.23
775.255	33.5
775.432	33.19
775.61	33.12
775.787	34.66
775.964	35.19
776.142	35.67
776.319	35.88
776.496	34.83
776.674	29.6
776.851	28.71
777.028	30.63
777.205	29.48
777.382	28.9
777.56	27.1
777.737	25.92
777.914	24.8
778.091	27.8
778.268	25.31
778.445	25.82
778.622	27.36
778.8	30.75
778.977	29
779.154	29.01
779.331	28.07
779.508	30.12
779.685	29.11
779.862	29.72
780.038	27.25
780.215	28.83
780.392	27.96
780.569	28.07
780.746	23.36
780.923	23.83
781.1	27.96
781.277	27.43
781.453	25.59
781.63	25.85
781.807	27.67
781.984	26.74
782.16	29.32
782.337	29.23
782.514	29.76
782.691	31.5
782.867	28.64
783.044	23.94
783.221	26.5
783.397	27.9
783.574	27.93
783.75	26.81
783.927	28.99
784.103	29.26
784.28	30.21
784.456	31.99
784.633	30.2
784.809	34.36
784.986	36.69
785.162	36.13
785.339	34.95
785.515	34.09
785.692	34.83
785.868	29.94
786.044	29.5
786.221	30.88
786.397	30.34
786.573	30.3
786.749	30.23
786.926	27.27
787.102	26.94
787.278	29.43
787.454	29.38
787.631	30.01
787.807	31.12
787.983	32.01
788.159	30.07
788.335	30.19
788.511	30.58
788.687	27.41
788.863	30.17
789.039	28.74
789.216	28.77
789.392	31.2
789.568	29.63
789.744	31.18
789.919	30.7
790.095	29.83
790.271	29.64
790.447	32.38
790.623	35.06
790.799	35.77
790.975	39.47
791.151	40.07
791.327	37.06
791.502	35.91
791.678	36.29
791.854	33.23
792.03	35.19
792.205	35.05
792.381	30.77
792.557	28.45
792.733	22.49
792.908	22.99
793.084	23.66
793.259	26.41
793.435	30.98
793.611	30.39
793.786	34.74
793.962	32.57
794.137	32.86
794.313	33.63
794.488	34.97
794.664	41.01
794.839	35.18
795.015	36.3
795.19	35.25
795.366	31.68
795.541	33.69
795.716	31.92
795.892	31.2
796.067	28.76
796.242	29.95
796.418	31.71
796.593	29.6
796.768	34.01
796.944	29.57
797.119	31.11
797.294	31.14
797.469	27.85
797.644	25.78
797.82	27.74
797.995	31.92
798.17	31.14
798.345	29.45
798.52	29.63
798.695	27.79
798.87	31.73
799.045	29.78
799.22	30.57
799.395	34.94
799.57	37.22
799.745	38.13
799.92	38.47
800.095	40.7
800.27	41.86
800.445	42.64
800.62	41.53
800.795	42.26
800.97	40.77
801.145	42.95
801.319	38.24
801.494	38.17
801.669	38.84
801.844	32.19
802.018	29.45
802.193	28.05
802.368	27.97
802.543	30.09
802.717	25.12
802.892	25.04
803.067	23.09
803.241	25.36
803.416	24.06
803.59	26.82
803.765	29.39
803.94	29.18
804.114	30.67
804.289	28.49
804.463	30.32
804.638	31.96
804.812	29.02
804.986	28.47
805.161	28.09
805.335	28.34
805.51	23.58
805.684	25.59
805.858	27.48
806.033	24.88
806.207	25.04
806.381	22.27
806.556	23.51
806.73	25.44
806.904	29.02
807.078	24.95
807.253	26.95
807.427	28.49
807.601	27.62
807.775	27.95
807.949	30.66
808.123	31.17
808.298	28.92
808.472	27.1
808.646	26.77
808.82	21.99
808.994	23.83
809.168	21.94
809.342	22.3
809.516	22.46
809.69	21.53
809.864	21.52
810.038	20.58
810.212	24.27
810.385	28.16
810.559	33.58
810.733	34.45
810.907	32.37
811.081	29.99
811.255	27.86
811.428	23.78
811.602	18.12
811.776	18.47
811.95	19.42
812.123	17.05
812.297	13.3
812.471	4.4
812.644	7.09
812.818	13.06
812.992	9.72
813.165	10.33
813.339	16.49
813.512	18.84
813.686	17.87
813.86	19.79
814.033	20.67
814.207	24.14
814.38	31.12
814.554	31.13
814.727	31.32
814.9	32.21
815.074	35.26
815.247	30.8
815.421	33.74
815.594	30.12
815.767	26.19
815.941	36.16
816.114	28.71
816.287	30.5
816.46	30.23
816.634	21.59
816.807	21.72
816.98	15.21
817.153	13.8
817.327	11.2
817.5	12.68
817.673	14.98
817.846	3.92
818.019	8.83
818.192	11.53
818.365	11.13
818.538	19.45
818.711	19.61
818.884	17.93
819.057	19.81
819.23	23.68
819.403	22.93
819.576	24.31
819.749	29.56
819.922	31.46
820.095	29.89
820.268	31.95
820.441	30.08
820.614	36.17
820.786	38.19
820.959	39.2
821.132	37.8
821.305	37.82
821.477	38.9
821.65	37.27
821.823	35.56
821.996	33.62
822.168	34.39
822.341	34.06
822.514	32.77
822.686	32.93
822.859	34.02
823.031	35.56
823.204	36.43
823.376	36.25
823.549	37.28
823.722	37.39
823.894	38.19
824.067	38.25
824.239	38.59
824.411	39.93
824.584	39.9
824.756	39.9
824.929	39.84
825.101	39.56
825.273	39.5
825.446	37.95
825.618	39.11
825.79	39.04
825.963	38.71
826.135	39.48
826.307	39.45
826.479	39.17
826.652	37.9
826.824	37.99
826.996	38.89
827.168	39.77
827.34	38.2
827.512	35.68
827.684	36.28
827.856	34.58
828.029	34.77
828.201	33.73
828.373	34.83
828.545	35.21
828.717	31.32
828.889	29.35
829.061	26.96
829.232	29.31
829.404	30.88
829.576	30.05
829.748	31.16
829.92	31.22
830.092	29.32
830.264	26.05
830.436	26.6
830.607	30.33
830.779	28.16
830.951	26.12
831.123	24.41
831.294	25.34
831.466	25.96
831.638	28.53
831.809	25.91
831.981	26.65
832.153	29.95
832.324	26.32
832.496	26.35
832.667	30.58
832.839	33.7
833.011	31.81
833.182	32.67
833.354	33.14
833.525	34.06
833.697	31.13
833.868	35.13
834.039	34.44
834.211	35.59
834.382	33.61
834.554	34.52
834.725	35.06
834.896	35.49
835.068	36.23
835.239	34.56
835.41	31.12
835.581	31.24
835.753	29.96
835.924	29.31
836.095	26.9
836.266	30.6
836.438	26.26
836.609	24.7
836.78	26.96
836.951	21.22
837.122	20.61
837.293	16.79
837.464	19.15
837.635	10.74
837.806	7.27
837.977	2.56
838.148	1.65
838.319	2.68
838.49	-2.41
838.661	-8.92
838.832	-3.79
839.003	-8.04
839.174	9.61
839.345	2.83
839.516	7.42
839.687	8.93
839.857	19.98
840.028	20.41
840.199	26.58
840.37	27.12
840.54	28.58
840.711	27.66
840.882	42.02
841.053	28.72
841.223	36.39
841.394	35.23
841.564	36.84
841.735	31.11
841.906	21.91
842.076	10.97
842.247	10.76
842.417	12.18
842.588	13.71
842.758	8.46
842.929	16.45
843.099	11.83
843.27	10.87
843.44	10.81
843.611	4.84
843.781	0.46
843.951	18.46
844.122	7.09
844.292	-3.43
844.462	0.17
844.633	-10.43
844.803	-26
844.973	-26.33
845.144	-38.09
845.314	-39.27
845.484	-2.92
845.654	-8.75
845.824	-13.03
845.995	-13.77
846.165	-1.59
846.335	-16.16
846.505	-6.58
846.675	-0.09
846.845	-9.92
847.015	-2.21
847.185	-18.36
847.355	-46.15
847.525	-2.15
847.695	1.89
847.865	3.52
848.035	14.03
848.205	16.83
848.375	25.24
848.545	22.63
848.715	26.81
848.884	32.3
849.054	49.19
849.224	61.42
849.394	42
849.564	43.83
849.733	69.22
849.903	45.85
850.073	46.97
850.243	42.35
850.412	42.36
850.582	46.45
850.752	40.71
850.921	42.93
851.091	45.61
851.26	50.98
851.43	43.31
851.599	33.2
851.769	34.8
851.939	21.41
852.108	4.28
852.278	18.08
852.447	-2.29
852.616	-12.27
852.786	-31.6
852.955	-51.16
853.125	-51.83
853.294	-69.45
853.463	-52.69
853.633	-19.33
853.802	3.56
853.971	-8.91
854.141	-42.58
854.31	-1.61
854.479	11.49
854.648	25.39
854.818	26.87
854.987	46.49
855.156	63.92
855.325	55.11
855.494	-50.47
855.663	-384.62
855.832	15.66
856.001	32.1
856.171	51.97
856.34	130.53
856.509	89.12
856.678	333.7
856.847	142.9
857.016	59
857.185	27.14
857.353	30.07
857.522	43.16
857.691	4.32
857.86	-30.25
858.029	-156.44
858.198	-51.28
858.367	-93.71
858.535	-369.76
858.704	-390.46
858.873	953.98
859.042	391.64
859.21	252.21
859.379	-283.42
859.548	1452.17
859.717	-38.36
859.885	-6.78
860.054	-26.12
860.222	-23.07
860.391	-19.55
860.56	-0.67
860.728	-11.92
860.897	-35.95
861.065	20.28
861.234	11.53
861.402	31.72
861.571	27.65
861.739	5.48
861.908	3.62
862.076	41.61
862.244	34.67
862.413	44.75
862.581	70.23
862.749	51.33
862.918	37.82
863.086	40.86
863.254	7.53
863.423	-13.18
863.591	5.12
863.759	-16.62
863.927	-21.02
864.096	-48.4
864.264	-54.11
864.432	-51.65
864.6	13.01
864.768	11.07
864.936	-62.32
865.104	175.46
865.272	136.16
865.44	-240.21
865.608	-20.53
865.776	-224.67
865.944	-28.15
866.112	-73.24
866.28	-82.82
866.448	-74.51
866.616	-270.14
866.784	-70.5
866.952	18.32
867.12	64.93
867.288	31.95
867.455	13.62
867.623	74.74
867.791	40.41
867.959	79.12
868.127	128.79
868.294	120.52
868.462	116.28
868.63	535.25
868.797	758.84
868.965	426.86
869.133	1853.37
869.3	254.34
869.468	126.3
869.636	200.27
869.803	25
869.971	-50.51
870.138	-41.63
870.306	17.69
870.473	16.39
870.641	1.62
870.808	-3.97
870.975	5.31
871.143	12.29
871.31	18.28
871.478	22.27
871.645	36.54
871.812	42.86
871.98	57.25
872.147	54.81
872.314	52.29
872.482	62.28
872.649	44.98
872.816	41.73
872.983	47.79
873.15	23.52
873.318	26.92
873.485	7.13
873.652	13.93
873.819	-0.76
873.986	-10.69
874.153	-13.26
874.32	-10.18
874.487	-23.65
874.654	-52.86
874.821	-37.18
874.988	-75.55
875.155	-11.05
875.322	48.82
875.489	23.78
875.656	-66.27
875.823	67.83
875.99	185.8
876.157	288.68
876.324	-775.7
876.49	-678.48
876.657	327.29
876.824	292.06
876.991	-84.09
877.157	13.18
877.324	30.77
877.491	85.39
877.658	50.15
877.824	42.76
877.991	40.57
878.157	49.51
878.324	78.29
878.491	50.99
878.657	56.64
878.824	48.13
878.99	13.37
879.157	5.67
879.323	-34.15
879.49	-73
879.656	-134.89
879.823	-102.03
879.989	-267.36
880.156	-130.11
880.322	-57.83
880.488	-27.87
880.655	-75.72
880.821	-57.26
880.987	-53.28
881.154	-26.54
881.32	10.19
881.486	23.7
881.652	20.56
881.819	28.41
881.985	25.13
882.151	26.01
882.317	20.23
882.483	25.44
882.649	25.67
882.816	27.6
882.982	29.75
883.148	31.42
883.314	32.59
883.48	37.43
883.646	39.04
883.812	41.21
883.978	42.19
884.144	44.55
884.31	47.3
884.476	45.93
884.642	47.11
884.807	47.71
884.973	45.13
885.139	43.07
885.305	41.82
885.471	41.17
885.637	34.95
885.802	35.86
885.968	39.6
886.134	31.73
886.3	32.92
886.465	29.95
886.631	26.36
886.797	25.55
886.962	22.84
887.128	21.96
887.293	22.65
887.459	25.94
887.625	11.7
887.79	1.65
887.956	1.69
888.121	5.76
888.287	7.55
888.452	17.2
888.618	13.28
888.783	1.23
