Data from 2937887_Reflection_2.txt Node
Date: Wed Jul 15 14:27:40 EDT 2015
User: robert
Spectrometer: USB4E03001
Autoset integration time: false
Trigger mode: 4
Integration Time (sec): 1.000000E-1
Scans to average: 10
Electric dark correction enabled: true
Nonlinearity correction enabled: false
Boxcar width: 5
Stray light correction enabled: false
XAxis mode: Wavelengths
Stop averaging: false
Number of Pixels in Spectrum: 3648
>>>>>Begin Spectral Data<<<<<
177.566	7371.11
177.785	-503.71
178.005	-26.65
178.225	3.84
178.445	57.8
178.665	106.45
178.885	547.14
179.105	-528.17
179.324	-1.83
179.544	432.81
179.764	189.37
179.984	119.07
180.204	114.14
180.423	99.96
180.643	83.02
180.863	98.2
181.083	105.34
181.302	112.7
181.522	83.87
181.742	60.34
181.961	49.84
182.181	78.84
182.401	77.18
182.621	63.97
182.84	67.73
183.06	95.42
183.279	82.88
183.499	75.49
183.719	66.71
183.938	81.56
184.158	70.55
184.377	64.29
184.597	50.14
184.816	39.39
185.036	39.66
185.256	30.37
185.475	21.42
185.695	9.67
185.914	25.45
186.134	26.44
186.353	22.03
186.572	25.19
186.792	18.75
187.011	16.88
187.231	15.66
187.45	-14.23
187.67	14.05
187.889	61.84
188.108	102.85
188.328	68.53
188.547	55
188.766	24.05
188.986	71.07
189.205	95.12
189.424	73.81
189.644	75.34
189.863	81.23
190.082	74.53
190.302	79.92
190.521	81.23
190.74	71.21
190.959	55.9
191.178	69.01
191.398	16.69
191.617	-30.87
191.836	-96.14
192.055	-110.38
192.274	-39.01
192.494	-1.25
192.713	-35.85
192.932	-74.58
193.151	-124.72
193.37	-35.15
193.589	-20.65
193.808	55.68
194.027	84.79
194.246	64.51
194.465	72.37
194.685	116.01
194.904	143.87
195.123	63.02
195.342	17.55
195.561	45.41
195.78	51.31
195.999	49.69
196.218	45.9
196.436	39.89
196.655	52.1
196.874	32.75
197.093	16.29
197.312	20.69
197.531	55.8
197.75	61.2
197.969	65.33
198.188	59.33
198.407	73.98
198.625	71.91
198.844	93.54
199.063	67.45
199.282	64.22
199.501	86
199.719	53.11
199.938	1.74
200.157	38.45
200.376	14.46
200.594	-65.4
200.813	-53.27
201.032	-133.07
201.251	-35.61
201.469	-93.45
201.688	1084.4
201.907	-395.27
202.125	-777.62
202.344	-21.86
202.563	23.26
202.781	34.93
203	-99.46
203.218	71.84
203.437	90.41
203.656	45750
203.874	-72.08
204.093	-247.31
204.311	-142.8
204.53	-394.11
204.748	-62.9
204.967	-55.79
205.185	-69.79
205.404	-80.29
205.622	-44.73
205.841	-69.22
206.059	-25.56
206.278	-22.47
206.496	-20.05
206.715	-3.23
206.933	31.51
207.151	36.57
207.37	45.81
207.588	79.91
207.806	32.94
208.025	48.22
208.243	48.6
208.461	22.55
208.68	64.11
208.898	63.27
209.116	17.66
209.335	32.65
209.553	54.78
209.771	34.55
209.989	29.83
210.208	81.31
210.426	189.49
210.644	228.93
210.862	384.56
211.081	145.3
211.299	114.2
211.517	96.04
211.735	157.76
211.953	304.01
212.171	401.81
212.39	437.97
212.608	95.26
212.826	48.54
213.044	62
213.262	45.21
213.48	98.75
213.698	243.62
213.916	95.74
214.134	69.57
214.352	38.63
214.57	9.07
214.788	23.44
215.006	25.58
215.224	-29.24
215.442	-238.34
215.66	-63.16
215.878	-34.74
216.096	-33.54
216.314	-631.99
216.532	456.24
216.75	190.98
216.968	159.41
217.185	73.41
217.403	232.53
217.621	82.82
217.839	-26.1
218.057	-24.67
218.275	219.51
218.492	41.37
218.71	83.67
218.928	90.12
219.146	123.22
219.363	162.49
219.581	52.01
219.799	33.06
220.017	-11.18
220.234	-117.95
220.452	-135.62
220.67	64.42
220.887	-245.99
221.105	231.83
221.323	155.11
221.54	136.09
221.758	143.9
221.976	268.21
222.193	276.72
222.411	261.22
222.629	260.1
222.846	273.79
223.064	427.6
223.281	496.98
223.499	-866.59
223.716	-624.7
223.934	-220.24
224.151	-90.18
224.369	-53.66
224.586	-30.95
224.804	-1.67
225.021	20.42
225.239	19.21
225.456	17.5
225.674	13.77
225.891	13.94
226.108	20.41
226.326	-0.06
226.543	-2.92
226.76	-2.75
226.978	0.98
227.195	-12.62
227.413	-14.69
227.63	-18.19
227.847	-20.22
228.064	-8.68
228.282	-2.5
228.499	2.4
228.716	8.15
228.934	10.42
229.151	12.13
229.368	11.43
229.585	13.73
229.802	11.88
230.02	11.48
230.237	14.64
230.454	12.65
230.671	14.1
230.888	12.95
231.105	13.82
231.323	11.11
231.54	7.92
231.757	5.86
231.974	4.78
232.191	0.54
232.408	2.32
232.625	0.34
232.842	2.29
233.059	-7.13
233.276	-6.99
233.493	-19.22
233.71	-22.06
233.927	-23.5
234.144	-26.13
234.361	-16.62
234.578	-7.95
234.795	-5.64
235.012	-10.92
235.229	-13.42
235.446	-7.29
235.663	-8.31
235.879	-5.09
236.096	-5.98
236.313	1.49
236.53	3.68
236.747	7.58
236.964	8.74
237.181	11.88
237.397	6.89
237.614	11.5
237.831	6.34
238.048	4.51
238.264	12.66
238.481	17.46
238.698	17.96
238.915	26.56
239.131	23.71
239.348	23.97
239.565	26.69
239.781	30.85
239.998	24.91
240.215	24.83
240.431	26.94
240.648	20.79
240.865	20.27
241.081	17.42
241.298	14.01
241.514	11.26
241.731	13.16
241.947	12.73
242.164	12.61
242.38	13.37
242.597	15.48
242.814	15.62
243.03	15.31
243.246	14.52
243.463	13.12
243.679	14.02
243.896	13.9
244.112	12.2
244.329	10.95
244.545	10.31
244.762	11.04
244.978	7.68
245.194	8.18
245.411	9.72
245.627	8.11
245.843	12.27
246.06	12.24
246.276	12.01
246.492	11.89
246.709	13.42
246.925	13.41
247.141	12.79
247.357	12.96
247.574	12.95
247.79	12.44
248.006	14.27
248.222	12.76
248.439	11.51
248.655	12.51
248.871	12.58
249.087	11.41
249.303	11.58
249.519	10.93
249.736	10.84
249.952	9.62
250.168	8.51
250.384	5.03
250.6	5.45
250.816	5.77
251.032	2.09
251.248	2.48
251.464	1.5
251.68	2.81
251.896	3.52
252.112	2.74
252.328	3.83
252.544	5.4
252.76	4.84
252.976	4.93
253.192	4.42
253.408	7.37
253.624	7.32
253.84	8.41
254.056	7.34
254.272	7.08
254.487	6.09
254.703	5.78
254.919	4.81
255.135	6.98
255.351	6.1
255.567	9.18
255.782	3.13
255.998	3.17
256.214	0.05
256.43	-2.46
256.646	-0.98
256.861	0.05
257.077	-0.99
257.293	0.97
257.508	1.36
257.724	3.2
257.94	4.76
258.155	6.4
258.371	6.82
258.587	8
258.802	9.5
259.018	10.92
259.234	12.33
259.449	12.36
259.665	11.76
259.88	11.91
260.096	11.71
260.312	11.16
260.527	11.9
260.743	12.4
260.958	12.36
261.174	12.6
261.389	11.91
261.605	10.64
261.82	9.69
262.036	10.22
262.251	8.95
262.466	9.02
262.682	8.77
262.897	9.14
263.113	7.58
263.328	7.01
263.543	5.4
263.759	4.78
263.974	5.09
264.189	5.33
264.405	2.94
264.62	4.99
264.835	3.39
265.051	1.4
265.266	2.09
265.481	1.06
265.696	2.43
265.912	3.62
266.127	2.14
266.342	2.62
266.557	2.92
266.773	3.53
266.988	2.19
267.203	2.28
267.418	4.33
267.633	2.94
267.848	3.5
268.064	2.15
268.279	3.45
268.494	5.19
268.709	5.59
268.924	6.28
269.139	7.81
269.354	9.88
269.569	8.71
269.784	7.89
269.999	8.08
270.214	9.07
270.429	10.04
270.644	8.24
270.859	8.07
271.074	7.67
271.289	8.61
271.504	9.4
271.719	7.93
271.934	9.85
272.149	8.7
272.363	7.47
272.578	6.92
272.793	7.35
273.008	8.3
273.223	8.43
273.438	9.38
273.653	8.74
273.867	7.24
274.082	7.59
274.297	7.47
274.512	9.8
274.726	9.67
274.941	10.56
275.156	10.4
275.371	9.83
275.585	10.3
275.8	9.71
276.015	9.34
276.229	10.29
276.444	7.93
276.659	8.11
276.873	6.18
277.088	8.07
277.302	8.57
277.517	8.74
277.732	8.51
277.946	6.73
278.161	7.69
278.375	8.09
278.59	8.08
278.804	9.07
279.019	8.53
279.233	9.78
279.448	8
279.662	7.35
279.877	7.27
280.091	6.47
280.306	5.07
280.52	4.28
280.735	5.79
280.949	5.18
281.163	6.1
281.378	6.27
281.592	6.38
281.806	6.91
282.021	4.88
282.235	4.04
282.449	5.52
282.664	7.63
282.878	7.27
283.092	5.93
283.307	6.34
283.521	6.63
283.735	7.16
283.949	7.1
284.164	7.98
284.378	8.13
284.592	7.86
284.806	6.28
285.02	5.31
285.234	6.86
285.449	6.54
285.663	6.04
285.877	5.32
286.091	5.33
286.305	5.36
286.519	5.35
286.733	6.32
286.947	6.72
287.161	7.79
287.375	8.71
287.589	7.77
287.803	7.39
288.017	7.85
288.231	7.64
288.445	7.71
288.659	8.81
288.873	9.09
289.087	8.36
289.301	9.37
289.515	9.2
289.729	9.51
289.943	10.04
290.157	12.03
290.371	11.03
290.584	13.77
290.798	14.22
291.012	13.68
291.226	12.95
291.44	13.72
291.654	13.36
291.867	12.99
292.081	12.55
292.295	11.77
292.509	9.71
292.722	11.11
292.936	9.1
293.15	8.31
293.364	7.84
293.577	7.8
293.791	8.85
294.005	8.27
294.218	8.72
294.432	8.47
294.645	8.66
294.859	9.36
295.073	9.2
295.286	9.69
295.5	9.3
295.713	8.5
295.927	9.5
296.14	7.97
296.354	8.7
296.568	9.48
296.781	10.2
296.994	10.21
297.208	11
297.421	11.86
297.635	12.07
297.848	11.78
298.062	13.14
298.275	12.87
298.489	13.31
298.702	13.53
298.915	13.12
299.129	12.31
299.342	11.7
299.555	10.7
299.769	9.44
299.982	9.67
300.195	10.79
300.409	9.47
300.622	8.56
300.835	9.91
301.048	9.33
301.262	10.29
301.475	11.98
301.688	13.02
301.901	13.65
302.115	13.68
302.328	12.87
302.541	11.14
302.754	12.03
302.967	13.41
303.18	12.93
303.393	13.68
303.607	13.18
303.82	12.39
304.033	12.93
304.246	13.43
304.459	14.53
304.672	14.61
304.885	17.11
305.098	17.29
305.311	17.35
305.524	15.72
305.737	15.47
305.95	15.52
306.163	14.93
306.376	16.35
306.589	15.44
306.802	15.02
307.015	14.42
307.228	12.77
307.44	12.67
307.653	12.6
307.866	13.07
308.079	13.89
308.292	14.2
308.505	15.56
308.718	13.34
308.93	13.78
309.143	13.26
309.356	14.96
309.569	16.18
309.781	15.94
309.994	16.23
310.207	17.51
310.42	16.87
310.632	17.26
310.845	17.04
311.058	17.28
311.27	18.1
311.483	18.62
311.696	18.2
311.908	17.81
312.121	17.18
312.333	17.12
312.546	17.74
312.759	18.46
312.971	18.94
313.184	19.33
313.396	19.28
313.609	18.35
313.821	18.88
314.034	17.92
314.246	16.67
314.459	17.3
314.671	16.16
314.884	14.44
315.096	13.76
315.309	12.47
315.521	11.45
315.733	11.88
315.946	10.92
316.158	10.74
316.371	11.19
316.583	11.3
316.795	12.76
317.008	14.06
317.22	14.97
317.432	15.75
317.644	16.55
317.857	17.09
318.069	17.06
318.281	17.31
318.494	17.65
318.706	18.05
318.918	20.24
319.13	19.5
319.342	17.83
319.555	18.05
319.767	17.17
319.979	16.07
320.191	15.81
320.403	15.96
320.615	17.35
320.827	16.04
321.039	17.12
321.252	15.67
321.464	16.28
321.676	18.25
321.888	17.88
322.1	18.79
322.312	19.08
322.524	20.5
322.736	21.56
322.948	21.88
323.16	22.84
323.372	21.38
323.584	20.79
323.796	21.92
324.007	21.01
324.219	20.07
324.431	19.36
324.643	20.12
324.855	19.4
325.067	18.14
325.279	15.87
325.491	15.31
325.702	14.97
325.914	16.13
326.126	13.54
326.338	14.48
326.55	15.22
326.761	16.47
326.973	15.08
327.185	14.93
327.396	15.97
327.608	17.98
327.82	18.56
328.032	19.42
328.243	18.03
328.455	19.22
328.666	18.21
328.878	18.41
329.09	17.68
329.301	17.76
329.513	19.13
329.725	18.8
329.936	18.63
330.148	18.62
330.359	20.44
330.571	22.45
330.782	23
330.994	23.94
331.205	23.31
331.417	23.07
331.628	22.99
331.84	21.35
332.051	21.78
332.262	22.97
332.474	23.04
332.685	20.53
332.897	20.44
333.108	20.51
333.319	20.46
333.531	21.33
333.742	21.62
333.953	22.13
334.165	21.69
334.376	20.83
334.587	19.56
334.799	19.94
335.01	21.11
335.221	19.17
335.432	17.93
335.644	18.01
335.855	17
336.066	15.57
336.277	16.33
336.488	17.25
336.7	17.33
336.911	16.62
337.122	14.89
337.333	14.25
337.544	15.33
337.755	16.81
337.966	16.24
338.177	17.32
338.388	18.83
338.599	18.33
338.811	17.47
339.022	17.8
339.233	19
339.444	19.99
339.655	19.23
339.866	19.64
340.076	19.05
340.287	19.18
340.498	18.67
340.709	16.8
340.92	15.77
341.131	16.98
341.342	17
341.553	17.45
341.764	17.66
341.975	19.02
342.185	18.92
342.396	19.05
342.607	19.39
342.818	19.58
343.029	20.89
343.239	22.2
343.45	22.58
343.661	23.19
343.872	22.08
344.082	22.03
344.293	22.06
344.504	22.56
344.714	22.24
344.925	22.14
345.136	22.84
345.346	23.52
345.557	23.4
345.768	23.04
345.978	22.19
346.189	22.24
346.399	22.35
346.61	21.4
346.821	20.69
347.031	21.67
347.242	21.45
347.452	20.33
347.663	19.37
347.873	18.68
348.084	17.59
348.294	18.24
348.504	18.25
348.715	18.08
348.925	18.75
349.136	17.96
349.346	16.68
349.557	16.43
349.767	15.81
349.977	15.03
350.188	15.59
350.398	16.45
350.608	15.6
350.819	16.58
351.029	16.29
351.239	16.23
351.449	17.4
351.66	17.26
351.87	17.23
352.08	17.62
352.29	17.71
352.501	16.37
352.711	16.26
352.921	16.62
353.131	15.23
353.341	15.76
353.552	15.53
353.762	15.02
353.972	15.21
354.182	16.6
354.392	16.99
354.602	17.89
354.812	18.54
355.022	18.84
355.232	18.13
355.442	18.56
355.652	17.97
355.862	18.37
356.072	18.11
356.282	17.55
356.492	17
356.702	16.24
356.912	17
357.122	17.87
357.332	17.73
357.542	17.94
357.752	18.75
357.962	18.64
358.171	18.01
358.381	18.34
358.591	19.51
358.801	19.07
359.011	19.6
359.221	18.62
359.43	18.02
359.64	17.75
359.85	17.9
360.06	16.96
360.269	16.6
360.479	16.65
360.689	16.36
360.899	16.27
361.108	16.9
361.318	17.04
361.528	17.11
361.737	17.41
361.947	16.93
362.156	16.7
362.366	16.12
362.576	15.95
362.785	16.46
362.995	17.06
363.204	16.42
363.414	16.17
363.623	16.7
363.833	16.55
364.042	15.91
364.252	15.98
364.461	15.88
364.671	16.25
364.88	16.13
365.09	15.28
365.299	14.29
365.509	14.71
365.718	14.19
365.927	13.55
366.137	13.62
366.346	13.38
366.555	13.67
366.765	14.05
366.974	14.38
367.183	14.54
367.393	14.61
367.602	14.51
367.811	14.14
368.021	14.25
368.23	14.58
368.439	14.08
368.648	14.56
368.857	14.1
369.067	14.33
369.276	14.8
369.485	15.46
369.694	15.89
369.903	15.8
370.112	15.76
370.321	15.39
370.531	14.82
370.74	14.61
370.949	14.92
371.158	15.17
371.367	14.87
371.576	13.56
371.785	13.82
371.994	13.21
372.203	14.08
372.412	14.04
372.621	14.22
372.83	14.37
373.039	14.82
373.248	14.74
373.457	14.38
373.666	14.18
373.874	14.81
374.083	14.23
374.292	14.96
374.501	14.6
374.71	14.59
374.919	15.27
375.128	14.99
375.336	15.11
375.545	15
375.754	15.06
375.963	15.17
376.171	15.74
376.38	15.7
376.589	15.76
376.798	15.85
377.006	15.54
377.215	15.58
377.424	16.02
377.632	16.18
377.841	16.04
378.05	16.9
378.258	17.02
378.467	16.69
378.675	16.68
378.884	15.74
379.093	15.12
379.301	14.96
379.51	14.46
379.718	13.63
379.927	13.1
380.135	12.94
380.344	12.31
380.552	11.89
380.761	11.38
380.969	11.42
381.177	11.3
381.386	11.35
381.594	11.94
381.803	11.27
382.011	11.75
382.219	11.56
382.428	11.45
382.636	11.23
382.845	10.98
383.053	11.75
383.261	11.98
383.469	12.34
383.678	12.55
383.886	12.14
384.094	12.5
384.302	12.22
384.511	11.88
384.719	11.53
384.927	11.63
385.135	12.01
385.343	11.47
385.552	11.26
385.76	11.45
385.968	11.1
386.176	11.13
386.384	10.65
386.592	10.51
386.8	10.93
387.008	11.16
387.216	10.78
387.424	10.39
387.633	9.82
387.841	9.46
388.049	9.52
388.257	9.26
388.465	9.68
388.672	9.97
388.88	10.06
389.088	9.77
389.296	9.9
389.504	9.97
389.712	10.52
389.92	10.81
390.128	10.93
390.336	10.29
390.544	11.1
390.751	10.67
390.959	10.93
391.167	10.85
391.375	11.19
391.583	10.98
391.79	11.24
391.998	10.93
392.206	10.96
392.414	11.02
392.621	11.38
392.829	10.98
393.037	10.92
393.244	11.15
393.452	11.13
393.66	10.73
393.867	11.04
394.075	10.92
394.283	10.68
394.49	10.57
394.698	10.55
394.905	10.52
395.113	10.66
395.32	10.78
395.528	10.03
395.735	10.01
395.943	10.03
396.15	9.82
396.358	9.79
396.565	9.96
396.773	10.41
396.98	10.58
397.188	10.35
397.395	10.29
397.602	10.3
397.81	10.14
398.017	10.17
398.225	10.31
398.432	10.07
398.639	10.09
398.847	10.06
399.054	9.59
399.261	9.06
399.468	8.95
399.676	8.89
399.883	8.93
400.09	9.43
400.297	9.7
400.505	10.16
400.712	10.24
400.919	10.1
401.126	9.8
401.333	10.09
401.54	10.64
401.748	10.87
401.955	10.86
402.162	10.49
402.369	10.19
402.576	10.23
402.783	9.88
402.99	9.76
403.197	9.79
403.404	10.11
403.611	10.22
403.818	9.82
404.025	9.76
404.232	9.73
404.439	9.92
404.646	9.92
404.853	9.77
405.06	9.99
405.267	10.32
405.474	10.37
405.681	10.21
405.887	10.2
406.094	10.31
406.301	10.43
406.508	10.04
406.715	9.9
406.922	10.04
407.128	9.72
407.335	9.25
407.542	8.66
407.749	8.56
407.955	8.7
408.162	8.56
408.369	8.32
408.575	8.15
408.782	8.23
408.989	8.23
409.195	7.84
409.402	8.05
409.609	7.96
409.815	8.32
410.022	8.34
410.228	8.31
410.435	8.21
410.642	8.37
410.848	8.42
411.055	8.94
411.261	9.06
411.468	9.16
411.674	9.35
411.881	9.46
412.087	9.36
412.294	9.08
412.5	9.06
412.706	9.05
412.913	9.23
413.119	9.1
413.326	8.7
413.532	8.54
413.738	8.82
413.945	8.47
414.151	8.53
414.357	8.72
414.564	8.94
414.77	8.85
414.976	8.84
415.182	8.65
415.389	8.95
415.595	9.14
415.801	9.31
416.007	9.34
416.214	9.44
416.42	9.4
416.626	9.24
416.832	9.15
417.038	9.48
417.244	9.61
417.45	9.7
417.657	9.41
417.863	9.4
418.069	9.39
418.275	9.22
418.481	9.48
418.687	9.4
418.893	9.45
419.099	9.56
419.305	9.43
419.511	9.32
419.717	9.28
419.923	9.46
420.129	9.49
420.335	9.46
420.541	9.4
420.746	9.14
420.952	9.24
421.158	9.09
421.364	8.99
421.57	9.1
421.776	9.29
421.982	9.22
422.187	9.09
422.393	8.96
422.599	8.91
422.805	9.08
423.01	9.15
423.216	9.2
423.422	9.35
423.628	9.49
423.833	9.37
424.039	9.17
424.245	9.27
424.45	9.37
424.656	9.52
424.862	9.52
425.067	9.4
425.273	9.36
425.478	9.33
425.684	9.23
425.889	9.07
426.095	9.18
426.301	9.16
426.506	9.09
426.712	9.04
426.917	8.94
427.123	8.88
427.328	9.02
427.533	8.94
427.739	8.93
427.944	8.88
428.15	9.02
428.355	8.87
428.561	8.74
428.766	8.72
428.971	8.81
429.177	8.84
429.382	9.02
429.587	8.97
429.793	9.03
429.998	9.08
430.203	9.21
430.408	9.04
430.614	9.12
430.819	9.34
431.024	9.37
431.229	9.21
431.434	9.09
431.64	9.05
431.845	9.09
432.05	9
432.255	8.95
432.46	8.99
432.665	9.01
432.87	8.81
433.076	8.83
433.281	8.95
433.486	9.11
433.691	9.08
433.896	8.95
434.101	8.78
434.306	8.97
434.511	8.89
434.716	8.97
434.921	9.18
435.126	9.15
435.331	9.09
435.535	9.01
435.74	8.97
435.945	9.13
436.15	9.35
436.355	9.67
436.56	9.45
436.765	9.52
436.97	9.27
437.174	9.03
437.379	8.96
437.584	8.94
437.789	8.9
437.993	8.8
438.198	8.66
438.403	8.5
438.608	8.13
438.812	8.3
439.017	8.34
439.222	8.43
439.426	8.51
439.631	8.71
439.836	8.76
440.04	8.74
440.245	8.64
440.45	8.69
440.654	8.73
440.859	9.02
441.063	8.98
441.268	8.98
441.472	8.92
441.677	8.97
441.881	9.01
442.086	8.95
442.29	8.96
442.495	9.05
442.699	9.08
442.904	9.12
443.108	9.11
443.312	9.29
443.517	9.27
443.721	9.33
443.925	9.22
444.13	9.3
444.334	9.38
444.538	9.44
444.743	9.46
444.947	9.42
445.151	9.28
445.356	9.21
445.56	9.16
445.764	9.03
445.968	9.08
446.173	9.24
446.377	9.04
446.581	9.04
446.785	8.99
446.989	8.97
447.193	9.08
447.398	9.2
447.602	9.17
447.806	9.12
448.01	9.27
448.214	9.23
448.418	9.14
448.622	9.16
448.826	9
449.03	8.99
449.234	9.04
449.438	8.94
449.642	8.98
449.846	9.09
450.05	8.82
450.254	8.64
450.458	8.57
450.662	8.43
450.866	8.53
451.069	8.75
451.273	8.7
451.477	8.62
451.681	8.7
451.885	8.6
452.089	8.28
452.292	8.46
452.496	8.58
452.7	8.6
452.904	8.71
453.107	8.79
453.311	8.68
453.515	8.83
453.719	8.78
453.922	8.6
454.126	8.77
454.33	9
454.533	9.1
454.737	9.06
454.94	9.3
455.144	9.39
455.348	9.29
455.551	9.14
455.755	9.11
455.958	9.1
456.162	9.01
456.365	8.84
456.569	8.75
456.772	8.61
456.976	8.77
457.179	8.53
457.383	8.45
457.586	8.57
457.79	8.6
457.993	8.6
458.196	8.6
458.4	8.66
458.603	8.73
458.807	8.7
459.01	8.63
459.213	8.65
459.417	8.75
459.62	8.83
459.823	8.81
460.026	8.85
460.23	8.81
460.433	8.7
460.636	8.69
460.839	8.79
461.042	8.89
461.246	8.97
461.449	8.89
461.652	8.83
461.855	8.62
462.058	8.37
462.261	8.39
462.464	8.52
462.668	8.71
462.871	8.72
463.074	8.73
463.277	8.71
463.48	8.8
463.683	8.68
463.886	8.65
464.089	8.74
464.292	8.9
464.495	8.85
464.698	8.51
464.901	8.28
465.104	8.2
465.306	8.01
465.509	8.08
465.712	8.13
465.915	8.18
466.118	8.22
466.321	8.09
466.524	8.03
466.726	8.19
466.929	8.33
467.132	8.37
467.335	8.31
467.538	8.17
467.74	7.99
467.943	7.96
468.146	8.03
468.348	7.91
468.551	7.92
468.754	8.09
468.956	7.9
469.159	7.66
469.362	7.86
469.564	8.12
469.767	8.24
469.969	8.5
470.172	8.44
470.375	8.5
470.577	8.71
470.78	8.83
470.982	8.73
471.185	8.86
471.387	9.11
471.59	8.97
471.792	8.89
471.995	8.77
472.197	8.54
472.399	8.48
472.602	8.4
472.804	8.18
473.007	8.11
473.209	8.24
473.411	8.3
473.614	8.39
473.816	8.42
474.018	8.35
474.22	8.53
474.423	8.35
474.625	8.36
474.827	8.29
475.03	8.52
475.232	8.61
475.434	8.37
475.636	8.4
475.838	8.27
476.04	8.41
476.243	8.37
476.445	8.36
476.647	8.39
476.849	8.24
477.051	8.37
477.253	8.3
477.455	8.28
477.657	8.44
477.859	8.24
478.061	8.17
478.263	7.99
478.465	8.02
478.667	8.01
478.869	8.14
479.071	8.27
479.273	8.1
479.475	7.99
479.677	8.06
479.879	7.98
480.081	8.15
480.283	8.26
480.485	8.24
480.686	8.35
480.888	8.2
481.09	8.18
481.292	8.29
481.494	8.46
481.695	8.72
481.897	8.72
482.099	8.86
482.301	8.85
482.502	8.79
482.704	8.85
482.906	8.83
483.107	8.95
483.309	8.91
483.511	8.93
483.712	8.86
483.914	8.8
484.115	8.79
484.317	8.73
484.519	8.7
484.72	8.75
484.922	8.74
485.123	8.78
485.325	8.68
485.526	8.67
485.728	8.59
485.929	8.58
486.131	8.58
486.332	8.53
486.534	8.47
486.735	8.42
486.936	8.37
487.138	8.36
487.339	8.33
487.541	8.4
487.742	8.41
487.943	8.4
488.144	8.47
488.346	8.44
488.547	8.47
488.748	8.56
488.95	8.66
489.151	8.66
489.352	8.68
489.553	8.59
489.755	8.61
489.956	8.67
490.157	8.74
490.358	8.68
490.559	8.68
490.76	8.58
490.961	8.55
491.163	8.41
491.364	8.45
491.565	8.49
491.766	8.57
491.967	8.56
492.168	8.64
492.369	8.64
492.57	8.69
492.771	8.7
492.972	8.79
493.173	8.78
493.374	8.89
493.575	8.87
493.776	8.98
493.976	8.89
494.177	8.83
494.378	8.63
494.579	8.66
494.78	8.48
494.981	8.46
495.182	8.46
495.382	8.47
495.583	8.41
495.784	8.39
495.985	8.3
496.185	8.44
496.386	8.47
496.587	8.53
496.788	8.54
496.988	8.4
497.189	8.43
497.39	8.52
497.59	8.48
497.791	8.57
497.992	8.67
498.192	8.65
498.393	8.49
498.593	8.53
498.794	8.5
498.994	8.42
499.195	8.72
499.395	8.68
499.596	8.58
499.796	8.6
499.997	8.58
500.197	8.37
500.398	8.18
500.598	8.34
500.799	8.44
500.999	8.51
501.199	8.54
501.4	8.46
501.6	8.38
501.801	8.33
502.001	8.38
502.201	8.24
502.402	8.49
502.602	8.57
502.802	8.51
503.002	8.37
503.203	8.27
503.403	8.28
503.603	8.41
503.803	8.5
504.003	8.54
504.204	8.48
504.404	8.87
504.604	8.76
504.804	8.84
505.004	8.92
505.204	9.2
505.404	9.46
505.604	9.55
505.804	9.42
506.005	9.48
506.205	9.58
506.405	9.58
506.605	9.36
506.805	9.33
507.005	9.38
507.204	9.4
507.404	9.19
507.604	9.17
507.804	9.04
508.004	9.19
508.204	9.39
508.404	9.55
508.604	9.67
508.804	9.57
509.003	9.68
509.203	9.75
509.403	9.74
509.603	9.87
509.803	9.88
510.002	9.9
510.202	9.83
510.402	9.66
510.602	9.56
510.801	9.57
511.001	9.71
511.201	9.75
511.4	9.75
511.6	9.81
511.8	9.83
511.999	9.7
512.199	9.73
512.398	9.74
512.598	9.84
512.797	9.8
512.997	9.77
513.197	9.76
513.396	9.73
513.596	9.78
513.795	9.9
513.994	9.89
514.194	9.89
514.393	10.02
514.593	10.02
514.792	10
514.992	10.01
515.191	10.02
515.39	10.11
515.59	10.22
515.789	10.14
515.988	9.93
516.188	9.96
516.387	10.2
516.586	10.1
516.786	10.24
516.985	10.3
517.184	10.38
517.383	10.36
517.582	10.28
517.782	10.32
517.981	10.29
518.18	10.3
518.379	10.29
518.578	10.23
518.777	10.27
518.976	10.32
519.176	10.23
519.375	10.21
519.574	10.22
519.773	10.21
519.972	10.25
520.171	10.34
520.37	10.32
520.569	10.38
520.768	10.47
520.967	10.54
521.166	10.6
521.365	10.69
521.564	10.73
521.762	10.89
521.961	11.02
522.16	10.94
522.359	10.92
522.558	11.08
522.757	11.05
522.956	11.07
523.154	11.09
523.353	10.93
523.552	10.9
523.751	11.02
523.949	11.13
524.148	11.13
524.347	11.17
524.546	11.18
524.744	11.23
524.943	11.17
525.142	11.18
525.34	11.16
525.539	11.25
525.737	11.34
525.936	11.3
526.135	11.24
526.333	11.28
526.532	11.39
526.73	11.48
526.929	11.51
527.127	11.65
527.326	11.68
527.524	11.78
527.723	11.8
527.921	11.87
528.12	11.92
528.318	11.89
528.516	11.92
528.715	11.92
528.913	11.86
529.112	11.87
529.31	11.87
529.508	11.83
529.707	11.89
529.905	11.86
530.103	11.8
530.301	11.77
530.5	11.81
530.698	11.85
530.896	11.87
531.094	12.02
531.293	12.02
531.491	12.08
531.689	12.12
531.887	12.05
532.085	12.13
532.283	12.18
532.481	12.25
532.68	12.34
532.878	12.35
533.076	12.37
533.274	12.36
533.472	12.3
533.67	12.26
533.868	12.31
534.066	12.33
534.264	12.33
534.462	12.44
534.66	12.51
534.858	12.47
535.056	12.39
535.253	12.39
535.451	12.39
535.649	12.54
535.847	12.6
536.045	12.61
536.243	12.65
536.441	12.7
536.638	12.7
536.836	12.66
537.034	12.73
537.232	12.85
537.43	12.98
537.627	13.05
537.825	13.07
538.023	13.15
538.22	13.14
538.418	13.24
538.616	13.25
538.813	13.21
539.011	13.27
539.209	13.31
539.406	13.36
539.604	13.23
539.801	13.23
539.999	13.31
540.196	13.31
540.394	13.48
540.591	13.57
540.789	13.66
540.986	13.63
541.184	13.7
541.381	13.69
541.579	13.7
541.776	13.73
541.974	13.74
542.171	13.77
542.368	13.8
542.566	13.81
542.763	13.72
542.96	13.64
543.158	13.75
543.355	13.66
543.552	13.65
543.75	13.6
543.947	13.64
544.144	13.68
544.341	13.69
544.539	13.69
544.736	13.73
544.933	13.77
545.13	13.79
545.327	13.93
545.524	13.99
545.722	14.05
545.919	14.18
546.116	14.24
546.313	14.31
546.51	14.21
546.707	14.24
546.904	14.14
547.101	14.07
547.298	14.16
547.495	14.05
547.692	14
547.889	14.02
548.086	14.06
548.283	14.09
548.48	14.03
548.677	14.28
548.874	14.32
549.07	14.32
549.267	14.49
549.464	14.69
549.661	14.5
549.858	14.72
550.055	14.64
550.251	14.6
550.448	14.39
550.645	14.46
550.842	14.46
551.038	14.41
551.235	14.57
551.432	14.64
551.628	14.54
551.825	14.83
552.022	14.78
552.218	14.87
552.415	15.09
552.612	15.17
552.808	15.15
553.005	15.07
553.201	15.24
553.398	15.14
553.594	15.11
553.791	15.12
553.987	15.15
554.184	15.22
554.38	15.31
554.577	15.04
554.773	15.3
554.97	15.43
555.166	15.54
555.362	15.43
555.559	15.73
555.755	15.74
555.952	15.76
556.148	15.71
556.344	15.64
556.541	15.8
556.737	15.83
556.933	15.63
557.129	15.65
557.326	15.53
557.522	15.61
557.718	15.6
557.914	15.72
558.11	15.82
558.307	15.84
558.503	15.82
558.699	15.77
558.895	15.87
559.091	15.89
559.287	15.8
559.483	15.97
559.679	15.94
559.876	15.89
560.072	15.66
560.268	15.56
560.464	15.62
560.66	15.94
560.856	16.04
561.052	16.17
561.247	16.42
561.443	16.37
561.639	16.31
561.835	16.49
562.031	16.42
562.227	16.68
562.423	16.6
562.619	16.6
562.815	16.36
563.01	16.14
563.206	16.09
563.402	16.18
563.598	16.41
563.793	16.11
563.989	15.9
564.185	16.07
564.381	16.12
564.576	16.41
564.772	16.56
564.968	16.59
565.163	16.73
565.359	16.77
565.555	16.76
565.75	16.79
565.946	17.09
566.141	17.3
566.337	17.24
566.532	17.26
566.728	17.29
566.923	17.16
567.119	17.19
567.314	17.27
567.51	17.19
567.705	16.91
567.901	16.79
568.096	16.69
568.292	16.53
568.487	16.53
568.682	16.48
568.878	16.32
569.073	16.39
569.268	16.56
569.464	16.65
569.659	16.72
569.854	16.88
570.05	17.19
570.245	17.34
570.44	17.5
570.635	17.57
570.831	17.73
571.026	17.74
571.221	17.61
571.416	17.66
571.611	17.48
571.806	17.61
572.002	17.52
572.197	17.39
572.392	17.34
572.587	17.4
572.782	17.4
572.977	17.18
573.172	17.29
573.367	17.5
573.562	17.26
573.757	17.29
573.952	17.33
574.147	17.52
574.342	17.44
574.537	17.42
574.732	17.18
574.927	17.04
575.121	17.01
575.316	17.1
575.511	17.08
575.706	17.37
575.901	17.45
576.096	17.3
576.29	17.32
576.485	17.36
576.68	17.49
576.875	17.58
577.069	17.73
577.264	17.83
577.459	17.66
577.654	17.48
577.848	17.3
578.043	17.23
578.238	17.41
578.432	17.21
578.627	17.33
578.821	17.11
579.016	17.29
579.21	17.2
579.405	17.26
579.6	17.29
579.794	17.32
579.989	17.07
580.183	17.32
580.378	17.23
580.572	17.43
580.766	17.15
580.961	17.2
581.155	17.14
581.35	17.24
581.544	17.36
581.738	17.54
581.933	17.44
582.127	17.78
582.321	17.45
582.516	17.69
582.71	17.59
582.904	17.89
583.099	18.08
583.293	18.01
583.487	18.07
583.681	17.98
583.875	17.89
584.07	18.11
584.264	18.17
584.458	18.14
584.652	17.98
584.846	18.16
585.04	18.4
585.234	18.44
585.428	18.54
585.623	18.61
585.817	18.57
586.011	18.68
586.205	18.74
586.399	18.73
586.593	19.03
586.787	18.71
586.981	18.9
587.174	18.66
587.368	18.58
587.562	18.82
587.756	18.73
587.95	18.97
588.144	19.06
588.338	19.15
588.532	19.27
588.725	19
588.919	19.5
589.113	19.2
589.307	19.1
589.501	18.88
589.694	18.92
589.888	18.92
590.082	18.88
590.275	18.64
590.469	18.48
590.663	18.45
590.856	18.54
591.05	18.24
591.244	18.2
591.437	18.43
591.631	18.55
591.824	18.32
592.018	18.44
592.212	18.37
592.405	18.37
592.599	18.48
592.792	18.42
592.986	18.52
593.179	18.78
593.372	18.78
593.566	18.53
593.759	18.63
593.953	18.55
594.146	18.49
594.339	18.62
594.533	18.89
594.726	18.99
594.92	19.05
595.113	18.87
595.306	18.88
595.499	19.05
595.693	19.41
595.886	19.47
596.079	19.72
596.272	19.57
596.466	19.52
596.659	19.6
596.852	19.64
597.045	19.45
597.238	19.47
597.431	19.34
597.624	19.38
597.818	19.15
598.011	19.08
598.204	19.09
598.397	19.23
598.59	19.09
598.783	18.65
598.976	18.43
599.169	18.55
599.362	18.74
599.555	18.94
599.748	18.89
599.941	19.06
600.134	19.14
600.326	19.01
600.519	19.17
600.712	19.28
600.905	19.47
601.098	19.65
601.291	19.67
601.483	19.71
601.676	19.43
601.869	19.34
602.062	19.32
602.255	19.42
602.447	19.29
602.64	19.11
602.833	19.26
603.025	19.18
603.218	19.21
603.411	19.32
603.603	19.28
603.796	19.42
603.989	19.37
604.181	19.38
604.374	19.39
604.566	19.43
604.759	19.37
604.951	19.31
605.144	19.42
605.336	19.57
605.529	19.5
605.721	19.5
605.914	19.23
606.106	19.28
606.299	19.18
606.491	19.21
606.683	19.27
606.876	19.3
607.068	19.28
607.26	19.36
607.453	19.41
607.645	19.44
607.837	19.32
608.03	19.42
608.222	19.28
608.414	19.49
608.606	19.45
608.799	19.5
608.991	19.64
609.183	19.61
609.375	19.63
609.567	19.46
609.759	19.39
609.952	19.39
610.144	19.6
610.336	19.66
610.528	19.39
610.72	19.36
610.912	19.27
611.104	19.22
611.296	19.05
611.488	18.85
611.68	18.64
611.872	18.7
612.064	18.81
612.256	18.54
612.448	18.47
612.64	18.78
612.832	18.62
613.023	18.72
613.215	18.65
613.407	18.79
613.599	18.56
613.791	18.75
613.983	18.66
614.174	18.72
614.366	18.92
614.558	18.83
614.75	18.61
614.941	18.82
615.133	18.81
615.325	19.03
615.516	19.08
615.708	19.34
615.9	19.07
616.091	19.07
616.283	19.18
616.475	19.15
616.666	19.21
616.858	19.24
617.049	19.06
617.241	19.03
617.432	19.01
617.624	19.07
617.815	19.26
618.007	19.62
618.198	19.67
618.39	19.49
618.581	19.41
618.773	19.88
618.964	19.99
619.155	20.19
619.347	20.21
619.538	20.2
619.729	20.1
619.921	20.05
620.112	19.72
620.303	19.66
620.494	19.66
620.686	19.63
620.877	19.22
621.068	19.2
621.259	19.09
621.451	18.88
621.642	18.68
621.833	18.61
622.024	18.65
622.215	18.61
622.406	18.76
622.597	18.89
622.788	19.22
622.98	19.65
623.171	19.51
623.362	19.45
623.553	19.62
623.744	19.84
623.935	19.89
624.126	19.35
624.317	19.7
624.508	19.41
624.698	19.03
624.889	18.84
625.08	18.61
625.271	18.72
625.462	18.97
625.653	18.8
625.844	18.88
626.034	18.84
626.225	19.23
626.416	19.26
626.607	19.54
626.798	19.81
626.988	19.7
627.179	19.87
627.37	19.78
627.56	19.23
627.751	19.39
627.942	19.34
628.132	19.75
628.323	19.85
628.514	19.78
628.704	19.61
628.895	19.58
629.085	19.84
629.276	19.75
629.466	19.77
629.657	20.32
629.847	20.38
630.038	20.19
630.228	19.89
630.419	19.98
630.609	20.25
630.8	20.33
630.99	20.44
631.181	20.05
631.371	19.62
631.561	19.64
631.752	19.17
631.942	18.88
632.132	18.97
632.323	18.91
632.513	18.55
632.703	17.95
632.893	17.73
633.084	17.63
633.274	17.99
633.464	18.45
633.654	18.27
633.844	18.93
634.034	19.05
634.225	19.24
634.415	19.62
634.605	19.83
634.795	20.03
634.985	20.8
635.175	20.74
635.365	20.73
635.555	20.73
635.745	21.07
635.935	20.82
636.125	20.79
636.315	20.64
636.505	20.24
636.695	20.11
636.885	20.14
637.075	19.53
637.265	19.5
637.455	19.32
637.644	19.22
637.834	18.77
638.024	18.66
638.214	18.59
638.404	18.39
638.593	18.43
638.783	18.59
638.973	18.69
639.163	18.44
639.352	18.42
639.542	18.58
639.732	18.16
639.921	18.55
640.111	18.71
640.301	18.88
640.49	18.99
640.68	18.84
640.87	18.23
641.059	18.55
641.249	18.87
641.438	19.02
641.628	18.65
641.817	19.03
642.007	19.13
642.196	19.14
642.386	19.24
642.575	19.49
642.764	19.85
642.954	20.6
643.143	20.33
643.333	19.99
643.522	20.14
643.711	20.38
643.901	20.89
644.09	20.68
644.279	20.31
644.469	20.45
644.658	19.96
644.847	20.12
645.036	19.76
645.226	19.61
645.415	19.94
645.604	19.34
645.793	19.35
645.982	18.62
646.171	18.62
646.361	18.75
646.55	18.51
646.739	18.77
646.928	18.51
647.117	18.88
647.306	18.71
647.495	18.53
647.684	18.79
647.873	18.79
648.062	19.13
648.251	19.13
648.44	19.29
648.629	19.81
648.818	19.51
649.007	19.61
649.196	19.5
649.384	19.57
649.573	19.82
649.762	19.81
649.951	19.86
650.14	20.11
650.328	20.35
650.517	20.53
650.706	20.21
650.895	20.15
651.083	20.07
651.272	20.1
651.461	20.21
651.65	20.11
651.838	20.52
652.027	20.7
652.216	19.97
652.404	19.65
652.593	19.57
652.781	19.45
652.97	19.79
653.158	19.5
653.347	19.62
653.535	19.73
653.724	19.97
653.912	19.48
654.101	19.07
654.289	19.73
654.478	20
654.666	19.75
654.855	19.96
655.043	19.79
655.231	20.16
655.42	20.14
655.608	20.29
655.796	20.03
655.985	20.67
656.173	21.16
656.361	20.95
656.55	20.82
656.738	21.07
656.926	20.6
657.114	20.9
657.302	21.06
657.491	20.99
657.679	21
657.867	21.02
658.055	20.7
658.243	20.27
658.431	20
658.619	19.95
658.807	19.81
658.996	20.02
659.184	19.9
659.372	19.72
659.56	19.66
659.748	19.44
659.936	19.59
660.124	19.59
660.311	19.75
660.499	20.05
660.687	20.41
660.875	20.55
661.063	20.3
661.251	20.32
661.439	20.19
661.627	20.03
661.814	20.23
662.002	19.91
662.19	19.66
662.378	19.91
662.565	19.86
662.753	20.03
662.941	19.6
663.129	20.14
663.316	20.29
663.504	20.62
663.692	20.73
663.879	20.61
664.067	20.62
664.254	20.7
664.442	20.55
664.63	20.67
664.817	20
665.005	20.08
665.192	19.88
665.38	19.9
665.567	19.65
665.755	19.53
665.942	19.6
666.13	19.71
666.317	19.6
666.504	19.13
666.692	18.58
666.879	18.79
667.067	19.2
667.254	19.05
667.441	19.06
667.629	18.6
667.816	18.74
668.003	18.49
668.19	18.6
668.378	18.75
668.565	18.9
668.752	19.51
668.939	19.71
669.127	19.3
669.314	19.24
669.501	19.05
669.688	19.43
669.875	19.68
670.062	19.97
670.249	20.22
670.436	19.98
670.623	20.24
670.81	20.22
670.997	19.92
671.184	20.32
671.371	20.45
671.558	20.69
671.745	20.88
671.932	20.75
672.119	19.83
672.306	19.94
672.493	20.31
672.68	20.41
672.867	19.83
673.054	19.83
673.24	20.35
673.427	20.43
673.614	20.46
673.801	20.37
673.988	20.4
674.174	21.47
674.361	20.83
674.548	20.56
674.734	20.35
674.921	20.6
675.108	21.03
675.294	20.35
675.481	19.61
675.668	19.27
675.854	18.63
676.041	18.25
676.227	17.69
676.414	18.8
676.601	19.35
676.787	19.61
676.974	19.56
677.16	19.08
677.347	19.2
677.533	19.95
677.719	20.23
677.906	20.98
678.092	21.31
678.279	21.67
678.465	20.75
678.651	20.89
678.838	20.81
679.024	21.29
679.21	21.51
679.397	21.22
679.583	20.93
679.769	21.06
679.955	20.7
680.142	20.62
680.328	20.73
680.514	20.71
680.7	20.93
680.886	21.18
681.073	21.53
681.259	21.5
681.445	21.57
681.631	21.29
681.817	21.2
682.003	21.36
682.189	21.66
682.375	21.55
682.561	21.74
682.747	20.97
682.933	20.23
683.119	19.72
683.305	19.63
683.491	19.82
683.677	20.55
683.863	20.1
684.049	20.5
684.235	20.5
684.42	20.24
684.606	19.83
684.792	20.23
684.978	20.67
685.164	20.3
685.349	20.18
685.535	20.62
685.721	20.33
685.907	20.89
686.092	20.71
686.278	19.82
686.464	20.43
686.649	20.48
686.835	20.19
687.021	20.62
687.206	20.57
687.392	21.15
687.577	20.74
687.763	21.35
687.948	21.13
688.134	21.07
688.319	21.67
688.505	21.3
688.69	21.63
688.876	21.77
689.061	20.83
689.247	21.19
689.432	20.3
689.618	19.76
689.803	19.48
689.988	19.64
690.174	19.98
690.359	19.45
690.544	19.67
690.73	19.56
690.915	19.74
691.1	20.1
691.285	19.91
691.471	20.35
691.656	20.95
691.841	21.34
692.026	21.11
692.211	20.1
692.396	20.22
692.582	20.31
692.767	20.61
692.952	20.72
693.137	21.49
693.322	21.74
693.507	22.1
693.692	21.98
693.877	21.88
694.062	22.19
694.247	22.93
694.432	23.14
694.617	22.75
694.802	22.23
694.987	21.97
695.172	21.38
695.357	21.29
695.541	20.94
695.726	20.9
695.911	20.43
696.096	20.53
696.281	19.29
696.466	19.1
696.65	19
696.835	19.56
697.02	19.12
697.204	19.29
697.389	19.14
697.574	18.93
697.759	18.78
697.943	18.83
698.128	19.07
698.312	19.63
698.497	20.18
698.682	20.11
698.866	20.01
699.051	20.36
699.235	20.3
699.42	20.92
699.604	21.13
699.789	21.12
699.973	21.26
700.158	21.12
700.342	20.87
700.527	20.95
700.711	21.31
700.895	20.99
701.08	21.17
701.264	21.53
701.448	20.7
701.633	20.94
701.817	21.46
702.001	20.72
702.186	20.45
702.37	20.96
702.554	20.24
702.738	19.28
702.923	19.84
703.107	19.11
703.291	18.05
703.475	18
703.659	17.91
703.843	17.71
704.027	18.64
704.212	18.28
704.396	19.19
704.58	19.18
704.764	20.14
704.948	19.29
705.132	19.91
705.316	21.01
705.5	21.92
705.684	21.9
705.868	22.41
706.052	22.19
706.235	22.23
706.419	21.73
706.603	21.87
706.787	21.68
706.971	22.18
707.155	21.53
707.339	19.95
707.522	18.95
707.706	19.36
707.89	18.47
708.074	18.36
708.257	17.65
708.441	18.3
708.625	18.39
708.808	18.19
708.992	18.49
709.176	19.14
709.359	19.51
709.543	19.91
709.727	19.48
709.91	20.36
710.094	20.45
710.277	21.36
710.461	21.15
710.644	21.26
710.828	21.19
711.011	21.07
711.195	20.33
711.378	20.73
711.562	20.8
711.745	20.27
711.928	18.68
712.112	18.1
712.295	17.97
712.478	17.71
712.662	17.93
712.845	18.85
713.028	19.21
713.212	20.07
713.395	20
713.578	19.95
713.761	20.09
713.945	21.67
714.128	21.75
714.311	21.66
714.494	21.66
714.677	21.47
714.86	20.87
715.043	20.03
715.227	20.5
715.41	21.3
715.593	20.97
715.776	21.49
715.959	21.35
716.142	22.03
716.325	22.22
716.508	22.54
716.691	22.99
716.874	23.13
717.057	23.18
717.239	22.72
717.422	21.7
717.605	21.79
717.788	20.88
717.971	20.32
718.154	20.65
718.337	20.51
718.519	19.71
718.702	19.66
718.885	19.18
719.068	19.32
719.25	19.59
719.433	19.91
719.616	21.79
719.798	23.12
719.981	23.19
720.164	22.72
720.346	23.31
720.529	24.31
720.712	23.76
720.894	24.11
721.077	24.14
721.259	23.59
721.442	23.33
721.624	21.63
721.807	20.32
721.989	20.02
722.172	20.57
722.354	20.05
722.537	18.95
722.719	19.03
722.901	18.75
723.084	18.97
723.266	18.74
723.448	18.92
723.631	18.45
723.813	18.44
723.995	18.96
724.178	18.06
724.36	18.49
724.542	18.47
724.724	18.55
724.907	18.29
725.089	17.86
725.271	19.13
725.453	20.32
725.635	21.37
725.817	22.8
725.999	22.4
726.181	23.55
726.364	23.26
726.546	23.05
726.728	22.76
726.91	24.47
727.092	24.64
727.274	22.98
727.456	22.07
727.638	20.99
727.819	19.64
728.001	19.86
728.183	18.9
728.365	19.12
728.547	19.25
728.729	19.24
728.911	18.5
729.093	17.66
729.274	17.68
729.456	17.4
729.638	18.14
729.82	18.24
730.001	17.66
730.183	18.68
730.365	18.41
730.546	18.84
730.728	19.14
730.91	18.34
731.091	19.54
731.273	19.92
731.455	20.31
731.636	20.57
731.818	21.28
731.999	20.93
732.181	19.85
732.362	20.48
732.544	20.81
732.725	20.47
732.907	21.2
733.088	20.37
733.27	20.07
733.451	19.6
733.633	19.14
733.814	18.72
733.995	19.13
734.177	18.63
734.358	17.83
734.539	17.85
734.721	17.47
734.902	17.32
735.083	17.03
735.264	16.65
735.446	16.81
735.627	16.2
735.808	15.67
735.989	16.8
736.17	17.48
736.351	17.41
736.533	16.71
736.714	17
736.895	15.37
737.076	16.84
737.257	18.17
737.438	19.09
737.619	19.07
737.8	20.25
737.981	20.32
738.162	20.82
738.343	21.08
738.524	21.75
738.705	22.1
738.886	23.49
739.067	23.16
739.247	22.54
739.428	20.98
739.609	20.26
739.79	19.53
739.971	18.34
740.151	18.06
740.332	17.63
740.513	17.45
740.694	16.73
740.874	17.33
741.055	17.09
741.236	17.68
741.417	18.74
741.597	20.5
741.778	19.94
741.958	21.47
742.139	20.71
742.32	21.69
742.5	20.51
742.681	20.86
742.861	20.2
743.042	19.88
743.222	19.46
743.403	19.34
743.583	17.76
743.764	18.26
743.944	17.55
744.124	16.93
744.305	15.55
744.485	15.78
744.666	16.75
744.846	16.54
745.026	18.21
745.207	17.62
745.387	17.21
745.567	17.86
745.747	16.47
745.928	15.17
746.108	15.97
746.288	17.24
746.468	19.43
746.648	18.54
746.829	19.41
747.009	18.52
747.189	18.17
747.369	19.4
747.549	20.03
747.729	20.62
747.909	22.56
748.089	22.9
748.269	23.32
748.449	22.1
748.629	21.72
748.809	20.03
748.989	19.48
749.169	20.54
749.349	19.37
749.529	18.33
749.709	19.99
749.889	19.85
750.068	19.72
750.248	18.34
750.428	17.06
750.608	17.08
750.788	17.37
750.967	17.61
751.147	18.23
751.327	18.01
751.507	18.18
751.686	17.61
751.866	16.61
752.046	16.61
752.225	17.4
752.405	16.99
752.585	17.55
752.764	19.04
752.944	19.21
753.123	18.14
753.303	18.93
753.482	19.27
753.662	19.84
753.841	18.84
754.021	18.16
754.2	17.96
754.38	18.36
754.559	18.08
754.739	17.13
754.918	16.09
755.097	16.43
755.277	15.29
755.456	14.74
755.635	13.39
755.815	14.83
755.994	15.75
756.173	14.22
756.352	14.3
756.532	13.93
756.711	14.54
756.89	14.89
757.069	15.42
757.248	16.03
757.427	17.09
757.607	17.85
757.786	17.37
757.965	17.58
758.144	19.36
758.323	20.61
758.502	21.38
758.681	19.94
758.86	21.02
759.039	21.63
759.218	22.59
759.397	21.64
759.576	21.78
759.755	21.92
759.934	22.03
760.113	20.85
760.291	20.16
760.47	20
760.649	20.75
760.828	19.81
761.007	18.4
761.186	17.5
761.364	18.71
761.543	19.06
761.722	19.15
761.901	19.94
762.079	20.11
762.258	20.53
762.437	22.53
762.615	22.41
762.794	22.7
762.972	22.97
763.151	23.19
763.33	22.97
763.508	22.62
763.687	22.53
763.865	21.21
764.044	21.58
764.222	21.46
764.401	19.13
764.579	19.54
764.758	18.84
764.936	18.35
765.114	18.12
765.293	17.82
765.471	16.85
765.65	17.49
765.828	18.45
766.006	19.13
766.184	19.01
766.363	20.21
766.541	20.32
766.719	21.79
766.898	23.84
767.076	23.68
767.254	23.34
767.432	23.6
767.61	23.19
767.788	23.44
767.967	22.01
768.145	22.45
768.323	22.11
768.501	21.67
768.679	20.42
768.857	17.94
769.035	17.66
769.213	17.18
769.391	16.37
769.569	16.24
769.747	16.86
769.925	16.78
770.103	16.19
770.281	15.58
770.459	16.14
770.636	17.39
770.814	16.3
770.992	17.56
771.17	18.04
771.348	19.66
771.525	18.06
771.703	15.74
771.881	16.45
772.059	17.4
772.236	18.73
772.414	16.82
772.592	16.53
772.769	19.13
772.947	19.17
773.125	19.17
773.302	19.93
773.48	21.82
773.657	23
773.835	23.19
774.013	21.81
774.19	25.49
774.368	26.3
774.545	26.08
774.723	26.73
774.9	26.56
775.077	26.72
775.255	26.78
775.432	26.08
775.61	24.31
775.787	23.26
775.964	23.66
776.142	19
776.319	18
776.496	19.83
776.674	18.23
776.851	16.48
777.028	15
777.205	13.64
777.382	12.59
777.56	13.89
777.737	15.69
777.914	15.45
778.091	15.17
778.268	17.12
778.445	14.52
778.622	10.31
778.8	11.63
778.977	12.68
779.154	12.23
779.331	12.99
779.508	12.91
779.685	11.35
779.862	9.53
780.038	7.23
780.215	6.58
780.392	6.63
780.569	11.54
780.746	10.72
780.923	11.78
781.1	11.16
781.277	12.79
781.453	12.11
781.63	13.87
781.807	16.08
781.984	17.71
782.16	17.44
782.337	16.28
782.514	13.64
782.691	16.53
782.867	16.36
783.044	18.64
783.221	17.19
783.397	16.28
783.574	13.57
783.75	14.97
783.927	16.11
784.103	13.68
784.28	13.43
784.456	16.73
784.633	16.35
784.809	17.05
784.986	17.67
785.162	16.93
785.339	20.27
785.515	22.06
785.692	19.43
785.868	19.48
786.044	22.09
786.221	21.87
786.397	18.67
786.573	16.25
786.749	13.94
786.926	12.12
787.102	12.62
787.278	10.28
787.454	8.59
787.631	10.18
787.807	13.14
787.983	11.72
788.159	13.77
788.335	13.95
788.511	12.85
788.687	15.13
788.863	17.68
789.039	19.91
789.216	20.51
789.392	22.29
789.568	21.8
789.744	20.27
789.919	21.99
790.095	21.13
790.271	24.03
790.447	25.03
790.623	22.96
790.799	19.86
790.975	18.52
791.151	17.05
791.327	16.62
791.502	18.5
791.678	18.79
791.854	18.27
792.03	17.63
792.205	16.75
792.381	18.85
792.557	21.54
792.733	23.89
792.908	23.81
793.084	22.7
793.259	21.01
793.435	17.47
793.611	15.93
793.786	17.51
793.962	18.34
794.137	20.01
794.313	18.99
794.488	18.34
794.664	14.85
794.839	13.85
795.015	16.46
795.19	19.59
795.366	18.94
795.541	18.39
795.716	15.09
795.892	16.93
796.067	14.52
796.242	14.29
796.418	12.62
796.593	13.92
796.768	11.88
796.944	12.85
797.119	12.38
797.294	17.24
797.469	15.82
797.644	15.82
797.82	14.8
797.995	15.83
798.17	18.59
798.345	20.51
798.52	23.7
798.695	24.51
798.87	21.86
799.045	21.51
799.22	17.11
799.395	17.88
799.57	24.59
799.745	28.02
799.92	27.67
800.095	24.41
800.27	23.39
800.445	20.14
800.62	23.36
800.795	24.46
800.97	24.62
801.145	26.55
801.319	23.06
801.494	15.53
801.669	13.98
801.844	13.11
802.018	17.15
802.193	16.58
802.368	15.58
802.543	10.19
802.717	11.93
802.892	9.89
803.067	8.02
803.241	13.87
803.416	13.35
803.59	12.44
803.765	14.05
803.94	13.22
804.114	11.47
804.289	15.4
804.463	18.62
804.638	16.42
804.812	16.86
804.986	16.94
805.161	14.88
805.335	12.62
805.51	7.28
805.684	5.42
805.858	1.07
806.033	1.64
806.207	0.97
806.381	5.15
806.556	4.16
806.73	3.03
806.904	6.35
807.078	6
807.253	8.23
807.427	8.4
807.601	4.65
807.775	3.39
807.949	4.2
808.123	-1.02
808.298	-4.84
808.472	-6.32
808.646	-1.78
808.82	-6.13
808.994	-4.26
809.168	-2.45
809.342	-1.1
809.516	7.28
809.69	8.24
809.864	9.79
810.038	16.01
810.212	15.19
810.385	15.88
810.559	15.9
810.733	10.14
810.907	8.28
811.081	8.91
811.255	12.59
811.428	13.1
811.602	16.8
811.776	14.83
811.95	13.84
812.123	11.38
812.297	15.33
812.471	11.43
812.644	15.95
812.818	12.86
812.992	12.85
813.165	7.72
813.339	4.87
813.512	9.9
813.686	13.33
813.86	6.17
814.033	4.41
814.207	1.68
814.38	-0.06
814.554	1.6
814.727	5.49
814.9	-3.55
815.074	-8.31
815.247	-13.91
815.421	-23.96
815.594	-26.31
815.767	-16.05
815.941	-11.36
816.114	-4.72
816.287	-4.7
816.46	-3.28
816.634	-9.32
816.807	-3.6
816.98	0.38
817.153	7.29
817.327	5.93
817.5	9.07
817.673	9.5
817.846	9.35
818.019	6.7
818.192	12.25
818.365	14.46
818.538	18.26
818.711	19.02
818.884	15.44
819.057	12.65
819.23	13.14
819.403	9.71
819.576	7.12
819.749	6.39
819.922	5.65
820.095	3.18
820.268	5.07
820.441	6.2
820.614	9.32
820.786	12.57
820.959	14.4
821.132	15.77
821.305	18.01
821.477	19.12
821.65	21.06
821.823	22.33
821.996	22.11
822.168	22.17
822.341	22.28
822.514	22.25
822.686	22.86
822.859	22.97
823.031	22.56
823.204	22.31
823.376	22.48
823.549	21.9
823.722	20.95
823.894	21.33
824.067	21.33
824.239	21.08
824.411	20.84
824.584	19.95
824.756	18.85
824.929	19.17
825.101	19.18
825.273	18.86
825.446	19.35
825.618	20.82
825.79	21.85
825.963	22.45
826.135	22.62
826.307	22.24
826.479	21.77
826.652	22.53
826.824	21.72
826.996	21.5
827.168	19.78
827.34	19.59
827.512	19.53
827.684	17.67
827.856	18.11
828.029	18.83
828.201	18.7
828.373	20.38
828.545	20.41
828.717	20.82
828.889	22.07
829.061	23.5
829.232	22.1
829.404	22.18
829.576	25.26
829.748	23.98
829.92	25.75
830.092	28.23
830.264	27.91
830.436	28.72
830.607	29.1
830.779	28.03
830.951	28.73
831.123	30.39
831.294	29.29
831.466	24.46
831.638	22.67
831.809	17.51
831.981	12.46
832.153	6.74
832.324	9.11
832.496	13.27
832.667	9.05
832.839	11.7
833.011	15.25
833.182	16.27
833.354	18.54
833.525	20.13
833.697	21.94
833.868	22.08
834.039	24.47
834.211	18.99
834.382	17.94
834.554	19.21
834.725	16.38
834.896	9.72
835.068	8.7
835.239	8.29
835.41	6.7
835.581	5.87
835.753	6.25
835.924	2.1
836.095	3.23
836.266	2.53
836.438	3.92
836.609	8.32
836.78	13.62
836.951	11.02
837.122	10.47
837.293	12.41
837.464	7.11
837.635	7.47
837.806	13.74
837.977	18.52
838.148	18.06
838.319	16.48
838.49	6.41
838.661	8.91
838.832	12.56
839.003	9.62
839.174	4.68
839.345	8.94
839.516	12.59
839.687	8.47
839.857	3.42
840.028	4.61
840.199	5.12
840.37	27.54
840.54	24.53
840.711	23.97
840.882	24.26
841.053	30.48
841.223	32.92
841.394	29.46
841.564	34.92
841.735	32.24
841.906	37.54
842.076	37.63
842.247	24.34
842.417	30.45
842.588	35.17
842.758	41.61
842.929	31.71
843.099	30.76
843.27	33.94
843.44	28.79
843.611	19.55
843.781	15.6
843.951	9.57
844.122	7.41
844.292	-6.76
844.462	-14.09
844.633	-29.45
844.803	-8.28
844.973	4.61
845.144	5.72
845.314	4.59
845.484	25.2
845.654	9.9
845.824	13.39
845.995	15.43
846.165	-2.17
846.335	-22.71
846.505	-18.93
846.675	-19.44
846.845	-38.85
847.015	-55.81
847.185	-46.24
847.355	-80.96
847.525	-30.15
847.695	-37.31
847.865	-66.04
848.035	-55.57
848.205	-17.66
848.375	-9.96
848.545	-24.82
848.715	-59.12
848.884	-54.65
849.054	-16.13
849.224	-4.2
849.394	-44.35
849.564	-10.84
849.733	-6.43
849.903	35.63
850.073	13.31
850.243	7.4
850.412	-0.71
850.582	-26.76
850.752	-29.79
850.921	-38.65
851.091	-37.59
851.26	-24.24
851.43	-40.64
851.599	-32.08
851.769	-50.21
851.939	-54.44
852.108	-95.07
852.278	-123.59
852.447	-70.56
852.616	-85.06
852.786	-121.53
852.955	-108.88
853.125	-108.16
853.294	-153.02
853.463	-143.59
853.633	-168.79
853.802	-185.3
853.971	-105.27
854.141	-146.47
854.31	-79.07
854.479	-51.73
854.648	-38.52
854.818	-48.98
854.987	-34.73
855.156	-7.55
855.325	-7.31
855.494	1.09
855.663	-4.07
855.832	-11.93
856.001	4.38
856.171	-42.52
856.34	-78.94
856.509	-102.43
856.678	-132.74
856.847	-296.19
857.016	-175.49
857.185	-599.64
857.353	-202.52
857.522	-98.48
857.691	-39.28
857.86	-42.39
858.029	-36.77
858.198	-32.4
858.367	-12.31
858.535	8.84
858.704	25.71
858.873	24.83
859.042	18.38
859.21	13.89
859.379	11.72
859.548	5.52
859.717	29.62
859.885	42.98
860.054	31.77
860.222	27.58
860.391	39.66
860.56	28.7
860.728	45.16
860.897	49.03
861.065	33.45
861.234	22.08
861.402	35.91
861.571	17.62
861.739	-20.48
861.908	-17.24
862.076	-48.03
862.244	-220.16
862.413	-71.91
862.581	-73.33
862.749	-116.05
862.918	-77.04
863.086	-53.88
863.254	-106.39
863.423	-94.07
863.591	-74.24
863.759	-34.65
863.927	5.27
864.096	37.64
864.264	-17.6
864.432	-24.07
864.6	14.59
864.768	-3.12
864.936	-13.47
865.104	6.06
865.272	-8.83
865.44	-10.31
865.608	-25.23
865.776	-27.84
865.944	-31.74
866.112	-23.66
866.28	-35.47
866.448	-51.6
866.616	-33.27
866.784	-37.31
866.952	-22.63
867.12	-2.2
867.288	-4.51
867.455	7.02
867.623	8.81
867.791	-0.84
867.959	-3.67
868.127	-25.98
868.294	-28.42
868.462	-61.34
868.63	-112.41
868.797	-96.43
868.965	-200.67
869.133	-124.76
869.3	-74.13
869.468	-166.26
869.636	-290.19
869.803	-130.96
869.971	-3.92
870.138	-41.19
870.306	-10.41
870.473	3.62
870.641	34.26
870.808	42.15
870.975	180.6
871.143	51.94
871.31	-39.47
871.478	457.52
871.645	101.63
871.812	19.16
871.98	17.49
872.147	60.85
872.314	78.12
872.482	43.42
872.649	28.98
872.816	7
872.983	8.56
873.15	-1.03
873.318	0.73
873.485	-11.88
873.652	-19.17
873.819	-1.81
873.986	-10.47
874.153	-5.05
874.32	2.69
874.487	-9.92
874.654	-32.08
874.821	-28.51
874.988	-45.56
875.155	-103.92
875.322	-50.72
875.489	-70.29
875.656	-79.02
875.823	-98.95
875.99	-180.2
876.157	422.78
876.324	324.53
876.49	1295.65
876.657	389.6
876.824	18.51
876.991	31.28
877.157	-99.68
877.324	-43.65
877.491	-42.23
877.658	-45.13
877.824	-65.69
877.991	-23.28
878.157	-21.15
878.324	-2.8
878.491	-5.44
878.657	2.72
878.824	-22.12
878.99	4.14
879.157	-23.56
879.323	-12.27
879.49	-157.64
879.656	-1162.25
879.823	381.53
879.989	-1583.39
880.156	450.23
880.322	432.31
880.488	-1097.25
880.655	-252.83
880.821	-57.48
880.987	-16.06
881.154	-10.52
881.32	-1.62
881.486	17.94
881.652	24.73
881.819	24.62
881.985	28.82
882.151	24.95
882.317	22.7
882.483	27.12
882.649	24.17
882.816	24.27
882.982	21.08
883.148	23.76
883.314	21.78
883.48	22.17
883.646	24.09
883.812	25.68
883.978	21.91
884.144	21.41
884.31	20.67
884.476	20.2
884.642	22.12
884.807	22.11
884.973	20.06
885.139	15.87
885.305	18.45
885.471	16.3
885.637	14.95
885.802	25.82
885.968	28.74
886.134	27.57
886.3	28.07
886.465	26.42
886.631	30.42
886.797	27.93
886.962	32.17
887.128	27.27
887.293	30.19
887.459	24.48
887.625	9.14
887.79	2.05
887.956	11.09
888.121	10.29
888.287	9.04
888.452	10.86
888.618	24.16
888.783	32.45
