Data from 2937819_Reflection_1.txt Node
Date: Wed Jul 15 17:24:13 EDT 2015
User: robert
Spectrometer: USB4E03001
Autoset integration time: false
Trigger mode: 4
Integration Time (sec): 1.000000E-1
Scans to average: 10
Electric dark correction enabled: true
Nonlinearity correction enabled: false
Boxcar width: 5
Stray light correction enabled: false
XAxis mode: Wavelengths
Stop averaging: false
Number of Pixels in Spectrum: 3648
>>>>>Begin Spectral Data<<<<<
177.566	81.17
177.785	88.87
178.005	187.67
178.225	219.12
178.445	496.62
178.665	-138.2
178.885	254.21
179.105	215.71
179.324	283.59
179.544	139.94
179.764	99.84
179.984	103.19
180.204	161.64
180.423	737.38
180.643	303.04
180.863	216.18
181.083	828.33
181.302	221.59
181.522	170.83
181.742	206.22
181.961	112.65
182.181	177.96
182.401	84.43
182.621	49.76
182.84	58.46
183.06	77.77
183.279	103.06
183.499	114.64
183.719	152.11
183.938	396.69
184.158	203.98
184.377	346.6
184.597	247.58
184.816	344.99
185.036	-695.5
185.256	-24.08
185.475	15.36
185.695	18.57
185.914	-33.85
186.134	-35.53
186.353	-58.67
186.572	-70.47
186.792	-66.12
187.011	-83.58
187.231	-102.75
187.45	-1252.17
187.67	3160.32
187.889	272.06
188.108	240.69
188.328	193.23
188.547	155.96
188.766	140.74
188.986	154.74
189.205	116.97
189.424	126.63
189.644	141.92
189.863	249.26
190.082	318.97
190.302	-5513.7
190.521	316.87
190.74	141.07
190.959	201.64
191.178	63.58
191.398	48.83
191.617	-155.95
191.836	64.14
192.055	158.5
192.274	-706.18
192.494	-2.52
192.713	11.39
192.932	164.94
193.151	108.12
193.37	201.51
193.589	642.86
193.808	-600.82
194.027	-7.86
194.246	32.24
194.465	930.59
194.685	260.92
194.904	768.3
195.123	-969.38
195.342	-745.54
195.561	495.02
195.78	-21.68
195.999	-9.24
196.218	297.22
196.436	-2168.18
196.655	-1169.79
196.874	-82.89
197.093	-696.2
197.312	24.41
197.531	10.18
197.75	2.1
197.969	57.89
198.188	93.05
198.407	75.25
198.625	94.3
198.844	131.4
199.063	140.09
199.282	361.89
199.501	306.33
199.719	130.45
199.938	436.14
200.157	255.1
200.376	685.66
200.594	162.46
200.813	373.23
201.032	522.77
201.251	3531.03
201.469	-237.85
201.688	1353.42
201.907	-458.42
202.125	-40.96
202.344	-30.52
202.563	-5.41
202.781	-23.01
203	-5.7
203.218	63.72
203.437	94.76
203.656	80.97
203.874	96.84
204.093	68.83
204.311	38.76
204.53	-100.86
204.748	-76.34
204.967	-221.19
205.185	199.84
205.404	-197.15
205.622	-124.01
205.841	-136.94
206.059	-6508.08
206.278	726.54
206.496	579.55
206.715	-698.91
206.933	-5264.38
207.151	381.13
207.37	-847.85
207.588	-153.09
207.806	-504.82
208.025	-644.8
208.243	14.97
208.461	-127.14
208.68	-691.15
208.898	495.88
209.116	3595.07
209.335	921.3
209.553	443.68
209.771	1179.43
209.989	-868.33
210.208	-1348.09
210.426	-372.32
210.644	6756.16
210.862	1061.17
211.081	175.31
211.299	22.69
211.517	97.37
211.735	353.49
211.953	98.05
212.171	68.81
212.39	48.48
212.608	182.82
212.826	230.83
213.044	27.79
213.262	67.78
213.48	28.05
213.698	-7.27
213.916	-130.11
214.134	-138.16
214.352	-69.58
214.57	-3.17
214.788	-10.36
215.006	-22.66
215.224	-55.3
215.442	-22.56
215.66	10.7
215.878	-10.89
216.096	-9.41
216.314	-36.81
216.532	-24.1
216.75	-7.95
216.968	-62.83
217.185	-12.65
217.403	23.01
217.621	54.69
217.839	-6.31
218.057	-304.92
218.275	843.14
218.492	134.63
218.71	60.59
218.928	-270.49
219.146	789.84
219.363	143.16
219.581	37.39
219.799	-12.61
220.017	-30.7
220.234	-128.59
220.452	-88.81
220.67	-1.81
220.887	33.81
221.105	34.26
221.323	-43.97
221.54	2267.55
221.758	138.46
221.976	136.76
222.193	66.36
222.411	11.64
222.629	-103.9
222.846	-247.63
223.064	25.5
223.281	-113.43
223.499	22.11
223.716	46.09
223.934	61.02
224.151	34.85
224.369	34.58
224.586	42.36
224.804	27.89
225.021	39.12
225.239	21.83
225.456	15.81
225.674	20.49
225.891	22.19
226.108	14.02
226.326	4.23
226.543	21.98
226.76	26.83
226.978	20.57
227.195	18
227.413	13.45
227.63	18.67
227.847	16.61
228.064	19.03
228.282	15.53
228.499	16.05
228.716	17.17
228.934	12.73
229.151	13.05
229.368	14.68
229.585	19.86
229.802	23.13
230.02	25.37
230.237	26.29
230.454	22.62
230.671	26.45
230.888	29.23
231.105	33.31
231.323	36.21
231.54	37.19
231.757	38.73
231.974	32.56
232.191	27.65
232.408	25.02
232.625	27.59
232.842	31.64
233.059	25.27
233.276	25.62
233.493	28.5
233.71	28.43
233.927	20.56
234.144	17.45
234.361	21.98
234.578	21.48
234.795	18.26
235.012	12.55
235.229	18.87
235.446	20.99
235.663	13.96
235.879	11.28
236.096	9.71
236.313	13.33
236.53	13.89
236.747	11.72
236.964	13.59
237.181	20.96
237.397	19.38
237.614	19.52
237.831	12.85
238.048	13.42
238.264	18.18
238.481	19.46
238.698	21.68
238.915	21.32
239.131	23.22
239.348	27.82
239.565	21.1
239.781	24.75
239.998	19.51
240.215	24.35
240.431	26.81
240.648	22.04
240.865	22.71
241.081	21.25
241.298	21.12
241.514	22.18
241.731	21.02
241.947	22.56
242.164	23.09
242.38	22.89
242.597	23.64
242.814	22.67
243.03	21.2
243.246	21.79
243.463	20.04
243.679	21.13
243.896	22.26
244.112	22.03
244.329	19.71
244.545	18.31
244.762	17.42
244.978	16.44
245.194	16.52
245.411	16.74
245.627	17.38
245.843	19.62
246.06	18.8
246.276	18.25
246.492	17.4
246.709	18.26
246.925	17.33
247.141	18.32
247.357	16.81
247.574	16.37
247.79	16.45
248.006	15.47
248.222	14.33
248.439	14.02
248.655	12.6
248.871	12.91
249.087	12.23
249.303	12.08
249.519	12.91
249.736	13.98
249.952	13.38
250.168	14.1
250.384	12.91
250.6	14.23
250.816	13.37
251.032	14.98
251.248	14.7
251.464	13.64
251.68	17.09
251.896	14.35
252.112	13.45
252.328	14.32
252.544	12.27
252.76	12.61
252.976	15.1
253.192	14.65
253.408	15.02
253.624	14.05
253.84	18.07
254.056	14.36
254.272	15.96
254.487	16.79
254.703	14.25
254.919	17.05
255.135	18.33
255.351	14.03
255.567	13.73
255.782	13.77
255.998	17.39
256.214	14.27
256.43	17.34
256.646	16.24
256.861	14.15
257.077	16.56
257.293	14.13
257.508	14.5
257.724	13.68
257.94	15.09
258.155	13.14
258.371	11.08
258.587	10.65
258.802	9.08
259.018	9.09
259.234	10.49
259.449	10.06
259.665	10.31
259.88	10.15
260.096	11.26
260.312	11.4
260.527	11.52
260.743	12.04
260.958	11.64
261.174	12.09
261.389	12.87
261.605	12.6
261.82	12.06
262.036	12.6
262.251	12.83
262.466	12.44
262.682	13.14
262.897	13.66
263.113	13.79
263.328	15.78
263.543	16.7
263.759	15
263.974	15.48
264.189	16.87
264.405	17.76
264.62	17.58
264.835	17.33
265.051	14.62
265.266	12.09
265.481	11.43
265.696	10.26
265.912	9.77
266.127	9.17
266.342	8.28
266.557	7.79
266.773	5.82
266.988	4.93
267.203	2.47
267.418	4.23
267.633	4.96
267.848	4.29
268.064	3.93
268.279	3.59
268.494	3.29
268.709	3.02
268.924	2.84
269.139	4.33
269.354	5.86
269.569	7.46
269.784	5.08
269.999	6.97
270.214	7.94
270.429	8.16
270.644	8.94
270.859	9.7
271.074	9.52
271.289	10.64
271.504	10.25
271.719	9.95
271.934	9.74
272.149	11.63
272.363	11.43
272.578	11.79
272.793	12.02
273.008	11.1
273.223	10.89
273.438	11.24
273.653	11.5
273.867	10.77
274.082	9.69
274.297	9.19
274.512	8.72
274.726	7.82
274.941	6.39
275.156	7.27
275.371	7.87
275.585	7.77
275.8	9.02
276.015	8.55
276.229	10.37
276.444	11.56
276.659	12.63
276.873	11.04
277.088	11.22
277.302	11.24
277.517	8.8
277.732	6.97
277.946	6.84
278.161	5.68
278.375	6.82
278.59	5.96
278.804	5.51
279.019	4.97
279.233	4.42
279.448	4.53
279.662	5.74
279.877	7.93
280.091	9.62
280.306	9.52
280.52	10.33
280.735	8.83
280.949	10.98
281.163	11.58
281.378	13.15
281.592	16.23
281.806	17.16
282.021	17.77
282.235	16.57
282.449	17.12
282.664	17.75
282.878	17.52
283.092	18.05
283.307	16.4
283.521	17.19
283.735	18.45
283.949	16.12
284.164	14.02
284.378	12.3
284.592	12.64
284.806	11.88
285.02	11.7
285.234	11.41
285.449	10.94
285.663	11.65
285.877	11.14
286.091	10.07
286.305	11
286.519	11.4
286.733	11.71
286.947	11.93
287.161	11.71
287.375	11.88
287.589	12.03
287.803	12.87
288.017	12.56
288.231	11.14
288.445	10.67
288.659	10.84
288.873	10.83
289.087	10.43
289.301	10.66
289.515	11.4
289.729	11.41
289.943	12.03
290.157	11.98
290.371	11.37
290.584	12.56
290.798	12.61
291.012	12.38
291.226	12.49
291.44	12.26
291.654	13
291.867	12.44
292.081	13.94
292.295	13.56
292.509	12.08
292.722	13.61
292.936	12.22
293.15	12.91
293.364	12.31
293.577	13.33
293.791	14.83
294.005	14.52
294.218	14.39
294.432	11.17
294.645	10.72
294.859	12.21
295.073	10.58
295.286	12.5
295.5	13.23
295.713	14.16
295.927	14.6
296.14	14.37
296.354	14.23
296.568	15.76
296.781	16.22
296.994	16.55
297.208	16.43
297.421	17.55
297.635	16.61
297.848	15.89
298.062	15.68
298.275	15.37
298.489	14.52
298.702	14.33
298.915	12.75
299.129	13.53
299.342	14.13
299.555	15.32
299.769	14.71
299.982	13.27
300.195	13.09
300.409	12.5
300.622	14.13
300.835	14.3
301.048	14.47
301.262	14.88
301.475	14.55
301.688	14.04
301.901	12.52
302.115	12.17
302.328	13.81
302.541	13.68
302.754	13.38
302.967	11.39
303.18	12.18
303.393	12.04
303.607	13.91
303.82	14.44
304.033	13.81
304.246	13.61
304.459	14.58
304.672	15.05
304.885	15.09
305.098	16.38
305.311	16.66
305.524	17.79
305.737	18.95
305.95	17.18
306.163	17.85
306.376	17.21
306.589	16.34
306.802	15.74
307.015	15.44
307.228	15.3
307.44	15.16
307.653	14.51
307.866	13.95
308.079	12.45
308.292	12.96
308.505	12.65
308.718	12.69
308.93	13.75
309.143	14.37
309.356	14.13
309.569	13.64
309.781	12.58
309.994	12.79
310.207	12.47
310.42	12.12
310.632	10.76
310.845	10.32
311.058	11.39
311.27	10.89
311.483	10.39
311.696	10.64
311.908	11.1
312.121	11.53
312.333	10.52
312.546	11
312.759	10.09
312.971	9.77
313.184	9.85
313.396	9.68
313.609	9.4
313.821	9.97
314.034	9.77
314.246	10.05
314.459	9.12
314.671	11.86
314.884	10.65
315.096	11.57
315.309	13.1
315.521	12.04
315.733	11.68
315.946	10.64
316.158	10.71
316.371	11.53
316.583	11.18
316.795	12.08
317.008	10.55
317.22	10.16
317.432	11.62
317.644	12.47
317.857	12.41
318.069	12.35
318.281	14.99
318.494	15.56
318.706	14.81
318.918	15.21
319.13	14.38
319.342	14.19
319.555	16.73
319.767	15.33
319.979	14.88
320.191	14.44
320.403	13.96
320.615	12.94
320.827	9.86
321.039	10.71
321.252	10.78
321.464	12.12
321.676	12.48
321.888	10.15
322.1	11.36
322.312	10.33
322.524	10.8
322.736	10.8
322.948	10.83
323.16	13.2
323.372	13.45
323.584	13.42
323.796	12.32
324.007	13.82
324.219	14.19
324.431	13.96
324.643	14.73
324.855	14.76
325.067	14.31
325.279	14.65
325.491	14.21
325.702	13.87
325.914	14.07
326.126	14.38
326.338	12.42
326.55	12.81
326.761	12.5
326.973	13.12
327.185	14.33
327.396	14.88
327.608	12.79
327.82	11.64
328.032	12.2
328.243	12.88
328.455	12.67
328.666	13.08
328.878	13.64
329.09	14.63
329.301	13.81
329.513	11.9
329.725	10.2
329.936	13.62
330.148	14
330.359	13.31
330.571	12.67
330.782	13.12
330.994	13.9
331.205	12.45
331.417	11.79
331.628	12.63
331.84	13.73
332.051	15.99
332.262	13.92
332.474	13.91
332.685	14.75
332.897	14.79
333.108	14.57
333.319	13.86
333.531	13.94
333.742	13.95
333.953	13.43
334.165	15.18
334.376	15.7
334.587	17.11
334.799	17.63
335.01	16
335.221	14.58
335.432	14.29
335.644	14.76
335.855	14.3
336.066	14.59
336.277	14.62
336.488	13.05
336.7	11.38
336.911	11.02
337.122	11.6
337.333	13.1
337.544	13.71
337.755	14.17
337.966	14.11
338.177	15.65
338.388	15.77
338.599	15.83
338.811	15.33
339.022	17.58
339.233	17.34
339.444	17.3
339.655	17.13
339.866	16.46
340.076	16.62
340.287	17.38
340.498	15.95
340.709	15.93
340.92	16.62
341.131	17.84
341.342	16.96
341.553	18.74
341.764	18.24
341.975	16.37
342.185	17.47
342.396	17.94
342.607	17.59
342.818	18.43
343.029	18.19
343.239	17.25
343.45	16.73
343.661	16.87
343.872	15.14
344.082	14.62
344.293	14.66
344.504	14.31
344.714	12.83
344.925	13.43
345.136	13.07
345.346	12.97
345.557	13.08
345.768	12.77
345.978	12.22
346.189	13.08
346.399	13.17
346.61	13.77
346.821	13.25
347.031	14.45
347.242	14.38
347.452	14.93
347.663	14.72
347.873	14.81
348.084	13.91
348.294	13.42
348.504	12.86
348.715	12.87
348.925	13.33
349.136	14.16
349.346	13.86
349.557	13.02
349.767	12.15
349.977	13.4
350.188	12.58
350.398	13.72
350.608	13.25
350.819	12.19
351.029	12.04
351.239	12.11
351.449	11.58
351.66	11.85
351.87	10.69
352.08	9.96
352.29	8
352.501	7.21
352.711	8.48
352.921	9
353.131	9.83
353.341	9.89
353.552	9.42
353.762	8.62
353.972	8.69
354.182	10.47
354.392	12.07
354.602	12.41
354.812	13.78
355.022	13.5
355.232	12.73
355.442	12.28
355.652	11.71
355.862	12.44
356.072	13.25
356.282	13.59
356.492	12.91
356.702	12.49
356.912	11.97
357.122	11.94
357.332	10.89
357.542	12.26
357.752	11.93
357.962	12.97
358.171	13.11
358.381	12.76
358.591	12.44
358.801	11.8
359.011	11.04
359.221	11.02
359.43	10.98
359.64	11.24
359.85	10.58
360.06	11.93
360.269	11.31
360.479	10.25
360.689	10.04
360.899	10.27
361.108	10.46
361.318	11.58
361.528	12.5
361.737	12.44
361.947	12.1
362.156	12.26
362.366	11.51
362.576	11.67
362.785	12.13
362.995	12.46
363.204	11.55
363.414	11.47
363.623	10.77
363.833	10.02
364.042	10.07
364.252	10.4
364.461	10.06
364.671	10.08
364.88	9.57
365.09	9.57
365.299	9.92
365.509	10.63
365.718	10.97
365.927	10.9
366.137	11.23
366.346	11.74
366.555	11.32
366.765	11.13
366.974	11.32
367.183	12.08
367.393	11.39
367.602	10.56
367.811	9.79
368.021	10.32
368.23	9.73
368.439	8.87
368.648	8.23
368.857	7.89
369.067	8.26
369.276	7.63
369.485	6.69
369.694	6.73
369.903	7.22
370.112	7.89
370.321	7.07
370.531	6.42
370.74	7.06
370.949	6.75
371.158	6.69
371.367	6.8
371.576	6.84
371.785	6.94
371.994	7.45
372.203	7.84
372.412	7.5
372.621	7.23
372.83	7.96
373.039	8.14
373.248	7.56
373.457	8.58
373.666	8.57
373.874	8.61
374.083	9.65
374.292	9.54
374.501	9.22
374.71	9.16
374.919	9.91
375.128	10.47
375.336	10.03
375.545	10.49
375.754	10.14
375.963	9.83
376.171	10.76
376.38	10.28
376.589	10.21
376.798	9.96
377.006	9.81
377.215	9.6
377.424	9.11
377.632	9.56
377.841	9.75
378.05	9.44
378.258	9.31
378.467	8.52
378.675	8.96
378.884	8.69
379.093	8.72
379.301	8.99
379.51	9.1
379.718	9.23
379.927	8.41
380.135	8.07
380.344	8.17
380.552	8.72
380.761	8.46
380.969	7.38
381.177	7.54
381.386	7.03
381.594	6.14
381.803	6.18
382.011	6.53
382.219	6.76
382.428	7.23
382.636	7.53
382.845	7.03
383.053	7.09
383.261	7.85
383.469	7.78
383.678	8.03
383.886	8.17
384.094	7.63
384.302	6.71
384.511	6.36
384.719	5.72
384.927	5.54
385.135	5.08
385.343	5.19
385.552	4.69
385.76	4.66
385.968	4.95
386.176	5.22
386.384	5.69
386.592	6.08
386.8	6.27
387.008	6.49
387.216	6.39
387.424	6.23
387.633	6.07
387.841	6.37
388.049	6.03
388.257	5.84
388.465	6.14
388.672	6.22
388.88	6.6
389.088	6.43
389.296	6.43
389.504	6.39
389.712	6.99
389.92	6.84
390.128	6.33
390.336	6.6
390.544	6.11
390.751	5.79
390.959	5.69
391.167	5.37
391.375	5.29
391.583	5.3
391.79	5.34
391.998	5.27
392.206	5.29
392.414	5.19
392.621	4.98
392.829	5.23
393.037	5.57
393.244	5.03
393.452	4.97
393.66	5.09
393.867	4.65
394.075	4.8
394.283	4.44
394.49	4.44
394.698	4.57
394.905	4.43
395.113	4.5
395.32	3.94
395.528	4.38
395.735	4.39
395.943	4.49
396.15	4.52
396.358	3.88
396.565	4.44
396.773	4.55
396.98	4.38
397.188	4.95
397.395	4.94
397.602	5.17
397.81	5.13
398.017	5.27
398.225	5.22
398.432	5.71
398.639	6.19
398.847	5.86
399.054	5.6
399.261	5.58
399.468	4.85
399.676	4.37
399.883	4.53
400.09	4.34
400.297	4.31
400.505	4.35
400.712	4.23
400.919	4.06
401.126	3.93
401.333	4.06
401.54	4.36
401.748	4.84
401.955	5.34
402.162	5.1
402.369	5.23
402.576	5.15
402.783	5.14
402.99	5.02
403.197	4.86
403.404	4.95
403.611	4.8
403.818	5.14
404.025	5.13
404.232	4.98
404.439	5.14
404.646	5.21
404.853	5.02
405.06	5.02
405.267	5.1
405.474	5.23
405.681	5.07
405.887	5.31
406.094	5.08
406.301	5
406.508	5
406.715	5.17
406.922	5.08
407.128	5.27
407.335	5.25
407.542	5.41
407.749	5.59
407.955	6.24
408.162	6.17
408.369	5.92
408.575	5.89
408.782	5.91
408.989	5.68
409.195	5.75
409.402	5.74
409.609	5.88
409.815	5.55
410.022	5.61
410.228	5.33
410.435	5.37
410.642	5.2
410.848	5.33
411.055	5.55
411.261	5.5
411.468	5.4
411.674	5.24
411.881	5.06
412.087	4.98
412.294	4.63
412.5	4.26
412.706	4.38
412.913	4.6
413.119	4.34
413.326	4.52
413.532	4.52
413.738	4.66
413.945	4.91
414.151	4.69
414.357	4.67
414.564	4.76
414.77	5.04
414.976	4.96
415.182	5.05
415.389	5.17
415.595	4.85
415.801	4.69
416.007	4.4
416.214	4.32
416.42	4.45
416.626	4.78
416.832	4.88
417.038	4.71
417.244	4.62
417.45	4.48
417.657	4.33
417.863	4.44
418.069	4.57
418.275	4.59
418.481	4.52
418.687	4.4
418.893	4.22
419.099	4.1
419.305	4.13
419.511	4.11
419.717	4.09
419.923	4.1
420.129	3.93
420.335	3.97
420.541	3.88
420.746	3.9
420.952	3.97
421.158	4.11
421.364	4.24
421.57	4.07
421.776	4.03
421.982	4.19
422.187	4.3
422.393	4.38
422.599	4.39
422.805	4.6
423.01	4.53
423.216	4.6
423.422	4.43
423.628	4.43
423.833	4.63
424.039	4.54
424.245	4.53
424.45	4.55
424.656	4.55
424.862	4.49
425.067	4.34
425.273	4.41
425.478	4.45
425.684	4.58
425.889	4.67
426.095	4.55
426.301	4.7
426.506	4.68
426.712	4.59
426.917	4.56
427.123	4.58
427.328	4.69
427.533	4.62
427.739	4.45
427.944	4.47
428.15	4.15
428.355	4.23
428.561	4.16
428.766	3.9
428.971	4.04
429.177	4.05
429.382	3.95
429.587	3.96
429.793	4.1
429.998	4.28
430.203	4.1
430.408	4.25
430.614	4.29
430.819	4.28
431.024	4.63
431.229	4.59
431.434	4.61
431.64	4.81
431.845	4.84
432.05	4.95
432.255	5.06
432.46	5.01
432.665	4.88
432.87	4.78
433.076	4.95
433.281	4.79
433.486	4.95
433.691	4.89
433.896	4.72
434.101	4.83
434.306	4.63
434.511	4.44
434.716	4.65
434.921	4.51
435.126	4.6
435.331	4.52
435.535	4.56
435.74	4.21
435.945	4.25
436.15	4.23
436.355	4.18
436.56	4.06
436.765	4.21
436.97	3.98
437.174	4.34
437.379	4.27
437.584	4.13
437.789	4.15
437.993	4.28
438.198	4.17
438.403	4.35
438.608	4.02
438.812	4.07
439.017	3.99
439.222	4.03
439.426	3.91
439.631	3.85
439.836	4.11
440.04	3.88
440.245	3.8
440.45	3.84
440.654	3.77
440.859	3.93
441.063	4.01
441.268	3.93
441.472	3.93
441.677	4.09
441.881	4.17
442.086	3.92
442.29	4.25
442.495	4.33
442.699	4.31
442.904	4.09
443.108	4.11
443.312	4.11
443.517	4.17
443.721	4.1
443.925	3.79
444.13	3.88
444.334	4.01
444.538	3.89
444.743	3.97
444.947	4.09
445.151	4.34
445.356	4.32
445.56	4.18
445.764	4.13
445.968	4.29
446.173	4.3
446.377	4.14
446.581	4.17
446.785	4.17
446.989	3.99
447.193	4.08
447.398	3.93
447.602	3.85
447.806	3.95
448.01	4.07
448.214	3.97
448.418	4.05
448.622	4.12
448.826	3.98
449.03	3.97
449.234	4.12
449.438	3.81
449.642	3.86
449.846	4.11
450.05	4.09
450.254	3.97
450.458	3.96
450.662	3.9
450.866	3.8
451.069	3.85
451.273	3.79
451.477	3.71
451.681	3.91
451.885	3.82
452.089	3.53
452.292	3.6
452.496	3.7
452.7	3.7
452.904	3.59
453.107	3.77
453.311	3.83
453.515	3.72
453.719	3.73
453.922	3.79
454.126	3.81
454.33	3.9
454.533	3.98
454.737	3.79
454.94	3.83
455.144	4.19
455.348	4.04
455.551	4.03
455.755	4.13
455.958	4.05
456.162	3.83
456.365	3.8
456.569	3.74
456.772	3.74
456.976	3.63
457.179	3.49
457.383	3.33
457.586	3.39
457.79	3.46
457.993	3.37
458.196	3.33
458.4	3.4
458.603	3.6
458.807	3.67
459.01	3.56
459.213	3.69
459.417	3.67
459.62	3.63
459.823	3.63
460.026	3.63
460.23	3.8
460.433	4.04
460.636	4.19
460.839	4.22
461.042	4.21
461.246	4.22
461.449	4.23
461.652	4.37
461.855	4.47
462.058	4.54
462.261	4.61
462.464	4.48
462.668	4.43
462.871	4.38
463.074	4.25
463.277	4.24
463.48	4.22
463.683	4.21
463.886	4.18
464.089	3.94
464.292	3.96
464.495	3.84
464.698	3.8
464.901	3.53
465.104	3.37
465.306	3.23
465.509	3.16
465.712	3.25
465.915	3.11
466.118	3.15
466.321	3.3
466.524	3.14
466.726	3.1
466.929	3.28
467.132	3.43
467.335	3.38
467.538	3.51
467.74	3.55
467.943	3.48
468.146	3.52
468.348	3.49
468.551	3.55
468.754	3.65
468.956	3.74
469.159	3.52
469.362	3.48
469.564	3.68
469.767	3.6
469.969	3.58
470.172	3.79
470.375	3.78
470.577	3.9
470.78	3.89
470.982	3.84
471.185	3.76
471.387	4
471.59	3.98
471.792	3.73
471.995	4.04
472.197	3.97
472.399	3.86
472.602	4.23
472.804	4.03
473.007	4.09
473.209	4.06
473.411	4.14
473.614	3.71
473.816	3.89
474.018	4.13
474.22	4
474.423	3.99
474.625	4.07
474.827	3.76
475.03	3.73
475.232	3.5
475.434	3.32
475.636	3.39
475.838	3.65
476.04	3.6
476.243	3.48
476.445	3.41
476.647	3.41
476.849	3.28
477.051	3.49
477.253	3.74
477.455	3.95
477.657	4.37
477.859	4.27
478.061	4.35
478.263	4.3
478.465	4.17
478.667	4.11
478.869	4.34
479.071	4.43
479.273	4.32
479.475	4.22
479.677	4.08
479.879	3.78
480.081	3.75
480.283	3.58
480.485	3.57
480.686	3.67
480.888	3.71
481.09	3.64
481.292	3.61
481.494	3.6
481.695	3.63
481.897	3.65
482.099	3.74
482.301	3.64
482.502	3.73
482.704	3.67
482.906	3.65
483.107	3.73
483.309	3.7
483.511	3.68
483.712	3.72
483.914	3.7
484.115	3.73
484.317	3.7
484.519	3.78
484.72	3.8
484.922	3.83
485.123	3.82
485.325	3.73
485.526	3.77
485.728	3.79
485.929	3.71
486.131	3.7
486.332	3.62
486.534	3.56
486.735	3.52
486.936	3.5
487.138	3.55
487.339	3.57
487.541	3.63
487.742	3.59
487.943	3.53
488.144	3.57
488.346	3.57
488.547	3.6
488.748	3.7
488.95	3.69
489.151	3.68
489.352	3.62
489.553	3.62
489.755	3.63
489.956	3.65
490.157	3.67
490.358	3.7
490.559	3.72
490.76	3.78
490.961	3.72
491.163	3.76
491.364	3.66
491.565	3.68
491.766	3.76
491.967	3.73
492.168	3.71
492.369	3.7
492.57	3.75
492.771	3.78
492.972	3.71
493.173	3.76
493.374	3.85
493.575	4.05
493.776	4.14
493.976	4.14
494.177	4.18
494.378	4.26
494.579	4.35
494.78	4.35
494.981	4.28
495.182	4.42
495.382	4.5
495.583	4.24
495.784	4.06
495.985	3.94
496.185	3.9
496.386	3.93
496.587	3.84
496.788	3.88
496.988	3.87
497.189	3.89
497.39	3.89
497.59	3.92
497.791	4.08
497.992	4.21
498.192	4.39
498.393	4.39
498.593	4.38
498.794	4.29
498.994	4.32
499.195	4.43
499.395	4.43
499.596	4.46
499.796	4.21
499.997	4.29
500.197	4.15
500.398	3.89
500.598	3.85
500.799	3.82
500.999	4.02
501.199	3.89
501.4	3.67
501.6	3.65
501.801	3.62
502.001	3.82
502.201	3.65
502.402	3.81
502.602	3.91
502.802	4.11
503.002	4.11
503.203	4.11
503.403	4.35
503.603	4.48
503.803	4.54
504.003	4.53
504.204	4.44
504.404	4.41
504.604	4.2
504.804	4.26
505.004	4.19
505.204	4.13
505.404	4.16
505.604	4.1
505.804	4.13
506.005	4.23
506.205	4.18
506.405	4.33
506.605	4.44
506.805	4.48
507.005	4.38
507.204	4.52
507.404	4.55
507.604	4.65
507.804	4.64
508.004	4.47
508.204	4.28
508.404	4.35
508.604	4.26
508.804	4.14
509.003	4.35
509.203	4.43
509.403	4.35
509.603	4.38
509.803	4.22
510.002	4.13
510.202	4.26
510.402	4.36
510.602	4.28
510.801	4.47
511.001	4.52
511.201	4.53
511.4	4.56
511.6	4.58
511.8	4.57
511.999	4.57
512.199	4.72
512.398	4.7
512.598	4.62
512.797	4.65
512.997	4.44
513.197	4.53
513.396	4.5
513.596	4.6
513.795	4.55
513.994	4.66
514.194	4.74
514.393	4.57
514.593	4.49
514.792	4.58
514.992	4.61
515.191	4.68
515.39	4.59
515.59	4.64
515.789	4.53
515.988	4.67
516.188	4.59
516.387	4.57
516.586	4.68
516.786	4.69
516.985	4.74
517.184	4.78
517.383	4.82
517.582	4.76
517.782	4.67
517.981	4.69
518.18	4.58
518.379	4.55
518.578	4.62
518.777	4.53
518.976	4.49
519.176	4.44
519.375	4.38
519.574	4.27
519.773	4.39
519.972	4.47
520.171	4.49
520.37	4.52
520.569	4.49
520.768	4.48
520.967	4.53
521.166	4.74
521.365	4.92
521.564	4.98
521.762	5.15
521.961	5.16
522.16	5.09
522.359	5.14
522.558	5.25
522.757	5.53
522.956	5.52
523.154	5.56
523.353	5.46
523.552	5.46
523.751	5.5
523.949	5.38
524.148	5.38
524.347	5.24
524.546	5.32
524.744	5.15
524.943	5.11
525.142	5.14
525.34	5.22
525.539	5.2
525.737	5.06
525.936	5.02
526.135	5.01
526.333	5.09
526.532	5.22
526.73	5.16
526.929	5.27
527.127	5.16
527.326	5.18
527.524	5.26
527.723	5.31
527.921	5.32
528.12	5.36
528.318	5.42
528.516	5.41
528.715	5.42
528.913	5.41
529.112	5.41
529.31	5.54
529.508	5.55
529.707	5.49
529.905	5.55
530.103	5.6
530.301	5.68
530.5	5.74
530.698	5.86
530.896	5.84
531.094	5.91
531.293	6
531.491	5.95
531.689	5.93
531.887	6.07
532.085	5.99
532.283	6.01
532.481	5.92
532.68	5.92
532.878	5.81
533.076	5.95
533.274	6.02
533.472	5.93
533.67	5.92
533.868	5.94
534.066	5.87
534.264	6
534.462	6.07
534.66	6.13
534.858	6.2
535.056	6.28
535.253	6.27
535.451	6.21
535.649	6.26
535.847	6.3
536.045	6.37
536.243	6.49
536.441	6.43
536.638	6.44
536.836	6.51
537.034	6.54
537.232	6.61
537.43	6.62
537.627	6.7
537.825	6.73
538.023	6.8
538.22	6.9
538.418	6.97
538.616	6.94
538.813	6.92
539.011	6.94
539.209	6.83
539.406	6.65
539.604	6.77
539.801	6.8
539.999	6.84
540.196	6.93
540.394	6.92
540.591	6.88
540.789	6.9
540.986	6.97
541.184	7.04
541.381	7.09
541.579	7.18
541.776	7.15
541.974	7.12
542.171	7.24
542.368	7.22
542.566	7.24
542.763	7.27
542.96	7.35
543.158	7.45
543.355	7.4
543.552	7.54
543.75	7.59
543.947	7.59
544.144	7.72
544.341	7.71
544.539	7.72
544.736	7.85
544.933	7.89
545.13	7.88
545.327	7.78
545.524	7.78
545.722	7.72
545.919	7.7
546.116	7.91
546.313	7.92
546.51	7.92
546.707	7.95
546.904	7.95
547.101	8.04
547.298	8.19
547.495	8.36
547.692	8.42
547.889	8.55
548.086	8.68
548.283	8.71
548.48	8.82
548.677	9.02
548.874	9.12
549.07	9.15
549.267	9.29
549.464	9.33
549.661	9.47
549.858	9.72
550.055	9.79
550.251	9.8
550.448	9.83
550.645	9.93
550.842	10
551.038	10.13
551.235	10.2
551.432	9.98
551.628	10
551.825	9.82
552.022	9.97
552.218	10
552.415	10.17
552.612	10.29
552.808	10.41
553.005	10.25
553.201	10.37
553.398	10.43
553.594	10.59
553.791	10.72
553.987	10.83
554.184	10.59
554.38	10.63
554.577	10.61
554.773	10.66
554.97	10.62
555.166	10.88
555.362	10.79
555.559	10.88
555.755	11.23
555.952	11.31
556.148	11.6
556.344	11.77
556.541	12.11
556.737	12.33
556.933	12.39
557.129	12.44
557.326	12.44
557.522	12.86
557.718	12.88
557.914	12.85
558.11	12.96
558.307	12.85
558.503	12.94
558.699	12.7
558.895	12.87
559.091	13.02
559.287	13.25
559.483	13.46
559.679	13.48
559.876	13.44
560.072	13.29
560.268	13.48
560.464	13.56
560.66	13.88
560.856	14.02
561.052	13.94
561.247	13.84
561.443	13.82
561.639	13.79
561.835	13.76
562.031	14.08
562.227	14.2
562.423	14.18
562.619	14.45
562.815	14.08
563.01	14.24
563.206	14.33
563.402	14.42
563.598	14.63
563.793	14.79
563.989	14.77
564.185	14.89
564.381	15.26
564.576	15.2
564.772	15.05
564.968	15.39
565.163	15.46
565.359	15.55
565.555	15.75
565.75	15.84
565.946	15.71
566.141	15.92
566.337	15.75
566.532	15.75
566.728	15.87
566.923	15.97
567.119	16.08
567.314	16.13
567.51	16.21
567.705	16.38
567.901	16.34
568.096	16.51
568.292	16.6
568.487	16.75
568.682	16.57
568.878	16.79
569.073	16.89
569.268	17.04
569.464	17.19
569.659	17.4
569.854	17.47
570.05	17.54
570.245	17.74
570.44	17.72
570.635	18
570.831	18.35
571.026	18.52
571.221	18.68
571.416	18.7
571.611	18.7
571.806	18.7
572.002	18.6
572.197	18.63
572.392	18.5
572.587	18.53
572.782	18.39
572.977	18.32
573.172	18.17
573.367	18.12
573.562	18.24
573.757	18.28
573.952	18.23
574.147	18.28
574.342	18.3
574.537	18.53
574.732	18.73
574.927	18.77
575.121	18.78
575.316	19.04
575.511	19.12
575.706	19.02
575.901	19.09
576.096	19.01
576.29	19.11
576.485	19.36
576.68	19.51
576.875	19.46
577.069	19.54
577.264	19.57
577.459	19.49
577.654	19.58
577.848	19.87
578.043	20.05
578.238	20.12
578.432	20.39
578.627	20.3
578.821	19.92
579.016	19.99
579.21	19.97
579.405	20.1
579.6	20.21
579.794	20.33
579.989	20.28
580.183	20.25
580.378	20.36
580.572	20.14
580.766	20.22
580.961	20.57
581.155	20.62
581.35	20.86
581.544	20.81
581.738	20.64
581.933	20.6
582.127	20.51
582.321	20.57
582.516	20.79
582.71	20.78
582.904	20.72
583.099	20.98
583.293	20.97
583.487	21.2
583.681	21.37
583.875	21.41
584.07	21.57
584.264	21.67
584.458	21.59
584.652	21.42
584.846	21.58
585.04	21.81
585.234	21.5
585.428	21.66
585.623	21.49
585.817	21.76
586.011	22.05
586.205	22.07
586.399	21.99
586.593	21.84
586.787	21.91
586.981	21.8
587.174	21.99
587.368	22.15
587.562	21.99
587.756	21.92
587.95	21.7
588.144	21.61
588.338	21.53
588.532	21.74
588.725	22.07
588.919	22.23
589.113	22.37
589.307	22.15
589.501	22.18
589.694	22.28
589.888	22.43
590.082	22.67
590.275	22.77
590.469	22.85
590.663	23.09
590.856	23.3
591.05	23.17
591.244	23.31
591.437	23.3
591.631	23.11
591.824	23.41
592.018	23.41
592.212	23.38
592.405	23.27
592.599	23.24
592.792	23.08
592.986	23.01
593.179	23.25
593.372	23.02
593.566	23.06
593.759	23.08
593.953	23.06
594.146	22.97
594.339	22.86
594.533	23.02
594.726	23.06
594.92	23.02
595.113	22.98
595.306	22.91
595.499	23.23
595.693	23.19
595.886	23.52
596.079	23.58
596.272	23.4
596.466	23.44
596.659	23.48
596.852	23.49
597.045	23.38
597.238	23.35
597.431	23.35
597.624	23.31
597.818	23.43
598.011	23.24
598.204	23.1
598.397	23.44
598.59	23.22
598.783	23.36
598.976	23.49
599.169	23.95
599.362	24.05
599.555	24.09
599.748	24.22
599.941	24.1
600.134	23.99
600.326	24.1
600.519	24.1
600.712	24.45
600.905	24.2
601.098	24.04
601.291	24
601.483	23.93
601.676	23.95
601.869	23.97
602.062	24.23
602.255	24.53
602.447	24.39
602.64	24.56
602.833	24.8
603.025	24.82
603.218	24.92
603.411	24.72
603.603	24.57
603.796	24.61
603.989	24.6
604.181	24.55
604.374	24.37
604.566	24.56
604.759	24.46
604.951	24.29
605.144	24.28
605.336	24.3
605.529	24.29
605.721	24.54
605.914	24.67
606.106	24.61
606.299	24.68
606.491	24.73
606.683	24.74
606.876	24.71
607.068	24.55
607.26	24.59
607.453	24.4
607.645	24.32
607.837	24.17
608.03	24.23
608.222	24.28
608.414	23.99
608.606	24.09
608.799	23.96
608.991	23.94
609.183	23.96
609.375	23.93
609.567	24.25
609.759	24.17
609.952	24.11
610.144	24.07
610.336	23.82
610.528	23.79
610.72	23.76
610.912	23.83
611.104	23.87
611.296	24.12
611.488	24.1
611.68	23.84
611.872	24.12
612.064	24.26
612.256	24.22
612.448	24.49
612.64	24.78
612.832	24.6
613.023	24.42
613.215	24.75
613.407	24.52
613.599	24.83
613.791	24.83
613.983	24.65
614.174	24.34
614.366	24.28
614.558	24.09
614.75	24
614.941	24.2
615.133	24.33
615.325	23.96
615.516	24.17
615.708	24.13
615.9	24.25
616.091	24.43
616.283	24.74
616.475	24.74
616.666	25.03
616.858	24.85
617.049	25.13
617.241	25.37
617.432	25.65
617.624	25.63
617.815	25.25
618.007	25.26
618.198	25.36
618.39	25.29
618.581	25.23
618.773	25.09
618.964	25.23
619.155	25.09
619.347	24.92
619.538	24.78
619.729	24.76
619.921	25.29
620.112	25.6
620.303	25.67
620.494	25.7
620.686	26.03
620.877	26.13
621.068	26.47
621.259	26.34
621.451	26.43
621.642	26.32
621.833	26.48
622.024	26.33
622.215	25.82
622.406	25.47
622.597	25.47
622.788	25.1
622.98	25.23
623.171	25.03
623.362	25.36
623.553	25.21
623.744	25.39
623.935	25.12
624.126	24.91
624.317	25.29
624.508	25.7
624.698	25.88
624.889	26.17
625.08	25.93
625.271	26.05
625.462	26.12
625.653	25.88
625.844	26.01
626.034	25.99
626.225	26.3
626.416	25.95
626.607	25.9
626.798	25.82
626.988	25.78
627.179	25.96
627.37	26.1
627.56	25.77
627.751	26.03
627.942	25.94
628.132	26.08
628.323	25.71
628.514	25.79
628.704	25.42
628.895	25.33
629.085	25.22
629.276	25.12
629.466	24.94
629.657	25.35
629.847	25.5
630.038	25.33
630.228	25.37
630.419	25.93
630.609	26.08
630.8	26
630.99	25.91
631.181	25.71
631.371	25.73
631.561	25.76
631.752	25.5
631.942	25.41
632.132	25.37
632.323	25.34
632.513	25
632.703	24.87
632.893	24.83
633.084	25.01
633.274	25.54
633.464	25.6
633.654	25.5
633.844	25.39
634.034	25.24
634.225	25.58
634.415	25.57
634.605	25.51
634.795	25.62
634.985	26.05
635.175	25.87
635.365	25.27
635.555	25.22
635.745	25.36
635.935	25.58
636.125	25.83
636.315	25.6
636.505	25.64
636.695	25.67
636.885	25.87
637.075	25.68
637.265	25.76
637.455	26.01
637.644	26.03
637.834	26.22
638.024	26.02
638.214	25.52
638.404	25.79
638.593	25.65
638.783	25.81
638.973	25.5
639.163	25.92
639.352	25.95
639.542	26.24
639.732	26.19
639.921	25.47
640.111	25.73
640.301	26.33
640.49	26.08
640.68	26.42
640.87	26.4
641.059	26.49
641.249	26.04
641.438	26.53
641.628	26.56
641.817	26.74
642.007	27.34
642.196	27.11
642.386	27.13
642.575	27.36
642.764	27.48
642.954	27.1
643.143	27.23
643.333	26.9
643.522	26.98
643.711	26.69
643.901	26.38
644.09	26.36
644.279	26.66
644.469	25.99
644.658	25.97
644.847	25.32
645.036	25.19
645.226	25.31
645.415	26.5
645.604	26.01
645.793	26.43
645.982	26.85
646.171	26.68
646.361	26.52
646.55	26.8
646.739	26.44
646.928	26.8
647.117	27.05
647.306	27.1
647.495	26.48
647.684	26.35
647.873	26.07
648.062	25.83
648.251	25.54
648.44	25.52
648.629	25.48
648.818	25.81
649.007	25.77
649.196	26.11
649.384	25.99
649.573	26.02
649.762	26.16
649.951	26.04
650.14	25.98
650.328	26.26
650.517	26.3
650.706	26.6
650.895	26.25
651.083	26.46
651.272	26.34
651.461	26.18
651.65	26.1
651.838	26.35
652.027	26.71
652.216	26.73
652.404	26.92
652.593	26.88
652.781	27.01
652.97	27.64
653.158	27.69
653.347	28
653.535	28.16
653.724	28.45
653.912	28.01
654.101	28.04
654.289	28.12
654.478	27.8
654.666	27.64
654.855	27.27
655.043	26.93
655.231	26.53
655.42	26.49
655.608	26.54
655.796	26.44
655.985	26.77
656.173	26.62
656.361	26.58
656.55	26.7
656.738	27.03
656.926	27.4
657.114	27.7
657.302	27.6
657.491	27.26
657.679	27.27
657.867	27.33
658.055	27.41
658.243	27.29
658.431	27.02
658.619	27.52
658.807	27.67
658.996	27.13
659.184	26.87
659.372	27.11
659.56	27.16
659.748	27.22
659.936	27.09
660.124	27.2
660.311	27.5
660.499	27.98
660.687	27.58
660.875	27.32
661.063	27.69
661.251	27.45
661.439	27.32
661.627	26.89
661.814	27.09
662.002	27.12
662.19	27.18
662.378	27.07
662.565	26.85
662.753	27.18
662.941	27.35
663.129	27.3
663.316	27.91
663.504	28.39
663.692	29.04
663.879	29.21
664.067	29.7
664.254	29.29
664.442	28.66
664.63	28.5
664.817	28.46
665.005	28.52
665.192	28.57
665.38	28.44
665.567	28.25
665.755	28.17
665.942	27.75
666.13	27.4
666.317	27.21
666.504	27.57
666.692	27.71
666.879	27.76
667.067	27.61
667.254	27.65
667.441	27.32
667.629	27.09
667.816	26.99
668.003	27.35
668.19	27.65
668.378	27.3
668.565	27.58
668.752	27.65
668.939	27.43
669.127	27.97
669.314	28.61
669.501	29.03
669.688	28.68
669.875	29.18
670.062	28.92
670.249	28.77
670.436	29.17
670.623	29.04
670.81	29.14
670.997	28.87
671.184	28.24
671.371	27.01
671.558	27.09
671.745	27.98
671.932	27.93
672.119	27.8
672.306	27.72
672.493	28.24
672.68	28.45
672.867	28.55
673.054	28.65
673.24	29.14
673.427	29.8
673.614	29.49
673.801	29.35
673.988	28.93
674.174	29.1
674.361	29.34
674.548	29.38
674.734	29.49
674.921	29.15
675.108	29.46
675.294	28.62
675.481	28.66
675.668	28.73
675.854	28.89
676.041	29.22
676.227	29.07
676.414	28.31
676.601	27.92
676.787	27.83
676.974	27.93
677.16	27.5
677.347	28.01
677.533	28.4
677.719	28.65
677.906	28.5
678.092	27.53
678.279	27.68
678.465	28.06
678.651	28.16
678.838	28.12
679.024	28.55
679.21	28.73
679.397	28.45
679.583	28.07
679.769	27.94
679.955	27.66
680.142	28.42
680.328	28.28
680.514	28.39
680.7	28.78
680.886	28.52
681.073	28.03
681.259	28.01
681.445	28.18
681.631	28.28
681.817	28.24
682.003	28.49
682.189	28.36
682.375	28.21
682.561	27.74
682.747	27.37
682.933	27.7
683.119	28.29
683.305	28.48
683.491	28.42
683.677	28.26
683.863	28.19
684.049	27.88
684.235	28.04
684.42	28.39
684.606	28.77
684.792	28.44
684.978	28.74
685.164	27.96
685.349	28.01
685.535	28.48
685.721	28.21
685.907	28.15
686.092	28.77
686.278	28.61
686.464	28.94
686.649	29.23
686.835	29.63
687.021	28.84
687.206	28.96
687.392	28.84
687.577	28.59
687.763	28.98
687.948	29.27
688.134	28.66
688.319	28.28
688.505	27.72
688.69	27.46
688.876	27.32
689.061	27.63
689.247	27.26
689.432	27.41
689.618	27.59
689.803	27.33
689.988	26.91
690.174	27.51
690.359	27.81
690.544	27.81
690.73	27.47
690.915	27.45
691.1	27.54
691.285	28.67
691.471	28.67
691.656	28.28
691.841	28.65
692.026	28.54
692.211	28.34
692.396	28.31
692.582	28.13
692.767	28.36
692.952	28.97
693.137	28.74
693.322	28.34
693.507	28.41
693.692	28.72
693.877	28.4
694.062	29.12
694.247	28.79
694.432	29.11
694.617	29.43
694.802	29.08
694.987	28.33
695.172	28.87
695.357	28.95
695.541	29.07
695.726	28.81
695.911	28.89
696.096	28.83
696.281	29.1
696.466	28.83
696.65	28.76
696.835	29.11
697.02	29.27
697.204	29.12
697.389	28.93
697.574	28.7
697.759	28.65
697.943	28.53
698.128	28.68
698.312	28.66
698.497	28.68
698.682	28.78
698.866	28.67
699.051	28.74
699.235	28.68
699.42	28.89
699.604	28.76
699.789	29.08
699.973	29.2
700.158	28.4
700.342	28.2
700.527	28.5
700.711	28.95
700.895	28.97
701.08	28.73
701.264	28.56
701.448	28.23
701.633	27.88
701.817	27.64
702.001	27.34
702.186	28.21
702.37	28.3
702.554	28.22
702.738	27.24
702.923	27.54
703.107	27.85
703.291	28.24
703.475	29.08
703.659	30.15
703.843	30.12
704.027	30.13
704.212	29.84
704.396	29.76
704.58	29.67
704.764	30.27
704.948	30.74
705.132	30.45
705.316	29.71
705.5	28.4
705.684	27.4
705.868	27.63
706.052	27.78
706.235	27.96
706.419	28.12
706.603	28.32
706.787	27.36
706.971	26.96
707.155	27.44
707.339	27.74
707.522	29.19
707.706	29.3
707.89	29.59
708.074	30.58
708.257	29.91
708.441	30.21
708.625	30.26
708.808	30.94
708.992	31.25
709.176	31.66
709.359	31.57
709.543	30.85
709.727	31.43
709.91	30.65
710.094	29.4
710.277	30.12
710.461	30.22
710.644	30.36
710.828	30.04
711.011	29.61
711.195	28.66
711.378	28.76
711.562	29.12
711.745	29.3
711.928	28.85
712.112	29.73
712.295	29.26
712.478	28.82
712.662	28.22
712.845	28.26
713.028	27.99
713.212	27.63
713.395	27.2
713.578	26.57
713.761	26.57
713.945	27.64
714.128	27.43
714.311	27.85
714.494	27.61
714.677	27.57
714.86	27.37
715.043	27.82
715.227	29.14
715.41	29.96
715.593	30.51
715.776	29.76
715.959	29.43
716.142	29.49
716.325	29.21
716.508	29.21
716.691	29.31
716.874	29.91
717.057	29.76
717.239	29.39
717.422	28.8
717.605	28.63
717.788	29.34
717.971	28.36
718.154	27.51
718.337	28
718.519	28.83
718.702	28.61
718.885	28.66
719.068	28.48
719.25	27.94
719.433	29.35
719.616	29.33
719.798	29.93
719.981	31.01
720.164	32.08
720.346	31.96
720.529	31.35
720.712	31.48
720.894	31.45
721.077	32.39
721.259	32.61
721.442	30.92
721.624	30.71
721.807	29.58
721.989	29.99
722.172	29.19
722.354	29.87
722.537	30.36
722.719	30.43
722.901	30.74
723.084	30.67
723.266	30.51
723.448	30.94
723.631	31.12
723.813	30.69
723.995	30.04
724.178	30.58
724.36	29.65
724.542	28.32
724.724	28.9
724.907	28.13
725.089	26.83
725.271	27.72
725.453	27.71
725.635	27.65
725.817	28.29
725.999	29.22
726.181	29.07
726.364	28.69
726.546	29.4
726.728	28.51
726.91	28.35
727.092	28.58
727.274	28.26
727.456	28.3
727.638	28.29
727.819	29.68
728.001	28.44
728.183	28.26
728.365	28.27
728.547	28.16
728.729	28.32
728.911	28.44
729.093	28.6
729.274	28.17
729.456	27.29
729.638	27.87
729.82	27.35
730.001	27.96
730.183	28.58
730.365	29.11
730.546	30.11
730.728	30.19
730.91	31.29
731.091	31.39
731.273	31.33
731.455	32.73
731.636	31.54
731.818	30.53
731.999	31.06
732.181	30.27
732.362	30.07
732.544	28.82
732.725	28.31
732.907	27.15
733.088	27.11
733.27	27.85
733.451	27.67
733.633	27.67
733.814	28.22
733.995	27.83
734.177	27.18
734.358	27.22
734.539	27.84
734.721	28.31
734.902	28.33
735.083	28.31
735.264	28.22
735.446	28.31
735.627	28.76
735.808	27.79
735.989	27.28
736.17	29.42
736.351	29.64
736.533	29.43
736.714	29.15
736.895	29.49
737.076	29.82
737.257	29.02
737.438	29.11
737.619	29.18
737.8	29.15
737.981	29.9
738.162	28.35
738.343	27.96
738.524	28.78
738.705	29.04
738.886	28.32
739.067	28.71
739.247	29.26
739.428	28.49
739.609	29.06
739.79	30.92
739.971	31.69
740.151	31.93
740.332	31.8
740.513	31.52
740.694	31.72
740.874	33.07
741.055	32.57
741.236	30.94
741.417	30.58
741.597	29.36
741.778	28.48
741.958	27.81
742.139	27.84
742.32	28.42
742.5	28.36
742.681	25.86
742.861	25.69
743.042	25.33
743.222	27.37
743.403	27.09
743.583	27.09
743.764	26.49
743.944	26.54
744.124	26.25
744.305	25.31
744.485	24.56
744.666	27.41
744.846	26.56
745.026	26.49
745.207	25.78
745.387	25.97
745.567	27.18
745.747	26.87
745.928	26.61
746.108	26.54
746.288	26.22
746.468	28.33
746.648	29.17
746.829	29.95
747.009	29.73
747.189	29.98
747.369	31.87
747.549	30.63
747.729	30.86
747.909	31.68
748.089	32.65
748.269	34.74
748.449	34.31
748.629	33.63
748.809	33.01
748.989	32.45
749.169	30.94
749.349	30.13
749.529	30.97
749.709	30.69
749.889	29.33
750.068	29.33
750.248	28.45
750.428	28.2
750.608	26.12
750.788	25.88
750.967	26.41
751.147	27.99
751.327	27.74
751.507	27.91
751.686	28.86
751.866	28.99
752.046	28.14
752.225	27.54
752.405	26.46
752.585	28.27
752.764	28.85
752.944	28.92
753.123	29.62
753.303	29
753.482	28.45
753.662	27.04
753.841	26.42
754.021	26.38
754.2	26.05
754.38	27.34
754.559	27.1
754.739	26.75
754.918	27.76
755.097	28.34
755.277	27.91
755.456	27.61
755.635	27.21
755.815	27.46
755.994	27.17
756.173	27.97
756.352	27.06
756.532	25.79
756.711	25.91
756.89	24.15
757.069	22.34
757.248	23.19
757.427	24.97
757.607	27.18
757.786	27.99
757.965	28.27
758.144	27.59
758.323	27.62
758.502	30.09
758.681	29.59
758.86	31.58
759.039	31.28
759.218	32.05
759.397	30.9
759.576	30.13
759.755	30.05
759.934	31.72
760.113	33.39
760.291	33.59
760.47	32
760.649	32.47
760.828	32.53
761.007	33.86
761.186	33.55
761.364	33.67
761.543	33.02
761.722	32.22
761.901	31.57
762.079	30.1
762.258	30.27
762.437	31.55
762.615	31.25
762.794	30.53
762.972	29.68
763.151	29.08
763.33	29.37
763.508	29.9
763.687	29.73
763.865	29.03
764.044	29.11
764.222	28.64
764.401	28.43
764.579	28.42
764.758	27.97
764.936	27.44
765.114	28.09
765.293	28.22
765.471	27.66
765.65	28.89
765.828	29.52
766.006	30.69
766.184	30.58
766.363	29.53
766.541	30.01
766.719	30.36
766.898	30.87
767.076	31.44
767.254	31.88
767.432	32.85
767.61	32.36
767.788	31.99
767.967	31.86
768.145	32.03
768.323	33.12
768.501	32.31
768.679	30.99
768.857	31.68
769.035	31.16
769.213	29.5
769.391	29.18
769.569	29.79
769.747	30.33
769.925	28.45
770.103	28.73
770.281	27.08
770.459	27.22
770.636	28.22
770.814	27.64
770.992	27.55
771.17	27.81
771.348	25.74
771.525	24.75
771.703	26.15
771.881	27.57
772.059	27.86
772.236	29.12
772.414	30.51
772.592	30.78
772.769	30.82
772.947	30.08
773.125	29.27
773.302	29.43
773.48	30.49
773.657	27.41
773.835	26.85
774.013	25.9
774.19	27.85
774.368	29.83
774.545	30.78
774.723	31.71
774.9	31.43
775.077	33.18
775.255	32.92
775.432	32.46
775.61	35.23
775.787	36.45
775.964	36.14
776.142	32.76
776.319	29.86
776.496	30.32
776.674	30.64
776.851	30.36
777.028	31.11
777.205	34.85
777.382	34.42
777.56	34.56
777.737	32.75
777.914	32.44
778.091	34.4
778.268	35.38
778.445	34.94
778.622	31.25
778.8	32.33
778.977	31.55
779.154	28.56
779.331	26.8
779.508	27.16
779.685	26.8
779.862	27.77
780.038	28.33
780.215	29.15
780.392	29.25
780.569	31.97
780.746	31.25
780.923	31.38
781.1	32.27
781.277	34.27
781.453	34.92
781.63	35.99
781.807	36.75
781.984	36.72
782.16	36.14
782.337	38.1
782.514	42.7
782.691	42.7
782.867	42.64
783.044	40.87
783.221	40.39
783.397	39.18
783.574	37.28
783.75	37.54
783.927	37.17
784.103	38.44
784.28	35.21
784.456	30.88
784.633	32.99
784.809	33.29
784.986	32.73
785.162	33.46
785.339	31.53
785.515	34.37
785.692	34.74
785.868	33.71
786.044	29.72
786.221	26.93
786.397	25.82
786.573	25.14
786.749	25.33
786.926	28
787.102	26.14
787.278	27.72
787.454	24.91
787.631	22.23
787.807	22.27
787.983	26.75
788.159	30.55
788.335	32.72
788.511	32.43
788.687	31.86
788.863	30.45
789.039	31.39
789.216	30.34
789.392	31.11
789.568	32.81
789.744	33.18
789.919	32.33
790.095	30.96
790.271	29.3
790.447	29.74
790.623	29.8
790.799	29.73
790.975	29.1
791.151	30.16
791.327	31.37
791.502	32.73
791.678	32.39
791.854	29.56
792.03	30.55
792.205	31.81
792.381	29.39
792.557	28.78
792.733	28.72
792.908	28.59
793.084	26.09
793.259	27.72
793.435	26.2
793.611	26.17
793.786	27.9
793.962	29.84
794.137	31.33
794.313	32.6
794.488	31.56
794.664	33.41
794.839	34.1
795.015	34.97
795.19	34.24
795.366	36.36
795.541	37.21
795.716	36.93
795.892	35.83
796.067	36.85
796.242	38.08
796.418	35.66
796.593	35.28
796.768	35.4
796.944	33.8
797.119	32.27
797.294	30.73
797.469	29.4
797.644	28.76
797.82	28.03
797.995	26.24
798.17	24.76
798.345	27.86
798.52	25.4
798.695	24.31
798.87	24.88
799.045	24.68
799.22	24.59
799.395	22.43
799.57	22.57
799.745	23.29
799.92	20.51
800.095	23.59
800.27	22.93
800.445	24.68
800.62	22.36
800.795	23.57
800.97	25.12
801.145	24.2
801.319	30.15
801.494	30.16
801.669	33.69
801.844	33.85
802.018	27.67
802.193	27.31
802.368	29.16
802.543	33.12
802.717	33.58
802.892	28.72
803.067	28.48
803.241	26.53
803.416	27.14
803.59	22.24
803.765	23.59
803.94	27.28
804.114	28.9
804.289	28.32
804.463	31.23
804.638	28.01
804.812	32.5
804.986	34.96
805.161	33.6
805.335	32.49
805.51	30.85
805.684	33.07
805.858	33.47
806.033	32.86
806.207	30.97
806.381	28.9
806.556	28.52
806.73	27.02
806.904	25.89
807.078	27.1
807.253	28.03
807.427	30.08
807.601	31.41
807.775	31.32
807.949	32.98
808.123	32.91
808.298	33.13
808.472	38.93
808.646	42.14
808.82	43.64
808.994	47.34
809.168	43.25
809.342	44.5
809.516	38.09
809.69	38.97
809.864	38.94
810.038	40.48
810.212	40
810.385	39.28
810.559	37.7
810.733	38.83
810.907	35.38
811.081	36.61
811.255	32.9
811.428	38.37
811.602	37.2
811.776	34.4
811.95	34.3
812.123	36.3
812.297	34.18
812.471	34.58
812.644	28.88
812.818	26.49
812.992	31.54
813.165	32.77
813.339	32.84
813.512	30.07
813.686	32.87
813.86	30.03
814.033	28.32
814.207	29.17
814.38	27.99
814.554	29.92
814.727	28.1
814.9	28.4
815.074	31.12
815.247	27.67
815.421	27.99
815.594	28.58
815.767	33.37
815.941	33.39
816.114	32.78
816.287	32.54
816.46	31.51
816.634	33.71
816.807	29.38
816.98	33.02
817.153	34.34
817.327	34.65
817.5	35.45
817.673	30.67
817.846	27.57
818.019	29.05
818.192	29.93
818.365	30.34
818.538	30.68
818.711	32.33
818.884	28.39
819.057	29.14
819.23	29.86
819.403	25.68
819.576	28.82
819.749	29.85
819.922	27.8
820.095	25.46
820.268	27.44
820.441	26.63
820.614	27.75
820.786	25.36
820.959	25.36
821.132	27.04
821.305	28.35
821.477	26.62
821.65	26.37
821.823	26.93
821.996	28.45
822.168	28.16
822.341	28.88
822.514	29.82
822.686	30.43
822.859	30.34
823.031	30.14
823.204	30.32
823.376	31.07
823.549	31.12
823.722	31.18
823.894	30.2
824.067	30.64
824.239	31.12
824.411	30.07
824.584	30.23
824.756	30.68
824.929	31.07
825.101	31.55
825.273	31.12
825.446	31.43
825.618	31.16
825.79	33.09
825.963	32.86
826.135	31.72
826.307	31.99
826.479	30.54
826.652	28.77
826.824	28.82
826.996	28.32
827.168	26.95
827.34	26.99
827.512	28.38
827.684	27.16
827.856	26.46
828.029	27.16
828.201	27.2
828.373	27.99
828.545	30.54
828.717	30.38
828.889	30.39
829.061	31.26
829.232	32.15
829.404	31.18
829.576	31.46
829.748	31.36
829.92	28.67
830.092	27.49
830.264	28
830.436	25.47
830.607	22.39
830.779	25
830.951	25.23
831.123	25.12
831.294	22.91
831.466	22.23
831.638	21.61
831.809	25.52
831.981	26.41
832.153	24.97
832.324	26.72
832.496	27.94
832.667	21.26
832.839	24.33
833.011	25.64
833.182	29.77
833.354	28.78
833.525	29.43
833.697	28.71
833.868	30.86
834.039	32.34
834.211	32.3
834.382	33.68
834.554	34.38
834.725	33.88
834.896	33.36
835.068	32.16
835.239	34.28
835.41	33.99
835.581	35.91
835.753	33.27
835.924	33.9
836.095	32.74
836.266	32.6
836.438	31.66
836.609	34.25
836.78	33.59
836.951	33.7
837.122	32.64
837.293	31.12
837.464	31.28
837.635	34.49
837.806	30.44
837.977	30.73
838.148	30.78
838.319	32.31
838.49	24.35
838.661	25.41
838.832	25.84
839.003	24.6
839.174	30.91
839.345	27.29
839.516	20.39
839.687	27.05
839.857	33.65
840.028	35.57
840.199	37.73
840.37	40.58
840.54	40.23
840.711	37.78
840.882	40.77
841.053	35.53
841.223	42.31
841.394	48.89
841.564	41.36
841.735	34.39
841.906	27.04
842.076	28.59
842.247	28.72
842.417	19.07
842.588	25.3
842.758	19.96
842.929	27.03
843.099	11.72
843.27	12.02
843.44	26.65
843.611	19.54
843.781	26.01
843.951	31.35
844.122	33.83
844.292	33.76
844.462	36.14
844.633	38.62
844.803	35.01
844.973	44.46
845.144	44.4
845.314	41.49
845.484	41.07
845.654	37.24
845.824	30.08
845.995	34.21
846.165	39.58
846.335	34.24
846.505	30.56
846.675	28.71
846.845	26.01
847.015	24.63
847.185	26.46
847.355	35.43
847.525	45.75
847.695	35.53
847.865	21.06
848.035	32.62
848.205	30.58
848.375	25.63
848.545	27.88
848.715	34.17
848.884	28.73
849.054	36.74
849.224	43.12
849.394	48.03
849.564	49.6
849.733	60.82
849.903	55.19
850.073	60.95
850.243	64.96
850.412	67.91
850.582	58.13
850.752	71.15
850.921	47.69
851.091	39.28
851.26	17.93
851.43	26.61
851.599	10.41
851.769	20.52
851.939	17.82
852.108	31.7
852.278	34.35
852.447	63.35
852.616	57.39
852.786	72.25
852.955	72.58
853.125	80.19
853.294	82.12
853.463	92.8
853.633	88.36
853.802	68.57
853.971	54.95
854.141	53.41
854.31	38.62
854.479	39.39
854.648	27.94
854.818	20.61
854.987	-3.36
855.156	7.73
855.325	-8.74
855.494	2.06
855.663	7.85
855.832	13.81
856.001	5.21
856.171	3.85
856.34	-11.79
856.509	13.69
856.678	25.52
856.847	38.92
857.016	32.5
857.185	25.37
857.353	46.13
857.522	56.09
857.691	48.82
857.86	48.13
858.029	47.63
858.198	60.74
858.367	47.81
858.535	43.81
858.704	43.43
858.873	50.82
859.042	48.25
859.21	11.37
859.379	19.37
859.548	16.67
859.717	27.7
859.885	42.99
860.054	35.36
860.222	33.78
860.391	30.92
860.56	45.24
860.728	14.16
860.897	32.71
861.065	52.18
861.234	34.04
861.402	24.62
861.571	5.7
861.739	1.77
861.908	9.7
862.076	15.67
862.244	16.99
862.413	13.95
862.581	35.69
862.749	24.89
862.918	11.23
863.086	25.45
863.254	49.51
863.423	63.51
863.591	54.68
863.759	59.19
863.927	54.22
864.096	58.16
864.264	60.65
864.432	44.32
864.6	56.13
864.768	63.13
864.936	59.2
865.104	69.27
865.272	65.74
865.44	72.87
865.608	65.08
865.776	53.25
865.944	44
866.112	47.32
866.28	45.04
866.448	39.8
866.616	40.63
866.784	30.32
866.952	19.63
867.12	16.99
867.288	22.7
867.455	23.73
867.623	18.33
867.791	19.68
867.959	1.91
868.127	3
868.294	-24.51
868.462	-16.13
868.63	15.25
868.797	100.63
868.965	104.28
869.133	91.27
869.3	100.61
869.468	114.08
869.636	113.39
869.803	119.11
869.971	108.34
870.138	136.02
870.306	158.16
870.473	123.7
870.641	90.16
870.808	81.04
870.975	75.55
871.143	71.98
871.31	67.08
871.478	64.84
871.645	64.51
871.812	57.04
871.98	39.66
872.147	45.4
872.314	39.51
872.482	41.6
872.649	60.2
872.816	60.02
872.983	64.65
873.15	72.67
873.318	72.37
873.485	57.35
873.652	59.75
873.819	75.38
873.986	80.45
874.153	85.8
874.32	77.19
874.487	78.57
874.654	84.86
874.821	84.46
874.988	80.43
875.155	74.34
875.322	110.15
875.489	116.31
875.656	87.8
875.823	75.92
875.99	63.44
876.157	74.67
876.324	52.91
876.49	48.4
876.657	47.34
876.824	45.69
876.991	62.95
877.157	53.69
877.324	46.87
877.491	62.18
877.658	69.88
877.824	83.88
877.991	81.79
878.157	90.45
878.324	103.28
878.491	97.29
878.657	96.05
878.824	82
878.99	91.5
879.157	90.72
879.323	73.99
879.49	75.7
879.656	69.64
879.823	57.6
879.989	43.84
880.156	42.9
880.322	51.14
880.488	49.48
880.655	46
880.821	49.42
880.987	59.69
881.154	53.73
881.32	47.11
881.486	42.33
881.652	43.44
881.819	51.78
881.985	45
882.151	42.02
882.317	37.66
882.483	39.03
882.649	37.05
882.816	29.19
882.982	30.81
883.148	32.58
883.314	34.46
883.48	32.13
883.646	30.76
883.812	31.85
883.978	31.79
884.144	32.44
884.31	29.69
884.476	28.93
884.642	32.96
884.807	33.87
884.973	30.23
885.139	30.13
885.305	30.51
885.471	29.1
885.637	30.21
885.802	30.4
885.968	29.67
886.134	28.48
886.3	27.29
886.465	26.27
886.631	26.93
886.797	29.1
886.962	28.39
887.128	25.81
887.293	27.52
887.459	12.36
887.625	8.46
887.79	3.48
887.956	2.77
888.121	3.46
888.287	-28.05
888.452	-85.74
888.618	-158.07
888.783	-176.6
