Data from 2937886_Reflection_1.txt Node
Date: Wed Jul 15 14:31:58 EDT 2015
User: robert
Spectrometer: USB4E03001
Autoset integration time: false
Trigger mode: 4
Integration Time (sec): 1.000000E-1
Scans to average: 10
Electric dark correction enabled: true
Nonlinearity correction enabled: false
Boxcar width: 5
Stray light correction enabled: false
XAxis mode: Wavelengths
Stop averaging: false
Number of Pixels in Spectrum: 3648
>>>>>Begin Spectral Data<<<<<
177.566	750
177.785	159.09
178.005	21.05
178.225	-23.52
178.445	-9.82
178.665	148.2
178.885	-683.56
179.105	129.55
179.324	141.49
179.544	-128.29
179.764	-188.5
179.984	-23.16
180.204	30.78
180.423	5.26
180.643	-30.95
180.863	-79.52
181.083	-13.04
181.302	-32.84
181.522	-15.32
181.742	16.53
181.961	-19.36
182.181	-54.06
182.401	-387.33
182.621	-618.24
182.84	-228.08
183.06	-102.76
183.279	-21.79
183.499	-59.74
183.719	-326.9
183.938	-127.5
184.158	-293.69
184.377	14.74
184.597	30.2
184.816	50.83
185.036	54.55
185.256	48.18
185.475	54.79
185.695	74.61
185.914	57.02
186.134	54.01
186.353	46
186.572	73.05
186.792	28.16
187.011	35.54
187.231	649.43
187.45	172.09
187.67	503.65
187.889	-657.79
188.108	-219.7
188.328	-785.18
188.547	-2211.11
188.766	-682.87
188.986	-960.17
189.205	-61.98
189.424	-17.93
189.644	-9.02
189.863	18.64
190.082	24.67
190.302	-7.59
190.521	14.4
190.74	10.97
190.959	45.59
191.178	57.43
191.398	39.77
191.617	32.76
191.836	23.97
192.055	6.75
192.274	8.8
192.494	37.6
192.713	42.8
192.932	4.52
193.151	-18.92
193.37	-111.78
193.589	-267.79
193.808	-182.82
194.027	255.71
194.246	267.48
194.465	239.56
194.685	207.85
194.904	194.84
195.123	179.17
195.342	152.16
195.561	135.21
195.78	129.26
195.999	121.7
196.218	126.84
196.436	30.07
196.655	-292.41
196.874	6226.03
197.093	-110.85
197.312	-196.76
197.531	-187.73
197.75	-182.33
197.969	-166.65
198.188	-293.55
198.407	-302.17
198.625	-242.48
198.844	233.87
199.063	70.99
199.282	100
199.501	68.92
199.719	-52.72
199.938	-124.01
200.157	-164.54
200.376	-143.88
200.594	-220.22
200.813	1798.52
201.032	-641.88
201.251	1858.29
201.469	-685.74
201.688	1279.76
201.907	317.53
202.125	289.51
202.344	301.82
202.563	248.47
202.781	397
203	-3579.46
203.218	-159.85
203.437	-382.96
203.656	-115.38
203.874	-124.94
204.093	-55.11
204.311	-61.04
204.53	-50.32
204.748	-20.87
204.967	-28.19
205.185	-13.08
205.404	-54.63
205.622	-65.59
205.841	-38.1
206.059	-21.49
206.278	-5.73
206.496	-5.38
206.715	0.52
206.933	-12.71
207.151	-39.55
207.37	-27.13
207.588	-23.03
207.806	-13.33
208.025	-4.93
208.243	-39.98
208.461	-13.37
208.68	-46.48
208.898	7.11
209.116	-0.24
209.335	237.05
209.553	63.91
209.771	42.18
209.989	63.67
210.208	50.57
210.426	63.18
210.644	42.82
210.862	28.14
211.081	2.94
211.299	-44.98
211.517	-90.19
211.735	-104.87
211.953	-142.13
212.171	-238.3
212.39	-659.73
212.608	-240.99
212.826	-168.84
213.044	-215.22
213.262	-120.06
213.48	-175.4
213.698	-101.5
213.916	-36.23
214.134	-1.12
214.352	42.19
214.57	55.12
214.788	38.39
215.006	31.87
215.224	12.54
215.442	22.42
215.66	27.92
215.878	45.53
216.096	51.55
216.314	16.26
216.532	-13.79
216.75	9.55
216.968	11.16
217.185	7.1
217.403	36.43
217.621	42.09
217.839	-13.1
218.057	-99.18
218.275	-109.63
218.492	-8.17
218.71	29.05
218.928	35.94
219.146	10.65
219.363	12.02
219.581	29.35
219.799	-2.83
220.017	-22.59
220.234	-11.61
220.452	-22.32
220.67	-61.46
220.887	-147.62
221.105	-108.52
221.323	-230.46
221.54	-289.63
221.758	-178.84
221.976	-296.78
222.193	-108.54
222.411	-33.09
222.629	-15.33
222.846	9.69
223.064	14.96
223.281	15.83
223.499	15.38
223.716	23.9
223.934	28.39
224.151	31.12
224.369	47.5
224.586	31.41
224.804	35.87
225.021	30.24
225.239	20.44
225.456	19.75
225.674	18.7
225.891	18.99
226.108	16.84
226.326	10.25
226.543	4.6
226.76	-12.34
226.978	10.61
227.195	7.37
227.413	2.44
227.63	8.08
227.847	11.64
228.064	14.78
228.282	17.46
228.499	17.38
228.716	17.06
228.934	20.36
229.151	21.84
229.368	21.21
229.585	20.48
229.802	21.33
230.02	21.91
230.237	20.71
230.454	20.73
230.671	20.15
230.888	22.29
231.105	22.05
231.323	22.27
231.54	16.59
231.757	15.49
231.974	16.87
232.191	17.64
232.408	16.22
232.625	11.17
232.842	11.35
233.059	12.13
233.276	6.83
233.493	10.48
233.71	1.07
233.927	5.22
234.144	-0.18
234.361	6.52
234.578	7.11
234.795	8.85
235.012	16.46
235.229	18.94
235.446	22.1
235.663	26.6
235.879	27.42
236.096	32.17
236.313	31.31
236.53	36.62
236.747	31.14
236.964	31.21
237.181	36.99
237.397	32.48
237.614	28.09
237.831	25.63
238.048	28.92
238.264	23.28
238.481	31.6
238.698	32.81
238.915	34.51
239.131	32.72
239.348	31.07
239.565	25.73
239.781	31.47
239.998	30.16
240.215	26.34
240.431	24.01
240.648	24.41
240.865	17.83
241.081	18.31
241.298	16.11
241.514	14.05
241.731	14.35
241.947	13.85
242.164	9.67
242.38	10.53
242.597	9.67
242.814	8.33
243.03	9.52
243.246	10.22
243.463	9.78
243.679	9.16
243.896	10.22
244.112	11.6
244.329	11.96
244.545	13.76
244.762	12.3
244.978	14.62
245.194	17.71
245.411	15.07
245.627	16.45
245.843	16.55
246.06	14.89
246.276	14.61
246.492	12.61
246.709	12.06
246.925	12.77
247.141	13.96
247.357	14.2
247.574	12.75
247.79	12.64
248.006	12.46
248.222	13.55
248.439	13.99
248.655	13.92
248.871	14.28
249.087	14.53
249.303	14.24
249.519	14.44
249.736	14.62
249.952	16.52
250.168	19.09
250.384	19.11
250.6	17.17
250.816	19.09
251.032	20.11
251.248	20.94
251.464	20.08
251.68	18.95
251.896	18.18
252.112	14.91
252.328	12.23
252.544	11.52
252.76	10.91
252.976	11.75
253.192	11.67
253.408	11.87
253.624	11.64
253.84	10.88
254.056	9.91
254.272	10.66
254.487	12.93
254.703	13.33
254.919	16.32
255.135	15.05
255.351	12.83
255.567	12.95
255.782	12.36
255.998	15.18
256.214	16.8
256.43	18.51
256.646	12.12
256.861	12.33
257.077	14.92
257.293	11.4
257.508	12.42
257.724	11.17
257.94	10.69
258.155	9.71
258.371	8.75
258.587	9.44
258.802	9.13
259.018	9.94
259.234	9.57
259.449	8.99
259.665	8.75
259.88	8.58
260.096	9.61
260.312	9.59
260.527	10.26
260.743	10.14
260.958	9.73
261.174	9.84
261.389	10.06
261.605	9.97
261.82	9.71
262.036	9.25
262.251	9.62
262.466	6.7
262.682	4.31
262.897	3.08
263.113	2.04
263.328	4.36
263.543	5.11
263.759	4.27
263.974	3.59
264.189	3.34
264.405	4.89
264.62	5.47
264.835	9.78
265.051	11.96
265.266	13.18
265.481	12.21
265.696	10.03
265.912	5.89
266.127	5.02
266.342	4.84
266.557	7.57
266.773	7.88
266.988	8.49
267.203	7.24
267.418	6.97
267.633	5.54
267.848	5.95
268.064	5.95
268.279	8.38
268.494	11.28
268.709	11.95
268.924	10.75
269.139	10.1
269.354	8.42
269.569	9.8
269.784	9.11
269.999	10.22
270.214	11.66
270.429	11.38
270.644	10.64
270.859	7.24
271.074	7.45
271.289	6.21
271.504	5.69
271.719	5.29
271.934	4.06
272.149	4.02
272.363	5.1
272.578	4.25
272.793	4.01
273.008	5.76
273.223	6.88
273.438	6.94
273.653	8.54
273.867	11.93
274.082	13.08
274.297	12.76
274.512	12.18
274.726	9.98
274.941	9.81
275.156	11.33
275.371	8.34
275.585	7.9
275.8	7.14
276.015	6.89
276.229	4.8
276.444	2.63
276.659	2.14
276.873	0.46
277.088	1.46
277.302	1.83
277.517	0.78
277.732	1.26
277.946	2.27
278.161	3.55
278.375	2.02
278.59	1.24
278.804	0.43
279.019	2.72
279.233	5.96
279.448	4.32
279.662	5.24
279.877	4.08
280.091	5.42
280.306	3.97
280.52	1.92
280.735	0.22
280.949	0.29
281.163	3.51
281.378	3.05
281.592	2.61
281.806	4.53
282.021	4.05
282.235	5.91
282.449	3.66
282.664	5.35
282.878	8.06
283.092	11.8
283.307	12.33
283.521	11.96
283.735	12.37
283.949	12.9
284.164	11.97
284.378	11.32
284.592	11.43
284.806	14.39
285.02	14.49
285.234	12.63
285.449	11.93
285.663	10.59
285.877	11.28
286.091	12.21
286.305	11.66
286.519	11.39
286.733	10.37
286.947	9.14
287.161	8.14
287.375	8.42
287.589	9.87
287.803	9.35
288.017	10.35
288.231	9.63
288.445	8.39
288.659	8.18
288.873	8.06
289.087	10.14
289.301	10.68
289.515	11.55
289.729	10.86
289.943	10.04
290.157	10.19
290.371	10.65
290.584	8.92
290.798	7.77
291.012	8.29
291.226	7.78
291.44	6.91
291.654	7.72
291.867	6.42
292.081	6.4
292.295	5.59
292.509	4.5
292.722	5.7
292.936	8.26
293.15	9.76
293.364	10.71
293.577	11.6
293.791	12.88
294.005	11.66
294.218	12.21
294.432	10.84
294.645	11.8
294.859	12.06
295.073	10.41
295.286	9.9
295.5	9.72
295.713	9.21
295.927	8.62
296.14	8.84
296.354	9.56
296.568	9.56
296.781	11.57
296.994	11.93
297.208	11.69
297.421	11.18
297.635	10.75
297.848	11.04
298.062	11.79
298.275	13.08
298.489	13.17
298.702	12.7
298.915	12.79
299.129	12.42
299.342	11.57
299.555	11.76
299.769	11.87
299.982	13.07
300.195	11.96
300.409	11.26
300.622	11.66
300.835	11.08
301.048	11.81
301.262	12.73
301.475	11.13
301.688	12.1
301.901	12.64
302.115	13.71
302.328	12.63
302.541	12.65
302.754	11.87
302.967	10.96
303.18	11.17
303.393	11.81
303.607	12.02
303.82	11.97
304.033	12.73
304.246	11.03
304.459	10.88
304.672	12.62
304.885	14.11
305.098	14.55
305.311	16.31
305.524	16
305.737	15
305.95	12.45
306.163	14.07
306.376	15.28
306.589	16.47
306.802	16.3
307.015	15.03
307.228	13.63
307.44	12.37
307.653	11.64
307.866	11.62
308.079	10.89
308.292	9.84
308.505	10.74
308.718	8.32
308.93	8.8
309.143	6.66
309.356	5.94
309.569	6.11
309.781	8.63
309.994	8.2
310.207	7.85
310.42	8.05
310.632	10.01
310.845	8.81
311.058	8.62
311.27	6.91
311.483	8.41
311.696	7.93
311.908	7.88
312.121	5.89
312.333	5.02
312.546	5.84
312.759	7.04
312.971	6.79
313.184	5.24
313.396	6.67
313.609	8.46
313.821	9.98
314.034	11.95
314.246	14.24
314.459	16.53
314.671	16.03
314.884	16.52
315.096	16.96
315.309	16.16
315.521	18.82
315.733	17.2
315.946	16.22
316.158	15.06
316.371	13.68
316.583	11.96
316.795	11.42
317.008	12
317.22	13.64
317.432	12.57
317.644	13.45
317.857	12.46
318.069	13.12
318.281	14.14
318.494	13.65
318.706	13.97
318.918	12.39
319.13	11.05
319.342	11.37
319.555	7.86
319.767	6.11
319.979	6.85
320.191	7.49
320.403	6.09
320.615	5.85
320.827	4.42
321.039	4.98
321.252	7.99
321.464	9.39
321.676	10.13
321.888	10.06
322.1	11.76
322.312	11.98
322.524	12.74
322.736	14.9
322.948	13.69
323.16	15.14
323.372	14.99
323.584	14.67
323.796	13.82
324.007	13.34
324.219	13.64
324.431	13.54
324.643	12.99
324.855	12.85
325.067	10.73
325.279	11.98
325.491	13.29
325.702	13.62
325.914	12.84
326.126	12.57
326.338	12.78
326.55	12.96
326.761	12.43
326.973	11.97
327.185	11.19
327.396	13.08
327.608	12.48
327.82	10.65
328.032	10.37
328.243	9.08
328.455	9.33
328.666	9.3
328.878	10.02
329.09	9.45
329.301	10.73
329.513	10.9
329.725	9.28
329.936	10.87
330.148	10.83
330.359	10.79
330.571	12.15
330.782	13.16
330.994	12.52
331.205	12.13
331.417	13.03
331.628	12
331.84	13.48
332.051	14.74
332.262	14.79
332.474	14.39
332.685	14.31
332.897	13.87
333.108	12.8
333.319	13.41
333.531	13.27
333.742	12.76
333.953	12.92
334.165	11.79
334.376	11.42
334.587	10.21
334.799	9.81
335.01	10.13
335.221	10.68
335.432	10.57
335.644	10.7
335.855	11.9
336.066	13.5
336.277	12.89
336.488	12.43
336.7	12.17
336.911	12.01
337.122	13.15
337.333	12.25
337.544	10.89
337.755	10.32
337.966	9.75
338.177	7.16
338.388	6.85
338.599	7.51
338.811	8.58
339.022	9.29
339.233	10.44
339.444	10.28
339.655	11.3
339.866	12.73
340.076	13.53
340.287	13.23
340.498	14.38
340.709	14.65
340.92	14.11
341.131	14.14
341.342	12.91
341.553	12.27
341.764	11.98
341.975	11.75
342.185	12.78
342.396	13.14
342.607	12.97
342.818	12.19
343.029	12.08
343.239	13.08
343.45	13.88
343.661	13.14
343.872	13.54
344.082	14.5
344.293	14.81
344.504	13.5
344.714	12.78
344.925	13.95
345.136	13.91
345.346	14.06
345.557	14.65
345.768	13.34
345.978	14.72
346.189	14.26
346.399	13.29
346.61	13.68
346.821	13.6
347.031	13.85
347.242	13.76
347.452	14.9
347.663	14.38
347.873	13.95
348.084	13.81
348.294	14.14
348.504	14.62
348.715	14.77
348.925	13.91
349.136	12.64
349.346	13.41
349.557	13.09
349.767	11.38
349.977	11.33
350.188	10.94
350.398	9.39
350.608	9.39
350.819	8.85
351.029	9.37
351.239	9.1
351.449	10.43
351.66	9.48
351.87	9.44
352.08	10.88
352.29	9.73
352.501	10.04
352.711	12.77
352.921	11.58
353.131	12
353.341	11.98
353.552	11.45
353.762	12.37
353.972	13.51
354.182	13.84
354.392	13.84
354.602	16.45
354.812	15.38
355.022	14.72
355.232	16.7
355.442	15.97
355.652	15.67
355.862	16.27
356.072	16.45
356.282	15.62
356.492	15.53
356.702	15.08
356.912	13.02
357.122	13.17
357.332	13.11
357.542	12.15
357.752	11.99
357.962	10.97
358.171	11.42
358.381	10.78
358.591	10.45
358.801	10.58
359.011	10.27
359.221	11
359.43	11.16
359.64	11.38
359.85	11.45
360.06	11.82
360.269	12.91
360.479	12.39
360.689	12.64
360.899	12.53
361.108	11.96
361.318	12.04
361.528	12.09
361.737	11
361.947	10.25
362.156	9.73
362.366	9.76
362.576	9.1
362.785	8.92
362.995	8.83
363.204	9.09
363.414	8.65
363.623	8.82
363.833	7.92
364.042	8.4
364.252	8.84
364.461	8.02
364.671	7.58
364.88	8.71
365.09	8.84
365.299	9.25
365.509	9.49
365.718	10.16
365.927	9.94
366.137	10.31
366.346	11.12
366.555	11.11
366.765	12.38
366.974	12.94
367.183	12.34
367.393	11.6
367.602	10.95
367.811	10.38
368.021	9.88
368.23	10.25
368.439	10.8
368.648	10.41
368.857	9.79
369.067	9.13
369.276	8.03
369.485	7.38
369.694	8.08
369.903	7.66
370.112	8.73
370.321	8.83
370.531	8.93
370.74	9.16
370.949	8.08
371.158	8.26
371.367	8.54
371.576	8.96
371.785	8.83
371.994	9.08
372.203	8.5
372.412	7.75
372.621	7.44
372.83	7.36
373.039	6.72
373.248	7.8
373.457	7.8
373.666	8.6
373.874	8.01
374.083	8.63
374.292	8.52
374.501	8.75
374.71	8.02
374.919	7.79
375.128	8.19
375.336	7.98
375.545	7.57
375.754	8.11
375.963	7.94
376.171	8.59
376.38	8.56
376.589	7.72
376.798	7.83
377.006	8.49
377.215	9.13
377.424	8.58
377.632	9.04
377.841	9.77
378.05	8.83
378.258	8.1
378.467	8.05
378.675	7.58
378.884	7.83
379.093	8.11
379.301	8.27
379.51	8.19
379.718	7.92
379.927	7.3
380.135	7.25
380.344	7.6
380.552	8.31
380.761	8.75
380.969	9.13
381.177	9.42
381.386	9.61
381.594	9.36
381.803	9.56
382.011	10.02
382.219	10.59
382.428	10.06
382.636	9.45
382.845	8.99
383.053	8.89
383.261	8.55
383.469	7.97
383.678	7.8
383.886	7.29
384.094	7.03
384.302	6.97
384.511	6.05
384.719	5.99
384.927	6.36
385.135	6.22
385.343	6.23
385.552	6.48
385.76	6.85
385.968	6.36
386.176	7.3
386.384	7.52
386.592	7.34
386.8	8.11
387.008	8.44
387.216	8.62
387.424	9.07
387.633	9.01
387.841	8.9
388.049	9.51
388.257	9.92
388.465	9.49
388.672	8.82
388.88	8.57
389.088	8.07
389.296	8.1
389.504	8.78
389.712	8.14
389.92	8.03
390.128	7.86
390.336	7.2
390.544	6.62
390.751	6.6
390.959	6.63
391.167	6.55
391.375	6.62
391.583	6.42
391.79	5.5
391.998	5.47
392.206	5.35
392.414	5.36
392.621	5.57
392.829	5.67
393.037	4.93
393.244	5.16
393.452	5.32
393.66	5.69
393.867	5.53
394.075	5.65
394.283	6.09
394.49	5.97
394.698	6.29
394.905	6.05
395.113	6.07
395.32	6.75
395.528	6.72
395.735	6.93
395.943	6.64
396.15	7
396.358	6.99
396.565	6.62
396.773	6.2
396.98	5.34
397.188	5.62
397.395	5.83
397.602	5.85
397.81	5.98
398.017	5.51
398.225	5.02
398.432	4.93
398.639	4.95
398.847	5.2
399.054	5.6
399.261	6.09
399.468	5.88
399.676	5.99
399.883	5.85
400.09	5.98
400.297	6.19
400.505	6.3
400.712	6.08
400.919	6.22
401.126	6.26
401.333	6.48
401.54	6.17
401.748	6.34
401.955	6.05
402.162	6.22
402.369	6.1
402.576	6.01
402.783	5.78
402.99	5.68
403.197	5.5
403.404	5.51
403.611	5.57
403.818	5.61
404.025	5.34
404.232	5.11
404.439	4.97
404.646	4.4
404.853	4.21
405.06	4.37
405.267	4.44
405.474	4.52
405.681	4.27
405.887	4.1
406.094	4.43
406.301	4.61
406.508	5.02
406.715	5.1
406.922	5.52
407.128	5.48
407.335	5.52
407.542	5.81
407.749	5.76
407.955	5.85
408.162	5.71
408.369	5.43
408.575	5.41
408.782	5.4
408.989	5.1
409.195	4.97
409.402	5.06
409.609	5.1
409.815	4.72
410.022	4.52
410.228	4.27
410.435	4.65
410.642	5.13
410.848	5.41
411.055	5.26
411.261	5.41
411.468	5.36
411.674	5.52
411.881	5.69
412.087	5.67
412.294	6.02
412.5	6.52
412.706	6.2
412.913	5.73
413.119	5.37
413.326	5.53
413.532	5.64
413.738	5.72
413.945	5.77
414.151	5.36
414.357	5.56
414.564	5.47
414.77	5.17
414.976	4.69
415.182	4.78
415.389	4.64
415.595	4.55
415.801	4.38
416.007	4.34
416.214	4.44
416.42	4.7
416.626	4.78
416.832	4.66
417.038	4.73
417.244	5.21
417.45	5.38
417.657	5.57
417.863	5.55
418.069	5.67
418.275	5.39
418.481	5.28
418.687	5.2
418.893	4.97
419.099	5.05
419.305	4.89
419.511	4.75
419.717	4.79
419.923	4.57
420.129	4.51
420.335	4.47
420.541	4.56
420.746	4.62
420.952	4.74
421.158	4.76
421.364	4.63
421.57	4.57
421.776	4.76
421.982	4.59
422.187	4.68
422.393	4.67
422.599	4.56
422.805	4.72
423.01	4.59
423.216	4.47
423.422	4.6
423.628	4.7
423.833	4.77
424.039	4.56
424.245	4.77
424.45	4.82
424.656	4.91
424.862	5.03
425.067	5.03
425.273	5.18
425.478	5.19
425.684	4.91
425.889	4.87
426.095	4.98
426.301	5.17
426.506	5.05
426.712	4.96
426.917	4.92
427.123	4.85
427.328	4.74
427.533	4.61
427.739	4.48
427.944	4.73
428.15	4.76
428.355	4.73
428.561	4.56
428.766	4.26
428.971	4.31
429.177	4.28
429.382	4.12
429.587	3.88
429.793	3.91
429.998	4.03
430.203	4.02
430.408	4.13
430.614	4.22
430.819	4.32
431.024	4.45
431.229	4.7
431.434	4.82
431.64	4.88
431.845	5.25
432.05	5.1
432.255	5
432.46	5.15
432.665	5.13
432.87	4.87
433.076	4.84
433.281	4.94
433.486	4.8
433.691	4.77
433.896	4.9
434.101	4.87
434.306	5.15
434.511	5.24
434.716	5.11
434.921	5.01
435.126	5.18
435.331	5.07
435.535	4.9
435.74	4.95
435.945	4.73
436.15	4.6
436.355	4.57
436.56	4.21
436.765	4.16
436.97	4.07
437.174	3.96
437.379	3.93
437.584	3.97
437.789	4.02
437.993	3.76
438.198	3.63
438.403	3.61
438.608	3.51
438.812	3.63
439.017	3.71
439.222	3.85
439.426	3.99
439.631	3.93
439.836	3.96
440.04	4.19
440.245	4.22
440.45	4.4
440.654	4.56
440.859	4.46
441.063	4.55
441.268	4.65
441.472	4.63
441.677	4.67
441.881	4.57
442.086	4.47
442.29	4.32
442.495	4.26
442.699	4.28
442.904	4.04
443.108	4.17
443.312	3.98
443.517	3.87
443.721	3.67
443.925	3.51
444.13	3.7
444.334	3.86
444.538	3.96
444.743	4.14
444.947	4.1
445.151	4.19
445.356	4.22
445.56	4.48
445.764	4.37
445.968	4.31
446.173	4.43
446.377	4.61
446.581	4.49
446.785	4.4
446.989	4.4
447.193	4.57
447.398	4.7
447.602	4.87
447.806	4.84
448.01	4.88
448.214	5.04
448.418	5.12
448.622	4.97
448.826	5.14
449.03	5.17
449.234	5.12
449.438	4.83
449.642	4.74
449.846	4.51
450.05	4.31
450.254	4.29
450.458	4.15
450.662	4.17
450.866	4.12
451.069	4.05
451.273	4
451.477	4.01
451.681	4.3
451.885	4.29
452.089	4.33
452.292	4.4
452.496	4.51
452.7	4.51
452.904	4.37
453.107	4.34
453.311	4.38
453.515	4.23
453.719	4.18
453.922	3.84
454.126	3.84
454.33	3.8
454.533	3.65
454.737	3.67
454.94	3.6
455.144	3.5
455.348	3.58
455.551	3.44
455.755	3.76
455.958	3.79
456.162	3.84
456.365	3.64
456.569	3.8
456.772	3.88
456.976	3.64
457.179	3.77
457.383	4.13
457.586	3.83
457.79	3.72
457.993	3.55
458.196	3.58
458.4	3.74
458.603	3.8
458.807	3.62
459.01	3.56
459.213	3.9
459.417	3.7
459.62	3.54
459.823	3.65
460.026	3.76
460.23	3.74
460.433	3.78
460.636	3.8
460.839	3.85
461.042	3.99
461.246	3.93
461.449	3.74
461.652	4.01
461.855	3.92
462.058	3.92
462.261	3.96
462.464	4.14
462.668	3.99
462.871	4.03
463.074	3.95
463.277	3.69
463.48	3.91
463.683	3.94
463.886	4.03
464.089	4.39
464.292	4.56
464.495	4.28
464.698	4.06
464.901	3.96
465.104	3.7
465.306	3.61
465.509	3.73
465.712	3.68
465.915	3.73
466.118	3.76
466.321	3.47
466.524	3.37
466.726	3.42
466.929	3.61
467.132	3.83
467.335	3.91
467.538	3.96
467.74	4.04
467.943	4.13
468.146	3.99
468.348	3.79
468.551	3.81
468.754	3.89
468.956	3.82
469.159	3.78
469.362	3.87
469.564	3.87
469.767	3.9
469.969	3.82
470.172	3.76
470.375	3.6
470.577	3.63
470.78	3.52
470.982	3.4
471.185	3.61
471.387	3.57
471.59	3.47
471.792	3.53
471.995	3.65
472.197	3.71
472.399	3.86
472.602	3.99
472.804	3.85
473.007	4.08
473.209	4.15
473.411	4.11
473.614	3.88
473.816	3.67
474.018	3.65
474.22	3.49
474.423	3.37
474.625	3.03
474.827	2.99
475.03	3.18
475.232	2.81
475.434	2.79
475.636	2.95
475.838	2.95
476.04	3.42
476.243	3.25
476.445	3.36
476.647	3.47
476.849	3.57
477.051	3.64
477.253	3.66
477.455	3.86
477.657	3.81
477.859	3.84
478.061	3.88
478.263	3.8
478.465	3.98
478.667	4.06
478.869	3.91
479.071	3.76
479.273	3.84
479.475	3.88
479.677	3.71
479.879	3.68
480.081	3.51
480.283	3.77
480.485	3.6
480.686	3.46
480.888	3.41
481.09	3.62
481.292	3.95
481.494	3.91
481.695	3.73
481.897	3.94
482.099	4.03
482.301	4.07
482.502	3.97
482.704	4.01
482.906	3.97
483.107	3.99
483.309	3.97
483.511	3.83
483.712	3.86
483.914	3.97
484.115	3.87
484.317	3.86
484.519	3.91
484.72	3.95
484.922	3.94
485.123	4.09
485.325	4.07
485.526	3.99
485.728	4.08
485.929	4.05
486.131	4.03
486.332	4.21
486.534	4.22
486.735	4.18
486.936	4.2
487.138	4.21
487.339	4.11
487.541	4.06
487.742	4.16
487.943	4.19
488.144	4.23
488.346	4.16
488.547	4.08
488.748	4.16
488.95	4.21
489.151	4.16
489.352	4.18
489.553	4.2
489.755	4.26
489.956	4.27
490.157	4.28
490.358	4.2
490.559	4.23
490.76	4.27
490.961	4.24
491.163	4.06
491.364	4.11
491.565	4.08
491.766	4.09
491.967	4.15
492.168	4.14
492.369	4.11
492.57	4.16
492.771	4.25
492.972	4.22
493.173	4.07
493.374	4.17
493.575	4.04
493.776	4.14
493.976	4.12
494.177	4.13
494.378	3.95
494.579	3.84
494.78	3.76
494.981	3.53
495.182	3.5
495.382	3.64
495.583	3.74
495.784	3.9
495.985	3.79
496.185	3.79
496.386	3.78
496.587	4.05
496.788	4.09
496.988	4.25
497.189	4.46
497.39	4.56
497.59	4.65
497.791	4.52
497.992	4.47
498.192	4.47
498.393	4.42
498.593	4.49
498.794	4.36
498.994	4.48
499.195	4.19
499.395	4.12
499.596	4.01
499.796	3.98
499.997	4.17
500.197	4.15
500.398	4.24
500.598	4.23
500.799	4.12
500.999	4.17
501.199	4.1
501.4	4.34
501.6	4.39
501.801	4.39
502.001	4.32
502.201	4.34
502.402	4.48
502.602	4.42
502.802	4.48
503.002	4.47
503.203	4.79
503.403	4.94
503.603	5.02
503.803	4.88
504.003	4.99
504.204	5.1
504.404	4.76
504.604	4.64
504.804	4.68
505.004	4.7
505.204	4.68
505.404	4.38
505.604	4.19
505.804	4.09
506.005	4.05
506.205	4
506.405	3.72
506.605	3.88
506.805	3.94
507.005	3.87
507.204	3.75
507.404	3.7
507.604	3.84
507.804	3.82
508.004	3.95
508.204	4.04
508.404	4.13
508.604	4.32
508.804	4.45
509.003	4.37
509.203	4.43
509.403	4.64
509.603	4.72
509.803	4.81
510.002	4.82
510.202	4.82
510.402	4.83
510.602	4.77
510.801	4.73
511.001	4.59
511.201	4.81
511.4	4.88
511.6	4.73
511.8	4.68
511.999	4.54
512.199	4.61
512.398	4.66
512.598	4.69
512.797	4.7
512.997	4.72
513.197	4.7
513.396	4.56
513.596	4.47
513.795	4.54
513.994	4.62
514.194	4.79
514.393	4.97
514.593	4.85
514.792	4.78
514.992	4.85
515.191	4.92
515.39	4.99
515.59	5
515.789	5.06
515.988	5.1
516.188	5.07
516.387	4.91
516.586	4.85
516.786	4.89
516.985	5.08
517.184	5.05
517.383	5.22
517.582	5.3
517.782	5.42
517.981	5.43
518.18	5.45
518.379	5.62
518.578	5.67
518.777	5.65
518.976	5.66
519.176	5.72
519.375	5.71
519.574	5.61
519.773	5.74
519.972	5.69
520.171	5.61
520.37	5.63
520.569	5.52
520.768	5.51
520.967	5.56
521.166	5.71
521.365	5.48
521.564	5.46
521.762	5.42
521.961	5.43
522.16	5.4
522.359	5.61
522.558	5.47
522.757	5.68
522.956	5.7
523.154	5.65
523.353	5.74
523.552	5.82
523.751	5.93
523.949	6.08
524.148	6.13
524.347	6.26
524.546	6.27
524.744	6.37
524.943	6.3
525.142	6.44
525.34	6.42
525.539	6.35
525.737	6.33
525.936	6.26
526.135	6.27
526.333	6.2
526.532	6.2
526.73	6.26
526.929	6.33
527.127	6.34
527.326	6.29
527.524	6.49
527.723	6.47
527.921	6.59
528.12	6.7
528.318	6.74
528.516	6.72
528.715	6.74
528.913	6.68
529.112	6.63
529.31	6.61
529.508	6.65
529.707	6.59
529.905	6.62
530.103	6.61
530.301	6.6
530.5	6.53
530.698	6.55
530.896	6.58
531.094	6.66
531.293	6.75
531.491	6.68
531.689	6.64
531.887	6.54
532.085	6.58
532.283	6.58
532.481	6.67
532.68	6.68
532.878	6.76
533.076	6.67
533.274	6.63
533.472	6.76
533.67	6.88
533.868	6.94
534.066	7.13
534.264	7.11
534.462	7.23
534.66	7.19
534.858	7.23
535.056	7.19
535.253	7.34
535.451	7.51
535.649	7.46
535.847	7.51
536.045	7.47
536.243	7.46
536.441	7.58
536.638	7.56
536.836	7.68
537.034	7.73
537.232	7.78
537.43	7.74
537.627	7.66
537.825	7.65
538.023	7.59
538.22	7.65
538.418	7.6
538.616	7.58
538.813	7.45
539.011	7.39
539.209	7.42
539.406	7.54
539.604	7.6
539.801	7.67
539.999	7.69
540.196	7.9
540.394	7.97
540.591	8.1
540.789	8.19
540.986	8.31
541.184	8.35
541.381	8.43
541.579	8.5
541.776	8.45
541.974	8.49
542.171	8.58
542.368	8.63
542.566	8.75
542.763	8.72
542.96	8.67
543.158	8.69
543.355	8.71
543.552	8.77
543.75	8.81
543.947	9.02
544.144	9.07
544.341	9.29
544.539	9.22
544.736	9.21
544.933	9.2
545.13	9.35
545.327	9.46
545.524	9.52
545.722	9.56
545.919	9.45
546.116	9.32
546.313	9.23
546.51	9.04
546.707	9.14
546.904	8.99
547.101	9.04
547.298	8.89
547.495	8.77
547.692	8.7
547.889	8.55
548.086	8.7
548.283	8.82
548.48	9.09
548.677	9.24
548.874	9.33
549.07	9.52
549.267	9.73
549.464	10.08
549.661	10.36
549.858	10.5
550.055	10.75
550.251	10.68
550.448	10.66
550.645	10.66
550.842	10.55
551.038	10.5
551.235	10.75
551.432	10.8
551.628	10.76
551.825	10.78
552.022	10.89
552.218	10.89
552.415	10.94
552.612	11.07
552.808	11.05
553.005	11.02
553.201	10.87
553.398	10.86
553.594	10.91
553.791	10.93
553.987	10.88
554.184	10.78
554.38	11.21
554.577	11.36
554.773	11.22
554.97	11.26
555.166	11.45
555.362	11.59
555.559	11.39
555.755	11.2
555.952	11.41
556.148	11.47
556.344	11.5
556.541	10.94
556.737	11.11
556.933	11.46
557.129	11.68
557.326	11.71
557.522	11.9
557.718	12.02
557.914	12.23
558.11	12.19
558.307	12.15
558.503	12.14
558.699	12.63
558.895	12.54
559.091	12.7
559.287	12.4
559.483	12.33
559.679	12.34
559.876	12.49
560.072	12.42
560.268	12.23
560.464	12.42
560.66	12.52
560.856	12.23
561.052	12.12
561.247	11.77
561.443	11.9
561.639	12.06
561.835	11.94
562.031	11.74
562.227	11.93
562.423	12.09
562.619	12.36
562.815	12.42
563.01	12.53
563.206	12.48
563.402	12.99
563.598	12.86
563.793	12.78
563.989	12.97
564.185	13.3
564.381	13.42
564.576	13.27
564.772	13.04
564.968	13.12
565.163	13.08
565.359	13.2
565.555	13.09
565.75	13.27
565.946	13.45
566.141	13.4
566.337	13.5
566.532	13.38
566.728	13.6
566.923	13.67
567.119	13.64
567.314	13.6
567.51	13.8
567.705	13.61
567.901	13.83
568.096	13.42
568.292	13.66
568.487	13.53
568.682	13.56
568.878	13.83
569.073	13.86
569.268	14.05
569.464	14.33
569.659	14.22
569.854	14.34
570.05	14.12
570.245	14.47
570.44	14.33
570.635	14.34
570.831	14.66
571.026	14.33
571.221	14.3
571.416	14.33
571.611	14.16
571.806	14.23
572.002	14.34
572.197	14.43
572.392	14.38
572.587	14.44
572.782	14.27
572.977	14.05
573.172	14.03
573.367	13.92
573.562	13.95
573.757	14.12
573.952	14.16
574.147	13.95
574.342	14.2
574.537	14.29
574.732	14.27
574.927	14.49
575.121	14.46
575.316	14.41
575.511	14.39
575.706	14.37
575.901	14.46
576.096	14.45
576.29	14.62
576.485	14.61
576.68	14.57
576.875	14.51
577.069	14.52
577.264	14.62
577.459	14.74
577.654	14.92
577.848	15.09
578.043	14.89
578.238	15.13
578.432	15.06
578.627	14.75
578.821	14.76
579.016	14.83
579.21	14.94
579.405	15.08
579.6	15.31
579.794	15.29
579.989	14.92
580.183	15.39
580.378	15.23
580.572	15.33
580.766	15.51
580.961	15.69
581.155	15.65
581.35	15.81
581.544	15.8
581.738	15.7
581.933	16
582.127	16.27
582.321	15.98
582.516	15.93
582.71	16.05
582.904	16.16
583.099	16.23
583.293	16.32
583.487	15.94
583.681	15.75
583.875	15.83
584.07	15.61
584.264	15.93
584.458	16.03
584.652	15.78
584.846	15.66
585.04	15.65
585.234	15.61
585.428	15.96
585.623	16.14
585.817	16.39
586.011	16.07
586.205	16.1
586.399	15.67
586.593	15.27
586.787	15.56
586.981	15.66
587.174	15.57
587.368	15.57
587.562	15.45
587.756	15.27
587.95	15.24
588.144	15.56
588.338	15.58
588.532	15.61
588.725	15.8
588.919	15.72
589.113	15.91
589.307	16
589.501	16.2
589.694	16.02
589.888	16.4
590.082	16.44
590.275	16.67
590.469	16.67
590.663	16.67
590.856	16.78
591.05	17.02
591.244	17.03
591.437	17.09
591.631	17.03
591.824	16.99
592.018	16.8
592.212	16.73
592.405	16.34
592.599	16.25
592.792	16.27
592.986	16.19
593.179	16.14
593.372	15.84
593.566	15.89
593.759	15.84
593.953	15.94
594.146	15.76
594.339	15.78
594.533	15.8
594.726	16.05
594.92	16.2
595.113	16.37
595.306	16.38
595.499	16.48
595.693	16.23
595.886	16.26
596.079	16.3
596.272	16.39
596.466	16.38
596.659	16.5
596.852	16.48
597.045	16.32
597.238	16.28
597.431	16.37
597.624	16.4
597.818	16.7
598.011	16.84
598.204	17.12
598.397	17.32
598.59	17.24
598.783	17.25
598.976	17.1
599.169	17.24
599.362	17.23
599.555	17
599.748	16.88
599.941	16.7
600.134	16.43
600.326	15.9
600.519	15.86
600.712	15.84
600.905	16.18
601.098	16.36
601.291	16.42
601.483	16.4
601.676	16.63
601.869	16.76
602.062	16.5
602.255	16.57
602.447	16.83
602.64	17.15
602.833	17.38
603.025	16.97
603.218	17
603.411	17.15
603.603	17.24
603.796	17.24
603.989	17.38
604.181	17.43
604.374	17.29
604.566	17.39
604.759	16.93
604.951	16.75
605.144	16.81
605.336	16.65
605.529	16.64
605.721	16.6
605.914	16.61
606.106	16.5
606.299	16.48
606.491	16.77
606.683	16.69
606.876	16.91
607.068	16.99
607.26	17.14
607.453	17.27
607.645	17.14
607.837	17.2
608.03	17.15
608.222	17.24
608.414	17.14
608.606	16.95
608.799	16.86
608.991	16.99
609.183	16.99
609.375	16.91
609.567	17.09
609.759	17.03
609.952	16.75
610.144	16.8
610.336	16.77
610.528	16.91
610.72	17.02
610.912	16.86
611.104	16.68
611.296	16.75
611.488	16.88
611.68	16.43
611.872	16.42
612.064	16.63
612.256	16.49
612.448	16.46
612.64	16.47
612.832	16.49
613.023	16.62
613.215	16.75
613.407	16.81
613.599	16.66
613.791	16.56
613.983	16.69
614.174	16.64
614.366	16.63
614.558	16.6
614.75	16.73
614.941	16.41
615.133	16.41
615.325	16.54
615.516	16.57
615.708	16.67
615.9	17.15
616.091	16.92
616.283	16.58
616.475	16.59
616.666	16.22
616.858	15.81
617.049	16.13
617.241	16.34
617.432	16.18
617.624	16.25
617.815	16.05
618.007	15.72
618.198	15.84
618.39	16.25
618.581	16.56
618.773	16.86
618.964	17.34
619.155	17.36
619.347	17.33
619.538	17.3
619.729	17.24
619.921	17.39
620.112	17.23
620.303	16.95
620.494	16.55
620.686	16.21
620.877	16.41
621.068	16.29
621.259	16.04
621.451	16.16
621.642	16.3
621.833	16.34
622.024	16.27
622.215	16.66
622.406	17.2
622.597	17.61
622.788	17.62
622.98	17.53
623.171	17.32
623.362	17.22
623.553	17.18
623.744	16.7
623.935	16.65
624.126	16.48
624.317	16.76
624.508	16.98
624.698	17.04
624.889	17.16
625.08	17.06
625.271	17.53
625.462	17.88
625.653	17.87
625.844	18.11
626.034	18.08
626.225	18.12
626.416	18.01
626.607	17.46
626.798	17.55
626.988	17.45
627.179	17.4
627.37	17.17
627.56	17.21
627.751	17.25
627.942	17.33
628.132	17.26
628.323	17.23
628.514	17.11
628.704	17.37
628.895	17.41
629.085	17.51
629.276	17.53
629.466	17.7
629.657	17.54
629.847	17.41
630.038	17.64
630.228	17.66
630.419	17.73
630.609	17.68
630.8	17.62
630.99	17.35
631.181	17.29
631.371	17.47
631.561	17.5
631.752	17.36
631.942	17.14
632.132	16.9
632.323	16.83
632.513	16.89
632.703	16.94
632.893	17.45
633.084	17.47
633.274	17.73
633.464	17.24
633.654	17.24
633.844	17.33
634.034	17.57
634.225	17.65
634.415	17.81
634.605	17.88
634.795	18.29
634.985	18.17
635.175	18.26
635.365	17.99
635.555	18.47
635.745	18.24
635.935	18.13
636.125	17.87
636.315	17.83
636.505	17.84
636.695	18.2
636.885	17.79
637.075	17.27
637.265	17.24
637.455	17.47
637.644	17.14
637.834	17.34
638.024	17.63
638.214	17.71
638.404	17.68
638.593	17.7
638.783	17.56
638.973	17.71
639.163	17.43
639.352	17.36
639.542	17.15
639.732	17.03
639.921	16.85
640.111	16.55
640.301	16.72
640.49	16.26
640.68	16.04
640.87	15.86
641.059	15.68
641.249	15.85
641.438	15.69
641.628	15.47
641.817	15.99
642.007	15.77
642.196	15.62
642.386	15.81
642.575	16.62
642.764	16.72
642.954	16.88
643.143	17.13
643.333	17.47
643.522	17.46
643.711	17.99
643.901	17.96
644.09	18.07
644.279	18.49
644.469	18.68
644.658	18.26
644.847	18.88
645.036	18.86
645.226	18.45
645.415	18.73
645.604	18.41
645.793	18.19
645.982	18.27
646.171	18.08
646.361	18.04
646.55	17.5
646.739	17.19
646.928	16.13
647.117	15.69
647.306	15.76
647.495	15.58
647.684	16.36
647.873	16.33
648.062	16.6
648.251	16.94
648.44	16.51
648.629	16.55
648.818	17.15
649.007	17.61
649.196	17.81
649.384	18.06
649.573	17.96
649.762	17.91
649.951	17.9
650.14	17.44
650.328	17.43
650.517	18.39
650.706	18.4
650.895	18.49
651.083	18.7
651.272	18.65
651.461	18.68
651.65	19.07
651.838	18.78
652.027	19.12
652.216	19.39
652.404	19.58
652.593	19.14
652.781	18.78
652.97	18.59
653.158	18.09
653.347	18.24
653.535	18.03
653.724	17.24
653.912	17.22
654.101	16.88
654.289	17.17
654.478	16.88
654.666	16.95
654.855	17.5
655.043	17.22
655.231	18.25
655.42	18.18
655.608	18.83
655.796	19.05
655.985	19.36
656.173	19.51
656.361	18.8
656.55	19.12
656.738	19.12
656.926	19.41
657.114	19.23
657.302	18.75
657.491	19.09
657.679	18.46
657.867	18.89
658.055	18.79
658.243	18.64
658.431	18.9
658.619	18.91
658.807	18.45
658.996	18.29
659.184	18.61
659.372	18.62
659.56	18.36
659.748	18.31
659.936	18.01
660.124	18.05
660.311	17.99
660.499	17.99
660.687	17.49
660.875	17.5
661.063	17.55
661.251	17.44
661.439	17.15
661.627	17.03
661.814	17.28
662.002	17.49
662.19	17.7
662.378	18.08
662.565	17.5
662.753	17.7
662.941	18.23
663.129	18.2
663.316	18.47
663.504	18.67
663.692	18.51
663.879	18.3
664.067	17.84
664.254	17.69
664.442	17.25
664.63	17.71
664.817	17.96
665.005	17.51
665.192	17.49
665.38	16.68
665.567	16.97
665.755	17.27
665.942	17.35
666.13	17.91
666.317	17.76
666.504	17.57
666.692	18.07
666.879	17.91
667.067	18.04
667.254	18.08
667.441	18.57
667.629	18.12
667.816	18.23
668.003	18.17
668.19	18.01
668.378	17.67
668.565	17.58
668.752	16.79
668.939	16.77
669.127	17.03
669.314	16.97
669.501	16.96
669.688	17.06
669.875	16.95
670.062	16.87
670.249	16.81
670.436	17.25
670.623	17.37
670.81	17.79
670.997	18.19
671.184	17.79
671.371	17.7
671.558	17.47
671.745	17.26
671.932	17.47
672.119	17.71
672.306	17.71
672.493	17.9
672.68	18.3
672.867	18.58
673.054	18.22
673.24	18.26
673.427	18.09
673.614	19.16
673.801	19.12
673.988	19.43
674.174	19.4
674.361	19.21
674.548	19.06
674.734	18.63
674.921	18.09
675.108	18.28
675.294	18.47
675.481	17.99
675.668	17.54
675.854	18.5
676.041	17.89
676.227	17.92
676.414	17.73
676.601	17.4
676.787	17.89
676.974	17.9
677.16	17.63
677.347	17.78
677.533	18.23
677.719	18.33
677.906	17.71
678.092	18.16
678.279	18.35
678.465	18.84
678.651	18.82
678.838	18.61
679.024	19.09
679.21	19.23
679.397	19.34
679.583	19.33
679.769	18.85
679.955	18.33
680.142	17.92
680.328	17.73
680.514	17.23
680.7	17.64
680.886	17.74
681.073	17.47
681.259	17.56
681.445	17.57
681.631	17.85
681.817	18.24
682.003	18.82
682.189	19.14
682.375	19.18
682.561	19.67
682.747	19.69
682.933	19.49
683.119	19.61
683.305	19.86
683.491	19.3
683.677	18.98
683.863	18.88
684.049	19.01
684.235	18.81
684.42	18.79
684.606	18.56
684.792	18.48
684.978	18.69
685.164	18.75
685.349	18.15
685.535	18.64
685.721	19.3
685.907	18.88
686.092	19
686.278	19.17
686.464	18.79
686.649	18.72
686.835	18.82
687.021	18.43
687.206	17.83
687.392	18.1
687.577	18.35
687.763	17.94
687.948	18.77
688.134	18.9
688.319	18.19
688.505	18.53
688.69	18.2
688.876	17.98
689.061	18.76
689.247	19.28
689.432	19.85
689.618	19.22
689.803	19.04
689.988	18.61
690.174	17.68
690.359	18.66
690.544	18.17
690.73	18.66
690.915	18.93
691.1	18.62
691.285	18.54
691.471	18.05
691.656	18.15
691.841	18.32
692.026	18.24
692.211	19.08
692.396	18.47
692.582	18.72
692.767	19
692.952	18.8
693.137	18.42
693.322	18.69
693.507	18.4
693.692	18.36
693.877	18.33
694.062	18.38
694.247	18.19
694.432	18.67
694.617	19.07
694.802	19.14
694.987	19.77
695.172	20.39
695.357	19.9
695.541	20.18
695.726	20.32
695.911	20.22
696.096	20.19
696.281	20.35
696.466	20.18
696.65	20
696.835	19.65
697.02	18.98
697.204	18.37
697.389	18.15
697.574	18.31
697.759	18.41
697.943	18.71
698.128	18.91
698.312	18.4
698.497	18.11
698.682	17.89
698.866	18.1
699.051	18.13
699.235	18.21
699.42	18.34
699.604	18.15
699.789	18.2
699.973	18.19
700.158	18.09
700.342	18.5
700.527	18.93
700.711	19.42
700.895	19.27
701.08	19.35
701.264	19.46
701.448	19.34
701.633	19.72
701.817	19.21
702.001	19.21
702.186	19.57
702.37	19.66
702.554	19.03
702.738	19.18
702.923	19.17
703.107	19.07
703.291	19.58
703.475	20.65
703.659	20.37
703.843	21.61
704.027	21.48
704.212	20.06
704.396	19
704.58	19.54
704.764	19.11
704.948	19
705.132	18.66
705.316	18.34
705.5	17.45
705.684	18.18
705.868	17.04
706.052	17.11
706.235	17.52
706.419	17.87
706.603	18.05
706.787	18.27
706.971	18.11
707.155	18.54
707.339	18.24
707.522	18.54
707.706	18.03
707.89	18.34
708.074	17.77
708.257	18.45
708.441	19.57
708.625	19.97
708.808	19.41
708.992	19.65
709.176	19.02
709.359	19.17
709.543	19.18
709.727	18.94
709.91	18.95
710.094	19.8
710.277	19.58
710.461	17.92
710.644	17.29
710.828	18.13
711.011	17.55
711.195	17.89
711.378	18.01
711.562	18.19
711.745	17.85
711.928	18.07
712.112	17.07
712.295	16.61
712.478	16.92
712.662	17.07
712.845	16.37
713.028	16.31
713.212	16.3
713.395	16.18
713.578	16.68
713.761	17.18
713.945	17.01
714.128	17.63
714.311	17.89
714.494	18.8
714.677	18.99
714.86	19.59
715.043	20.25
715.227	20.19
715.41	20.34
715.593	20.4
715.776	20.36
715.959	19.56
716.142	20.07
716.325	20.57
716.508	20.18
716.691	19.76
716.874	19.57
717.057	19.43
717.239	19.8
717.422	19.92
717.605	18.95
717.788	19.03
717.971	20.68
718.154	19.64
718.337	19.34
718.519	19.55
718.702	19.47
718.885	19.09
719.068	19.48
719.25	18.89
719.433	18.94
719.616	19.8
719.798	18.91
719.981	17.17
720.164	18.22
720.346	18.48
720.529	18.78
720.712	18.68
720.894	18.66
721.077	18.34
721.259	19.12
721.442	19.09
721.624	18.99
721.807	19.63
721.989	21.26
722.172	20.75
722.354	19.65
722.537	17.69
722.719	17.64
722.901	17.9
723.084	19.51
723.266	18.73
723.448	18.46
723.631	18.07
723.813	18.43
723.995	17.9
724.178	17.58
724.36	18.3
724.542	20.43
724.724	20.65
724.907	21.23
725.089	19.84
725.271	19.69
725.453	19.66
725.635	19.04
725.817	18.25
725.999	18.76
726.181	19.65
726.364	18.81
726.546	19.2
726.728	19.94
726.91	19.38
727.092	18.94
727.274	19
727.456	18.8
727.638	19.53
727.819	20.82
728.001	20.36
728.183	20.01
728.365	20.24
728.547	20.09
728.729	19.77
728.911	19.62
729.093	19.57
729.274	19.36
729.456	20.34
729.638	19.86
729.82	19.55
730.001	19.6
730.183	19.6
730.365	20.27
730.546	19.71
730.728	20.37
730.91	20.03
731.091	20.68
731.273	20.27
731.455	19.35
731.636	20.28
731.818	19.25
731.999	19.45
732.181	19.41
732.362	19.06
732.544	18.28
732.725	17.05
732.907	17.37
733.088	17.06
733.27	18.76
733.451	18.66
733.633	18.02
733.814	19.76
733.995	20.01
734.177	20.38
734.358	20.55
734.539	21.15
734.721	21.07
734.902	21.67
735.083	20.82
735.264	19.35
735.446	19.5
735.627	18.4
735.808	16.44
735.989	14.89
736.17	14.14
736.351	12.67
736.533	12.8
736.714	13.13
736.895	11.16
737.076	13.04
737.257	14.91
737.438	14.25
737.619	15.35
737.8	16.43
737.981	17.92
738.162	17.59
738.343	18.67
738.524	17.88
738.705	18.41
738.886	19.83
739.067	18.84
739.247	17.82
739.428	18.49
739.609	18.44
739.79	17.08
739.971	16.93
740.151	16.99
740.332	16.52
740.513	18.16
740.694	17.54
740.874	16.91
741.055	17.9
741.236	17.31
741.417	18.04
741.597	17.49
741.778	18.84
741.958	17.72
742.139	19.41
742.32	19.61
742.5	18.77
742.681	19.25
742.861	20.19
743.042	18.66
743.222	19.7
743.403	19.65
743.583	19.48
743.764	18.84
743.944	19.17
744.124	18.3
744.305	17.65
744.485	16.53
744.666	17.03
744.846	16.08
745.026	16.72
745.207	15.53
745.387	14.41
745.567	14.81
745.747	15.42
745.928	15.39
746.108	14.13
746.288	16.15
746.468	17.71
746.648	16.75
746.829	17.88
747.009	17.19
747.189	18.95
747.369	18.43
747.549	18.73
747.729	18.94
747.909	18.98
748.089	20.58
748.269	19.62
748.449	19.92
748.629	21.47
748.809	19.29
748.989	20.34
749.169	18.98
749.349	19.47
749.529	18.15
749.709	17.63
749.889	18.35
750.068	16.66
750.248	17.92
750.428	17.51
750.608	14.63
750.788	14.99
750.967	15.72
751.147	17.07
751.327	17
751.507	18.14
751.686	17.72
751.866	16.57
752.046	15.75
752.225	14.33
752.405	14.27
752.585	15.82
752.764	16.18
752.944	14.39
753.123	13.99
753.303	14.21
753.482	13.95
753.662	15.2
753.841	16.86
754.021	18.17
754.2	18.08
754.38	17.65
754.559	17.74
754.739	17.84
754.918	18.88
755.097	19.87
755.277	19.46
755.456	20.25
755.635	19.01
755.815	16.48
755.994	16.42
756.173	16.31
756.352	17.28
756.532	17.43
756.711	17.78
756.89	17.42
757.069	17.14
757.248	17.71
757.427	16.64
757.607	16.64
757.786	18.03
757.965	17.65
758.144	17.91
758.323	16.32
758.502	15.86
758.681	17.15
758.86	17.36
759.039	17.13
759.218	16.28
759.397	16.57
759.576	15.29
759.755	15.69
759.934	16.01
760.113	17.29
760.291	16.81
760.47	17.87
760.649	16.75
760.828	16.65
761.007	14.93
761.186	15.95
761.364	15.74
761.543	17.62
761.722	17.39
761.901	17.77
762.079	17.56
762.258	19.55
762.437	19.77
762.615	20.81
762.794	20.85
762.972	21.49
763.151	20.96
763.33	20.78
763.508	20.94
763.687	21.04
763.865	20.84
764.044	20.05
764.222	19.59
764.401	18.45
764.579	17.62
764.758	17.98
764.936	18.57
765.114	19.17
765.293	19.99
765.471	20.76
765.65	20.01
765.828	20.94
766.006	21.26
766.184	21.41
766.363	23.08
766.541	23.29
766.719	22.32
766.898	21.76
767.076	21.4
767.254	21.17
767.432	19.44
767.61	21.06
767.788	19.84
767.967	20.32
768.145	19.45
768.323	16.9
768.501	16.19
768.679	16.54
768.857	15.55
769.035	16.09
769.213	17.02
769.391	17.4
769.569	16.4
769.747	17.72
769.925	17.49
770.103	17.2
770.281	19.42
770.459	20.23
770.636	20.1
770.814	21.95
770.992	21.3
771.17	19.44
771.348	21
771.525	20.56
771.703	20.32
771.881	19.33
772.059	21.04
772.236	19.43
772.414	19.27
772.592	19.09
772.769	19.17
772.947	18.82
773.125	19.38
773.302	16.26
773.48	16.68
773.657	14.34
773.835	14.33
774.013	14.57
774.19	15.93
774.368	14.64
774.545	16.72
774.723	15.12
774.9	14.19
775.077	17.01
775.255	20.43
775.432	20.52
775.61	19.58
775.787	21.64
775.964	21.8
776.142	18.96
776.319	21.28
776.496	19.71
776.674	21.93
776.851	24.13
777.028	21.34
777.205	19.52
777.382	18.32
777.56	21.22
777.737	20.16
777.914	18.75
778.091	20.23
778.268	18.56
778.445	16.81
778.622	15.19
778.8	16.13
778.977	14.84
779.154	13.83
779.331	13.85
779.508	15.68
779.685	17.45
779.862	17.64
780.038	19.45
780.215	19.02
780.392	19.7
780.569	20.43
780.746	20.06
780.923	24.8
781.1	26.75
781.277	28.58
781.453	26.15
781.63	23.84
781.807	22.22
781.984	20.26
782.16	22.02
782.337	21.23
782.514	19.83
782.691	20.34
782.867	16.69
783.044	18.48
783.221	15.57
783.397	13.89
783.574	13.15
783.75	14.56
783.927	16.93
784.103	18.64
784.28	21.47
784.456	20.24
784.633	18.46
784.809	19.81
784.986	17.41
785.162	18.7
785.339	20.93
785.515	22.42
785.692	22.55
785.868	19.7
786.044	17.98
786.221	18.18
786.397	21.51
786.573	20.49
786.749	20.29
786.926	19.93
787.102	17
787.278	18.14
787.454	15.86
787.631	17.08
787.807	19.21
787.983	19.91
788.159	17.61
788.335	15.78
788.511	16.95
788.687	15.87
788.863	16.32
789.039	19.73
789.216	17.62
789.392	18.73
789.568	17.69
789.744	16.52
789.919	15.08
790.095	14.49
790.271	17.12
790.447	14.68
790.623	16.94
790.799	16.32
790.975	15.72
791.151	17.62
791.327	17.95
791.502	13.51
791.678	15.37
791.854	16.63
792.03	16.07
792.205	13.39
792.381	13.59
792.557	12.08
792.733	9.31
792.908	8.79
793.084	5.32
793.259	6.28
793.435	11.25
793.611	9.41
793.786	10.12
793.962	14.61
794.137	18.63
794.313	21.49
794.488	20.24
794.664	22.13
794.839	22.28
795.015	26.4
795.19	21.72
795.366	22.57
795.541	23.03
795.716	21.12
795.892	20.21
796.067	15.92
796.242	13.5
796.418	11.89
796.593	13.04
796.768	15.19
796.944	11.89
797.119	17.68
797.294	16.69
797.469	13.79
797.644	15.12
797.82	15.01
797.995	17.06
798.17	18.29
798.345	20.36
798.52	19.78
798.695	20.25
798.87	21.11
799.045	18.51
799.22	18.23
799.395	20.6
799.57	19.98
799.745	18.64
799.92	19.16
800.095	17.88
800.27	18.34
800.445	15.86
800.62	13.39
800.795	11.58
800.97	12.41
801.145	8.23
801.319	6.16
801.494	7.6
801.669	12.9
801.844	10.67
802.018	12.1
802.193	13.66
802.368	13.54
802.543	10.23
802.717	10.53
802.892	12.08
803.067	14.23
803.241	15.7
803.416	11.62
803.59	10.35
803.765	8.91
803.94	8.48
804.114	7.87
804.289	10.61
804.463	11.2
804.638	11.32
804.812	7.31
804.986	8.05
805.161	5.19
805.335	8.14
805.51	6.74
805.684	12.16
805.858	14.12
806.033	11.28
806.207	11.77
806.381	11.94
806.556	11.08
806.73	12.15
806.904	13.8
807.078	15.43
807.253	17.82
807.427	16.84
807.601	13.16
807.775	11.63
807.949	11.47
808.123	9.48
808.298	10.93
808.472	11.79
808.646	16.27
808.82	15.69
808.994	18.27
809.168	14.53
809.342	12.21
809.516	14.92
809.69	15.87
809.864	19.25
810.038	20.91
810.212	23.26
810.385	27.44
810.559	20.52
810.733	20.58
810.907	17.76
811.081	16.85
811.255	19
811.428	17.29
811.602	15.67
811.776	14
811.95	12.02
812.123	8.08
812.297	0.41
812.471	8.49
812.644	9.26
812.818	13.46
812.992	13.34
813.165	15.81
813.339	15.98
813.512	18.31
813.686	17.59
813.86	15.18
814.033	13.77
814.207	18.93
814.38	20.06
814.554	18.05
814.727	18.34
814.9	19.8
815.074	15.65
815.247	11.93
815.421	10.55
815.594	10.84
815.767	14.3
815.941	13.99
816.114	13.98
816.287	12.89
816.46	13.51
816.634	11.97
816.807	9.13
816.98	7.49
817.153	11.16
817.327	11.64
817.5	11.82
817.673	6.56
817.846	6.79
818.019	4.9
818.192	2.88
818.365	-0.5
818.538	-4.34
818.711	-5.25
818.884	-3.73
819.057	-8.1
819.23	-7.12
819.403	-8.49
819.576	0.49
819.749	10.5
819.922	6.22
820.095	6.26
820.268	9.31
820.441	12.95
820.614	16.98
820.786	19.45
820.959	22.3
821.132	21.84
821.305	23.39
821.477	21.38
821.65	20
821.823	21.57
821.996	22.64
822.168	22.99
822.341	22.95
822.514	22.67
822.686	22.99
822.859	22.72
823.031	23.33
823.204	23.12
823.376	24.03
823.549	24.27
823.722	24.32
823.894	24.62
824.067	24.05
824.239	23.93
824.411	23.76
824.584	23.78
824.756	24.08
824.929	23.92
825.101	24.43
825.273	23.87
825.446	23.18
825.618	23.45
825.79	22.71
825.963	23.64
826.135	24.84
826.307	24.79
826.479	23.41
826.652	22.93
826.824	21.28
826.996	20.56
827.168	19.88
827.34	20.72
827.512	21.64
827.684	19.77
827.856	20.11
828.029	19.15
828.201	17.63
828.373	16.42
828.545	17.11
828.717	17.81
828.889	18.11
829.061	17.94
829.232	16.23
829.404	15.13
829.576	15.39
829.748	13.94
829.92	14.25
830.092	15.21
830.264	18.22
830.436	18.63
830.607	21.53
830.779	23.06
830.951	25.21
831.123	25.39
831.294	28.66
831.466	31.67
831.638	31.1
831.809	30.24
831.981	30.56
832.153	26.87
832.324	24.07
832.496	23.17
832.667	20.79
832.839	20.99
833.011	24.08
833.182	16.89
833.354	14.97
833.525	14.91
833.697	12.83
833.868	16.69
834.039	21.68
834.211	22.68
834.382	22.14
834.554	21.53
834.725	18.04
834.896	12.54
835.068	13.38
835.239	11.93
835.41	12.28
835.581	11.29
835.753	8.97
835.924	8.18
836.095	9.34
836.266	11.73
836.438	14.96
836.609	17.66
836.78	25.69
836.951	27.16
837.122	29.14
837.293	29.52
837.464	33.45
837.635	34.28
837.806	34.18
837.977	35.94
838.148	27.07
838.319	25.3
838.49	24.7
838.661	22.31
838.832	22.87
839.003	19.55
839.174	17.63
839.345	12.11
839.516	12.57
839.687	2.55
839.857	2.28
840.028	8.4
840.199	4.88
840.37	2.82
840.54	1.58
840.711	3.09
840.882	14.38
841.053	16.07
841.223	19.36
841.394	11.67
841.564	18.62
841.735	12.27
841.906	8.91
842.076	7.55
842.247	14
842.417	12.77
842.588	17.7
842.758	14.01
842.929	10.27
843.099	12.07
843.27	17.16
843.44	15.08
843.611	13.82
843.781	13.5
843.951	10.27
844.122	7.86
844.292	9.05
844.462	2.81
844.633	-5.38
844.803	-0.08
844.973	-6.15
845.144	-3.17
845.314	12.53
845.484	19.43
845.654	17.43
845.824	24.47
845.995	20.02
846.165	16.14
846.335	12.27
846.505	5.26
846.675	6.26
846.845	6.04
847.015	3.18
847.185	-42.28
847.355	-32.21
847.525	-37.52
847.695	-46.74
847.865	-32.57
848.035	-28.52
848.205	-19.75
848.375	-8.58
848.545	-23.2
848.715	-15.28
848.884	-22.39
849.054	-4.6
849.224	2.88
849.394	15.27
849.564	20.89
849.733	14.37
849.903	14.65
850.073	19.05
850.243	12.32
850.412	27.09
850.582	27.71
850.752	42.36
850.921	38.3
851.091	34.86
851.26	39.17
851.43	26.03
851.599	38.61
851.769	37.45
851.939	39.9
852.108	47.26
852.278	34.72
852.447	34.6
852.616	25.45
852.786	25.07
852.955	18.71
853.125	7.42
853.294	-3.72
853.463	-25.34
853.633	-23.96
853.802	-52.92
853.971	-41.64
854.141	-17.8
854.31	-17.97
854.479	-8.92
854.648	-11.85
854.818	-1.35
854.987	-8.16
855.156	12.99
855.325	14.11
855.494	5.57
855.663	-8.93
855.832	-39.21
856.001	-40.55
856.171	-45.23
856.34	-28.08
856.509	-18.3
856.678	-26.99
856.847	-12.41
857.016	-20.48
857.185	-23.16
857.353	-12.8
857.522	1.9
857.691	-0.5
857.86	3.69
858.029	39
858.198	19.14
858.367	25.14
858.535	23.03
858.704	26.94
858.873	33.34
859.042	37.22
859.21	35.88
859.379	43.23
859.548	49.89
859.717	44.37
859.885	43.76
860.054	51.52
860.222	43.72
860.391	36.66
860.56	27.6
860.728	20.87
860.897	24.75
861.065	28.07
861.234	16.23
861.402	24.22
861.571	34.51
861.739	18.48
861.908	15.33
862.076	4.42
862.244	2.95
862.413	-9.92
862.581	5.94
862.749	13.63
862.918	13.91
863.086	1
863.254	-77.43
863.423	-86.48
863.591	-61.65
863.759	-77.92
863.927	-43.56
864.096	-52.81
864.264	-45.21
864.432	-64.25
864.6	-101.14
864.768	-100.25
864.936	-54.51
865.104	-37.09
865.272	-34.62
865.44	-29.78
865.608	-34.22
865.776	-50.15
865.944	-18.69
866.112	-2.15
866.28	-3.6
866.448	-13.93
866.616	-33.42
866.784	-29.36
866.952	-6.01
867.12	8.24
867.288	2.92
867.455	-10.69
867.623	21.09
867.791	26.31
867.959	14.24
868.127	27.8
868.294	42.59
868.462	50.31
868.63	44.45
868.797	42.46
868.965	30.77
869.133	20.99
869.3	31.45
869.468	6.51
869.636	-20.85
869.803	-12.78
869.971	-5.87
870.138	15.86
870.306	17.36
870.473	9.78
870.641	-31.64
870.808	-36.95
870.975	-34.1
871.143	-45.32
871.31	-28.01
871.478	-5.81
871.645	0.87
871.812	2.75
871.98	0.68
872.147	4.99
872.314	13.27
872.482	30.36
872.649	37.87
872.816	24.89
872.983	28.83
873.15	9.94
873.318	-3.42
873.485	-6.86
873.652	-21.43
873.819	-51.54
873.986	-43.04
874.153	-45.95
874.32	-43.74
874.487	-61.65
874.654	-34.02
874.821	-29.04
874.988	-3.15
875.155	-6.87
875.322	-4.88
875.489	-11.6
875.656	-11.93
875.823	-17.8
875.99	-23.49
876.157	-19.08
876.324	-8.67
876.49	-10.45
876.657	-16.62
876.824	-21.7
876.991	-8.1
877.157	-42.17
877.324	9.74
877.491	-3.41
877.658	-20.19
877.824	-15.6
877.991	-33.19
878.157	-42.76
878.324	-28.87
878.491	-12.92
878.657	-7.68
878.824	-35.85
878.99	-11.14
879.157	-13.65
879.323	3.59
879.49	3.56
879.656	4.01
879.823	8.18
879.989	6.67
880.156	-14.29
880.322	-16.49
880.488	-17.4
880.655	11.97
880.821	3.14
880.987	10.05
881.154	11.8
881.32	15.37
881.486	14.14
881.652	17.33
881.819	14.59
881.985	27.87
882.151	30.75
882.317	35.77
882.483	30.37
882.649	33.17
882.816	24.56
882.982	25
883.148	24.95
883.314	23.53
883.48	23.49
883.646	27.06
883.812	27.49
883.978	27.65
884.144	25.79
884.31	26.87
884.476	26.48
884.642	26.87
884.807	26.86
884.973	26.62
885.139	27.59
885.305	29.27
885.471	28.43
885.637	23.65
885.802	22.84
885.968	20.59
886.134	15.84
886.3	18.78
886.465	22.44
886.631	17.27
886.797	15.95
886.962	20.17
887.128	19.9
887.293	16.81
887.459	12.64
887.625	9.01
887.79	12.64
887.956	16.52
888.121	7.41
888.287	1.04
888.452	6.2
888.618	7.52
888.783	-16.25
