Data from 2937826_Reflection_2.txt Node
Date: Wed Jul 15 17:02:22 EDT 2015
User: robert
Spectrometer: USB4E03001
Autoset integration time: false
Trigger mode: 4
Integration Time (sec): 1.000000E-1
Scans to average: 10
Electric dark correction enabled: true
Nonlinearity correction enabled: false
Boxcar width: 5
Stray light correction enabled: false
XAxis mode: Wavelengths
Stop averaging: false
Number of Pixels in Spectrum: 3648
>>>>>Begin Spectral Data<<<<<
177.566	36.58
177.785	24
178.005	46.65
178.225	28.17
178.445	59.52
178.665	53.76
178.885	107.06
179.105	10.7
179.324	12.51
179.544	19.63
179.764	46.01
179.984	45.06
180.204	49.51
180.423	49.88
180.643	43.57
180.863	64.72
181.083	76.54
181.302	88.6
181.522	93.12
181.742	95.75
181.961	91.28
182.181	123.89
182.401	116.85
182.621	133.15
182.84	146.59
183.06	152.78
183.279	177.37
183.499	159.06
183.719	132.44
183.938	184.68
184.158	210
184.377	267.48
184.597	253.04
184.816	322.59
185.036	315.97
185.256	1238.41
185.475	788.41
185.695	471.76
185.914	932.18
186.134	841.24
186.353	573.28
186.572	444.61
186.792	378.11
187.011	284.76
187.231	209.86
187.45	191.3
187.67	136.45
187.889	127.03
188.108	121.33
188.328	99.32
188.547	119.88
188.766	55.31
188.986	66.09
189.205	79.96
189.424	69.64
189.644	64.25
189.863	66.89
190.082	43.94
190.302	75.43
190.521	57.46
190.74	118.03
190.959	83.28
191.178	129.54
191.398	107.87
191.617	108.46
191.836	138.12
192.055	178.52
192.274	183.17
192.494	132.36
192.713	106.81
192.932	96.59
193.151	97.38
193.37	107.13
193.589	110.39
193.808	135.49
194.027	143.55
194.246	106.53
194.465	99.47
194.685	96.04
194.904	81.72
195.123	118.77
195.342	154.17
195.561	242.03
195.78	703.83
195.999	234.68
196.218	358.85
196.436	870.11
196.655	-936.07
196.874	-2952.88
197.093	-654.15
197.312	-653.38
197.531	725.3
197.75	599.28
197.969	270.3
198.188	241.67
198.407	191.94
198.625	150.9
198.844	130.61
199.063	119.63
199.282	145.77
199.501	139.06
199.719	117.48
199.938	139.48
200.157	142.69
200.376	132.57
200.594	118.93
200.813	150.77
201.032	185.13
201.251	192.05
201.469	209.12
201.688	254.65
201.907	229.72
202.125	210.19
202.344	233.64
202.563	208.85
202.781	328.62
203	241.88
203.218	268.8
203.437	188.93
203.656	178.9
203.874	162.6
204.093	151.96
204.311	124.37
204.53	109.56
204.748	80.25
204.967	86.9
205.185	72.06
205.404	831.11
205.622	-935.78
205.841	9034.88
206.059	-377.95
206.278	1629.7
206.496	-237.85
206.715	-141.57
206.933	-200.71
207.151	-720.31
207.37	-576.57
207.588	453.32
207.806	198.42
208.025	209.49
208.243	178.65
208.461	131.5
208.68	108.84
208.898	120.52
209.116	108.3
209.335	99.68
209.553	106.67
209.771	113.68
209.989	127.09
210.208	141.57
210.426	118
210.644	110.63
210.862	94.7
211.081	107.7
211.299	77.69
211.517	73.05
211.735	84.87
211.953	69.14
212.171	50.94
212.39	53.73
212.608	59.23
212.826	61.4
213.044	64.14
213.262	110.11
213.48	97.78
213.698	299.75
213.916	-93.41
214.134	27.67
214.352	-108.76
214.57	187.06
214.788	95.75
215.006	174.68
215.224	36.89
215.442	66.87
215.66	61.94
215.878	4.69
216.096	84.63
216.314	70.2
216.532	61.33
216.75	17.83
216.968	68
217.185	80.95
217.403	67.5
217.621	27.28
217.839	29.76
218.057	31.94
218.275	59.08
218.492	61.08
218.71	53.49
218.928	73.35
219.146	96.33
219.363	127.83
219.581	122.19
219.799	171.18
220.017	285.71
220.234	313.24
220.452	681.25
220.67	-1299.78
220.887	-324.18
221.105	-218.14
221.323	-217.37
221.54	-79.86
221.758	-82.55
221.976	-193.13
222.193	-273.5
222.411	183.77
222.629	217.92
222.846	767.19
223.064	938.57
223.281	516.55
223.499	425.42
223.716	-455.58
223.934	2039.87
224.151	-406.16
224.369	-141.41
224.586	-132.22
224.804	-135.64
225.021	-182.83
225.239	-246.12
225.456	-405.32
225.674	-350.27
225.891	-347.72
226.108	3659.91
226.326	-6423.74
226.543	12474.39
226.76	-1102.83
226.978	-2328.23
227.195	-605.92
227.413	-455.84
227.63	-257.76
227.847	-113.61
228.064	-67.62
228.282	-37.01
228.499	-23.94
228.716	-17.96
228.934	-17.9
229.151	-14.35
229.368	-15.03
229.585	-9.07
229.802	-1.88
230.02	-2.1
230.237	-3.83
230.454	-6.59
230.671	-11.53
230.888	-15.54
231.105	-17.44
231.323	-16.06
231.54	-12.6
231.757	-2.96
231.974	-7.5
232.191	-20.87
232.408	-26.64
232.625	-30.32
232.842	-24.34
233.059	-18.4
233.276	-15.55
233.493	-11.54
233.71	-16.6
233.927	-30.31
234.144	-24.11
234.361	-21.95
234.578	-7.06
234.795	-1.89
235.012	-4.76
235.229	-16.3
235.446	-29.1
235.663	-31.54
235.879	-48.03
236.096	-56.93
236.313	-51.3
236.53	-76.19
236.747	-70.02
236.964	-82.64
237.181	-74.35
237.397	-62.28
237.614	-51.64
237.831	-51.76
238.048	-57.56
238.264	-38.9
238.481	-21.44
238.698	-13.8
238.915	0.38
239.131	-5.07
239.348	-3.6
239.565	-5.68
239.781	3.15
239.998	2.59
240.215	5.92
240.431	9.23
240.648	8.47
240.865	7.84
241.081	8.69
241.298	10.35
241.514	10.61
241.731	11.07
241.947	9.49
242.164	9.72
242.38	8.46
242.597	9.72
242.814	9.24
243.03	10.63
243.246	10.75
243.463	10.34
243.679	6.55
243.896	4.69
244.112	1.69
244.329	2.12
244.545	-1.71
244.762	-1.3
244.978	-2.04
245.194	-2
245.411	-1.78
245.627	-0.92
245.843	-2.14
246.06	3.58
246.276	8
246.492	9.65
246.709	10.43
246.925	11.95
247.141	11.55
247.357	10.37
247.574	9.23
247.79	8.15
248.006	8.53
248.222	8.43
248.439	6.26
248.655	4.23
248.871	4.67
249.087	4.22
249.303	1.56
249.519	0.83
249.736	0.47
249.952	-2.47
250.168	-0.98
250.384	-2.93
250.6	0.74
250.816	0.16
251.032	1.15
251.248	-2.52
251.464	-6.5
251.68	-5.5
251.896	-5.2
252.112	-5.66
252.328	-0.68
252.544	-1.49
252.76	-2.16
252.976	-4.91
253.192	-1.62
253.408	-1.43
253.624	1.43
253.84	5.02
254.056	6.13
254.272	8.74
254.487	8.64
254.703	9.16
254.919	7.66
255.135	8.66
255.351	8.27
255.567	0.82
255.782	2.32
255.998	-2.59
256.214	-0.35
256.43	-0.51
256.646	1.03
256.861	1.45
257.077	2.45
257.293	0.93
257.508	1.11
257.724	0.96
257.94	2.38
258.155	2
258.371	1.72
258.587	3.43
258.802	5.34
259.018	5.8
259.234	8.04
259.449	8.21
259.665	8.97
259.88	8.21
260.096	8.1
260.312	8.81
260.527	8.58
260.743	9.59
260.958	8.01
261.174	7.15
261.389	6.26
261.605	5.93
261.82	5.35
262.036	4.66
262.251	6
262.466	6.58
262.682	5.04
262.897	3.95
263.113	1.86
263.328	-0.12
263.543	-2.5
263.759	-2.58
263.974	-6.62
264.189	-7.96
264.405	-6.48
264.62	-5.61
264.835	-7.17
265.051	-4.92
265.266	-2.36
265.481	0.26
265.696	3.38
265.912	5.78
266.127	6.18
266.342	7.11
266.557	7.73
266.773	6.69
266.988	4.94
267.203	5.81
267.418	4.42
267.633	4.46
267.848	4.32
268.064	4.57
268.279	5.54
268.494	4.66
268.709	5.07
268.924	7.35
269.139	7.67
269.354	6.48
269.569	5.55
269.784	5.56
269.999	4.03
270.214	3.51
270.429	2
270.644	-0.02
270.859	0.32
271.074	1.99
271.289	1.42
271.504	2.03
271.719	3.34
271.934	3.69
272.149	4.81
272.363	4.75
272.578	5.8
272.793	6.43
273.008	6.97
273.223	6.83
273.438	4.32
273.653	1.61
273.867	1.18
274.082	-1.22
274.297	-0.79
274.512	-2.61
274.726	-1.64
274.941	-2.59
275.156	-1.54
275.371	-3.6
275.585	-1.62
275.8	0.83
276.015	2.02
276.229	-1.15
276.444	0.76
276.659	-1.51
276.873	1.15
277.088	-0.3
277.302	-1.1
277.517	-2.85
277.732	1.06
277.946	-0.72
278.161	-2.92
278.375	-2.68
278.59	1.77
278.804	0.76
279.019	2.18
279.233	0
279.448	1.4
279.662	2.3
279.877	0.99
280.091	-0.89
280.306	-2.54
280.52	-3.97
280.735	-3.28
280.949	-4.78
281.163	-1.81
281.378	-1.86
281.592	-0.48
281.806	0.05
282.021	2.77
282.235	5.2
282.449	5.45
282.664	5.29
282.878	7.77
283.092	7.9
283.307	9.35
283.521	8.76
283.735	9.39
283.949	9.1
284.164	9.9
284.378	7.85
284.592	7.95
284.806	8.27
285.02	9.42
285.234	9.26
285.449	9.45
285.663	7.89
285.877	8.7
286.091	7.68
286.305	8.07
286.519	7.94
286.733	6.29
286.947	6.38
287.161	5.22
287.375	6.69
287.589	6.48
287.803	6.82
288.017	7.74
288.231	5.94
288.445	7.31
288.659	7.2
288.873	5.82
289.087	8.3
289.301	7.12
289.515	8.66
289.729	6.14
289.943	7.84
290.157	8.76
290.371	9.56
290.584	10.06
290.798	10.75
291.012	9.87
291.226	11.05
291.44	10.56
291.654	12.82
291.867	11.81
292.081	11.8
292.295	12.09
292.509	8.77
292.722	7.93
292.936	8.66
293.15	8.44
293.364	7.77
293.577	7.68
293.791	5.67
294.005	3.53
294.218	5.11
294.432	3.95
294.645	0.74
294.859	2.04
295.073	1.21
295.286	0.5
295.5	-0.34
295.713	3.35
295.927	1.98
296.14	5.59
296.354	5.15
296.568	4.93
296.781	7.98
296.994	10.44
297.208	12.37
297.421	13.45
297.635	13.21
297.848	13.07
298.062	11.21
298.275	11.65
298.489	11.05
298.702	12.87
298.915	13.07
299.129	12.03
299.342	11.72
299.555	8.61
299.769	9.05
299.982	11.64
300.195	12.17
300.409	12.94
300.622	14.92
300.835	13.54
301.048	11.67
301.262	10.79
301.475	10.19
301.688	10.09
301.901	10.82
302.115	10.03
302.328	8.24
302.541	8.75
302.754	5.42
302.967	4.13
303.18	4.98
303.393	6.56
303.607	6.41
303.82	8.1
304.033	8.65
304.246	10.66
304.459	11.35
304.672	11.66
304.885	12.11
305.098	13.25
305.311	11.12
305.524	11.68
305.737	10.89
305.95	11.09
306.163	10.46
306.376	12.65
306.589	13.24
306.802	11.75
307.015	11.19
307.228	9.92
307.44	11.97
307.653	16.16
307.866	15.9
308.079	16.33
308.292	15.73
308.505	16.13
308.718	15.62
308.93	15
309.143	16.24
309.356	16.1
309.569	16.99
309.781	19.85
309.994	18.69
310.207	17.84
310.42	17.7
310.632	19.81
310.845	18.82
311.058	17.49
311.27	15.95
311.483	14.31
311.696	15.14
311.908	14.64
312.121	10.84
312.333	9.68
312.546	9.52
312.759	8.49
312.971	6.4
313.184	7.13
313.396	6.68
313.609	9.04
313.821	10.24
314.034	9.32
314.246	9.84
314.459	11.64
314.671	12.15
314.884	11.82
315.096	12.37
315.309	13.08
315.521	12.03
315.733	10.84
315.946	9.74
316.158	10.13
316.371	11.28
316.583	12.56
316.795	10.54
317.008	9.85
317.22	12.78
317.432	12.13
317.644	13.32
317.857	15.02
318.069	15.56
318.281	15.31
318.494	15
318.706	14.06
318.918	11.83
319.13	13.72
319.342	14.02
319.555	11.55
319.767	13.42
319.979	10.36
320.191	11.27
320.403	9.14
320.615	11
320.827	12.17
321.039	11.28
321.252	11.68
321.464	12.01
321.676	11.6
321.888	12.5
322.1	10.75
322.312	12.68
322.524	12.04
322.736	15.02
322.948	13.2
323.16	13.81
323.372	13.09
323.584	13.4
323.796	16.14
324.007	16.32
324.219	13.06
324.431	11.98
324.643	11.71
324.855	11.06
325.067	10.24
325.279	11.83
325.491	9.88
325.702	11.86
325.914	10.94
326.126	8.2
326.338	7.86
326.55	11.04
326.761	11.41
326.973	12.13
327.185	11.65
327.396	11.65
327.608	8.65
327.82	10.78
328.032	8.83
328.243	9.43
328.455	9.35
328.666	11.1
328.878	12.08
329.09	11.79
329.301	11.52
329.513	11.73
329.725	11.06
329.936	15.3
330.148	14.54
330.359	15.59
330.571	15.4
330.782	14.97
330.994	14.21
331.205	14.4
331.417	15.76
331.628	16.69
331.84	18.18
332.051	18.89
332.262	16.62
332.474	16.8
332.685	17.99
332.897	18.76
333.108	19.37
333.319	20.34
333.531	19.68
333.742	20.32
333.953	21.14
334.165	22.14
334.376	22.89
334.587	24.02
334.799	21.95
335.01	20.05
335.221	18.3
335.432	18.93
335.644	17.82
335.855	18.24
336.066	18.85
336.277	18.3
336.488	17.5
336.7	18.66
336.911	17.61
337.122	18.94
337.333	20.61
337.544	21.51
337.755	21.84
337.966	21.61
338.177	20.07
338.388	19.7
338.599	19.72
338.811	19.69
339.022	17.69
339.233	19.03
339.444	18.17
339.655	17.79
339.866	18.35
340.076	17.61
340.287	18.86
340.498	20.98
340.709	21.19
340.92	20.78
341.131	20.43
341.342	22.33
341.553	19.52
341.764	19.32
341.975	18.74
342.185	19.63
342.396	19.95
342.607	18.54
342.818	17.28
343.029	16.37
343.239	16.39
343.45	15.08
343.661	13.72
343.872	15.37
344.082	18.39
344.293	18.36
344.504	19.27
344.714	18.82
344.925	19.25
345.136	19.7
345.346	18.92
345.557	19.13
345.768	20.47
345.978	19.74
346.189	20.45
346.399	18.4
346.61	19.09
346.821	18.05
347.031	18.94
347.242	19.32
347.452	18.33
347.663	19.35
347.873	19.05
348.084	19.63
348.294	21.72
348.504	20.28
348.715	21.87
348.925	22.96
349.136	23.94
349.346	22.15
349.557	22.59
349.767	23.82
349.977	23.56
350.188	23.76
350.398	23.55
350.608	22.8
350.819	23.2
351.029	21.86
351.239	20.87
351.449	20.03
351.66	21.99
351.87	20.78
352.08	22.17
352.29	21.62
352.501	21.14
352.711	21.93
352.921	20.54
353.131	20.76
353.341	21.42
353.552	22.56
353.762	21.49
353.972	19.83
354.182	22.26
354.392	21.1
354.602	23.08
354.812	22.89
355.022	22.09
355.232	22.58
355.442	21.85
355.652	21.61
355.862	21.21
356.072	22.37
356.282	22.1
356.492	21.6
356.702	21.75
356.912	20.89
357.122	22.06
357.332	22.46
357.542	22.29
357.752	23.23
357.962	22.86
358.171	22.36
358.381	21.25
358.591	22.91
358.801	22.05
359.011	22.12
359.221	22.9
359.43	21.4
359.64	21.39
359.85	22.7
360.06	22.67
360.269	23.07
360.479	21.87
360.689	22.36
360.899	21.8
361.108	22
361.318	21.44
361.528	21.29
361.737	22.27
361.947	21.62
362.156	21.61
362.366	21.09
362.576	21.38
362.785	22.55
362.995	22.04
363.204	21.24
363.414	20.52
363.623	21.16
363.833	20.61
364.042	20.63
364.252	21.39
364.461	21.02
364.671	22.13
364.88	21.72
365.09	21.54
365.299	22.05
365.509	22.98
365.718	23.56
365.927	22.9
366.137	21.88
366.346	21.93
366.555	21.55
366.765	21.57
366.974	19.87
367.183	20.08
367.393	20.43
367.602	21.08
367.811	19.8
368.021	18.94
368.23	19.09
368.439	19.8
368.648	18.82
368.857	17.87
369.067	17.11
369.276	17.22
369.485	16.42
369.694	15.39
369.903	14.93
370.112	16.52
370.321	16.98
370.531	17.88
370.74	18.45
370.949	18.63
371.158	18.5
371.367	18.66
371.576	19.2
371.785	19.67
371.994	19.26
372.203	18.3
372.412	18.23
372.621	18.18
372.83	17.08
373.039	16.57
373.248	17.12
373.457	17.36
373.666	17.5
373.874	16.9
374.083	16.55
374.292	16.4
374.501	15.97
374.71	14.89
374.919	15.48
375.128	15.47
375.336	15.43
375.545	14.9
375.754	14.92
375.963	14.43
376.171	15.33
376.38	15.16
376.589	15.1
376.798	15.47
377.006	15.67
377.215	15.98
377.424	16.41
377.632	15.34
377.841	15.04
378.05	14.95
378.258	14.76
378.467	13.97
378.675	12.94
378.884	14.1
379.093	14.1
379.301	14.15
379.51	14
379.718	13.13
379.927	14.83
380.135	15.53
380.344	15.23
380.552	15.84
380.761	16.02
380.969	16.86
381.177	16.25
381.386	16.5
381.594	16.33
381.803	15.58
382.011	15.82
382.219	15.61
382.428	14.43
382.636	14.75
382.845	14.62
383.053	14.85
383.261	14.9
383.469	14.69
383.678	14.6
383.886	14.51
384.094	15.02
384.302	14.97
384.511	14.23
384.719	14.61
384.927	14.69
385.135	14.04
385.343	12.8
385.552	12.98
385.76	13.31
385.968	13.13
386.176	12.86
386.384	12.42
386.592	12.4
386.8	12.25
387.008	11.94
387.216	11.38
387.424	11.81
387.633	12.3
387.841	11.77
388.049	11.25
388.257	11.07
388.465	11.07
388.672	10.59
388.88	9.91
389.088	9.75
389.296	9.8
389.504	9.66
389.712	9.58
389.92	9.83
390.128	10.08
390.336	10.06
390.544	10.12
390.751	10.53
390.959	10.78
391.167	11.15
391.375	11.42
391.583	11.25
391.79	11.3
391.998	10.84
392.206	10.81
392.414	10.71
392.621	11.04
392.829	10.86
393.037	10.51
393.244	10.43
393.452	10.67
393.66	10.45
393.867	10.65
394.075	10.6
394.283	10.77
394.49	10.58
394.698	10.24
394.905	10.11
395.113	10.4
395.32	10.15
395.528	10.18
395.735	10.04
395.943	9.97
396.15	9.73
396.358	9.87
396.565	10.08
396.773	10.07
396.98	10.52
397.188	10.27
397.395	10.01
397.602	10.07
397.81	9.96
398.017	10.02
398.225	10.03
398.432	9.83
398.639	9.46
398.847	9.39
399.054	9.14
399.261	8.77
399.468	8.45
399.676	8.55
399.883	9.01
400.09	8.93
400.297	8.9
400.505	8.95
400.712	9.44
400.919	9.38
401.126	9.12
401.333	9.39
401.54	9.44
401.748	9.76
401.955	9.31
402.162	9.19
402.369	9.13
402.576	8.97
402.783	8.78
402.99	8.75
403.197	9.08
403.404	8.99
403.611	8.76
403.818	8.81
404.025	8.36
404.232	8.56
404.439	8.32
404.646	8.42
404.853	8.81
405.06	9.1
405.267	9.06
405.474	9.13
405.681	9.32
405.887	9.67
406.094	9.77
406.301	9.98
406.508	10.49
406.715	10.57
406.922	10.65
407.128	10.26
407.335	9.91
407.542	9.67
407.749	9.77
407.955	9.89
408.162	9.54
408.369	9.4
408.575	9.26
408.782	8.67
408.989	8.61
409.195	8.48
409.402	8.2
409.609	8.34
409.815	8.58
410.022	8.12
410.228	8.12
410.435	8.23
410.642	8.24
410.848	8.43
411.055	8.4
411.261	8.19
411.468	8.21
411.674	8.04
411.881	7.92
412.087	7.75
412.294	8.01
412.5	7.8
412.706	7.81
412.913	8.15
413.119	8.27
413.326	8.29
413.532	8.57
413.738	8.57
413.945	9.06
414.151	9.22
414.357	9.23
414.564	9.18
414.77	9.17
414.976	9.09
415.182	8.8
415.389	8.64
415.595	8.86
415.801	8.95
416.007	9.08
416.214	8.73
416.42	8.53
416.626	8.5
416.832	8.67
417.038	8.91
417.244	9
417.45	9.14
417.657	9.26
417.863	9.22
418.069	9.12
418.275	9.12
418.481	9.14
418.687	9.2
418.893	9.32
419.099	9.28
419.305	9.16
419.511	8.99
419.717	8.93
419.923	8.8
420.129	8.78
420.335	8.96
420.541	8.8
420.746	8.79
420.952	8.89
421.158	8.83
421.364	8.88
421.57	8.74
421.776	8.9
421.982	8.87
422.187	8.94
422.393	8.93
422.599	8.77
422.805	8.98
423.01	9.13
423.216	9.29
423.422	9.28
423.628	9.16
423.833	9.22
424.039	9.25
424.245	9.37
424.45	9.33
424.656	9.37
424.862	9.42
425.067	9.43
425.273	9.4
425.478	9.2
425.684	9.25
425.889	9.28
426.095	9.41
426.301	9.41
426.506	9.29
426.712	9.36
426.917	9.27
427.123	9.25
427.328	9.29
427.533	9.32
427.739	9.32
427.944	9.28
428.15	9.35
428.355	9.27
428.561	9.27
428.766	8.95
428.971	8.99
429.177	8.8
429.382	8.62
429.587	8.17
429.793	8.19
429.998	8.18
430.203	8.06
430.408	7.98
430.614	7.98
430.819	7.88
431.024	8.09
431.229	8.07
431.434	8.33
431.64	8.38
431.845	8.4
432.05	8.38
432.255	8.34
432.46	8.3
432.665	8.25
432.87	8.09
433.076	8.09
433.281	8.11
433.486	8.15
433.691	8.13
433.896	8.26
434.101	8.25
434.306	8.32
434.511	8.25
434.716	8.2
434.921	8.13
435.126	8.28
435.331	8.28
435.535	8.37
435.74	8.35
435.945	8.39
436.15	8.42
436.355	8.64
436.56	8.42
436.765	8.77
436.97	8.87
437.174	9.04
437.379	8.93
437.584	9
437.789	9.09
437.993	9.19
438.198	9.13
438.403	9.22
438.608	9.11
438.812	9.26
439.017	9.06
439.222	9.21
439.426	8.94
439.631	9.08
439.836	9.08
440.04	8.96
440.245	8.87
440.45	8.8
440.654	8.61
440.859	8.6
441.063	8.58
441.268	8.49
441.472	8.43
441.677	8.58
441.881	8.55
442.086	8.53
442.29	8.54
442.495	8.65
442.699	8.81
442.904	8.9
443.108	8.85
443.312	8.92
443.517	8.9
443.721	8.96
443.925	8.91
444.13	8.8
444.334	8.66
444.538	8.57
444.743	8.43
444.947	8.4
445.151	8.45
445.356	8.6
445.56	8.47
445.764	8.46
445.968	8.35
446.173	8.56
446.377	8.6
446.581	8.72
446.785	8.92
446.989	8.94
447.193	8.84
447.398	8.8
447.602	8.77
447.806	8.78
448.01	8.84
448.214	8.85
448.418	8.76
448.622	8.88
448.826	8.98
449.03	8.83
449.234	8.71
449.438	8.84
449.642	8.7
449.846	8.49
450.05	8.49
450.254	8.65
450.458	8.53
450.662	8.25
450.866	7.92
451.069	7.86
451.273	7.83
451.477	7.82
451.681	7.65
451.885	7.74
452.089	7.99
452.292	8.05
452.496	7.87
452.7	7.96
452.904	8.22
453.107	8.34
453.311	8.22
453.515	8.37
453.719	8.49
453.922	8.72
454.126	8.92
454.33	8.86
454.533	8.73
454.737	8.81
454.94	8.69
455.144	8.69
455.348	8.58
455.551	8.48
455.755	8.24
455.958	8.21
456.162	8.02
456.365	7.72
456.569	7.73
456.772	7.8
456.976	8
457.179	8.28
457.383	8.23
457.586	8.31
457.79	8.3
457.993	8.31
458.196	8.36
458.4	8.46
458.603	8.49
458.807	8.38
459.01	8.23
459.213	7.98
459.417	7.94
459.62	7.92
459.823	8
460.026	7.84
460.23	7.73
460.433	7.69
460.636	7.65
460.839	7.62
461.042	7.67
461.246	7.7
461.449	7.73
461.652	7.65
461.855	7.7
462.058	7.73
462.261	7.97
462.464	8.16
462.668	8.31
462.871	8.34
463.074	8.39
463.277	8.39
463.48	8.65
463.683	8.86
463.886	9.02
464.089	8.85
464.292	8.7
464.495	8.86
464.698	8.71
464.901	8.43
465.104	8.41
465.306	8.21
465.509	8.3
465.712	8.16
465.915	8.19
466.118	8.04
466.321	8.18
466.524	8
466.726	7.97
466.929	8.01
467.132	7.94
467.335	7.8
467.538	7.87
467.74	7.87
467.943	8.01
468.146	7.75
468.348	7.61
468.551	7.54
468.754	7.65
468.956	7.57
469.159	7.43
469.362	7.47
469.564	7.64
469.767	7.7
469.969	7.68
470.172	7.45
470.375	7.6
470.577	7.91
470.78	7.81
470.982	7.91
471.185	7.9
471.387	8.15
471.59	8.19
471.792	7.97
471.995	7.92
472.197	7.8
472.399	7.67
472.602	7.64
472.804	7.65
473.007	7.66
473.209	7.71
473.411	7.59
473.614	7.37
473.816	7.3
474.018	7.34
474.22	7.42
474.423	7.43
474.625	7.57
474.827	7.49
475.03	7.28
475.232	7.35
475.434	7.23
475.636	7.24
475.838	7.35
476.04	7.51
476.243	7.75
476.445	7.58
476.647	7.65
476.849	7.79
477.051	7.86
477.253	8.02
477.455	8.16
477.657	8.36
477.859	8.5
478.061	8.54
478.263	8.52
478.465	8.32
478.667	8.64
478.869	8.56
479.071	8.43
479.273	8.49
479.475	8.42
479.677	8.25
479.879	8.15
480.081	8.21
480.283	8.23
480.485	8.27
480.686	8.38
480.888	8.21
481.09	8.08
481.292	8.06
481.494	8.07
481.695	8.15
481.897	8.17
482.099	8.29
482.301	8.23
482.502	8.28
482.704	8.31
482.906	8.28
483.107	8.36
483.309	8.48
483.511	8.5
483.712	8.44
483.914	8.38
484.115	8.35
484.317	8.34
484.519	8.34
484.72	8.28
484.922	8.22
485.123	8.28
485.325	8.26
485.526	8.17
485.728	8.12
485.929	8.1
486.131	8.14
486.332	8.24
486.534	8.16
486.735	8.11
486.936	8.14
487.138	8.2
487.339	8.17
487.541	8.11
487.742	8.15
487.943	8.18
488.144	8.24
488.346	8.27
488.547	8.19
488.748	8.18
488.95	8.19
489.151	8.18
489.352	8.16
489.553	8.08
489.755	8.11
489.956	8.16
490.157	8.22
490.358	8.21
490.559	8.02
490.76	8.02
490.961	7.96
491.163	7.98
491.364	8.08
491.565	8.14
491.766	8.2
491.967	8.28
492.168	8.27
492.369	8.25
492.57	8.25
492.771	8.37
492.972	8.36
493.173	8.45
493.374	8.47
493.575	8.37
493.776	8.37
493.976	8.3
494.177	8.12
494.378	8.03
494.579	8.04
494.78	7.97
494.981	7.93
495.182	7.98
495.382	8.01
495.583	8.04
495.784	7.96
495.985	7.95
496.185	8.02
496.386	8.2
496.587	8.31
496.788	8.22
496.988	8.27
497.189	8.46
497.39	8.44
497.59	8.46
497.791	8.46
497.992	8.49
498.192	8.38
498.393	8.26
498.593	8.22
498.794	8.1
498.994	8.17
499.195	8.17
499.395	7.95
499.596	7.93
499.796	7.87
499.997	7.83
500.197	7.99
500.398	8.26
500.598	8.26
500.799	8.15
500.999	8.29
501.199	8.29
501.4	8.35
501.6	8.2
501.801	8.15
502.001	8.19
502.201	8.17
502.402	8.11
502.602	7.84
502.802	7.97
503.002	7.85
503.203	7.78
503.403	7.74
503.603	7.57
503.803	7.83
504.003	8.05
504.204	8.09
504.404	8.23
504.604	8.31
504.804	8.32
505.004	8.34
505.204	8.62
505.404	8.73
505.604	8.74
505.804	8.88
506.005	8.83
506.205	8.86
506.405	8.84
506.605	8.71
506.805	8.72
507.005	8.74
507.204	8.66
507.404	8.51
507.604	8.39
507.804	8.41
508.004	8.3
508.204	8.35
508.404	8.27
508.604	8.41
508.804	8.61
509.003	8.61
509.203	8.79
509.403	8.8
509.603	8.96
509.803	9.01
510.002	8.95
510.202	9.1
510.402	9.11
510.602	9.23
510.801	9.29
511.001	9.26
511.201	9.39
511.4	9.32
511.6	9.38
511.8	9.39
511.999	9.56
512.199	9.58
512.398	9.59
512.598	9.64
512.797	9.48
512.997	9.39
513.197	9.28
513.396	9.12
513.596	8.99
513.795	8.87
513.994	8.87
514.194	8.8
514.393	8.95
514.593	9.08
514.792	8.92
514.992	9.05
515.191	9.07
515.39	9.19
515.59	9.31
515.789	9.51
515.988	9.66
516.188	9.51
516.387	9.34
516.586	9.31
516.786	9.16
516.985	9.39
517.184	9.39
517.383	9.34
517.582	9.38
517.782	9.34
517.981	9.33
518.18	9.4
518.379	9.49
518.578	9.71
518.777	9.84
518.976	9.93
519.176	9.93
519.375	10.05
519.574	10.15
519.773	10.1
519.972	10.1
520.171	10.14
520.37	10.07
520.569	10.18
520.768	10.03
520.967	9.98
521.166	9.88
521.365	9.8
521.564	9.66
521.762	9.56
521.961	9.63
522.16	9.72
522.359	9.61
522.558	9.59
522.757	9.52
522.956	9.58
523.154	9.52
523.353	9.73
523.552	9.9
523.751	9.94
523.949	10.02
524.148	9.98
524.347	10.05
524.546	10.2
524.744	10.35
524.943	10.52
525.142	10.66
525.34	10.66
525.539	10.61
525.737	10.6
525.936	10.59
526.135	10.69
526.333	10.69
526.532	10.71
526.73	10.8
526.929	10.84
527.127	10.77
527.326	10.87
527.524	10.96
527.723	11.02
527.921	11.09
528.12	11.19
528.318	11.23
528.516	11.3
528.715	11.38
528.913	11.38
529.112	11.38
529.31	11.38
529.508	11.37
529.707	11.42
529.905	11.46
530.103	11.56
530.301	11.64
530.5	11.65
530.698	11.69
530.896	11.64
531.094	11.68
531.293	11.82
531.491	11.89
531.689	11.83
531.887	11.83
532.085	11.76
532.283	11.68
532.481	11.67
532.68	11.67
532.878	11.79
533.076	11.81
533.274	11.82
533.472	11.79
533.67	11.75
533.868	11.76
534.066	11.72
534.264	11.82
534.462	11.83
534.66	11.79
534.858	11.76
535.056	11.61
535.253	11.67
535.451	11.7
535.649	11.79
535.847	11.91
536.045	12.12
536.243	12.35
536.441	12.24
536.638	12.16
536.836	12.14
537.034	12.18
537.232	12.37
537.43	12.38
537.627	12.36
537.825	12.21
538.023	12.33
538.22	12.24
538.418	11.96
538.616	12.17
538.813	12.31
539.011	12.39
539.209	12.54
539.406	12.5
539.604	12.62
539.801	12.67
539.999	12.84
540.196	12.81
540.394	12.9
540.591	13.1
540.789	13.01
540.986	13.05
541.184	13.14
541.381	13.16
541.579	13.23
541.776	13.25
541.974	13.33
542.171	13.35
542.368	13.4
542.566	13.46
542.763	13.53
542.96	13.64
543.158	13.66
543.355	13.64
543.552	13.68
543.75	13.71
543.947	13.74
544.144	13.68
544.341	13.75
544.539	13.8
544.736	13.84
544.933	13.9
545.13	13.92
545.327	13.96
545.524	14.05
545.722	14.05
545.919	14.2
546.116	14.14
546.313	14.37
546.51	14.48
546.707	14.59
546.904	14.57
547.101	14.52
547.298	14.62
547.495	14.67
547.692	14.68
547.889	14.76
548.086	14.73
548.283	14.85
548.48	15.04
548.677	15.02
548.874	14.86
549.07	14.95
549.267	15.02
549.464	15.07
549.661	15.09
549.858	15.21
550.055	15.28
550.251	15.5
550.448	15.66
550.645	15.24
550.842	15.44
551.038	15.69
551.235	15.81
551.432	15.71
551.628	15.83
551.825	16.01
552.022	15.84
552.218	15.75
552.415	15.58
552.612	15.62
552.808	15.91
553.005	15.82
553.201	15.75
553.398	15.67
553.594	15.84
553.791	15.85
553.987	15.87
554.184	16.07
554.38	16.27
554.577	16.4
554.773	16.54
554.97	16.55
555.166	16.54
555.362	16.7
555.559	16.89
555.755	16.85
555.952	16.88
556.148	16.92
556.344	17.22
556.541	17.07
556.737	17.11
556.933	17.01
557.129	17.05
557.326	17.26
557.522	17.24
557.718	17.06
557.914	17.33
558.11	17.3
558.307	17.25
558.503	17.1
558.699	17.26
558.895	17.46
559.091	17.44
559.287	17.68
559.483	17.51
559.679	17.56
559.876	17.79
560.072	17.88
560.268	17.85
560.464	18.18
560.66	18.34
560.856	18.58
561.052	18.32
561.247	18.33
561.443	18.09
561.639	18.35
561.835	18.53
562.031	18.58
562.227	18.54
562.423	18.86
562.619	18.83
562.815	18.89
563.01	18.89
563.206	19
563.402	19.08
563.598	19.1
563.793	19.08
563.989	19.15
564.185	19.3
564.381	19.44
564.576	19.66
564.772	19.76
564.968	19.6
565.163	19.65
565.359	19.78
565.555	20.08
565.75	20.19
565.946	20.15
566.141	20.2
566.337	20.22
566.532	19.96
566.728	19.87
566.923	19.77
567.119	19.99
567.314	20.09
567.51	20.1
567.705	19.91
567.901	19.93
568.096	20.13
568.292	20.18
568.487	20.35
568.682	20.6
568.878	20.44
569.073	20.35
569.268	20.46
569.464	20.43
569.659	20.48
569.854	20.55
570.05	20.65
570.245	20.76
570.44	20.78
570.635	20.79
570.831	21.02
571.026	21.14
571.221	21.3
571.416	21.38
571.611	21.43
571.806	21.5
572.002	21.55
572.197	21.55
572.392	21.41
572.587	21.48
572.782	21.47
572.977	21.25
573.172	21.33
573.367	21.39
573.562	21.34
573.757	21.46
573.952	21.66
574.147	21.89
574.342	21.89
574.537	22.08
574.732	22.07
574.927	21.85
575.121	22.04
575.316	22.03
575.511	22.11
575.706	22.14
575.901	22.05
576.096	21.99
576.29	21.89
576.485	22.2
576.68	22.15
576.875	22.22
577.069	22.64
577.264	22.72
577.459	22.73
577.654	22.54
577.848	22.65
578.043	22.69
578.238	22.65
578.432	22.67
578.627	22.41
578.821	22.49
579.016	22.5
579.21	22.28
579.405	22.31
579.6	22.23
579.794	22.56
579.989	22.61
580.183	22.67
580.378	22.94
580.572	22.87
580.766	22.88
580.961	22.99
581.155	22.97
581.35	22.96
581.544	22.89
581.738	23
581.933	22.82
582.127	22.35
582.321	22.21
582.516	21.94
582.71	22.15
582.904	22.53
583.099	22.25
583.293	22.45
583.487	22.27
583.681	22.18
583.875	22.47
584.07	22.42
584.264	22.92
584.458	23.05
584.652	23.08
584.846	22.85
585.04	22.6
585.234	22.62
585.428	22.39
585.623	22.64
585.817	22.99
586.011	23.2
586.205	23.38
586.399	23.39
586.593	23.42
586.787	23.66
586.981	23.75
587.174	23.51
587.368	23.84
587.562	23.87
587.756	24.15
587.95	24.02
588.144	23.7
588.338	23.65
588.532	23.59
588.725	23.58
588.919	23.59
589.113	23.91
589.307	24.44
589.501	24.43
589.694	24.48
589.888	24.53
590.082	24.46
590.275	24.53
590.469	24.59
590.663	24.39
590.856	24.39
591.05	24.28
591.244	24.2
591.437	23.97
591.631	23.92
591.824	23.84
592.018	23.59
592.212	23.65
592.405	23.6
592.599	23.67
592.792	23.88
592.986	24.03
593.179	24.29
593.372	24.22
593.566	23.95
593.759	24.08
593.953	24.1
594.146	24.37
594.339	24.09
594.533	23.94
594.726	24.11
594.92	24.14
595.113	24.16
595.306	23.9
595.499	23.74
595.693	24.08
595.886	23.73
596.079	23.89
596.272	23.63
596.466	23.76
596.659	24.01
596.852	23.96
597.045	24.05
597.238	24.09
597.431	24.05
597.624	24.2
597.818	24.14
598.011	24.46
598.204	24.12
598.397	24.27
598.59	24.56
598.783	24.59
598.976	24.57
599.169	24.42
599.362	24.36
599.555	24.61
599.748	24.6
599.941	24.41
600.134	24.44
600.326	24.77
600.519	24.4
600.712	24.1
600.905	24.01
601.098	23.8
601.291	23.86
601.483	23.92
601.676	23.68
601.869	23.59
602.062	23.96
602.255	23.88
602.447	24.04
602.64	24.27
602.833	24.53
603.025	24.57
603.218	24.49
603.411	24.65
603.603	24.62
603.796	24.76
603.989	24.85
604.181	24.79
604.374	24.67
604.566	24.67
604.759	25.02
604.951	25.07
605.144	24.98
605.336	25.08
605.529	24.81
605.721	25
605.914	25.01
606.106	25.12
606.299	25.22
606.491	25.36
606.683	25.3
606.876	24.9
607.068	24.8
607.26	24.8
607.453	24.99
607.645	25.28
607.837	25.23
608.03	25.26
608.222	25.21
608.414	25.07
608.606	25.2
608.799	25.51
608.991	25.78
609.183	25.56
609.375	25.69
609.567	25.62
609.759	25.58
609.952	25.53
610.144	25.5
610.336	25.61
610.528	25.61
610.72	25.5
610.912	25.25
611.104	25.2
611.296	25.48
611.488	25.36
611.68	25.37
611.872	25.37
612.064	25.19
612.256	24.98
612.448	25
612.64	25.04
612.832	24.78
613.023	24.75
613.215	24.57
613.407	24.52
613.599	24.76
613.791	24.73
613.983	24.48
614.174	24.73
614.366	25.11
614.558	24.75
614.75	24.88
614.941	24.95
615.133	25.08
615.325	25.18
615.516	25.07
615.708	24.88
615.9	24.9
616.091	25.1
616.283	24.69
616.475	24.26
616.666	24.28
616.858	24.17
617.049	24.61
617.241	24.57
617.432	24.42
617.624	24.11
617.815	24.2
618.007	23.93
618.198	24.36
618.39	24.62
618.581	24.72
618.773	25.16
618.964	25.08
619.155	24.74
619.347	24.86
619.538	25.01
619.729	25.17
619.921	24.96
620.112	25.62
620.303	24.9
620.494	24.85
620.686	25.04
620.877	24.95
621.068	25.15
621.259	25.32
621.451	24.86
621.642	24.63
621.833	24.86
622.024	25.26
622.215	24.95
622.406	25.42
622.597	25.54
622.788	25.42
622.98	25.13
623.171	25.08
623.362	25.03
623.553	25.49
623.744	25.75
623.935	25.74
624.126	25.48
624.317	25.4
624.508	25.34
624.698	25.01
624.889	25.24
625.08	25.65
625.271	25.67
625.462	25.54
625.653	25.35
625.844	25.33
626.034	25.64
626.225	25.66
626.416	25.92
626.607	25.78
626.798	26.06
626.988	25.7
627.179	25.44
627.37	25.35
627.56	25.77
627.751	25.52
627.942	25.78
628.132	25.28
628.323	25.51
628.514	25.42
628.704	25.55
628.895	25.5
629.085	25.84
629.276	25.72
629.466	25.71
629.657	25.48
629.847	25.58
630.038	25.28
630.228	25.61
630.419	25.56
630.609	25.61
630.8	25.42
630.99	25.45
631.181	25.38
631.371	25.21
631.561	25.33
631.752	25.28
631.942	25.17
632.132	25.23
632.323	25.39
632.513	25.24
632.703	25.02
632.893	25.3
633.084	25.46
633.274	25.36
633.464	25.67
633.654	25.48
633.844	25.55
634.034	25.81
634.225	25.82
634.415	25.59
634.605	25.77
634.795	25.72
634.985	25.49
635.175	25.17
635.365	25.26
635.555	25.14
635.745	25.26
635.935	24.84
636.125	24.89
636.315	24.8
636.505	24.76
636.695	24.53
636.885	24.31
637.075	24.42
637.265	24.25
637.455	24.19
637.644	24.06
637.834	23.96
638.024	24.37
638.214	24.18
638.404	24.24
638.593	24.36
638.783	24.39
638.973	24.51
639.163	24.61
639.352	24.89
639.542	24.8
639.732	25.26
639.921	25.07
640.111	25.35
640.301	25.66
640.49	25.08
640.68	25.18
640.87	25
641.059	25.12
641.249	25.33
641.438	25.19
641.628	25.37
641.817	25.33
642.007	25.6
642.196	25.1
642.386	25.07
642.575	25.62
642.764	25.34
642.954	25.46
643.143	25.81
643.333	25.69
643.522	25.86
643.711	25.72
643.901	25.55
644.09	25.79
644.279	25.77
644.469	25.79
644.658	25.74
644.847	26.1
645.036	26.12
645.226	25.62
645.415	25.92
645.604	25.83
645.793	25.83
645.982	25.75
646.171	25.72
646.361	25.8
646.55	25.78
646.739	25.75
646.928	25.4
647.117	25.58
647.306	26.26
647.495	25.4
647.684	25.38
647.873	25.68
648.062	26.06
648.251	25.69
648.44	25.76
648.629	25.84
648.818	25.63
649.007	25.92
649.196	25.34
649.384	25.15
649.573	25.48
649.762	25.69
649.951	25.27
650.14	24.85
650.328	25.13
650.517	25.25
650.706	25.32
650.895	25.59
651.083	25.5
651.272	25.87
651.461	25.41
651.65	25.68
651.838	25.47
652.027	25.55
652.216	25.39
652.404	25.08
652.593	24.85
652.781	24.6
652.97	24.2
653.158	24.1
653.347	24.25
653.535	24.88
653.724	24.87
653.912	24.85
654.101	24.68
654.289	24.59
654.478	24.84
654.666	24.54
654.855	24.78
655.043	25.04
655.231	24.84
655.42	24.51
655.608	23.81
655.796	24.05
655.985	24.2
656.173	24.34
656.361	25.32
656.55	24.91
656.738	25.19
656.926	25.18
657.114	25.42
657.302	25.14
657.491	25.53
657.679	26.13
657.867	25.72
658.055	25.73
658.243	25.86
658.431	25.64
658.619	26.2
658.807	26.66
658.996	26.46
659.184	26.23
659.372	26.66
659.56	26.37
659.748	26.01
659.936	25.76
660.124	25.4
660.311	25.12
660.499	24.71
660.687	24.69
660.875	24.19
661.063	24.05
661.251	24.38
661.439	24.16
661.627	24.45
661.814	24.24
662.002	24.62
662.19	25.53
662.378	25.84
662.565	26.26
662.753	25.87
662.941	26.11
663.129	26.33
663.316	26
663.504	26.26
663.692	25.87
663.879	26.1
664.067	26.03
664.254	25.46
664.442	25.39
664.63	25.02
664.817	25.18
665.005	25.32
665.192	25.84
665.38	25.32
665.567	24.76
665.755	25.02
665.942	25.22
666.13	25.46
666.317	25.42
666.504	25.75
666.692	26.14
666.879	26.1
667.067	26.03
667.254	25.77
667.441	26.48
667.629	27.35
667.816	27.41
668.003	26.99
668.19	26.91
668.378	27.01
668.565	26.82
668.752	26.78
668.939	26.79
669.127	26.89
669.314	26.48
669.501	26.18
669.688	25.91
669.875	25.58
670.062	25.67
670.249	25.59
670.436	25.2
670.623	24.95
670.81	24.63
670.997	24.33
671.184	24.13
671.371	24.37
671.558	24.49
671.745	24.26
671.932	24.18
672.119	24.25
672.306	24.03
672.493	24.13
672.68	24.34
672.867	24.21
673.054	24.57
673.24	24.56
673.427	24.46
673.614	24.86
673.801	24.71
673.988	24.8
674.174	25.22
674.361	25.43
674.548	25.36
674.734	25.56
674.921	25.81
675.108	25.66
675.294	25.47
675.481	25.48
675.668	25.05
675.854	25.21
676.041	25.37
676.227	25.06
676.414	24.86
676.601	25.29
676.787	25.05
676.974	25.09
677.16	24.86
677.347	24.97
677.533	24.74
677.719	24.99
677.906	24.6
678.092	24.89
678.279	24.94
678.465	24.94
678.651	24.82
678.838	25.07
679.024	25.22
679.21	25.66
679.397	25.44
679.583	25.46
679.769	25.8
679.955	26.09
680.142	25.85
680.328	26.06
680.514	25.96
680.7	25.65
680.886	25.6
681.073	25.68
681.259	25.63
681.445	26.07
681.631	26.64
681.817	25.99
682.003	25.92
682.189	26.12
682.375	25.87
682.561	26.37
682.747	26.7
682.933	26.72
683.119	26.56
683.305	26.47
683.491	26.49
683.677	25.82
683.863	25.89
684.049	25.96
684.235	25.4
684.42	25.34
684.606	24.71
684.792	24.89
684.978	24.82
685.164	24.89
685.349	24.79
685.535	24.58
685.721	25.28
685.907	25.69
686.092	25.58
686.278	25.96
686.464	26.25
686.649	26.8
686.835	26.89
687.021	27.22
687.206	26.95
687.392	27.23
687.577	26.61
687.763	26.26
687.948	26.43
688.134	26.47
688.319	26.65
688.505	26.39
688.69	26.15
688.876	25.68
689.061	25.49
689.247	25.2
689.432	25.07
689.618	25.83
689.803	25.44
689.988	25.23
690.174	25.22
690.359	24.79
690.544	24.67
690.73	24.77
690.915	24.91
691.1	24.11
691.285	24.46
691.471	25.09
691.656	25.11
691.841	25.72
692.026	25.39
692.211	25.09
692.396	25.6
692.582	25.23
692.767	24.99
692.952	24.56
693.137	24.75
693.322	24.7
693.507	24.27
693.692	24.06
693.877	23.72
694.062	23.58
694.247	23.78
694.432	22.92
694.617	23.35
694.802	24.03
694.987	24.66
695.172	25.13
695.357	24.92
695.541	24.2
695.726	24.55
695.911	24.45
696.096	24.25
696.281	24.64
696.466	25.51
696.65	26.05
696.835	25.39
697.02	25.16
697.204	25.49
697.389	25.35
697.574	26.11
697.759	25.77
697.943	25.84
698.128	25.96
698.312	25.7
698.497	25.38
698.682	25.41
698.866	25.75
699.051	26.34
699.235	26.12
699.42	26.57
699.604	26.28
699.789	26.53
699.973	26.42
700.158	26.46
700.342	26.6
700.527	26.89
700.711	26.79
700.895	26.19
701.08	25.45
701.264	24.65
701.448	24.47
701.633	23.97
701.817	23.06
702.001	22.73
702.186	23.18
702.37	23.21
702.554	23.03
702.738	22.22
702.923	22.49
703.107	23.01
703.291	23.91
703.475	24.11
703.659	24.92
703.843	25.48
704.027	26.7
704.212	26
704.396	25.48
704.58	25.02
704.764	25.59
704.948	25.65
705.132	25.11
705.316	25.27
705.5	24.61
705.684	24.74
705.868	24.44
706.052	24
706.235	24.5
706.419	25.21
706.603	25.45
706.787	25.57
706.971	25.44
707.155	25.1
707.339	25.18
707.522	26.19
707.706	25.85
707.89	25.83
708.074	25.38
708.257	24.78
708.441	23.97
708.625	24.5
708.808	24.82
708.992	25.08
709.176	25.07
709.359	24.53
709.543	23.85
709.727	23.49
709.91	23.29
710.094	24.28
710.277	23.93
710.461	24.16
710.644	23.02
710.828	22.72
711.011	22.92
711.195	23.53
711.378	23.52
711.562	22.87
711.745	23.27
711.928	23.77
712.112	23.14
712.295	23.61
712.478	23.69
712.662	24.83
712.845	24.84
713.028	24.8
713.212	24.51
713.395	23.92
713.578	24.51
713.761	23.93
713.945	23.98
714.128	23.67
714.311	24.04
714.494	23.74
714.677	23.26
714.86	23.69
715.043	23.29
715.227	23.51
715.41	24.77
715.593	25.24
715.776	26.29
715.959	26.11
716.142	26.3
716.325	26.42
716.508	27.41
716.691	27.01
716.874	26.77
717.057	26.8
717.239	27.02
717.422	25.99
717.605	25.26
717.788	23.99
717.971	24.03
718.154	23.95
718.337	23.59
718.519	22.1
718.702	22.4
718.885	22.67
719.068	22.55
719.25	22.75
719.433	23.45
719.616	24.38
719.798	24.67
719.981	24.02
720.164	23.33
720.346	23.45
720.529	24.01
720.712	22.95
720.894	21.53
721.077	21.39
721.259	21.19
721.442	20.53
721.624	19.28
721.807	19.74
721.989	20.54
722.172	20.61
722.354	19.46
722.537	19.41
722.719	20.64
722.901	21.25
723.084	22.01
723.266	21.77
723.448	22.43
723.631	23.06
723.813	22.39
723.995	22.45
724.178	22.16
724.36	23.2
724.542	22.61
724.724	22.43
724.907	22.68
725.089	23.12
725.271	22.35
725.453	21.41
725.635	21.21
725.817	21.16
725.999	19.61
726.181	20.43
726.364	20.67
726.546	21.3
726.728	21.03
726.91	21.44
727.092	20.82
727.274	21.18
727.456	22.79
727.638	22.8
727.819	22.99
728.001	23.69
728.183	23.6
728.365	23.61
728.547	24.18
728.729	24.72
728.911	24.19
729.093	24.05
729.274	23.79
729.456	22.86
729.638	22.4
729.82	22.11
730.001	22.65
730.183	22.75
730.365	22.04
730.546	20.23
730.728	19.81
730.91	18.71
731.091	18.8
731.273	18.93
731.455	20.21
731.636	20.92
731.818	21.63
731.999	21.71
732.181	21.34
732.362	22.08
732.544	23.97
732.725	24.29
732.907	25.84
733.088	25.36
733.27	25.25
733.451	23.52
733.633	22.61
733.814	22.46
733.995	22.28
734.177	23.37
734.358	22.24
734.539	22.85
734.721	22.49
734.902	21.58
735.083	21.36
735.264	21.85
735.446	22.02
735.627	23.46
735.808	21.89
735.989	21.21
736.17	19.26
736.351	19.55
736.533	16.72
736.714	16.96
736.895	17.41
737.076	18.03
737.257	17.5
737.438	18.57
737.619	18.12
737.8	19.07
737.981	19.69
738.162	20.11
738.343	20.23
738.524	21.46
738.705	21.24
738.886	20.66
739.067	21.63
739.247	21.76
739.428	20.72
739.609	20.97
739.79	21.79
739.971	21.79
740.151	22.36
740.332	23.22
740.513	23.53
740.694	22.86
740.874	22.77
741.055	22.39
741.236	22.62
741.417	22.64
741.597	22.98
741.778	22.12
741.958	22.41
742.139	22.81
742.32	22.74
742.5	22.55
742.681	22.87
742.861	22.54
743.042	20.44
743.222	19.78
743.403	20.71
743.583	19.4
743.764	19.81
743.944	18.75
744.124	17.06
744.305	16.34
744.485	17.91
744.666	18.87
744.846	19.97
745.026	22.01
745.207	22.35
745.387	22.32
745.567	22.44
745.747	21.24
745.928	20.91
746.108	22.76
746.288	23.02
746.468	22.23
746.648	22.64
746.829	23.83
747.009	22.06
747.189	22.15
747.369	21.56
747.549	23.41
747.729	23.88
747.909	25.5
748.089	23.75
748.269	23.11
748.449	23.03
748.629	22.58
748.809	20.25
748.989	21.89
749.169	22.55
749.349	22.04
749.529	21.36
749.709	22.36
749.889	22.6
750.068	23.8
750.248	23.27
750.428	22.35
750.608	21.52
750.788	23.85
750.967	23.96
751.147	25
751.327	24.7
751.507	23.75
751.686	24.75
751.866	24.07
752.046	23.28
752.225	24.16
752.405	24.4
752.585	23.96
752.764	21.9
752.944	20.32
753.123	19.16
753.303	21.53
753.482	22.67
753.662	21.87
753.841	20.86
754.021	21.3
754.2	21.44
754.38	21.1
754.559	21.72
754.739	22.05
754.918	22.97
755.097	21.3
755.277	19.71
755.456	18.08
755.635	17.66
755.815	19.53
755.994	20.25
756.173	20.5
756.352	21.12
756.532	19.74
756.711	21.84
756.89	23.14
757.069	24.42
757.248	25.52
757.427	26.04
757.607	26.02
757.786	24.73
757.965	23.99
758.144	22.97
758.323	22.74
758.502	24.01
758.681	21.8
758.86	19.59
759.039	18.93
759.218	18.23
759.397	17.89
759.576	17.7
759.755	17.39
759.934	17.12
760.113	17.71
760.291	18.37
760.47	19.87
760.649	19.55
760.828	20.6
761.007	20.01
761.186	19.3
761.364	19.97
761.543	20.17
761.722	21.83
761.901	23.3
762.079	23.95
762.258	23.54
762.437	21.87
762.615	22.65
762.794	22.62
762.972	23.32
763.151	23.44
763.33	24.09
763.508	24.8
763.687	24.57
763.865	24.36
764.044	23.32
764.222	23.33
764.401	23.81
764.579	24.17
764.758	23.82
764.936	24.67
765.114	24.15
765.293	22.31
765.471	21.88
765.65	20.78
765.828	20.31
766.006	21.82
766.184	21.6
766.363	20.72
766.541	20.54
766.719	21.27
766.898	20.1
767.076	19.93
767.254	20.2
767.432	18.9
767.61	18.94
767.788	19.21
767.967	17.87
768.145	17.47
768.323	18.34
768.501	17.71
768.679	15.9
768.857	15.11
769.035	16.71
769.213	17.1
769.391	16.95
769.569	17.54
769.747	17.48
769.925	17.27
770.103	15
770.281	13.84
770.459	12.38
770.636	14.3
770.814	15.85
770.992	15.33
771.17	16
771.348	17.67
771.525	15
771.703	13.07
771.881	14
772.059	16.84
772.236	15.52
772.414	13.91
772.592	14.48
772.769	13.33
772.947	13.14
773.125	14.37
773.302	10.9
773.48	12.79
773.657	15.62
773.835	14.8
774.013	12.79
774.19	15.8
774.368	17.55
774.545	17.25
774.723	17.99
774.9	18.21
775.077	14.7
775.255	18.83
775.432	20.36
775.61	19.27
775.787	17.44
775.964	15.79
776.142	13.67
776.319	13.89
776.496	12.87
776.674	13.7
776.851	15.19
777.028	17.03
777.205	17.37
777.382	15.6
777.56	14.51
777.737	15.03
777.914	18.8
778.091	21.93
778.268	21.92
778.445	21.79
778.622	21.64
778.8	19.8
778.977	17.97
779.154	14.73
779.331	13.12
779.508	14.28
779.685	13.66
779.862	13.24
780.038	8.7
780.215	10.28
780.392	9.2
780.569	5.48
780.746	4.98
780.923	5.35
781.1	4.63
781.277	5.14
781.453	2.17
781.63	1.79
781.807	2.23
781.984	4.3
782.16	2.39
782.337	3.57
782.514	5.51
782.691	7.86
782.867	7.63
783.044	10.47
783.221	11.9
783.397	13.47
783.574	17.7
783.75	16.41
783.927	14.65
784.103	14.57
784.28	14.06
784.456	13.9
784.633	12.81
784.809	13.17
784.986	12.24
785.162	10.95
785.339	9.52
785.515	6.26
785.692	5.66
785.868	10.11
786.044	10.18
786.221	9.92
786.397	10.8
786.573	11.47
786.749	9.85
786.926	6.65
787.102	6.94
787.278	8.34
787.454	10.01
787.631	9.18
787.807	7.64
787.983	5.71
788.159	5.62
788.335	6.37
788.511	5.83
788.687	10.21
788.863	11.82
789.039	12.24
789.216	11.54
789.392	11.5
789.568	11.83
789.744	10.88
789.919	11.79
790.095	12.23
790.271	9.12
790.447	8.08
790.623	5.1
790.799	6.34
790.975	10.39
791.151	8.84
791.327	6.79
791.502	6.08
791.678	4.95
791.854	6.39
792.03	7.1
792.205	11.34
792.381	11.43
792.557	8.4
792.733	7.13
792.908	4.2
793.084	4.78
793.259	4.57
793.435	9.1
793.611	11.66
793.786	10.44
793.962	9.96
794.137	8.11
794.313	8.19
794.488	11.78
794.664	14.35
794.839	15.79
795.015	12.79
795.19	16.95
795.366	14.09
795.541	11.44
795.716	12.96
795.892	11.72
796.067	9.65
796.242	11.7
796.418	12.24
796.593	6.57
796.768	3.06
796.944	5.55
797.119	6.2
797.294	7.19
797.469	7.55
797.644	5.56
797.82	4.73
797.995	5.62
798.17	3.83
798.345	3.25
798.52	7.48
798.695	6.98
798.87	7.44
799.045	4.79
799.22	3.36
799.395	2.82
799.57	3.1
799.745	6.51
799.92	6.33
800.095	3.81
800.27	2.74
800.445	1.02
800.62	0.25
800.795	-2.04
800.97	-1.72
801.145	0.09
801.319	0.09
801.494	0.47
801.669	-1.55
801.844	-2.11
802.018	0.45
802.193	3.16
802.368	6.8
802.543	7.4
802.717	8.15
802.892	9.7
803.067	10.24
803.241	11.87
803.416	9.17
803.59	7.08
803.765	11.65
803.94	13.1
804.114	11.91
804.289	12.75
804.463	10.98
804.638	12.06
804.812	6.09
804.986	3.7
805.161	-0.6
805.335	3.47
805.51	4.89
805.684	2.21
805.858	-4.52
806.033	-8.72
806.207	-14.86
806.381	-10.94
806.556	-7.89
806.73	-3.33
806.904	1.96
807.078	8.18
807.253	8.96
807.427	7.99
807.601	8.2
807.775	13.21
807.949	16.74
808.123	15.59
808.298	15.33
808.472	10.48
808.646	9.06
808.82	1.12
808.994	0.22
809.168	0.57
809.342	-0.09
809.516	1
809.69	-1.43
809.864	-4
810.038	1.62
810.212	-2.22
810.385	4.81
810.559	1.42
810.733	1.82
810.907	3.6
811.081	3.84
811.255	6.14
811.428	-1.54
811.602	-5.93
811.776	-9.2
811.95	-9.25
812.123	-7.46
812.297	-18.49
812.471	-14.74
812.644	-6.59
812.818	-6.43
812.992	-13.6
813.165	-14.95
813.339	-7.14
813.512	-3.1
813.686	0.18
813.86	-1.89
814.033	-2.83
814.207	-0.35
814.38	-3.66
814.554	-17.83
814.727	-25.5
814.9	-21.1
815.074	-22.49
815.247	-23.68
815.421	-20.55
815.594	-23.48
815.767	-24.41
815.941	-29.19
816.114	-27.03
816.287	-16.41
816.46	-3.88
816.634	-4.79
816.807	-10.39
816.98	-13.68
817.153	-3.64
817.327	-6.58
817.5	0.49
817.673	-2.13
817.846	5.12
818.019	1.89
818.192	-3.05
818.365	-11.99
818.538	-11.37
818.711	-3.55
818.884	5.55
819.057	-5.1
819.23	-2.66
819.403	-3.71
819.576	-2.24
819.749	3.32
819.922	4.22
820.095	4.47
820.268	7.73
820.441	10.35
820.614	12.62
820.786	11.9
820.959	18.24
821.132	18.77
821.305	19.38
821.477	20.65
821.65	19.74
821.823	21.75
821.996	22.57
822.168	23.56
822.341	24.48
822.514	24.08
822.686	24.01
822.859	23.5
823.031	23.21
823.204	23.3
823.376	23.6
823.549	23.75
823.722	23.06
823.894	22.52
824.067	21.83
824.239	20.8
824.411	21.3
824.584	21.49
824.756	21.21
824.929	20.87
825.101	19.6
825.273	18.54
825.446	18.93
825.618	19
825.79	20.49
825.963	19.78
826.135	20.17
826.307	18.81
826.479	18.35
826.652	18.32
826.824	19.44
826.996	21.16
827.168	20.54
827.34	19
827.512	17.66
827.684	16.49
827.856	16.66
828.029	15.08
828.201	15.36
828.373	14.33
828.545	12.73
828.717	10.56
828.889	10.3
829.061	9.04
829.232	10.41
829.404	11.61
829.576	11.1
829.748	11.9
829.92	12.53
830.092	13.03
830.264	15.04
830.436	16.6
830.607	17.55
830.779	15.52
830.951	20.3
831.123	18.46
831.294	15.91
831.466	13.47
831.638	14.03
831.809	17.29
831.981	7.86
832.153	1.92
832.324	-0.86
832.496	-5.44
832.667	-7.73
832.839	-8.63
833.011	-8.56
833.182	-9.09
833.354	-6.16
833.525	-2.62
833.697	-5.8
833.868	1.56
834.039	4.71
834.211	5.91
834.382	9.26
834.554	10.94
834.725	11.46
834.896	11.14
835.068	13.71
835.239	13.06
835.41	9.41
835.581	10.74
835.753	12.57
835.924	12.73
836.095	13.93
836.266	16.77
836.438	17.9
836.609	18.25
836.78	17.54
836.951	16.04
837.122	10.3
837.293	8.02
837.464	8.07
837.635	-0.85
837.806	0.14
837.977	-2.96
838.148	-10.21
838.319	-17.31
838.49	-29.09
838.661	-26.06
838.832	-26.95
839.003	-16.46
839.174	-15.73
839.345	-16.2
839.516	-5.4
839.687	-8.74
839.857	-6.1
840.028	-8.6
840.199	-5.17
840.37	6.01
840.54	11.04
840.711	12.04
840.882	14.85
841.053	15.12
841.223	14.52
841.394	7.37
841.564	3.42
841.735	-7.45
841.906	6.24
842.076	-0.95
842.247	-8.97
842.417	-24.72
842.588	-20.3
842.758	-47.14
842.929	-29.78
843.099	-30.11
843.27	-40.4
843.44	-32.58
843.611	-23.37
843.781	-53.26
843.951	-43.51
844.122	-47.9
844.292	-36.1
844.462	-39.58
844.633	-20.35
844.803	-35.4
844.973	-47.83
845.144	-42.71
845.314	-77.12
845.484	-68.94
845.654	-22.78
845.824	8.9
845.995	19.15
846.165	21.85
846.335	17.66
846.505	20.33
846.675	8.49
846.845	6.51
847.015	12.46
847.185	32.69
847.355	24.09
847.525	-6.9
847.695	-44.38
847.865	-81.09
848.035	-125.63
848.205	-187.66
848.375	-155.4
848.545	-173.08
848.715	-308.58
848.884	-451.03
849.054	-196.83
849.224	-239.78
849.394	-129.14
849.564	-138.79
849.733	-174.68
849.903	-118.06
850.073	-118.7
850.243	-238.57
850.412	-75.29
850.582	-56.54
850.752	-68.08
850.921	-64.5
851.091	-85.03
851.26	-91.15
851.43	-70.79
851.599	-53.9
851.769	16.52
851.939	11.99
852.108	10.32
852.278	4.7
852.447	-7.15
852.616	12.09
852.786	-30.08
852.955	11.62
853.125	0.97
853.294	-26.28
853.463	0.49
853.633	-244.04
853.802	180.38
853.971	197.01
854.141	1303.97
854.31	-167.37
854.479	-30.95
854.648	-20.11
854.818	-62.13
854.987	-126.89
855.156	-94.73
855.325	-82.03
855.494	-46.26
855.663	-16.36
855.832	-31.39
856.001	-48.62
856.171	-37.75
856.34	-101.68
856.509	-69.21
856.678	-196.2
856.847	-119.82
857.016	-125.78
857.185	-86.91
857.353	-109.88
857.522	-120.4
857.691	-85.24
857.86	-89.74
858.029	-89.11
858.198	-80.06
858.367	-239.25
858.535	-152.19
858.704	-135.19
858.873	-89.61
859.042	-98.47
859.21	-168.89
859.379	-184.28
859.548	-448.29
859.717	-431.24
859.885	-1132.02
860.054	798.01
860.222	659.5
860.391	-605.3
860.56	-305.51
860.728	-475.74
860.897	-379.74
861.065	-284.77
861.234	-264.51
861.402	-280.81
861.571	-291.58
861.739	-407.45
861.908	-456.34
862.076	-324.78
862.244	-224.63
862.413	-428.44
862.581	-374.35
862.749	42850
862.918	1191.78
863.086	1038.72
863.254	-882.99
863.423	3111.36
863.591	-324.44
863.759	-106.47
863.927	-138.4
864.096	-315.68
864.264	-102.41
864.432	-244.16
864.6	-55.21
864.768	-61.75
864.936	-58.87
865.104	-96.06
865.272	-239.26
865.44	1325.06
865.608	347.27
865.776	-3815.87
865.944	289.48
866.112	268.25
866.28	580.06
866.448	362.49
866.616	350.13
866.784	1135
866.952	-1105.06
867.12	-939.23
867.288	-411.56
867.455	-219.55
867.623	-206.1
867.791	-215.17
867.959	-159.54
868.127	-82.94
868.294	-101.13
868.462	-83.26
868.63	-151.55
868.797	-1182.77
868.965	-250.88
869.133	-354.92
869.3	2495.62
869.468	763.79
869.636	715.7
869.803	405.52
869.971	215.52
870.138	215.21
870.306	208.21
870.473	163.2
870.641	200.85
870.808	272.26
870.975	262.55
871.143	224.92
871.31	203.88
871.478	171.18
871.645	207.52
871.812	221.07
871.98	278.61
872.147	434.94
872.314	868.52
872.482	350.08
872.649	239.83
872.816	232.61
872.983	192.45
873.15	187.77
873.318	210.12
873.485	228.17
873.652	315.19
873.819	588.26
873.986	516.96
874.153	570.84
874.32	384.98
874.487	344.24
874.654	727.87
874.821	-235.98
874.988	-1700.24
875.155	-330.43
875.322	-721.51
875.489	-224.31
875.656	-546.07
875.823	-1293.52
875.99	1404.85
876.157	-828.54
876.324	-1004.42
876.49	-412.83
876.657	32072.09
876.824	531.26
876.991	622.63
877.157	910.23
877.324	772.2
877.491	366.81
877.658	598.42
877.824	610.44
877.991	561.18
878.157	622.01
878.324	478.44
878.491	769.76
878.657	-282.53
878.824	-773.24
878.99	13022.22
879.157	918.89
879.323	-4355.19
879.49	-1152.92
879.656	-2921.03
879.823	-1031.09
879.989	-1148.24
880.156	14215.79
880.322	-6285.19
880.488	-2382.22
880.655	-2274.57
880.821	-440.5
880.987	-371.55
881.154	-257.63
881.32	-231.32
881.486	-128.94
881.652	-149.28
881.819	-65.42
881.985	-36.3
882.151	-13.59
882.317	-7.17
882.483	-0.98
882.649	4.93
882.816	2.41
882.982	5.29
883.148	3.72
883.314	12.58
883.48	13.6
883.646	12.74
883.812	13.83
883.978	14.13
884.144	12.65
884.31	12.69
884.476	9.15
884.642	14.32
884.807	15.85
884.973	17.04
885.139	11.38
885.305	10.17
885.471	9.48
885.637	2.99
885.802	-0.92
885.968	0.29
886.134	-7.09
886.3	-6.54
886.465	-20.81
886.631	-27.15
886.797	-30.96
886.962	-28.31
887.128	-36.69
887.293	-35.03
887.459	-23.89
887.625	-37.01
887.79	-68.66
887.956	-72.79
888.121	-68.98
888.287	-48.78
888.452	-62.94
888.618	-63.17
888.783	-71.8
