Data from 2937820_Reflection_3.txt Node
Date: Wed Jul 15 17:21:28 EDT 2015
User: robert
Spectrometer: USB4E03001
Autoset integration time: false
Trigger mode: 4
Integration Time (sec): 1.000000E-1
Scans to average: 10
Electric dark correction enabled: true
Nonlinearity correction enabled: false
Boxcar width: 5
Stray light correction enabled: false
XAxis mode: Wavelengths
Stop averaging: false
Number of Pixels in Spectrum: 3648
>>>>>Begin Spectral Data<<<<<
177.566	28.35
177.785	18.4
178.005	-99.35
178.225	6.95
178.445	-536.71
178.665	150.85
178.885	530.62
179.105	98.57
179.324	196.78
179.544	12.67
179.764	36.13
179.984	38.43
180.204	64.47
180.423	-12.52
180.643	136.69
180.863	106.46
181.083	384.19
181.302	139.61
181.522	220.26
181.742	242.9
181.961	297.07
182.181	691.04
182.401	519.78
182.621	243.43
182.84	119.82
183.06	120.01
183.279	122.03
183.499	111.27
183.719	128.07
183.938	81.35
184.158	13.83
184.377	-68.71
184.597	-69.63
184.816	-152.36
185.036	1012.07
185.256	166.52
185.475	121.7
185.695	82.93
185.914	56.84
186.134	49.81
186.353	-1.04
186.572	-7.31
186.792	-24.51
187.011	-61.78
187.231	-24.08
187.45	-613.18
187.67	1554.37
187.889	128.11
188.108	105.89
188.328	57.21
188.547	72.59
188.766	74.51
188.986	81.47
189.205	51.65
189.424	39.63
189.644	57.69
189.863	101.57
190.082	107.54
190.302	-1804.11
190.521	169.27
190.74	199.07
190.959	205.82
191.178	45.32
191.398	167.51
191.617	8.75
191.836	95.04
192.055	106.87
192.274	-389.61
192.494	-56.33
192.713	-100.36
192.932	127.75
193.151	126.17
193.37	148.39
193.589	-1013.39
193.808	-103.28
194.027	-53.35
194.246	-39.37
194.465	-276.64
194.685	-106.01
194.904	-292.83
195.123	226.25
195.342	305.49
195.561	-264.51
195.78	278.66
195.999	562.3
196.218	1225.93
196.436	-4334.09
196.655	-1119.79
196.874	-20.92
197.093	-609.84
197.312	-463.87
197.531	-19.57
197.75	-39.65
197.969	-2.25
198.188	2.97
198.407	-4.66
198.625	-134.61
198.844	-26.1
199.063	64.61
199.282	48.4
199.501	75.18
199.719	76.01
199.938	151.77
200.157	108.32
200.376	64.43
200.594	28.31
200.813	-10.11
201.032	67.73
201.251	129.31
201.469	166.38
201.688	236.65
201.907	32.34
202.125	67.05
202.344	95.37
202.563	71.02
202.781	81.33
203	42.86
203.218	31.39
203.437	37.34
203.656	77.8
203.874	100.46
204.093	110.59
204.311	133.39
204.53	284.43
204.748	115.61
204.967	232.63
205.185	-96.13
205.404	262.64
205.622	81.57
205.841	16.7
206.059	-1671.72
206.278	228.41
206.496	127.27
206.715	-281.86
206.933	-2534.25
207.151	122.42
207.37	-672.04
207.588	-68.07
207.806	-80.41
208.025	-166.47
208.243	15.45
208.461	67.59
208.68	62.35
208.898	-1.46
209.116	420.69
209.335	256.57
209.553	167.92
209.771	501.27
209.989	-485.44
210.208	-624.5
210.426	-203.18
210.644	4767.12
210.862	801.94
211.081	173.24
211.299	192.77
211.517	21.12
211.735	174
211.953	181.05
212.171	63.18
212.39	10.18
212.608	110.02
212.826	-41.26
213.044	151.51
213.262	57.7
213.48	20.91
213.698	24.36
213.916	-34.65
214.134	-17.95
214.352	9.65
214.57	23.96
214.788	7.99
215.006	0.1
215.224	-13.47
215.442	20.73
215.66	45.38
215.878	20.91
216.096	28.44
216.314	11.32
216.532	27.18
216.75	21.24
216.968	-35.24
217.185	-10.56
217.403	-7.9
217.621	-31.32
217.839	-472.79
218.057	-1052.54
218.275	2047.84
218.492	388.58
218.71	375.37
218.928	822.8
219.146	-2257.22
219.363	14.87
219.581	7.61
219.799	52.29
220.017	1.38
220.234	18.85
220.452	77.54
220.67	172.54
220.887	105.79
221.105	74.54
221.323	207.82
221.54	186.75
221.758	173.24
221.976	295.28
222.193	87.07
222.411	6.22
222.629	-387.69
222.846	300.63
223.064	-108.07
223.281	-76.85
223.499	31.46
223.716	-10.82
223.934	29.66
224.151	16.9
224.369	22.16
224.586	33.24
224.804	18.76
225.021	19.68
225.239	26.02
225.456	22.3
225.674	7.84
225.891	0.9
226.108	16.86
226.326	14.09
226.543	19.76
226.76	13.78
226.978	10.94
227.195	10.87
227.413	4.17
227.63	-4.48
227.847	0.73
228.064	6.62
228.282	6.07
228.499	4.74
228.716	-1.14
228.934	2.48
229.151	-0.77
229.368	-1.83
229.585	3.89
229.802	7.49
230.02	10.58
230.237	6.24
230.454	3.12
230.671	3.75
230.888	7.05
231.105	11.23
231.323	11.22
231.54	15.22
231.757	18.13
231.974	8.62
232.191	-1.87
232.408	-0.03
232.625	7.23
232.842	4.44
233.059	6.29
233.276	2.85
233.493	3.19
233.71	-0.64
233.927	-4.19
234.144	-6.34
234.361	0.22
234.578	10.67
234.795	6.6
235.012	0.54
235.229	9.92
235.446	5.14
235.663	3.5
235.879	3.36
236.096	8.2
236.313	12.8
236.53	15.35
236.747	11.96
236.964	8.63
237.181	15.12
237.397	8.81
237.614	9.32
237.831	6.14
238.048	5.26
238.264	7.93
238.481	8.79
238.698	6.8
238.915	1.28
239.131	5.5
239.348	3.85
239.565	-1.53
239.781	5.99
239.998	3.6
240.215	10.72
240.431	10.93
240.648	10.2
240.865	5.15
241.081	4.05
241.298	2.29
241.514	5.81
241.731	7.75
241.947	8.24
242.164	8.7
242.38	9.32
242.597	10.14
242.814	9.22
243.03	8.86
243.246	10.74
243.463	10.1
243.679	12
243.896	10.29
244.112	10.79
244.329	10.12
244.545	7.46
244.762	5.97
244.978	2.98
245.194	6.02
245.411	4.34
245.627	3.33
245.843	7.17
246.06	8.17
246.276	9.54
246.492	7.26
246.709	8.23
246.925	8.76
247.141	9.11
247.357	8.65
247.574	7.93
247.79	8.44
248.006	7.91
248.222	7.49
248.439	6.59
248.655	4.71
248.871	4.5
249.087	4.2
249.303	2.22
249.519	3.46
249.736	3.45
249.952	1.71
250.168	1.12
250.384	-0.91
250.6	-3.38
250.816	-4.39
251.032	-3.44
251.248	-2.43
251.464	-4.41
251.68	-0.29
251.896	-1.66
252.112	-3.86
252.328	-1.96
252.544	-1.81
252.76	2.18
252.976	3.8
253.192	4.13
253.408	4.07
253.624	3.88
253.84	4.8
254.056	2.25
254.272	0.36
254.487	4.05
254.703	1.67
254.919	2.7
255.135	2.28
255.351	0.7
255.567	1.03
255.782	2.16
255.998	6.03
256.214	3.18
256.43	4.54
256.646	3.14
256.861	1.56
257.077	3.66
257.293	-0.91
257.508	-0.35
257.724	-1.85
257.94	-1.53
258.155	-2.41
258.371	-2.82
258.587	-2.66
258.802	-1.47
259.018	-0.55
259.234	0.22
259.449	-0.4
259.665	1.39
259.88	1.13
260.096	2.71
260.312	3.11
260.527	3.53
260.743	3.92
260.958	4.05
261.174	3.59
261.389	4.43
261.605	4.59
261.82	4.93
262.036	5.01
262.251	4.9
262.466	3.99
262.682	3.71
262.897	4.15
263.113	3.23
263.328	4.62
263.543	5.6
263.759	4.19
263.974	3.35
264.189	4.27
264.405	4.21
264.62	3.83
264.835	3.66
265.051	2.33
265.266	1.6
265.481	1.2
265.696	2.22
265.912	0.53
266.127	-1.91
266.342	-3.17
266.557	-1.68
266.773	-3.04
266.988	-3.76
267.203	-5.91
267.418	-3.67
267.633	-4.49
267.848	-3.35
268.064	-4.69
268.279	-3.75
268.494	-1.87
268.709	0.14
268.924	-1.44
269.139	1.84
269.354	1.48
269.569	4.2
269.784	2.86
269.999	4.78
270.214	4.79
270.429	6.48
270.644	7.57
270.859	5.61
271.074	5.01
271.289	5.04
271.504	2.32
271.719	4.44
271.934	3.46
272.149	3.93
272.363	2.03
272.578	0.72
272.793	-0.23
273.008	-1.33
273.223	-0.17
273.438	0.39
273.653	1.05
273.867	0.83
274.082	-0.36
274.297	-0.93
274.512	-1.62
274.726	0.91
274.941	1.16
275.156	1.03
275.371	1.45
275.585	2.82
275.8	2.88
276.015	1.02
276.229	2.07
276.444	3.02
276.659	4.36
276.873	3.05
277.088	1.34
277.302	2.23
277.517	1.36
277.732	0.09
277.946	-3.22
278.161	-3.96
278.375	-1.86
278.59	-1.56
278.804	-4.13
279.019	-4.39
279.233	-4.49
279.448	-3.63
279.662	-4.3
279.877	-3.97
280.091	-2.16
280.306	0.39
280.52	0.25
280.735	1.52
280.949	1.95
281.163	2.73
281.378	3.95
281.592	4.48
281.806	3.91
282.021	5.51
282.235	6.58
282.449	6.78
282.664	5.97
282.878	7.81
283.092	5.92
283.307	4.41
283.521	6.45
283.735	6.17
283.949	6.57
284.164	6.72
284.378	4.26
284.592	2.87
284.806	2.33
285.02	3.48
285.234	1.95
285.449	1.96
285.663	2.86
285.877	2.27
286.091	2.05
286.305	3.11
286.519	2.84
286.733	3.42
286.947	4.22
287.161	3.12
287.375	3.24
287.589	2.78
287.803	3.07
288.017	3.72
288.231	2.49
288.445	1.05
288.659	1.06
288.873	-0.43
289.087	-1.46
289.301	-0.83
289.515	0.11
289.729	-1.4
289.943	-0.93
290.157	-0.09
290.371	-0.68
290.584	-0.19
290.798	1.29
291.012	1.53
291.226	2.8
291.44	5.21
291.654	5.41
291.867	6.4
292.081	7.98
292.295	7.26
292.509	7.83
292.722	8.14
292.936	6.78
293.15	6.94
293.364	5.12
293.577	6
293.791	6.17
294.005	5.14
294.218	4.56
294.432	1.85
294.645	2.5
294.859	2.5
295.073	2.46
295.286	5.06
295.5	4.91
295.713	5.21
295.927	5.51
296.14	3.48
296.354	4.08
296.568	5.54
296.781	6.73
296.994	6.68
297.208	7.08
297.421	7.83
297.635	7.33
297.848	7.07
298.062	7.69
298.275	7.26
298.489	8.31
298.702	8.04
298.915	6.33
299.129	6.78
299.342	9.16
299.555	8.35
299.769	7.62
299.982	6.76
300.195	6.55
300.409	5.87
300.622	6.28
300.835	5.08
301.048	6.14
301.262	6.98
301.475	8.1
301.688	5.8
301.901	4.69
302.115	3.82
302.328	4.44
302.541	5.86
302.754	6.31
302.967	6.35
303.18	8.51
303.393	9.42
303.607	10.47
303.82	9
304.033	9.51
304.246	10.03
304.459	11.48
304.672	12.19
304.885	11.62
305.098	13.28
305.311	13.44
305.524	15.43
305.737	14.43
305.95	14.62
306.163	16.22
306.376	16.09
306.589	16.04
306.802	15.32
307.015	14.9
307.228	13.96
307.44	12.27
307.653	11.35
307.866	10.33
308.079	7.93
308.292	7.21
308.505	7.8
308.718	9.97
308.93	10.23
309.143	11.56
309.356	12.06
309.569	12.06
309.781	11.46
309.994	12.31
310.207	11.7
310.42	13.56
310.632	13.02
310.845	12.07
311.058	10.5
311.27	10.84
311.483	9.55
311.696	8.77
311.908	9.76
312.121	10.23
312.333	9.24
312.546	8.04
312.759	6.27
312.971	5.53
313.184	4.86
313.396	5.26
313.609	3.94
313.821	3.72
314.034	3.66
314.246	2.55
314.459	2.25
314.671	5.26
314.884	4.83
315.096	6.1
315.309	8.32
315.521	7.57
315.733	7.02
315.946	8.17
316.158	9.97
316.371	10.76
316.583	9.37
316.795	9.23
317.008	6.96
317.22	9.04
317.432	9.93
317.644	8.48
317.857	8.66
318.069	9.42
318.281	8.99
318.494	9.11
318.706	9.38
318.918	10.53
319.13	10.23
319.342	10.67
319.555	10.21
319.767	9.66
319.979	8.92
320.191	8.46
320.403	7.18
320.615	6.97
320.827	6.13
321.039	6.48
321.252	7.33
321.464	9.17
321.676	9.25
321.888	9.43
322.1	9.74
322.312	11.22
322.524	12.88
322.736	13.73
322.948	14.2
323.16	15.41
323.372	13.88
323.584	13.86
323.796	13.55
324.007	14.67
324.219	14.45
324.431	14.14
324.643	13.56
324.855	12.79
325.067	13.97
325.279	14.66
325.491	13.68
325.702	14.77
325.914	15.88
326.126	16.07
326.338	14.99
326.55	16.01
326.761	16.68
326.973	17.31
327.185	19.08
327.396	20.04
327.608	19.51
327.82	18.94
328.032	20.14
328.243	19.61
328.455	19.17
328.666	18.72
328.878	17.68
329.09	17.63
329.301	18.67
329.513	16.7
329.725	13.51
329.936	14.42
330.148	15.35
330.359	14.43
330.571	14.65
330.782	16.08
330.994	18.5
331.205	18.9
331.417	20.48
331.628	21.27
331.84	22.6
332.051	26.16
332.262	24.83
332.474	26.02
332.685	27.97
332.897	28.66
333.108	29.1
333.319	28.11
333.531	27.64
333.742	27.17
333.953	26.38
334.165	27.88
334.376	27.09
334.587	28.4
334.799	29.04
335.01	27.81
335.221	26.98
335.432	26.07
335.644	26.07
335.855	26.69
336.066	25.9
336.277	26.41
336.488	26.33
336.7	26.17
336.911	27.17
337.122	26.5
337.333	26.28
337.544	27.76
337.755	28.78
337.966	28.99
338.177	29.23
338.388	29.2
338.599	29.74
338.811	28.64
339.022	29.61
339.233	29.75
339.444	29.93
339.655	30.44
339.866	30.11
340.076	30.53
340.287	31.31
340.498	31.69
340.709	31.79
340.92	30.31
341.131	31.33
341.342	30.95
341.553	31.77
341.764	31.6
341.975	30.71
342.185	30.76
342.396	29.83
342.607	29.44
342.818	29.23
343.029	31.38
343.239	32.18
343.45	32.01
343.661	31.17
343.872	29.87
344.082	30.72
344.293	31.76
344.504	31.73
344.714	30.81
344.925	31.36
345.136	32.1
345.346	30.85
345.557	31.05
345.768	31.28
345.978	32.47
346.189	32.91
346.399	31.82
346.61	31.75
346.821	31.47
347.031	34.26
347.242	34.23
347.452	33.96
347.663	35.66
347.873	35.95
348.084	34.36
348.294	33.31
348.504	32.15
348.715	32
348.925	31.82
349.136	31.88
349.346	30.57
349.557	30.93
349.767	30.8
349.977	29.19
350.188	28.37
350.398	29.86
350.608	29.98
350.819	31.91
351.029	32.81
351.239	33.55
351.449	33.86
351.66	33.85
351.87	33
352.08	32.65
352.29	33.25
352.501	33.39
352.711	34.15
352.921	36.36
353.131	34.45
353.341	34.89
353.552	33.47
353.762	33.6
353.972	32.89
354.182	33.35
354.392	34.04
354.602	33.81
354.812	35.19
355.022	34.6
355.232	32.96
355.442	33.45
355.652	32.22
355.862	32.91
356.072	31.15
356.282	32.86
356.492	32.54
356.702	32.64
356.912	32.22
357.122	30.85
357.332	30.73
357.542	31.12
357.752	31.18
357.962	32.28
358.171	32.89
358.381	33.76
358.591	32.91
358.801	32.78
359.011	33.08
359.221	32.94
359.43	33.16
359.64	33.67
359.85	32.68
360.06	33.02
360.269	32.55
360.479	32.11
360.689	32.09
360.899	31.91
361.108	31.89
361.318	31.74
361.528	31.9
361.737	32.13
361.947	31.27
362.156	32.28
362.366	31.78
362.576	31.26
362.785	30.91
362.995	31.7
363.204	31.64
363.414	31.78
363.623	31.69
363.833	31.78
364.042	31.43
364.252	32.3
364.461	31.52
364.671	31.6
364.88	31.15
365.09	30.82
365.299	30.18
365.509	29.71
365.718	29.44
365.927	28.97
366.137	28.94
366.346	29.34
366.555	28.86
366.765	28.52
366.974	29.07
367.183	30.37
367.393	30.71
367.602	30.46
367.811	30.32
368.021	30.38
368.23	30.74
368.439	30.13
368.648	29.9
368.857	29.72
369.067	30.17
369.276	29.09
369.485	27.72
369.694	27.51
369.903	27.77
370.112	28.04
370.321	27.38
370.531	26
370.74	26.82
370.949	27.26
371.158	27.41
371.367	27.71
371.576	28.67
371.785	29.13
371.994	29.32
372.203	29.11
372.412	28.99
372.621	29.43
372.83	30.96
373.039	30.45
373.248	29.46
373.457	29.54
373.666	29.2
373.874	28.61
374.083	29.1
374.292	29.25
374.501	29.4
374.71	30.13
374.919	30.04
375.128	28.94
375.336	28.85
375.545	29.3
375.754	28.93
375.963	28.04
376.171	27.86
376.38	27.4
376.589	27.05
376.798	26.52
377.006	26.02
377.215	26.23
377.424	26.33
377.632	26.11
377.841	25.81
378.05	26.09
378.258	26.29
378.467	26.72
378.675	26.73
378.884	26.52
379.093	27.25
379.301	27.36
379.51	27.52
379.718	28.21
379.927	28.49
380.135	28.28
380.344	27.44
380.552	27.48
380.761	26.71
380.969	26.55
381.177	26.57
381.386	25.86
381.594	25.51
381.803	25.58
382.011	25.37
382.219	24.93
382.428	25.2
382.636	25.73
382.845	25.62
383.053	26.09
383.261	26.26
383.469	26.48
383.678	26.56
383.886	26.52
384.094	25.83
384.302	25.18
384.511	25.31
384.719	25.44
384.927	25.41
385.135	25.58
385.343	24.72
385.552	24.56
385.76	24.45
385.968	24.51
386.176	24.22
386.384	24.45
386.592	24.74
386.8	24.86
387.008	24.39
387.216	24.6
387.424	23.87
387.633	24.55
387.841	23.95
388.049	23.84
388.257	23.6
388.465	23.73
388.672	23.75
388.88	23.47
389.088	23.28
389.296	23.4
389.504	22.5
389.712	23
389.92	22.58
390.128	23.08
390.336	22.75
390.544	22.57
390.751	22.62
390.959	22.44
391.167	22.72
391.375	22.57
391.583	22.4
391.79	22.89
391.998	22.81
392.206	23.12
392.414	23
392.621	23.19
392.829	23.46
393.037	23.65
393.244	23.68
393.452	23.42
393.66	23.56
393.867	23.75
394.075	24
394.283	24.15
394.49	23.82
394.698	23.86
394.905	23.64
395.113	23.56
395.32	23.55
395.528	23.87
395.735	24.29
395.943	24.22
396.15	24.09
396.358	23.73
396.565	24.11
396.773	24.17
396.98	24.16
397.188	24.72
397.395	24.77
397.602	24.8
397.81	24.48
398.017	24.06
398.225	24.35
398.432	24.72
398.639	24.85
398.847	24.74
399.054	24.89
399.261	24.98
399.468	24.68
399.676	24.64
399.883	24.36
400.09	24.29
400.297	24.37
400.505	24.37
400.712	24.23
400.919	24.31
401.126	23.9
401.333	23.93
401.54	23.98
401.748	24.18
401.955	24.08
402.162	24.42
402.369	24.6
402.576	24.64
402.783	24.45
402.99	24.36
403.197	23.96
403.404	24.16
403.611	24.16
403.818	24.33
404.025	24.52
404.232	24.69
404.439	24.47
404.646	24.69
404.853	24.49
405.06	24.84
405.267	24.92
405.474	25.1
405.681	25.08
405.887	25.28
406.094	25.29
406.301	24.91
406.508	24.72
406.715	24.97
406.922	25.02
407.128	25.18
407.335	24.86
407.542	25.07
407.749	25.74
407.955	26
408.162	25.85
408.369	25.51
408.575	25.64
408.782	25.95
408.989	25.77
409.195	25.5
409.402	25.57
409.609	25.6
409.815	25.21
410.022	24.68
410.228	24.67
410.435	24.47
410.642	24.52
410.848	24.89
411.055	24.92
411.261	25.01
411.468	24.87
411.674	24.86
411.881	25.1
412.087	25.45
412.294	25.51
412.5	25.28
412.706	25.6
412.913	25.71
413.119	25.24
413.326	25.34
413.532	25.23
413.738	25.54
413.945	25.61
414.151	25.15
414.357	25.06
414.564	24.91
414.77	25.08
414.976	25.01
415.182	25.04
415.389	25.12
415.595	25.18
415.801	25.03
416.007	24.7
416.214	24.64
416.42	25.05
416.626	25.25
416.832	25.46
417.038	25.31
417.244	25.34
417.45	25.37
417.657	25.38
417.863	25.1
418.069	25.15
418.275	25.18
418.481	25.17
418.687	24.75
418.893	24.48
419.099	24.35
419.305	24.31
419.511	24.3
419.717	24.16
419.923	24.17
420.129	24.11
420.335	24.24
420.541	24.14
420.746	24.01
420.952	24.16
421.158	24.24
421.364	24.12
421.57	24.03
421.776	24.06
421.982	24.04
422.187	24.06
422.393	24.07
422.599	24.08
422.805	24.22
423.01	24.37
423.216	24.29
423.422	24.2
423.628	24.24
423.833	24.24
424.039	24.07
424.245	24.15
424.45	24.1
424.656	24.02
424.862	23.79
425.067	23.63
425.273	23.57
425.478	23.57
425.684	23.55
425.889	23.51
426.095	23.53
426.301	23.59
426.506	23.56
426.712	23.47
426.917	23.47
427.123	23.52
427.328	23.47
427.533	23.49
427.739	23.51
427.944	23.39
428.15	23.42
428.355	23.23
428.561	23.16
428.766	22.87
428.971	22.83
429.177	23.02
429.382	22.97
429.587	23.23
429.793	23.1
429.998	22.99
430.203	22.98
430.408	23.1
430.614	23.38
430.819	23.23
431.024	23.63
431.229	23.75
431.434	23.71
431.64	23.85
431.845	23.7
432.05	23.74
432.255	23.93
432.46	23.98
432.665	23.81
432.87	23.66
433.076	23.64
433.281	23.54
433.486	23.36
433.691	23.28
433.896	23.21
434.101	23.33
434.306	23.32
434.511	23.16
434.716	23.24
434.921	23.16
435.126	23.31
435.331	23.36
435.535	23.27
435.74	23.32
435.945	23.33
436.15	23.35
436.355	23.3
436.56	23.21
436.765	23.3
436.97	23.31
437.174	23.45
437.379	23.38
437.584	23.3
437.789	23.47
437.993	23.51
438.198	23.37
438.403	23.24
438.608	23.05
438.812	23.15
439.017	23.16
439.222	23.15
439.426	23.12
439.631	23.12
439.836	23.28
440.04	23.03
440.245	23.05
440.45	23.15
440.654	23.27
440.859	23.44
441.063	23.41
441.268	23.39
441.472	23.49
441.677	23.64
441.881	23.62
442.086	23.45
442.29	23.65
442.495	23.66
442.699	23.57
442.904	23.45
443.108	23.31
443.312	23.22
443.517	23.13
443.721	22.83
443.925	22.62
444.13	22.59
444.334	22.8
444.538	22.87
444.743	22.86
444.947	22.8
445.151	22.94
445.356	22.97
445.56	23.04
445.764	23.07
445.968	23.2
446.173	23.13
446.377	23.17
446.581	23.03
446.785	22.91
446.989	22.79
447.193	22.85
447.398	22.61
447.602	22.59
447.806	22.44
448.01	22.58
448.214	22.45
448.418	22.51
448.622	22.31
448.826	22.23
449.03	22.14
449.234	22.21
449.438	22.14
449.642	22.28
449.846	22.31
450.05	22.49
450.254	22.22
450.458	22.11
450.662	22.15
450.866	22.08
451.069	22.24
451.273	22.09
451.477	22.21
451.681	22.26
451.885	22.22
452.089	22.16
452.292	21.98
452.496	21.98
452.7	22.09
452.904	21.91
453.107	22.07
453.311	22.17
453.515	22.06
453.719	21.97
453.922	21.87
454.126	21.93
454.33	21.81
454.533	21.95
454.737	22.05
454.94	21.91
455.144	22.01
455.348	22.06
455.551	21.91
455.755	22.09
455.958	22.13
456.162	22.14
456.365	22.08
456.569	22.01
456.772	22.16
456.976	21.94
457.179	22.1
457.383	22.03
457.586	21.98
457.79	22.15
457.993	22.24
458.196	22.08
458.4	22.33
458.603	22.27
458.807	22.48
459.01	22.32
459.213	22.41
459.417	22.36
459.62	22.32
459.823	22.36
460.026	22.28
460.23	22.27
460.433	22.42
460.636	22.39
460.839	22.5
461.042	22.46
461.246	22.48
461.449	22.52
461.652	22.5
461.855	22.6
462.058	22.5
462.261	22.5
462.464	22.57
462.668	22.65
462.871	22.64
463.074	22.65
463.277	22.77
463.48	22.82
463.683	22.95
463.886	22.95
464.089	23.06
464.292	23.06
464.495	23.04
464.698	23.03
464.901	22.86
465.104	22.82
465.306	22.75
465.509	22.7
465.712	22.6
465.915	22.47
466.118	22.62
466.321	22.43
466.524	22.46
466.726	22.59
466.929	22.87
467.132	22.86
467.335	22.84
467.538	22.94
467.74	23.08
467.943	23.11
468.146	23.32
468.348	23.56
468.551	23.7
468.754	23.75
468.956	23.7
469.159	23.48
469.362	23.5
469.564	23.57
469.767	23.47
469.969	23.32
470.172	23.37
470.375	23.16
470.577	22.94
470.78	22.94
470.982	23.21
471.185	23.34
471.387	23.13
471.59	23.09
471.792	22.99
471.995	23.22
472.197	23.2
472.399	23.05
472.602	23.16
472.804	23.15
473.007	23.01
473.209	22.68
473.411	22.58
473.614	22.67
473.816	22.82
474.018	22.9
474.22	22.79
474.423	22.73
474.625	22.87
474.827	22.91
475.03	22.97
475.232	23.12
475.434	23.35
475.636	23.43
475.838	23.46
476.04	23.43
476.243	23.41
476.445	23.32
476.647	23.41
476.849	23.35
477.051	23.19
477.253	23.28
477.455	23.38
477.657	23.31
477.859	23.32
478.061	23.52
478.263	23.42
478.465	23.41
478.667	23.44
478.869	23.48
479.071	23.62
479.273	23.82
479.475	23.51
479.677	23.39
479.879	23.34
480.081	23.27
480.283	23.08
480.485	23.17
480.686	23.12
480.888	23.11
481.09	23.02
481.292	22.93
481.494	22.78
481.695	23.04
481.897	22.95
482.099	23.07
482.301	23.01
482.502	23.07
482.704	22.97
482.906	22.99
483.107	23.06
483.309	23.02
483.511	23.06
483.712	23.16
483.914	23.09
484.115	23.13
484.317	23.07
484.519	23.09
484.72	23.11
484.922	23.14
485.123	23.12
485.325	23.05
485.526	23.11
485.728	23.12
485.929	22.98
486.131	22.99
486.332	23
486.534	23.03
486.735	22.98
486.936	22.98
487.138	22.99
487.339	23.03
487.541	23.08
487.742	23.1
487.943	23.01
488.144	22.95
488.346	22.97
488.547	22.89
488.748	22.87
488.95	22.88
489.151	22.84
489.352	22.82
489.553	22.78
489.755	22.79
489.956	22.69
490.157	22.75
490.358	22.96
490.559	22.95
490.76	23.05
490.961	23.16
491.163	23.16
491.364	23.18
491.565	23.19
491.766	23.17
491.967	23.11
492.168	23.15
492.369	23.13
492.57	23.16
492.771	23.12
492.972	23.15
493.173	23.12
493.374	23.28
493.575	23.32
493.776	23.49
493.976	23.62
494.177	23.71
494.378	23.83
494.579	23.91
494.78	23.88
494.981	23.95
495.182	24.02
495.382	24.09
495.583	23.86
495.784	23.79
495.985	23.69
496.185	23.59
496.386	23.75
496.587	23.68
496.788	23.65
496.988	23.61
497.189	23.64
497.39	23.51
497.59	23.44
497.791	23.56
497.992	23.64
498.192	23.71
498.393	23.72
498.593	23.56
498.794	23.61
498.994	23.77
499.195	23.78
499.395	23.79
499.596	23.88
499.796	23.85
499.997	23.93
500.197	23.89
500.398	23.71
500.598	23.84
500.799	23.98
500.999	23.98
501.199	24.05
501.4	24.06
501.6	24.16
501.801	24.19
502.001	24.3
502.201	24.29
502.402	24.25
502.602	24.35
502.802	24.32
503.002	24.31
503.203	24.4
503.403	24.31
503.603	24.43
503.803	24.4
504.003	24.47
504.204	24.49
504.404	24.25
504.604	24.38
504.804	24.55
505.004	24.7
505.204	24.69
505.404	24.7
505.604	24.67
505.804	24.68
506.005	24.8
506.205	24.86
506.405	25.11
506.605	25.38
506.805	25.26
507.005	25.32
507.204	25.4
507.404	25.43
507.604	25.54
507.804	25.67
508.004	25.75
508.204	25.81
508.404	25.79
508.604	25.69
508.804	25.72
509.003	25.85
509.203	25.84
509.403	25.84
509.603	25.97
509.803	25.99
510.002	26.14
510.202	26.26
510.402	26.17
510.602	26.22
510.801	26.26
511.001	26.34
511.201	26.47
511.4	26.56
511.6	26.66
511.8	26.74
511.999	26.68
512.199	26.78
512.398	26.77
512.598	26.94
512.797	26.94
512.997	26.92
513.197	26.86
513.396	26.89
513.596	26.89
513.795	26.85
513.994	26.8
514.194	26.87
514.393	26.78
514.593	26.8
514.792	27.04
514.992	27.26
515.191	27.39
515.39	27.63
515.59	27.75
515.789	27.86
515.988	27.97
516.188	28.14
516.387	28.32
516.586	28.36
516.786	28.46
516.985	28.37
517.184	28.48
517.383	28.54
517.582	28.63
517.782	28.68
517.981	28.72
518.18	28.82
518.379	28.86
518.578	28.77
518.777	28.77
518.976	28.75
519.176	28.81
519.375	28.84
519.574	28.88
519.773	28.81
519.972	28.9
520.171	29.05
520.37	29.05
520.569	29.05
520.768	29.25
520.967	29.42
521.166	29.55
521.365	29.65
521.564	29.58
521.762	29.63
521.961	29.77
522.16	29.91
522.359	29.94
522.558	30.13
522.757	30.38
522.956	30.39
523.154	30.45
523.353	30.53
523.552	30.61
523.751	30.79
523.949	30.99
524.148	31.08
524.347	30.98
524.546	31.07
524.744	31.06
524.943	31.1
525.142	31.19
525.34	31.29
525.539	31.33
525.737	31.39
525.936	31.44
526.135	31.39
526.333	31.47
526.532	31.42
526.73	31.5
526.929	31.55
527.127	31.58
527.326	31.71
527.524	31.69
527.723	31.72
527.921	31.76
528.12	31.85
528.318	31.94
528.516	31.98
528.715	32.14
528.913	32.16
529.112	32.17
529.31	32.26
529.508	32.21
529.707	32.32
529.905	32.39
530.103	32.4
530.301	32.42
530.5	32.46
530.698	32.53
530.896	32.5
531.094	32.61
531.293	32.79
531.491	32.75
531.689	32.88
531.887	33.02
532.085	33.06
532.283	33.01
532.481	33.06
532.68	33.2
532.878	33.32
533.076	33.5
533.274	33.53
533.472	33.46
533.67	33.47
533.868	33.53
534.066	33.51
534.264	33.66
534.462	33.85
534.66	33.96
534.858	33.89
535.056	33.83
535.253	33.8
535.451	33.82
535.649	33.93
535.847	34.09
536.045	34.1
536.243	34.12
536.441	34.05
536.638	34.13
536.836	34.12
537.034	34.21
537.232	34.32
537.43	34.34
537.627	34.32
537.825	34.33
538.023	34.36
538.22	34.54
538.418	34.61
538.616	34.71
538.813	34.78
539.011	34.83
539.209	34.79
539.406	34.82
539.604	34.72
539.801	34.81
539.999	35
540.196	34.92
540.394	34.88
540.591	34.9
540.789	34.98
540.986	35
541.184	35.03
541.381	35.17
541.579	35.27
541.776	35.36
541.974	35.37
542.171	35.38
542.368	35.53
542.566	35.55
542.763	35.61
542.96	35.59
543.158	35.65
543.355	35.65
543.552	35.63
543.75	35.54
543.947	35.65
544.144	35.67
544.341	35.76
544.539	35.68
544.736	35.76
544.933	35.78
545.13	35.84
545.327	35.98
545.524	36
545.722	36.08
545.919	36.14
546.116	36.19
546.313	36.16
546.51	36.1
546.707	36.06
546.904	36.07
547.101	36.09
547.298	36.02
547.495	35.95
547.692	36.01
547.889	36.11
548.086	36.21
548.283	36.13
548.48	36.25
548.677	36.44
548.874	36.61
549.07	36.74
549.267	36.73
549.464	36.92
549.661	37.06
549.858	37.32
550.055	37.24
550.251	37.24
550.448	37.31
550.645	37.52
550.842	37.27
551.038	37.27
551.235	37.49
551.432	37.56
551.628	37.55
551.825	37.45
552.022	37.49
552.218	37.36
552.415	37.52
552.612	37.64
552.808	37.75
553.005	37.87
553.201	37.89
553.398	37.7
553.594	37.8
553.791	37.88
553.987	37.92
554.184	37.86
554.38	37.96
554.577	37.93
554.773	37.86
554.97	37.68
555.166	37.8
555.362	37.76
555.559	37.75
555.755	37.87
555.952	37.85
556.148	37.94
556.344	37.82
556.541	38.17
556.737	38.39
556.933	38.69
557.129	38.85
557.326	38.89
557.522	39.08
557.718	39.19
557.914	39.1
558.11	39.04
558.307	39.04
558.503	39.26
558.699	39
558.895	38.82
559.091	38.83
559.287	38.89
559.483	38.85
559.679	38.93
559.876	38.97
560.072	38.96
560.268	39.26
560.464	39.31
560.66	39.41
560.856	39.55
561.052	39.46
561.247	39.42
561.443	39.38
561.639	39.47
561.835	39.56
562.031	39.71
562.227	39.87
562.423	39.77
562.619	39.83
562.815	39.49
563.01	39.57
563.206	39.64
563.402	39.87
563.598	39.96
563.793	39.92
563.989	39.83
564.185	39.83
564.381	39.94
564.576	40
564.772	39.99
564.968	40.28
565.163	40.13
565.359	40.32
565.555	39.98
565.75	39.8
565.946	39.66
566.141	39.85
566.337	39.68
566.532	39.45
566.728	39.35
566.923	39.34
567.119	39.25
567.314	39.49
567.51	39.24
567.705	39.39
567.901	39.54
568.096	39.76
568.292	39.64
568.487	39.78
568.682	39.96
568.878	39.88
569.073	39.89
569.268	40.03
569.464	40.1
569.659	40.39
569.854	40.41
570.05	40.5
570.245	40.47
570.44	40.4
570.635	40.4
570.831	40.37
571.026	40.73
571.221	40.61
571.416	40.42
571.611	40.28
571.806	40.17
572.002	40.19
572.197	40.09
572.392	40.1
572.587	40.39
572.782	40.45
572.977	40.41
573.172	40.35
573.367	40.45
573.562	40.67
573.757	40.81
573.952	40.94
574.147	41.01
574.342	40.92
574.537	40.96
574.732	40.75
574.927	40.69
575.121	40.72
575.316	40.62
575.511	40.63
575.706	40.57
575.901	40.43
576.096	40.34
576.29	40.35
576.485	40.66
576.68	40.77
576.875	40.91
577.069	40.7
577.264	40.62
577.459	40.75
577.654	40.95
577.848	41.24
578.043	41.27
578.238	41.3
578.432	41.19
578.627	41.11
578.821	40.91
579.016	40.7
579.21	41.02
579.405	41.22
579.6	41.24
579.794	41.41
579.989	41.13
580.183	41.45
580.378	41.42
580.572	41.54
580.766	41.26
580.961	41.5
581.155	41.52
581.35	41.56
581.544	41.57
581.738	41.57
581.933	41.19
582.127	41.16
582.321	40.99
582.516	41.12
582.71	40.84
582.904	41.03
583.099	41.11
583.293	41.2
583.487	41.2
583.681	41.22
583.875	41.2
584.07	41.59
584.264	41.87
584.458	41.73
584.652	41.34
584.846	41.69
585.04	41.59
585.234	41.6
585.428	41.71
585.623	41.64
585.817	41.54
586.011	41.4
586.205	41.18
586.399	41.24
586.593	41.14
586.787	41.59
586.981	41.56
587.174	41.77
587.368	41.55
587.562	41.4
587.756	41.36
587.95	41.36
588.144	41.63
588.338	41.58
588.532	41.61
588.725	41.95
588.919	42.08
589.113	42.27
589.307	42.46
589.501	42.41
589.694	42.42
589.888	42.52
590.082	42.69
590.275	42.64
590.469	42.73
590.663	42.64
590.856	42.61
591.05	42.47
591.244	42.26
591.437	41.64
591.631	41.77
591.824	42.14
592.018	42.07
592.212	42.35
592.405	42.31
592.599	41.94
592.792	41.81
592.986	41.75
593.179	41.6
593.372	41.49
593.566	41.88
593.759	41.85
593.953	41.68
594.146	41.65
594.339	41.21
594.533	41.28
594.726	41.54
594.92	41.66
595.113	41.63
595.306	41.65
595.499	41.95
595.693	41.92
595.886	41.95
596.079	42.04
596.272	42.19
596.466	42.48
596.659	42.5
596.852	42.62
597.045	42.75
597.238	42.83
597.431	43.13
597.624	42.97
597.818	43.1
598.011	43.09
598.204	42.98
598.397	42.99
598.59	42.6
598.783	42.49
598.976	42.26
599.169	41.9
599.362	41.86
599.555	41.55
599.748	41.67
599.941	41.5
600.134	41.37
600.326	41.46
600.519	41.68
600.712	41.91
600.905	42.02
601.098	42.18
601.291	42.32
601.483	42.31
601.676	42.53
601.869	42.75
602.062	42.8
602.255	43.29
602.447	43.37
602.64	43.34
602.833	43.67
603.025	43.79
603.218	43.96
603.411	43.89
603.603	43.79
603.796	43.69
603.989	43.41
604.181	43.62
604.374	43.31
604.566	43.35
604.759	43.2
604.951	43.12
605.144	43.08
605.336	43.05
605.529	43.15
605.721	43.21
605.914	43.28
606.106	43.34
606.299	43.1
606.491	43.14
606.683	43.12
606.876	43.22
607.068	43.01
607.26	42.85
607.453	42.72
607.645	42.77
607.837	42.86
608.03	42.97
608.222	43.02
608.414	43.01
608.606	43.2
608.799	43.17
608.991	43.22
609.183	43.23
609.375	43.39
609.567	43.3
609.759	43.1
609.952	43.02
610.144	42.76
610.336	42.76
610.528	42.8
610.72	42.71
610.912	42.58
611.104	42.67
611.296	42.75
611.488	42.64
611.68	43.07
611.872	43.32
612.064	43.14
612.256	43.23
612.448	43.27
612.64	43.29
612.832	42.93
613.023	42.69
613.215	42.44
613.407	42.36
613.599	42.33
613.791	41.89
613.983	41.8
614.174	41.91
614.366	41.82
614.558	41.66
614.75	41.47
614.941	41.97
615.133	42.16
615.325	42.12
615.516	42.27
615.708	42.49
615.9	42.63
616.091	42.61
616.283	42.99
616.475	43.16
616.666	43.51
616.858	43.7
617.049	43.71
617.241	43.82
617.432	43.98
617.624	44.04
617.815	43.75
618.007	43.89
618.198	44
618.39	43.84
618.581	43.83
618.773	43.9
618.964	43.88
619.155	43.51
619.347	43.49
619.538	43.71
619.729	43.68
619.921	44.06
620.112	43.95
620.303	43.92
620.494	43.73
620.686	43.93
620.877	43.93
621.068	44.28
621.259	44.48
621.451	44.39
621.642	44.24
621.833	44.1
622.024	44.06
622.215	43.89
622.406	43.65
622.597	44.08
622.788	43.76
622.98	43.47
623.171	43.48
623.362	43.59
623.553	43.75
623.744	43.55
623.935	43.44
624.126	43.07
624.317	43.54
624.508	43.84
624.698	43.44
624.889	43.42
625.08	43.44
625.271	43.22
625.462	43.41
625.653	43.14
625.844	42.98
626.034	43.2
626.225	43.53
626.416	43.22
626.607	43.15
626.798	43.41
626.988	43.48
627.179	43.53
627.37	43.43
627.56	43.56
627.751	43.78
627.942	43.97
628.132	43.86
628.323	43.63
628.514	43.7
628.704	43.66
628.895	43.56
629.085	43.71
629.276	43.55
629.466	43.73
629.657	43.59
629.847	43.54
630.038	43.63
630.228	43.78
630.419	44.12
630.609	43.97
630.8	43.61
630.99	43.54
631.181	43.46
631.371	43.48
631.561	43.37
631.752	43.38
631.942	43.32
632.132	43.14
632.323	42.78
632.513	42.35
632.703	42.44
632.893	42.66
633.084	42.48
633.274	42.38
633.464	42.7
633.654	42.85
633.844	42.65
634.034	42.69
634.225	42.87
634.415	43.21
634.605	43.57
634.795	43.83
634.985	44.19
635.175	44.34
635.365	44.23
635.555	44.1
635.745	44.3
635.935	44.66
636.125	44.93
636.315	44.78
636.505	44.49
636.695	44.55
636.885	44.38
637.075	44.23
637.265	44.34
637.455	44.37
637.644	44.31
637.834	44.39
638.024	43.88
638.214	43.82
638.404	44.35
638.593	44.36
638.783	43.94
638.973	43.76
639.163	43.86
639.352	44
639.542	44.27
639.732	44.33
639.921	44.1
640.111	44.18
640.301	43.93
640.49	43.55
640.68	43.85
640.87	44.26
641.059	44.42
641.249	44.01
641.438	44.06
641.628	44.11
641.817	44.16
642.007	44.33
642.196	44.64
642.386	45.01
642.575	44.94
642.764	45.08
642.954	45.2
643.143	45.1
643.333	45.32
643.522	45.36
643.711	45.25
643.901	45.21
644.09	44.98
644.279	44.6
644.469	44.38
644.658	44.36
644.847	44.05
645.036	43.62
645.226	43.83
645.415	44.23
645.604	43.62
645.793	43.53
645.982	43.63
646.171	43.49
646.361	43.46
646.55	43.46
646.739	43.41
646.928	43.41
647.117	43.27
647.306	42.93
647.495	42.55
647.684	42.89
647.873	42.93
648.062	42.85
648.251	42.87
648.44	43.12
648.629	43.37
648.818	43.24
649.007	43.56
649.196	44.12
649.384	44.29
649.573	44.5
649.762	44.58
649.951	45.25
650.14	45.2
650.328	45.52
650.517	45.14
650.706	44.69
650.895	45.14
651.083	44.94
651.272	45.05
651.461	44.74
651.65	44.73
651.838	44.7
652.027	44.2
652.216	44.23
652.404	44.31
652.593	44.56
652.781	44.59
652.97	44.34
653.158	44.43
653.347	44.32
653.535	44.79
653.724	44.86
653.912	44.66
654.101	44.69
654.289	44.71
654.478	44.19
654.666	44.22
654.855	44.36
655.043	44.25
655.231	43.88
655.42	43.73
655.608	43.42
655.796	43
655.985	43.03
656.173	43.05
656.361	42.75
656.55	42.7
656.738	42.91
656.926	42.96
657.114	43.11
657.302	43.07
657.491	42.87
657.679	43.13
657.867	43.53
658.055	43.54
658.243	43.54
658.431	43.48
658.619	43.88
658.807	43.83
658.996	43.91
659.184	44.13
659.372	44.47
659.56	44.83
659.748	44.92
659.936	44.76
660.124	44.97
660.311	45.12
660.499	45.27
660.687	45.08
660.875	44.91
661.063	44.83
661.251	44.64
661.439	44.5
661.627	44.15
661.814	44.32
662.002	44.36
662.19	44.41
662.378	44.21
662.565	44.4
662.753	44.62
662.941	44.5
663.129	44.47
663.316	44.82
663.504	44.94
663.692	44.9
663.879	45.06
664.067	45.34
664.254	45.26
664.442	45.18
664.63	45.08
664.817	44.88
665.005	44.96
665.192	45.73
665.38	45.58
665.567	45.38
665.755	46.06
665.942	45.67
666.13	45.61
666.317	45.65
666.504	45.5
666.692	46.1
666.879	46.23
667.067	46.14
667.254	45.57
667.441	45.36
667.629	45.91
667.816	45.22
668.003	45.26
668.19	45.31
668.378	44.95
668.565	45.37
668.752	45.13
668.939	44.75
669.127	45.06
669.314	45.09
669.501	45.09
669.688	44.46
669.875	44.66
670.062	44.35
670.249	44.5
670.436	44.81
670.623	44.7
670.81	44.44
670.997	44.49
671.184	44.16
671.371	43.52
671.558	43.61
671.745	44.2
671.932	43.86
672.119	43.79
672.306	43.22
672.493	43.42
672.68	43.42
672.867	43.46
673.054	43.53
673.24	43.75
673.427	43.91
673.614	43.79
673.801	43.54
673.988	43.6
674.174	43.87
674.361	44.02
674.548	43.71
674.734	44.03
674.921	43.76
675.108	44.16
675.294	44.62
675.481	44.69
675.668	45.38
675.854	45.59
676.041	45.59
676.227	45.9
676.414	45.98
676.601	46.21
676.787	46.37
676.974	46.36
677.16	45.88
677.347	45.33
677.533	45.59
677.719	45.29
677.906	45.14
678.092	45.26
678.279	44.9
678.465	45.22
678.651	45.16
678.838	44.58
679.024	44.59
679.21	44.92
679.397	44.96
679.583	44.78
679.769	44.63
679.955	44.23
680.142	44.36
680.328	44.52
680.514	44.41
680.7	44.85
680.886	44.79
681.073	44.56
681.259	44.17
681.445	43.89
681.631	44.1
681.817	44.09
682.003	44.25
682.189	44.22
682.375	43.88
682.561	43.7
682.747	43.04
682.933	43.08
683.119	43.42
683.305	43.9
683.491	43.85
683.677	43.58
683.863	43.34
684.049	43.08
684.235	43.28
684.42	43.41
684.606	43.12
684.792	42.84
684.978	43.1
685.164	43
685.349	42.51
685.535	43.28
685.721	43.52
685.907	43.4
686.092	44.03
686.278	43.97
686.464	44.58
686.649	45.15
686.835	45.33
687.021	45.02
687.206	45.48
687.392	45.66
687.577	45.22
687.763	45.29
687.948	45.67
688.134	45.69
688.319	45.18
688.505	44.47
688.69	44.3
688.876	44.59
689.061	44.33
689.247	43.87
689.432	43.92
689.618	44.02
689.803	43.9
689.988	43.86
690.174	43.93
690.359	44.06
690.544	44.23
690.73	44.37
690.915	44.71
691.1	45.05
691.285	45.53
691.471	45.7
691.656	45.49
691.841	45.44
692.026	45.14
692.211	44.8
692.396	44.93
692.582	44.75
692.767	44.54
692.952	43.96
693.137	44.31
693.322	43.8
693.507	43.85
693.692	43.83
693.877	44.04
694.062	44.37
694.247	44.08
694.432	44
694.617	44.26
694.802	44.05
694.987	44.53
695.172	44.43
695.357	44.44
695.541	44.23
695.726	44.57
695.911	44.41
696.096	43.86
696.281	44.53
696.466	44.25
696.65	44.44
696.835	44.44
697.02	43.75
697.204	43.46
697.389	43.32
697.574	43.43
697.759	43.04
697.943	43.21
698.128	44.06
698.312	43.82
698.497	44.24
698.682	44.38
698.866	44.35
699.051	44.35
699.235	44.45
699.42	44.69
699.604	44.5
699.789	44.67
699.973	44.5
700.158	43.82
700.342	43.61
700.527	43.39
700.711	43.12
700.895	42.81
701.08	42.89
701.264	42.49
701.448	42.09
701.633	42.42
701.817	42.75
702.001	43.28
702.186	43.41
702.37	44.11
702.554	43.97
702.738	44.34
702.923	44.96
703.107	45.3
703.291	45.23
703.475	45.16
703.659	45.34
703.843	45.56
704.027	45.22
704.212	45.08
704.396	44.8
704.58	45.26
704.764	44.71
704.948	45.32
705.132	45.02
705.316	45.51
705.5	45.5
705.684	45.47
705.868	45.02
706.052	45.2
706.235	45.74
706.419	45.27
706.603	44.96
706.787	44.91
706.971	43.79
707.155	44.37
707.339	44.82
707.522	45.92
707.706	45.16
707.89	45.07
708.074	45.17
708.257	44.69
708.441	44.47
708.625	44.8
708.808	45.09
708.992	45.51
709.176	45.35
709.359	44.55
709.543	44.38
709.727	45.05
709.91	45.33
710.094	44.79
710.277	45.29
710.461	46.07
710.644	46.19
710.828	46.36
711.011	46.31
711.195	46.15
711.378	46.17
711.562	45.61
711.745	45.4
711.928	44.4
712.112	45.04
712.295	45.38
712.478	45.07
712.662	44.49
712.845	43.97
713.028	43.83
713.212	43.36
713.395	43.27
713.578	43.06
713.761	43.16
713.945	43.2
714.128	42.65
714.311	42.44
714.494	42.35
714.677	42.53
714.86	42.34
715.043	43.2
715.227	43.98
715.41	44.62
715.593	45.43
715.776	45.44
715.959	45.83
716.142	45.91
716.325	45.99
716.508	46.11
716.691	45.55
716.874	46.38
717.057	45.74
717.239	45.53
717.422	44.92
717.605	44.37
717.788	44.35
717.971	44.44
718.154	44.43
718.337	43.42
718.519	44.24
718.702	45.04
718.885	44.83
719.068	45.19
719.25	44.72
719.433	45.68
719.616	45.41
719.798	44.81
719.981	44.53
720.164	45.31
720.346	45.57
720.529	44.19
720.712	43.61
720.894	42.96
721.077	42.78
721.259	43.24
721.442	42.62
721.624	42.84
721.807	42.64
721.989	44.64
722.172	43.9
722.354	44.66
722.537	45.46
722.719	45.49
722.901	45.96
723.084	45.27
723.266	45.16
723.448	45.18
723.631	45.42
723.813	45.57
723.995	44.27
724.178	43.76
724.36	42.68
724.542	42.73
724.724	44.05
724.907	44.84
725.089	44.58
725.271	44.34
725.453	43.24
725.635	43.19
725.817	43.54
725.999	43.17
726.181	43.46
726.364	43.92
726.546	43.61
726.728	42.73
726.91	41.38
727.092	41.56
727.274	42.15
727.456	42.89
727.638	42.44
727.819	43.01
728.001	42.64
728.183	42.23
728.365	41.91
728.547	40.93
728.729	40.47
728.911	40.53
729.093	40
729.274	38.58
729.456	37.87
729.638	38.62
729.82	38.82
730.001	39.17
730.183	40.68
730.365	41.51
730.546	42.49
730.728	41.98
730.91	42.56
731.091	43
731.273	43.94
731.455	44.88
731.636	44.33
731.818	42.95
731.999	43.35
732.181	41.68
732.362	41.27
732.544	40.58
732.725	41.39
732.907	40.54
733.088	41.42
733.27	41.39
733.451	42.26
733.633	41.25
733.814	42.06
733.995	41.82
734.177	43.23
734.358	42.63
734.539	43.42
734.721	43.84
734.902	43.45
735.083	43.08
735.264	43.22
735.446	43.07
735.627	44.41
735.808	44.46
735.989	44.33
736.17	44.18
736.351	45.44
736.533	44.13
736.714	43.72
736.895	43.59
737.076	43.8
737.257	43.46
737.438	42.8
737.619	42.6
737.8	42.84
737.981	42.79
738.162	42.29
738.343	41.61
738.524	43.36
738.705	43.25
738.886	44.22
739.067	44.17
739.247	44.55
739.428	43.62
739.609	43.46
739.79	44.09
739.971	45.17
740.151	44.67
740.332	45.15
740.513	44.55
740.694	44.5
740.874	45.07
741.055	44.4
741.236	43.49
741.417	44.74
741.597	45.54
741.778	45.04
741.958	43.88
742.139	44.16
742.32	44.63
742.5	44.93
742.681	42.73
742.861	42.83
743.042	43.22
743.222	44.39
743.403	43.37
743.583	42.99
743.764	42.31
743.944	42.57
744.124	42.4
744.305	39.56
744.485	37.11
744.666	38.96
744.846	38.69
745.026	37.78
745.207	36.43
745.387	35.87
745.567	36.8
745.747	36.12
745.928	37
746.108	37.3
746.288	39.62
746.468	42.34
746.648	43.79
746.829	43.78
747.009	44.93
747.189	45.74
747.369	46
747.549	43.98
747.729	43.33
747.909	42.66
748.089	42.57
748.269	41.26
748.449	40.31
748.629	39.63
748.809	39.58
748.989	40.29
749.169	39.16
749.349	39.36
749.529	40.26
749.709	41.2
749.889	41.61
750.068	41.91
750.248	43.47
750.428	43.91
750.608	44.27
750.788	42.65
750.967	41.85
751.147	42.27
751.327	42.81
751.507	42.61
751.686	43.61
751.866	42.83
752.046	42.36
752.225	40.5
752.405	40.08
752.585	39.77
752.764	40.37
752.944	40.96
753.123	42.6
753.303	43.4
753.482	43.76
753.662	41.96
753.841	42.89
754.021	42.43
754.2	43.4
754.38	43.9
754.559	44.1
754.739	44.57
754.918	43.73
755.097	43.84
755.277	42.53
755.456	41.14
755.635	41.8
755.815	40.48
755.994	40.27
756.173	41.04
756.352	40.85
756.532	40.61
756.711	40.88
756.89	41.97
757.069	40.44
757.248	41
757.427	42.29
757.607	43.03
757.786	43.32
757.965	44.26
758.144	42.49
758.323	41.19
758.502	42.09
758.681	41.26
758.86	40.64
759.039	40.43
759.218	40.3
759.397	40.18
759.576	39.25
759.755	39.86
759.934	40.5
760.113	41.47
760.291	42.25
760.47	41.94
760.649	41.18
760.828	41.69
761.007	42.43
761.186	41.55
761.364	41.58
761.543	41.3
761.722	40.27
761.901	40.15
762.079	39.49
762.258	40.7
762.437	40.82
762.615	42.33
762.794	41.93
762.972	41.98
763.151	42.15
763.33	42.08
763.508	43.14
763.687	43.26
763.865	42.9
764.044	43.72
764.222	43.52
764.401	42.9
764.579	42.41
764.758	42.32
764.936	42.04
765.114	43.23
765.293	43.53
765.471	42.77
765.65	43.52
765.828	42.59
766.006	43.23
766.184	43.3
766.363	43.91
766.541	43.45
766.719	44.47
766.898	43.78
767.076	44.15
767.254	44.94
767.432	45.1
767.61	45
767.788	46.49
767.967	45.95
768.145	45.31
768.323	45.99
768.501	46.36
768.679	44.18
768.857	44.09
769.035	43.5
769.213	42.43
769.391	41.43
769.569	41.04
769.747	41.28
769.925	41.52
770.103	42.53
770.281	40.29
770.459	39.33
770.636	40.35
770.814	42.03
770.992	42.3
771.17	40.94
771.348	40.62
771.525	40.32
771.703	41.07
771.881	39.29
772.059	39.66
772.236	41.95
772.414	44.02
772.592	43.63
772.769	43.77
772.947	42.04
773.125	44.17
773.302	45.25
773.48	46.64
773.657	45.23
773.835	45.56
774.013	45.01
774.19	43.6
774.368	42.13
774.545	40.64
774.723	40.14
774.9	39.65
775.077	40.22
775.255	41.34
775.432	41.6
775.61	41.52
775.787	44.09
775.964	42.76
776.142	41.27
776.319	42.04
776.496	44.23
776.674	44.93
776.851	46.43
777.028	46.63
777.205	47.86
777.382	46.77
777.56	47.54
777.737	45.85
777.914	46.3
778.091	46.99
778.268	47.28
778.445	46.37
778.622	43.8
778.8	44.3
778.977	42.65
779.154	40.01
779.331	41.19
779.508	42.78
779.685	43.06
779.862	42.84
780.038	43.34
780.215	42.64
780.392	42.75
780.569	43.08
780.746	41.69
780.923	42.42
781.1	41.79
781.277	42.55
781.453	40.69
781.63	37.35
781.807	40.21
781.984	41.82
782.16	43.44
782.337	43.17
782.514	45.48
782.691	45.35
782.867	45.43
783.044	48.28
783.221	44.14
783.397	44.69
783.574	46.76
783.75	43.59
783.927	42.97
784.103	44.04
784.28	44.87
784.456	44.3
784.633	45.55
784.809	43.33
784.986	41.86
785.162	44.41
785.339	43.35
785.515	44.44
785.692	44.87
785.868	46.5
786.044	43.61
786.221	42.75
786.397	41.13
786.573	41.55
786.749	44.61
786.926	46.06
787.102	47.21
787.278	47.89
787.454	47.56
787.631	45.67
787.807	44.81
787.983	45.6
788.159	46.47
788.335	47.21
788.511	46.54
788.687	44.99
788.863	43.67
789.039	40.97
789.216	38.79
789.392	36.6
789.568	38.07
789.744	37.78
789.919	37.66
790.095	36.06
790.271	35.07
790.447	33.52
790.623	33.49
790.799	34.46
790.975	34.3
791.151	37.47
791.327	39.26
791.502	38.42
791.678	38.55
791.854	39.51
792.03	41.02
792.205	42.71
792.381	42.55
792.557	43.94
792.733	41.17
792.908	42.49
793.084	42.33
793.259	44.49
793.435	43.41
793.611	41.19
793.786	40.08
793.962	42.24
794.137	43.57
794.313	45.93
794.488	42.74
794.664	43.83
794.839	41.09
795.015	36.53
795.19	36.37
795.366	37.5
795.541	37.68
795.716	35.12
795.892	33.53
796.067	31.91
796.242	28.79
796.418	28.87
796.593	31.16
796.768	32.34
796.944	35.48
797.119	34.05
797.294	36.26
797.469	36.44
797.644	39.81
797.82	37.89
797.995	38.42
798.17	40.31
798.345	41.24
798.52	39.69
798.695	41.17
798.87	40.73
799.045	40.14
799.22	38.37
799.395	38.11
799.57	38.58
799.745	38.17
799.92	36.61
800.095	38.23
800.27	37.79
800.445	36.82
800.62	36.58
800.795	37.01
800.97	37.14
801.145	36.07
801.319	38.91
801.494	36.96
801.669	42.79
801.844	41.94
802.018	41.06
802.193	39.71
802.368	40.65
802.543	41.87
802.717	41.08
802.892	39.37
803.067	41.13
803.241	37.47
803.416	39.88
803.59	37.58
803.765	37.64
803.94	35.36
804.114	37.71
804.289	38.64
804.463	42.75
804.638	42.92
804.812	47.53
804.986	46.34
805.161	46.79
805.335	43.04
805.51	35.17
805.684	38.05
805.858	34.89
806.033	32.06
806.207	32.51
806.381	29.06
806.556	28.91
806.73	25.99
806.904	25.9
807.078	25.02
807.253	27.3
807.427	32.5
807.601	30.57
807.775	31.58
807.949	31.66
808.123	31.58
808.298	31.78
808.472	32.37
808.646	33.41
808.82	34.83
808.994	40.68
809.168	39.02
809.342	35.86
809.516	36.54
809.69	41.43
809.864	42.9
810.038	42.79
810.212	40.71
810.385	42.23
810.559	44.42
810.733	46.23
810.907	43.25
811.081	40.82
811.255	45.61
811.428	46.02
811.602	43.12
811.776	46.45
811.95	46.96
812.123	49.96
812.297	49.11
812.471	47.44
812.644	41.41
812.818	42.5
812.992	48.31
813.165	43.29
813.339	44.51
813.512	45.49
813.686	40.29
813.86	41.68
814.033	40.51
814.207	42.07
814.38	41.21
814.554	44.62
814.727	41.81
814.9	43.8
815.074	46.5
815.247	44.68
815.421	45.01
815.594	45.08
815.767	41.55
815.941	40.32
816.114	43.11
816.287	40.95
816.46	41.9
816.634	39
816.807	33.22
816.98	33.19
817.153	30.8
817.327	25.88
817.5	29.44
817.673	32.37
817.846	33.29
818.019	25.56
818.192	30.67
818.365	31.9
818.538	35.2
818.711	33.45
818.884	29.39
819.057	31.7
819.23	37.09
819.403	38.79
819.576	38.58
819.749	37.34
819.922	41.4
820.095	39.16
820.268	38.8
820.441	37.7
820.614	39.82
820.786	42.86
820.959	42.55
821.132	42.06
821.305	40
821.477	39.77
821.65	42.37
821.823	41.1
821.996	41.5
822.168	41.62
822.341	42.5
822.514	43.01
822.686	42.28
822.859	42.78
823.031	42.59
823.204	42.59
823.376	42.93
823.549	42.44
823.722	42.02
823.894	41.66
824.067	41.48
824.239	41.26
824.411	41.21
824.584	42.41
824.756	41.1
824.929	40.87
825.101	41.62
825.273	40.73
825.446	39.93
825.618	40.03
825.79	41.05
825.963	40.77
826.135	40.85
826.307	39.67
826.479	37.71
826.652	38.56
826.824	38.61
826.996	38.66
827.168	38.47
827.34	37.64
827.512	38.8
827.684	37.25
827.856	36.54
828.029	36.74
828.201	37.61
828.373	36.87
828.545	36.68
828.717	36.27
828.889	34.4
829.061	34.23
829.232	35.5
829.404	35.01
829.576	35.3
829.748	34.85
829.92	30.84
830.092	30.2
830.264	34.15
830.436	32.69
830.607	30.75
830.779	32.32
830.951	32.31
831.123	31.15
831.294	31.96
831.466	34.61
831.638	35.94
831.809	45.39
831.981	43.83
832.153	37.74
832.324	39.1
832.496	43.54
832.667	44
832.839	42.63
833.011	43.31
833.182	42.64
833.354	39.67
833.525	39.44
833.697	37.57
833.868	35.66
834.039	38.77
834.211	40.05
834.382	42.05
834.554	41.94
834.725	42.52
834.896	41.03
835.068	39.57
835.239	40.46
835.41	39.33
835.581	37.35
835.753	39.99
835.924	39.89
836.095	37.21
836.266	34.85
836.438	34.57
836.609	36.49
836.78	38.33
836.951	39.51
837.122	39.29
837.293	40.65
837.464	39.21
837.635	40.22
837.806	37.41
837.977	37.36
838.148	32.92
838.319	31.02
838.49	19.2
838.661	23
838.832	25.93
839.003	23.48
839.174	27.38
839.345	27.6
839.516	19.11
839.687	23.09
839.857	23.82
840.028	28.3
840.199	28.76
840.37	43.36
840.54	38.73
840.711	36.67
840.882	36.16
841.053	32.91
841.223	35.76
841.394	43.88
841.564	39.54
841.735	45
841.906	45.26
842.076	48.79
842.247	40.26
842.417	37.26
842.588	39.76
842.758	49.69
842.929	48.21
843.099	41.45
843.27	35.61
843.44	38.57
843.611	35.78
843.781	36
843.951	37.88
844.122	37.51
844.292	47.64
844.462	39.9
844.633	31.66
844.803	33.74
844.973	39.82
845.144	37.58
845.314	37.16
845.484	38.95
845.654	37.78
845.824	40.17
845.995	48.97
846.165	36.28
846.335	41.8
846.505	50.55
846.675	50.87
846.845	49.85
847.015	60.03
847.185	64.88
847.355	45.4
847.525	42.58
847.695	38.37
847.865	23.05
848.035	35.73
848.205	36
848.375	15.62
848.545	0.6
848.715	10.94
848.884	-3.01
849.054	0.75
849.224	17.15
849.394	25.4
849.564	24.09
849.733	33.59
849.903	13.93
850.073	13.42
850.243	22.41
850.412	28.42
850.582	27.59
850.752	24.6
850.921	19.46
851.091	13.98
851.26	-6.17
851.43	-30.39
851.599	-43.43
851.769	-12.64
851.939	-19.19
852.108	-16.7
852.278	-27.04
852.447	-21.95
852.616	-9.63
852.786	10.27
852.955	14.33
853.125	17.04
853.294	19.85
853.463	35.65
853.633	34.65
853.802	40.28
853.971	51.3
854.141	65.45
854.31	65.6
854.479	67.41
854.648	54.23
854.818	63.81
854.987	82.1
855.156	84.02
855.325	77.88
855.494	76.31
855.663	60.46
855.832	54.87
856.001	46.41
856.171	44.52
856.34	33.63
856.509	34.43
856.678	31.56
856.847	24.95
857.016	17.48
857.185	20.1
857.353	25.25
857.522	42.14
857.691	28.36
857.86	30.52
858.029	32.88
858.198	46.61
858.367	46.16
858.535	44.44
858.704	40.37
858.873	45.25
859.042	48.43
859.21	24.42
859.379	-3.97
859.548	4.32
859.717	21.22
859.885	33.75
860.054	11.86
860.222	-13.85
860.391	-17.1
860.56	4.8
860.728	-3.8
860.897	-27.78
861.065	2.4
861.234	37.04
861.402	53.67
861.571	38.64
861.739	22.52
861.908	31.75
862.076	56.71
862.244	60.03
862.413	55.48
862.581	57.42
862.749	55.53
862.918	59.86
863.086	49.12
863.254	45.43
863.423	53.77
863.591	56.69
863.759	43.62
863.927	37.26
864.096	41.6
864.264	55.17
864.432	44.19
864.6	42.25
864.768	42.68
864.936	47.84
865.104	56.09
865.272	64.37
865.44	79.13
865.608	79.88
865.776	76.74
865.944	67.61
866.112	69.84
866.28	72.71
866.448	66.21
866.616	64.91
866.784	58.07
866.952	55.45
867.12	39.28
867.288	45.67
867.455	42.58
867.623	34.95
867.791	38.84
867.959	18.6
868.127	38.3
868.294	47.14
868.462	41.02
868.63	38.05
868.797	-8.07
868.965	61.51
869.133	19.94
869.3	53.05
869.468	42.12
869.636	70.69
869.803	55.59
869.971	31.6
870.138	47.32
870.306	56.71
870.473	63.53
870.641	47.21
870.808	28.78
870.975	11.06
871.143	19.73
871.31	36.54
871.478	33.28
871.645	39.26
871.812	36.4
871.98	30.57
872.147	26.48
872.314	24.89
872.482	35.21
872.649	42.21
872.816	49.29
872.983	49.05
873.15	51.05
873.318	46.92
873.485	54.56
873.652	67.46
873.819	76.56
873.986	78.15
874.153	85.36
874.32	83.12
874.487	78.38
874.654	81.34
874.821	79.91
874.988	83.11
875.155	88.43
875.322	89.87
875.489	90.99
875.656	75.38
875.823	75.13
875.99	70.78
876.157	72.52
876.324	101.66
876.49	73.96
876.657	83.36
876.824	89.35
876.991	108.91
877.157	103.35
877.324	85.5
877.491	87.98
877.658	101.48
877.824	83.69
877.991	70.36
878.157	61.92
878.324	69.8
878.491	71.24
878.657	60.61
878.824	40.71
878.99	28.54
879.157	25.78
879.323	15.47
879.49	9.67
879.656	41.53
879.823	48.58
879.989	41.33
880.156	59.67
880.322	57.09
880.488	59.62
880.655	58.71
880.821	60.48
880.987	63.15
881.154	71.95
881.32	64.48
881.486	60.1
881.652	61.66
881.819	65.86
881.985	52.2
882.151	43.99
882.317	44.26
882.483	40.26
882.649	39.04
882.816	41.37
882.982	41.8
883.148	43.28
883.314	41.22
883.48	40.82
883.646	37.22
883.812	38.58
883.978	42.27
884.144	40.27
884.31	43.57
884.476	43.92
884.642	42.41
884.807	43.02
884.973	41.85
885.139	42.28
885.305	41.78
885.471	42.77
885.637	44.86
885.802	43.45
885.968	42
886.134	38.9
886.3	43.02
886.465	42.63
886.631	41.08
886.797	40.27
886.962	40.93
887.128	41.03
887.293	48.19
887.459	37.83
887.625	53.39
887.79	48.35
887.956	51.09
888.121	31.27
888.287	32.65
888.452	0.76
888.618	20.07
888.783	16.74
