Data from 2937827_Reflection_1.txt Node
Date: Wed Jul 15 16:58:38 EDT 2015
User: robert
Spectrometer: USB4E03001
Autoset integration time: false
Trigger mode: 4
Integration Time (sec): 1.000000E-1
Scans to average: 10
Electric dark correction enabled: true
Nonlinearity correction enabled: false
Boxcar width: 5
Stray light correction enabled: false
XAxis mode: Wavelengths
Stop averaging: false
Number of Pixels in Spectrum: 3648
>>>>>Begin Spectral Data<<<<<
177.566	54.21
177.785	71.34
178.005	49.58
178.225	83.62
178.445	95.78
178.665	85.89
178.885	466.17
179.105	48.54
179.324	40.72
179.544	41.82
179.764	63.76
179.984	44.7
180.204	46.29
180.423	27.08
180.643	56.17
180.863	52.73
181.083	48
181.302	32.83
181.522	-27.87
181.742	-27.11
181.961	-11.98
182.181	-7.15
182.401	-2.72
182.621	34.36
182.84	39.97
183.06	11.64
183.279	-7.7
183.499	2.17
183.719	13.09
183.938	34.33
184.158	39.72
184.377	42.85
184.597	34.73
184.816	52.49
185.036	-8.34
185.256	-164.32
185.475	33.17
185.695	90.9
185.914	30.88
186.134	-31.62
186.353	29.14
186.572	63.66
186.792	88.44
187.011	50.35
187.231	35.26
187.45	40.55
187.67	36.96
187.889	24.99
188.108	30.62
188.328	23.85
188.547	41.2
188.766	31.05
188.986	15.52
189.205	-7.72
189.424	-34.94
189.644	-42.96
189.863	-44.49
190.082	-154.97
190.302	-102
190.521	-119.88
190.74	-77.22
190.959	-53.33
191.178	-87.73
191.398	-96.89
191.617	-84.39
191.836	-27.43
192.055	-38.91
192.274	-82.57
192.494	-39.06
192.713	-27.45
192.932	-39.41
193.151	-57.97
193.37	-46.97
193.589	-96.44
193.808	-50.1
194.027	-32.34
194.246	-69.12
194.465	-39.56
194.685	-6.43
194.904	-4.79
195.123	-44.55
195.342	7.9
195.561	5.91
195.78	-68.93
195.999	69.78
196.218	25.32
196.436	330.98
196.655	-299.14
196.874	-1637.17
197.093	-394.76
197.312	-312.79
197.531	281.55
197.75	199.23
197.969	105.36
198.188	101.92
198.407	65.86
198.625	61.76
198.844	32.29
199.063	54.98
199.282	24.3
199.501	24.2
199.719	17.17
199.938	52.14
200.157	42.04
200.376	45.69
200.594	53.15
200.813	54.26
201.032	64.43
201.251	61.55
201.469	21.59
201.688	72.62
201.907	48.82
202.125	39.61
202.344	1.8
202.563	18.54
202.781	8.12
203	22.6
203.218	62.21
203.437	46.73
203.656	23.84
203.874	10.7
204.093	1.99
204.311	6.95
204.53	-13.72
204.748	-51.19
204.967	-99.56
205.185	-150.6
205.404	-2614.22
205.622	3176.47
205.841	-16006.98
206.059	858.98
206.278	-1477.89
206.496	363.8
206.715	233.41
206.933	189.88
207.151	436.67
207.37	415.79
207.588	-230.41
207.806	-70.51
208.025	-108.6
208.243	-19.27
208.461	48.51
208.68	16.72
208.898	35.51
209.116	37.92
209.335	14.84
209.553	31.15
209.771	35.18
209.989	36.33
210.208	35.24
210.426	31.26
210.644	0.09
210.862	-14.76
211.081	9.36
211.299	13.57
211.517	7.19
211.735	3.12
211.953	12.64
212.171	14.43
212.39	27.47
212.608	34.3
212.826	43.65
213.044	32.35
213.262	-49.9
213.48	-83.82
213.698	-1370.81
213.916	565.39
214.134	559.74
214.352	608.95
214.57	-815.29
214.788	846.78
215.006	494.77
215.224	-202.7
215.442	-90.73
215.66	-15.87
215.878	-34.94
216.096	67.25
216.314	64.4
216.532	58.2
216.75	28.04
216.968	1.64
217.185	5.67
217.403	-16.4
217.621	-115.65
217.839	-140.96
218.057	-56.32
218.275	-41.23
218.492	-36.31
218.71	-13.7
218.928	-6
219.146	14.51
219.363	41.4
219.581	58.54
219.799	68.6
220.017	127.84
220.234	160.46
220.452	331.74
220.67	-763.61
220.887	-174.79
221.105	-98.84
221.323	-141.44
221.54	-12.96
221.758	72.84
221.976	234.71
222.193	241.12
222.411	-16.9
222.629	-40.5
222.846	59.84
223.064	-30.22
223.281	93.02
223.499	68.59
223.716	21.01
223.934	2.22
224.151	-90.72
224.369	-35.89
224.586	20.1
224.804	56.42
225.021	72.05
225.239	90.72
225.456	74.8
225.674	88.37
225.891	15.68
226.108	751.42
226.326	-2389.93
226.543	1784.15
226.76	-204.01
226.978	-867.2
227.195	-226.97
227.413	-127.43
227.63	-89.74
227.847	-19.65
228.064	-7.7
228.282	9.83
228.499	13.63
228.716	21.05
228.934	13.79
229.151	21.99
229.368	23.59
229.585	24.41
229.802	25.75
230.02	25.49
230.237	22.47
230.454	24.62
230.671	21.43
230.888	23.97
231.105	23.11
231.323	26.43
231.54	19.97
231.757	23.06
231.974	23.51
232.191	15.73
232.408	17.89
232.625	12.78
232.842	6.81
233.059	11.61
233.276	10.7
233.493	12.15
233.71	12.56
233.927	7.7
234.144	13.24
234.361	14.14
234.578	15.12
234.795	17.02
235.012	22.17
235.229	23.02
235.446	19.72
235.663	25.12
235.879	23.51
236.096	22.79
236.313	30.38
236.53	18.59
236.747	11.59
236.964	5.14
237.181	22.18
237.397	28.21
237.614	30.67
237.831	28.89
238.048	20.75
238.264	16.53
238.481	27.61
238.698	25.09
238.915	31.17
239.131	31.6
239.348	34.57
239.565	20.44
239.781	19.46
239.998	18.33
240.215	19.92
240.431	18.44
240.648	22.81
240.865	13.93
241.081	18.08
241.298	19.5
241.514	19.94
241.731	18.33
241.947	20.16
242.164	20.69
242.38	20.38
242.597	21.01
242.814	21.23
243.03	18.94
243.246	21.67
243.463	21.83
243.679	20.34
243.896	17.91
244.112	16.7
244.329	16.47
244.545	13.99
244.762	15.54
244.978	14.72
245.194	12.85
245.411	13.15
245.627	10.69
245.843	7.9
246.06	8.74
246.276	13.6
246.492	15.86
246.709	16.47
246.925	16.81
247.141	15.48
247.357	15.17
247.574	15.99
247.79	15.48
248.006	15.3
248.222	14.95
248.439	14.06
248.655	13.28
248.871	13.02
249.087	13.13
249.303	12.44
249.519	12.97
249.736	13.55
249.952	10.94
250.168	10.84
250.384	13.6
250.6	17.25
250.816	17.66
251.032	17.97
251.248	16.91
251.464	13.61
251.68	13.8
251.896	11.5
252.112	11.56
252.328	13.87
252.544	14.53
252.76	13.93
252.976	12.77
253.192	18.13
253.408	17.18
253.624	18.55
253.84	17.72
254.056	16.84
254.272	17.7
254.487	13.63
254.703	11
254.919	12.15
255.135	13.04
255.351	13.24
255.567	4.83
255.782	7.71
255.998	3.17
256.214	8.64
256.43	12
256.646	13.45
256.861	17.14
257.077	21.17
257.293	18.34
257.508	13.22
257.724	15.17
257.94	15.85
258.155	15.36
258.371	15.63
258.587	15.82
258.802	14.74
259.018	16.21
259.234	15.89
259.449	15.32
259.665	15.55
259.88	16.82
260.096	15.13
260.312	15.99
260.527	14.93
260.743	15.27
260.958	13.23
261.174	12.81
261.389	12.26
261.605	11.76
261.82	10.49
262.036	9
262.251	9.88
262.466	11.39
262.682	9.06
262.897	11.57
263.113	9.36
263.328	8.4
263.543	8.07
263.759	8.01
263.974	5.59
264.189	4.69
264.405	5.4
264.62	5.55
264.835	4.33
265.051	7.4
265.266	5.79
265.481	8.81
265.696	13.13
265.912	13.03
266.127	16
266.342	18.26
266.557	20.31
266.773	17.2
266.988	13.74
267.203	12.31
267.418	10.27
267.633	11.18
267.848	10.21
268.064	11.22
268.279	12.45
268.494	8.94
268.709	8.41
268.924	7.98
269.139	11.26
269.354	11.92
269.569	10.26
269.784	10.62
269.999	10.32
270.214	11.44
270.429	9.31
270.644	9.43
270.859	9.1
271.074	11.39
271.289	13
271.504	13.5
271.719	13.78
271.934	17.38
272.149	16.38
272.363	15.4
272.578	15.49
272.793	15.4
273.008	15.96
273.223	17.12
273.438	14.93
273.653	11.72
273.867	11.96
274.082	10.53
274.297	8.64
274.512	9.75
274.726	9.89
274.941	7.74
275.156	9.38
275.371	8.34
275.585	8.56
275.8	10.71
276.015	11.98
276.229	12.31
276.444	11.92
276.659	11.98
276.873	12.98
277.088	12.23
277.302	14.37
277.517	13.27
277.732	14.02
277.946	11.3
278.161	9.54
278.375	9.21
278.59	7.64
278.804	9.63
279.019	9.51
279.233	6.85
279.448	9.66
279.662	9.95
279.877	9.21
280.091	5.97
280.306	8.47
280.52	7.31
280.735	8.87
280.949	10.71
281.163	11.88
281.378	13.5
281.592	13.67
281.806	12.05
282.021	11.36
282.235	12.52
282.449	13.24
282.664	12.46
282.878	14.07
283.092	13.26
283.307	10.47
283.521	11.2
283.735	10.47
283.949	11.48
284.164	12.58
284.378	13.5
284.592	13.03
284.806	13.53
285.02	12.09
285.234	10.46
285.449	10.84
285.663	12.3
285.877	12.38
286.091	10.85
286.305	12.43
286.519	12.15
286.733	11.38
286.947	10.78
287.161	10.53
287.375	11.26
287.589	12.17
287.803	11.8
288.017	11.59
288.231	8.88
288.445	10.16
288.659	9.11
288.873	8.83
289.087	9.83
289.301	12.14
289.515	13.13
289.729	12.72
289.943	14.09
290.157	15.65
290.371	17.76
290.584	18.94
290.798	20.41
291.012	19.66
291.226	20.76
291.44	19.4
291.654	20.29
291.867	20.72
292.081	19.93
292.295	20.81
292.509	19.81
292.722	17.33
292.936	17.2
293.15	15.99
293.364	15.38
293.577	14.37
293.791	16.66
294.005	15.28
294.218	14.69
294.432	17.06
294.645	13.48
294.859	12.31
295.073	14.59
295.286	15.81
295.5	14.99
295.713	17.02
295.927	16.25
296.14	15.69
296.354	15.6
296.568	16.18
296.781	17.64
296.994	20.69
297.208	22.36
297.421	21.29
297.635	21.13
297.848	21.3
298.062	21.32
298.275	21.33
298.489	21.21
298.702	21.63
298.915	22.03
299.129	21.28
299.342	20.22
299.555	19.77
299.769	19.89
299.982	19.54
300.195	20.61
300.409	19.31
300.622	20.4
300.835	20.68
301.048	20.12
301.262	20.6
301.475	19.24
301.688	20.22
301.901	21.08
302.115	21.13
302.328	21.68
302.541	19.87
302.754	17.98
302.967	17.67
303.18	17.82
303.393	17.91
303.607	17.97
303.82	18.77
304.033	19.8
304.246	18.82
304.459	19.45
304.672	19.52
304.885	20.32
305.098	21.62
305.311	18.7
305.524	20.9
305.737	20.17
305.95	21.1
306.163	23.75
306.376	22.43
306.589	20.95
306.802	20.46
307.015	20.64
307.228	19.56
307.44	19.51
307.653	22.53
307.866	20.04
308.079	19.93
308.292	18.46
308.505	15.38
308.718	15.85
308.93	17.48
309.143	19.07
309.356	20.6
309.569	20.89
309.781	21.68
309.994	21.31
310.207	21.83
310.42	21.98
310.632	22.17
310.845	22.73
311.058	22.44
311.27	21.7
311.483	19.83
311.696	18.02
311.908	19.53
312.121	18.81
312.333	20.11
312.546	19.87
312.759	19.54
312.971	18.89
313.184	20.09
313.396	18.73
313.609	19.9
313.821	19.65
314.034	19.22
314.246	19.42
314.459	21.92
314.671	20.97
314.884	21.38
315.096	23.22
315.309	25.56
315.521	23.76
315.733	24.56
315.946	23.02
316.158	23.76
316.371	26.22
316.583	26.12
316.795	24.34
317.008	24.42
317.22	24.36
317.432	23.76
317.644	21.73
317.857	23.38
318.069	23.22
318.281	24.31
318.494	26.59
318.706	25.25
318.918	24.12
319.13	23.41
319.342	21.72
319.555	19.79
319.767	20.15
319.979	18.59
320.191	18.28
320.403	18.3
320.615	18.6
320.827	16.07
321.039	13.18
321.252	14.22
321.464	15.15
321.676	15.78
321.888	17.63
322.1	15.85
322.312	16.6
322.524	14.9
322.736	15.52
322.948	13.59
323.16	16.03
323.372	18.66
323.584	18.05
323.796	19.65
324.007	19.61
324.219	18.75
324.431	18.19
324.643	20.01
324.855	21.52
325.067	20.52
325.279	22.91
325.491	21.17
325.702	21.01
325.914	20.8
326.126	20.14
326.338	20.88
326.55	21.9
326.761	22.32
326.973	20.74
327.185	20.73
327.396	21.55
327.608	20.62
327.82	22.55
328.032	21.06
328.243	20.9
328.455	20.36
328.666	21.43
328.878	20.6
329.09	19.97
329.301	19.59
329.513	19.16
329.725	18.34
329.936	18.49
330.148	17.81
330.359	17.82
330.571	15.89
330.782	15.31
330.994	13.78
331.205	14.33
331.417	16.73
331.628	18.25
331.84	17.7
332.051	19.24
332.262	19.43
332.474	18.48
332.685	20.96
332.897	22.99
333.108	23.78
333.319	24.47
333.531	25.38
333.742	24.82
333.953	25.91
334.165	28.22
334.376	27.57
334.587	28.3
334.799	27.81
335.01	26.43
335.221	24.68
335.432	24.67
335.644	25.33
335.855	25.64
336.066	26.39
336.277	25.33
336.488	24.41
336.7	24.25
336.911	23.22
337.122	24.64
337.333	25.25
337.544	26.75
337.755	26.01
337.966	23.78
338.177	22.9
338.388	20.91
338.599	20.21
338.811	19.69
339.022	18.67
339.233	18.78
339.444	18.86
339.655	19.47
339.866	18.59
340.076	19.07
340.287	21.29
340.498	22.84
340.709	23.93
340.92	25.13
341.131	24.85
341.342	25.64
341.553	25.16
341.764	23.98
341.975	21.93
342.185	23.38
342.396	23.22
342.607	22.29
342.818	20.19
343.029	18.49
343.239	18.36
343.45	18.15
343.661	18.22
343.872	17.52
344.082	18.93
344.293	20.71
344.504	19.57
344.714	18.92
344.925	17.99
345.136	18.97
345.346	20.45
345.557	19.26
345.768	20.46
345.978	20.28
346.189	21.68
346.399	20.13
346.61	20.13
346.821	21.51
347.031	21.67
347.242	22.46
347.452	21.02
347.663	20.03
347.873	20.72
348.084	19.12
348.294	20.45
348.504	19.71
348.715	20.51
348.925	20.25
349.136	20.05
349.346	20.36
349.557	21.36
349.767	21.78
349.977	23.14
350.188	23.1
350.398	24.1
350.608	22.57
350.819	23.99
351.029	23.69
351.239	25.29
351.449	25.9
351.66	27.84
351.87	27.06
352.08	27.58
352.29	26.72
352.501	26.21
352.711	26.79
352.921	26.08
353.131	24.81
353.341	23.85
353.552	21.92
353.762	20.12
353.972	18.18
354.182	18.34
354.392	17.54
354.602	18.66
354.812	19.25
355.022	18.11
355.232	18.27
355.442	18.18
355.652	19.27
355.862	19.74
356.072	20.08
356.282	20.4
356.492	20.89
356.702	22.38
356.912	21.85
357.122	22.04
357.332	23.35
357.542	22.14
357.752	22.67
357.962	22
358.171	21.52
358.381	20.55
358.591	20.74
358.801	19.5
359.011	18.47
359.221	19.4
359.43	18.8
359.64	18.13
359.85	20.82
360.06	20.81
360.269	21.99
360.479	21.36
360.689	22.03
360.899	22.03
361.108	22.21
361.318	22.19
361.528	20.91
361.737	20.79
361.947	20.21
362.156	19.54
362.366	19.28
362.576	18.05
362.785	18.65
362.995	18.47
363.204	17.83
363.414	17.56
363.623	18.01
363.833	18.6
364.042	18.31
364.252	17.54
364.461	16.98
364.671	17.67
364.88	18.55
365.09	17.34
365.299	16.63
365.509	16.26
365.718	16.99
365.927	16.6
366.137	16.38
366.346	18.39
366.555	19.26
366.765	20.18
366.974	18.75
367.183	18.42
367.393	18.62
367.602	19.18
367.811	19.42
368.021	18.88
368.23	18.63
368.439	19.24
368.648	17.22
368.857	16.74
369.067	15.99
369.276	16.29
369.485	15.58
369.694	15.83
369.903	15.24
370.112	15.55
370.321	15.73
370.531	16.93
370.74	16.19
370.949	16.26
371.158	16.82
371.367	16.5
371.576	17.25
371.785	18.18
371.994	18.31
372.203	18.09
372.412	17.73
372.621	17.62
372.83	17.14
373.039	17.25
373.248	17.66
373.457	17
373.666	17.66
373.874	17.46
374.083	16.54
374.292	15.82
374.501	16.21
374.71	16.09
374.919	15.67
375.128	15.23
375.336	15.73
375.545	15.39
375.754	15.47
375.963	15.45
376.171	15.06
376.38	15.19
376.589	15.27
376.798	14.88
377.006	14.87
377.215	15.47
377.424	15.72
377.632	14.84
377.841	14.75
378.05	14.67
378.258	14.2
378.467	13.45
378.675	12.7
378.884	12.63
379.093	12.94
379.301	13.43
379.51	13.23
379.718	12.96
379.927	14.12
380.135	14.34
380.344	14.18
380.552	14.45
380.761	15.08
380.969	15.47
381.177	16
381.386	15.81
381.594	14.88
381.803	14.26
382.011	13.76
382.219	13.04
382.428	11.98
382.636	12.37
382.845	11.7
383.053	11.43
383.261	11.75
383.469	12.2
383.678	12.39
383.886	11.94
384.094	12.34
384.302	11.7
384.511	11.68
384.719	11.67
384.927	11.43
385.135	11.23
385.343	10.66
385.552	10.55
385.76	9.64
385.968	9.16
386.176	9.8
386.384	9.37
386.592	9.87
386.8	9.94
387.008	10.17
387.216	9.96
387.424	10.05
387.633	10.57
387.841	10.51
388.049	11.03
388.257	11.12
388.465	11.06
388.672	11.26
388.88	11.16
389.088	10.46
389.296	10.78
389.504	10.76
389.712	11.16
389.92	10.88
390.128	10.97
390.336	10.91
390.544	11.08
390.751	10.85
390.959	10.67
391.167	10.3
391.375	10.35
391.583	9.87
391.79	9.71
391.998	9.24
392.206	9.39
392.414	9.04
392.621	8.6
392.829	8.43
393.037	8.5
393.244	8.41
393.452	9.05
393.66	8.91
393.867	8.97
394.075	8.96
394.283	9.15
394.49	8.86
394.698	8.63
394.905	8.68
395.113	8.36
395.32	8
395.528	7.88
395.735	7.57
395.943	7.46
396.15	7.39
396.358	7.56
396.565	7.55
396.773	7.66
396.98	8.13
397.188	8.43
397.395	8.39
397.602	8.84
397.81	8.96
398.017	9.25
398.225	9.18
398.432	9.24
398.639	8.82
398.847	9
399.054	9.09
399.261	8.97
399.468	8.61
399.676	8.71
399.883	8.77
400.09	8.48
400.297	7.87
400.505	8.09
400.712	8.31
400.919	8.31
401.126	7.8
401.333	8.04
401.54	7.48
401.748	7.74
401.955	7.85
402.162	7.87
402.369	8.06
402.576	8.58
402.783	8.45
402.99	8.3
403.197	8.67
403.404	9.05
403.611	8.83
403.818	9.33
404.025	8.78
404.232	8.95
404.439	8.61
404.646	8.7
404.853	8.45
405.06	8.57
405.267	8.73
405.474	8.57
405.681	8.35
405.887	8.23
406.094	8.1
406.301	8.47
406.508	8.6
406.715	8.68
406.922	8.54
407.128	8.57
407.335	8.2
407.542	7.94
407.749	8.06
407.955	8.01
408.162	8.09
408.369	8.17
408.575	7.97
408.782	7.68
408.989	7.51
409.195	7.42
409.402	7.26
409.609	7.59
409.815	7.79
410.022	7.33
410.228	7.5
410.435	7.23
410.642	7.15
410.848	7.43
411.055	7.43
411.261	7.46
411.468	7.63
411.674	7.86
411.881	7.65
412.087	7.89
412.294	8.12
412.5	7.78
412.706	8.02
412.913	7.93
413.119	8.17
413.326	8
413.532	8.22
413.738	8.15
413.945	8.02
414.151	8.33
414.357	8.01
414.564	8.28
414.77	8.53
414.976	8.67
415.182	8.67
415.389	8.06
415.595	8.36
415.801	8.51
416.007	8.94
416.214	8.57
416.42	8.57
416.626	8.29
416.832	8.25
417.038	8.27
417.244	8.19
417.45	8.35
417.657	8.53
417.863	8.64
418.069	8.47
418.275	8.2
418.481	8.59
418.687	8.4
418.893	8.71
419.099	8.58
419.305	8.58
419.511	8.43
419.717	8.34
419.923	8.25
420.129	7.91
420.335	7.98
420.541	7.75
420.746	7.49
420.952	7.61
421.158	7.44
421.364	7.47
421.57	7.34
421.776	7.41
421.982	7.43
422.187	7.4
422.393	7.59
422.599	7.48
422.805	7.77
423.01	7.8
423.216	7.85
423.422	7.93
423.628	7.8
423.833	7.95
424.039	7.98
424.245	7.88
424.45	7.85
424.656	7.77
424.862	7.82
425.067	7.74
425.273	7.84
425.478	7.73
425.684	7.72
425.889	7.75
426.095	7.68
426.301	7.62
426.506	7.81
426.712	7.81
426.917	7.81
427.123	7.67
427.328	7.56
427.533	7.54
427.739	7.48
427.944	7.49
428.15	7.64
428.355	7.56
428.561	7.56
428.766	7.42
428.971	7.61
429.177	7.37
429.382	7.4
429.587	7.5
429.793	7.4
429.998	7.43
430.203	7.18
430.408	7.07
430.614	7.11
430.819	6.98
431.024	6.72
431.229	6.62
431.434	6.93
431.64	6.9
431.845	6.8
432.05	6.67
432.255	6.54
432.46	6.66
432.665	6.69
432.87	6.67
433.076	6.75
433.281	6.91
433.486	7.12
433.691	7.07
433.896	7.13
434.101	7.08
434.306	7.36
434.511	7.51
434.716	7.4
434.921	7.35
435.126	7.26
435.331	7.19
435.535	7.2
435.74	6.98
435.945	7.01
436.15	7.3
436.355	7.44
436.56	7.29
436.765	7.52
436.97	7.56
437.174	7.62
437.379	7.8
437.584	7.86
437.789	7.91
437.993	8.05
438.198	7.91
438.403	7.69
438.608	7.61
438.812	7.53
439.017	7.27
439.222	7.27
439.426	7.19
439.631	7.16
439.836	7.3
440.04	7.36
440.245	7.38
440.45	7.44
440.654	7.42
440.859	7.46
441.063	7.45
441.268	7.4
441.472	7.48
441.677	7.47
441.881	7.42
442.086	7.16
442.29	7.02
442.495	6.99
442.699	6.8
442.904	6.73
443.108	6.63
443.312	6.72
443.517	6.82
443.721	6.85
443.925	6.86
444.13	6.84
444.334	6.93
444.538	6.95
444.743	6.93
444.947	7.25
445.151	7.28
445.356	7.38
445.56	7.42
445.764	7.26
445.968	7.26
446.173	7.26
446.377	7.3
446.581	7.38
446.785	7.45
446.989	7.34
447.193	7.19
447.398	7.05
447.602	7.05
447.806	6.96
448.01	7.1
448.214	7.06
448.418	7.14
448.622	7.17
448.826	7.13
449.03	6.96
449.234	6.98
449.438	7.11
449.642	7.05
449.846	6.94
450.05	7.03
450.254	7.03
450.458	6.93
450.662	6.71
450.866	6.68
451.069	6.62
451.273	6.6
451.477	6.62
451.681	6.43
451.885	6.62
452.089	6.72
452.292	6.56
452.496	6.39
452.7	6.32
452.904	6.66
453.107	6.56
453.311	6.64
453.515	6.68
453.719	6.74
453.922	6.84
454.126	6.95
454.33	6.91
454.533	6.87
454.737	7.1
454.94	7.17
455.144	7.09
455.348	7.13
455.551	7.15
455.755	6.9
455.958	6.76
456.162	6.5
456.365	6.25
456.569	6.33
456.772	6.4
456.976	6.29
457.179	6.31
457.383	6.02
457.586	6.12
457.79	5.89
457.993	6.15
458.196	6.14
458.4	6.51
458.603	6.68
458.807	6.75
459.01	6.84
459.213	6.97
459.417	7.08
459.62	7.18
459.823	7.17
460.026	7.2
460.23	7.17
460.433	7.25
460.636	7.13
460.839	7.06
461.042	6.94
461.246	6.88
461.449	6.86
461.652	6.7
461.855	6.75
462.058	6.7
462.261	6.74
462.464	6.77
462.668	6.86
462.871	6.91
463.074	7.02
463.277	7.01
463.48	7.24
463.683	7.21
463.886	7.3
464.089	7.34
464.292	7.27
464.495	7.43
464.698	7.38
464.901	7.16
465.104	7
465.306	6.78
465.509	6.69
465.712	6.64
465.915	6.69
466.118	6.78
466.321	6.64
466.524	6.61
466.726	6.56
466.929	6.57
467.132	6.64
467.335	6.63
467.538	6.87
467.74	6.96
467.943	6.9
468.146	6.66
468.348	6.45
468.551	6.57
468.754	6.72
468.956	6.57
469.159	6.57
469.362	6.53
469.564	6.61
469.767	6.48
469.969	6.56
470.172	6.65
470.375	6.81
470.577	7.03
470.78	6.86
470.982	6.76
471.185	6.84
471.387	6.83
471.59	6.84
471.792	6.74
471.995	6.87
472.197	6.93
472.399	6.49
472.602	6.44
472.804	6.34
473.007	6.53
473.209	6.71
473.411	6.61
473.614	6.57
473.816	6.57
474.018	6.87
474.22	6.83
474.423	6.74
474.625	7.04
474.827	7.05
475.03	6.95
475.232	6.79
475.434	6.54
475.636	6.59
475.838	6.6
476.04	6.71
476.243	6.63
476.445	6.53
476.647	6.4
476.849	6.39
477.051	6.41
477.253	6.63
477.455	6.79
477.657	6.95
477.859	7.09
478.061	7.11
478.263	7.1
478.465	6.83
478.667	6.92
478.869	6.87
479.071	6.81
479.273	6.84
479.475	6.78
479.677	6.63
479.879	6.63
480.081	6.58
480.283	6.58
480.485	6.61
480.686	6.67
480.888	6.59
481.09	6.7
481.292	6.62
481.494	6.53
481.695	6.64
481.897	6.66
482.099	6.68
482.301	6.7
482.502	6.62
482.704	6.6
482.906	6.64
483.107	6.7
483.309	6.71
483.511	6.75
483.712	6.7
483.914	6.63
484.115	6.59
484.317	6.59
484.519	6.63
484.72	6.64
484.922	6.61
485.123	6.6
485.325	6.58
485.526	6.58
485.728	6.57
485.929	6.6
486.131	6.67
486.332	6.72
486.534	6.72
486.735	6.6
486.936	6.56
487.138	6.58
487.339	6.65
487.541	6.65
487.742	6.63
487.943	6.62
488.144	6.69
488.346	6.69
488.547	6.66
488.748	6.62
488.95	6.63
489.151	6.65
489.352	6.68
489.553	6.63
489.755	6.63
489.956	6.7
490.157	6.78
490.358	6.79
490.559	6.65
490.76	6.62
490.961	6.57
491.163	6.57
491.364	6.66
491.565	6.68
491.766	6.68
491.967	6.73
492.168	6.65
492.369	6.63
492.57	6.51
492.771	6.61
492.972	6.67
493.173	6.72
493.374	6.8
493.575	6.68
493.776	6.61
493.976	6.61
494.177	6.46
494.378	6.66
494.579	6.71
494.78	6.78
494.981	6.77
495.182	6.76
495.382	6.78
495.583	6.69
495.784	6.86
495.985	7.01
496.185	6.98
496.386	7.07
496.587	6.97
496.788	6.92
496.988	6.95
497.189	6.99
497.39	7.07
497.59	7.03
497.791	7.21
497.992	7.19
498.192	7.07
498.393	7.18
498.593	7.09
498.794	6.92
498.994	6.72
499.195	6.7
499.395	6.56
499.596	6.48
499.796	6.53
499.997	6.43
500.197	6.56
500.398	6.64
500.598	6.59
500.799	6.6
500.999	6.74
501.199	7.1
501.4	7.19
501.6	7.19
501.801	7.18
502.001	7.06
502.201	6.91
502.402	6.62
502.602	6.62
502.802	6.66
503.002	6.76
503.203	6.74
503.403	6.64
503.603	6.66
503.803	6.73
504.003	6.67
504.204	6.83
504.404	7.03
504.604	7.14
504.804	7.11
505.004	7.06
505.204	7.13
505.404	7.11
505.604	7.04
505.804	6.86
506.005	6.78
506.205	6.88
506.405	7.01
506.605	7.05
506.805	7.1
507.005	7.19
507.204	7.13
507.404	7.05
507.604	7.04
507.804	7.17
508.004	7.19
508.204	7.38
508.404	7.55
508.604	7.38
508.804	7.27
509.003	7.42
509.203	7.45
509.403	7.42
509.603	7.53
509.803	7.47
510.002	7.31
510.202	7.3
510.402	7.12
510.602	7.01
510.801	7.01
511.001	7.14
511.201	7.05
511.4	7.1
511.6	7.18
511.8	7.19
511.999	7.32
512.199	7.39
512.398	7.37
512.598	7.49
512.797	7.38
512.997	7.38
513.197	7.2
513.396	7.07
513.596	6.87
513.795	6.7
513.994	6.55
514.194	6.61
514.393	6.84
514.593	6.93
514.792	6.92
514.992	7.05
515.191	7.05
515.39	7.12
515.59	7.23
515.789	7.47
515.988	7.78
516.188	7.83
516.387	7.72
516.586	7.53
516.786	7.61
516.985	7.67
517.184	7.68
517.383	7.68
517.582	7.75
517.782	7.75
517.981	7.56
518.18	7.64
518.379	7.64
518.578	7.68
518.777	7.76
518.976	7.71
519.176	7.78
519.375	7.89
519.574	7.86
519.773	7.95
519.972	8.09
520.171	8.31
520.37	8.08
520.569	8.15
520.768	8.19
520.967	8.22
521.166	8.33
521.365	8.24
521.564	8.2
521.762	8.31
521.961	8.23
522.16	8.21
522.359	8.01
522.558	8.11
522.757	8.04
522.956	8.03
523.154	7.98
523.353	8.13
523.552	8.21
523.751	8.11
523.949	8.13
524.148	8.11
524.347	8.04
524.546	8.07
524.744	8.21
524.943	8.26
525.142	8.49
525.34	8.55
525.539	8.36
525.737	8.36
525.936	8.34
526.135	8.44
526.333	8.42
526.532	8.4
526.73	8.41
526.929	8.36
527.127	8.42
527.326	8.37
527.524	8.33
527.723	8.45
527.921	8.49
528.12	8.68
528.318	8.67
528.516	8.73
528.715	8.91
528.913	8.95
529.112	9.02
529.31	9.02
529.508	9.03
529.707	9.07
529.905	9.07
530.103	9.19
530.301	9.2
530.5	9.2
530.698	9.22
530.896	9.12
531.094	9.12
531.293	9.16
531.491	9.16
531.689	9.24
531.887	9.33
532.085	9.37
532.283	9.26
532.481	9.17
532.68	9.27
532.878	9.46
533.076	9.54
533.274	9.56
533.472	9.5
533.67	9.47
533.868	9.43
534.066	9.43
534.264	9.45
534.462	9.51
534.66	9.54
534.858	9.55
535.056	9.41
535.253	9.45
535.451	9.45
535.649	9.6
535.847	9.71
536.045	9.72
536.243	9.84
536.441	9.84
536.638	9.79
536.836	9.88
537.034	9.9
537.232	9.95
537.43	9.91
537.627	9.97
537.825	9.79
538.023	9.81
538.22	9.73
538.418	9.58
538.616	9.67
538.813	9.75
539.011	9.62
539.209	9.72
539.406	9.82
539.604	9.98
539.801	10.05
539.999	10.32
540.196	10.27
540.394	10.38
540.591	10.57
540.789	10.55
540.986	10.56
541.184	10.67
541.381	10.66
541.579	10.7
541.776	10.65
541.974	10.67
542.171	10.57
542.368	10.71
542.566	10.78
542.763	10.81
542.96	10.92
543.158	10.94
543.355	10.93
543.552	10.92
543.75	10.94
543.947	11.03
544.144	11.05
544.341	11.29
544.539	11.33
544.736	11.45
544.933	11.52
545.13	11.57
545.327	11.67
545.524	11.83
545.722	11.8
545.919	11.89
546.116	11.79
546.313	11.87
546.51	11.86
546.707	11.8
546.904	11.73
547.101	11.68
547.298	11.68
547.495	11.76
547.692	11.76
547.889	11.89
548.086	11.86
548.283	11.97
548.48	12.34
548.677	12.34
548.874	12.45
549.07	12.57
549.267	12.74
549.464	12.95
549.661	12.85
549.858	12.83
550.055	13.06
550.251	13.29
550.448	13.27
550.645	12.84
550.842	12.98
551.038	13.03
551.235	13.3
551.432	13.35
551.628	13.33
551.825	13.56
552.022	13.7
552.218	13.45
552.415	13.19
552.612	13.38
552.808	13.63
553.005	13.59
553.201	13.56
553.398	13.48
553.594	13.46
553.791	13.41
553.987	13.6
554.184	13.67
554.38	13.81
554.577	14.16
554.773	14.38
554.97	14.31
555.166	14.32
555.362	14.5
555.559	14.43
555.755	14.48
555.952	14.8
556.148	14.64
556.344	14.81
556.541	14.87
556.737	14.86
556.933	14.39
557.129	14.68
557.326	14.94
557.522	15.11
557.718	15.18
557.914	15.33
558.11	15.11
558.307	15.12
558.503	15.04
558.699	15.22
558.895	15.42
559.091	15.74
559.287	15.93
559.483	15.86
559.679	15.84
559.876	16.07
560.072	16.12
560.268	16.19
560.464	16.37
560.66	16.47
560.856	16.7
561.052	16.55
561.247	16.46
561.443	16.38
561.639	16.62
561.835	16.77
562.031	16.78
562.227	16.77
562.423	17.19
562.619	17.02
562.815	17.31
563.01	17.26
563.206	17.5
563.402	17.71
563.598	17.7
563.793	17.62
563.989	17.69
564.185	17.99
564.381	18.07
564.576	18.03
564.772	18.3
564.968	18.12
565.163	18.36
565.359	18.22
565.555	18.44
565.75	18.67
565.946	18.65
566.141	18.73
566.337	18.58
566.532	18.52
566.728	18.42
566.923	18.39
567.119	18.5
567.314	18.46
567.51	18.76
567.705	18.85
567.901	18.69
568.096	18.91
568.292	18.71
568.487	18.93
568.682	19.06
568.878	19.21
569.073	19.21
569.268	19.53
569.464	19.55
569.659	19.51
569.854	19.6
570.05	19.75
570.245	19.81
570.44	20.17
570.635	20.27
570.831	20.64
571.026	20.71
571.221	20.88
571.416	20.77
571.611	20.7
571.806	20.72
572.002	20.54
572.197	20.67
572.392	20.77
572.587	20.68
572.782	20.61
572.977	20.35
573.172	20.16
573.367	20.24
573.562	20.2
573.757	20.39
573.952	20.53
574.147	20.73
574.342	20.87
574.537	20.87
574.732	21.01
574.927	20.98
575.121	21.13
575.316	21.34
575.511	21.5
575.706	21.55
575.901	21.51
576.096	21.48
576.29	21.54
576.485	21.47
576.68	21.39
576.875	21.66
577.069	21.93
577.264	22.09
577.459	22.1
577.654	21.67
577.848	21.84
578.043	22
578.238	22.02
578.432	21.91
578.627	21.79
578.821	21.94
579.016	21.54
579.21	21.33
579.405	21.22
579.6	21.37
579.794	21.97
579.989	21.99
580.183	21.72
580.378	21.78
580.572	21.95
580.766	22.05
580.961	22.05
581.155	22.25
581.35	22.16
581.544	22.25
581.738	22.04
581.933	21.85
582.127	21.7
582.321	21.7
582.516	21.79
582.71	21.94
582.904	21.93
583.099	22.15
583.293	22.09
583.487	22.26
583.681	22.17
583.875	22.38
584.07	22.55
584.264	22.93
584.458	23.16
584.652	23.22
584.846	23.29
585.04	23.46
585.234	23.25
585.428	23.22
585.623	23.2
585.817	23.46
586.011	23.6
586.205	23.51
586.399	23.41
586.593	23.25
586.787	23.21
586.981	23.24
587.174	22.92
587.368	23.1
587.562	23.11
587.756	23.19
587.95	23.16
588.144	22.81
588.338	22.71
588.532	23.01
588.725	23.2
588.919	23.4
589.113	23.45
589.307	23.93
589.501	23.66
589.694	24
589.888	24.02
590.082	23.88
590.275	24.09
590.469	24.39
590.663	23.82
590.856	23.78
591.05	23.59
591.244	23.66
591.437	23.41
591.631	23.89
591.824	23.83
592.018	23.83
592.212	24
592.405	24.15
592.599	24.07
592.792	24.56
592.986	24.61
593.179	24.61
593.372	24.31
593.566	24.46
593.759	24.46
593.953	24.2
594.146	24.28
594.339	24.19
594.533	24.2
594.726	24.15
594.92	23.99
595.113	24.22
595.306	24.25
595.499	24.42
595.693	24.29
595.886	24.05
596.079	24.2
596.272	24.14
596.466	24.08
596.659	24.03
596.852	23.97
597.045	23.94
597.238	23.93
597.431	23.93
597.624	24.03
597.818	24.16
598.011	24.35
598.204	24.12
598.397	24.26
598.59	24.39
598.783	24.27
598.976	24.45
599.169	24.44
599.362	24.2
599.555	24.19
599.748	23.86
599.941	23.58
600.134	23.53
600.326	23.73
600.519	23.46
600.712	23.48
600.905	23.8
601.098	23.63
601.291	23.79
601.483	24.18
601.676	24.42
601.869	24.6
602.062	24.92
602.255	24.97
602.447	25.2
602.64	25.41
602.833	25.59
603.025	25.67
603.218	25.6
603.411	25.66
603.603	25.44
603.796	25.2
603.989	25.17
604.181	25.06
604.374	24.88
604.566	24.82
604.759	24.91
604.951	24.82
605.144	24.73
605.336	24.81
605.529	24.82
605.721	24.93
605.914	24.83
606.106	25
606.299	25.07
606.491	25.33
606.683	25.38
606.876	25.43
607.068	25.39
607.26	25.31
607.453	25.52
607.645	25.7
607.837	25.68
608.03	26.04
608.222	25.88
608.414	25.95
608.606	25.83
608.799	25.92
608.991	25.91
609.183	25.73
609.375	25.79
609.567	25.54
609.759	25.22
609.952	25.25
610.144	25.31
610.336	25.38
610.528	25.38
610.72	25.24
610.912	25.3
611.104	25.35
611.296	25.45
611.488	25.38
611.68	25.62
611.872	25.5
612.064	25.38
612.256	25.17
612.448	25.18
612.64	25.23
612.832	25.22
613.023	25.35
613.215	25.11
613.407	25.14
613.599	25.35
613.791	25.4
613.983	25.46
614.174	25.54
614.366	25.75
614.558	25.85
614.75	25.66
614.941	25.61
615.133	25.16
615.325	25.26
615.516	25.2
615.708	24.94
615.9	24.8
616.091	24.82
616.283	24.9
616.475	24.64
616.666	24.53
616.858	24.78
617.049	24.96
617.241	25.13
617.432	25.29
617.624	25.41
617.815	25.61
618.007	25.64
618.198	25.69
618.39	25.75
618.581	25.78
618.773	26.04
618.964	25.64
619.155	25.72
619.347	25.92
619.538	25.68
619.729	25.81
619.921	25.6
620.112	25.69
620.303	25.68
620.494	25.61
620.686	25.82
620.877	25.81
621.068	26.16
621.259	26.31
621.451	25.94
621.642	26.5
621.833	26.33
622.024	26.55
622.215	26.48
622.406	26.69
622.597	26.79
622.788	26.69
622.98	26.32
623.171	26.38
623.362	25.95
623.553	26.04
623.744	25.49
623.935	25.62
624.126	25.36
624.317	25.35
624.508	25.28
624.698	25.29
624.889	25.38
625.08	25.83
625.271	25.54
625.462	25.97
625.653	26.14
625.844	26.43
626.034	26.42
626.225	26.73
626.416	26.75
626.607	26.88
626.798	26.86
626.988	26.72
627.179	26.7
627.37	26.76
627.56	26.76
627.751	26.74
627.942	26.89
628.132	26.86
628.323	26.88
628.514	26.72
628.704	26.71
628.895	26.77
629.085	26.91
629.276	26.64
629.466	26.51
629.657	26.63
629.847	26.6
630.038	26.09
630.228	26.04
630.419	26.07
630.609	26.28
630.8	25.97
630.99	25.78
631.181	25.86
631.371	25.72
631.561	25.93
631.752	25.52
631.942	25.53
632.132	25.72
632.323	25.8
632.513	25.35
632.703	25.39
632.893	25.58
633.084	25.81
633.274	25.87
633.464	26.13
633.654	26.26
633.844	26.41
634.034	26.19
634.225	26.53
634.415	26.57
634.605	26.61
634.795	26.68
634.985	26.77
635.175	26.66
635.365	26.56
635.555	26.55
635.745	26.51
635.935	26.36
636.125	26.57
636.315	26.1
636.505	26.61
636.695	27.01
636.885	26.54
637.075	26.81
637.265	26.89
637.455	26.93
637.644	26.72
637.834	26.72
638.024	26.91
638.214	26.87
638.404	27.32
638.593	26.87
638.783	26.88
638.973	27.3
639.163	27.02
639.352	27.19
639.542	27.15
639.732	27.29
639.921	26.9
640.111	26.93
640.301	27.18
640.49	26.86
640.68	26.79
640.87	26.54
641.059	26.73
641.249	26.8
641.438	26.71
641.628	26.66
641.817	26.44
642.007	26.94
642.196	26.75
642.386	26.92
642.575	26.84
642.764	26.73
642.954	26.92
643.143	26.66
643.333	26.62
643.522	26.48
643.711	26.73
643.901	26.92
644.09	27.32
644.279	27.58
644.469	27.25
644.658	27.43
644.847	26.9
645.036	27.05
645.226	27.03
645.415	27.01
645.604	27.1
645.793	27.04
645.982	26.79
646.171	26.21
646.361	25.82
646.55	25.95
646.739	25.61
646.928	26.14
647.117	26.2
647.306	26.57
647.495	26.33
647.684	26.17
647.873	25.77
648.062	26.34
648.251	26.37
648.44	26.84
648.629	26.88
648.818	27.12
649.007	27.33
649.196	27.09
649.384	26.54
649.573	26.53
649.762	26.6
649.951	27.11
650.14	27.2
650.328	27.09
650.517	27.28
650.706	26.73
650.895	26.65
651.083	26.81
651.272	26.91
651.461	26.94
651.65	27.58
651.838	27.51
652.027	27.01
652.216	26.6
652.404	26.69
652.593	26.35
652.781	26.48
652.97	26.58
653.158	26.55
653.347	26.31
653.535	26.62
653.724	25.94
653.912	26.08
654.101	26.11
654.289	25.94
654.478	26.03
654.666	25.86
654.855	26.1
655.043	26.14
655.231	26.13
655.42	26.45
655.608	26.34
655.796	27.1
655.985	26.75
656.173	27.12
656.361	27.93
656.55	27.62
656.738	27.67
656.926	27.9
657.114	27.75
657.302	27.59
657.491	27.45
657.679	27.74
657.867	27.39
658.055	27.5
658.243	27.69
658.431	27.31
658.619	27.63
658.807	27.71
658.996	27.2
659.184	27.18
659.372	27.14
659.56	26.98
659.748	26.83
659.936	26.72
660.124	27.09
660.311	26.53
660.499	26.19
660.687	26.24
660.875	25.95
661.063	25.93
661.251	26.09
661.439	26.3
661.627	26.7
661.814	26.82
662.002	26.87
662.19	26.59
662.378	27.43
662.565	27.87
662.753	27.58
662.941	27.87
663.129	28.28
663.316	28.33
663.504	28.29
663.692	27.89
663.879	27.39
664.067	27.49
664.254	27.43
664.442	26.61
664.63	26.41
664.817	26.03
665.005	25.99
665.192	26.45
665.38	25.92
665.567	25.41
665.755	25.04
665.942	24.89
666.13	24.59
666.317	24.78
666.504	25.01
666.692	24.84
666.879	25.85
667.067	25.76
667.254	25.19
667.441	25.96
667.629	26.3
667.816	26.82
668.003	27.31
668.19	27.3
668.378	27.14
668.565	27.23
668.752	27.95
668.939	27.49
669.127	27.41
669.314	27.56
669.501	26.87
669.688	27
669.875	26.89
670.062	26.54
670.249	26.66
670.436	26.72
670.623	26.46
670.81	26.64
670.997	26.28
671.184	26.25
671.371	26.62
671.558	26.88
671.745	26.53
671.932	26.25
672.119	26.92
672.306	26.81
672.493	26.63
672.68	27.05
672.867	26.19
673.054	26.43
673.24	26.37
673.427	25.71
673.614	26.16
673.801	26.51
673.988	26.62
674.174	26.84
674.361	26.82
674.548	26.99
674.734	27.12
674.921	27.08
675.108	26.7
675.294	27.41
675.481	27.57
675.668	27.23
675.854	27.19
676.041	27.56
676.227	27.17
676.414	27.14
676.601	27.18
676.787	26.98
676.974	27.58
677.16	27.59
677.347	27.52
677.533	27.27
677.719	27.26
677.906	27.27
678.092	27.45
678.279	27.43
678.465	27.28
678.651	27.23
678.838	26.97
679.024	26.48
679.21	27.31
679.397	27.14
679.583	27.33
679.769	27.71
679.955	27.59
680.142	27.54
680.328	27.65
680.514	27.82
680.7	27.8
680.886	28.13
681.073	28.53
681.259	28.11
681.445	28.06
681.631	28.04
681.817	27.63
682.003	27.56
682.189	27.56
682.375	27.13
682.561	27.55
682.747	27.76
682.933	27.69
683.119	27.32
683.305	27.51
683.491	28.05
683.677	28.1
683.863	28
684.049	28.14
684.235	27.92
684.42	28.22
684.606	27.85
684.792	28.32
684.978	28.45
685.164	28.57
685.349	28.3
685.535	27.95
685.721	28.35
685.907	28.78
686.092	28.86
686.278	28.98
686.464	29.19
686.649	29.57
686.835	28.81
687.021	28.32
687.206	28.1
687.392	28.21
687.577	27.77
687.763	27.8
687.948	27.6
688.134	27.66
688.319	27.75
688.505	27.15
688.69	26.82
688.876	26.39
689.061	26.61
689.247	27
689.432	27.07
689.618	27.13
689.803	26.47
689.988	26.88
690.174	26.23
690.359	25.73
690.544	26.46
690.73	26.55
690.915	27.18
691.1	26.95
691.285	26.81
691.471	26.97
691.656	27.05
691.841	27.68
692.026	27.04
692.211	28.14
692.396	28.18
692.582	27.54
692.767	27.78
692.952	28.19
693.137	28.58
693.322	27.95
693.507	27.83
693.692	27.7
693.877	27.05
694.062	26.92
694.247	26.36
694.432	26.23
694.617	26.44
694.802	26.17
694.987	25.8
695.172	25.94
695.357	26.61
695.541	26.39
695.726	26.83
695.911	26.63
696.096	27.15
696.281	26.91
696.466	27.16
696.65	27.48
696.835	27.61
697.02	27.2
697.204	27.33
697.389	27.6
697.574	27.89
697.759	27.52
697.943	27.85
698.128	27.47
698.312	27.27
698.497	27.23
698.682	27.31
698.866	27.48
699.051	27.88
699.235	27.82
699.42	27.37
699.604	26.97
699.789	27.18
699.973	27.33
700.158	27.18
700.342	27.34
700.527	27.72
700.711	27.68
700.895	27.43
701.08	27.23
701.264	26.54
701.448	26.92
701.633	27.05
701.817	26.99
702.001	26.26
702.186	27.15
702.37	27.33
702.554	26.48
702.738	26.17
702.923	26.65
703.107	26.33
703.291	26.8
703.475	27.3
703.659	28.16
703.843	27.65
704.027	28.57
704.212	28.41
704.396	28.12
704.58	29.39
704.764	29.16
704.948	28.64
705.132	29.03
705.316	28.98
705.5	27.72
705.684	27.42
705.868	28.36
706.052	28.24
706.235	28.32
706.419	29.17
706.603	28.75
706.787	29
706.971	28.51
707.155	28.1
707.339	28.77
707.522	29.71
707.706	29.17
707.89	29.18
708.074	28.91
708.257	28.88
708.441	28.28
708.625	28.15
708.808	27.91
708.992	27.98
709.176	27.98
709.359	27.2
709.543	27.1
709.727	27.55
709.91	26.58
710.094	26.68
710.277	26.02
710.461	25.57
710.644	25.02
710.828	25.42
711.011	25.61
711.195	25.17
711.378	25.6
711.562	25.64
711.745	25.21
711.928	25.79
712.112	26.01
712.295	25.78
712.478	26.08
712.662	26.48
712.845	27.08
713.028	27.82
713.212	28.42
713.395	27.68
713.578	27.39
713.761	26.78
713.945	26.76
714.128	26.71
714.311	27.68
714.494	27.37
714.677	27.31
714.86	26.22
715.043	25.61
715.227	25.63
715.41	26.4
715.593	26.79
715.776	27.71
715.959	27.7
716.142	27.3
716.325	26.71
716.508	27.81
716.691	28.08
716.874	28.39
717.057	28.78
717.239	29.74
717.422	28.91
717.605	28.53
717.788	28.21
717.971	29.11
718.154	29.31
718.337	30.17
718.519	28.98
718.702	29.47
718.885	30.17
719.068	30.1
719.25	28.59
719.433	30.31
719.616	30.3
719.798	30.76
719.981	29.74
720.164	29.54
720.346	29.07
720.529	29.67
720.712	28.65
720.894	27.82
721.077	27.59
721.259	29.73
721.442	28.64
721.624	29.39
721.807	29.54
721.989	30.11
722.172	29.4
722.354	29.28
722.537	30.16
722.719	31.07
722.901	31.1
723.084	31.62
723.266	30.07
723.448	30.38
723.631	29.54
723.813	28.31
723.995	27.44
724.178	28.13
724.36	28.52
724.542	27.08
724.724	26.78
724.907	27.15
725.089	27.45
725.271	26.44
725.453	25.89
725.635	24.84
725.817	24.94
725.999	24.01
726.181	25.42
726.364	25.79
726.546	26.2
726.728	25.46
726.91	25.08
727.092	24.38
727.274	25.02
727.456	26.03
727.638	27.07
727.819	27.04
728.001	27.37
728.183	27.51
728.365	26.91
728.547	27.27
728.729	27.4
728.911	28.13
729.093	28.3
729.274	28.75
729.456	28.67
729.638	27.83
729.82	28.28
730.001	28.37
730.183	27.9
730.365	27.11
730.546	25.89
730.728	24.99
730.91	23.17
731.091	22.87
731.273	22.39
731.455	22.46
731.636	23.72
731.818	24.23
731.999	25.34
732.181	24.93
732.362	25.15
732.544	26.57
732.725	27.77
732.907	29.2
733.088	28.97
733.27	27.82
733.451	27.62
733.633	27.23
733.814	27.04
733.995	25.59
734.177	25.73
734.358	26.17
734.539	26.84
734.721	26.74
734.902	26.13
735.083	26.63
735.264	28.27
735.446	28.18
735.627	28.11
735.808	28.36
735.989	30.84
736.17	30.36
736.351	29.48
736.533	28.08
736.714	27.86
736.895	27.97
737.076	27.1
737.257	26.03
737.438	26.2
737.619	26.52
737.8	26.23
737.981	25.87
738.162	26.5
738.343	26.62
738.524	24.98
738.705	26.25
738.886	25.95
739.067	26.64
739.247	27.39
739.428	26.25
739.609	25.5
739.79	27.46
739.971	27.19
740.151	27.45
740.332	27.84
740.513	29.96
740.694	27.65
740.874	28.07
741.055	27.7
741.236	29.07
741.417	29.65
741.597	30.39
741.778	28.82
741.958	28.55
742.139	29.43
742.32	29.83
742.5	29.59
742.681	30.81
742.861	30.13
743.042	30.56
743.222	29.17
743.403	29.38
743.583	29.63
743.764	29.14
743.944	28.81
744.124	27.49
744.305	27.67
744.485	28.38
744.666	28.18
744.846	29
745.026	28.53
745.207	29.01
745.387	28.27
745.567	25.82
745.747	25.17
745.928	25.08
746.108	25.97
746.288	25.94
746.468	25.68
746.648	25.07
746.829	25.82
747.009	24.93
747.189	23.23
747.369	23.8
747.549	27.84
747.729	27.18
747.909	25.53
748.089	22.59
748.269	22.41
748.449	21.64
748.629	22.76
748.809	21.49
748.989	24.48
749.169	25.39
749.349	25.82
749.529	24.48
749.709	26.6
749.889	28.99
750.068	30.83
750.248	30.36
750.428	29.66
750.608	29.38
750.788	29.48
750.967	28.19
751.147	28.45
751.327	29.16
751.507	28.09
751.686	28.06
751.866	26.94
752.046	25.85
752.225	26.21
752.405	28.03
752.585	27.62
752.764	27.1
752.944	25.83
753.123	26.85
753.303	26.39
753.482	26.51
753.662	25.97
753.841	26.29
754.021	27.26
754.2	26.43
754.38	26.88
754.559	26.06
754.739	25.9
754.918	26.33
755.097	25.4
755.277	23.44
755.456	24.02
755.635	23.49
755.815	23.33
755.994	24.29
756.173	25.79
756.352	24.54
756.532	24.94
756.711	27.24
756.89	28.34
757.069	26.74
757.248	27.69
757.427	28.39
757.607	27.83
757.786	27.45
757.965	26.69
758.144	26.66
758.323	26.52
758.502	27.25
758.681	27.07
758.86	26.72
759.039	28.67
759.218	29.48
759.397	28.38
759.576	28.93
759.755	29.43
759.934	29.42
760.113	28.51
760.291	29.29
760.47	30.36
760.649	29.49
760.828	29.24
761.007	28.28
761.186	27.59
761.364	27.98
761.543	28.49
761.722	28.14
761.901	27.46
762.079	27.21
762.258	26.1
762.437	25.76
762.615	26.08
762.794	25.28
762.972	25.73
763.151	26.08
763.33	26.07
763.508	25.95
763.687	26.59
763.865	26.34
764.044	26.14
764.222	26.09
764.401	25.88
764.579	25.55
764.758	25.88
764.936	26.41
765.114	26.03
765.293	25.23
765.471	24.88
765.65	22.99
765.828	24.04
766.006	25.48
766.184	26.44
766.363	25.62
766.541	26.4
766.719	25.71
766.898	24.51
767.076	24.88
767.254	25.27
767.432	24.86
767.61	24.8
767.788	24.12
767.967	23.33
768.145	22.24
768.323	22.94
768.501	23.95
768.679	24.21
768.857	25.16
769.035	24.65
769.213	25.09
769.391	23.88
769.569	28.26
769.747	29.55
769.925	29.93
770.103	29.06
770.281	27.73
770.459	25.39
770.636	26.79
770.814	25.33
770.992	24.97
771.17	25.18
771.348	26.85
771.525	22.91
771.703	21.6
771.881	20.96
772.059	23.12
772.236	24
772.414	22.13
772.592	22.91
772.769	24.3
772.947	26.15
773.125	26.17
773.302	25.76
773.48	27.44
773.657	29.85
773.835	30.56
774.013	29.54
774.19	31.74
774.368	32.98
774.545	33.09
774.723	33.71
774.9	31.74
775.077	32.34
775.255	33.02
775.432	32.83
775.61	29.49
775.787	26.52
775.964	27.76
776.142	24.81
776.319	20.91
776.496	18.54
776.674	17.8
776.851	19.71
777.028	22.31
777.205	22.57
777.382	23.54
777.56	23.82
777.737	26.16
777.914	25.1
778.091	26.1
778.268	31.52
778.445	33.33
778.622	32.61
778.8	32.38
778.977	28.09
779.154	28.16
779.331	26.48
779.508	27.1
779.685	25.65
779.862	26.95
780.038	25.65
780.215	22.62
780.392	21.83
780.569	19.76
780.746	19.14
780.923	20.25
781.1	18.62
781.277	18.78
781.453	17.06
781.63	19.29
781.807	18.73
781.984	20.46
782.16	21.06
782.337	24.24
782.514	26.77
782.691	28.57
782.867	29.8
783.044	32.94
783.221	31.52
783.397	33.45
783.574	33.76
783.75	33.8
783.927	33.13
784.103	34.03
784.28	32.25
784.456	37.45
784.633	36.04
784.809	33.36
784.986	30.96
785.162	32.91
785.339	32.08
785.515	30.92
785.692	32.9
785.868	33.4
786.044	34.15
786.221	34.99
786.397	26.27
786.573	27.22
786.749	27.16
786.926	27.81
787.102	28.12
787.278	28.63
787.454	29.09
787.631	24.54
787.807	24.75
787.983	22.42
788.159	20.16
788.335	23.36
788.511	22.89
788.687	25.93
788.863	23.93
789.039	21.38
789.216	17.27
789.392	14.55
789.568	18.62
789.744	17.81
789.919	18.08
790.095	21.97
790.271	18.65
790.447	17.84
790.623	14.53
790.799	15.66
790.975	18.03
791.151	20.15
791.327	25.65
791.502	21.87
791.678	20.75
791.854	20.65
792.03	16.48
792.205	20.87
792.381	19.2
792.557	17.58
792.733	13.61
792.908	17.09
793.084	15.78
793.259	10.52
793.435	12.87
793.611	14.67
793.786	15.93
793.962	17.62
794.137	19.18
794.313	21.12
794.488	26.65
794.664	31.02
794.839	29.11
795.015	29.05
795.19	33.28
795.366	34.91
795.541	34.74
795.716	33.6
795.892	33.08
796.067	31.74
796.242	32.72
796.418	33.44
796.593	31.58
796.768	32.01
796.944	33.01
797.119	30.56
797.294	27.22
797.469	27.19
797.644	27.89
797.82	29.31
797.995	31.55
798.17	26.47
798.345	24.42
798.52	27.85
798.695	27.86
798.87	28.76
799.045	27.47
799.22	28.02
799.395	29.86
799.57	31.73
799.745	29.93
799.92	25.8
800.095	26.62
800.27	25.87
800.445	25.86
800.62	23.24
800.795	22.09
800.97	19.44
801.145	21.3
801.319	17.19
801.494	17.92
801.669	18.28
801.844	21.03
802.018	24.39
802.193	24.06
802.368	22.27
802.543	21.07
802.717	23.45
802.892	24.22
803.067	24.96
803.241	26.69
803.416	26.26
803.59	22.67
803.765	27.13
803.94	26.31
804.114	26.17
804.289	32.25
804.463	35.73
804.638	37.34
804.812	39.6
804.986	42.44
805.161	39.33
805.335	35.5
805.51	38.19
805.684	34.95
805.858	36.8
806.033	35.87
806.207	29.89
806.381	29.88
806.556	26.33
806.73	24.42
806.904	24.47
807.078	29.23
807.253	29.58
807.427	26.34
807.601	23.95
807.775	24.87
807.949	23.36
808.123	24.02
808.298	21.46
808.472	18.26
808.646	20.44
808.82	15.45
808.994	13.9
809.168	17.07
809.342	21.26
809.516	26.65
809.69	26.15
809.864	26.44
810.038	27.45
810.212	28.37
810.385	32.77
810.559	29.58
810.733	33.8
810.907	34.83
811.081	32.76
811.255	35.48
811.428	25.2
811.602	24.86
811.776	26.47
811.95	25.71
812.123	27.14
812.297	23.26
812.471	23.06
812.644	26.2
812.818	28.08
812.992	23.1
813.165	19.3
813.339	29.74
813.512	26.78
813.686	24.44
813.86	23.5
814.033	20.28
814.207	27.24
814.38	28.54
814.554	15.78
814.727	8.92
814.9	11.5
815.074	13.41
815.247	13.07
815.421	14.87
815.594	17.94
815.767	21.46
815.941	20.48
816.114	14.88
816.287	18.91
816.46	18.29
816.634	23.2
816.807	24.84
816.98	19.53
817.153	21.18
817.327	14.95
817.5	14.54
817.673	10.6
817.846	4.59
818.019	4.09
818.192	-3.63
818.365	-0.7
818.538	-0.54
818.711	1.51
818.884	7.88
819.057	5.37
819.23	10.32
819.403	10.81
819.576	14.24
819.749	21.18
819.922	24.65
820.095	27.79
820.268	33.06
820.441	31.12
820.614	31.27
820.786	29.3
820.959	29.16
821.132	28.85
821.305	29.35
821.477	28.95
821.65	28.99
821.823	28.78
821.996	28.03
822.168	26.78
822.341	27.45
822.514	26.41
822.686	26.25
822.859	25.64
823.031	25.7
823.204	26.08
823.376	25.81
823.549	25.9
823.722	25.71
823.894	26.67
824.067	26.11
824.239	26.31
824.411	28.27
824.584	28.76
824.756	29.47
824.929	29.66
825.101	29.42
825.273	30.31
825.446	29.92
825.618	29.66
825.79	29.53
825.963	30.8
826.135	29.91
826.307	28.67
826.479	29.24
826.652	28.62
826.824	28.64
826.996	28.27
827.168	27.31
827.34	27.69
827.512	27.31
827.684	25.77
827.856	25.06
828.029	23.86
828.201	22.91
828.373	20.92
828.545	20.33
828.717	19.86
828.889	19.5
829.061	18.68
829.232	18.44
829.404	19.54
829.576	20.66
829.748	21.09
829.92	24.5
830.092	27.56
830.264	30.43
830.436	32.59
830.607	32.73
830.779	33.52
830.951	34.41
831.123	35.65
831.294	33.5
831.466	32.99
831.638	33.81
831.809	38.18
831.981	34.32
832.153	36.59
832.324	32.4
832.496	31.4
832.667	29.95
832.839	26.56
833.011	25.15
833.182	26.73
833.354	26.67
833.525	30.84
833.697	22.86
833.868	26.76
834.039	24.73
834.211	23.94
834.382	24.53
834.554	25.59
834.725	27.69
834.896	27.45
835.068	28.34
835.239	28.01
835.41	25.12
835.581	26.18
835.753	26.29
835.924	24.8
836.095	28.33
836.266	30.2
836.438	30.76
836.609	34.98
836.78	32.97
836.951	29.53
837.122	31.71
837.293	28.11
837.464	28.91
837.635	21.58
837.806	22.17
837.977	20.39
838.148	13.55
838.319	6.62
838.49	-4.96
838.661	-1.4
838.832	5.52
839.003	0.15
839.174	0.21
839.345	1.67
839.516	11.84
839.687	13.98
839.857	17.51
840.028	17.98
840.199	23.4
840.37	24.23
840.54	27.7
840.711	22.04
840.882	35.16
841.053	38.31
841.223	35.32
841.394	29.23
841.564	28.7
841.735	31.57
841.906	40.1
842.076	35.16
842.247	41.33
842.417	39.72
842.588	40.18
842.758	24.84
842.929	29.75
843.099	35.12
843.27	45.42
843.44	39.46
843.611	35.43
843.781	26.74
843.951	35.31
844.122	34.89
844.292	44.87
844.462	52.41
844.633	45.77
844.803	42.95
844.973	25.92
845.144	-25.66
845.314	-45.23
845.484	-84.71
845.654	-33.38
845.824	-5.19
845.995	-3.13
846.165	-5.11
846.335	1.12
846.505	9.65
846.675	7.42
846.845	5.75
847.015	23.04
847.185	42.08
847.355	56.85
847.525	43.79
847.695	27.38
847.865	34.14
848.035	21.9
848.205	4.75
848.375	4.84
848.545	-12.46
848.715	-1
848.884	37.62
849.054	50.17
849.224	45.8
849.394	51.26
849.564	87.92
849.733	71.1
849.903	84.96
850.073	111.12
850.243	242.19
850.412	175.54
850.582	145.7
850.752	114.42
850.921	87.81
851.091	101.44
851.26	93.59
851.43	102.89
851.599	83.55
851.769	67.87
851.939	74.82
852.108	48.96
852.278	61.8
852.447	72.32
852.616	75.61
852.786	80.18
852.955	78.87
853.125	63.28
853.294	30.75
853.463	68.77
853.633	42.01
853.802	39.24
853.971	-9.08
854.141	218.41
854.31	-36.06
854.479	16.12
854.648	29.05
854.818	-15.48
854.987	-20.24
855.156	19.44
855.325	13.13
855.494	6.46
855.663	24.31
855.832	35.71
856.001	7.5
856.171	2.57
856.34	-12.34
856.509	-19.33
856.678	-20.16
856.847	0.44
857.016	43.61
857.185	43.46
857.353	43.93
857.522	13.6
857.691	-15.18
857.86	19.38
858.029	35.5
858.198	21.98
858.367	-7.26
858.535	36.87
858.704	79.7
858.873	47.79
859.042	68.84
859.21	112.03
859.379	173.63
859.548	273.37
859.717	156.25
859.885	507.89
860.054	-261.31
860.222	-348.56
860.391	128.37
860.56	22.21
860.728	-8.84
860.897	-8.36
861.065	7.56
861.234	-14.95
861.402	18.66
861.571	68.81
861.739	-2.69
861.908	9.9
862.076	-15.85
862.244	48.65
862.413	38.74
862.581	4.55
862.749	11983.33
862.918	336.75
863.086	218.74
863.254	-101.08
863.423	859.47
863.591	-103.27
863.759	-44.14
863.927	23.24
864.096	-83.16
864.264	8.39
864.432	80.9
864.6	151.55
864.768	92.69
864.936	111.88
865.104	234.88
865.272	186.52
865.44	-1017.2
865.608	-335.11
865.776	4131.75
865.944	-314.91
866.112	-222.81
866.28	-219.77
866.448	34.6
866.616	4.51
866.784	-57.14
866.952	61.49
867.12	74.06
867.288	43.3
867.455	21.09
867.623	40.46
867.791	16.67
867.959	39.2
868.127	56.48
868.294	74.93
868.462	76.86
868.63	38.59
868.797	36.17
868.965	72.19
869.133	15.64
869.3	-168.13
869.468	134.63
869.636	52.24
869.803	128.16
869.971	55.52
870.138	33.28
870.306	23.88
870.473	19.94
870.641	11.48
870.808	-30.44
870.975	-27.43
871.143	5.01
871.31	7.18
871.478	21.01
871.645	-9.07
871.812	-27.95
871.98	-21.78
872.147	-89.62
872.314	-226.3
872.482	-42.35
872.649	-0.27
872.816	30.61
872.983	46.34
873.15	21.61
873.318	18.32
873.485	15.22
873.652	23.66
873.819	17.96
873.986	-24.05
874.153	-38.72
874.32	23.13
874.487	15.93
874.654	-478.55
874.821	325.29
874.988	1405.58
875.155	287.29
875.322	433.09
875.489	193.9
875.656	379.83
875.823	475.36
875.99	-404.26
876.157	336.98
876.324	165.13
876.49	-22.13
876.657	7362.79
876.824	187.92
876.991	133.21
877.157	386.43
877.324	375.1
877.491	201.85
877.658	353.4
877.824	364.33
877.991	317.63
878.157	304.12
878.324	145.94
878.491	242.63
878.657	-48.56
878.824	-269.01
878.99	3039.81
879.157	102.1
879.323	-128.9
879.49	154.8
879.656	-159.59
879.823	21.87
879.989	1.59
880.156	2278.95
880.322	-933.74
880.488	-573.42
880.655	-150
880.821	-12.78
880.987	-26.13
881.154	-1.79
881.32	25.38
881.486	34.43
881.652	16.67
881.819	12.93
881.985	18.9
882.151	26.55
882.317	38.75
882.483	30.87
882.649	32.45
882.816	25.99
882.982	25.92
883.148	24.23
883.314	25.45
883.48	20.7
883.646	22.75
883.812	25.06
883.978	23.25
884.144	19.31
884.31	21.73
884.476	21.74
884.642	25.52
884.807	21.9
884.973	20.4
885.139	21.12
885.305	23.3
885.471	24.02
885.637	19.19
885.802	18.61
885.968	23.74
886.134	18.75
886.3	17.01
886.465	9.92
886.631	11.33
886.797	16.32
886.962	10.72
887.128	8.88
887.293	3.13
887.459	4.03
887.625	-0.17
887.79	-36.95
887.956	-37.52
888.121	-35.9
888.287	-39.78
888.452	-46.79
888.618	-73.55
888.783	-73.58
