Data from 2937852_Reflection_1.txt Node
Date: Wed Jul 15 15:52:40 EDT 2015
User: robert
Spectrometer: USB4E03001
Autoset integration time: false
Trigger mode: 4
Integration Time (sec): 1.000000E-1
Scans to average: 10
Electric dark correction enabled: true
Nonlinearity correction enabled: false
Boxcar width: 5
Stray light correction enabled: false
XAxis mode: Wavelengths
Stop averaging: false
Number of Pixels in Spectrum: 3648
>>>>>Begin Spectral Data<<<<<
177.566	29.96
177.785	10.8
178.005	-67.28
178.225	-116.22
178.445	-654.64
178.665	100.28
178.885	103.4
179.105	205.45
179.324	127.04
179.544	55.1
179.764	39.95
179.984	5.46
180.204	49.67
180.423	15.6
180.643	5.15
180.863	-21.22
181.083	176.66
181.302	111.48
181.522	104.86
181.742	383.93
181.961	300.21
182.181	493.98
182.401	-963.98
182.621	-306.31
182.84	-623.33
183.06	3320.28
183.279	-616.4
183.499	139.08
183.719	4774.36
183.938	-545.19
184.158	35.27
184.377	11.64
184.597	25.42
184.816	25.93
185.036	17.73
185.256	33.62
185.475	3.37
185.695	20.94
185.914	34.22
186.134	48.77
186.353	55.02
186.572	63.74
186.792	57.79
187.011	15.95
187.231	-82.85
187.45	63.86
187.67	-175.06
187.889	169.03
188.108	93.16
188.328	19.37
188.547	-48.34
188.766	-41.47
188.986	-6.68
189.205	6.76
189.424	43.57
189.644	93.71
189.863	30.08
190.082	159.87
190.302	63.24
190.521	692.31
190.74	181.56
190.959	192.07
191.178	218.28
191.398	247.83
191.617	318.47
191.836	398.41
192.055	154.23
192.274	160.01
192.494	116.7
192.713	94.28
192.932	7192.31
193.151	360.18
193.37	401.51
193.589	380.39
193.808	1026.13
194.027	-646.31
194.246	-553.97
194.465	1819.93
194.685	939.73
194.904	3170.33
195.123	2158.4
195.342	-448.74
195.561	-442.45
195.78	-4.59
195.999	116.04
196.218	123.67
196.436	-64.38
196.655	-231.43
196.874	-176.92
197.093	696.92
197.312	218.57
197.531	149.75
197.75	829.23
197.969	334.62
198.188	23.65
198.407	187.91
198.625	-202.75
198.844	-67.1
199.063	-78.44
199.282	-43.39
199.501	214.39
199.719	97.83
199.938	67.92
200.157	83.64
200.376	91.83
200.594	-0.81
200.813	-49.53
201.032	-116.74
201.251	1374.73
201.469	-104.43
201.688	-522.27
201.907	-314.05
202.125	-261.54
202.344	121.77
202.563	467.37
202.781	56.55
203	77.16
203.218	51.13
203.437	91.45
203.656	81.18
203.874	107.82
204.093	156.74
204.311	103.45
204.53	86.76
204.748	83.24
204.967	28.77
205.185	-48.47
205.404	-195.85
205.622	-216.78
205.841	-287.67
206.059	3482.42
206.278	249.8
206.496	6025.64
206.715	125.71
206.933	452.59
207.151	715.38
207.37	45.37
207.588	30.68
207.806	50.96
208.025	48.87
208.243	58.74
208.461	81.91
208.68	7.05
208.898	8.38
209.116	7.21
209.335	-10.17
209.553	46.72
209.771	-233.46
209.989	-38.88
210.208	-75.88
210.426	315.08
210.644	439.86
210.862	226.3
211.081	118.49
211.299	53.46
211.517	115.82
211.735	123.34
211.953	247.93
212.171	348.53
212.39	334.19
212.608	231.61
212.826	364.41
213.044	615.38
213.262	79.93
213.48	55.83
213.698	238.76
213.916	-55.69
214.134	-52.84
214.352	36.69
214.57	90.01
214.788	68.35
215.006	55.2
215.224	52.02
215.442	43.64
215.66	40.09
215.878	22.34
216.096	38.72
216.314	53.26
216.532	57.64
216.75	45.38
216.968	67
217.185	118.82
217.403	121.79
217.621	220.21
217.839	153.87
218.057	185.66
218.275	145.13
218.492	89.43
218.71	60.28
218.928	51.6
219.146	32.2
219.363	-76.92
219.581	-86.18
219.799	-61.33
220.017	-47.9
220.234	-545.56
220.452	-70.88
220.67	-24.75
220.887	103.58
221.105	-85.12
221.323	-26.21
221.54	-137.16
221.758	-96.46
221.976	-36.79
222.193	-27.13
222.411	-76.37
222.629	-189.63
222.846	-77.02
223.064	-33.41
223.281	-274.44
223.499	-129.94
223.716	-208.31
223.934	5.98
224.151	146.41
224.369	689.86
224.586	162.82
224.804	79.07
225.021	47.76
225.239	40.59
225.456	12.02
225.674	30.97
225.891	47.82
226.108	68.49
226.326	54.67
226.543	49.5
226.76	1.25
226.978	-3.69
227.195	-29.49
227.413	3.43
227.63	6.59
227.847	7.71
228.064	5.47
228.282	8.79
228.499	3.99
228.716	5.45
228.934	7.68
229.151	15.36
229.368	16.31
229.585	16.93
229.802	13.58
230.02	12.67
230.237	17.37
230.454	11.22
230.671	8.09
230.888	9.69
231.105	11.62
231.323	10.84
231.54	6.74
231.757	7.34
231.974	2.56
232.191	3.27
232.408	5.68
232.625	-4.88
232.842	4.49
233.059	9.02
233.276	4.18
233.493	3.1
233.71	-3.52
233.927	0.28
234.144	0.6
234.361	-3.16
234.578	-4.03
234.795	-7.85
235.012	-3.46
235.229	-1.36
235.446	-7.17
235.663	-3.9
235.879	-4.84
236.096	-3.53
236.313	-12.92
236.53	-12.7
236.747	-10.72
236.964	-1.5
237.181	2.55
237.397	3.38
237.614	6.9
237.831	10.66
238.048	11.64
238.264	11.85
238.481	12.25
238.698	17.48
238.915	17.98
239.131	16.56
239.348	20.95
239.565	20.97
239.781	18.32
239.998	16.59
240.215	12.54
240.431	12
240.648	11.09
240.865	9.26
241.081	10.63
241.298	10.06
241.514	13.66
241.731	10.13
241.947	12.23
242.164	15.48
242.38	13.94
242.597	14.07
242.814	15.24
243.03	14.34
243.246	15.81
243.463	16.04
243.679	17.13
243.896	18.53
244.112	19.55
244.329	19.9
244.545	18.72
244.762	18.46
244.978	19.95
245.194	18.36
245.411	20.59
245.627	19.07
245.843	20.09
246.06	18.45
246.276	16.76
246.492	17.04
246.709	17.2
246.925	16.6
247.141	17.28
247.357	16.66
247.574	17.14
247.79	16.55
248.006	17.66
248.222	16.84
248.439	17.02
248.655	16.74
248.871	15.93
249.087	14.64
249.303	13.15
249.519	12.82
249.736	13.64
249.952	13.51
250.168	14.41
250.384	14.81
250.6	15.5
250.816	16.96
251.032	16.32
251.248	18.02
251.464	17.87
251.68	20.09
251.896	19.55
252.112	16.83
252.328	15.6
252.544	14.18
252.76	13.74
252.976	13.27
253.192	10.78
253.408	12.38
253.624	11.96
253.84	11.65
254.056	11.42
254.272	9.94
254.487	13.97
254.703	13.17
254.919	17.16
255.135	15.52
255.351	14.43
255.567	18.84
255.782	18.74
255.998	21.01
256.214	19.07
256.43	15.14
256.646	14.13
256.861	12.08
257.077	10.62
257.293	7.22
257.508	5.32
257.724	5.43
257.94	2.13
258.155	0.49
258.371	-1.19
258.587	1.4
258.802	5.66
259.018	6.56
259.234	6.71
259.449	8.2
259.665	8.58
259.88	9.92
260.096	10.66
260.312	11.72
260.527	12.44
260.743	12.87
260.958	12.23
261.174	11.82
261.389	12.44
261.605	13.56
261.82	13.18
262.036	14.14
262.251	13.57
262.466	12.41
262.682	10.56
262.897	10.46
263.113	10.1
263.328	11.82
263.543	13.85
263.759	12.94
263.974	11.45
264.189	12.33
264.405	9.37
264.62	8.48
264.835	10.22
265.051	14.26
265.266	15.08
265.481	14.47
265.696	14.51
265.912	10.88
266.127	10.69
266.342	9.72
266.557	9.65
266.773	10.47
266.988	12.34
267.203	12.47
267.418	9.98
267.633	10.67
267.848	10.88
268.064	11.86
268.279	12.4
268.494	12.5
268.709	11.42
268.924	10.47
269.139	9.84
269.354	8.9
269.569	5.86
269.784	5.1
269.999	4.81
270.214	6.9
270.429	4.77
270.644	3.75
270.859	4.43
271.074	7.42
271.289	9.01
271.504	9.91
271.719	9
271.934	10.68
272.149	12.06
272.363	11.66
272.578	11.96
272.793	11.49
273.008	12.57
273.223	12.47
273.438	12.15
273.653	10.71
273.867	12.36
274.082	13.36
274.297	14.07
274.512	13.56
274.726	15.42
274.941	12.83
275.156	12.05
275.371	10.21
275.585	11.28
275.8	12.3
276.015	14.31
276.229	12.02
276.444	11.71
276.659	9.66
276.873	8.49
277.088	7.61
277.302	8.91
277.517	11.58
277.732	14.79
277.946	14.59
278.161	12.82
278.375	12.93
278.59	12.67
278.804	11.89
279.019	13.78
279.233	15.58
279.448	14.84
279.662	15.38
279.877	14.91
280.091	13.57
280.306	14.32
280.52	13.77
280.735	11.92
280.949	12.48
281.163	12.6
281.378	11.45
281.592	11.34
281.806	10.56
282.021	9.93
282.235	8.08
282.449	7
282.664	4.95
282.878	5.66
283.092	5.95
283.307	7.32
283.521	7.2
283.735	9.24
283.949	9.36
284.164	9.38
284.378	10.39
284.592	11.4
284.806	12.05
285.02	13.5
285.234	13.67
285.449	13.54
285.663	12.05
285.877	13.33
286.091	11.84
286.305	11.31
286.519	10.86
286.733	9.19
286.947	9.37
287.161	8.8
287.375	8.66
287.589	8.95
287.803	8.41
288.017	9.01
288.231	9.52
288.445	9.95
288.659	10.89
288.873	12.41
289.087	13.68
289.301	14.75
289.515	15.43
289.729	14.1
289.943	13.57
290.157	14.62
290.371	13.83
290.584	11.69
290.798	11.53
291.012	11.05
291.226	10.56
291.44	9.08
291.654	7.39
291.867	7.08
292.081	6.33
292.295	6.86
292.509	6.96
292.722	7.01
292.936	6.73
293.15	7.33
293.364	6.93
293.577	8.16
293.791	7.82
294.005	8.97
294.218	8.89
294.432	10.68
294.645	11.88
294.859	11.71
295.073	12.81
295.286	12.02
295.5	10.98
295.713	10.98
295.927	9.6
296.14	10.86
296.354	10.22
296.568	10.24
296.781	9.34
296.994	8.14
297.208	8.72
297.421	8.49
297.635	9.59
297.848	10.12
298.062	9.53
298.275	10.03
298.489	10.38
298.702	10.89
298.915	10.17
299.129	11.51
299.342	11.86
299.555	11.88
299.769	12.68
299.982	13.93
300.195	14.45
300.409	16.26
300.622	16.13
300.835	15.11
301.048	16.43
301.262	18.16
301.475	18.02
301.688	16.88
301.901	16.27
302.115	15.72
302.328	14.49
302.541	13.47
302.754	13.42
302.967	13.87
303.18	14.01
303.393	12.07
303.607	11.1
303.82	9.46
304.033	9.75
304.246	10.74
304.459	10.79
304.672	12.52
304.885	13.19
305.098	11.89
305.311	12.41
305.524	12.81
305.737	11.99
305.95	13.87
306.163	15.87
306.376	16.75
306.589	15.28
306.802	13.11
307.015	12.31
307.228	12.83
307.44	12.13
307.653	11.41
307.866	11.83
308.079	12.57
308.292	11.96
308.505	13.66
308.718	14.8
308.93	14.42
309.143	15.32
309.356	14.48
309.569	14.57
309.781	15.5
309.994	14.91
310.207	14.92
310.42	15.07
310.632	15.4
310.845	14
311.058	13.26
311.27	14.52
311.483	15.83
311.696	15.64
311.908	14.63
312.121	14.16
312.333	15.07
312.546	14.47
312.759	14.83
312.971	13.32
313.184	12.83
313.396	11.03
313.609	8.96
313.821	8.91
314.034	10.6
314.246	11.21
314.459	10.71
314.671	10.46
314.884	10
315.096	9.51
315.309	10.04
315.521	10.15
315.733	13.07
315.946	14.04
316.158	13.66
316.371	12.63
316.583	11.24
316.795	12.1
317.008	12.96
317.22	15.44
317.432	15.94
317.644	16.64
317.857	17.22
318.069	15.37
318.281	16.06
318.494	13.68
318.706	15.21
318.918	16.32
319.13	15.33
319.342	14.12
319.555	13.4
319.767	13.38
319.979	13.28
320.191	13.35
320.403	14.68
320.615	14.16
320.827	14.24
321.039	11.96
321.252	10.76
321.464	12.93
321.676	13.58
321.888	13.19
322.1	14.01
322.312	12.05
322.524	10.82
322.736	8.53
322.948	7.87
323.16	10.52
323.372	11.25
323.584	12.89
323.796	12.41
324.007	13.28
324.219	13.42
324.431	12.22
324.643	13.63
324.855	14.73
325.067	16.59
325.279	16.57
325.491	14.31
325.702	13.68
325.914	11.74
326.126	12.52
326.338	10.53
326.55	10.92
326.761	10.12
326.973	10.63
327.185	8.87
327.396	7.87
327.608	8.5
327.82	9.54
328.032	9.7
328.243	12.59
328.455	11.97
328.666	13.98
328.878	14.23
329.09	14.93
329.301	12.11
329.513	13.5
329.725	14.29
329.936	15.02
330.148	13.74
330.359	12.8
330.571	12.33
330.782	11.15
330.994	10.69
331.205	11.94
331.417	11.94
331.628	13.85
331.84	14.06
332.051	12.14
332.262	12.33
332.474	13.72
332.685	13.86
332.897	12.87
333.108	13.44
333.319	12.36
333.531	10.83
333.742	11.77
333.953	12.66
334.165	12.31
334.376	13.54
334.587	14.35
334.799	14.68
335.01	15.48
335.221	16
335.432	16.53
335.644	17.02
335.855	17.95
336.066	17.22
336.277	17.21
336.488	18.34
336.7	19.39
336.911	18.85
337.122	18.38
337.333	17.71
337.544	16.84
337.755	16.55
337.966	16.71
338.177	15.34
338.388	16.73
338.599	15.18
338.811	13.79
339.022	11.44
339.233	11.05
339.444	12.16
339.655	12.5
339.866	11.8
340.076	11.76
340.287	11.23
340.498	11.21
340.709	11.45
340.92	14.81
341.131	13.94
341.342	14.91
341.553	15.02
341.764	14.76
341.975	15.11
342.185	16.72
342.396	17.73
342.607	19.26
342.818	18.97
343.029	17.82
343.239	16.65
343.45	18.53
343.661	19.78
343.872	19.68
344.082	18.85
344.293	19.42
344.504	18.43
344.714	17.46
344.925	16.39
345.136	16.84
345.346	16.98
345.557	16.5
345.768	16.03
345.978	16.39
346.189	15.54
346.399	15.43
346.61	14.67
346.821	15.24
347.031	15.06
347.242	14.94
347.452	14.64
347.663	14.8
347.873	15.17
348.084	14.72
348.294	13.53
348.504	13.67
348.715	15.02
348.925	15
349.136	13.9
349.346	13.9
349.557	15.26
349.767	15.59
349.977	14.48
350.188	14.48
350.398	14.68
350.608	14.84
350.819	14.61
351.029	14.13
351.239	14.86
351.449	15.62
351.66	15.02
351.87	13.98
352.08	14.51
352.29	17
352.501	16.66
352.711	17.53
352.921	18.45
353.131	19.57
353.341	18.02
353.552	17.17
353.762	18.16
353.972	19.31
354.182	19.17
354.392	18.45
354.602	18.12
354.812	18.99
355.022	18.19
355.232	16.62
355.442	16.27
355.652	18.14
355.862	20.25
356.072	19.75
356.282	18.81
356.492	18.57
356.702	18.54
356.912	17.63
357.122	15.54
357.332	14.76
357.542	13.9
357.752	14.65
357.962	14.66
358.171	11.98
358.381	12.49
358.591	12.98
358.801	12.44
359.011	13.34
359.221	14.09
359.43	15.7
359.64	15.36
359.85	16.52
360.06	15.89
360.269	15.82
360.479	16.23
360.689	15.32
360.899	14.84
361.108	14.89
361.318	13.98
361.528	12.81
361.737	12.11
361.947	12.35
362.156	12.34
362.366	11.94
362.576	11.25
362.785	11.73
362.995	11.99
363.204	12.17
363.414	12.96
363.623	13.64
363.833	14.29
364.042	14.31
364.252	14.63
364.461	14.67
364.671	14.48
364.88	14.29
365.09	14.8
365.299	13.94
365.509	12.92
365.718	11.73
365.927	11.27
366.137	11.06
366.346	10.67
366.555	10.55
366.765	10.22
366.974	11.52
367.183	11.01
367.393	9.53
367.602	9.66
367.811	10.55
368.021	11.21
368.23	10.57
368.439	10.58
368.648	11.39
368.857	11.94
369.067	12.28
369.276	11.82
369.485	12.67
369.694	13.08
369.903	13.18
370.112	13.65
370.321	13.52
370.531	13.62
370.74	14.13
370.949	13.27
371.158	13.13
371.367	12.91
371.576	12.67
371.785	12.62
371.994	12.62
372.203	13.13
372.412	12.68
372.621	12.53
372.83	11.9
373.039	11.36
373.248	10.98
373.457	10.33
373.666	10.64
373.874	10.4
374.083	10.53
374.292	10.86
374.501	9.95
374.71	9.95
374.919	10.03
375.128	10.47
375.336	10.04
375.545	11.02
375.754	11.37
375.963	10.27
376.171	9.96
376.38	10.63
376.589	10.46
376.798	10.43
377.006	9.84
377.215	9.82
377.424	10.36
377.632	10.87
377.841	11.15
378.05	11.32
378.258	12.58
378.467	12.83
378.675	12.1
378.884	11.7
379.093	12.33
379.301	12.81
379.51	12.94
379.718	12.75
379.927	12.23
380.135	12.22
380.344	12.41
380.552	11.68
380.761	11.84
380.969	11.56
381.177	11.64
381.386	11.5
381.594	11.43
381.803	11.19
382.011	11.17
382.219	11.5
382.428	11.31
382.636	10.7
382.845	10.93
383.053	10.25
383.261	10.42
383.469	10.44
383.678	10.67
383.886	10.83
384.094	10.57
384.302	10.55
384.511	10.38
384.719	10.37
384.927	10.54
385.135	9.94
385.343	9.8
385.552	9.68
385.76	9.72
385.968	9.16
386.176	9.47
386.384	9.17
386.592	8.51
386.8	8.49
387.008	8.15
387.216	8.23
387.424	8.66
387.633	9.26
387.841	9.37
388.049	9.18
388.257	9.53
388.465	8.69
388.672	9.14
388.88	9.37
389.088	9.43
389.296	9.61
389.504	9.04
389.712	8.61
389.92	8.47
390.128	8.49
390.336	8.35
390.544	8.04
390.751	8.37
390.959	7.95
391.167	7.91
391.375	7.69
391.583	7.38
391.79	7.63
391.998	7.81
392.206	7.78
392.414	7.88
392.621	7.91
392.829	8.1
393.037	7.89
393.244	8.44
393.452	8.7
393.66	8.57
393.867	8.64
394.075	8.75
394.283	8.83
394.49	8.77
394.698	8.56
394.905	8.51
395.113	8.05
395.32	8.24
395.528	8.47
395.735	8.05
395.943	8.25
396.15	8.05
396.358	7.93
396.565	7.77
396.773	7.66
396.98	7.53
397.188	7.5
397.395	7.96
397.602	7.75
397.81	7.23
398.017	7.49
398.225	7.08
398.432	7.1
398.639	6.83
398.847	7.01
399.054	6.89
399.261	6.98
399.468	7.08
399.676	6.97
399.883	7.37
400.09	6.92
400.297	6.93
400.505	7.15
400.712	7.18
400.919	7.36
401.126	7.42
401.333	7.44
401.54	7.47
401.748	7.58
401.955	7.71
402.162	7.06
402.369	7.35
402.576	7.37
402.783	7.71
402.99	7.93
403.197	7.91
403.404	7.52
403.611	7.58
403.818	7.3
404.025	6.8
404.232	6.78
404.439	6.9
404.646	6.82
404.853	6.89
405.06	6.72
405.267	6.7
405.474	6.74
405.681	6.86
405.887	6.99
406.094	7.46
406.301	7.89
406.508	7.84
406.715	8.03
406.922	8.29
407.128	8.37
407.335	7.94
407.542	7.99
407.749	8.04
407.955	7.68
408.162	7.36
408.369	6.95
408.575	6.74
408.782	6.75
408.989	6.93
409.195	6.89
409.402	6.57
409.609	6.7
409.815	6.37
410.022	6.41
410.228	6.81
410.435	7.1
410.642	7.38
410.848	7.59
411.055	7.45
411.261	7.12
411.468	6.92
411.674	7.1
411.881	7.29
412.087	7.31
412.294	7.13
412.5	6.86
412.706	6.63
412.913	6.43
413.119	6.47
413.326	6.35
413.532	6.29
413.738	6.61
413.945	6.77
414.151	6.43
414.357	6.76
414.564	6.96
414.77	6.89
414.976	6.84
415.182	6.72
415.389	6.51
415.595	6.36
415.801	6.72
416.007	6.59
416.214	6.26
416.42	6.79
416.626	6.59
416.832	6.87
417.038	7.28
417.244	7.27
417.45	7.3
417.657	7.4
417.863	7.7
418.069	7.6
418.275	7.89
418.481	7.78
418.687	7.6
418.893	7.48
419.099	7.03
419.305	6.87
419.511	7.02
419.717	6.99
419.923	7.01
420.129	6.86
420.335	6.81
420.541	6.62
420.746	6.74
420.952	6.6
421.158	6.66
421.364	6.58
421.57	6.63
421.776	6.56
421.982	6.7
422.187	6.66
422.393	6.59
422.599	6.4
422.805	6.43
423.01	6.51
423.216	6.55
423.422	6.55
423.628	6.73
423.833	6.69
424.039	6.55
424.245	6.48
424.45	6.41
424.656	6.78
424.862	6.91
425.067	6.76
425.273	6.59
425.478	6.62
425.684	6.5
425.889	6.52
426.095	6.57
426.301	6.58
426.506	6.42
426.712	6.34
426.917	6.1
427.123	6.19
427.328	6.01
427.533	6.27
427.739	6.55
427.944	6.66
428.15	6.65
428.355	6.48
428.561	6.68
428.766	6.8
428.971	7.15
429.177	7.29
429.382	7.25
429.587	7.55
429.793	7.35
429.998	7.15
430.203	7.22
430.408	7.08
430.614	7.06
430.819	6.97
431.024	7.2
431.229	7.01
431.434	6.79
431.64	6.65
431.845	6.67
432.05	6.76
432.255	6.85
432.46	6.73
432.665	6.91
432.87	7.05
433.076	7.1
433.281	7.05
433.486	7.18
433.691	7.11
433.896	7.3
434.101	7.39
434.306	7.21
434.511	7.04
434.716	7.23
434.921	7.14
435.126	7.1
435.331	7.08
435.535	6.88
435.74	6.63
435.945	6.81
436.15	6.58
436.355	6.3
436.56	6.39
436.765	6.29
436.97	6.14
437.174	6.04
437.379	6.01
437.584	6.05
437.789	6.01
437.993	6.16
438.198	6.05
438.403	5.96
438.608	5.83
438.812	5.91
439.017	6.09
439.222	6.15
439.426	5.99
439.631	6.14
439.836	6.23
440.04	6.23
440.245	6.16
440.45	6.11
440.654	6.24
440.859	6.31
441.063	6.24
441.268	6.13
441.472	6.19
441.677	6.35
441.881	6.16
442.086	5.9
442.29	6.01
442.495	6.08
442.699	6.09
442.904	6.13
443.108	6.36
443.312	6.24
443.517	6.38
443.721	6.37
443.925	6.31
444.13	6.55
444.334	6.71
444.538	6.58
444.743	6.51
444.947	6.6
445.151	6.52
445.356	6.4
445.56	6.51
445.764	6.39
445.968	6.28
446.173	6.35
446.377	6.29
446.581	6.41
446.785	6.46
446.989	6.5
447.193	6.48
447.398	6.49
447.602	6.6
447.806	6.56
448.01	6.6
448.214	6.6
448.418	6.59
448.622	6.33
448.826	6.14
449.03	6.15
449.234	6.04
449.438	6.05
449.642	6.19
449.846	6.07
450.05	6.14
450.254	6
450.458	6.04
450.662	5.94
450.866	6.01
451.069	5.9
451.273	6.03
451.477	5.78
451.681	5.63
451.885	5.52
452.089	5.51
452.292	5.64
452.496	5.57
452.7	5.63
452.904	5.78
453.107	5.95
453.311	6.1
453.515	5.8
453.719	6.15
453.922	6.14
454.126	5.98
454.33	6.05
454.533	6.03
454.737	6.2
454.94	6.3
455.144	6.25
455.348	6.24
455.551	6.25
455.755	6.69
455.958	6.62
456.162	6.62
456.365	6.82
456.569	6.77
456.772	6.63
456.976	6.72
457.179	6.37
457.383	6.43
457.586	6.29
457.79	6.2
457.993	5.83
458.196	5.65
458.4	5.62
458.603	5.49
458.807	5.37
459.01	5.4
459.213	5.39
459.417	5.53
459.62	5.57
459.823	5.66
460.026	5.76
460.23	5.73
460.433	5.86
460.636	5.9
460.839	6.04
461.042	6.08
461.246	6.16
461.449	6.03
461.652	5.91
461.855	5.73
462.058	5.64
462.261	5.69
462.464	5.6
462.668	5.63
462.871	5.73
463.074	5.47
463.277	5.4
463.48	5.35
463.683	5.56
463.886	5.73
464.089	6.08
464.292	5.94
464.495	5.8
464.698	6.23
464.901	6.19
465.104	6.05
465.306	6.15
465.509	6.29
465.712	6.3
465.915	6.05
466.118	6.24
466.321	6.01
466.524	6.16
466.726	6.05
466.929	5.89
467.132	5.73
467.335	5.81
467.538	5.79
467.74	5.89
467.943	5.83
468.146	6.14
468.348	5.91
468.551	6
468.754	6.14
468.956	6.08
469.159	6
469.362	5.93
469.564	5.98
469.767	6.04
469.969	6.07
470.172	6.09
470.375	5.94
470.577	5.87
470.78	5.68
470.982	5.57
471.185	5.62
471.387	5.65
471.59	5.9
471.792	5.7
471.995	5.68
472.197	5.54
472.399	5.43
472.602	5.42
472.804	5.39
473.007	5.73
473.209	5.82
473.411	5.93
473.614	6.09
473.816	6.15
474.018	6.32
474.22	6.22
474.423	6.37
474.625	6.58
474.827	6.74
475.03	6.82
475.232	6.58
475.434	6.48
475.636	6.46
475.838	6.51
476.04	6.48
476.243	6.36
476.445	6.59
476.647	6.39
476.849	6.23
477.051	6.02
477.253	5.97
477.455	6.16
477.657	6.12
477.859	6.1
478.061	5.72
478.263	5.56
478.465	5.55
478.667	5.65
478.869	5.75
479.071	5.7
479.273	5.82
479.475	6
479.677	5.72
479.879	5.93
480.081	5.94
480.283	6.25
480.485	6.53
480.686	6.69
480.888	6.53
481.09	6.46
481.292	6.51
481.494	6.38
481.695	6.26
481.897	6.3
482.099	6.14
482.301	6.17
482.502	6.08
482.704	6
482.906	5.99
483.107	6.05
483.309	5.99
483.511	5.94
483.712	5.92
483.914	5.96
484.115	5.93
484.317	5.96
484.519	5.96
484.72	5.93
484.922	5.86
485.123	5.77
485.325	5.74
485.526	5.77
485.728	5.81
485.929	5.79
486.131	5.82
486.332	5.88
486.534	5.87
486.735	5.83
486.936	5.9
487.138	5.98
487.339	6.05
487.541	6.01
487.742	5.99
487.943	6.02
488.144	6.08
488.346	6.07
488.547	6.1
488.748	6.12
488.95	6.11
489.151	6.13
489.352	6.15
489.553	6.2
489.755	6.16
489.956	6.13
490.157	6.04
490.358	6.09
490.559	6.05
490.76	6.14
490.961	6.15
491.163	6.05
491.364	6.04
491.565	6.02
491.766	5.95
491.967	5.98
492.168	6
492.369	6.11
492.57	6.06
492.771	6.06
492.972	5.9
493.173	5.84
493.374	6.07
493.575	5.94
493.776	5.87
493.976	5.94
494.177	6
494.378	6.07
494.579	6.14
494.78	6.17
494.981	6.01
495.182	6
495.382	6.01
495.583	5.83
495.784	5.92
495.985	5.92
496.185	5.99
496.386	5.95
496.587	6.11
496.788	5.91
496.988	5.97
497.189	6.1
497.39	6.06
497.59	6.15
497.791	6.11
497.992	6.33
498.192	6.32
498.393	6.07
498.593	5.93
498.794	5.73
498.994	5.63
499.195	5.76
499.395	5.76
499.596	5.73
499.796	5.66
499.997	5.69
500.197	5.67
500.398	5.74
500.598	5.82
500.799	5.99
500.999	6
501.199	6.37
501.4	6.13
501.6	6.05
501.801	6.11
502.001	6.15
502.201	6.06
502.402	5.88
502.602	5.8
502.802	5.66
503.002	5.56
503.203	5.59
503.403	5.2
503.603	5.35
503.803	5.38
504.003	5.45
504.204	5.32
504.404	5.63
504.604	5.56
504.804	5.73
505.004	6.13
505.204	6.31
505.404	6.34
505.604	6.45
505.804	6.38
506.005	6.5
506.205	6.54
506.405	6.57
506.605	6.51
506.805	6.76
507.005	6.5
507.204	6.21
507.404	6.19
507.604	6.2
507.804	6.12
508.004	6.09
508.204	6.01
508.404	6.05
508.604	5.99
508.804	6.05
509.003	5.92
509.203	6.1
509.403	6.16
509.603	6.13
509.803	6.25
510.002	6.28
510.202	6.4
510.402	6.44
510.602	6.52
510.801	6.67
511.001	6.54
511.201	6.52
511.4	6.57
511.6	6.7
511.8	6.55
511.999	6.4
512.199	6.6
512.398	6.5
512.598	6.35
512.797	6.15
512.997	6.15
513.197	6.24
513.396	6.19
513.596	6.15
513.795	6.12
513.994	6.08
514.194	6.26
514.393	6.22
514.593	6.36
514.792	6.59
514.992	6.68
515.191	6.52
515.39	6.47
515.59	6.5
515.789	6.63
515.988	6.56
516.188	6.68
516.387	6.74
516.586	6.55
516.786	6.53
516.985	6.55
517.184	6.56
517.383	6.76
517.582	6.69
517.782	6.76
517.981	6.68
518.18	6.77
518.379	6.7
518.578	6.62
518.777	6.7
518.976	6.66
519.176	6.62
519.375	6.73
519.574	6.62
519.773	6.61
519.972	6.58
520.171	6.63
520.37	6.54
520.569	6.6
520.768	6.67
520.967	6.7
521.166	6.91
521.365	6.99
521.564	6.96
521.762	7.08
521.961	7.26
522.16	7.29
522.359	7.25
522.558	7.4
522.757	7.47
522.956	7.52
523.154	7.58
523.353	7.5
523.552	7.57
523.751	7.46
523.949	7.56
524.148	7.38
524.347	7.36
524.546	7.31
524.744	7.34
524.943	7.47
525.142	7.43
525.34	7.26
525.539	7.16
525.737	7.23
525.936	7.29
526.135	7.21
526.333	7.25
526.532	7.42
526.73	7.43
526.929	7.36
527.127	7.35
527.326	7.23
527.524	7.35
527.723	7.36
527.921	7.27
528.12	7.23
528.318	7.22
528.516	7.31
528.715	7.24
528.913	7.29
529.112	7.34
529.31	7.35
529.508	7.47
529.707	7.45
529.905	7.47
530.103	7.47
530.301	7.54
530.5	7.64
530.698	7.61
530.896	7.65
531.094	7.64
531.293	7.58
531.491	7.69
531.689	7.63
531.887	7.68
532.085	7.68
532.283	7.77
532.481	7.8
532.68	7.82
532.878	7.82
533.076	7.8
533.274	7.88
533.472	8.04
533.67	7.96
533.868	8.03
534.066	8.11
534.264	8.13
534.462	8.18
534.66	8.06
534.858	8.1
535.056	8.03
535.253	8.13
535.451	8.15
535.649	8.15
535.847	8.15
536.045	8.01
536.243	8.03
536.441	8.1
536.638	8.1
536.836	8.33
537.034	8.36
537.232	8.57
537.43	8.65
537.627	8.64
537.825	8.55
538.023	8.49
538.22	8.54
538.418	8.64
538.616	8.64
538.813	8.45
539.011	8.47
539.209	8.44
539.406	8.42
539.604	8.47
539.801	8.63
539.999	8.71
540.196	8.73
540.394	8.86
540.591	8.94
540.789	9.01
540.986	9.22
541.184	9.27
541.381	9.31
541.579	9.31
541.776	9.25
541.974	9.26
542.171	9.26
542.368	9.41
542.566	9.51
542.763	9.54
542.96	9.48
543.158	9.4
543.355	9.34
543.552	9.33
543.75	9.41
543.947	9.44
544.144	9.31
544.341	9.36
544.539	9.26
544.736	9.3
544.933	9.21
545.13	9.44
545.327	9.7
545.524	9.81
545.722	9.95
545.919	10.07
546.116	10.32
546.313	10.57
546.51	10.61
546.707	10.73
546.904	10.67
547.101	10.58
547.298	10.64
547.495	10.56
547.692	10.55
547.889	10.54
548.086	10.51
548.283	10.34
548.48	10.33
548.677	10.45
548.874	10.47
549.07	10.78
549.267	11.2
549.464	10.86
549.661	10.99
549.858	10.91
550.055	10.9
550.251	11.15
550.448	11.13
550.645	11.18
550.842	11.35
551.038	11.71
551.235	11.42
551.432	11.04
551.628	11.33
551.825	11.51
552.022	11.82
552.218	12.05
552.415	11.98
552.612	12.17
552.808	12.44
553.005	12.16
553.201	11.92
553.398	12.14
553.594	12.58
553.791	12.81
553.987	12.64
554.184	12.62
554.38	12.55
554.577	12.67
554.773	12.94
554.97	12.77
555.166	13
555.362	13.35
555.559	13.25
555.755	13.17
555.952	13.36
556.148	13.44
556.344	13.76
556.541	13.8
556.737	13.87
556.933	13.51
557.129	13.49
557.326	13.41
557.522	13.4
557.718	13.6
557.914	13.8
558.11	13.68
558.307	13.71
558.503	13.77
558.699	13.84
558.895	13.89
559.091	14.29
559.287	14.83
559.483	15.22
559.679	15.24
559.876	15.2
560.072	15.1
560.268	15.3
560.464	15.56
560.66	15.38
560.856	15.59
561.052	15.31
561.247	15.21
561.443	15.05
561.639	15.17
561.835	14.91
562.031	15.27
562.227	15.61
562.423	15.54
562.619	15.67
562.815	15.87
563.01	15.96
563.206	16.27
563.402	16.33
563.598	16.52
563.793	16.72
563.989	17.29
564.185	17.31
564.381	17.36
564.576	17.73
564.772	17.78
564.968	17.99
565.163	18.03
565.359	18.36
565.555	18.63
565.75	18.63
565.946	18.59
566.141	18.55
566.337	18.58
566.532	18.63
566.728	18.54
566.923	18.79
567.119	18.87
567.314	18.88
567.51	18.87
567.705	18.69
567.901	18.86
568.096	19.14
568.292	19.28
568.487	19.46
568.682	19.42
568.878	19.69
569.073	19.52
569.268	19.54
569.464	19.94
569.659	19.94
569.854	20.43
570.05	20.37
570.245	20.36
570.44	20.48
570.635	20.12
570.831	20.39
571.026	20.29
571.221	20.44
571.416	20.64
571.611	20.49
571.806	20.72
572.002	20.65
572.197	20.68
572.392	20.5
572.587	20.32
572.782	20.64
572.977	20.61
573.172	20.74
573.367	20.92
573.562	20.77
573.757	20.77
573.952	20.66
574.147	20.63
574.342	20.79
574.537	21.04
574.732	21.21
574.927	21.37
575.121	21.59
575.316	21.87
575.511	21.9
575.706	22.19
575.901	22.34
576.096	22.69
576.29	22.59
576.485	22.65
576.68	22.74
576.875	22.91
577.069	22.77
577.264	22.61
577.459	22.5
577.654	22.42
577.848	22.1
578.043	22.21
578.238	22.13
578.432	22.48
578.627	22.67
578.821	22.64
579.016	22.7
579.21	22.79
579.405	22.86
579.6	22.7
579.794	22.63
579.989	22.96
580.183	22.81
580.378	22.61
580.572	22.72
580.766	22.54
580.961	22.83
581.155	22.71
581.35	22.94
581.544	23.16
581.738	23.02
581.933	23.05
582.127	22.91
582.321	23.26
582.516	23.43
582.71	23.65
582.904	23.58
583.099	23.21
583.293	23.55
583.487	23.71
583.681	23.64
583.875	23.92
584.07	24.3
584.264	24.55
584.458	24.52
584.652	24.65
584.846	24.36
585.04	24.65
585.234	24.69
585.428	24.68
585.623	24.38
585.817	24.44
586.011	24.49
586.205	24.61
586.399	24.8
586.593	24.95
586.787	25.04
586.981	25.12
587.174	24.94
587.368	25.12
587.562	25.15
587.756	25.3
587.95	25.45
588.144	25.46
588.338	25.08
588.532	24.83
588.725	24.84
588.919	25.08
589.113	25.18
589.307	25.33
589.501	25.09
589.694	25.13
589.888	25.05
590.082	24.67
590.275	24.77
590.469	25.11
590.663	25.5
590.856	25.47
591.05	25.43
591.244	25.52
591.437	25.82
591.631	26.28
591.824	26.13
592.018	26.32
592.212	26.66
592.405	26.74
592.599	26.92
592.792	26.68
592.986	26.41
593.179	26.16
593.372	26.29
593.566	25.83
593.759	26.08
593.953	26.4
594.146	26.69
594.339	26.77
594.533	26.92
594.726	26.72
594.92	26.73
595.113	26.9
595.306	27.37
595.499	27.47
595.693	27.71
595.886	27.29
596.079	27.14
596.272	26.93
596.466	26.95
596.659	27
596.852	27.07
597.045	27.24
597.238	27.16
597.431	26.96
597.624	27.13
597.818	27.1
598.011	27.33
598.204	27.38
598.397	27.49
598.59	27.4
598.783	27.29
598.976	27.1
599.169	27.08
599.362	27.39
599.555	27.22
599.748	26.93
599.941	27.04
600.134	26.96
600.326	26.96
600.519	26.85
600.712	27.2
600.905	27.13
601.098	27.75
601.291	27.53
601.483	27.49
601.676	27.66
601.869	27.73
602.062	27.83
602.255	28.04
602.447	28.02
602.64	28.26
602.833	28.25
603.025	28.45
603.218	28.16
603.411	28.44
603.603	28.6
603.796	28.5
603.989	28.44
604.181	28.48
604.374	28.44
604.566	28.44
604.759	28.55
604.951	28.42
605.144	28.48
605.336	28.56
605.529	28.39
605.721	28.35
605.914	28.55
606.106	28.62
606.299	28.6
606.491	28.64
606.683	28.82
606.876	28.65
607.068	28.5
607.26	28.34
607.453	28.24
607.645	28.21
607.837	28.34
608.03	28.03
608.222	28.37
608.414	28.39
608.606	28.4
608.799	27.95
608.991	28
609.183	28.05
609.375	27.93
609.567	27.91
609.759	27.99
609.952	27.76
610.144	27.81
610.336	27.57
610.528	27.35
610.72	27.49
610.912	27.9
611.104	27.78
611.296	27.99
611.488	28.19
611.68	28.13
611.872	28.09
612.064	28.03
612.256	28.1
612.448	28.21
612.64	28.12
612.832	27.9
613.023	27.94
613.215	27.86
613.407	27.79
613.599	27.61
613.791	27.87
613.983	27.55
614.174	28.05
614.366	28.13
614.558	28.05
614.75	28.26
614.941	28.54
615.133	28.78
615.325	29.06
615.516	29.21
615.708	29.28
615.9	29.46
616.091	29.57
616.283	29.42
616.475	29.29
616.666	28.95
616.858	29.37
617.049	29.14
617.241	28.88
617.432	28.95
617.624	28.7
617.815	28.96
618.007	28.37
618.198	28.91
618.39	28.73
618.581	28.82
618.773	29.07
618.964	28.83
619.155	28.78
619.347	28.73
619.538	28.43
619.729	28.69
619.921	28.66
620.112	29.02
620.303	28.72
620.494	28.84
620.686	28.9
620.877	29.23
621.068	29.3
621.259	29.03
621.451	29.08
621.642	29.12
621.833	29.01
622.024	28.88
622.215	29.15
622.406	29.34
622.597	29.37
622.788	29.37
622.98	29.34
623.171	29.39
623.362	29.7
623.553	29.93
623.744	30.15
623.935	30.29
624.126	30.53
624.317	30.4
624.508	30.2
624.698	30.44
624.889	30.67
625.08	30.43
625.271	30.5
625.462	30.31
625.653	30.28
625.844	30.37
626.034	30.17
626.225	29.97
626.416	30.07
626.607	30.31
626.798	30.27
626.988	29.95
627.179	30
627.37	29.93
627.56	30.2
627.751	29.9
627.942	30.01
628.132	30.54
628.323	30.81
628.514	30.83
628.704	30.88
628.895	30.66
629.085	30.67
629.276	30.69
629.466	30.99
629.657	30.91
629.847	30.9
630.038	30.49
630.228	30.44
630.419	30.22
630.609	30.06
630.8	30.12
630.99	30.38
631.181	30.83
631.371	30.86
631.561	30.32
631.752	30.13
631.942	30.33
632.132	30.49
632.323	30.16
632.513	30.3
632.703	30.17
632.893	29.95
633.084	29.34
633.274	29.05
633.464	29.18
633.654	29.64
633.844	29.8
634.034	30.09
634.225	30.37
634.415	30.9
634.605	31.19
634.795	31.19
634.985	31.35
635.175	31.81
635.365	31.88
635.555	31.65
635.745	31.7
635.935	31.66
636.125	31.48
636.315	31.37
636.505	30.75
636.695	30.37
636.885	30.45
637.075	30.65
637.265	30.81
637.455	30.85
637.644	30.93
637.834	31.12
638.024	31.15
638.214	31.14
638.404	30.87
638.593	30.88
638.783	30.72
638.973	30.85
639.163	30.36
639.352	30.28
639.542	30.43
639.732	30.76
639.921	30.37
640.111	30.32
640.301	30.26
640.49	30.49
640.68	30.8
640.87	30.85
641.059	30.98
641.249	31.66
641.438	31.76
641.628	31.52
641.817	31.37
642.007	31.6
642.196	31.6
642.386	31.55
642.575	32.1
642.764	31.54
642.954	31.66
643.143	31.3
643.333	30.51
643.522	30.25
643.711	30.47
643.901	30.09
644.09	29.79
644.279	29.62
644.469	29.93
644.658	29.54
644.847	29.91
645.036	30.01
645.226	30.12
645.415	30.31
645.604	30.77
645.793	31.09
645.982	31.22
646.171	30.91
646.361	31.14
646.55	31
646.739	31.16
646.928	31.58
647.117	31.44
647.306	31.38
647.495	31.61
647.684	31.29
647.873	31.32
648.062	31.89
648.251	32.54
648.44	32.88
648.629	33.36
648.818	33.52
649.007	33.25
649.196	33.48
649.384	33.33
649.573	33.33
649.762	33.26
649.951	33.27
650.14	33.19
650.328	33.1
650.517	33.27
650.706	32.91
650.895	32.86
651.083	32.65
651.272	32.79
651.461	32.91
651.65	32.79
651.838	33.17
652.027	33.01
652.216	32.58
652.404	32.26
652.593	31.82
652.781	31.55
652.97	31.17
653.158	31.11
653.347	30.74
653.535	30.8
653.724	30.98
653.912	30.97
654.101	30.95
654.289	31.15
654.478	31.72
654.666	31.78
654.855	32.05
655.043	31.88
655.231	32.35
655.42	32.36
655.608	33.01
655.796	33.08
655.985	32.94
656.173	32.97
656.361	32.8
656.55	31.88
656.738	31.93
656.926	31.63
657.114	31.25
657.302	31.09
657.491	31.66
657.679	31.28
657.867	31.27
658.055	31.58
658.243	31.66
658.431	32.22
658.619	32.49
658.807	32.63
658.996	32.98
659.184	33.48
659.372	33.19
659.56	33.14
659.748	33.28
659.936	33.52
660.124	33.58
660.311	33.34
660.499	32.96
660.687	33.23
660.875	33.16
661.063	33.3
661.251	33.33
661.439	33.35
661.627	32.83
661.814	32.59
662.002	32.64
662.19	32.16
662.378	32.45
662.565	32.55
662.753	32.61
662.941	32.96
663.129	32.96
663.316	33.16
663.504	33.47
663.692	33.72
663.879	34.06
664.067	33.68
664.254	33.6
664.442	33.01
664.63	32.78
664.817	32.8
665.005	32.1
665.192	31.87
665.38	31.7
665.567	31.44
665.755	31.53
665.942	31.42
666.13	31.29
666.317	31.5
666.504	32.03
666.692	32.13
666.879	32.21
667.067	32.17
667.254	32.32
667.441	32.59
667.629	33.33
667.816	33.24
668.003	32.97
668.19	32.94
668.378	33.07
668.565	32.83
668.752	32.96
668.939	32.49
669.127	32.59
669.314	32.66
669.501	32.08
669.688	31.47
669.875	31.8
670.062	31.63
670.249	31.96
670.436	32.44
670.623	32.59
670.81	32.53
670.997	33.24
671.184	33.62
671.371	32.95
671.558	33.61
671.745	33.77
671.932	33.84
672.119	34.54
672.306	34.63
672.493	33.87
672.68	33.99
672.867	34.29
673.054	33.55
673.24	33.91
673.427	34.56
673.614	33.65
673.801	33.74
673.988	33.67
674.174	33.58
674.361	33.6
674.548	33.48
674.734	33.2
674.921	32.8
675.108	32.99
675.294	32.48
675.481	32.1
675.668	32.89
675.854	32.87
676.041	32.85
676.227	32.3
676.414	31.86
676.601	31.77
676.787	32.09
676.974	32.3
677.16	32.57
677.347	32.83
677.533	33.3
677.719	33.27
677.906	32.97
678.092	32.34
678.279	32.5
678.465	32.66
678.651	32.98
678.838	33.29
679.024	33.57
679.21	33.66
679.397	34.21
679.583	33.81
679.769	33.5
679.955	34.22
680.142	34.58
680.328	34.69
680.514	35.02
680.7	35.62
680.886	35.53
681.073	35.26
681.259	35.04
681.445	34.16
681.631	34.12
681.817	34.55
682.003	33.64
682.189	33.43
682.375	33.4
682.561	32.45
682.747	31.25
682.933	31.06
683.119	31.47
683.305	31.7
683.491	32.37
683.677	32.99
683.863	32.89
684.049	33.8
684.235	34.38
684.42	33.93
684.606	34.99
684.792	36.16
684.978	36.46
685.164	35.86
685.349	35.72
685.535	35.66
685.721	35.2
685.907	35.02
686.092	34.59
686.278	34.44
686.464	35.07
686.649	34.64
686.835	33.25
687.021	33.06
687.206	33.91
687.392	33.9
687.577	33.19
687.763	33.42
687.948	32.86
688.134	32.75
688.319	32.5
688.505	32.39
688.69	32.4
688.876	33.78
689.061	33.8
689.247	33.21
689.432	33.01
689.618	33.67
689.803	33.51
689.988	34
690.174	33.61
690.359	33.81
690.544	34.14
690.73	34.87
690.915	33.74
691.1	33.91
691.285	34.03
691.471	34
691.656	33.62
691.841	33.65
692.026	33.64
692.211	34.28
692.396	33.77
692.582	34.05
692.767	33.07
692.952	34.01
693.137	33.35
693.322	33.48
693.507	34.02
693.692	34.39
693.877	33.76
694.062	34.15
694.247	33.83
694.432	33.94
694.617	33.49
694.802	34.24
694.987	33.67
695.172	33.88
695.357	33.65
695.541	33.36
695.726	33.46
695.911	33.98
696.096	33.88
696.281	34
696.466	34.79
696.65	34.89
696.835	34.75
697.02	34.55
697.204	35.11
697.389	35.31
697.574	36.26
697.759	35.34
697.943	35.43
698.128	35.2
698.312	35.27
698.497	34.58
698.682	34.44
698.866	34.34
699.051	34.68
699.235	34.06
699.42	33.83
699.604	32.92
699.789	33.22
699.973	33.14
700.158	33.32
700.342	33.61
700.527	33.9
700.711	34.56
700.895	34.86
701.08	35
701.264	35.45
701.448	35.15
701.633	35.97
701.817	36.72
702.001	36.77
702.186	36.95
702.37	36.71
702.554	37.13
702.738	36.76
702.923	36.7
703.107	36.25
703.291	36.83
703.475	36.86
703.659	36.13
703.843	35.92
704.027	35.66
704.212	34.9
704.396	34.02
704.58	33.38
704.764	32.5
704.948	33.19
705.132	33.43
705.316	33.19
705.5	32.98
705.684	33.28
705.868	33.06
706.052	34.1
706.235	34.82
706.419	35.31
706.603	35.9
706.787	35.7
706.971	34.07
707.155	34.2
707.339	34.21
707.522	34.5
707.706	34.97
707.89	35.51
708.074	34.61
708.257	34.4
708.441	35.25
708.625	34.68
708.808	35.67
708.992	35.97
709.176	35.73
709.359	34.3
709.543	33.68
709.727	32.86
709.91	32.91
710.094	33.27
710.277	33.4
710.461	32.45
710.644	32.6
710.828	32.19
711.011	33.04
711.195	33.67
711.378	33.87
711.562	34.12
711.745	33.56
711.928	32.73
712.112	32.89
712.295	32.57
712.478	32.96
712.662	32.34
712.845	32.36
713.028	31.85
713.212	30.89
713.395	31.19
713.578	31.78
713.761	32.72
713.945	33.46
714.128	33.53
714.311	33.43
714.494	34.19
714.677	35.06
714.86	35.02
715.043	35.71
715.227	36.41
715.41	37.33
715.593	37.45
715.776	37.31
715.959	37.05
716.142	36.07
716.325	36.87
716.508	35.69
716.691	35.22
716.874	36.42
717.057	36.02
717.239	35.98
717.422	35.08
717.605	35.34
717.788	35.53
717.971	35.48
718.154	36.48
718.337	36.18
718.519	36.52
718.702	37.82
718.885	36.84
719.068	35.99
719.25	35.15
719.433	36.56
719.616	35.81
719.798	35.13
719.981	35.19
720.164	34.15
720.346	35.01
720.529	34.19
720.712	33.07
720.894	33.89
721.077	33.92
721.259	34.62
721.442	34.34
721.624	33.98
721.807	34.01
721.989	33.04
722.172	34.31
722.354	33.25
722.537	34.09
722.719	34.38
722.901	33.58
723.084	34.37
723.266	34.56
723.448	34.14
723.631	35.45
723.813	36.49
723.995	37.32
724.178	38.35
724.36	37.89
724.542	37.85
724.724	39.01
724.907	38.28
725.089	38.81
725.271	38.65
725.453	38.87
725.635	38.43
725.817	37.58
725.999	37.65
726.181	35.1
726.364	35.36
726.546	35.79
726.728	34.42
726.91	34.22
727.092	33.28
727.274	33.29
727.456	31.87
727.638	32.42
727.819	32.83
728.001	33.13
728.183	33.53
728.365	33.75
728.547	34.31
728.729	34.36
728.911	34.54
729.093	34.42
729.274	33.97
729.456	35.31
729.638	35.4
729.82	35.5
730.001	35.27
730.183	35.75
730.365	35.8
730.546	35.24
730.728	35.14
730.91	35.58
731.091	35.48
731.273	36.14
731.455	35.78
731.636	35.14
731.818	34.98
731.999	35.46
732.181	34.53
732.362	33.38
732.544	33.78
732.725	33.32
732.907	33.09
733.088	33.96
733.27	33.79
733.451	34.35
733.633	33.76
733.814	33.82
733.995	33.16
734.177	33.56
734.358	34.91
734.539	34.73
734.721	34.13
734.902	34.36
735.083	33.35
735.264	33.5
735.446	32.03
735.627	32.23
735.808	31.79
735.989	32.72
736.17	33.1
736.351	31.54
736.533	29.92
736.714	31.57
736.895	31.18
737.076	30.43
737.257	29.29
737.438	30.33
737.619	29.62
737.8	30.06
737.981	30.66
738.162	31.1
738.343	32.78
738.524	34.41
738.705	33.59
738.886	34.15
739.067	35.9
739.247	36.31
739.428	34.54
739.609	34.87
739.79	34.57
739.971	33.2
740.151	32.69
740.332	31.26
740.513	29.99
740.694	30.8
740.874	30.02
741.055	29.59
741.236	29.41
741.417	31.26
741.597	32.41
741.778	32.4
741.958	32.08
742.139	32.32
742.32	32.61
742.5	33.18
742.681	33.02
742.861	32.93
743.042	33.57
743.222	34.16
743.403	35.21
743.583	35.12
743.764	36.24
743.944	37.35
744.124	37.5
744.305	38.44
744.485	39.85
744.666	39.87
744.846	39.65
745.026	38.65
745.207	37.36
745.387	36.17
745.567	35.69
745.747	34.07
745.928	32.89
746.108	34.37
746.288	34.29
746.468	34.28
746.648	34.16
746.829	35.51
747.009	36.29
747.189	36.49
747.369	35.46
747.549	36.38
747.729	36.71
747.909	36.9
748.089	34.55
748.269	33.76
748.449	32.34
748.629	31.78
748.809	31.26
748.989	31.73
749.169	32.75
749.349	34.04
749.529	33.84
749.709	34.24
749.889	34.26
750.068	34.48
750.248	36.12
750.428	37.78
750.608	38.1
750.788	38.4
750.967	36.61
751.147	37.44
751.327	37.25
751.507	36.65
751.686	36.15
751.866	36.8
752.046	37.56
752.225	36.12
752.405	35.28
752.585	35.51
752.764	36.03
752.944	36.91
753.123	36.16
753.303	35.4
753.482	36.05
753.662	36.26
753.841	35.78
754.021	36.34
754.2	36.68
754.38	36.84
754.559	35.72
754.739	34.12
754.918	32.25
755.097	33.2
755.277	34.68
755.456	35.4
755.635	35.37
755.815	34.57
755.994	34.49
756.173	34.4
756.352	34.51
756.532	34.93
756.711	36.35
756.89	38.51
757.069	36.19
757.248	34.87
757.427	34.34
757.607	33.53
757.786	34.4
757.965	34.9
758.144	35.12
758.323	33.91
758.502	34.51
758.681	34.05
758.86	33.61
759.039	34.05
759.218	35.1
759.397	33.77
759.576	34.89
759.755	35.08
759.934	34.18
760.113	33.61
760.291	34.51
760.47	34.53
760.649	35.06
760.828	34.3
761.007	35.8
761.186	35.4
761.364	35.64
761.543	35.93
761.722	34.89
761.901	35.03
762.079	36.11
762.258	36.3
762.437	35.94
762.615	35.68
762.794	36.48
762.972	36.61
763.151	36.34
763.33	37.2
763.508	37.14
763.687	37.9
763.865	37.72
764.044	37.44
764.222	37.52
764.401	37.76
764.579	38.48
764.758	39.01
764.936	38.67
765.114	38.83
765.293	38.26
765.471	39.05
765.65	40.75
765.828	40.38
766.006	40.06
766.184	39.18
766.363	39.44
766.541	38.47
766.719	37.78
766.898	37.33
767.076	37.42
767.254	37.81
767.432	38.2
767.61	36.06
767.788	37.21
767.967	37.28
768.145	38.15
768.323	37.49
768.501	37.75
768.679	38.06
768.857	37.59
769.035	37.23
769.213	37.52
769.391	35.58
769.569	34.97
769.747	34.96
769.925	36.4
770.103	36.98
770.281	36.81
770.459	36.58
770.636	38.02
770.814	38.07
770.992	38.82
771.17	39.6
771.348	38.62
771.525	38.87
771.703	37.62
771.881	36.52
772.059	36.07
772.236	38.23
772.414	38.27
772.592	36.54
772.769	38.3
772.947	37.5
773.125	36.77
773.302	39.4
773.48	40.04
773.657	41.32
773.835	43.04
774.013	44.61
774.19	42.66
774.368	44.06
774.545	46.06
774.723	45.8
774.9	45.32
775.077	45.14
775.255	42.5
775.432	42.86
775.61	42.67
775.787	43.27
775.964	40.57
776.142	41.38
776.319	39.23
776.496	40.09
776.674	41.06
776.851	43.51
777.028	40.99
777.205	42.48
777.382	43.05
777.56	42.57
777.737	39.19
777.914	38.07
778.091	36.31
778.268	35.88
778.445	32.67
778.622	29.65
778.8	30.1
778.977	32.42
779.154	34.09
779.331	31.79
779.508	33.15
779.685	35.38
779.862	38.96
780.038	39.48
780.215	38.57
780.392	39.57
780.569	43.27
780.746	39.14
780.923	39.87
781.1	35.94
781.277	38.09
781.453	34.03
781.63	33.85
781.807	34.09
781.984	36.06
782.16	37.73
782.337	36.08
782.514	33.04
782.691	36.4
782.867	33.21
783.044	38.14
783.221	39.22
783.397	42.2
783.574	40.91
783.75	38.13
783.927	36.45
784.103	35.73
784.28	35.9
784.456	36.41
784.633	38.72
784.809	39.31
784.986	35.6
785.162	33.32
785.339	32.6
785.515	35.46
785.692	34.84
785.868	38.54
786.044	39.2
786.221	41.11
786.397	43.1
786.573	38.84
786.749	42.77
786.926	39.31
787.102	37.77
787.278	37.94
787.454	36.08
787.631	35.63
787.807	35.32
787.983	36.79
788.159	38.11
788.335	36.19
788.511	37.85
788.687	36.02
788.863	39.76
789.039	41.17
789.216	40.64
789.392	43.59
789.568	44.18
789.744	42.61
789.919	41.73
790.095	38.98
790.271	40.08
790.447	38.78
790.623	37.29
790.799	39.53
790.975	38.86
791.151	41.38
791.327	40.46
791.502	41.67
791.678	41.55
791.854	42.77
792.03	43.67
792.205	41.63
792.381	39.26
792.557	38.51
792.733	36.27
792.908	36.87
793.084	35.46
793.259	33.99
793.435	33.95
793.611	33.18
793.786	31.64
793.962	30.22
794.137	31.14
794.313	36.26
794.488	40.08
794.664	41.72
794.839	39.39
795.015	36.57
795.19	33.78
795.366	33.73
795.541	31.81
795.716	29.93
795.892	30.27
796.067	29.89
796.242	30.41
796.418	27.51
796.593	19.84
796.768	22.81
796.944	26.11
797.119	28.51
797.294	30.45
797.469	34.97
797.644	37.7
797.82	37.1
797.995	35.35
798.17	34.33
798.345	36.78
798.52	41.34
798.695	38.3
798.87	38.34
799.045	38.5
799.22	40.24
799.395	37.63
799.57	38.74
799.745	40.51
799.92	41.74
800.095	40.36
800.27	37.1
800.445	37.1
800.62	39.17
800.795	36.58
800.97	37.41
801.145	34.17
801.319	38.21
801.494	37.05
801.669	34.93
801.844	36.24
802.018	37.99
802.193	39.88
802.368	40.95
802.543	46.09
802.717	45.37
802.892	45.89
803.067	43.15
803.241	42.7
803.416	37.31
803.59	39.33
803.765	39.57
803.94	38.03
804.114	38.52
804.289	39.94
804.463	36.37
804.638	41.09
804.812	39.62
804.986	39.75
805.161	38.29
805.335	43.72
805.51	45.43
805.684	45.33
805.858	49.78
806.033	48.26
806.207	46.94
806.381	46.28
806.556	42.26
806.73	39.75
806.904	38.23
807.078	38.07
807.253	36.08
807.427	32.88
807.601	35.24
807.775	27.47
807.949	26.44
808.123	25.92
808.298	25.13
808.472	27.03
808.646	28.07
808.82	30.37
808.994	28.36
809.168	31.34
809.342	31.3
809.516	32.22
809.69	38.74
809.864	42.51
810.038	48.18
810.212	42.85
810.385	39.42
810.559	41.25
810.733	46.31
810.907	42.95
811.081	44.8
811.255	45.7
811.428	42.95
811.602	33.91
811.776	37.82
811.95	29.83
812.123	38.87
812.297	40.71
812.471	42.84
812.644	39.91
812.818	48.18
812.992	47.8
813.165	47.37
813.339	51.4
813.512	56.7
813.686	51.5
813.86	49
814.033	43.56
814.207	44.95
814.38	41.5
814.554	41.07
814.727	40.62
814.9	39.79
815.074	36.04
815.247	32.82
815.421	31.66
815.594	34.27
815.767	39.59
815.941	40.19
816.114	43.73
816.287	40.77
816.46	35.92
816.634	34.39
816.807	34.49
816.98	38.95
817.153	39.35
817.327	41.44
817.5	38.94
817.673	38.3
817.846	39.86
818.019	37.2
818.192	37.6
818.365	42.2
818.538	42.48
818.711	38.26
818.884	36.97
819.057	34.3
819.23	28.04
819.403	32.1
819.576	31.33
819.749	31.92
819.922	33.11
820.095	34.48
820.268	36.59
820.441	36.55
820.614	38.38
820.786	39.45
820.959	40.18
821.132	39.04
821.305	39.24
821.477	39.38
821.65	38.09
821.823	37.95
821.996	37.63
822.168	37.27
822.341	36.46
822.514	36.1
822.686	36.33
822.859	36.33
823.031	37.03
823.204	35.83
823.376	35.55
823.549	35.22
823.722	34.83
823.894	35.17
824.067	34.32
824.239	34.75
824.411	35.21
824.584	35.71
824.756	34.6
824.929	34.55
825.101	36.55
825.273	38.02
825.446	39.99
825.618	39.64
825.79	39.05
825.963	40.88
826.135	40.1
826.307	40.26
826.479	38.39
826.652	39.06
826.824	39.68
826.996	39.58
827.168	37.54
827.34	36.95
827.512	38.77
827.684	39.16
827.856	36.26
828.029	38.05
828.201	37.85
828.373	38.94
828.545	41.93
828.717	41.82
828.889	39.35
829.061	41.33
829.232	40.46
829.404	38.43
829.576	36.62
829.748	38.63
829.92	37.84
830.092	37.06
830.264	36.82
830.436	32.01
830.607	32.15
830.779	31.06
830.951	31.13
831.123	28.85
831.294	27.41
831.466	31.4
831.638	31.95
831.809	31.75
831.981	33.72
832.153	29.84
832.324	28.47
832.496	27.49
832.667	26.79
832.839	26.43
833.011	29.69
833.182	32.96
833.354	32.43
833.525	34.87
833.697	32.72
833.868	33.78
834.039	38.21
834.211	38.55
834.382	38.89
834.554	41.25
834.725	38.35
834.896	39.79
835.068	37.48
835.239	38.88
835.41	40.08
835.581	42.57
835.753	37.88
835.924	36.87
836.095	38.84
836.266	38
836.438	39.48
836.609	43.51
836.78	43.52
836.951	49.06
837.122	47.01
837.293	44.38
837.464	39.61
837.635	42.93
837.806	35.17
837.977	39.67
838.148	43.15
838.319	41.53
838.49	39.86
838.661	40.46
838.832	35.57
839.003	36.89
839.174	33.53
839.345	38.25
839.516	36.78
839.687	41.94
839.857	35.73
840.028	28.78
840.199	33.41
840.37	41.48
840.54	42.22
840.711	43.92
840.882	46.09
841.053	47.97
841.223	54.45
841.394	61.28
841.564	60.68
841.735	58.58
841.906	59.12
842.076	48.62
842.247	42.02
842.417	47.3
842.588	42.58
842.758	44.77
842.929	53.76
843.099	46.53
843.27	33.93
843.44	41.75
843.611	43.74
843.781	40.66
843.951	55.87
844.122	49.08
844.292	43.18
844.462	52.37
844.633	51.51
844.803	38.67
844.973	37.43
845.144	56.22
845.314	45.4
845.484	41.35
845.654	56.15
845.824	39.17
845.995	45.14
846.165	13.64
846.335	-8.69
846.505	-43.05
846.675	-46.14
846.845	-52.52
847.015	-100.05
847.185	-105.62
847.355	-18.5
847.525	-14.59
847.695	-7.71
847.865	2.08
848.035	14.63
848.205	22.72
848.375	21.04
848.545	15.56
848.715	52.01
848.884	106.42
849.054	87.97
849.224	126.03
849.394	150.08
849.564	155.53
849.733	165.41
849.903	121.34
850.073	100.43
850.243	116.32
850.412	143.9
850.582	110.28
850.752	77.41
850.921	65.62
851.091	65.93
851.26	54.01
851.43	52.15
851.599	46.9
851.769	42.34
851.939	35.66
852.108	36.62
852.278	28.51
852.447	22.84
852.616	24.57
852.786	28.84
852.955	15.71
853.125	14.44
853.294	19.34
853.463	18.43
853.633	32.32
853.802	44.63
853.971	42.12
854.141	53.51
854.31	49.52
854.479	55.47
854.648	62.34
854.818	64.27
854.987	77.24
855.156	63.59
855.325	71.24
855.494	58.63
855.663	43.4
855.832	49.57
856.001	30.25
856.171	49.48
856.34	42.97
856.509	33.44
856.678	66.64
856.847	52.97
857.016	58.89
857.185	54.15
857.353	62.66
857.522	74.94
857.691	70.33
857.86	68.27
858.029	69.72
858.198	73.96
858.367	74.48
858.535	75.32
858.704	83.74
858.873	71.71
859.042	76.97
859.21	63.59
859.379	79.23
859.548	74.04
859.717	78.36
859.885	69.3
860.054	71.91
860.222	60.48
860.391	60.87
860.56	77.3
860.728	66.47
860.897	74.37
861.065	82.3
861.234	61.52
861.402	78.94
861.571	64.78
861.739	74.21
861.908	70
862.076	60.42
862.244	43.57
862.413	41.99
862.581	58.6
862.749	51.07
862.918	22.97
863.086	26.42
863.254	-6.31
863.423	-7.44
863.591	-33.45
863.759	-71.71
863.927	-54.56
864.096	-7.24
864.264	-19.84
864.432	-9.67
864.6	3.83
864.768	5.49
864.936	-4.44
865.104	18.5
865.272	25.52
865.44	36.85
865.608	29.2
865.776	31.67
865.944	23.09
866.112	18.13
866.28	32.45
866.448	33.23
866.616	53.62
866.784	55.52
866.952	58.67
867.12	54.91
867.288	41.26
867.455	47.17
867.623	42.77
867.791	35.58
867.959	45.88
868.127	20.14
868.294	13.21
868.462	-2.89
868.63	12.36
868.797	1.7
868.965	-51.17
869.133	-7.07
869.3	-28.21
869.468	22.5
869.636	22.82
869.803	10.87
869.971	36.99
870.138	72.93
870.306	69.06
870.473	28.43
870.641	50.86
870.808	55.6
870.975	53.46
871.143	51.93
871.31	22.65
871.478	14.98
871.645	1.12
871.812	-44.31
871.98	-34.63
872.147	-67.78
872.314	-0.81
872.482	-46.09
872.649	11.86
872.816	13.03
872.983	27.78
873.15	44.62
873.318	43.23
873.485	63.48
873.652	71.59
873.819	51.74
873.986	66.32
874.153	56.72
874.32	58.59
874.487	70.29
874.654	30.48
874.821	41.68
874.988	-38.29
875.155	55.21
875.322	466.31
875.489	-383.92
875.656	107.75
875.823	64.33
875.99	40.76
876.157	135.42
876.324	-11.31
876.49	78.53
876.657	56.17
876.824	34.68
876.991	36.77
877.157	40.37
877.324	34.99
877.491	13.65
877.658	22.32
877.824	37.5
877.991	7.46
878.157	-20.41
878.324	-66.02
878.491	-22.7
878.657	-59.72
878.824	-88.34
878.99	-83.1
879.157	-89.95
879.323	-65.03
879.49	-93.97
879.656	-137.56
879.823	-45.6
879.989	-86.79
880.156	-79.27
880.322	-243.26
880.488	-47.82
880.655	11.87
880.821	50.64
880.987	52.38
881.154	65.85
881.32	64.26
881.486	48.95
881.652	35.28
881.819	35.42
881.985	42.8
882.151	43.4
882.317	38.24
882.483	35.12
882.649	34.56
882.816	31.3
882.982	25.01
883.148	23.73
883.314	26.51
883.48	28.19
883.646	30.19
883.812	29.32
883.978	29.14
884.144	29.31
884.31	28.3
884.476	27.63
884.642	29.87
884.807	30.13
884.973	30.5
885.139	26.35
885.305	27.64
885.471	30.47
885.637	26.39
885.802	26.07
885.968	27.51
886.134	32.66
886.3	37.59
886.465	34.42
886.631	37.19
886.797	37.8
886.962	37.28
887.128	40.31
887.293	33.67
887.459	44.98
887.625	39.07
887.79	32.08
887.956	30.95
888.121	16.96
888.287	31.4
888.452	30.3
888.618	18.94
888.783	48.03
