Data from 2937853_Reflection_1.txt Node
Date: Wed Jul 15 15:49:29 EDT 2015
User: robert
Spectrometer: USB4E03001
Autoset integration time: false
Trigger mode: 4
Integration Time (sec): 1.000000E-1
Scans to average: 10
Electric dark correction enabled: true
Nonlinearity correction enabled: false
Boxcar width: 5
Stray light correction enabled: false
XAxis mode: Wavelengths
Stop averaging: false
Number of Pixels in Spectrum: 3648
>>>>>Begin Spectral Data<<<<<
177.566	14.45
177.785	40.76
178.005	-38.23
178.225	-192.4
178.445	-561.27
178.665	182.95
178.885	65.48
179.105	168.59
179.324	129.63
179.544	22.28
179.764	0.92
179.984	18.21
180.204	63.15
180.423	32.87
180.643	-21
180.863	-63.58
181.083	-222.29
181.302	-17.7
181.522	18.72
181.742	-142.02
181.961	29.22
182.181	71.4
182.401	32.08
182.621	-47.53
182.84	-286.6
183.06	1953.15
183.279	-836.44
183.499	271.71
183.719	11294.87
183.938	-2267.79
184.158	164.06
184.377	143.14
184.597	102.77
184.816	63.24
185.036	41.83
185.256	21.5
185.475	29.64
185.695	24.34
185.914	7.88
186.134	24.59
186.353	5.74
186.572	-45.09
186.792	-26.99
187.011	48.31
187.231	163.67
187.45	14.04
187.67	387.41
187.889	254.86
188.108	47.69
188.328	79.29
188.547	61.72
188.766	86.57
188.986	79
189.205	74.73
189.424	28.52
189.644	54.46
189.863	45.12
190.082	2.21
190.302	17.84
190.521	358.46
190.74	-14.84
190.959	-26.85
191.178	-70.31
191.398	12.2
191.617	43.55
191.836	82.74
192.055	-7.91
192.274	70.16
192.494	67.91
192.713	551.68
192.932	6471.79
193.151	242.87
193.37	147.14
193.589	104.18
193.808	367.87
194.027	-173.42
194.246	-180.96
194.465	727.62
194.685	513.12
194.904	1843.59
195.123	1407.98
195.342	-466.48
195.561	-693.13
195.78	-124.95
195.999	-66.56
196.218	-556.8
196.436	195.24
196.655	346.82
196.874	-42.57
197.093	703.38
197.312	202.53
197.531	195.14
197.75	1550.99
197.969	741.21
198.188	-588.6
198.407	-848.13
198.625	1563.74
198.844	392.92
199.063	561.89
199.282	158.14
199.501	-223.79
199.719	-65.67
199.938	12.24
200.157	-145.8
200.376	-120.22
200.594	-74.49
200.813	-146.25
201.032	-193.94
201.251	2269.23
201.469	-135.41
201.688	-620.24
201.907	-286.29
202.125	-405.64
202.344	278.4
202.563	369.23
202.781	80.94
203	92.41
203.218	78.57
203.437	60.33
203.656	76.5
203.874	82.1
204.093	88.28
204.311	93.95
204.53	76.56
204.748	70.2
204.967	49.36
205.185	42.34
205.404	-6.03
205.622	65.79
205.841	104.63
206.059	-297.8
206.278	63.93
206.496	438.46
206.715	152.92
206.933	318.68
207.151	726.3
207.37	-51.69
207.588	-72.55
207.806	-148.7
208.025	-175.47
208.243	-355.82
208.461	-339.72
208.68	-167.49
208.898	-135.83
209.116	-49
209.335	-124.6
209.553	-51.89
209.771	-650.19
209.989	-329.56
210.208	-209.58
210.426	1428.62
210.644	1123.43
210.862	295
211.081	177.74
211.299	351.44
211.517	176.8
211.735	291.18
211.953	225.14
212.171	263.28
212.39	192.39
212.608	122.87
212.826	172.88
213.044	511.71
213.262	-97.49
213.48	204.71
213.698	-291.86
213.916	125.13
214.134	-4.48
214.352	57.02
214.57	104.82
214.788	113.03
215.006	115.43
215.224	67.12
215.442	77.35
215.66	43.49
215.878	-0.24
216.096	-3.34
216.314	9.14
216.532	10.46
216.75	-4.83
216.968	-22.99
217.185	-42.01
217.403	-18.8
217.621	-12.99
217.839	17.04
218.057	27.04
218.275	167.7
218.492	127.78
218.71	135.38
218.928	168.93
219.146	229.51
219.363	596.04
219.581	681.4
219.799	544.49
220.017	336.38
220.234	1794.48
220.452	1468.68
220.67	436.79
220.887	-255.47
221.105	-452.69
221.323	-148.82
221.54	-213.15
221.758	-53.87
221.976	-15.16
222.193	1.86
222.411	-2.48
222.629	-67
222.846	-50.36
223.064	-34.28
223.281	-83.71
223.499	61.28
223.716	-15.79
223.934	22.31
224.151	-80.94
224.369	123.43
224.586	-65.29
224.804	-3.31
225.021	24.25
225.239	34.08
225.456	26.11
225.674	13.56
225.891	24.47
226.108	41.29
226.326	37.36
226.543	30.33
226.76	-5.13
226.978	29.74
227.195	13.44
227.413	26.07
227.63	28.02
227.847	21.97
228.064	24.03
228.282	23.87
228.499	17.44
228.716	17.53
228.934	23.07
229.151	25.8
229.368	22.35
229.585	22.54
229.802	15.87
230.02	11.27
230.237	13.17
230.454	10.83
230.671	5.52
230.888	12.17
231.105	14.62
231.323	7.48
231.54	4.41
231.757	6.23
231.974	5.92
232.191	12.81
232.408	18.33
232.625	21.21
232.842	25.7
233.059	31.47
233.276	27.37
233.493	23.78
233.71	17.61
233.927	19.17
234.144	18.17
234.361	20.57
234.578	20.29
234.795	16.68
235.012	15.16
235.229	16.36
235.446	10.64
235.663	8.52
235.879	13.02
236.096	20.87
236.313	14.22
236.53	17.62
236.747	17.57
236.964	15.07
237.181	20.25
237.397	16.41
237.614	14.39
237.831	21.49
238.048	29.22
238.264	27.12
238.481	25.67
238.698	27.41
238.915	21.61
239.131	18.56
239.348	24.34
239.565	21.7
239.781	24.5
239.998	19.34
240.215	11.93
240.431	12.52
240.648	8.72
240.865	6.68
241.081	7.43
241.298	10.83
241.514	10.14
241.731	7.43
241.947	9.59
242.164	11.71
242.38	12.54
242.597	14.25
242.814	14.76
243.03	15.47
243.246	17.03
243.463	17.12
243.679	17.45
243.896	21.84
244.112	23.19
244.329	21.99
244.545	21.56
244.762	24.15
244.978	23.41
245.194	20.34
245.411	19.79
245.627	18.39
245.843	20.91
246.06	19.43
246.276	17.32
246.492	17.72
246.709	18.45
246.925	17.65
247.141	17.04
247.357	17.28
247.574	18.48
247.79	18.73
248.006	19.2
248.222	19.03
248.439	17.79
248.655	17.16
248.871	17.18
249.087	15.46
249.303	14.61
249.519	14.95
249.736	15.52
249.952	13.86
250.168	13.68
250.384	16.14
250.6	13.86
250.816	16.82
251.032	18.09
251.248	17.28
251.464	17.85
251.68	20.11
251.896	18.33
252.112	18.18
252.328	18.7
252.544	17.87
252.76	15.16
252.976	16.54
253.192	17.01
253.408	15
253.624	17.21
253.84	17.14
254.056	14.15
254.272	14.92
254.487	12.5
254.703	10.94
254.919	14.78
255.135	14.94
255.351	10.52
255.567	12.25
255.782	13.75
255.998	9.46
256.214	11.48
256.43	11.89
256.646	9.03
256.861	10.82
257.077	13.24
257.293	8.49
257.508	5.51
257.724	9.07
257.94	7.66
258.155	5.75
258.371	7.87
258.587	5.62
258.802	9.4
259.018	10.99
259.234	10.98
259.449	11.49
259.665	12.49
259.88	13.92
260.096	14.05
260.312	13.7
260.527	14.09
260.743	13.74
260.958	14.39
261.174	14.25
261.389	14.55
261.605	14.44
261.82	13.87
262.036	13.15
262.251	14.4
262.466	12.68
262.682	13.14
262.897	15.28
263.113	16.2
263.328	19.8
263.543	18.59
263.759	16.94
263.974	16.44
264.189	15.45
264.405	16.5
264.62	12.21
264.835	15.24
265.051	15.78
265.266	14.87
265.481	14.53
265.696	13.56
265.912	13.45
266.127	14.2
266.342	15.13
266.557	15.58
266.773	15.32
266.988	17.13
267.203	16.98
267.418	16.01
267.633	16.15
267.848	15.94
268.064	16.48
268.279	16.18
268.494	14.73
268.709	13.94
268.924	14.36
269.139	13.45
269.354	13.06
269.569	11.35
269.784	10.32
269.999	9.48
270.214	10.24
270.429	7.41
270.644	6.37
270.859	8.01
271.074	10.67
271.289	10.48
271.504	10.73
271.719	8.77
271.934	8.53
272.149	10.03
272.363	10.5
272.578	10.37
272.793	10.04
273.008	11.29
273.223	11.85
273.438	10.84
273.653	9.25
273.867	10.78
274.082	12.53
274.297	12.89
274.512	12.51
274.726	12.43
274.941	11.56
275.156	12.64
275.371	11.02
275.585	12.42
275.8	13.06
276.015	14.8
276.229	12.59
276.444	12.8
276.659	12.67
276.873	12.68
277.088	13.23
277.302	13.2
277.517	13.57
277.732	15.82
277.946	14.18
278.161	11.68
278.375	11.71
278.59	13.68
278.804	13.96
279.019	16.72
279.233	17.23
279.448	16.75
279.662	16.62
279.877	16.74
280.091	15.93
280.306	17.13
280.52	17.23
280.735	15.87
280.949	15.26
281.163	14.09
281.378	10.07
281.592	8.69
281.806	8.44
282.021	8.02
282.235	6.26
282.449	5.48
282.664	4.45
282.878	5.75
283.092	5.95
283.307	6.62
283.521	6.83
283.735	8.26
283.949	8.97
284.164	8.85
284.378	10.26
284.592	11.62
284.806	10.53
285.02	12.13
285.234	10.91
285.449	11.95
285.663	12.32
285.877	13.31
286.091	14.7
286.305	14.38
286.519	14.18
286.733	14.16
286.947	14.05
287.161	15.35
287.375	14.95
287.589	16.84
287.803	15.96
288.017	14.47
288.231	13.32
288.445	11.08
288.659	11.83
288.873	12.88
289.087	12.12
289.301	13.36
289.515	13.58
289.729	12.43
289.943	11.31
290.157	11.46
290.371	11.9
290.584	11.87
290.798	12.67
291.012	13.43
291.226	13.77
291.44	13.61
291.654	12.67
291.867	12.11
292.081	12.58
292.295	11.64
292.509	13.37
292.722	13.95
292.936	13.63
293.15	14.07
293.364	13.82
293.577	13.39
293.791	10.86
294.005	12.02
294.218	12.05
294.432	12.26
294.645	15.89
294.859	13.72
295.073	14.63
295.286	13.64
295.5	13.65
295.713	13.35
295.927	13.01
296.14	16.2
296.354	14.72
296.568	15.23
296.781	14.13
296.994	12.55
297.208	13.1
297.421	12.89
297.635	14.08
297.848	13.7
298.062	13.87
298.275	14.21
298.489	12.91
298.702	13.75
298.915	12.54
299.129	12.82
299.342	13.36
299.555	13.92
299.769	12.57
299.982	12.39
300.195	12.26
300.409	12.53
300.622	12.59
300.835	14.17
301.048	14.84
301.262	17.05
301.475	17.18
301.688	16
301.901	15.39
302.115	16.6
302.328	16.97
302.541	17.99
302.754	16.96
302.967	18.12
303.18	15.6
303.393	14.51
303.607	13.59
303.82	14.67
304.033	15.91
304.246	17.3
304.459	17.36
304.672	19.05
304.885	19.19
305.098	19.14
305.311	17.99
305.524	19.97
305.737	20.01
305.95	21.39
306.163	22.15
306.376	20.74
306.589	19.61
306.802	19.94
307.015	17.69
307.228	18.32
307.44	16.21
307.653	16.89
307.866	18.31
308.079	17.79
308.292	16.89
308.505	17.41
308.718	18.16
308.93	17.72
309.143	17.12
309.356	18.97
309.569	17.66
309.781	19.2
309.994	17.5
310.207	14.73
310.42	15.16
310.632	15.76
310.845	13.56
311.058	13.43
311.27	15.16
311.483	15.16
311.696	13.73
311.908	13.33
312.121	13.23
312.333	14.98
312.546	16.36
312.759	15.65
312.971	14.56
313.184	14.96
313.396	15.24
313.609	13.44
313.821	12.47
314.034	11.83
314.246	12.82
314.459	13.49
314.671	11.87
314.884	11.85
315.096	12.95
315.309	14.33
315.521	15.44
315.733	14.95
315.946	15.74
316.158	16.64
316.371	16.78
316.583	16.62
316.795	16.11
317.008	15.98
317.22	16.1
317.432	15.09
317.644	14.68
317.857	15.01
318.069	15.88
318.281	15.54
318.494	14.27
318.706	14.68
318.918	13.89
319.13	12.92
319.342	13.72
319.555	13.5
319.767	13.81
319.979	11.83
320.191	12.34
320.403	12.51
320.615	12.59
320.827	13.02
321.039	13.83
321.252	15.43
321.464	16.51
321.676	15.1
321.888	16.02
322.1	16.42
322.312	17.05
322.524	16.64
322.736	14.98
322.948	14.99
323.16	15.65
323.372	16.34
323.584	15.78
323.796	16.2
324.007	16.93
324.219	16.4
324.431	16.5
324.643	17.71
324.855	17.7
325.067	17.52
325.279	16.78
325.491	16.43
325.702	16.57
325.914	16.42
326.126	17.65
326.338	16.72
326.55	16.7
326.761	15.33
326.973	14.3
327.185	12.25
327.396	13.61
327.608	15.08
327.82	15.43
328.032	14.42
328.243	14.14
328.455	13.37
328.666	17.23
328.878	17.19
329.09	18.04
329.301	17.68
329.513	19.01
329.725	18.62
329.936	17.1
330.148	16.59
330.359	16.17
330.571	15.33
330.782	14.08
330.994	13.11
331.205	13.39
331.417	14.18
331.628	14.99
331.84	16.35
332.051	14.25
332.262	15.51
332.474	15.66
332.685	14.7
332.897	15.2
333.108	16.47
333.319	14.87
333.531	13.54
333.742	13.29
333.953	13.98
334.165	11.97
334.376	13.25
334.587	12.93
334.799	13.29
335.01	16.43
335.221	16.87
335.432	15.09
335.644	16.71
335.855	16.34
336.066	16.56
336.277	15.32
336.488	17.2
336.7	17.9
336.911	18.59
337.122	18.82
337.333	16.22
337.544	16.51
337.755	16.53
337.966	15.97
338.177	16.77
338.388	18.2
338.599	17.86
338.811	15.95
339.022	15.54
339.233	13.96
339.444	14.29
339.655	15.17
339.866	14.81
340.076	16.36
340.287	15.69
340.498	15.06
340.709	14.41
340.92	16.96
341.131	18.67
341.342	18.27
341.553	20.11
341.764	20.74
341.975	19.23
342.185	19.73
342.396	18.89
342.607	17.45
342.818	18.5
343.029	17.73
343.239	16.86
343.45	17.06
343.661	17.57
343.872	15.81
344.082	15.5
344.293	18.46
344.504	17.21
344.714	17.03
344.925	17.88
345.136	16.82
345.346	16.69
345.557	16.96
345.768	17.01
345.978	17.73
346.189	17.98
346.399	17.22
346.61	16.23
346.821	17.54
347.031	17.86
347.242	18.63
347.452	19.5
347.663	20.58
347.873	19.49
348.084	18.82
348.294	17.27
348.504	18.54
348.715	18.46
348.925	17.96
349.136	16.06
349.346	16.55
349.557	16.68
349.767	16.67
349.977	15.83
350.188	16.16
350.398	16.58
350.608	17.16
350.819	17.34
351.029	18.11
351.239	19.29
351.449	19.94
351.66	19.81
351.87	17.69
352.08	17.72
352.29	18.94
352.501	19.06
352.711	19.09
352.921	19.62
353.131	19.11
353.341	18.25
353.552	16.45
353.762	16.91
353.972	16.94
354.182	18.02
354.392	16.86
354.602	16.16
354.812	15.76
355.022	15.38
355.232	15.19
355.442	14.39
355.652	15.69
355.862	16.74
356.072	16.52
356.282	16.61
356.492	16.88
356.702	17.7
356.912	17.92
357.122	17.73
357.332	17.38
357.542	16.31
357.752	17.77
357.962	17.84
358.171	16.04
358.381	16.45
358.591	16.47
358.801	17.07
359.011	17.27
359.221	16.32
359.43	17.31
359.64	17.28
359.85	18.23
360.06	17.62
360.269	16.74
360.479	17.22
360.689	17.64
360.899	17.31
361.108	16.87
361.318	17
361.528	16.84
361.737	16.01
361.947	15.88
362.156	15.41
362.366	14.93
362.576	14.51
362.785	15.23
362.995	14.93
363.204	16.02
363.414	16.54
363.623	16.86
363.833	16.88
364.042	17.82
364.252	17.62
364.461	18.28
364.671	17.82
364.88	18.29
365.09	18.58
365.299	17.52
365.509	16.06
365.718	15.28
365.927	14.83
366.137	15.65
366.346	14.9
366.555	14.29
366.765	13.6
366.974	14.2
367.183	14.21
367.393	12.55
367.602	13.04
367.811	12.5
368.021	12.45
368.23	11.55
368.439	10.93
368.648	11.23
368.857	12.78
369.067	12.49
369.276	12.88
369.485	12.98
369.694	13.5
369.903	13.85
370.112	14.85
370.321	14.69
370.531	15.23
370.74	15.92
370.949	15.8
371.158	15.5
371.367	16.17
371.576	15.2
371.785	16.54
371.994	17.2
372.203	16.86
372.412	15.86
372.621	16.03
372.83	15.45
373.039	14.86
373.248	14.01
373.457	13.66
373.666	13.66
373.874	14.7
374.083	12.71
374.292	12.83
374.501	12.31
374.71	13.16
374.919	13.56
375.128	13.91
375.336	13.91
375.545	15.61
375.754	16.72
375.963	16.65
376.171	16.38
376.38	16.96
376.589	17.16
376.798	16.71
377.006	16.08
377.215	15.82
377.424	16.02
377.632	16.23
377.841	15.05
378.05	14.19
378.258	13.82
378.467	13.46
378.675	13.2
378.884	12.71
379.093	12.76
379.301	12.78
379.51	12.38
379.718	12.31
379.927	11.29
380.135	11.67
380.344	11.7
380.552	11.6
380.761	11.99
380.969	11.88
381.177	11.42
381.386	11.61
381.594	11.34
381.803	11.12
382.011	11.27
382.219	11.9
382.428	11.33
382.636	11.17
382.845	11.22
383.053	10.44
383.261	10.45
383.469	10.81
383.678	10.72
383.886	10.83
384.094	11.01
384.302	10.94
384.511	10.87
384.719	11.45
384.927	11.79
385.135	11.83
385.343	11.89
385.552	11.43
385.76	11.14
385.968	11.54
386.176	11.4
386.384	10.95
386.592	10.4
386.8	10.53
387.008	10.06
387.216	9.61
387.424	9.27
387.633	9.37
387.841	9.39
388.049	9.01
388.257	8.73
388.465	9.06
388.672	9.34
388.88	8.96
389.088	9.4
389.296	9.39
389.504	9.12
389.712	8.92
389.92	9.2
390.128	9.1
390.336	9.11
390.544	9.35
390.751	9.35
390.959	9.15
391.167	9.3
391.375	8.69
391.583	8.51
391.79	8.59
391.998	8.73
392.206	8.8
392.414	9.13
392.621	9.51
392.829	9.26
393.037	9.13
393.244	9.37
393.452	9.59
393.66	9.11
393.867	9.13
394.075	9.31
394.283	9.5
394.49	9.15
394.698	9.2
394.905	9.57
395.113	9.26
395.32	9.38
395.528	9.6
395.735	9.28
395.943	9.78
396.15	9.83
396.358	9.57
396.565	9.72
396.773	9.55
396.98	9.4
397.188	8.67
397.395	9.49
397.602	9.03
397.81	8.97
398.017	9.36
398.225	9.1
398.432	9.07
398.639	8.95
398.847	8.59
399.054	8.99
399.261	8.83
399.468	8.64
399.676	8.13
399.883	8.45
400.09	7.81
400.297	7.98
400.505	8.1
400.712	8.15
400.919	8.08
401.126	8.12
401.333	7.77
401.54	8.2
401.748	8.66
401.955	9.06
402.162	8.57
402.369	8.88
402.576	8.82
402.783	8.65
402.99	8.66
403.197	8.99
403.404	8.98
403.611	9.03
403.818	8.83
404.025	8.52
404.232	8.49
404.439	8.77
404.646	8.89
404.853	9
405.06	9.25
405.267	9.44
405.474	9.36
405.681	9.69
405.887	9.71
406.094	9.91
406.301	10.02
406.508	9.8
406.715	9.74
406.922	9.63
407.128	9.67
407.335	9.53
407.542	9.48
407.749	9.32
407.955	8.72
408.162	8.79
408.369	8.25
408.575	8.1
408.782	7.88
408.989	8.15
409.195	8.01
409.402	7.93
409.609	7.63
409.815	7.29
410.022	7.69
410.228	7.83
410.435	7.71
410.642	7.75
410.848	8.01
411.055	8.31
411.261	8.1
411.468	8.15
411.674	7.79
411.881	8.16
412.087	8.71
412.294	8.5
412.5	8.22
412.706	8.21
412.913	8.12
413.119	7.95
413.326	7.98
413.532	8.23
413.738	8.43
413.945	8.76
414.151	8.34
414.357	8.08
414.564	8.11
414.77	8.53
414.976	8.34
415.182	8.41
415.389	8.31
415.595	8.12
415.801	8.16
416.007	8.24
416.214	8
416.42	8.3
416.626	8.04
416.832	8.39
417.038	8.33
417.244	8.43
417.45	8.3
417.657	8.53
417.863	8.74
418.069	8.72
418.275	8.89
418.481	8.85
418.687	8.72
418.893	8.83
419.099	8.46
419.305	8.61
419.511	8.69
419.717	8.71
419.923	8.63
420.129	8.57
420.335	8.56
420.541	8.5
420.746	8.61
420.952	8.62
421.158	8.75
421.364	8.84
421.57	8.77
421.776	8.82
421.982	8.9
422.187	8.94
422.393	8.78
422.599	8.67
422.805	8.64
423.01	8.61
423.216	8.77
423.422	8.58
423.628	8.41
423.833	8.23
424.039	8.15
424.245	8.24
424.45	8.19
424.656	8.38
424.862	8.57
425.067	8.55
425.273	8.37
425.478	8.38
425.684	8.45
425.889	8.74
426.095	8.86
426.301	8.78
426.506	8.69
426.712	8.59
426.917	8.64
427.123	8.49
427.328	8.39
427.533	8.8
427.739	8.76
427.944	8.62
428.15	8.21
428.355	8.36
428.561	8.52
428.766	8.59
428.971	8.91
429.177	8.81
429.382	8.97
429.587	9.11
429.793	9.08
429.998	9.02
430.203	9.26
430.408	9.53
430.614	9.42
430.819	9.4
431.024	9.58
431.229	9.24
431.434	9.24
431.64	8.92
431.845	8.72
432.05	8.67
432.255	8.73
432.46	8.61
432.665	8.58
432.87	8.5
433.076	8.41
433.281	8.49
433.486	8.62
433.691	8.53
433.896	8.6
434.101	8.68
434.306	8.65
434.511	8.66
434.716	8.64
434.921	8.96
435.126	8.99
435.331	9.07
435.535	8.74
435.74	8.56
435.945	8.62
436.15	8.63
436.355	8.57
436.56	8.41
436.765	8.3
436.97	8.26
437.174	8
437.379	8.04
437.584	8.08
437.789	8.01
437.993	8.17
438.198	8.03
438.403	7.87
438.608	7.7
438.812	7.87
439.017	7.88
439.222	7.85
439.426	7.62
439.631	7.88
439.836	7.91
440.04	7.84
440.245	7.84
440.45	7.82
440.654	8.09
440.859	8.16
441.063	8.2
441.268	8.16
441.472	8.03
441.677	8.21
441.881	7.99
442.086	7.59
442.29	7.84
442.495	7.8
442.699	7.78
442.904	7.49
443.108	7.47
443.312	7.31
443.517	7.22
443.721	7.53
443.925	7.52
444.13	7.53
444.334	7.88
444.538	7.69
444.743	7.79
444.947	7.88
445.151	7.93
445.356	7.93
445.56	7.96
445.764	7.92
445.968	7.73
446.173	7.65
446.377	7.64
446.581	7.75
446.785	7.84
446.989	7.82
447.193	7.77
447.398	7.72
447.602	7.67
447.806	7.67
448.01	7.86
448.214	7.87
448.418	7.95
448.622	7.8
448.826	7.6
449.03	7.52
449.234	7.52
449.438	7.76
449.642	7.99
449.846	8.03
450.05	8.03
450.254	7.67
450.458	7.7
450.662	7.64
450.866	8.05
451.069	7.93
451.273	7.95
451.477	7.84
451.681	7.56
451.885	7.44
452.089	7.53
452.292	7.56
452.496	7.7
452.7	7.71
452.904	7.86
453.107	7.54
453.311	7.71
453.515	7.62
453.719	7.62
453.922	7.64
454.126	7.62
454.33	7.63
454.533	7.48
454.737	7.64
454.94	7.83
455.144	7.75
455.348	7.86
455.551	7.99
455.755	8.39
455.958	8.35
456.162	8.47
456.365	8.33
456.569	8.36
456.772	8.43
456.976	8.39
457.179	8.23
457.383	8.19
457.586	8.16
457.79	8
457.993	7.85
458.196	7.77
458.4	7.81
458.603	7.83
458.807	7.88
459.01	7.82
459.213	7.81
459.417	7.79
459.62	7.89
459.823	7.89
460.026	7.74
460.23	7.66
460.433	7.81
460.636	7.64
460.839	7.74
461.042	7.67
461.246	7.68
461.449	7.47
461.652	7.42
461.855	7.22
462.058	7.14
462.261	7.52
462.464	7.47
462.668	7.44
462.871	7.48
463.074	7.32
463.277	7.15
463.48	7.14
463.683	7.48
463.886	7.59
464.089	7.82
464.292	7.76
464.495	7.54
464.698	7.85
464.901	7.92
465.104	8.16
465.306	8.03
465.509	8.18
465.712	8.24
465.915	8.14
466.118	8.11
466.321	8.01
466.524	8.01
466.726	7.98
466.929	7.75
467.132	7.48
467.335	7.5
467.538	7.72
467.74	7.78
467.943	7.64
468.146	7.65
468.348	7.72
468.551	7.75
468.754	7.75
468.956	7.67
469.159	7.54
469.362	7.49
469.564	7.46
469.767	7.44
469.969	7.52
470.172	7.42
470.375	7.42
470.577	7.34
470.78	7.13
470.982	7.26
471.185	7.12
471.387	7.28
471.59	7.55
471.792	7.26
471.995	7.21
472.197	7.03
472.399	7.28
472.602	7.15
472.804	7.16
473.007	7.3
473.209	7.38
473.411	7.81
473.614	7.83
473.816	7.75
474.018	7.74
474.22	7.78
474.423	7.9
474.625	7.86
474.827	8.11
475.03	8.09
475.232	8.06
475.434	7.92
475.636	7.72
475.838	7.7
476.04	7.63
476.243	7.7
476.445	7.68
476.647	7.75
476.849	7.71
477.051	7.53
477.253	7.55
477.455	7.67
477.657	7.57
477.859	7.56
478.061	7.43
478.263	7.37
478.465	7.56
478.667	7.66
478.869	7.63
479.071	7.66
479.273	7.8
479.475	7.95
479.677	7.93
479.879	8
480.081	8.08
480.283	8.23
480.485	8.42
480.686	8.4
480.888	8.24
481.09	8.29
481.292	8.34
481.494	8.2
481.695	8.09
481.897	7.93
482.099	7.88
482.301	7.79
482.502	7.68
482.704	7.68
482.906	7.66
483.107	7.71
483.309	7.66
483.511	7.63
483.712	7.6
483.914	7.59
484.115	7.61
484.317	7.67
484.519	7.7
484.72	7.74
484.922	7.67
485.123	7.62
485.325	7.62
485.526	7.61
485.728	7.58
485.929	7.59
486.131	7.62
486.332	7.66
486.534	7.59
486.735	7.55
486.936	7.56
487.138	7.6
487.339	7.65
487.541	7.58
487.742	7.5
487.943	7.58
488.144	7.61
488.346	7.64
488.547	7.65
488.748	7.66
488.95	7.63
489.151	7.66
489.352	7.71
489.553	7.72
489.755	7.76
489.956	7.81
490.157	7.78
490.358	7.73
490.559	7.61
490.76	7.63
490.961	7.67
491.163	7.62
491.364	7.51
491.565	7.46
491.766	7.37
491.967	7.35
492.168	7.37
492.369	7.32
492.57	7.43
492.771	7.43
492.972	7.35
493.173	7.31
493.374	7.41
493.575	7.43
493.776	7.3
493.976	7.3
494.177	7.28
494.378	7.26
494.579	7.13
494.78	7.11
494.981	7.07
495.182	7.15
495.382	7.27
495.583	7.13
495.784	7.29
495.985	7.46
496.185	7.5
496.386	7.55
496.587	7.61
496.788	7.75
496.988	7.76
497.189	7.77
497.39	7.78
497.59	7.74
497.791	7.68
497.992	7.77
498.192	7.66
498.393	7.68
498.593	7.74
498.794	7.75
498.994	7.71
499.195	7.72
499.395	7.75
499.596	7.46
499.796	7.38
499.997	7.49
500.197	7.41
500.398	7.68
500.598	7.7
500.799	7.64
500.999	7.59
501.199	7.6
501.4	7.52
501.6	7.53
501.801	7.67
502.001	7.72
502.201	7.79
502.402	7.62
502.602	7.45
502.802	7.35
503.002	7.34
503.203	7.34
503.403	7.1
503.603	7.2
503.803	7.15
504.003	7.27
504.204	7.33
504.404	7.42
504.604	7.55
504.804	7.59
505.004	7.88
505.204	8.07
505.404	8.13
505.604	8.41
505.804	8.4
506.005	8.5
506.205	8.65
506.405	8.63
506.605	8.59
506.805	8.69
507.005	8.71
507.204	8.38
507.404	8.31
507.604	8.38
507.804	8.47
508.004	8.18
508.204	8.21
508.404	8.2
508.604	8.16
508.804	8.22
509.003	8.07
509.203	8.14
509.403	8.29
509.603	8.18
509.803	8.23
510.002	8.1
510.202	8.36
510.402	8.32
510.602	8.27
510.801	8.31
511.001	8.36
511.201	8.53
511.4	8.47
511.6	8.57
511.8	8.68
511.999	8.47
512.199	8.75
512.398	8.67
512.598	8.72
512.797	8.79
512.997	8.91
513.197	8.9
513.396	8.81
513.596	8.72
513.795	8.69
513.994	8.64
514.194	8.8
514.393	8.74
514.593	8.79
514.792	8.68
514.992	8.6
515.191	8.45
515.39	8.38
515.59	8.39
515.789	8.52
515.988	8.55
516.188	8.69
516.387	8.88
516.586	8.62
516.786	8.68
516.985	8.97
517.184	9.03
517.383	9.07
517.582	9.15
517.782	9.17
517.981	9.32
518.18	9.41
518.379	9.45
518.578	9.4
518.777	9.5
518.976	9.54
519.176	9.44
519.375	9.49
519.574	9.52
519.773	9.55
519.972	9.63
520.171	9.54
520.37	9.5
520.569	9.53
520.768	9.46
520.967	9.54
521.166	9.63
521.365	9.77
521.564	9.85
521.762	9.91
521.961	9.86
522.16	9.85
522.359	9.9
522.558	9.96
522.757	9.97
522.956	10.19
523.154	10.23
523.353	10.32
523.552	10.25
523.751	10.2
523.949	10.32
524.148	10.38
524.347	10.38
524.546	10.3
524.744	10.28
524.943	10.32
525.142	10.41
525.34	10.42
525.539	10.34
525.737	10.46
525.936	10.57
526.135	10.58
526.333	10.53
526.532	10.62
526.73	10.66
526.929	10.63
527.127	10.59
527.326	10.46
527.524	10.43
527.723	10.5
527.921	10.48
528.12	10.48
528.318	10.43
528.516	10.55
528.715	10.5
528.913	10.59
529.112	10.7
529.31	10.81
529.508	10.84
529.707	10.9
529.905	10.9
530.103	10.9
530.301	10.92
530.5	11.04
530.698	10.97
530.896	11.01
531.094	11.03
531.293	10.93
531.491	10.79
531.689	10.84
531.887	10.87
532.085	10.83
532.283	10.95
532.481	10.96
532.68	10.96
532.878	11.06
533.076	11.09
533.274	11.17
533.472	11.21
533.67	11.28
533.868	11.38
534.066	11.43
534.264	11.56
534.462	11.6
534.66	11.57
534.858	11.72
535.056	11.73
535.253	11.9
535.451	11.98
535.649	12.1
535.847	12.24
536.045	12.27
536.243	12.26
536.441	12.33
536.638	12.25
536.836	12.28
537.034	12.25
537.232	12.25
537.43	12.29
537.627	12.16
537.825	12.17
538.023	12.11
538.22	12.12
538.418	12.22
538.616	12.05
538.813	12.06
539.011	12.26
539.209	12.15
539.406	12.32
539.604	12.44
539.801	12.51
539.999	12.56
540.196	12.68
540.394	12.75
540.591	12.83
540.789	12.91
540.986	13.03
541.184	13.1
541.381	13.18
541.579	13.17
541.776	13.15
541.974	13.23
542.171	13.25
542.368	13.25
542.566	13.27
542.763	13.39
542.96	13.52
543.158	13.59
543.355	13.59
543.552	13.59
543.75	13.65
543.947	13.54
544.144	13.53
544.341	13.65
544.539	13.75
544.736	13.74
544.933	13.62
545.13	13.68
545.327	13.84
545.524	13.93
545.722	14.19
545.919	14.2
546.116	14.5
546.313	14.68
546.51	14.7
546.707	14.64
546.904	14.63
547.101	14.67
547.298	14.7
547.495	14.6
547.692	14.78
547.889	14.59
548.086	14.73
548.283	14.72
548.48	14.75
548.677	14.66
548.874	15.02
549.07	15.15
549.267	15.38
549.464	15.34
549.661	15.54
549.858	15.37
550.055	15.42
550.251	15.49
550.448	15.42
550.645	15.44
550.842	15.88
551.038	15.67
551.235	15.98
551.432	15.81
551.628	15.89
551.825	15.91
552.022	16
552.218	16.09
552.415	16.11
552.612	16.22
552.808	16.38
553.005	16.13
553.201	16.39
553.398	16.16
553.594	16.46
553.791	16.66
553.987	16.66
554.184	16.67
554.38	16.9
554.577	17.15
554.773	17.49
554.97	17.49
555.166	17.8
555.362	17.87
555.559	17.87
555.755	17.8
555.952	17.63
556.148	17.75
556.344	18.18
556.541	18.2
556.737	18.11
556.933	17.89
557.129	17.85
557.326	17.6
557.522	17.39
557.718	17.65
557.914	17.69
558.11	17.92
558.307	17.9
558.503	17.74
558.699	17.82
558.895	18.01
559.091	18.33
559.287	18.59
559.483	18.93
559.679	19.15
559.876	19.16
560.072	19
560.268	19.17
560.464	19.23
560.66	19.2
560.856	19.06
561.052	18.78
561.247	18.53
561.443	18.5
561.639	18.62
561.835	18.62
562.031	19.09
562.227	19.48
562.423	19.49
562.619	19.52
562.815	19.43
563.01	19.98
563.206	20.31
563.402	20.3
563.598	20.22
563.793	20.33
563.989	20.53
564.185	20.29
564.381	20.44
564.576	20.55
564.772	20.83
564.968	21.06
565.163	21.04
565.359	21.19
565.555	21.6
565.75	21.74
565.946	21.62
566.141	21.58
566.337	21.61
566.532	21.48
566.728	21.41
566.923	21.47
567.119	21.6
567.314	21.52
567.51	21.5
567.705	21.29
567.901	21.36
568.096	21.59
568.292	21.7
568.487	21.8
568.682	21.8
568.878	22.1
569.073	21.96
569.268	22.02
569.464	22.02
569.659	21.94
569.854	22.1
570.05	22.19
570.245	22.23
570.44	22.33
570.635	22.23
570.831	22.39
571.026	22.29
571.221	22.43
571.416	22.44
571.611	22.47
571.806	22.8
572.002	22.8
572.197	22.74
572.392	22.63
572.587	22.59
572.782	22.81
572.977	22.82
573.172	22.86
573.367	23.02
573.562	23.04
573.757	23.06
573.952	22.82
574.147	22.98
574.342	23.25
574.537	23.4
574.732	23.51
574.927	23.57
575.121	23.58
575.316	23.81
575.511	23.7
575.706	23.79
575.901	23.87
576.096	24.14
576.29	23.86
576.485	23.77
576.68	23.84
576.875	23.81
577.069	23.89
577.264	23.77
577.459	23.65
577.654	23.62
577.848	23.59
578.043	23.72
578.238	23.69
578.432	24.12
578.627	24.15
578.821	24.33
579.016	24.45
579.21	24.2
579.405	24.4
579.6	24.47
579.794	24.61
579.989	24.67
580.183	24.51
580.378	24.59
580.572	24.54
580.766	24.76
580.961	24.64
581.155	24.71
581.35	25.31
581.544	25.71
581.738	25.56
581.933	25.45
582.127	25.54
582.321	25.79
582.516	25.71
582.71	25.86
582.904	25.89
583.099	25.91
583.293	25.78
583.487	25.49
583.681	25.54
583.875	25.68
584.07	25.94
584.264	25.67
584.458	25.7
584.652	25.6
584.846	25.42
585.04	25.04
585.234	25.01
585.428	25.1
585.623	25.02
585.817	25.24
586.011	25.24
586.205	25.32
586.399	25.76
586.593	25.97
586.787	26.11
586.981	26.16
587.174	26.2
587.368	26.21
587.562	26.24
587.756	26.19
587.95	25.99
588.144	26.16
588.338	26.04
588.532	25.76
588.725	25.71
588.919	25.86
589.113	26.1
589.307	26.26
589.501	26.15
589.694	26.32
589.888	26.58
590.082	26.43
590.275	26.54
590.469	26.4
590.663	26.6
590.856	26.76
591.05	26.65
591.244	26.53
591.437	26.96
591.631	27.14
591.824	26.93
592.018	26.98
592.212	27.2
592.405	27.18
592.599	27.52
592.792	27.86
592.986	27.62
593.179	27.84
593.372	27.84
593.566	27.41
593.759	27.52
593.953	27.94
594.146	27.79
594.339	27.55
594.533	27.74
594.726	27.64
594.92	27.21
595.113	27.17
595.306	27.27
595.499	27.62
595.693	27.9
595.886	27.84
596.079	27.66
596.272	27.73
596.466	27.85
596.659	27.64
596.852	27.79
597.045	27.99
597.238	28.31
597.431	28.3
597.624	28.19
597.818	28.18
598.011	28.33
598.204	28.16
598.397	28.34
598.59	28.43
598.783	28.52
598.976	28.46
599.169	28.48
599.362	28.34
599.555	28.25
599.748	28.01
599.941	28.02
600.134	28.02
600.326	28.49
600.519	28.34
600.712	28.6
600.905	28.56
601.098	28.88
601.291	28.86
601.483	28.91
601.676	28.99
601.869	29.28
602.062	29.23
602.255	29.13
602.447	29.06
602.64	28.94
602.833	28.93
603.025	29.01
603.218	28.87
603.411	29.14
603.603	29.23
603.796	29.12
603.989	29.02
604.181	28.91
604.374	29.02
604.566	29.15
604.759	29.3
604.951	29.09
605.144	29.31
605.336	29.27
605.529	29.19
605.721	29.08
605.914	29.02
606.106	29.25
606.299	29.51
606.491	29.59
606.683	29.31
606.876	29.35
607.068	29.41
607.26	29.43
607.453	29.15
607.645	29.17
607.837	29.39
608.03	29.39
608.222	29.52
608.414	29.31
608.606	29.08
608.799	29.05
608.991	29.12
609.183	29.07
609.375	28.76
609.567	29.19
609.759	29.01
609.952	28.67
610.144	28.96
610.336	28.81
610.528	28.66
610.72	28.68
610.912	28.85
611.104	28.48
611.296	28.86
611.488	29.05
611.68	28.82
611.872	29.04
612.064	29.22
612.256	28.75
612.448	28.89
612.64	29.01
612.832	29.36
613.023	29.32
613.215	29.75
613.407	29.31
613.599	28.89
613.791	29.01
613.983	28.86
614.174	29.1
614.366	29.56
614.558	29.64
614.75	29.78
614.941	29.76
615.133	29.9
615.325	29.8
615.516	29.84
615.708	30.19
615.9	30.48
616.091	30.3
616.283	30.04
616.475	30.08
616.666	29.5
616.858	29.44
617.049	29.22
617.241	29.2
617.432	29.27
617.624	29.07
617.815	29.1
618.007	28.56
618.198	28.93
618.39	29.28
618.581	29.25
618.773	29.35
618.964	29.93
619.155	29.99
619.347	30.27
619.538	30.11
619.729	30.43
619.921	30.4
620.112	30.65
620.303	30.68
620.494	30.45
620.686	30.34
620.877	30.79
621.068	30.59
621.259	30.78
621.451	30.47
621.642	30.7
621.833	30.67
622.024	30.75
622.215	31.05
622.406	31.07
622.597	31.28
622.788	31.47
622.98	31.23
623.171	31.08
623.362	30.98
623.553	31.26
623.744	31.28
623.935	31.51
624.126	31.22
624.317	31.14
624.508	31.01
624.698	31.15
624.889	31.01
625.08	30.98
625.271	31.28
625.462	31.25
625.653	31.04
625.844	31.17
626.034	31.5
626.225	31.74
626.416	31.59
626.607	31.65
626.798	31.62
626.988	31.72
627.179	32.15
627.37	31.76
627.56	32.12
627.751	32.09
627.942	32.04
628.132	31.9
628.323	31.93
628.514	32.07
628.704	32.2
628.895	32
629.085	31.84
629.276	31.77
629.466	31.99
629.657	31.65
629.847	31.81
630.038	31.75
630.228	31.68
630.419	31.63
630.609	31.83
630.8	31.86
630.99	31.94
631.181	32.36
631.371	32
631.561	31.99
631.752	32.24
631.942	32.18
632.132	32.6
632.323	32.74
632.513	32.7
632.703	32.69
632.893	32.7
633.084	32.47
633.274	32.36
633.464	32.37
633.654	32.56
633.844	32.46
634.034	32.53
634.225	32.41
634.415	32.13
634.605	32.49
634.795	32.34
634.985	32.09
635.175	32.26
635.365	32.22
635.555	32.43
635.745	32.12
635.935	31.69
636.125	31.76
636.315	31.65
636.505	31.87
636.695	31.54
636.885	31.94
637.075	32.47
637.265	32.77
637.455	32.7
637.644	32.45
637.834	32.89
638.024	33.14
638.214	32.71
638.404	32.57
638.593	32.76
638.783	32.65
638.973	32.51
639.163	32.12
639.352	32.03
639.542	31.99
639.732	32.19
639.921	31.9
640.111	31.97
640.301	32.54
640.49	32.76
640.68	32.53
640.87	32.67
641.059	32.86
641.249	33.42
641.438	33.69
641.628	34.01
641.817	34.18
642.007	34.48
642.196	34.5
642.386	34.68
642.575	34.48
642.764	34.5
642.954	34.39
643.143	33.81
643.333	33.12
643.522	32.7
643.711	32.41
643.901	32.4
644.09	32.2
644.279	32.23
644.469	31.77
644.658	31.76
644.847	31.74
645.036	32.16
645.226	32.62
645.415	32.48
645.604	32.94
645.793	33.14
645.982	33.21
646.171	32.79
646.361	32.65
646.55	32.93
646.739	33.41
646.928	33.41
647.117	33.22
647.306	32.76
647.495	33.18
647.684	32.82
647.873	32.89
648.062	32.72
648.251	33.02
648.44	33.69
648.629	33.62
648.818	33.11
649.007	33.09
649.196	33.42
649.384	33.25
649.573	33.01
649.762	33.31
649.951	33.17
650.14	33.26
650.328	33.68
650.517	33.39
650.706	34.04
650.895	34.26
651.083	34.58
651.272	34.67
651.461	35.34
651.65	35.77
651.838	35.97
652.027	36.25
652.216	35.81
652.404	35.18
652.593	35
652.781	34.31
652.97	34.43
653.158	34.48
653.347	34.26
653.535	33.87
653.724	33.77
653.912	33.63
654.101	33.43
654.289	33.69
654.478	34.13
654.666	33.76
654.855	33.7
655.043	33.41
655.231	32.82
655.42	32.71
655.608	32.63
655.796	32.39
655.985	31.77
656.173	31.79
656.361	31.9
656.55	31.71
656.738	32.31
656.926	32.39
657.114	32.6
657.302	32.64
657.491	32.78
657.679	33.09
657.867	33.03
658.055	33.57
658.243	33.42
658.431	33.8
658.619	34.06
658.807	34.24
658.996	34.32
659.184	34.51
659.372	34.5
659.56	34.38
659.748	34.12
659.936	33.8
660.124	33.83
660.311	33.87
660.499	33.55
660.687	33.59
660.875	33.82
661.063	33.65
661.251	33.09
661.439	33.2
661.627	33.33
661.814	33.43
662.002	34.21
662.19	34.06
662.378	34.14
662.565	34.65
662.753	35.11
662.941	34.54
663.129	35.21
663.316	35.84
663.504	35.85
663.692	35.65
663.879	35.83
664.067	35.44
664.254	35.61
664.442	35.89
664.63	35.3
664.817	34.51
665.005	34.69
665.192	34.41
665.38	33.98
665.567	33.96
665.755	34.39
665.942	33.73
666.13	33.48
666.317	33.26
666.504	32.94
666.692	33.02
666.879	33.51
667.067	33.01
667.254	32.77
667.441	33.45
667.629	33.62
667.816	33.73
668.003	34.36
668.19	34.93
668.378	34.92
668.565	35.15
668.752	34.75
668.939	34.62
669.127	35.2
669.314	35.78
669.501	35.92
669.688	35.6
669.875	35.39
670.062	35.36
670.249	35.37
670.436	35.59
670.623	35.73
670.81	35.74
670.997	35.63
671.184	35.69
671.371	35.15
671.558	35.01
671.745	35.04
671.932	34.95
672.119	35.19
672.306	35.33
672.493	35.49
672.68	35.3
672.867	35.67
673.054	34.82
673.24	35.1
673.427	35.16
673.614	34.28
673.801	34.34
673.988	34.62
674.174	34.82
674.361	34.76
674.548	34.62
674.734	34.64
674.921	35.12
675.108	35.73
675.294	35.5
675.481	35.25
675.668	36.15
675.854	36.45
676.041	36.31
676.227	35.69
676.414	34.82
676.601	34.44
676.787	34.23
676.974	33.73
677.16	34.08
677.347	34.11
677.533	34.2
677.719	34.08
677.906	34.32
678.092	34.01
678.279	33.89
678.465	34.76
678.651	34.89
678.838	35.27
679.024	35.78
679.21	35.66
679.397	35.73
679.583	35.82
679.769	35.51
679.955	35.33
680.142	35.4
680.328	35.86
680.514	36.31
680.7	36.48
680.886	36.47
681.073	36.25
681.259	36.05
681.445	35.48
681.631	35.42
681.817	35.67
682.003	35.92
682.189	35.92
682.375	35.53
682.561	34.9
682.747	34.68
682.933	34.25
683.119	34.04
683.305	34.42
683.491	35.41
683.677	35.83
683.863	35.69
684.049	35.91
684.235	36.49
684.42	36.43
684.606	36.32
684.792	36.27
684.978	37.06
685.164	37.46
685.349	37.71
685.535	37.01
685.721	36.65
685.907	36.36
686.092	35.93
686.278	36.04
686.464	36.68
686.649	36.5
686.835	36.37
687.021	36
687.206	36.03
687.392	35.39
687.577	34.94
687.763	34.67
687.948	34.87
688.134	34.74
688.319	34.31
688.505	33.9
688.69	33.84
688.876	34.7
689.061	34.48
689.247	34.9
689.432	34.89
689.618	35.62
689.803	36.56
689.988	36.73
690.174	36.73
690.359	36.93
690.544	37.41
690.73	38.27
690.915	37.6
691.1	37.73
691.285	37.16
691.471	37.41
691.656	37.1
691.841	36.6
692.026	36.3
692.211	36.3
692.396	35.57
692.582	34.88
692.767	33.81
692.952	34.67
693.137	34.71
693.322	35.19
693.507	35.22
693.692	35.62
693.877	35.39
694.062	36.06
694.247	36.2
694.432	36.07
694.617	36.78
694.802	37.6
694.987	36.81
695.172	37.17
695.357	36.72
695.541	36.92
695.726	36.34
695.911	36.22
696.096	35.95
696.281	36.24
696.466	36.77
696.65	36.14
696.835	35.88
697.02	36.7
697.204	36.58
697.389	36.57
697.574	36.92
697.759	37.05
697.943	37.46
698.128	37.51
698.312	37.37
698.497	37.57
698.682	38.05
698.866	38.14
699.051	37.4
699.235	37.18
699.42	37.28
699.604	36.98
699.789	37.48
699.973	37.47
700.158	37.44
700.342	37.95
700.527	37.61
700.711	37.5
700.895	37.55
701.08	37.97
701.264	37.98
701.448	37.92
701.633	37.92
701.817	37.46
702.001	37.58
702.186	37.81
702.37	36.9
702.554	37
702.738	37.07
702.923	36.63
703.107	36.63
703.291	37.61
703.475	36.68
703.659	36.97
703.843	37.02
704.027	36.06
704.212	35.03
704.396	35.02
704.58	35.07
704.764	34.94
704.948	35.89
705.132	35.66
705.316	34.55
705.5	35.07
705.684	34.47
705.868	34.41
706.052	35.48
706.235	36.39
706.419	36.79
706.603	36.53
706.787	36.71
706.971	35.33
707.155	35.12
707.339	35.02
707.522	35.07
707.706	34.86
707.89	35.21
708.074	34.48
708.257	34.38
708.441	34.51
708.625	34.45
708.808	34.85
708.992	35.93
709.176	36.36
709.359	36.97
709.543	36.81
709.727	37.62
709.91	37.13
710.094	37.77
710.277	37.21
710.461	36.4
710.644	36.76
710.828	36.38
711.011	36.45
711.195	36.65
711.378	36.61
711.562	37.05
711.745	36.91
711.928	36.6
712.112	36.15
712.295	37.5
712.478	37.53
712.662	37.07
712.845	36.73
713.028	36.18
713.212	35.47
713.395	35.65
713.578	35.57
713.761	35.06
713.945	36.02
714.128	36.18
714.311	35.47
714.494	36.33
714.677	37.22
714.86	37.37
715.043	37.85
715.227	37.56
715.41	37.99
715.593	38.3
715.776	38.33
715.959	38.02
716.142	37.49
716.325	37.61
716.508	36.78
716.691	35.79
716.874	36.45
717.057	35.36
717.239	36.1
717.422	34.91
717.605	34.39
717.788	35.25
717.971	34.63
718.154	35.84
718.337	35.54
718.519	35.94
718.702	36.52
718.885	37.38
719.068	38.34
719.25	37.7
719.433	39.2
719.616	38.4
719.798	36.68
719.981	37.46
720.164	37.21
720.346	38.14
720.529	38.16
720.712	37.84
720.894	36.67
721.077	36.45
721.259	36.53
721.442	35.17
721.624	35.8
721.807	36.91
721.989	36.52
722.172	36.33
722.354	35.32
722.537	35.86
722.719	36.98
722.901	36.79
723.084	38.72
723.266	39.95
723.448	41.02
723.631	42.47
723.813	42.69
723.995	42.42
724.178	42.06
724.36	41.9
724.542	41.3
724.724	41.55
724.907	40.81
725.089	39.23
725.271	38.99
725.453	38.44
725.635	38.29
725.817	38.2
725.999	38.42
726.181	37.95
726.364	38.36
726.546	38.29
726.728	36.53
726.91	37.02
727.092	37.1
727.274	36.64
727.456	36.4
727.638	35.49
727.819	35.32
728.001	35.42
728.183	35.3
728.365	35.23
728.547	35.62
728.729	37.3
728.911	36.98
729.093	37.28
729.274	37.81
729.456	38.84
729.638	39.68
729.82	40.3
730.001	40.12
730.183	41.53
730.365	42.07
730.546	41.15
730.728	40.64
730.91	41.93
731.091	40.22
731.273	40.42
731.455	40.76
731.636	40.24
731.818	39.27
731.999	40.29
732.181	39.9
732.362	39.33
732.544	39.75
732.725	39.28
732.907	37.84
733.088	38.63
733.27	38.95
733.451	38.04
733.633	38
733.814	39.38
733.995	38.68
734.177	38.77
734.358	38.78
734.539	40.07
734.721	39.8
734.902	40.66
735.083	41.48
735.264	41.39
735.446	40.51
735.627	41.23
735.808	40.34
735.989	41.26
736.17	40.84
736.351	40.63
736.533	39.48
736.714	41.76
736.895	41.18
737.076	40.93
737.257	39.52
737.438	40.52
737.619	39.97
737.8	41.82
737.981	42.32
738.162	42.36
738.343	43.46
738.524	43.3
738.705	41.23
738.886	41.39
739.067	41.46
739.247	42.13
739.428	41.45
739.609	41.71
739.79	39.51
739.971	38.74
740.151	38.42
740.332	37.63
740.513	37.11
740.694	37.38
740.874	38.39
741.055	38.85
741.236	39.16
741.417	40.05
741.597	39.43
741.778	40.36
741.958	39.75
742.139	39.12
742.32	39.04
742.5	40.52
742.681	39.92
742.861	37.97
743.042	38.44
743.222	38.88
743.403	38.47
743.583	39.4
743.764	38.23
743.944	39.22
744.124	40.7
744.305	40.37
744.485	39.67
744.666	39.77
744.846	40.92
745.026	38.77
745.207	37.94
745.387	37.73
745.567	36.16
745.747	37.22
745.928	36.46
746.108	34.33
746.288	34.62
746.468	35.22
746.648	35.38
746.829	34.77
747.009	35.7
747.189	35.12
747.369	34.62
747.549	35.62
747.729	35.66
747.909	35.97
748.089	38.57
748.269	37.36
748.449	36.18
748.629	35.78
748.809	35.67
748.989	36.56
749.169	37.45
749.349	37.12
749.529	38.13
749.709	36.84
749.889	36.81
750.068	35.78
750.248	35.9
750.428	36.89
750.608	37.43
750.788	37.36
750.967	36.74
751.147	36.34
751.327	38.11
751.507	37.65
751.686	38.04
751.866	38.52
752.046	37.43
752.225	38.33
752.405	37.96
752.585	39.44
752.764	39.44
752.944	40.22
753.123	40.98
753.303	39.97
753.482	40.3
753.662	40.8
753.841	38.89
754.021	39.71
754.2	40.63
754.38	42.02
754.559	40.21
754.739	39.33
754.918	39.09
755.097	39.45
755.277	38.97
755.456	39.16
755.635	39.59
755.815	40.76
755.994	42.03
756.173	40.14
756.352	39.43
756.532	39.59
756.711	41.28
756.89	39.97
757.069	38.09
757.248	37.75
757.427	36.43
757.607	34.78
757.786	35.55
757.965	32.96
758.144	34.19
758.323	32.91
758.502	32.39
758.681	33.21
758.86	33.8
759.039	34.68
759.218	35.07
759.397	34.99
759.576	35.86
759.755	35.97
759.934	38.63
760.113	37.86
760.291	39.09
760.47	40.96
760.649	39.79
760.828	40.63
761.007	41.83
761.186	43.7
761.364	43.72
761.543	43.98
761.722	43.03
761.901	42.27
762.079	43.04
762.258	43.3
762.437	42.18
762.615	43.17
762.794	42.24
762.972	41.35
763.151	40.68
763.33	41.16
763.508	42.19
763.687	42.68
763.865	42.4
764.044	41.93
764.222	41.61
764.401	41.98
764.579	41.4
764.758	41.88
764.936	41.4
765.114	41.63
765.293	41.86
765.471	40.83
765.65	40.74
765.828	40.49
766.006	41.26
766.184	40.61
766.363	39.83
766.541	40.82
766.719	40.64
766.898	40.23
767.076	40.61
767.254	39.54
767.432	41.11
767.61	41.05
767.788	40.67
767.967	40.52
768.145	41.44
768.323	42.78
768.501	41.24
768.679	42.04
768.857	42.68
769.035	40.11
769.213	42.36
769.391	40.13
769.569	39.68
769.747	42.04
769.925	40.5
770.103	38.95
770.281	38.01
770.459	39.86
770.636	40.29
770.814	40.24
770.992	41.07
771.17	40.75
771.348	40.12
771.525	40.12
771.703	37.79
771.881	40.68
772.059	43.16
772.236	46.53
772.414	43.65
772.592	41.74
772.769	43.22
772.947	43.95
773.125	43.27
773.302	43.94
773.48	44.83
773.657	46.27
773.835	46.78
774.013	47.29
774.19	44.49
774.368	46.45
774.545	46.87
774.723	45.56
774.9	46.37
775.077	45.42
775.255	43.84
775.432	42.49
775.61	41.27
775.787	40.03
775.964	36.49
776.142	35.42
776.319	34.75
776.496	38.6
776.674	38.16
776.851	36.84
777.028	34.32
777.205	35.75
777.382	36.18
777.56	35.96
777.737	33.65
777.914	32.55
778.091	31.28
778.268	29.78
778.445	25.69
778.622	26.72
778.8	27.47
778.977	28.69
779.154	28.96
779.331	29.55
779.508	27.63
779.685	29.49
779.862	30.99
780.038	33.38
780.215	32.16
780.392	34.39
780.569	35.07
780.746	35.89
780.923	36.32
781.1	36.2
781.277	35.94
781.453	38.3
781.63	37.81
781.807	41.98
781.984	41.45
782.16	41.25
782.337	37.03
782.514	35.51
782.691	34.66
782.867	36.72
783.044	39.09
783.221	39.85
783.397	37.69
783.574	39.66
783.75	35.92
783.927	39
784.103	43.11
784.28	45.53
784.456	46.31
784.633	46.02
784.809	43.12
784.986	38.34
785.162	38.6
785.339	39.71
785.515	37.95
785.692	39.35
785.868	35.51
786.044	31.66
786.221	28.29
786.397	30.83
786.573	33.39
786.749	37.66
786.926	39.04
787.102	36.64
787.278	36.58
787.454	36.37
787.631	35.08
787.807	33.57
787.983	34.13
788.159	38.16
788.335	36.88
788.511	34.04
788.687	32.41
788.863	34.74
789.039	35.34
789.216	36.42
789.392	37.12
789.568	35.21
789.744	35.85
789.919	37.44
790.095	35.87
790.271	34.06
790.447	34.09
790.623	32.12
790.799	29.65
790.975	31.66
791.151	32.46
791.327	32.39
791.502	35.22
791.678	39.15
791.854	38.67
792.03	39.9
792.205	44.27
792.381	44.12
792.557	45.75
792.733	47.15
792.908	43.91
793.084	42.66
793.259	39.86
793.435	41.67
793.611	42.72
793.786	43.01
793.962	43.56
794.137	41.39
794.313	44.5
794.488	44.25
794.664	43.4
794.839	44.06
795.015	44.88
795.19	44.8
795.366	42.62
795.541	39.26
795.716	40.29
795.892	40.18
796.067	38.96
796.242	37.44
796.418	36.93
796.593	31.12
796.768	32.83
796.944	31.55
797.119	32.12
797.294	36.16
797.469	39.54
797.644	35.5
797.82	32.97
797.995	31.48
798.17	32.1
798.345	35.34
798.52	39.57
798.695	41.22
798.87	40.41
799.045	40.88
799.22	37.69
799.395	28.91
799.57	34.48
799.745	34.14
799.92	37.04
800.095	34.98
800.27	33.98
800.445	38.11
800.62	34.4
800.795	36.78
800.97	43
801.145	39.43
801.319	46.77
801.494	44.8
801.669	44.97
801.844	46.66
802.018	50.62
802.193	50.98
802.368	45.03
802.543	47.93
802.717	43.65
802.892	37.23
803.067	37.41
803.241	39.35
803.416	35.06
803.59	37.95
803.765	39.47
803.94	40.6
804.114	35.31
804.289	40.47
804.463	35.39
804.638	40.03
804.812	41.27
804.986	43.32
805.161	43.87
805.335	50.77
805.51	47.17
805.684	46.21
805.858	44.21
806.033	44.6
806.207	41.64
806.381	43.4
806.556	40.89
806.73	36.35
806.904	35.48
807.078	31.48
807.253	25.4
807.427	29.58
807.601	24.8
807.775	22.46
807.949	26.42
808.123	26.81
808.298	26.95
808.472	29.67
808.646	38.49
808.82	35.14
808.994	35.46
809.168	42.08
809.342	36.39
809.516	37.12
809.69	42.65
809.864	43.29
810.038	44.28
810.212	40
810.385	39
810.559	40.63
810.733	47.72
810.907	46.49
811.081	46
811.255	53.52
811.428	58.18
811.602	48.97
811.776	50.94
811.95	49.81
812.123	60.21
812.297	63.03
812.471	57.55
812.644	58.29
812.818	58.93
812.992	56.57
813.165	50.12
813.339	49.23
813.512	52.84
813.686	50.39
813.86	51.57
814.033	44.64
814.207	39.71
814.38	37.5
814.554	38.6
814.727	45.13
814.9	46.31
815.074	42.44
815.247	43.11
815.421	41.07
815.594	39.82
815.767	37.95
815.941	40.08
816.114	49.68
816.287	54.01
816.46	52.22
816.634	52.61
816.807	56.59
816.98	53.62
817.153	51.52
817.327	56.45
817.5	53.98
817.673	51.81
817.846	50.2
818.019	44.13
818.192	40.2
818.365	42.55
818.538	38.36
818.711	34.87
818.884	46.51
819.057	45.48
819.23	40.14
819.403	46.69
819.576	45.96
819.749	46.97
819.922	46.76
820.095	48.53
820.268	45.14
820.441	44.74
820.614	41.07
820.786	40.01
820.959	42.13
821.132	40.6
821.305	39.45
821.477	39.53
821.65	39.41
821.823	38.3
821.996	38.95
822.168	38.91
822.341	38.8
822.514	39.07
822.686	37.95
822.859	36.89
823.031	37.54
823.204	37.41
823.376	38.12
823.549	37.89
823.722	38.19
823.894	38.21
824.067	38.12
824.239	37.9
824.411	37.8
824.584	38.15
824.756	38.47
824.929	38.31
825.101	39.63
825.273	40.1
825.446	40.23
825.618	40.56
825.79	39.41
825.963	40.35
826.135	40.28
826.307	41.22
826.479	40.85
826.652	40.76
826.824	42.12
826.996	39.02
827.168	36.99
827.34	36.63
827.512	37.36
827.684	37.67
827.856	36.04
828.029	36.68
828.201	36.03
828.373	39.07
828.545	39.75
828.717	37.03
828.889	38.18
829.061	40.52
829.232	42.48
829.404	41.01
829.576	40.2
829.748	41.23
829.92	39.24
830.092	39.8
830.264	36.25
830.436	33.36
830.607	36.51
830.779	38.19
830.951	34.4
831.123	32.78
831.294	33.46
831.466	36.89
831.638	37.59
831.809	42.31
831.981	42.33
832.153	37.13
832.324	37.72
832.496	35.14
832.667	30.97
832.839	32.55
833.011	27.01
833.182	29.87
833.354	30.21
833.525	30.14
833.697	27.37
833.868	28.97
834.039	34.32
834.211	36.53
834.382	37.03
834.554	39.66
834.725	37.94
834.896	40.6
835.068	35.5
835.239	36.59
835.41	38.4
835.581	39.72
835.753	38.19
835.924	37.72
836.095	38.6
836.266	38.22
836.438	41.16
836.609	44.08
836.78	51.38
836.951	58.4
837.122	56.56
837.293	54.82
837.464	55.27
837.635	59.53
837.806	52.68
837.977	50.01
838.148	46.83
838.319	40.32
838.49	42.85
838.661	39.81
838.832	36.6
839.003	38.73
839.174	37.24
839.345	38.22
839.516	35.12
839.687	43.97
839.857	41.09
840.028	44.88
840.199	41.64
840.37	38.7
840.54	31.91
840.711	32.41
840.882	34.2
841.053	29.16
841.223	28.97
841.394	33.19
841.564	35
841.735	40.14
841.906	41.88
842.076	47.69
842.247	51.45
842.417	55.65
842.588	52.57
842.758	54.53
842.929	64.64
843.099	58.68
843.27	57.56
843.44	63.44
843.611	54.49
843.781	65.41
843.951	64.45
844.122	52.23
844.292	48.69
844.462	64.99
844.633	54.17
844.803	53.52
844.973	79.71
845.144	79.35
845.314	67.63
845.484	80.62
845.654	66.08
845.824	52.42
845.995	45.68
846.165	43.47
846.335	-5.87
846.505	-15.14
846.675	18.8
846.845	14.43
847.015	-12.21
847.185	9.49
847.355	31.81
847.525	28.42
847.695	30.39
847.865	51.07
848.035	45.36
848.205	57.5
848.375	53.53
848.545	22.42
848.715	-12.84
848.884	10.3
849.054	17.18
849.224	-36.92
849.394	-24.74
849.564	29.8
849.733	54.66
849.903	66.69
850.073	73.81
850.243	85.4
850.412	133.82
850.582	119.65
850.752	123.36
850.921	108.87
851.091	119.77
851.26	104.2
851.43	104.4
851.599	83.98
851.769	68.56
851.939	60.7
852.108	70.13
852.278	62.05
852.447	55.87
852.616	36.09
852.786	38.9
852.955	29.82
853.125	26.85
853.294	26.71
853.463	21.91
853.633	35.49
853.802	38.54
853.971	31.26
854.141	31.8
854.31	30.52
854.479	39.16
854.648	34.05
854.818	36.35
854.987	34.82
855.156	44.2
855.325	50.03
855.494	39.62
855.663	30.95
855.832	52.16
856.001	68.69
856.171	72.07
856.34	54.67
856.509	55.14
856.678	53.11
856.847	52.57
857.016	50.57
857.185	47.73
857.353	48.67
857.522	57.19
857.691	47.11
857.86	34.11
858.029	38.91
858.198	63.32
858.367	79.55
858.535	88.16
858.704	114.18
858.873	103.48
859.042	100.21
859.21	86.8
859.379	90.29
859.548	91.54
859.717	107.12
859.885	101.89
860.054	98.23
860.222	86.85
860.391	92.89
860.56	88.4
860.728	97.53
860.897	106.39
861.065	116.34
861.234	109.26
861.402	109.06
861.571	107.76
861.739	115.61
861.908	117.85
862.076	114.85
862.244	125.44
862.413	110.22
862.581	105.6
862.749	102.08
862.918	125.87
863.086	98.53
863.254	103.16
863.423	96.6
863.591	71.25
863.759	56.8
863.927	28.67
864.096	39.78
864.264	16.99
864.432	23.88
864.6	27.73
864.768	5.99
864.936	12.31
865.104	21.44
865.272	22.54
865.44	40.02
865.608	37.31
865.776	34.28
865.944	25.29
866.112	33.48
866.28	45.61
866.448	44.45
866.616	58.08
866.784	63.3
866.952	71.23
867.12	56.37
867.288	37.7
867.455	26.56
867.623	35.73
867.791	8.41
867.959	12.55
868.127	10.65
868.294	21.01
868.462	-13.59
868.63	-21.68
868.797	-62.78
868.965	-139.42
869.133	-88.31
869.3	-83.13
869.468	-48.7
869.636	-25.2
869.803	-112.59
869.971	-111.93
870.138	-82.04
870.306	-9.72
870.473	-0.41
870.641	27.19
870.808	15.6
870.975	21.21
871.143	13.72
871.31	2.34
871.478	-22.32
871.645	-5.98
871.812	-32.07
871.98	9.01
872.147	-41.22
872.314	18.3
872.482	5.43
872.649	55.22
872.816	36.17
872.983	17.91
873.15	36.48
873.318	62.66
873.485	77.68
873.652	69.78
873.819	50.22
873.986	49.9
874.153	11.51
874.32	16.9
874.487	-21.86
874.654	-19.56
874.821	66.74
874.988	-61.88
875.155	66.27
875.322	144.3
875.489	-80.42
875.656	73.49
875.823	122.7
875.99	-266.94
876.157	146.15
876.324	-16.38
876.49	25.28
876.657	24.7
876.824	46.94
876.991	38.16
877.157	36.34
877.324	55.14
877.491	64.56
877.658	53.16
877.824	51.51
877.991	60.47
878.157	64.19
878.324	55.9
878.491	41.4
878.657	33.09
878.824	23.22
878.99	20.33
879.157	18.81
879.323	34.57
879.49	8.78
879.656	-6.08
879.823	37.29
879.989	58.51
880.156	75.32
880.322	78.25
880.488	61.25
880.655	49.92
880.821	60.45
880.987	42.95
881.154	21.57
881.32	44.83
881.486	43.42
881.652	32.32
881.819	31.54
881.985	40.22
882.151	44.29
882.317	40.09
882.483	41.46
882.649	41.75
882.816	43.41
882.982	43.59
883.148	41.51
883.314	42.41
883.48	41.52
883.646	43.24
883.812	40.52
883.978	39.25
884.144	37.45
884.31	37.28
884.476	37.66
884.642	37.8
884.807	38.7
884.973	38.03
885.139	39.61
885.305	42.96
885.471	39.99
885.637	39.36
885.802	44.87
885.968	56.44
886.134	63.74
886.3	62.41
886.465	62.89
886.631	61.18
886.797	59.32
886.962	57.27
887.128	56.92
887.293	68.3
887.459	64.62
887.625	49.6
887.79	30.1
887.956	19.72
888.121	17.24
888.287	12.84
888.452	4.29
888.618	22.26
888.783	2.67
