Data from 2937883_Reflection_1.txt Node
Date: Wed Jul 15 14:39:43 EDT 2015
User: robert
Spectrometer: USB4E03001
Autoset integration time: false
Trigger mode: 4
Integration Time (sec): 1.000000E-1
Scans to average: 10
Electric dark correction enabled: true
Nonlinearity correction enabled: false
Boxcar width: 5
Stray light correction enabled: false
XAxis mode: Wavelengths
Stop averaging: false
Number of Pixels in Spectrum: 3648
>>>>>Begin Spectral Data<<<<<
177.566	75.44
177.785	96.16
178.005	89.39
178.225	70.85
178.445	368.73
178.665	177.35
178.885	25.7
179.105	65.73
179.324	95.79
179.544	137.66
179.764	257.82
179.984	160.92
180.204	250.51
180.423	315.49
180.643	486.48
180.863	-1543.99
181.083	-259.8
181.302	-1308.24
181.522	-301.17
181.742	-216.47
181.961	-113.07
182.181	-21.28
182.401	-32.75
182.621	-48.23
182.84	-53.27
183.06	-99.67
183.279	-100.5
183.499	-100.54
183.719	-24.83
183.938	-104.09
184.158	-121.78
184.377	-38400
184.597	-69.75
184.816	-22.8
185.036	-43.21
185.256	-80.68
185.475	-32.21
185.695	-34.38
185.914	-3714.16
186.134	382.72
186.353	419.77
186.572	550.7
186.792	705.08
187.011	381.67
187.231	365.44
187.45	305.03
187.67	300.29
187.889	981.26
188.108	483.06
188.328	-882.65
188.547	-2120.47
188.766	-1265.28
188.986	499.08
189.205	439.86
189.424	178.46
189.644	256.05
189.863	1349.36
190.082	472.31
190.302	209.53
190.521	245.02
190.74	330.44
190.959	-29300
191.178	1002.82
191.398	-74.11
191.617	-26.37
191.836	-61.3
192.055	-41.24
192.274	-60.82
192.494	-194.76
192.713	-826.21
192.932	773.14
193.151	1026.43
193.37	-183.58
193.589	-118.03
193.808	-248.32
194.027	-487.01
194.246	-341.4
194.465	2663.26
194.685	1033.91
194.904	4199.46
195.123	538.1
195.342	889.37
195.561	257.26
195.78	188.65
195.999	146.38
196.218	122.23
196.436	186.09
196.655	115.11
196.874	116.2
197.093	197.41
197.312	-128.78
197.531	-99.37
197.75	-74.1
197.969	-234.91
198.188	-325.25
198.407	-417.57
198.625	-307.75
198.844	-186.63
199.063	-134.22
199.282	-179.54
199.501	-277.89
199.719	-365.57
199.938	-256.44
200.157	-470.24
200.376	-368.83
200.594	-605.01
200.813	-584.82
201.032	-787.76
201.251	501.34
201.469	468.45
201.688	559.55
201.907	266.53
202.125	260.11
202.344	202.24
202.563	593.77
202.781	234.73
203	149.06
203.218	153.06
203.437	179.77
203.656	174.88
203.874	152.36
204.093	172.27
204.311	288.29
204.53	265.75
204.748	269.01
204.967	173.86
205.185	128.24
205.404	348.84
205.622	178.26
205.841	183.83
206.059	161.96
206.278	206.26
206.496	138.03
206.715	222.99
206.933	123.87
207.151	-222.41
207.37	-274.9
207.588	3120.41
207.806	894.71
208.025	-236.33
208.243	-687.27
208.461	-504.07
208.68	-386.23
208.898	-147.1
209.116	-62.17
209.335	-88.06
209.553	7163.41
209.771	278.25
209.989	-117.01
210.208	146.97
210.426	-0.61
210.644	-177.09
210.862	215.49
211.081	276.93
211.299	-69.33
211.517	72.42
211.735	253.2
211.953	-30.5
212.171	-190.03
212.39	-11508.57
212.608	-216.33
212.826	-133.97
213.044	-128.79
213.262	-168.09
213.48	-194.33
213.698	-302.84
213.916	-184.86
214.134	-713.18
214.352	-1794.9
214.57	-258.02
214.788	-111.23
215.006	-172.39
215.224	-94.88
215.442	-290.51
215.66	237.34
215.878	660.91
216.096	-1060.36
216.314	326.32
216.532	259.4
216.75	142.03
216.968	108.75
217.185	68.15
217.403	85.33
217.621	71.52
217.839	86.33
218.057	88.81
218.275	55.62
218.492	49.33
218.71	11.98
218.928	-232.73
219.146	66.7
219.363	240.36
219.581	335.4
219.799	264.76
220.017	-2.79
220.234	59.59
220.452	-1.26
220.67	59.5
220.887	77.26
221.105	75.07
221.323	73.92
221.54	51.2
221.758	39.57
221.976	43.53
222.193	59.39
222.411	35.81
222.629	43.24
222.846	54.85
223.064	61.34
223.281	29.92
223.499	46.52
223.716	40.41
223.934	77.12
224.151	73.92
224.369	97.17
224.586	68.48
224.804	79.76
225.021	79.07
225.239	64.35
225.456	38.53
225.674	53.84
225.891	34.73
226.108	54.8
226.326	37.57
226.543	46.8
226.76	40.7
226.978	48.3
227.195	40.91
227.413	24.85
227.63	30.98
227.847	38.3
228.064	31.69
228.282	32.45
228.499	28.9
228.716	29.86
228.934	28.18
229.151	29.22
229.368	26.42
229.585	27.86
229.802	34.06
230.02	31.92
230.237	27.24
230.454	27.01
230.671	24.8
230.888	23.58
231.105	21.66
231.323	21.59
231.54	23.75
231.757	24.56
231.974	25.94
232.191	19.18
232.408	25.59
232.625	30.38
232.842	39.17
233.059	36.45
233.276	42.9
233.493	43.3
233.71	43.79
233.927	45.74
234.144	37.5
234.361	39.66
234.578	38.67
234.795	31.96
235.012	32.35
235.229	29.92
235.446	40.17
235.663	34.72
235.879	26.95
236.096	33.55
236.313	20.67
236.53	32.35
236.747	17.65
236.964	22.99
237.181	27.62
237.397	31.61
237.614	33.83
237.831	27.64
238.048	26.47
238.264	31.56
238.481	30.45
238.698	31.74
238.915	25.55
239.131	32.08
239.348	27.93
239.565	29.21
239.781	27
239.998	23.84
240.215	24.68
240.431	22.93
240.648	22.51
240.865	17.06
241.081	21.68
241.298	20.2
241.514	19.75
241.731	21.13
241.947	18.86
242.164	17.49
242.38	15.11
242.597	14.15
242.814	14.05
243.03	15.55
243.246	18.89
243.463	16.27
243.679	16.97
243.896	15.02
244.112	15.73
244.329	17.4
244.545	17.76
244.762	19.45
244.978	18.58
245.194	20.15
245.411	20.11
245.627	17.88
245.843	20.01
246.06	19.63
246.276	19.75
246.492	18.49
246.709	17.53
246.925	18.86
247.141	18.78
247.357	20.16
247.574	20.19
247.79	17.24
248.006	17.61
248.222	17.66
248.439	16.96
248.655	16.57
248.871	16.35
249.087	15.83
249.303	13.6
249.519	14.1
249.736	13.51
249.952	11.37
250.168	15.67
250.384	15.22
250.6	15.92
250.816	16.33
251.032	19.6
251.248	18.89
251.464	20.83
251.68	23.62
251.896	19.91
252.112	19.41
252.328	19.62
252.544	16.9
252.76	13.43
252.976	11.68
253.192	12.45
253.408	11.26
253.624	12.48
253.84	11.25
254.056	9.04
254.272	9.9
254.487	11.87
254.703	11.52
254.919	15.2
255.135	19.36
255.351	18.35
255.567	20.18
255.782	21.25
255.998	22.41
256.214	24.79
256.43	25.77
256.646	28.95
256.861	26.72
257.077	23.68
257.293	23.31
257.508	24.17
257.724	23.38
257.94	20.55
258.155	18.8
258.371	16.76
258.587	15.28
258.802	14.7
259.018	13.58
259.234	13.11
259.449	14.42
259.665	14.15
259.88	13.43
260.096	13.39
260.312	13
260.527	13.26
260.743	13.88
260.958	13.69
261.174	12.55
261.389	13.21
261.605	12.91
261.82	11.82
262.036	11.71
262.251	12.93
262.466	13.15
262.682	14.78
262.897	15.35
263.113	11.35
263.328	10.58
263.543	10.98
263.759	8.43
263.974	9.36
264.189	11.27
264.405	10.36
264.62	7.71
264.835	5.84
265.051	4.45
265.266	5.69
265.481	10.28
265.696	10.93
265.912	11.28
266.127	11.7
266.342	10.52
266.557	9.95
266.773	10.54
266.988	13.51
267.203	14.74
267.418	15.54
267.633	13.39
267.848	12.37
268.064	10.96
268.279	11.54
268.494	11.85
268.709	11.55
268.924	11.83
269.139	11.86
269.354	10.47
269.569	10.34
269.784	10.15
269.999	9.38
270.214	8.67
270.429	10.75
270.644	10.83
270.859	12.94
271.074	13.17
271.289	10.15
271.504	10.99
271.719	10.21
271.934	10.1
272.149	10.22
272.363	11.94
272.578	11.9
272.793	10.79
273.008	10.81
273.223	9.81
273.438	10.9
273.653	12.67
273.867	11.87
274.082	12.5
274.297	12.75
274.512	14.13
274.726	13.46
274.941	15.66
275.156	17.18
275.371	17.98
275.585	16.77
275.8	15.22
276.015	17.62
276.229	17.03
276.444	16.64
276.659	17.58
276.873	13.82
277.088	14.19
277.302	13.02
277.517	14.93
277.732	14.48
277.946	13.03
278.161	13.48
278.375	12.64
278.59	14.67
278.804	13.21
279.019	12.56
279.233	14.53
279.448	12.68
279.662	10.7
279.877	7.52
280.091	6.73
280.306	9.45
280.52	9.7
280.735	11.11
280.949	9.48
281.163	11.78
281.378	10.75
281.592	10.74
281.806	11.79
282.021	13.69
282.235	14.07
282.449	12.9
282.664	12.26
282.878	13.64
283.092	10.79
283.307	10.77
283.521	9.7
283.735	10.24
283.949	9.42
284.164	11.14
284.378	9.93
284.592	10.66
284.806	11.76
285.02	11.39
285.234	11.06
285.449	13.08
285.663	13.48
285.877	14.81
286.091	14.97
286.305	15.76
286.519	14.85
286.733	14.9
286.947	14.61
287.161	16.02
287.375	16.24
287.589	14.66
287.803	14.05
288.017	13.76
288.231	11.86
288.445	11.84
288.659	11.72
288.873	10.61
289.087	13.19
289.301	13.15
289.515	10.25
289.729	11.32
289.943	12.69
290.157	12.24
290.371	13.92
290.584	15.53
290.798	15.92
291.012	16.49
291.226	17.83
291.44	16.15
291.654	15.1
291.867	16.98
292.081	14.49
292.295	15.57
292.509	14.93
292.722	12.35
292.936	11.15
293.15	10.99
293.364	10.24
293.577	9.81
293.791	10.15
294.005	11.1
294.218	10.02
294.432	12.45
294.645	11.69
294.859	12.59
295.073	13.44
295.286	13.67
295.5	12.92
295.713	13.56
295.927	11.74
296.14	12.92
296.354	12.6
296.568	15.1
296.781	14.83
296.994	14.1
297.208	14.78
297.421	15.15
297.635	14.09
297.848	15.71
298.062	15.07
298.275	16.14
298.489	14.9
298.702	15
298.915	14.18
299.129	14.69
299.342	15.08
299.555	14.95
299.769	14.59
299.982	16.87
300.195	16.85
300.409	16.37
300.622	16.18
300.835	16.83
301.048	18.52
301.262	18.66
301.475	18.91
301.688	20.98
301.901	20.3
302.115	20.27
302.328	19.61
302.541	17.01
302.754	17.93
302.967	18.84
303.18	17.54
303.393	17.94
303.607	16.59
303.82	18.22
304.033	16.67
304.246	17.36
304.459	18.19
304.672	17.79
304.885	18.42
305.098	16.78
305.311	18.09
305.524	20.36
305.737	20.3
305.95	22.13
306.163	20.13
306.376	19.64
306.589	19.45
306.802	18.42
307.015	17.86
307.228	18.12
307.44	21.77
307.653	20.05
307.866	19.93
308.079	19.05
308.292	17.88
308.505	20.16
308.718	19.88
308.93	19.25
309.143	20.9
309.356	21.96
309.569	22.95
309.781	20.69
309.994	20.67
310.207	21.36
310.42	21.35
310.632	21.63
310.845	19.71
311.058	20.37
311.27	19.09
311.483	17.84
311.696	17.55
311.908	17.12
312.121	17.23
312.333	18.2
312.546	19.07
312.759	18.7
312.971	17.81
313.184	18.15
313.396	17.75
313.609	21.69
313.821	21.59
314.034	21.03
314.246	23.52
314.459	25.42
314.671	24.42
314.884	21.08
315.096	21.1
315.309	22.05
315.521	22.04
315.733	21.7
315.946	17.85
316.158	18.26
316.371	19.25
316.583	17.18
316.795	16.21
317.008	18.78
317.22	20.93
317.432	20.43
317.644	20.86
317.857	22.21
318.069	21.18
318.281	22.29
318.494	23.61
318.706	24.23
318.918	24.07
319.13	23.19
319.342	21.05
319.555	19.53
319.767	20.02
319.979	18.46
320.191	19.84
320.403	22.15
320.615	22.61
320.827	20.7
321.039	21.94
321.252	22.48
321.464	21.69
321.676	22.34
321.888	21.48
322.1	22.35
322.312	24.22
322.524	21.78
322.736	22.23
322.948	22.5
323.16	22.14
323.372	21.16
323.584	19.59
323.796	19.53
324.007	18.93
324.219	21.55
324.431	21.22
324.643	20.07
324.855	17.86
325.067	16.5
325.279	15.15
325.491	15.22
325.702	15.38
325.914	15.8
326.126	15.67
326.338	17.48
326.55	15.08
326.761	13.82
326.973	13.03
327.185	14.85
327.396	12.72
327.608	12.47
327.82	14.5
328.032	13.96
328.243	14.64
328.455	15.47
328.666	14.22
328.878	16.33
329.09	17.99
329.301	18.47
329.513	19.91
329.725	22.54
329.936	23.28
330.148	21.96
330.359	21.44
330.571	22.43
330.782	23.86
330.994	24.4
331.205	23.82
331.417	24.26
331.628	23.53
331.84	22.36
332.051	22.82
332.262	23.63
332.474	24.25
332.685	25.89
332.897	25.7
333.108	25.38
333.319	24.84
333.531	24.4
333.742	22.41
333.953	24.44
334.165	25.1
334.376	25.8
334.587	24.84
334.799	25.57
335.01	23.51
335.221	22.42
335.432	21.59
335.644	22.78
335.855	23
336.066	23.6
336.277	23.33
336.488	23.23
336.7	22.68
336.911	23.85
337.122	23.2
337.333	24.61
337.544	25.13
337.755	25.78
337.966	23.52
338.177	23.78
338.388	24.93
338.599	24.19
338.811	24.1
339.022	23
339.233	22.42
339.444	21.78
339.655	20.01
339.866	20.6
340.076	20.6
340.287	22.85
340.498	22.69
340.709	21.67
340.92	23.34
341.131	23.92
341.342	24.8
341.553	26.09
341.764	26.91
341.975	27.26
342.185	26.11
342.396	25.94
342.607	25.31
342.818	24.86
343.029	24.06
343.239	23.7
343.45	22.9
343.661	23.19
343.872	21.56
344.082	20.83
344.293	20.58
344.504	20.97
344.714	21.28
344.925	20.89
345.136	20.71
345.346	20.85
345.557	20.21
345.768	21.38
345.978	21.27
346.189	21.64
346.399	23.07
346.61	25.31
346.821	26.83
347.031	26
347.242	25.66
347.452	26.71
347.663	27.3
347.873	28.16
348.084	26.75
348.294	26.25
348.504	27.76
348.715	26.15
348.925	24.6
349.136	24.27
349.346	23.62
349.557	23.17
349.767	23.03
349.977	23.75
350.188	23.06
350.398	23.47
350.608	23.1
350.819	21.15
351.029	19.5
351.239	19.69
351.449	18.39
351.66	19.57
351.87	20.96
352.08	20.32
352.29	19.67
352.501	20.5
352.711	20.4
352.921	20.32
353.131	20.79
353.341	23.42
353.552	22.75
353.762	23.14
353.972	24.74
354.182	22.99
354.392	23.28
354.602	23.67
354.812	22.64
355.022	23.27
355.232	24.77
355.442	24.79
355.652	23.27
355.862	22.5
356.072	22.03
356.282	20.34
356.492	21.92
356.702	21.91
356.912	21.29
357.122	22.16
357.332	21.52
357.542	19.81
357.752	19.91
357.962	21.04
358.171	22.1
358.381	21.66
358.591	21.81
358.801	20.26
359.011	20.2
359.221	21.52
359.43	20.62
359.64	19.01
359.85	19.26
360.06	18
360.269	17.95
360.479	16.64
360.689	17.92
360.899	18.71
361.108	20.24
361.318	20.81
361.528	20.54
361.737	20.55
361.947	21.53
362.156	21.82
362.366	22.5
362.576	22.39
362.785	22.97
362.995	21.5
363.204	20.9
363.414	20.64
363.623	19.78
363.833	19.23
364.042	18.27
364.252	19.68
364.461	19.41
364.671	19.61
364.88	18.86
365.09	18.9
365.299	19.41
365.509	18.86
365.718	17.89
365.927	18.88
366.137	18.72
366.346	19.36
366.555	19.15
366.765	18.39
366.974	17.69
367.183	18.86
367.393	18.43
367.602	17.87
367.811	18.43
368.021	17.73
368.23	16.67
368.439	17.95
368.648	18.07
368.857	17
369.067	17.84
369.276	17.85
369.485	17.03
369.694	17.63
369.903	18.11
370.112	17.54
370.321	19.07
370.531	18.7
370.74	17.68
370.949	17.37
371.158	17.51
371.367	18
371.576	17.46
371.785	17.55
371.994	17.24
372.203	17.85
372.412	17.85
372.621	16.43
372.83	16.44
373.039	16.16
373.248	16.42
373.457	15.98
373.666	15.53
373.874	16.08
374.083	15.54
374.292	15.4
374.501	14.75
374.71	15.75
374.919	16.34
375.128	16.63
375.336	16.18
375.545	15.87
375.754	15.58
375.963	15.32
376.171	15.32
376.38	15.85
376.589	15.58
376.798	15.54
377.006	15.39
377.215	15.25
377.424	14.59
377.632	15.49
377.841	15.65
378.05	15.94
378.258	16.4
378.467	16.13
378.675	15.33
378.884	16.19
379.093	16.47
379.301	15.99
379.51	16.86
379.718	17.55
379.927	16.66
380.135	16.62
380.344	17.23
380.552	17.24
380.761	17.66
380.969	18.18
381.177	17.22
381.386	17.16
381.594	17.17
381.803	17.09
382.011	16.47
382.219	16.52
382.428	15.89
382.636	15.26
382.845	14.62
383.053	14.68
383.261	15.05
383.469	15.21
383.678	15.91
383.886	16.02
384.094	15.31
384.302	15.54
384.511	15.31
384.719	16
384.927	15.86
385.135	15.93
385.343	15.94
385.552	15.9
385.76	15.95
385.968	14.76
386.176	14.64
386.384	14.12
386.592	14.07
386.8	14.01
387.008	13.47
387.216	13.82
387.424	13.64
387.633	13.99
387.841	13.44
388.049	13.09
388.257	13.53
388.465	13.45
388.672	14.07
388.88	14.28
389.088	14.39
389.296	14.12
389.504	13.41
389.712	12.95
389.92	12.26
390.128	12.19
390.336	12.07
390.544	12.05
390.751	11.79
390.959	11.8
391.167	11.24
391.375	11.19
391.583	11.81
391.79	11.57
391.998	11.88
392.206	11.99
392.414	12.19
392.621	12.36
392.829	12.21
393.037	11.87
393.244	11.69
393.452	11.8
393.66	11.72
393.867	11.52
394.075	12.07
394.283	12.59
394.49	12.2
394.698	12.09
394.905	12.11
395.113	11.92
395.32	11.8
395.528	11.77
395.735	11.84
395.943	12.12
396.15	12.37
396.358	11.88
396.565	10.82
396.773	11.22
396.98	11.76
397.188	11.45
397.395	11.64
397.602	11.96
397.81	12.11
398.017	11.47
398.225	11.16
398.432	10.78
398.639	10.48
398.847	11.43
399.054	11.12
399.261	10.53
399.468	10.65
399.676	10.03
399.883	10.07
400.09	9.69
400.297	10.05
400.505	10.11
400.712	10.21
400.919	10.78
401.126	10.25
401.333	10.22
401.54	9.65
401.748	9.63
401.955	9.83
402.162	9.67
402.369	9.82
402.576	10.03
402.783	9.46
402.99	9.4
403.197	9.41
403.404	9.54
403.611	9.61
403.818	9.94
404.025	9.89
404.232	10
404.439	10.16
404.646	9.85
404.853	9.63
405.06	10.3
405.267	10.25
405.474	10.03
405.681	9.73
405.887	9.68
406.094	9.69
406.301	9.88
406.508	10.02
406.715	9.9
406.922	9.79
407.128	9.88
407.335	9.56
407.542	9.74
407.749	9.72
407.955	9.78
408.162	9.77
408.369	9.84
408.575	9.75
408.782	9.87
408.989	9.77
409.195	10.08
409.402	10.12
409.609	10.23
409.815	10.01
410.022	10.16
410.228	10.2
410.435	10.1
410.642	9.86
410.848	9.96
411.055	9.79
411.261	10.06
411.468	10.12
411.674	10.18
411.881	10.01
412.087	10.25
412.294	10.15
412.5	10.22
412.706	10.63
412.913	10.6
413.119	10.62
413.326	10.92
413.532	10.8
413.738	10.71
413.945	10.73
414.151	11.11
414.357	10.85
414.564	11.04
414.77	10.91
414.976	10.7
415.182	11.02
415.389	10.78
415.595	10.5
415.801	10.75
416.007	10.74
416.214	10.89
416.42	10.56
416.626	10.5
416.832	10.6
417.038	10.56
417.244	10.43
417.45	10.24
417.657	10.36
417.863	10.18
418.069	9.88
418.275	9.71
418.481	9.58
418.687	9.53
418.893	9.47
419.099	9.18
419.305	9.27
419.511	9.41
419.717	9.44
419.923	9.32
420.129	9.28
420.335	9.26
420.541	9.49
420.746	9.42
420.952	9.49
421.158	9.53
421.364	9.53
421.57	9.26
421.776	9.1
421.982	9.03
422.187	9.19
422.393	9.3
422.599	9.23
422.805	9.09
423.01	9.31
423.216	9.37
423.422	9.26
423.628	9.29
423.833	9.25
424.039	9.18
424.245	9.24
424.45	9.02
424.656	9.16
424.862	9.28
425.067	9.2
425.273	8.94
425.478	8.79
425.684	8.74
425.889	8.63
426.095	8.94
426.301	9.02
426.506	9.12
426.712	9.2
426.917	8.95
427.123	8.81
427.328	8.93
427.533	8.8
427.739	8.96
427.944	9.05
428.15	9.07
428.355	8.88
428.561	8.88
428.766	8.63
428.971	8.59
429.177	8.75
429.382	8.78
429.587	8.97
429.793	9.11
429.998	8.96
430.203	8.93
430.408	8.96
430.614	9.38
430.819	9.37
431.024	9.61
431.229	9.61
431.434	9.25
431.64	9.44
431.845	9.38
432.05	9.17
432.255	9.14
432.46	9.27
432.665	9.06
432.87	8.74
433.076	8.71
433.281	8.5
433.486	8.33
433.691	8.62
433.896	8.32
434.101	8.17
434.306	8.45
434.511	8.54
434.716	8.45
434.921	8.55
435.126	8.39
435.331	8.36
435.535	8.3
435.74	8.28
435.945	8.1
436.15	8.27
436.355	8.21
436.56	8.14
436.765	8.18
436.97	8.35
437.174	8.52
437.379	8.76
437.584	8.61
437.789	8.84
437.993	8.97
438.198	9.02
438.403	8.9
438.608	8.92
438.812	9.02
439.017	9.15
439.222	8.99
439.426	9.06
439.631	9.11
439.836	9.33
440.04	9.21
440.245	9.22
440.45	9.2
440.654	9.37
440.859	9.32
441.063	9.13
441.268	8.94
441.472	9.02
441.677	8.96
441.881	9.02
442.086	8.87
442.29	9.1
442.495	9.08
442.699	8.9
442.904	8.6
443.108	8.66
443.312	8.73
443.517	8.8
443.721	8.81
443.925	8.66
444.13	8.55
444.334	8.53
444.538	8.45
444.743	8.51
444.947	8.75
445.151	9
445.356	8.92
445.56	8.92
445.764	8.85
445.968	8.83
446.173	8.97
446.377	8.84
446.581	8.83
446.785	8.62
446.989	8.56
447.193	8.57
447.398	8.47
447.602	8.52
447.806	8.54
448.01	8.66
448.214	8.53
448.418	8.3
448.622	8.29
448.826	8.6
449.03	8.72
449.234	8.8
449.438	8.69
449.642	8.8
449.846	8.66
450.05	8.81
450.254	8.41
450.458	8.68
450.662	8.97
450.866	9.07
451.069	9.02
451.273	9
451.477	8.98
451.681	8.84
451.885	8.86
452.089	9.16
452.292	9
452.496	9.2
452.7	9.03
452.904	8.86
453.107	8.9
453.311	8.85
453.515	8.81
453.719	8.7
453.922	9.13
454.126	9.11
454.33	9.01
454.533	9.09
454.737	9.04
454.94	9.05
455.144	8.92
455.348	9.14
455.551	8.87
455.755	8.99
455.958	9.01
456.162	8.68
456.365	8.77
456.569	8.69
456.772	8.59
456.976	8.86
457.179	8.75
457.383	8.94
457.586	9.02
457.79	9.1
457.993	9.06
458.196	9.18
458.4	9.33
458.603	9.08
458.807	8.86
459.01	8.61
459.213	8.47
459.417	8.53
459.62	8.25
459.823	8.07
460.026	8.07
460.23	8.12
460.433	8.07
460.636	8.05
460.839	8.16
461.042	8.38
461.246	8.57
461.449	8.57
461.652	8.56
461.855	8.7
462.058	8.56
462.261	8.48
462.464	8.23
462.668	8.22
462.871	8.17
463.074	8.22
463.277	8.17
463.48	8.59
463.683	8.58
463.886	8.62
464.089	9.03
464.292	9.22
464.495	9.43
464.698	9.87
464.901	9.71
465.104	9.51
465.306	9.29
465.509	9.39
465.712	8.94
465.915	8.9
466.118	8.77
466.321	8.69
466.524	8.72
466.726	8.61
466.929	8.3
467.132	8.22
467.335	8.33
467.538	8.39
467.74	8.34
467.943	8.41
468.146	8.44
468.348	8.42
468.551	8.45
468.754	8.54
468.956	8.27
469.159	8.34
469.362	8.6
469.564	8.5
469.767	8.46
469.969	8.19
470.172	8.22
470.375	8.47
470.577	8.51
470.78	8.33
470.982	8.03
471.185	8.44
471.387	8.27
471.59	8.21
471.792	8.21
471.995	8.24
472.197	8.43
472.399	8.22
472.602	8.03
472.804	7.91
473.007	8.01
473.209	8.18
473.411	8.03
473.614	8.31
473.816	8.5
474.018	8.63
474.22	8.47
474.423	8.4
474.625	8.74
474.827	8.62
475.03	8.93
475.232	8.89
475.434	9.06
475.636	8.94
475.838	9.01
476.04	8.71
476.243	8.61
476.445	8.67
476.647	8.77
476.849	8.57
477.051	8.65
477.253	8.43
477.455	8.22
477.657	7.92
477.859	8.17
478.061	7.91
478.263	7.97
478.465	8.02
478.667	7.93
478.869	7.72
479.071	7.72
479.273	7.57
479.475	7.56
479.677	7.71
479.879	7.73
480.081	7.4
480.283	7.52
480.485	7.49
480.686	7.47
480.888	7.71
481.09	8.02
481.292	8.07
481.494	8.23
481.695	8.3
481.897	8.47
482.099	8.63
482.301	8.78
482.502	8.7
482.704	8.6
482.906	8.66
483.107	8.67
483.309	8.59
483.511	8.51
483.712	8.46
483.914	8.49
484.115	8.39
484.317	8.36
484.519	8.34
484.72	8.28
484.922	8.33
485.123	8.26
485.325	8.21
485.526	8.15
485.728	8.14
485.929	8.13
486.131	8.1
486.332	8.15
486.534	8.13
486.735	8.08
486.936	8.18
487.138	8.19
487.339	8.13
487.541	8.19
487.742	8.27
487.943	8.29
488.144	8.3
488.346	8.31
488.547	8.28
488.748	8.24
488.95	8.26
489.151	8.3
489.352	8.26
489.553	8.37
489.755	8.25
489.956	8.16
490.157	8.27
490.358	8.34
490.559	8.35
490.76	8.42
490.961	8.49
491.163	8.6
491.364	8.46
491.565	8.39
491.766	8.35
491.967	8.39
492.168	8.38
492.369	8.33
492.57	8.32
492.771	8.27
492.972	8.18
493.173	8.1
493.374	7.94
493.575	8.11
493.776	8.26
493.976	8.31
494.177	8.41
494.378	8.67
494.579	8.85
494.78	8.9
494.981	9.16
495.182	9.21
495.382	9.27
495.583	9.27
495.784	9.14
495.985	9.1
496.185	9.19
496.386	9.12
496.587	8.83
496.788	8.56
496.988	8.51
497.189	8.31
497.39	8.39
497.59	8.28
497.791	8.45
497.992	8.56
498.192	8.68
498.393	8.58
498.593	8.42
498.794	8.51
498.994	8.75
499.195	8.77
499.395	8.93
499.596	8.87
499.796	9.06
499.997	9.05
500.197	8.77
500.398	8.52
500.598	8.53
500.799	8.72
500.999	8.9
501.199	8.66
501.4	8.71
501.6	8.61
501.801	8.58
502.001	8.63
502.201	8.63
502.402	8.84
502.602	9.13
502.802	9.18
503.002	9.16
503.203	9.03
503.403	9.34
503.603	9.27
503.803	9.12
504.003	9.34
504.204	9.29
504.404	9.16
504.604	9.21
504.804	9.06
505.004	9.17
505.204	9.25
505.404	9.28
505.604	9.16
505.804	9.19
506.005	9.46
506.205	9.32
506.405	9.32
506.605	9.39
506.805	9.5
507.005	9.67
507.204	9.52
507.404	9.49
507.604	9.46
507.804	9.4
508.004	9.55
508.204	9.59
508.404	9.5
508.604	9.56
508.804	9.64
509.003	9.4
509.203	9.32
509.403	9.36
509.603	9.35
509.803	9.36
510.002	9.3
510.202	9.3
510.402	9.31
510.602	9.37
510.801	9.38
511.001	9.42
511.201	9.55
511.4	9.62
511.6	9.67
511.8	9.85
511.999	9.9
512.199	10.09
512.398	9.92
512.598	9.94
512.797	9.98
512.997	9.85
513.197	9.66
513.396	9.76
513.596	9.88
513.795	9.9
513.994	9.86
514.194	9.94
514.393	9.96
514.593	10.02
514.792	9.97
514.992	10
515.191	10.2
515.39	10.31
515.59	10.41
515.789	10.37
515.988	10.33
516.188	10.33
516.387	10.2
516.586	10.19
516.786	10.34
516.985	10.38
517.184	10.47
517.383	10.55
517.582	10.66
517.782	10.65
517.981	10.63
518.18	10.84
518.379	10.94
518.578	11.05
518.777	10.99
518.976	11.08
519.176	11.12
519.375	11.16
519.574	11.07
519.773	11.06
519.972	10.96
520.171	11.04
520.37	10.97
520.569	10.88
520.768	10.89
520.967	10.99
521.166	11.02
521.365	11.12
521.564	11.01
521.762	11.15
521.961	11.24
522.16	11.29
522.359	11.39
522.558	11.34
522.757	11.29
522.956	11.33
523.154	11.44
523.353	11.58
523.552	11.56
523.751	11.74
523.949	11.67
524.148	11.65
524.347	11.75
524.546	11.74
524.744	11.82
524.943	11.87
525.142	11.81
525.34	11.78
525.539	11.64
525.737	11.76
525.936	11.76
526.135	11.83
526.333	11.97
526.532	12.16
526.73	12.17
526.929	12.27
527.127	12.45
527.326	12.57
527.524	12.7
527.723	12.75
527.921	12.63
528.12	12.62
528.318	12.62
528.516	12.62
528.715	12.56
528.913	12.61
529.112	12.57
529.31	12.52
529.508	12.5
529.707	12.48
529.905	12.44
530.103	12.42
530.301	12.53
530.5	12.6
530.698	12.59
530.896	12.71
531.094	12.7
531.293	12.81
531.491	12.92
531.689	13.08
531.887	13.21
532.085	13.46
532.283	13.52
532.481	13.53
532.68	13.69
532.878	13.71
533.076	13.6
533.274	13.69
533.472	13.82
533.67	13.91
533.868	13.88
534.066	13.78
534.264	13.71
534.462	13.83
534.66	13.92
534.858	13.93
535.056	14.05
535.253	14.22
535.451	14.33
535.649	14.25
535.847	14.14
536.045	14.34
536.243	14.47
536.441	14.48
536.638	14.49
536.836	14.4
537.034	14.32
537.232	14.33
537.43	14.22
537.627	14.16
537.825	14.21
538.023	14.32
538.22	14.34
538.418	14.25
538.616	14.34
538.813	14.37
539.011	14.57
539.209	14.65
539.406	14.7
539.604	14.84
539.801	14.82
539.999	14.97
540.196	15.1
540.394	15.03
540.591	15.23
540.789	15.42
540.986	15.54
541.184	15.48
541.381	15.56
541.579	15.52
541.776	15.66
541.974	15.75
542.171	15.72
542.368	15.64
542.566	15.6
542.763	15.48
542.96	15.37
543.158	15.42
543.355	15.48
543.552	15.54
543.75	15.75
543.947	15.64
544.144	15.6
544.341	15.68
544.539	15.86
544.736	16.05
544.933	16.28
545.13	16.42
545.327	16.41
545.524	16.44
545.722	16.43
545.919	16.33
546.116	16.5
546.313	16.68
546.51	16.73
546.707	16.76
546.904	16.82
547.101	16.73
547.298	16.87
547.495	16.94
547.692	17.05
547.889	17.17
548.086	17.18
548.283	17.08
548.48	17.05
548.677	17.08
548.874	17.11
549.07	17.35
549.267	17.69
549.464	17.58
549.661	17.64
549.858	17.73
550.055	17.61
550.251	17.81
550.448	17.89
550.645	18.06
550.842	18.23
551.038	18.61
551.235	18.45
551.432	18.38
551.628	18.55
551.825	18.57
552.022	18.65
552.218	18.78
552.415	18.76
552.612	19.08
552.808	19.12
553.005	18.94
553.201	18.79
553.398	18.89
553.594	18.9
553.791	19.03
553.987	19.34
554.184	19.41
554.38	19.65
554.577	19.68
554.773	19.81
554.97	19.92
555.166	20.21
555.362	20.29
555.559	20.46
555.755	20.64
555.952	20.54
556.148	20.57
556.344	20.64
556.541	20.51
556.737	20.75
556.933	20.68
557.129	20.76
557.326	20.72
557.522	20.99
557.718	21.04
557.914	21
558.11	21.13
558.307	21.13
558.503	21.06
558.699	21.22
558.895	21.3
559.091	21.33
559.287	21.43
559.483	21.39
559.679	21.28
559.876	21.3
560.072	21.7
560.268	21.76
560.464	21.78
560.66	21.97
560.856	22.09
561.052	22.1
561.247	22.27
561.443	22.14
561.639	22.41
561.835	22.58
562.031	22.4
562.227	22.18
562.423	22.36
562.619	22.25
562.815	22.45
563.01	22.36
563.206	22.45
563.402	22.4
563.598	22.61
563.793	22.41
563.989	22.67
564.185	22.64
564.381	22.82
564.576	22.73
564.772	23.02
564.968	22.95
565.163	23.27
565.359	23.54
565.555	23.55
565.75	23.57
565.946	24.05
566.141	23.82
566.337	24.17
566.532	24.37
566.728	24.43
566.923	24.55
567.119	24.74
567.314	24.56
567.51	24.43
567.705	24.52
567.901	24.66
568.096	24.47
568.292	24.78
568.487	24.85
568.682	24.76
568.878	24.8
569.073	24.84
569.268	24.69
569.464	25.02
569.659	25.29
569.854	25.37
570.05	25.42
570.245	25.6
570.44	25.47
570.635	25.67
570.831	25.68
571.026	25.65
571.221	25.45
571.416	25.61
571.611	25.45
571.806	25.29
572.002	25.48
572.197	25.53
572.392	25.49
572.587	25.65
572.782	25.76
572.977	25.79
573.172	26.01
573.367	26.3
573.562	26.19
573.757	26.53
573.952	26.77
574.147	26.67
574.342	26.75
574.537	26.97
574.732	26.81
574.927	26.65
575.121	26.9
575.316	26.75
575.511	26.58
575.706	26.9
575.901	27
576.096	27.05
576.29	27.1
576.485	27.02
576.68	27.1
576.875	27.28
577.069	27.16
577.264	27.1
577.459	27.33
577.654	27.29
577.848	27.35
578.043	26.99
578.238	27
578.432	27.15
578.627	27.12
578.821	26.81
579.016	26.94
579.21	27.14
579.405	27.31
579.6	27.2
579.794	27.54
579.989	27.23
580.183	27.4
580.378	27.52
580.572	27.53
580.766	27.68
580.961	27.83
581.155	27.72
581.35	27.55
581.544	27.39
581.738	27.45
581.933	27.32
582.127	27.58
582.321	27.63
582.516	27.45
582.71	27.43
582.904	27.44
583.099	27.66
583.293	27.52
583.487	27.84
583.681	27.91
583.875	28.25
584.07	28.37
584.264	28.15
584.458	28.03
584.652	28.2
584.846	28.3
585.04	28.5
585.234	28.23
585.428	28.49
585.623	28.29
585.817	28.31
586.011	28.38
586.205	28.56
586.399	28.72
586.593	28.67
586.787	28.57
586.981	28.5
587.174	28.32
587.368	28.57
587.562	28.69
587.756	28.92
587.95	28.81
588.144	28.78
588.338	28.63
588.532	28.45
588.725	28.63
588.919	28.85
589.113	28.92
589.307	29.02
589.501	29.14
589.694	28.99
589.888	28.93
590.082	29
590.275	28.93
590.469	29.17
590.663	29.2
590.856	29.08
591.05	28.9
591.244	28.93
591.437	28.78
591.631	28.51
591.824	28.54
592.018	29.03
592.212	28.92
592.405	28.81
592.599	28.51
592.792	28.76
592.986	28.94
593.179	29.19
593.372	29.14
593.566	29.54
593.759	29.67
593.953	29.72
594.146	29.07
594.339	29.01
594.533	29.16
594.726	29.33
594.92	29.28
595.113	29.4
595.306	29.36
595.499	29.63
595.693	29.68
595.886	29.73
596.079	29.77
596.272	30.02
596.466	30.4
596.659	30.57
596.852	30.66
597.045	30.77
597.238	30.75
597.431	30.75
597.624	30.6
597.818	30.49
598.011	30.75
598.204	30.72
598.397	30.79
598.59	30.63
598.783	30.59
598.976	30.53
599.169	30.58
599.362	30.7
599.555	30.61
599.748	30.84
599.941	30.98
600.134	30.73
600.326	30.91
600.519	30.76
600.712	30.59
600.905	30.66
601.098	30.75
601.291	30.86
601.483	30.86
601.676	31.02
601.869	30.77
602.062	30.78
602.255	30.91
602.447	30.89
602.64	31.16
602.833	31.52
603.025	31.32
603.218	31.21
603.411	31.08
603.603	31.15
603.796	30.93
603.989	31.03
604.181	31.15
604.374	31.17
604.566	31.14
604.759	30.78
604.951	30.53
605.144	30.67
605.336	30.54
605.529	30.66
605.721	30.44
605.914	30.82
606.106	30.9
606.299	30.83
606.491	30.79
606.683	30.77
606.876	31.38
607.068	31.53
607.26	31.59
607.453	32.04
607.645	31.7
607.837	31.81
608.03	31.34
608.222	31.36
608.414	31.25
608.606	31.04
608.799	31.1
608.991	30.43
609.183	30.41
609.375	29.99
609.567	29.46
609.759	29.49
609.952	29.48
610.144	29.59
610.336	29.32
610.528	29.09
610.72	29.24
610.912	29.21
611.104	29.39
611.296	29.19
611.488	29.23
611.68	29.57
611.872	29.82
612.064	29.9
612.256	29.67
612.448	29.75
612.64	29.81
612.832	29.71
613.023	29.68
613.215	30.03
613.407	30.26
613.599	30.81
613.791	30.9
613.983	30.84
614.174	30.56
614.366	31.04
614.558	30.98
614.75	31.05
614.941	31.19
615.133	31.32
615.325	30.98
615.516	31
615.708	30.79
615.9	30.94
616.091	31.18
616.283	31.5
616.475	31.34
616.666	32.04
616.858	32.16
617.049	31.89
617.241	31.57
617.432	31.96
617.624	31.99
617.815	31.63
618.007	31.24
618.198	31.06
618.39	30.97
618.581	30.66
618.773	30.32
618.964	30.19
619.155	30.52
619.347	30.53
619.538	30.41
619.729	30.52
619.921	30.79
620.112	31.24
620.303	31.53
620.494	31.6
620.686	31.69
620.877	31.79
621.068	31.91
621.259	31.9
621.451	31.79
621.642	31.84
621.833	31.72
622.024	31.64
622.215	31.2
622.406	30.92
622.597	30.91
622.788	31.26
622.98	30.9
623.171	30.97
623.362	31.01
623.553	31.11
623.744	30.87
623.935	30.84
624.126	30.97
624.317	31.13
624.508	31.29
624.698	31.28
624.889	31.07
625.08	31.25
625.271	31.19
625.462	30.97
625.653	31.11
625.844	31.57
626.034	31.59
626.225	31.46
626.416	31.7
626.607	31.92
626.798	32.25
626.988	32.73
627.179	32.5
627.37	32.49
627.56	32.63
627.751	32.84
627.942	32.57
628.132	32.75
628.323	32.86
628.514	32.7
628.704	32.43
628.895	32.21
629.085	31.81
629.276	31.88
629.466	32.09
629.657	32.32
629.847	32.41
630.038	32.49
630.228	32.21
630.419	32.38
630.609	32.22
630.8	32.5
630.99	32.52
631.181	32.41
631.371	32.86
631.561	33.21
631.752	33
631.942	33.14
632.132	33.29
632.323	33.57
632.513	33.57
632.703	33.51
632.893	33.34
633.084	33.28
633.274	33.35
633.464	33.28
633.654	33
633.844	33.15
634.034	32.76
634.225	32.69
634.415	32.44
634.605	32.24
634.795	32.6
634.985	32.15
635.175	32.25
635.365	32.31
635.555	32.05
635.745	32.13
635.935	31.86
636.125	31.75
636.315	31.77
636.505	32.23
636.695	32.38
636.885	32.19
637.075	32.5
637.265	32.63
637.455	33.01
637.644	33.4
637.834	32.93
638.024	32.8
638.214	33.11
638.404	32.93
638.593	32.67
638.783	33.01
638.973	33.01
639.163	33.36
639.352	33.04
639.542	32.79
639.732	32.68
639.921	32.58
640.111	32.73
640.301	32.99
640.49	33.38
640.68	33.56
640.87	32.95
641.059	33.06
641.249	32.67
641.438	32.87
641.628	33.48
641.817	33.37
642.007	33.98
642.196	33.7
642.386	33.23
642.575	32.97
642.764	32.84
642.954	32.93
643.143	33.32
643.333	33.34
643.522	33.04
643.711	32.74
643.901	32.47
644.09	32.5
644.279	32.74
644.469	32.61
644.658	32.78
644.847	33.1
645.036	33.47
645.226	33.38
645.415	33.67
645.604	34.28
645.793	33.88
645.982	33.99
646.171	33.82
646.361	34.19
646.55	34.54
646.739	34.24
646.928	33.87
647.117	33.75
647.306	33.47
647.495	32.92
647.684	32.4
647.873	32.97
648.062	33.16
648.251	33.14
648.44	32.71
648.629	32.78
648.818	32.52
649.007	32.45
649.196	32.36
649.384	32.74
649.573	32.9
649.762	33.08
649.951	32.54
650.14	32.78
650.328	32.87
650.517	32.89
650.706	32.67
650.895	33.27
651.083	33.35
651.272	33.12
651.461	32.52
651.65	32.65
651.838	32.44
652.027	32.55
652.216	32.38
652.404	32.37
652.593	32.92
652.781	33.12
652.97	32.98
653.158	33.4
653.347	33.83
653.535	33.64
653.724	33.69
653.912	33.78
654.101	33.57
654.289	33.62
654.478	33.45
654.666	33.29
654.855	33.24
655.043	33.16
655.231	33.05
655.42	33.09
655.608	33.76
655.796	34.14
655.985	34.08
656.173	34.09
656.361	34.1
656.55	33.67
656.738	33.54
656.926	33.45
657.114	33.66
657.302	33.33
657.491	33.04
657.679	33.1
657.867	33.28
658.055	33.54
658.243	33.44
658.431	33.51
658.619	34.42
658.807	34.43
658.996	34.57
659.184	34.75
659.372	34.97
659.56	35.13
659.748	34.96
659.936	34.85
660.124	34.8
660.311	34.88
660.499	34.65
660.687	34.35
660.875	34.15
661.063	34.06
661.251	33.62
661.439	33.77
661.627	33.44
661.814	33.42
662.002	33.16
662.19	33.6
662.378	33.54
662.565	33.62
662.753	33.45
662.941	33.99
663.129	33.52
663.316	33.51
663.504	33.1
663.692	33.99
663.879	33.86
664.067	33.78
664.254	33.52
664.442	33.9
664.63	33.91
664.817	33.95
665.005	33.11
665.192	33.65
665.38	33.33
665.567	33.66
665.755	33.48
665.942	33.79
666.13	34.04
666.317	33.53
666.504	33.72
666.692	33.92
666.879	34.41
667.067	34.99
667.254	35.25
667.441	35.81
667.629	35.9
667.816	35.79
668.003	35.65
668.19	35.84
668.378	36.31
668.565	35.87
668.752	35.36
668.939	34.93
669.127	34.67
669.314	35
669.501	34.96
669.688	34.67
669.875	34.64
670.062	34.82
670.249	34.56
670.436	34.36
670.623	34.42
670.81	34.64
670.997	34.38
671.184	34.97
671.371	34.73
671.558	34.34
671.745	34.37
671.932	33.89
672.119	34.18
672.306	34.34
672.493	34.5
672.68	34.58
672.867	34.82
673.054	35.23
673.24	35.07
673.427	34.57
673.614	35.45
673.801	35.67
673.988	35.86
674.174	35.54
674.361	35.21
674.548	34.72
674.734	34.71
674.921	35.01
675.108	34.65
675.294	34.87
675.481	35.48
675.668	34.89
675.854	35.04
676.041	35.15
676.227	35.34
676.414	35.74
676.601	36.4
676.787	36.48
676.974	36.44
677.16	36.87
677.347	36.81
677.533	36.76
677.719	36.64
677.906	36.33
678.092	36.48
678.279	36.39
678.465	35.68
678.651	35.81
678.838	36
679.024	35.89
679.21	35.91
679.397	35.6
679.583	35.29
679.769	35.49
679.955	35.73
680.142	35.61
680.328	35.46
680.514	35.83
680.7	35.34
680.886	35.13
681.073	34.77
681.259	34.86
681.445	34.8
681.631	34.96
681.817	35.36
682.003	35.4
682.189	35.55
682.375	35.72
682.561	35.5
682.747	35.95
682.933	35.98
683.119	36.11
683.305	35.75
683.491	36.09
683.677	36.46
683.863	35.94
684.049	35.96
684.235	35.98
684.42	35.69
684.606	36.54
684.792	36.52
684.978	36.2
685.164	36.13
685.349	36.56
685.535	36.65
685.721	35.91
685.907	35.77
686.092	35.77
686.278	35.63
686.464	35.97
686.649	35.71
686.835	35.53
687.021	35.9
687.206	36.44
687.392	35.87
687.577	35.24
687.763	35.24
687.948	35.62
688.134	35.23
688.319	35.93
688.505	36.33
688.69	36.4
688.876	36.17
689.061	36.02
689.247	35.77
689.432	36.62
689.618	37.23
689.803	37.59
689.988	37.9
690.174	38.09
690.359	37.45
690.544	36.62
690.73	36.4
690.915	36.75
691.1	37.17
691.285	37.16
691.471	36.9
691.656	36.99
691.841	36.48
692.026	35.94
692.211	35.6
692.396	35.36
692.582	35.37
692.767	35.26
692.952	35.77
693.137	36.25
693.322	36.09
693.507	35.3
693.692	35.05
693.877	35.39
694.062	34.77
694.247	35.07
694.432	35.52
694.617	36.22
694.802	35.99
694.987	35.24
695.172	34.39
695.357	34.15
695.541	34.68
695.726	35.08
695.911	35.3
696.096	35.99
696.281	36.23
696.466	35.95
696.65	35.58
696.835	35.75
697.02	35.88
697.204	36.8
697.389	36.48
697.574	37.11
697.759	37.3
697.943	36.46
698.128	36.29
698.312	35.9
698.497	36.11
698.682	36.57
698.866	36.65
699.051	36.76
699.235	36.82
699.42	37.11
699.604	36.83
699.789	36.23
699.973	37.29
700.158	37.29
700.342	37.4
700.527	37.83
700.711	36.99
700.895	36.86
701.08	36.53
701.264	35.38
701.448	34.82
701.633	33.71
701.817	33.61
702.001	33.1
702.186	33.14
702.37	33.5
702.554	33.3
702.738	33.27
702.923	33.35
703.107	33.87
703.291	34.22
703.475	35.8
703.659	37.24
703.843	37.19
704.027	37.19
704.212	37.42
704.396	37.38
704.58	37.26
704.764	38
704.948	39.06
705.132	38.84
705.316	39.47
705.5	39.09
705.684	38.7
705.868	38.23
706.052	38.82
706.235	38.81
706.419	38.68
706.603	38.14
706.787	37.66
706.971	36.75
707.155	36.75
707.339	35.46
707.522	35.56
707.706	34.57
707.89	34.77
708.074	34.49
708.257	34.78
708.441	34.3
708.625	34.24
708.808	34.44
708.992	34.84
709.176	34.5
709.359	36.27
709.543	35.22
709.727	35.16
709.91	35.59
710.094	34.93
710.277	34.65
710.461	35.06
710.644	35.12
710.828	35.67
711.011	35.33
711.195	35.92
711.378	35.31
711.562	36.68
711.745	36.87
711.928	36.86
712.112	37.71
712.295	37.7
712.478	37.83
712.662	37.97
712.845	37.62
713.028	37.56
713.212	37.42
713.395	36.51
713.578	36.05
713.761	36.3
713.945	36.95
714.128	36.38
714.311	36.46
714.494	36.8
714.677	36.11
714.86	36.43
715.043	36.38
715.227	36.33
715.41	37.6
715.593	37.42
715.776	38.47
715.959	37.91
716.142	37.75
716.325	38.03
716.508	37.73
716.691	39.02
716.874	38.69
717.057	38.51
717.239	38.39
717.422	38.07
717.605	38.29
717.788	37.64
717.971	38.1
718.154	39.15
718.337	39.08
718.519	39.34
718.702	39.13
718.885	39.24
719.068	40.35
719.25	39.83
719.433	39.54
719.616	40.42
719.798	40.51
719.981	40.57
720.164	40.49
720.346	40.86
720.529	40.34
720.712	40.52
720.894	40.22
721.077	39.69
721.259	40.88
721.442	40.13
721.624	39.57
721.807	39.5
721.989	39.2
722.172	38.24
722.354	38.4
722.537	38.65
722.719	38.12
722.901	38.47
723.084	38.75
723.266	38.89
723.448	40.07
723.631	40.69
723.813	42.33
723.995	42.44
724.178	42.73
724.36	42.28
724.542	42.22
724.724	42.1
724.907	42.82
725.089	42.2
725.271	41.41
725.453	40.56
725.635	39.36
725.817	37.35
725.999	37.36
726.181	37.28
726.364	37.57
726.546	36.97
726.728	37.17
726.91	36.7
727.092	37.16
727.274	38.32
727.456	38.48
727.638	38.84
727.819	39.54
728.001	39.74
728.183	40.28
728.365	39.62
728.547	40.26
728.729	40.65
728.911	40.69
729.093	40.63
729.274	40.9
729.456	40.7
729.638	41.28
729.82	40.19
730.001	39.92
730.183	39.9
730.365	40.24
730.546	40.8
730.728	40.66
730.91	41.19
731.091	40.83
731.273	39.05
731.455	38.71
731.636	38.05
731.818	39.47
731.999	38.48
732.181	37.93
732.362	37
732.544	36.29
732.725	36.33
732.907	34.66
733.088	35.54
733.27	36.28
733.451	37.31
733.633	38.31
733.814	37.47
733.995	38.5
734.177	38.81
734.358	39.64
734.539	39.5
734.721	38
734.902	38.84
735.083	38.16
735.264	37.49
735.446	36.97
735.627	35.8
735.808	35.02
735.989	34.48
736.17	34.77
736.351	34.14
736.533	34.66
736.714	35.53
736.895	35.64
737.076	34.86
737.257	34.14
737.438	33.57
737.619	33.32
737.8	34.72
737.981	34.83
738.162	34.26
738.343	35.1
738.524	35.79
738.705	36.61
738.886	37.21
739.067	37.88
739.247	38.4
739.428	39.73
739.609	39.85
739.79	38.75
739.971	38.15
740.151	38.66
740.332	38.81
740.513	39.03
740.694	40.58
740.874	38.87
741.055	38.82
741.236	40.82
741.417	40.54
741.597	40.08
741.778	41.01
741.958	40.37
742.139	39.6
742.32	38.29
742.5	37.79
742.681	35.82
742.861	36.78
743.042	37.19
743.222	35.78
743.403	35.02
743.583	36.22
743.764	35.87
743.944	38.56
744.124	40.46
744.305	40.21
744.485	39.22
744.666	37.82
744.846	37.91
745.026	38.24
745.207	38.78
745.387	39.82
745.567	38.92
745.747	39.21
745.928	39.25
746.108	38.29
746.288	40.3
746.468	39.08
746.648	40.57
746.829	42.06
747.009	41.05
747.189	40.53
747.369	40.42
747.549	40.92
747.729	41.27
747.909	40.88
748.089	40.47
748.269	40.41
748.449	41.41
748.629	40.29
748.809	40.51
748.989	39.98
749.169	39.35
749.349	39.92
749.529	39.66
749.709	39.04
749.889	38.96
750.068	39.13
750.248	37.39
750.428	36.96
750.608	37.11
750.788	34.99
750.967	35.64
751.147	34.37
751.327	32.8
751.507	32.88
751.686	32.96
751.866	32.22
752.046	31.59
752.225	33.52
752.405	35.52
752.585	37.7
752.764	39.23
752.944	39.62
753.123	40.97
753.303	41.92
753.482	41.41
753.662	42.51
753.841	41.13
754.021	41.64
754.2	40.29
754.38	39.56
754.559	38.01
754.739	35.84
754.918	34.55
755.097	34.93
755.277	35.41
755.456	36.47
755.635	36.09
755.815	38.2
755.994	38.4
756.173	37.07
756.352	37.33
756.532	36.37
756.711	36.87
756.89	37.24
757.069	38.28
757.248	36.98
757.427	35.24
757.607	36.72
757.786	36.53
757.965	36.43
758.144	38.27
758.323	37.17
758.502	39.75
758.681	40.03
758.86	40.7
759.039	41.43
759.218	41.26
759.397	43.91
759.576	43.24
759.755	43.24
759.934	41.81
760.113	43.35
760.291	44.61
760.47	43.49
760.649	45.16
760.828	45.58
761.007	43.98
761.186	44.78
761.364	43.61
761.543	43.42
761.722	43.19
761.901	44.94
762.079	42.79
762.258	42.29
762.437	40.47
762.615	40.61
762.794	40.95
762.972	40.99
763.151	41.39
763.33	40.71
763.508	40.33
763.687	40.2
763.865	38.86
764.044	40.08
764.222	39.72
764.401	39.9
764.579	39.05
764.758	38.55
764.936	38.28
765.114	38.68
765.293	39.48
765.471	39.15
765.65	38.56
765.828	39.31
766.006	38.24
766.184	38.44
766.363	39.06
766.541	38.95
766.719	39.14
766.898	38.45
767.076	37.86
767.254	36.9
767.432	37.48
767.61	39.89
767.788	39.6
767.967	39.05
768.145	39.72
768.323	39.86
768.501	39.86
768.679	41.73
768.857	42.18
769.035	40.71
769.213	41.35
769.391	40.84
769.569	40.03
769.747	40.65
769.925	41.26
770.103	42.29
770.281	42.46
770.459	43.46
770.636	41.82
770.814	40.24
770.992	41.11
771.17	39.94
771.348	39.66
771.525	37.01
771.703	37.74
771.881	38.9
772.059	35.52
772.236	34.38
772.414	31.17
772.592	31.07
772.769	33.53
772.947	34.46
773.125	36.12
773.302	36.54
773.48	41.17
773.657	39.88
773.835	39.86
774.013	43.18
774.19	44.16
774.368	46.1
774.545	47.88
774.723	48.26
774.9	46.8
775.077	46.44
775.255	45.37
775.432	42.47
775.61	41.51
775.787	41.18
775.964	40.8
776.142	40.58
776.319	42.21
776.496	38.82
776.674	38.75
776.851	38.71
777.028	39.93
777.205	40.11
777.382	39.7
777.56	41.25
777.737	41.73
777.914	41.83
778.091	41.85
778.268	39.86
778.445	40.05
778.622	40.7
778.8	41.83
778.977	41.56
779.154	38.68
779.331	39.88
779.508	40.1
779.685	38.79
779.862	35.65
780.038	36.82
780.215	38
780.392	41.08
780.569	39.83
780.746	40.45
780.923	40.72
781.1	41.76
781.277	42.7
781.453	41.64
781.63	41.27
781.807	42.62
781.984	42.7
782.16	43.97
782.337	38.92
782.514	38.01
782.691	36.66
782.867	34.33
783.044	37.74
783.221	37.49
783.397	36.47
783.574	37.45
783.75	37.03
783.927	36.74
784.103	35.88
784.28	39.18
784.456	36.97
784.633	36.82
784.809	39.06
784.986	38.61
785.162	38.3
785.339	41.52
785.515	39.46
785.692	39.22
785.868	39.9
786.044	39.68
786.221	40.29
786.397	42.12
786.573	43.29
786.749	44.16
786.926	44.48
787.102	41.78
787.278	37.76
787.454	38.79
787.631	40.58
787.807	40.48
787.983	38.25
788.159	35.97
788.335	35.24
788.511	37.31
788.687	36.07
788.863	35.53
789.039	43.2
789.216	45
789.392	47.44
789.568	47.53
789.744	47.02
789.919	49.36
790.095	53
790.271	55.79
790.447	54.23
790.623	56.17
790.799	56.72
790.975	55.19
791.151	55.28
791.327	53.39
791.502	52.19
791.678	51.37
791.854	45.87
792.03	45.44
792.205	47.29
792.381	44.96
792.557	43.24
792.733	42.41
792.908	36.98
793.084	38.51
793.259	39.84
793.435	38.04
793.611	38.65
793.786	43.24
793.962	37.55
794.137	35.47
794.313	38.77
794.488	37.93
794.664	40
794.839	42.33
795.015	38.82
795.19	37.99
795.366	41.53
795.541	40.75
795.716	37.24
795.892	39.64
796.067	39.65
796.242	40.73
796.418	42
796.593	40.99
796.768	42.28
796.944	42.26
797.119	44.84
797.294	43.54
797.469	46.81
797.644	50.17
797.82	51.11
797.995	51.87
798.17	47.74
798.345	45.06
798.52	44.14
798.695	42.12
798.87	45.56
799.045	41.52
799.22	40.79
799.395	37.03
799.57	37.98
799.745	36.4
799.92	34.12
800.095	33.57
800.27	36.7
800.445	37.47
800.62	34.74
800.795	33.08
800.97	33.84
801.145	34.75
801.319	37.5
801.494	33.16
801.669	35.18
801.844	39.89
802.018	39.87
802.193	37.78
802.368	35.94
802.543	33.32
802.717	37.15
802.892	36.6
803.067	37.78
803.241	31.98
803.416	37.55
803.59	35.08
803.765	28.81
803.94	29.37
804.114	29.84
804.289	30.97
804.463	35.94
804.638	36.57
804.812	37.85
804.986	33.67
805.161	37.73
805.335	37.44
805.51	35.64
805.684	37.74
805.858	39.1
806.033	39.93
806.207	41.46
806.381	38.88
806.556	37.41
806.73	41.28
806.904	45.46
807.078	44.38
807.253	39.88
807.427	41.04
807.601	40.26
807.775	39.92
807.949	40.71
808.123	39.37
808.298	40.95
808.472	38.6
808.646	34.69
808.82	39.22
808.994	44.89
809.168	46.24
809.342	53.35
809.516	50.38
809.69	55
809.864	53.16
810.038	54.9
810.212	55.77
810.385	58.9
810.559	60.22
810.733	56.69
810.907	46.76
811.081	46.21
811.255	48.23
811.428	53.45
811.602	50.12
811.776	55.3
811.95	56.24
812.123	61.48
812.297	57.74
812.471	59.91
812.644	59.95
812.818	65.58
812.992	75.08
813.165	68.06
813.339	66.7
813.512	64.99
813.686	63.71
813.86	61.01
814.033	58.74
814.207	59.09
814.38	60.43
814.554	57.29
814.727	59.15
814.9	52.6
815.074	49.97
815.247	47.74
815.421	42.72
815.594	42.57
815.767	45.59
815.941	47.67
816.114	50.07
816.287	48.09
816.46	49.92
816.634	46.99
816.807	44.06
816.98	43.72
817.153	49.58
817.327	52.86
817.5	49.71
817.673	46.86
817.846	42.56
818.019	36.35
818.192	35.67
818.365	31.22
818.538	33.68
818.711	37.34
818.884	35.25
819.057	36.33
819.23	37.71
819.403	36.16
819.576	37.89
819.749	38.23
819.922	42.81
820.095	43.23
820.268	50.63
820.441	48.23
820.614	46.77
820.786	46.17
820.959	41.74
821.132	39.03
821.305	40.71
821.477	40.99
821.65	40.7
821.823	39.75
821.996	38.27
822.168	37.23
822.341	36.76
822.514	36.99
822.686	38.54
822.859	39.14
823.031	39.9
823.204	40.25
823.376	39.45
823.549	39.42
823.722	39.12
823.894	39.99
824.067	40.14
824.239	41.17
824.411	41.74
824.584	41.3
824.756	40.94
824.929	40.63
825.101	40.83
825.273	41.49
825.446	41.41
825.618	42.87
825.79	42.07
825.963	42.51
826.135	41.85
826.307	40.83
826.479	42.32
826.652	43.12
826.824	43.6
826.996	43.5
827.168	45.93
827.34	46.6
827.512	44.48
827.684	44.18
827.856	44.03
828.029	45.28
828.201	45.98
828.373	44.19
828.545	45.07
828.717	43.27
828.889	42.7
829.061	39.39
829.232	38.8
829.404	40.61
829.576	43.46
829.748	40.48
829.92	39.2
830.092	39.31
830.264	41.72
830.436	38.62
830.607	42.57
830.779	42.26
830.951	43.92
831.123	47.24
831.294	47.17
831.466	45.98
831.638	47.07
831.809	47.56
831.981	49.98
832.153	47.02
832.324	47.03
832.496	49.34
832.667	49.19
832.839	45.06
833.011	44.08
833.182	47.45
833.354	46.41
833.525	49.42
833.697	43.67
833.868	38.12
834.039	42.73
834.211	45.98
834.382	44.11
834.554	44.99
834.725	45.56
834.896	40.83
835.068	37.39
835.239	37.67
835.41	38.8
835.581	41.59
835.753	46.77
835.924	43.31
836.095	40.44
836.266	39.65
836.438	40.47
836.609	41.51
836.78	51
836.951	57.75
837.122	55.62
837.293	56.21
837.464	58.4
837.635	56.44
837.806	54.67
837.977	56.34
838.148	53.44
838.319	49.94
838.49	51.62
838.661	51.06
838.832	51.54
839.003	53.85
839.174	47.55
839.345	51.28
839.516	54.23
839.687	56.81
839.857	55.4
840.028	65.06
840.199	61.77
840.37	58.81
840.54	57.26
840.711	51.57
840.882	53.99
841.053	53.72
841.223	46.83
841.394	42.18
841.564	37.93
841.735	40.43
841.906	38.53
842.076	40.13
842.247	40.36
842.417	38.28
842.588	39.93
842.758	37.01
842.929	38.2
843.099	44.44
843.27	49.35
843.44	54.12
843.611	56.23
843.781	60.61
843.951	71.06
844.122	73.75
844.292	74.4
844.462	77.41
844.633	76.7
844.803	79.32
844.973	85.21
845.144	82.75
845.314	83.18
845.484	84.36
845.654	68.31
845.824	62.51
845.995	67.93
846.165	77.62
846.335	77.59
846.505	82.22
846.675	84.31
846.845	71.06
847.015	72.45
847.185	65.24
847.355	76.16
847.525	94.77
847.695	104.34
847.865	93.16
848.035	87.18
848.205	63.16
848.375	54.79
848.545	61.13
848.715	69.54
848.884	63.08
849.054	76.18
849.224	55.15
849.394	52.94
849.564	34.64
849.733	32.26
849.903	31.59
850.073	55.71
850.243	58.65
850.412	54.76
850.582	62.05
850.752	69.43
850.921	66.04
851.091	75.38
851.26	75.54
851.43	75.15
851.599	68.79
851.769	65.67
851.939	69.47
852.108	61.57
852.278	60.89
852.447	58.44
852.616	55.31
852.786	50.24
852.955	46.48
853.125	43.55
853.294	57.7
853.463	62.69
853.633	59.06
853.802	55.22
853.971	66.7
854.141	57.91
854.31	48.1
854.479	49.2
854.648	53.79
854.818	30.68
854.987	28.43
855.156	21.89
855.325	29.02
855.494	42.18
855.663	29.47
855.832	22.16
856.001	41.43
856.171	39.2
856.34	34.93
856.509	32.65
856.678	51.61
856.847	45.84
857.016	50.93
857.185	51.33
857.353	46.92
857.522	58.34
857.691	66.29
857.86	56.64
858.029	68.02
858.198	55.06
858.367	61.04
858.535	56.63
858.704	74.78
858.873	78.51
859.042	78.9
859.21	95.71
859.379	82.09
859.548	74.36
859.717	89.22
859.885	85.2
860.054	109.55
860.222	104.75
860.391	110.44
860.56	110.36
860.728	100.91
860.897	105.58
861.065	93.46
861.234	114.53
861.402	126.14
861.571	91.41
861.739	98.36
861.908	61.81
862.076	95.75
862.244	95.25
862.413	60.58
862.581	73.15
862.749	86.72
862.918	94.49
863.086	111.38
863.254	72.52
863.423	122.74
863.591	106.22
863.759	98.3
863.927	55.31
864.096	33.45
864.264	17.7
864.432	9.31
864.6	68.73
864.768	90.02
864.936	80.31
865.104	93.24
865.272	103.69
865.44	107.25
865.608	147.95
865.776	155.76
865.944	171.48
866.112	161.97
866.28	163.63
866.448	119.87
866.616	81.44
866.784	87.86
866.952	84.01
867.12	82.92
867.288	82.96
867.455	61.24
867.623	61.11
867.791	66.16
867.959	68.27
868.127	88.44
868.294	107.28
868.462	102.54
868.63	93.4
868.797	89.44
868.965	82.74
869.133	73.5
869.3	87.43
869.468	86
869.636	100.5
869.803	95.96
869.971	83.48
870.138	63.27
870.306	64.71
870.473	50.51
870.641	48.39
870.808	55.63
870.975	81.8
871.143	82.11
871.31	76.17
871.478	49.95
871.645	42.35
871.812	24.32
871.98	37.5
872.147	12.97
872.314	35.61
872.482	28.68
872.649	54.86
872.816	31.23
872.983	29.32
873.15	55.11
873.318	59.44
873.485	45.67
873.652	45.99
873.819	41.64
873.986	71.18
874.153	80.7
874.32	87.28
874.487	42.95
874.654	73.47
874.821	80.53
874.988	48.77
875.155	54.01
875.322	62.31
875.489	78.85
875.656	81.81
875.823	82.87
875.99	85.97
876.157	92.63
876.324	90.65
876.49	92.29
876.657	102.9
876.824	111.59
876.991	121.47
877.157	108.94
877.324	112.21
877.491	106.08
877.658	85.7
877.824	92
877.991	70.35
878.157	80.19
878.324	83.51
878.491	66.38
878.657	95.33
878.824	86.22
878.99	100.69
879.157	106.84
879.323	109.15
879.49	123.54
879.656	92.23
879.823	75.76
879.989	65.43
880.156	47.9
880.322	46.29
880.488	40.77
880.655	32.04
880.821	29.68
880.987	27.25
881.154	33.55
881.32	34.37
881.486	40.91
881.652	42.35
881.819	42.31
881.985	46.4
882.151	51.61
882.317	50.59
882.483	48.24
882.649	49.54
882.816	51.64
882.982	47.25
883.148	42.91
883.314	38.53
883.48	41.4
883.646	46.54
883.812	46.82
883.978	44.16
884.144	47.52
884.31	49.04
884.476	46.49
884.642	46.35
884.807	48.85
884.973	50.89
885.139	53.98
885.305	55.27
885.471	48.47
885.637	44.76
885.802	46.89
885.968	44.13
886.134	42.12
886.3	42.07
886.465	41.36
886.631	41.26
886.797	46.28
886.962	48.09
887.128	40.95
887.293	49.15
887.459	65.11
887.625	60.77
887.79	54.33
887.956	65.2
888.121	71.78
888.287	73.25
888.452	75.16
888.618	75.54
888.783	75.27
