Data from 2937856_Reflection_1.txt Node
Date: Wed Jul 15 15:39:35 EDT 2015
User: robert
Spectrometer: USB4E03001
Autoset integration time: false
Trigger mode: 4
Integration Time (sec): 1.000000E-1
Scans to average: 10
Electric dark correction enabled: true
Nonlinearity correction enabled: false
Boxcar width: 5
Stray light correction enabled: false
XAxis mode: Wavelengths
Stop averaging: false
Number of Pixels in Spectrum: 3648
>>>>>Begin Spectral Data<<<<<
177.566	-421.2
177.785	-3142.86
178.005	337.94
178.225	315.08
178.445	287.12
178.665	259.26
178.885	50.7
179.105	-288.32
179.324	874.07
179.544	-531.45
179.764	-2318.75
179.984	485.91
180.204	340.03
180.423	139.45
180.643	176.13
180.863	111.73
181.083	93.08
181.302	73.7
181.522	72.92
181.742	104.92
181.961	104.53
182.181	103.13
182.401	135.38
182.621	100.74
182.84	116.61
183.06	117.03
183.279	145.4
183.499	145.56
183.719	162.6
183.938	137.63
184.158	117.31
184.377	140.99
184.597	345.44
184.816	187.92
185.036	166.62
185.256	317.11
185.475	202.37
185.695	234.35
185.914	295.62
186.134	280.61
186.353	289.74
186.572	1068.86
186.792	327.13
187.011	333.37
187.231	182.09
187.45	187.83
187.67	221.93
187.889	218.01
188.108	317.51
188.328	264.49
188.547	353.34
188.766	27913.64
188.986	526.32
189.205	193.93
189.424	136.48
189.644	189.68
189.863	309.89
190.082	255.1
190.302	327.74
190.521	195.79
190.74	186.93
190.959	104.61
191.178	56.56
191.398	98.07
191.617	190.5
191.836	418.66
192.055	-267.25
192.274	-182.35
192.494	752.79
192.713	339.7
192.932	212.14
193.151	156.63
193.37	230
193.589	185.43
193.808	140.5
194.027	53.43
194.246	59.77
194.465	83.02
194.685	125.01
194.904	185
195.123	672.24
195.342	-860.86
195.561	-350.97
195.78	-141.42
195.999	-124.17
196.218	-138.7
196.436	-64.94
196.655	-32911.76
196.874	838.53
197.093	-142.18
197.312	2.91
197.531	50.91
197.75	16.38
197.969	-14.37
198.188	-124.55
198.407	-5.85
198.625	11.34
198.844	-41.46
199.063	-9.46
199.282	8.73
199.501	-73.22
199.719	-88.31
199.938	-157.03
200.157	-209.97
200.376	-65.02
200.594	-99.61
200.813	-233.57
201.032	265.5
201.251	285.61
201.469	7877.03
201.688	405.21
201.907	318.81
202.125	160.86
202.344	173.82
202.563	96.5
202.781	98.81
203	213.19
203.218	297.19
203.437	3045.62
203.656	4012.36
203.874	235.21
204.093	317.42
204.311	474.7
204.53	551
204.748	398.92
204.967	248.91
205.185	168.68
205.404	109.39
205.622	125.18
205.841	100.14
206.059	113.23
206.278	141.04
206.496	141.46
206.715	134.72
206.933	214.62
207.151	226.34
207.37	-18.01
207.588	-152.56
207.806	-174.71
208.025	-27.36
208.243	-17.09
208.461	46.49
208.68	-37.47
208.898	557.91
209.116	278.24
209.335	-279.62
209.553	24.85
209.771	69.08
209.989	156.28
210.208	170.74
210.426	-1252.94
210.644	-118.1
210.862	-132.27
211.081	-225.8
211.299	-943.93
211.517	-636.79
211.735	-266.62
211.953	-85.39
212.171	-83.58
212.39	-138.2
212.608	-260.63
212.826	-193.06
213.044	-412.63
213.262	1308.93
213.48	-155.69
213.698	-316.54
213.916	-612.96
214.134	-110.85
214.352	-1067.77
214.57	405.86
214.788	296.08
215.006	401.44
215.224	-1655.28
215.442	365.33
215.66	320.25
215.878	305.31
216.096	445.66
216.314	-11010.14
216.532	1054.41
216.75	303.9
216.968	269.25
217.185	269.56
217.403	289.64
217.621	191.12
217.839	136.3
218.057	160.38
218.275	164.26
218.492	168.85
218.71	127.2
218.928	106.47
219.146	130.49
219.363	108.8
219.581	152.59
219.799	149.17
220.017	-327.54
220.234	104.24
220.452	98.49
220.67	174
220.887	213.85
221.105	-323.88
221.323	-132.16
221.54	285.67
221.758	142.02
221.976	25.11
222.193	35.89
222.411	6.88
222.629	43.48
222.846	16.25
223.064	1.05
223.281	-18.86
223.499	-20.5
223.716	-31.02
223.934	-51.88
224.151	-106.15
224.369	-27.74
224.586	-17.72
224.804	-25.84
225.021	-60.31
225.239	-73.28
225.456	111.31
225.674	539.13
225.891	-25.33
226.108	-46.74
226.326	95.56
226.543	45.27
226.76	5.36
226.978	-17.69
227.195	2.94
227.413	7.58
227.63	7.92
227.847	14
228.064	13.37
228.282	13.69
228.499	19.64
228.716	7.7
228.934	6.43
229.151	11.68
229.368	15.79
229.585	16.34
229.802	16.36
230.02	16.61
230.237	16.16
230.454	16.36
230.671	21.46
230.888	21.93
231.105	28.87
231.323	29
231.54	28.9
231.757	27.87
231.974	27.44
232.191	30.48
232.408	34.64
232.625	35.31
232.842	36.76
233.059	35
233.276	33.42
233.493	31.08
233.71	38.36
233.927	37.94
234.144	39.9
234.361	35.2
234.578	33.74
234.795	27.69
235.012	28.45
235.229	24.23
235.446	20.56
235.663	20.9
235.879	25.82
236.096	20.53
236.313	20.01
236.53	22.72
236.747	24.85
236.964	20.38
237.181	24.49
237.397	13.87
237.614	16.99
237.831	19.98
238.048	16.94
238.264	17.35
238.481	18.77
238.698	20.63
238.915	22.2
239.131	20.47
239.348	21.49
239.565	19.85
239.781	22.4
239.998	23.61
240.215	24.06
240.431	22.96
240.648	20.7
240.865	17.35
241.081	13.15
241.298	11.32
241.514	14.56
241.731	14.34
241.947	14.09
242.164	13.89
242.38	12.94
242.597	14.14
242.814	14.11
243.03	13.49
243.246	13.88
243.463	14.63
243.679	15.12
243.896	13.97
244.112	13.76
244.329	13.38
244.545	16.23
244.762	15.41
244.978	15.14
245.194	14.03
245.411	15.29
245.627	15.57
245.843	17.08
246.06	15.62
246.276	15.08
246.492	17.48
246.709	19.05
246.925	16.16
247.141	15.88
247.357	14.69
247.574	15.26
247.79	15.28
248.006	14.92
248.222	14.6
248.439	14.42
248.655	13.62
248.871	11.53
249.087	10.65
249.303	10.95
249.519	10.78
249.736	11.88
249.952	11.06
250.168	10.48
250.384	9.4
250.6	12.78
250.816	14.72
251.032	15.46
251.248	15.19
251.464	14.39
251.68	15.87
251.896	16.84
252.112	13.93
252.328	13.11
252.544	14.35
252.76	16.41
252.976	13.37
253.192	12.78
253.408	15.95
253.624	19.02
253.84	18.11
254.056	17.72
254.272	18.4
254.487	21.16
254.703	22.24
254.919	18.48
255.135	14.58
255.351	13.56
255.567	13.7
255.782	10.73
255.998	6.6
256.214	8.26
256.43	9.51
256.646	13.47
256.861	12.55
257.077	15.64
257.293	17.07
257.508	19.06
257.724	18.61
257.94	19.93
258.155	17.73
258.371	16.06
258.587	15.13
258.802	14.15
259.018	12.69
259.234	12.27
259.449	11.02
259.665	11.22
259.88	11.58
260.096	11.34
260.312	9.03
260.527	9.2
260.743	10.45
260.958	10.19
261.174	9.95
261.389	8.95
261.605	9.56
261.82	9.53
262.036	10.27
262.251	10.52
262.466	9.92
262.682	12.51
262.897	13.14
263.113	11.3
263.328	11.9
263.543	13.09
263.759	14.22
263.974	12.66
264.189	14.42
264.405	11.35
264.62	10.2
264.835	11.59
265.051	9.33
265.266	10.56
265.481	10.47
265.696	11.44
265.912	11.03
266.127	10.9
266.342	10.83
266.557	9.95
266.773	11.25
266.988	11.12
267.203	11.6
267.418	12.57
267.633	12.63
267.848	12.64
268.064	11.61
268.279	12.34
268.494	12.49
268.709	12.34
268.924	12.91
269.139	13.18
269.354	13.76
269.569	13.92
269.784	14.15
269.999	13.94
270.214	13.99
270.429	14.99
270.644	14.11
270.859	14.24
271.074	16.24
271.289	15.35
271.504	13.36
271.719	13.58
271.934	12.94
272.149	11.89
272.363	11.78
272.578	12.53
272.793	12.21
273.008	13.09
273.223	13.14
273.438	12.67
273.653	11.54
273.867	12.55
274.082	12.23
274.297	13.62
274.512	15.14
274.726	13.99
274.941	13.2
275.156	13.77
275.371	13.89
275.585	13.43
275.8	13.09
276.015	14.78
276.229	14.79
276.444	13.94
276.659	13.4
276.873	11.44
277.088	11.81
277.302	12.59
277.517	11.91
277.732	12.17
277.946	14.6
278.161	15.17
278.375	15.09
278.59	14.47
278.804	13.51
279.019	10.97
279.233	12.06
279.448	14.94
279.662	14.17
279.877	13.72
280.091	12.84
280.306	11.17
280.52	10.74
280.735	10.66
280.949	9.98
281.163	12.02
281.378	13.17
281.592	13.39
281.806	12.09
282.021	11.6
282.235	11.56
282.449	11.82
282.664	11.28
282.878	11.06
283.092	11.93
283.307	13.59
283.521	13.69
283.735	14.52
283.949	14.25
284.164	14.22
284.378	15.7
284.592	15.83
284.806	15.19
285.02	16.32
285.234	15.14
285.449	12.79
285.663	12.5
285.877	11.43
286.091	10.71
286.305	10.65
286.519	10.14
286.733	9.83
286.947	9.85
287.161	9.9
287.375	8.64
287.589	10.76
287.803	14.05
288.017	14.03
288.231	15.58
288.445	16.49
288.659	16.02
288.873	15.82
289.087	14.73
289.301	13.98
289.515	12.98
289.729	13.05
289.943	12.3
290.157	10.74
290.371	10.9
290.584	9.97
290.798	10.2
291.012	11.7
291.226	12.34
291.44	13.3
291.654	14.49
291.867	16.6
292.081	17.1
292.295	17.08
292.509	16.61
292.722	17.42
292.936	17.39
293.15	16.87
293.364	15.87
293.577	14.4
293.791	15.16
294.005	15.46
294.218	13.7
294.432	14.19
294.645	14.75
294.859	15.35
295.073	15.64
295.286	15.26
295.5	15.12
295.713	15.16
295.927	15.62
296.14	15.21
296.354	13.62
296.568	14.11
296.781	12.1
296.994	10.84
297.208	10.59
297.421	10.55
297.635	10.8
297.848	10.49
298.062	10.66
298.275	10.8
298.489	10.22
298.702	10.58
298.915	9.39
299.129	11.17
299.342	12.03
299.555	12.01
299.769	9.6
299.982	10.35
300.195	11.18
300.409	10.42
300.622	10.25
300.835	10.73
301.048	11.74
301.262	13.24
301.475	12.11
301.688	11.56
301.901	12.65
302.115	13.86
302.328	14.57
302.541	14.5
302.754	15.5
302.967	15.43
303.18	14.99
303.393	14.89
303.607	14.7
303.82	16.07
304.033	16.45
304.246	17.53
304.459	19.3
304.672	18.86
304.885	19.71
305.098	19.65
305.311	20.75
305.524	20.14
305.737	18.96
305.95	17.94
306.163	17.73
306.376	17.88
306.589	16.85
306.802	15.93
307.015	16.82
307.228	16.33
307.44	16.53
307.653	14.93
307.866	15.36
308.079	17.1
308.292	18.01
308.505	18.59
308.718	19.41
308.93	19.88
309.143	20.05
309.356	17.89
309.569	17.96
309.781	17.59
309.994	18.56
310.207	17.73
310.42	16.74
310.632	16.94
310.845	15.44
311.058	13.98
311.27	13.8
311.483	14.46
311.696	14.91
311.908	14.93
312.121	15.4
312.333	15.24
312.546	15.67
312.759	15.44
312.971	15.27
313.184	15.85
313.396	16.38
313.609	15
313.821	13.78
314.034	13.47
314.246	11.32
314.459	10.92
314.671	11.72
314.884	11.22
315.096	13.26
315.309	14.44
315.521	14.45
315.733	13.97
315.946	13.92
316.158	14.38
316.371	14.56
316.583	16.69
316.795	15.84
317.008	14.57
317.22	15.68
317.432	14.75
317.644	14.28
317.857	15.26
318.069	15.62
318.281	16.53
318.494	16.44
318.706	16.91
318.918	15.14
319.13	17.47
319.342	16.94
319.555	18.17
319.767	17.66
319.979	16.26
320.191	14.19
320.403	13.81
320.615	12.39
320.827	11.44
321.039	12.15
321.252	13.62
321.464	12.82
321.676	13.92
321.888	13.3
322.1	13.42
322.312	14.04
322.524	14.91
322.736	14.83
322.948	15.49
323.16	15.13
323.372	14.6
323.584	15.58
323.796	16.22
324.007	15.27
324.219	15.14
324.431	15.15
324.643	15.74
324.855	15
325.067	17.1
325.279	19.01
325.491	19.57
325.702	18.48
325.914	18.14
326.126	17.04
326.338	19.47
326.55	19.87
326.761	17.68
326.973	18.52
327.185	19.91
327.396	20
327.608	19.03
327.82	18.36
328.032	19.6
328.243	19.2
328.455	19.76
328.666	18.5
328.878	18.25
329.09	21.48
329.301	20.05
329.513	20.16
329.725	20.33
329.936	19.5
330.148	21.25
330.359	20.21
330.571	19.51
330.782	18.97
330.994	18.29
331.205	18.16
331.417	16.83
331.628	17.62
331.84	17.33
332.051	16.25
332.262	17.57
332.474	16.66
332.685	18.93
332.897	20.22
333.108	20.49
333.319	21.37
333.531	20.84
333.742	22.46
333.953	21.8
334.165	20.97
334.376	20.53
334.587	20.5
334.799	21.26
335.01	19.93
335.221	19.18
335.432	19.44
335.644	18.67
335.855	19.93
336.066	19.84
336.277	19.82
336.488	20.33
336.7	20.92
336.911	20.58
337.122	19.45
337.333	19.76
337.544	21.38
337.755	21.02
337.966	19.64
338.177	18.75
338.388	17.28
338.599	18.43
338.811	17.38
339.022	16.1
339.233	15.51
339.444	16.18
339.655	16.24
339.866	13.78
340.076	14.45
340.287	16.38
340.498	15.77
340.709	16.47
340.92	16.5
341.131	17.75
341.342	18.79
341.553	19.54
341.764	19.37
341.975	20.35
342.185	20.81
342.396	21.87
342.607	20.51
342.818	22.73
343.029	22.69
343.239	21.66
343.45	21.46
343.661	22.47
343.872	21.84
344.082	21.76
344.293	20.88
344.504	20.26
344.714	18.95
344.925	20.15
345.136	17.79
345.346	17.13
345.557	16.81
345.768	16.59
345.978	14.68
346.189	15.07
346.399	15.41
346.61	14.48
346.821	15.36
347.031	15.19
347.242	14.89
347.452	15.73
347.663	16.46
347.873	17.7
348.084	18.05
348.294	19.19
348.504	19.59
348.715	19.36
348.925	19.28
349.136	19.07
349.346	18.4
349.557	18.85
349.767	18.69
349.977	19.18
350.188	19.46
350.398	19.5
350.608	19.58
350.819	18.64
351.029	18.09
351.239	19.67
351.449	20.58
351.66	20.94
351.87	20.32
352.08	21.57
352.29	21
352.501	20.08
352.711	19.59
352.921	18.98
353.131	18.99
353.341	20.61
353.552	19.31
353.762	19.16
353.972	18.44
354.182	18.07
354.392	16.8
354.602	16.98
354.812	16.46
355.022	16.97
355.232	17.4
355.442	18.2
355.652	16.84
355.862	16.91
356.072	15.9
356.282	16.5
356.492	16.88
356.702	17.72
356.912	17.75
357.122	18.22
357.332	18.11
357.542	18.22
357.752	18.23
357.962	17.7
358.171	18.66
358.381	18.93
358.591	19.21
358.801	18.98
359.011	18.82
359.221	18.61
359.43	18.64
359.64	19.24
359.85	18.27
360.06	17.93
360.269	18.76
360.479	17.72
360.689	18.14
360.899	17.89
361.108	18.77
361.318	17.99
361.528	18.01
361.737	17.91
361.947	17.13
362.156	17.27
362.366	16.7
362.576	16.99
362.785	17.23
362.995	16.42
363.204	16.31
363.414	15.16
363.623	15.47
363.833	16.21
364.042	16.01
364.252	15.75
364.461	15.81
364.671	16.62
364.88	17.06
365.09	17.42
365.299	17.98
365.509	18.14
365.718	18.61
365.927	18.68
366.137	17.44
366.346	17.85
366.555	17.85
366.765	17.4
366.974	17.06
367.183	15.19
367.393	14.74
367.602	14.89
367.811	14.89
368.021	15.31
368.23	15.02
368.439	14.49
368.648	14.3
368.857	14.18
369.067	14.88
369.276	14.31
369.485	15.22
369.694	14.78
369.903	14.01
370.112	13.8
370.321	12.84
370.531	12.36
370.74	12.46
370.949	11.57
371.158	11.69
371.367	11.46
371.576	11.9
371.785	11.82
371.994	11.94
372.203	12.08
372.412	12.98
372.621	13.53
372.83	13.62
373.039	14.01
373.248	14.27
373.457	14.03
373.666	13.54
373.874	13.01
374.083	12.88
374.292	12.86
374.501	12.94
374.71	12.05
374.919	11.8
375.128	11.63
375.336	11.25
375.545	11.44
375.754	12.01
375.963	12.75
376.171	13.27
376.38	13.35
376.589	13.17
376.798	13.31
377.006	13.46
377.215	13.53
377.424	14.02
377.632	14.81
377.841	14.36
378.05	14.89
378.258	14.05
378.467	13.91
378.675	14.05
378.884	14.11
379.093	13.54
379.301	13.11
379.51	12.46
379.718	12.5
379.927	11.41
380.135	11.33
380.344	10.71
380.552	10.57
380.761	10.85
380.969	10.11
381.177	10.12
381.386	10.96
381.594	11.54
381.803	12.31
382.011	12.01
382.219	12.4
382.428	12.51
382.636	12.5
382.845	12.97
383.053	12.51
383.261	12.77
383.469	12.86
383.678	12.36
383.886	11.85
384.094	12
384.302	12.05
384.511	12.01
384.719	12
384.927	12.02
385.135	12.11
385.343	11.81
385.552	11.71
385.76	11.16
385.968	10.72
386.176	10.77
386.384	10.21
386.592	10.59
386.8	10.25
387.008	10.24
387.216	10.01
387.424	9.99
387.633	10.3
387.841	10.31
388.049	10.46
388.257	10.47
388.465	10.42
388.672	10.08
388.88	9.57
389.088	9.81
389.296	9.58
389.504	9.81
389.712	9.69
389.92	9.27
390.128	9.37
390.336	9.41
390.544	9.84
390.751	9.91
390.959	10.16
391.167	10.11
391.375	10.15
391.583	10
391.79	9.66
391.998	9.45
392.206	9.68
392.414	9.49
392.621	9.38
392.829	8.81
393.037	8.8
393.244	8.61
393.452	8.74
393.66	8.49
393.867	8.65
394.075	8.61
394.283	8.63
394.49	8.43
394.698	8.48
394.905	8.42
395.113	8.84
395.32	8.7
395.528	8.88
395.735	8.68
395.943	8.79
396.15	8.86
396.358	8.67
396.565	8.5
396.773	8.69
396.98	8.48
397.188	8.68
397.395	8.71
397.602	8.8
397.81	8.7
398.017	8.75
398.225	8.61
398.432	8.51
398.639	8.79
398.847	9.06
399.054	9
399.261	9.19
399.468	9.31
399.676	9.16
399.883	8.99
400.09	9.15
400.297	9.02
400.505	9.03
400.712	8.97
400.919	8.93
401.126	8.84
401.333	8.75
401.54	8.68
401.748	8.28
401.955	8.38
402.162	8.39
402.369	8.09
402.576	8.03
402.783	8.14
402.99	8.1
403.197	8.03
403.404	7.85
403.611	7.8
403.818	8.08
404.025	8.07
404.232	8.05
404.439	8.09
404.646	8.36
404.853	8.4
405.06	8.42
405.267	8.47
405.474	8.58
405.681	8.59
405.887	8.73
406.094	8.22
406.301	8.34
406.508	8.42
406.715	8.38
406.922	8.21
407.128	8.25
407.335	7.95
407.542	8.2
407.749	7.84
407.955	7.87
408.162	7.82
408.369	8.15
408.575	8.09
408.782	7.91
408.989	7.88
409.195	7.72
409.402	7.67
409.609	7.64
409.815	7.38
410.022	7.49
410.228	7.65
410.435	7.42
410.642	7.76
410.848	7.92
411.055	8.16
411.261	8.27
411.468	8.26
411.674	8.15
411.881	8.4
412.087	8.4
412.294	8.37
412.5	8.59
412.706	8.64
412.913	8.27
413.119	8.05
413.326	8
413.532	7.91
413.738	7.85
413.945	7.89
414.151	7.8
414.357	7.93
414.564	7.89
414.77	7.58
414.976	7.73
415.182	7.73
415.389	7.8
415.595	7.73
415.801	7.73
416.007	7.99
416.214	7.96
416.42	7.98
416.626	7.87
416.832	8.11
417.038	8.16
417.244	8.12
417.45	8.23
417.657	8.13
417.863	7.9
418.069	7.81
418.275	7.49
418.481	7.54
418.687	7.55
418.893	7.34
419.099	7.18
419.305	6.93
419.511	6.86
419.717	6.65
419.923	6.69
420.129	6.74
420.335	6.74
420.541	6.88
420.746	6.89
420.952	7
421.158	7.16
421.364	7.16
421.57	7.24
421.776	7.19
421.982	7.24
422.187	7.16
422.393	7.18
422.599	7.3
422.805	7.35
423.01	7.41
423.216	7.37
423.422	7.42
423.628	7.44
423.833	7.48
424.039	7.51
424.245	7.43
424.45	7.42
424.656	7.33
424.862	7.08
425.067	7.03
425.273	6.86
425.478	6.62
425.684	6.42
425.889	6.43
426.095	6.31
426.301	6.18
426.506	6.18
426.712	6.12
426.917	6.04
427.123	6.04
427.328	6.08
427.533	6
427.739	6.05
427.944	6.31
428.15	6.26
428.355	6.46
428.561	6.83
428.766	6.88
428.971	6.89
429.177	7.17
429.382	7.37
429.587	7.21
429.793	7.38
429.998	7.45
430.203	7.24
430.408	7.39
430.614	7.26
430.819	7.12
431.024	6.91
431.229	7.01
431.434	7.07
431.64	7.13
431.845	7.13
432.05	7.28
432.255	7.39
432.46	7.41
432.665	7.36
432.87	7.15
433.076	7.04
433.281	7.22
433.486	7.41
433.691	7.18
433.896	7.17
434.101	7.2
434.306	7.06
434.511	7.14
434.716	7.11
434.921	7.09
435.126	7.19
435.331	7.17
435.535	7.08
435.74	6.96
435.945	7
436.15	6.98
436.355	6.99
436.56	7.11
436.765	6.95
436.97	7.13
437.174	7.08
437.379	7.33
437.584	7.51
437.789	7.71
437.993	7.62
438.198	7.49
438.403	7.29
438.608	7.35
438.812	7.11
439.017	6.93
439.222	6.85
439.426	6.57
439.631	6.28
439.836	6.19
440.04	6.03
440.245	6
440.45	6.05
440.654	6.21
440.859	6
441.063	6.01
441.268	6.15
441.472	6.18
441.677	6.38
441.881	6.59
442.086	6.62
442.29	6.71
442.495	6.7
442.699	6.63
442.904	6.67
443.108	6.81
443.312	6.98
443.517	6.99
443.721	6.88
443.925	6.96
444.13	6.9
444.334	6.84
444.538	6.78
444.743	6.85
444.947	6.95
445.151	6.86
445.356	6.91
445.56	6.92
445.764	6.82
445.968	6.69
446.173	6.63
446.377	6.68
446.581	6.61
446.785	6.64
446.989	6.54
447.193	6.56
447.398	6.49
447.602	6.28
447.806	6.23
448.01	6.33
448.214	6.36
448.418	6.28
448.622	6.25
448.826	6.32
449.03	6.24
449.234	6.43
449.438	6.44
449.642	6.32
449.846	6.49
450.05	6.48
450.254	6.36
450.458	6.44
450.662	6.53
450.866	6.53
451.069	6.66
451.273	6.66
451.477	6.49
451.681	6.58
451.885	6.87
452.089	7.01
452.292	7.12
452.496	7.04
452.7	7.24
452.904	7.12
453.107	7.06
453.311	6.82
453.515	6.89
453.719	6.92
453.922	6.72
454.126	6.68
454.33	6.55
454.533	6.34
454.737	6.36
454.94	6.3
455.144	6.49
455.348	6.56
455.551	6.64
455.755	6.56
455.958	6.64
456.162	6.74
456.365	6.78
456.569	6.82
456.772	6.78
456.976	6.74
457.179	6.47
457.383	6.36
457.586	6.34
457.79	6.61
457.993	6.65
458.196	6.54
458.4	6.67
458.603	6.55
458.807	6.51
459.01	6.63
459.213	6.71
459.417	6.7
459.62	6.66
459.823	6.47
460.026	6.26
460.23	6.23
460.433	6.28
460.636	6.16
460.839	6.02
461.042	6.01
461.246	6
461.449	5.98
461.652	6.16
461.855	6.1
462.058	6.34
462.261	6.31
462.464	6.46
462.668	6.44
462.871	6.48
463.074	6.83
463.277	6.74
463.48	6.75
463.683	6.68
463.886	6.61
464.089	6.74
464.292	6.51
464.495	6.66
464.698	6.36
464.901	6.23
465.104	6.14
465.306	5.99
465.509	6.04
465.712	6.03
465.915	5.86
466.118	5.84
466.321	5.72
466.524	5.87
466.726	5.78
466.929	5.95
467.132	5.91
467.335	5.9
467.538	5.92
467.74	5.91
467.943	5.77
468.146	5.83
468.348	5.76
468.551	5.9
468.754	5.81
468.956	5.74
469.159	5.68
469.362	5.74
469.564	5.8
469.767	5.8
469.969	5.75
470.172	5.67
470.375	5.85
470.577	5.97
470.78	5.8
470.982	5.91
471.185	6.07
471.387	6.26
471.59	6.47
471.792	6.3
471.995	6.19
472.197	6.2
472.399	6.33
472.602	6.3
472.804	6.28
473.007	6.39
473.209	6.42
473.411	6.45
473.614	6.17
473.816	6.1
474.018	6.24
474.22	6.4
474.423	6.5
474.625	6.55
474.827	6.66
475.03	6.62
475.232	6.51
475.434	6.54
475.636	6.46
475.838	6.6
476.04	6.41
476.243	6.41
476.445	6.46
476.647	6.27
476.849	6.25
477.051	6.32
477.253	6.25
477.455	6.29
477.657	6.26
477.859	6.25
478.061	6.32
478.263	6.22
478.465	6.31
478.667	6.24
478.869	6.28
479.071	6.25
479.273	6.04
479.475	6.01
479.677	6.04
479.879	5.91
480.081	5.93
480.283	5.78
480.485	5.81
480.686	5.71
480.888	5.69
481.09	5.9
481.292	5.89
481.494	5.88
481.695	5.91
481.897	5.83
482.099	5.98
482.301	5.9
482.502	5.96
482.704	5.97
482.906	6.04
483.107	6.1
483.309	6.03
483.511	6.01
483.712	6
483.914	5.98
484.115	6
484.317	5.96
484.519	5.98
484.72	5.94
484.922	5.99
485.123	5.91
485.325	5.83
485.526	5.87
485.728	5.88
485.929	5.93
486.131	5.98
486.332	6.01
486.534	6.04
486.735	6.13
486.936	6.14
487.138	6.14
487.339	6.22
487.541	6.27
487.742	6.22
487.943	6.26
488.144	6.21
488.346	6.19
488.547	6.17
488.748	6.12
488.95	6.05
489.151	6.11
489.352	6.02
489.553	5.95
489.755	5.93
489.956	5.97
490.157	5.9
490.358	5.91
490.559	5.89
490.76	5.95
490.961	6.01
491.163	6.08
491.364	6.04
491.565	6.09
491.766	6.2
491.967	6.15
492.168	6.11
492.369	6.04
492.57	6.05
492.771	6.15
492.972	6.14
493.173	6.18
493.374	6.01
493.575	6.09
493.776	6.08
493.976	6.06
494.177	6.1
494.378	6.19
494.579	6.39
494.78	6.5
494.981	6.29
495.182	6.24
495.382	6.18
495.583	6.24
495.784	6.21
495.985	6.32
496.185	6.36
496.386	6.37
496.587	6.42
496.788	6.37
496.988	6.27
497.189	6.4
497.39	6.47
497.59	6.42
497.791	6.51
497.992	6.52
498.192	6.51
498.393	6.43
498.593	6.49
498.794	6.3
498.994	6.31
499.195	6.42
499.395	6.46
499.596	6.43
499.796	6.6
499.997	6.67
500.197	6.65
500.398	6.62
500.598	6.58
500.799	6.42
500.999	6.45
501.199	6.49
501.4	6.38
501.6	6.35
501.801	6.37
502.001	6.25
502.201	6.31
502.402	6.43
502.602	6.66
502.802	6.74
503.002	6.73
503.203	6.85
503.403	6.88
503.603	7.01
503.803	7.03
504.003	7.07
504.204	7.18
504.404	7.02
504.604	6.92
504.804	6.82
505.004	6.69
505.204	6.93
505.404	6.91
505.604	7.04
505.804	6.78
506.005	6.83
506.205	6.81
506.405	6.86
506.605	6.93
506.805	6.78
507.005	6.86
507.204	7
507.404	7.09
507.604	7.2
507.804	7.12
508.004	7.26
508.204	7.21
508.404	7.22
508.604	7.04
508.804	7.14
509.003	7.25
509.203	7.22
509.403	7.09
509.603	6.93
509.803	6.88
510.002	6.89
510.202	7.1
510.402	7.05
510.602	7.07
510.801	7.15
511.001	7.1
511.201	7.2
511.4	7.04
511.6	7.15
511.8	7.15
511.999	7.13
512.199	7.33
512.398	7.25
512.598	7.25
512.797	7.24
512.997	7.26
513.197	7.14
513.396	7.18
513.596	7.26
513.795	7.08
513.994	7.12
514.194	7.23
514.393	7.01
514.593	6.98
514.792	7.05
514.992	6.98
515.191	6.91
515.39	7.05
515.59	7.04
515.789	7.09
515.988	7.29
516.188	7.5
516.387	7.36
516.586	7.33
516.786	7.1
516.985	7.08
517.184	7.15
517.383	7.12
517.582	7.05
517.782	7.05
517.981	7.12
518.18	7.14
518.379	6.98
518.578	6.92
518.777	6.91
518.976	7.09
519.176	7.07
519.375	7.05
519.574	7.12
519.773	7.21
519.972	7.12
520.171	6.95
520.37	6.92
520.569	6.85
520.768	6.91
520.967	7.1
521.166	7.09
521.365	7.07
521.564	7.12
521.762	7.08
521.961	7.11
522.16	7.22
522.359	7.41
522.558	7.49
522.757	7.63
522.956	7.72
523.154	7.64
523.353	7.59
523.552	7.68
523.751	7.73
523.949	7.76
524.148	7.72
524.347	7.73
524.546	7.61
524.744	7.56
524.943	7.63
525.142	7.48
525.34	7.37
525.539	7.58
525.737	7.58
525.936	7.6
526.135	7.7
526.333	7.73
526.532	7.68
526.73	7.82
526.929	7.81
527.127	7.76
527.326	7.94
527.524	8.02
527.723	7.95
527.921	7.95
528.12	7.9
528.318	7.84
528.516	7.87
528.715	7.87
528.913	7.85
529.112	7.83
529.31	7.81
529.508	7.81
529.707	7.84
529.905	7.85
530.103	7.88
530.301	7.87
530.5	7.94
530.698	7.86
530.896	7.89
531.094	7.95
531.293	8.07
531.491	8.28
531.689	8.37
531.887	8.3
532.085	8.31
532.283	8.33
532.481	8.44
532.68	8.46
532.878	8.6
533.076	8.6
533.274	8.66
533.472	8.65
533.67	8.56
533.868	8.5
534.066	8.61
534.264	8.65
534.462	8.7
534.66	8.76
534.858	8.84
535.056	8.8
535.253	8.95
535.451	8.88
535.649	8.94
535.847	9.04
536.045	9.09
536.243	8.97
536.441	8.92
536.638	8.96
536.836	8.99
537.034	9.04
537.232	9.07
537.43	9
537.627	9.16
537.825	9.28
538.023	9.19
538.22	9.16
538.418	9.26
538.616	9.47
538.813	9.54
539.011	9.62
539.209	9.55
539.406	9.78
539.604	9.86
539.801	9.8
539.999	9.74
540.196	9.76
540.394	9.89
540.591	9.87
540.789	9.87
540.986	9.89
541.184	9.9
541.381	9.95
541.579	9.93
541.776	9.94
541.974	9.96
542.171	9.96
542.368	10.13
542.566	10.19
542.763	10.29
542.96	10.27
543.158	10.22
543.355	10.24
543.552	10.28
543.75	10.26
543.947	10.36
544.144	10.42
544.341	10.45
544.539	10.34
544.736	10.19
544.933	10.16
545.13	10.28
545.327	10.54
545.524	10.46
545.722	10.51
545.919	10.73
546.116	10.83
546.313	10.88
546.51	11.04
546.707	11.06
546.904	11.12
547.101	11.15
547.298	11.25
547.495	11.18
547.692	11.4
547.889	11.4
548.086	11.28
548.283	11.19
548.48	11.29
548.677	11.33
548.874	11.42
549.07	11.72
549.267	11.82
549.464	11.79
549.661	11.96
549.858	11.99
550.055	12.07
550.251	12.2
550.448	12.26
550.645	12.44
550.842	12.71
551.038	13.06
551.235	13.1
551.432	13.25
551.628	13.19
551.825	13.1
552.022	13.11
552.218	13.19
552.415	13.18
552.612	13.32
552.808	13.31
553.005	13.26
553.201	13.06
553.398	13.14
553.594	13.27
553.791	13.54
553.987	13.75
554.184	14.02
554.38	14.01
554.577	14.13
554.773	14.13
554.97	13.88
555.166	13.79
555.362	13.8
555.559	13.76
555.755	13.87
555.952	13.75
556.148	13.7
556.344	13.66
556.541	13.84
556.737	13.9
556.933	14
557.129	14.26
557.326	14.34
557.522	14.54
557.718	14.63
557.914	14.48
558.11	14.74
558.307	14.6
558.503	14.73
558.699	14.96
558.895	15.07
559.091	15.18
559.287	15.34
559.483	15.78
559.679	15.83
559.876	15.91
560.072	15.96
560.268	15.73
560.464	15.9
560.66	15.72
560.856	15.56
561.052	15.69
561.247	15.84
561.443	15.82
561.639	15.74
561.835	15.85
562.031	15.93
562.227	16
562.423	16.37
562.619	16.47
562.815	16.55
563.01	16.81
563.206	16.75
563.402	16.7
563.598	16.85
563.793	16.65
563.989	16.8
564.185	16.87
564.381	16.88
564.576	16.78
564.772	16.97
564.968	17.16
565.163	17.11
565.359	17.11
565.555	17.15
565.75	17.2
565.946	17.5
566.141	17.38
566.337	17.22
566.532	17.36
566.728	17.55
566.923	17.55
567.119	17.66
567.314	17.66
567.51	17.94
567.705	18.04
567.901	18.12
568.096	17.98
568.292	18.24
568.487	18.63
568.682	18.65
568.878	18.57
569.073	18.59
569.268	18.53
569.464	18.67
569.659	18.71
569.854	18.77
570.05	18.65
570.245	18.66
570.44	18.65
570.635	18.65
570.831	18.76
571.026	18.74
571.221	18.67
571.416	18.66
571.611	18.62
571.806	18.46
572.002	18.62
572.197	18.66
572.392	18.67
572.587	18.64
572.782	18.56
572.977	18.53
573.172	18.69
573.367	18.82
573.562	18.93
573.757	18.99
573.952	19.14
574.147	19.1
574.342	19.11
574.537	19.28
574.732	19.15
574.927	19.21
575.121	19.22
575.316	19.22
575.511	19.35
575.706	19.54
575.901	19.62
576.096	19.58
576.29	19.57
576.485	19.75
576.68	19.86
576.875	19.99
577.069	19.96
577.264	20.11
577.459	20.17
577.654	20.26
577.848	20.11
578.043	20.14
578.238	20.14
578.432	20.09
578.627	20.19
578.821	20.21
579.016	20.62
579.21	20.89
579.405	21.02
579.6	21.17
579.794	21.2
579.989	21.27
580.183	21.13
580.378	21.1
580.572	21.24
580.766	21.2
580.961	21.22
581.155	20.79
581.35	20.67
581.544	20.32
581.738	20.32
581.933	20.21
582.127	20.19
582.321	20.43
582.516	20.6
582.71	20.83
582.904	20.71
583.099	20.68
583.293	21.14
583.487	20.97
583.681	20.94
583.875	20.79
584.07	20.62
584.264	20.48
584.458	20.4
584.652	20.44
584.846	20.2
585.04	20.73
585.234	20.77
585.428	20.4
585.623	20.9
585.817	21.33
586.011	21.52
586.205	21.61
586.399	21.82
586.593	21.78
586.787	21.71
586.981	21.94
587.174	21.35
587.368	21.26
587.562	21.36
587.756	21.36
587.95	21.11
588.144	20.76
588.338	21.04
588.532	21.2
588.725	21.33
588.919	21.36
589.113	21.25
589.307	21.39
589.501	21.56
589.694	21.62
589.888	21.47
590.082	21.59
590.275	21.76
590.469	21.59
590.663	21.24
590.856	21.1
591.05	21
591.244	21.02
591.437	21.22
591.631	21.34
591.824	21.47
592.018	21.65
592.212	21.65
592.405	21.77
592.599	22.08
592.792	22.4
592.986	22.55
593.179	22.84
593.372	22.7
593.566	22.56
593.759	22.53
593.953	22.67
594.146	22.44
594.339	22.46
594.533	22.75
594.726	22.39
594.92	22.36
595.113	22.49
595.306	22.51
595.499	22.7
595.693	22.66
595.886	22.31
596.079	22.03
596.272	22.18
596.466	22.34
596.659	22.3
596.852	22.41
597.045	22.28
597.238	22.27
597.431	22.03
597.624	22.09
597.818	22.37
598.011	22.45
598.204	22.39
598.397	22.28
598.59	22.05
598.783	21.81
598.976	21.76
599.169	21.73
599.362	21.68
599.555	21.91
599.748	21.99
599.941	21.82
600.134	22.11
600.326	22.14
600.519	22.22
600.712	22.44
600.905	22.71
601.098	22.8
601.291	22.97
601.483	23.21
601.676	23.09
601.869	22.82
602.062	22.78
602.255	22.95
602.447	23.29
602.64	23.18
602.833	23.17
603.025	23.3
603.218	23.2
603.411	23.23
603.603	22.89
603.796	23.12
603.989	23.09
604.181	23.06
604.374	22.89
604.566	22.97
604.759	23.17
604.951	23.2
605.144	22.96
605.336	23.09
605.529	23.05
605.721	23.29
605.914	23.27
606.106	23.38
606.299	23.46
606.491	23.52
606.683	23.42
606.876	23.36
607.068	23.23
607.26	23.29
607.453	23.28
607.645	23.31
607.837	23.39
608.03	23.47
608.222	23.38
608.414	23.21
608.606	23.25
608.799	23.28
608.991	23.46
609.183	23.64
609.375	23.69
609.567	23.88
609.759	23.89
609.952	23.91
610.144	23.68
610.336	23.85
610.528	24.05
610.72	24.18
610.912	24.02
611.104	23.82
611.296	23.75
611.488	23.58
611.68	23.43
611.872	23.4
612.064	22.91
612.256	23.19
612.448	23.2
612.64	23.06
612.832	22.86
613.023	22.81
613.215	22.6
613.407	22.25
613.599	22.72
613.791	22.62
613.983	22.52
614.174	23.07
614.366	23
614.558	23.06
614.75	23.28
614.941	23.23
615.133	23.39
615.325	23.95
615.516	24.51
615.708	24.19
615.9	24.18
616.091	24.25
616.283	23.92
616.475	23.89
616.666	23.88
616.858	23.62
617.049	23.7
617.241	23.6
617.432	23.61
617.624	23.51
617.815	23.32
618.007	23.43
618.198	23.69
618.39	24.07
618.581	23.87
618.773	23.87
618.964	24.48
619.155	24.62
619.347	24.69
619.538	24.11
619.729	24.09
619.921	24.57
620.112	24.67
620.303	24.62
620.494	24.29
620.686	24.3
620.877	24.54
621.068	24.07
621.259	24.04
621.451	24.24
621.642	24.83
621.833	25.03
622.024	24.75
622.215	24.67
622.406	24.45
622.597	24.62
622.788	24.59
622.98	24.51
623.171	24.7
623.362	24.38
623.553	24.26
623.744	23.85
623.935	23.8
624.126	23.78
624.317	23.84
624.508	24.03
624.698	24.16
624.889	24.24
625.08	23.99
625.271	23.85
625.462	24.09
625.653	24.1
625.844	24.33
626.034	24.23
626.225	24.19
626.416	24.06
626.607	23.98
626.798	24
626.988	24.12
627.179	24.27
627.37	24.29
627.56	24.17
627.751	24.17
627.942	24.44
628.132	24.41
628.323	24.44
628.514	24.42
628.704	24.51
628.895	24.26
629.085	24.29
629.276	24.45
629.466	24.69
629.657	24.88
629.847	25.01
630.038	24.46
630.228	24.62
630.419	24.83
630.609	25.16
630.8	25.46
630.99	25.47
631.181	25.5
631.371	24.89
631.561	24.52
631.752	24.39
631.942	24.22
632.132	24.32
632.323	24.05
632.513	24
632.703	23.71
632.893	23.17
633.084	23.18
633.274	23.1
633.464	23.39
633.654	23.59
633.844	23.71
634.034	23.87
634.225	24.33
634.415	24.62
634.605	24.63
634.795	24.82
634.985	25.08
635.175	25.35
635.365	25.27
635.555	25.28
635.745	25.48
635.935	25.38
636.125	25.41
636.315	25.22
636.505	25.27
636.695	25.4
636.885	25.53
637.075	25.46
637.265	25.78
637.455	25.83
637.644	25.84
637.834	25.62
638.024	26.03
638.214	25.81
638.404	25.79
638.593	25.54
638.783	25.27
638.973	24.89
639.163	24.86
639.352	24.26
639.542	24.26
639.732	24.52
639.921	24.52
640.111	24.32
640.301	24.2
640.49	23.73
640.68	23.74
640.87	23.62
641.059	23.72
641.249	23.53
641.438	23.74
641.628	23.84
641.817	23.46
642.007	23.02
642.196	23.15
642.386	23.4
642.575	23.78
642.764	24.16
642.954	25.01
643.143	25.15
643.333	25.83
643.522	25.59
643.711	25.64
643.901	25.69
644.09	26.31
644.279	25.89
644.469	26.28
644.658	26.21
644.847	26.09
645.036	25.52
645.226	25.27
645.415	25.03
645.604	25.17
645.793	25.28
645.982	25.46
646.171	25.34
646.361	25.6
646.55	25.28
646.739	25.48
646.928	25.4
647.117	25.3
647.306	25.64
647.495	25.59
647.684	25.32
647.873	25.26
648.062	25.25
648.251	25.52
648.44	25.48
648.629	25.38
648.818	25.2
649.007	25
649.196	25.21
649.384	24.83
649.573	25.17
649.762	25.69
649.951	25.43
650.14	25.41
650.328	25.06
650.517	25.34
650.706	25.68
650.895	25.46
651.083	25.37
651.272	25.15
651.461	25.6
651.65	25.46
651.838	25.44
652.027	25.67
652.216	25.77
652.404	25.78
652.593	25.69
652.781	25.62
652.97	26.01
653.158	26.43
653.347	26.83
653.535	26.91
653.724	26.5
653.912	26.2
654.101	26.39
654.289	26.35
654.478	26.31
654.666	26.1
654.855	26.13
655.043	25.94
655.231	25.81
655.42	25.74
655.608	25.63
655.796	26.14
655.985	26.47
656.173	26.39
656.361	26.25
656.55	26.48
656.738	26.94
656.926	26.82
657.114	26.96
657.302	26.78
657.491	26.39
657.679	25.9
657.867	25.53
658.055	25.58
658.243	25.37
658.431	25.7
658.619	25.31
658.807	24.85
658.996	24.82
659.184	24.88
659.372	24.99
659.56	25.18
659.748	25.22
659.936	25.26
660.124	25.06
660.311	25.32
660.499	25.36
660.687	25.36
660.875	25.38
661.063	25.16
661.251	25.37
661.439	25.2
661.627	24.89
661.814	25.18
662.002	25.36
662.19	25.39
662.378	25.01
662.565	25.02
662.753	25.39
662.941	25.62
663.129	26.02
663.316	25.53
663.504	25.82
663.692	26.26
663.879	26.23
664.067	26.37
664.254	26.61
664.442	26.86
664.63	26.72
664.817	26.95
665.005	26.98
665.192	27.04
665.38	27.07
665.567	27.08
665.755	26.89
665.942	26.46
666.13	26.29
666.317	26.16
666.504	26.19
666.692	25.93
666.879	25.74
667.067	25.44
667.254	24.92
667.441	24.91
667.629	24.45
667.816	24.2
668.003	24.8
668.19	24.86
668.378	24.92
668.565	24.89
668.752	24.94
668.939	24.62
669.127	24.49
669.314	25.24
669.501	25.04
669.688	25.39
669.875	25.41
670.062	25.01
670.249	24.99
670.436	24.77
670.623	24.7
670.81	24.84
670.997	25.29
671.184	25.53
671.371	25.65
671.558	25.81
671.745	25.84
671.932	26.28
672.119	26.74
672.306	26.79
672.493	26.55
672.68	26.63
672.867	27.1
673.054	27.03
673.24	26.98
673.427	26.47
673.614	26.27
673.801	26.01
673.988	25.93
674.174	25.87
674.361	25.77
674.548	25.88
674.734	26.09
674.921	25.87
675.108	25.43
675.294	25.5
675.481	25.64
675.668	26.08
675.854	26.52
676.041	26.58
676.227	26.79
676.414	27.45
676.601	27.78
676.787	28.01
676.974	27.18
677.16	27.16
677.347	27.27
677.533	27.44
677.719	27.04
677.906	27.03
678.092	27.19
678.279	26.76
678.465	26.3
678.651	26.65
678.838	26.53
679.024	27.09
679.21	27.24
679.397	27.08
679.583	26.7
679.769	27.13
679.955	27.24
680.142	27.19
680.328	27.3
680.514	27.39
680.7	26.93
680.886	26.87
681.073	26.83
681.259	26.99
681.445	26.85
681.631	26.83
681.817	26.72
682.003	26.68
682.189	26.57
682.375	26.64
682.561	26.38
682.747	26.12
682.933	26.15
683.119	26.19
683.305	26.33
683.491	26.9
683.677	27.19
683.863	27.25
684.049	27.06
684.235	26.74
684.42	26.79
684.606	27.03
684.792	27.05
684.978	26.43
685.164	26.5
685.349	25.86
685.535	25.81
685.721	25.75
685.907	25.1
686.092	24.58
686.278	25.29
686.464	24.79
686.649	24.62
686.835	25.13
687.021	25.54
687.206	25.05
687.392	25.8
687.577	25.67
687.763	25.53
687.948	25.78
688.134	26.05
688.319	25.58
688.505	26.01
688.69	26.05
688.876	26.18
689.061	26.57
689.247	26.63
689.432	26.6
689.618	26.24
689.803	26.65
689.988	26.9
690.174	27.37
690.359	27.6
690.544	27.73
690.73	27.48
690.915	27.44
691.1	26.83
691.285	27.17
691.471	26.58
691.656	26.48
691.841	26.06
692.026	25.57
692.211	25.62
692.396	26.04
692.582	26.19
692.767	26.25
692.952	25.9
693.137	26.36
693.322	26.39
693.507	26.59
693.692	27.12
693.877	27.21
694.062	27.56
694.247	26.75
694.432	26.33
694.617	26.35
694.802	26.35
694.987	26.5
695.172	26.08
695.357	26.59
695.541	26.7
695.726	26.35
695.911	25.66
696.096	26.18
696.281	27.24
696.466	26.88
696.65	26.83
696.835	26.78
697.02	26.6
697.204	26.72
697.389	26.19
697.574	26.61
697.759	27.14
697.943	27.58
698.128	27.19
698.312	26.74
698.497	26.75
698.682	26.88
698.866	26.87
699.051	27.31
699.235	27.48
699.42	27.51
699.604	27.12
699.789	26.51
699.973	26.72
700.158	27.43
700.342	27.4
700.527	27.59
700.711	27.55
700.895	28.2
701.08	27.88
701.264	27.86
701.448	28.06
701.633	28.38
701.817	29.28
702.001	29.27
702.186	28.44
702.37	28.33
702.554	28.14
702.738	28.09
702.923	27.32
703.107	27.51
703.291	27.27
703.475	27.62
703.659	27.74
703.843	26.79
704.027	26.86
704.212	26.33
704.396	26.83
704.58	27.64
704.764	27.5
704.948	27.69
705.132	27.6
705.316	27.97
705.5	27.54
705.684	26.55
705.868	27.73
706.052	28.09
706.235	28.98
706.419	28.69
706.603	27.91
706.787	27.38
706.971	27.97
707.155	27.97
707.339	28.21
707.522	28.78
707.706	29.59
707.89	29.56
708.074	29.67
708.257	29.2
708.441	29
708.625	30.01
708.808	30.7
708.992	29.68
709.176	29.58
709.359	29.97
709.543	29.36
709.727	28.78
709.91	28.23
710.094	27.36
710.277	27.59
710.461	27.84
710.644	26.78
710.828	27
711.011	27.67
711.195	27.54
711.378	26.46
711.562	26.39
711.745	26.84
711.928	27.27
712.112	26.98
712.295	26.91
712.478	26.2
712.662	27.19
712.845	26.69
713.028	26.8
713.212	26.46
713.395	26.57
713.578	26.39
713.761	27.09
713.945	26.45
714.128	27.09
714.311	27.8
714.494	28.37
714.677	27.91
714.86	27.85
715.043	27.78
715.227	28.42
715.41	28.82
715.593	29.03
715.776	27.96
715.959	27.71
716.142	28.17
716.325	28.13
716.508	28.16
716.691	27.99
716.874	27.83
717.057	27.33
717.239	27.05
717.422	26.96
717.605	27.57
717.788	28.28
717.971	28.24
718.154	27.84
718.337	27.71
718.519	28.43
718.702	27.72
718.885	27.9
719.068	29.05
719.25	29.19
719.433	29.84
719.616	29.09
719.798	28.94
719.981	29.73
720.164	29.51
720.346	29.61
720.529	29.24
720.712	30.37
720.894	30.14
721.077	28.94
721.259	28.67
721.442	27.68
721.624	27.48
721.807	26.76
721.989	26.5
722.172	26.75
722.354	26.33
722.537	26.56
722.719	26.8
722.901	27.36
723.084	27.91
723.266	28.39
723.448	28.78
723.631	29.95
723.813	30.26
723.995	30.65
724.178	31.19
724.36	31.28
724.542	30.63
724.724	30.25
724.907	30.39
725.089	30.93
725.271	29.97
725.453	30.3
725.635	29.49
725.817	28.92
725.999	28.47
726.181	28.49
726.364	28.83
726.546	29.16
726.728	29.13
726.91	29.49
727.092	29.39
727.274	30.99
727.456	31.21
727.638	31.43
727.819	32.47
728.001	33.42
728.183	32.62
728.365	32.5
728.547	32.14
728.729	31.81
728.911	30.42
729.093	29.94
729.274	29.68
729.456	29.38
729.638	29.34
729.82	29.65
730.001	28.71
730.183	28.76
730.365	28.57
730.546	28.77
730.728	29.89
730.91	30.55
731.091	30.96
731.273	30.46
731.455	28.95
731.636	28.62
731.818	28.59
731.999	28.95
732.181	28.66
732.362	28.73
732.544	28.45
732.725	27.83
732.907	28.12
733.088	27.4
733.27	27.51
733.451	28.74
733.633	29.68
733.814	29.53
733.995	29.25
734.177	29.81
734.358	29.64
734.539	30.1
734.721	29.17
734.902	28.9
735.083	29.89
735.264	30.11
735.446	30.24
735.627	29.36
735.808	28.94
735.989	28.99
736.17	29.77
736.351	29.78
736.533	30.25
736.714	31.32
736.895	31.57
737.076	31.65
737.257	31.19
737.438	31.16
737.619	32.02
737.8	33.16
737.981	33
738.162	32.49
738.343	32.14
738.524	31.09
738.705	31.34
738.886	31.75
739.067	30.44
739.247	30.21
739.428	29.41
739.609	27.87
739.79	26.46
739.971	26.78
740.151	26.83
740.332	26.07
740.513	26.84
740.694	25.43
740.874	25.21
741.055	26.61
741.236	28.66
741.417	29.32
741.597	29.68
741.778	30.09
741.958	31.08
742.139	29.94
742.32	31.54
742.5	31.91
742.681	33.4
742.861	33.11
743.042	33.11
743.222	31.66
743.403	30.77
743.583	31.75
743.764	31.13
743.944	30.81
744.124	32.12
744.305	32.09
744.485	31.57
744.666	30.6
744.846	31.44
745.026	31.16
745.207	32.15
745.387	33.62
745.567	32.89
745.747	33.25
745.928	32.46
746.108	30.38
746.288	29.78
746.468	29.44
746.648	30.51
746.829	29.59
747.009	28.82
747.189	27.97
747.369	28.42
747.549	27.98
747.729	27.72
747.909	26.81
748.089	29.3
748.269	28.78
748.449	29.38
748.629	29.38
748.809	29.35
748.989	30.44
749.169	29.82
749.349	29.19
749.529	28.76
749.709	29.47
749.889	30.05
750.068	28.47
750.248	30.63
750.428	31.29
750.608	29.98
750.788	31.09
750.967	29.51
751.147	29.98
751.327	30.17
751.507	31.37
751.686	31.31
751.866	31.95
752.046	31.33
752.225	30.45
752.405	29.31
752.585	30.44
752.764	29.56
752.944	29.63
753.123	28.83
753.303	28.68
753.482	28.76
753.662	29.01
753.841	27.68
754.021	28.82
754.2	28.73
754.38	29.73
754.559	29.93
754.739	31.04
754.918	31.33
755.097	33.69
755.277	32.63
755.456	32
755.635	32.7
755.815	34.63
755.994	34.89
756.173	35.83
756.352	35.31
756.532	34.5
756.711	33.23
756.89	33.35
757.069	31.32
757.248	33.06
757.427	32.87
757.607	32.88
757.786	31.72
757.965	31.62
758.144	30.1
758.323	29.77
758.502	29.52
758.681	29.76
758.86	29.46
759.039	29.82
759.218	28.26
759.397	28.86
759.576	28.4
759.755	28.5
759.934	28.03
760.113	27.24
760.291	26.76
760.47	27.43
760.649	26.8
760.828	27.28
761.007	27.51
761.186	27.7
761.364	26.78
761.543	25.22
761.722	26.85
761.901	27.33
762.079	27.74
762.258	27.65
762.437	27.79
762.615	28.4
762.794	28.43
762.972	27.31
763.151	27
763.33	28.02
763.508	29.81
763.687	28.56
763.865	28.73
764.044	30.26
764.222	31.25
764.401	30.36
764.579	30.45
764.758	28.97
764.936	30.51
765.114	30.47
765.293	30.05
765.471	28.08
765.65	28
765.828	27.93
766.006	26.74
766.184	25.65
766.363	25.65
766.541	24.47
766.719	26.82
766.898	25.88
767.076	25.82
767.254	26.03
767.432	27.54
767.61	28.49
767.788	27.48
767.967	26.35
768.145	26.78
768.323	28.2
768.501	28.53
768.679	28.5
768.857	28.86
769.035	29.58
769.213	27.91
769.391	28.69
769.569	27.7
769.747	28.82
769.925	27.34
770.103	26.89
770.281	25.58
770.459	25.53
770.636	26.28
770.814	25.47
770.992	24.46
771.17	26.86
771.348	24.72
771.525	26.34
771.703	26.16
771.881	29.39
772.059	28.74
772.236	29.33
772.414	31.25
772.592	28.92
772.769	28.56
772.947	29.24
773.125	27.88
773.302	29.26
773.48	29.33
773.657	29.62
773.835	28.82
774.013	29.95
774.19	30.55
774.368	30.96
774.545	34.06
774.723	35.49
774.9	35.87
775.077	38.1
775.255	37.54
775.432	34.51
775.61	32.77
775.787	34.26
775.964	34.18
776.142	32.23
776.319	31.11
776.496	29.7
776.674	29.8
776.851	28.69
777.028	25.39
777.205	22.81
777.382	24.53
777.56	25.64
777.737	22.66
777.914	22.48
778.091	25.42
778.268	26.1
778.445	25.85
778.622	24.75
778.8	26.6
778.977	30.35
779.154	33.83
779.331	35.52
779.508	36.13
779.685	37.83
779.862	36.9
780.038	35.6
780.215	34.9
780.392	34.82
780.569	35.72
780.746	33.71
780.923	32.17
781.1	31.01
781.277	27.8
781.453	27.41
781.63	26.45
781.807	27.52
781.984	27.71
782.16	28.18
782.337	28.14
782.514	27.14
782.691	31.34
782.867	30.63
783.044	31.3
783.221	36.37
783.397	35.71
783.574	36.75
783.75	37.74
783.927	37.92
784.103	35.35
784.28	33.06
784.456	33.47
784.633	31.68
784.809	32.43
784.986	29.4
785.162	26.45
785.339	27.08
785.515	26.4
785.692	27.28
785.868	25.41
786.044	26.89
786.221	26.91
786.397	27.49
786.573	27.25
786.749	25
786.926	26.62
787.102	23.91
787.278	26
787.454	25.85
787.631	23.85
787.807	23.49
787.983	24.1
788.159	24.48
788.335	23.8
788.511	26.25
788.687	28.07
788.863	28.44
789.039	28.22
789.216	24.37
789.392	23.87
789.568	23.07
789.744	25.22
789.919	25.65
790.095	26.3
790.271	26.88
790.447	23.67
790.623	22.88
790.799	20.92
790.975	23.41
791.151	25.66
791.327	27.54
791.502	28.26
791.678	27.11
791.854	24.71
792.03	24.5
792.205	24.96
792.381	27.22
792.557	27.81
792.733	32
792.908	29.47
793.084	31.28
793.259	33.16
793.435	33.36
793.611	32.79
793.786	32.34
793.962	35.33
794.137	34.27
794.313	34.4
794.488	33.08
794.664	30.62
794.839	31.94
795.015	31.95
795.19	28.49
795.366	26.08
795.541	27.91
795.716	31.26
795.892	31.51
796.067	33.1
796.242	30.96
796.418	31.48
796.593	30.04
796.768	29.43
796.944	29.91
797.119	34.44
797.294	35.02
797.469	34.17
797.644	33.28
797.82	29.76
797.995	30.89
798.17	30.48
798.345	29.15
798.52	30.81
798.695	31.33
798.87	30.11
799.045	26.97
799.22	28.57
799.395	28.82
799.57	28.74
799.745	29.57
799.92	26.69
800.095	27.5
800.27	28.86
800.445	32.6
800.62	34.5
800.795	34.64
800.97	35.49
801.145	35.59
801.319	37.74
801.494	35.73
801.669	36.1
801.844	37.31
802.018	38.44
802.193	38.25
802.368	33.41
802.543	34.22
802.717	33.03
802.892	31.72
803.067	31.62
803.241	26.99
803.416	27.06
803.59	29.72
803.765	26.89
803.94	27.89
804.114	29.97
804.289	29.64
804.463	26.2
804.638	27.82
804.812	27.54
804.986	25.12
805.161	29.84
805.335	32.56
805.51	30.3
805.684	31.14
805.858	29.15
806.033	25.81
806.207	28.86
806.381	29.98
806.556	27.91
806.73	30.91
806.904	32.76
807.078	31.26
807.253	31.09
807.427	31.41
807.601	29.98
807.775	32.23
807.949	36.34
808.123	34.56
808.298	34.09
808.472	33.76
808.646	28.54
808.82	31.96
808.994	31.75
809.168	31.38
809.342	30.14
809.516	30.42
809.69	31.54
809.864	32.74
810.038	28.91
810.212	29.56
810.385	31.91
810.559	34.33
810.733	33.96
810.907	31.14
811.081	31.21
811.255	29.74
811.428	31.43
811.602	34.16
811.776	35.34
811.95	38.15
812.123	43.42
812.297	44.06
812.471	44.2
812.644	40.37
812.818	44.69
812.992	45.63
813.165	48.76
813.339	49.5
813.512	42.93
813.686	40.87
813.86	41.93
814.033	36.18
814.207	33.45
814.38	33.7
814.554	31.92
814.727	26.71
814.9	25.75
815.074	30.12
815.247	35.6
815.421	34.22
815.594	32.13
815.767	36.86
815.941	38.78
816.114	43.57
816.287	41.54
816.46	45.66
816.634	46.57
816.807	45.78
816.98	43.18
817.153	42.33
817.327	43.92
817.5	45.9
817.673	42.47
817.846	39.74
818.019	31.09
818.192	33.07
818.365	33.26
818.538	31.68
818.711	32.83
818.884	32.36
819.057	28.2
819.23	27.32
819.403	28.45
819.576	30.72
819.749	30.4
819.922	31.86
820.095	34.34
820.268	31.53
820.441	30.11
820.614	29.1
820.786	27.87
820.959	30.15
821.132	32.04
821.305	29.73
821.477	28.49
821.65	28.45
821.823	30.32
821.996	30.08
822.168	30.81
822.341	31.39
822.514	32.1
822.686	32
822.859	31.42
823.031	30.11
823.204	30.09
823.376	30.7
823.549	31.55
823.722	31.28
823.894	30.98
824.067	31
824.239	30.52
824.411	29.65
824.584	30.04
824.756	29.26
824.929	30.23
825.101	30.66
825.273	28.99
825.446	27.61
825.618	27.97
825.79	28.15
825.963	27.5
826.135	28.02
826.307	29.16
826.479	28.78
826.652	30.44
826.824	29.91
826.996	29.9
827.168	31.55
827.34	32.5
827.512	31.28
827.684	31.19
827.856	31.84
828.029	31.9
828.201	30.42
828.373	31.05
828.545	30.41
828.717	29.41
828.889	29.55
829.061	28.35
829.232	26.66
829.404	27.26
829.576	25.38
829.748	24.55
829.92	23.87
830.092	24.43
830.264	24.84
830.436	24.99
830.607	27.02
830.779	26.59
830.951	30.14
831.123	30.82
831.294	31.95
831.466	32.99
831.638	33.81
831.809	36.17
831.981	35.21
832.153	35.2
832.324	36.78
832.496	38.15
832.667	36.86
832.839	35.24
833.011	35.52
833.182	33.46
833.354	33.81
833.525	35.16
833.697	35.91
833.868	36.57
834.039	36.73
834.211	34.39
834.382	34.42
834.554	35.34
834.725	34.81
834.896	37.36
835.068	38.72
835.239	40.35
835.41	38.42
835.581	41.16
835.753	38.6
835.924	38.14
836.095	39.32
836.266	40.66
836.438	38.69
836.609	38.45
836.78	36.46
836.951	33.04
837.122	29.36
837.293	30.21
837.464	26.23
837.635	29.2
837.806	26.87
837.977	26.74
838.148	29.43
838.319	32.28
838.49	32.95
838.661	36.61
838.832	42.5
839.003	46.5
839.174	47.44
839.345	44.8
839.516	48.57
839.687	51.3
839.857	51.55
840.028	38.72
840.199	39.2
840.37	37.91
840.54	34.06
840.711	38.42
840.882	40.42
841.053	42.64
841.223	44.49
841.394	41.99
841.564	48.75
841.735	52.5
841.906	56.86
842.076	57.56
842.247	61.59
842.417	52.18
842.588	45.77
842.758	44.81
842.929	42.98
843.099	41.32
843.27	46.09
843.44	34.58
843.611	26.74
843.781	28.37
843.951	30.86
844.122	24.25
844.292	43.89
844.462	50.75
844.633	52.9
844.803	57.71
844.973	67.31
845.144	65.17
845.314	91.75
845.484	90.98
845.654	96.94
845.824	96.21
845.995	87.57
846.165	73.3
846.335	71.12
846.505	73.17
846.675	62.31
846.845	54.97
847.015	50.18
847.185	39.41
847.355	41.5
847.525	42.96
847.695	47.79
847.865	57.43
848.035	64.32
848.205	54.06
848.375	49.89
848.545	55.5
848.715	55.26
848.884	56.3
849.054	52.15
849.224	51.03
849.394	53.62
849.564	41.28
849.733	38.34
849.903	29.99
850.073	28.47
850.243	26.96
850.412	21.41
850.582	18.81
850.752	8.41
850.921	15.14
851.091	22.35
851.26	15.7
851.43	15.06
851.599	15.7
851.769	7.93
851.939	21.79
852.108	15.24
852.278	14.97
852.447	22.08
852.616	23.86
852.786	24.55
852.955	29.79
853.125	40.77
853.294	67.33
853.463	62.19
853.633	69.86
853.802	76.32
853.971	92.17
854.141	82.63
854.31	97.01
854.479	86.97
854.648	65.99
854.818	67.13
854.987	64.18
855.156	45.89
855.325	55.75
855.494	64
855.663	60.61
855.832	55.49
856.001	60.88
856.171	59.95
856.34	73.21
856.509	77.59
856.678	70.32
856.847	71.98
857.016	77.73
857.185	76.12
857.353	79.17
857.522	80.38
857.691	76.75
857.86	72.3
858.029	67.9
858.198	51.72
858.367	58.16
858.535	63.48
858.704	55.56
858.873	53.21
859.042	54.46
859.21	30.55
859.379	44.92
859.548	36.02
859.717	38.42
859.885	51.31
860.054	72.29
860.222	61.9
860.391	73.33
860.56	86.18
860.728	68.41
860.897	58.56
861.065	60.98
861.234	55.81
861.402	62.58
861.571	70.09
861.739	57.82
861.908	54.63
862.076	66.9
862.244	59.54
862.413	49.26
862.581	63.74
862.749	60.45
862.918	62.81
863.086	58.56
863.254	62.82
863.423	57.67
863.591	57.76
863.759	66.14
863.927	50.92
864.096	44.73
864.264	67.49
864.432	51.07
864.6	71.45
864.768	102.87
864.936	93.35
865.104	102.99
865.272	105.43
865.44	133.27
865.608	69.18
865.776	77.21
865.944	100.7
866.112	62.84
866.28	126.52
866.448	90.85
866.616	82.5
866.784	72.35
866.952	64.09
867.12	58.7
867.288	88.79
867.455	112.15
867.623	131.56
867.791	72.85
867.959	55.14
868.127	27.8
868.294	34.07
868.462	18.04
868.63	44.56
868.797	40.12
868.965	45.09
869.133	26.67
869.3	21.32
869.468	10.32
869.636	4.48
869.803	20.8
869.971	22.31
870.138	23.71
870.306	30.82
870.473	3.58
870.641	-12.24
870.808	-11.89
870.975	-2.05
871.143	37.37
871.31	55.42
871.478	59.04
871.645	56.06
871.812	52.17
871.98	72.16
872.147	99.93
872.314	94.44
872.482	72.38
872.649	70.94
872.816	89.49
872.983	94.95
873.15	89.13
873.318	88.73
873.485	92.83
873.652	93.35
873.819	87.55
873.986	84.98
874.153	78.02
874.32	91.98
874.487	93.06
874.654	74.21
874.821	63.72
874.988	62.43
875.155	54.98
875.322	47.32
875.489	42.19
875.656	42.04
875.823	25.08
875.99	32.16
876.157	36.65
876.324	37.07
876.49	61.21
876.657	57.89
876.824	60.79
876.991	62.83
877.157	64.85
877.324	97.39
877.491	93.9
877.658	130.85
877.824	121.5
877.991	134.75
878.157	133.06
878.324	104.63
878.491	123.84
878.657	129.63
878.824	127.19
878.99	146.26
879.157	105.97
879.323	109.57
879.49	93.01
879.656	94.09
879.823	92.06
879.989	85.39
880.156	89.75
880.322	86.21
880.488	68.55
880.655	50.57
880.821	52.68
880.987	58.8
881.154	53.68
881.32	50.16
881.486	50.98
881.652	43.09
881.819	41.94
881.985	37.29
882.151	34.95
882.317	40.84
882.483	40.99
882.649	40.64
882.816	33.03
882.982	30.03
883.148	29.88
883.314	28.73
883.48	28.91
883.646	26.42
883.812	28.51
883.978	28.58
884.144	27.17
884.31	30.71
884.476	28.94
884.642	29.81
884.807	30.11
884.973	26.66
885.139	29.21
885.305	28.14
885.471	33.08
885.637	30.43
885.802	28.92
885.968	30.32
886.134	26.47
886.3	25.6
886.465	30.96
886.631	30.53
886.797	34.42
886.962	29.51
887.128	34.19
887.293	30.33
887.459	29.36
887.625	27.56
887.79	15.21
887.956	19.36
888.121	20.31
888.287	10.95
888.452	12.72
888.618	14.07
888.783	13.53
