Data from 2937886_Reflection_3.txt Node
Date: Wed Jul 15 14:32:27 EDT 2015
User: robert
Spectrometer: USB4E03001
Autoset integration time: false
Trigger mode: 4
Integration Time (sec): 1.000000E-1
Scans to average: 10
Electric dark correction enabled: true
Nonlinearity correction enabled: false
Boxcar width: 5
Stray light correction enabled: false
XAxis mode: Wavelengths
Stop averaging: false
Number of Pixels in Spectrum: 3648
>>>>>Begin Spectral Data<<<<<
177.566	1042.41
177.785	-209.85
178.005	-12.21
178.225	-21.81
178.445	45.36
178.665	31.98
178.885	-2336.99
179.105	268.51
179.324	80.24
179.544	35.69
179.764	-55.17
179.984	36.55
180.204	66.33
180.423	70.95
180.643	55.13
180.863	49.99
181.083	86.16
181.302	106.04
181.522	99.77
181.742	66.39
181.961	57.36
182.181	94.83
182.401	277.55
182.621	397.11
182.84	69.7
183.06	134.27
183.279	149.93
183.499	96.1
183.719	181.85
183.938	174.71
184.158	223.71
184.377	110.6
184.597	65.62
184.816	56.08
185.036	48.6
185.256	38.99
185.475	55.71
185.695	46.96
185.914	32.24
186.134	45.55
186.353	-7.7
186.572	2.25
186.792	-58.07
187.011	-903.72
187.231	1404.15
187.45	253.9
187.67	332.76
187.889	-951.26
188.108	-329.67
188.328	-1428.14
188.547	-2655.56
188.766	-482.98
188.986	-944.14
189.205	-176.12
189.424	-103.19
189.644	-52.59
189.863	-22.39
190.082	-17.09
190.302	-3.7
190.521	53.34
190.74	67.59
190.959	78.68
191.178	85.25
191.398	95.2
191.617	97.14
191.836	132.1
192.055	112.92
192.274	105.46
192.494	108.86
192.713	117.05
192.932	60.96
193.151	65.03
193.37	24.85
193.589	-75.02
193.808	-56.11
194.027	161.87
194.246	142.21
194.465	59.61
194.685	57.15
194.904	39.07
195.123	43.37
195.342	13.96
195.561	15.28
195.78	-43.69
195.999	-37.46
196.218	-4.93
196.436	-76.71
196.655	-359.98
196.874	7190.41
197.093	-180.05
197.312	-187.54
197.531	-205.2
197.75	-189.47
197.969	-112.24
198.188	-139.57
198.407	-191.18
198.625	-281.77
198.844	927.46
199.063	-139.21
199.282	180.85
199.501	94.27
199.719	44.04
199.938	25.22
200.157	-44.53
200.376	-29.82
200.594	-108.07
200.813	937.84
201.032	-342.67
201.251	1567.28
201.469	-513.41
201.688	937.94
201.907	305.22
202.125	352.58
202.344	291.07
202.563	294.15
202.781	380.27
203	-4854.46
203.218	-201.46
203.437	-327.09
203.656	5.36
203.874	-12.15
204.093	11.66
204.311	15.3
204.53	21.57
204.748	38.47
204.967	51.89
205.185	67.39
205.404	46.8
205.622	51.24
205.841	67.04
206.059	55.46
206.278	64.86
206.496	73.1
206.715	91.14
206.933	82.98
207.151	66.97
207.37	59.33
207.588	61.32
207.806	115.36
208.025	97.29
208.243	79.29
208.461	61.07
208.68	56.34
208.898	107.91
209.116	98.86
209.335	356.28
209.553	105.36
209.771	127.95
209.989	101.09
210.208	78.93
210.426	68.4
210.644	59.52
210.862	64.43
211.081	48.66
211.299	-7.74
211.517	-11.61
211.735	-15.76
211.953	-25.68
212.171	-52.05
212.39	-118.32
212.608	26.23
212.826	42.84
213.044	79.02
213.262	78.61
213.48	157.98
213.698	173.49
213.916	95.78
214.134	103.03
214.352	97.79
214.57	105.84
214.788	93.47
215.006	96.95
215.224	93.06
215.442	95.25
215.66	100.2
215.878	75.35
216.096	101.26
216.314	134.48
216.532	176.33
216.75	147.34
216.968	134.04
217.185	143.58
217.403	118.08
217.621	144.85
217.839	209.48
218.057	293.26
218.275	369.32
218.492	150.59
218.71	126.72
218.928	112.69
219.146	123.26
219.363	129.74
219.581	112.75
219.799	91.92
220.017	95.82
220.234	72.19
220.452	45.62
220.67	50.24
220.887	21.04
221.105	39.72
221.323	-2.04
221.54	-25.71
221.758	-61.88
221.976	-67.91
222.193	1.84
222.411	47.47
222.629	49.29
222.846	65.77
223.064	58.81
223.281	50.99
223.499	47.74
223.716	43.75
223.934	42.18
224.151	43.17
224.369	46.89
224.586	43.37
224.804	31.26
225.021	26.53
225.239	15.72
225.456	13.54
225.674	21.5
225.891	17.73
226.108	28.65
226.326	13.46
226.543	20.27
226.76	-0.18
226.978	15.27
227.195	12.77
227.413	12.91
227.63	22.8
227.847	22.43
228.064	22.73
228.282	25.33
228.499	25.41
228.716	27.9
228.934	24.98
229.151	25.82
229.368	23.28
229.585	22.18
229.802	21.54
230.02	18.86
230.237	16.35
230.454	12.5
230.671	12.15
230.888	9.73
231.105	9.68
231.323	11.57
231.54	10.61
231.757	10.85
231.974	15.43
232.191	18.32
232.408	21.71
232.625	20.74
232.842	26.31
233.059	21.76
233.276	18.74
233.493	16.72
233.71	12.97
233.927	12.92
234.144	8.93
234.361	11.5
234.578	9.8
234.795	5.2
235.012	9.21
235.229	12.05
235.446	12.39
235.663	11.84
235.879	7.75
236.096	7.5
236.313	5.89
236.53	10.83
236.747	4.19
236.964	2.42
237.181	6.83
237.397	4.12
237.614	-0.21
237.831	3.24
238.048	7.95
238.264	17.31
238.481	20.68
238.698	20.24
238.915	17.51
239.131	15.72
239.348	13.63
239.565	13.74
239.781	13.67
239.998	15.79
240.215	13.1
240.431	12.16
240.648	7.76
240.865	4.56
241.081	6.76
241.298	2.12
241.514	0.24
241.731	1.55
241.947	0.62
242.164	-2.46
242.38	-4.65
242.597	-3.09
242.814	-3.53
243.03	0.12
243.246	-0.75
243.463	-0.45
243.679	-0.24
243.896	0.99
244.112	1.16
244.329	0.25
244.545	0.81
244.762	0.52
244.978	-2.26
245.194	-0.49
245.411	-3.95
245.627	-1.26
245.843	-2.65
246.06	-1.42
246.276	-0.86
246.492	-1.63
246.709	-0.54
246.925	0.21
247.141	0.69
247.357	1.22
247.574	-0.07
247.79	-0.26
248.006	-0.7
248.222	0.26
248.439	1.3
248.655	1.93
248.871	1.48
249.087	1.38
249.303	2.54
249.519	2.93
249.736	4.59
249.952	7.06
250.168	7.62
250.384	10.18
250.6	7.71
250.816	5.9
251.032	7.02
251.248	11.93
251.464	10.49
251.68	7.83
251.896	7.55
252.112	5.1
252.328	3.45
252.544	5.86
252.76	4.67
252.976	5.68
253.192	5.88
253.408	4.7
253.624	1.8
253.84	0.31
254.056	0.62
254.272	1.85
254.487	4.69
254.703	2.83
254.919	-1.81
255.135	-3.18
255.351	-3.55
255.567	-4.79
255.782	-5.2
255.998	-4.6
256.214	-3.83
256.43	-2.3
256.646	-5.23
256.861	-5.59
257.077	-0.02
257.293	1.3
257.508	3.45
257.724	2.26
257.94	3.49
258.155	2.85
258.371	3.48
258.587	4.46
258.802	4.3
259.018	3.81
259.234	3.2
259.449	2.23
259.665	2.02
259.88	0.44
260.096	1.72
260.312	2.14
260.527	2.37
260.743	1.74
260.958	1.58
261.174	1.56
261.389	2.21
261.605	2.28
261.82	2.85
262.036	3.11
262.251	4.99
262.466	3.77
262.682	1.95
262.897	1.89
263.113	2.22
263.328	4.19
263.543	3.93
263.759	4.65
263.974	3.82
264.189	1.24
264.405	0.42
264.62	1.31
264.835	2.51
265.051	3.71
265.266	4.78
265.481	5.09
265.696	1.33
265.912	0.35
266.127	-2.58
266.342	-3.86
266.557	-1.95
266.773	-1.29
266.988	-0.56
267.203	-2.1
267.418	-1.68
267.633	-2.45
267.848	-2.73
268.064	-1.63
268.279	-0.64
268.494	2.52
268.709	4.25
268.924	4.79
269.139	5.5
269.354	3.65
269.569	3.8
269.784	2.48
269.999	3.07
270.214	2.38
270.429	0.45
270.644	-0.05
270.859	-3.7
271.074	-3.78
271.289	-4.9
271.504	-5.39
271.719	-4.17
271.934	-4.31
272.149	-4.47
272.363	-5.02
272.578	-5.6
272.793	-5.3
273.008	-4.61
273.223	-2.24
273.438	-0.95
273.653	-0.69
273.867	1.36
274.082	0.74
274.297	0.85
274.512	2.56
274.726	1.36
274.941	2.65
275.156	4.89
275.371	2.52
275.585	1.06
275.8	-2.75
276.015	-2.62
276.229	-4.69
276.444	-6.3
276.659	-7.58
276.873	-8.52
277.088	-7.85
277.302	-7.93
277.517	-8.47
277.732	-7
277.946	-6.43
278.161	-4.98
278.375	-6.84
278.59	-6.87
278.804	-7.16
279.019	-3.78
279.233	-3.66
279.448	-3.99
279.662	-4.59
279.877	-6.75
280.091	-5.65
280.306	-5.78
280.52	-4.96
280.735	-4.49
280.949	-4.76
281.163	-3.74
281.378	-4.1
281.592	-4.69
281.806	-2.82
282.021	-1.58
282.235	0.5
282.449	-0.4
282.664	1.28
282.878	2.83
283.092	3.95
283.307	4.58
283.521	5.72
283.735	5.82
283.949	5
284.164	3.76
284.378	2.64
284.592	2.53
284.806	3.19
285.02	1.78
285.234	-0.36
285.449	-0.07
285.663	-1.9
285.877	-1.2
286.091	-0.46
286.305	2.37
286.519	2.55
286.733	3.15
286.947	3.26
287.161	3.83
287.375	4.65
287.589	6.63
287.803	5.72
288.017	8.17
288.231	7.82
288.445	7.14
288.659	4.64
288.873	5.23
289.087	6.45
289.301	5.62
289.515	5.02
289.729	3.22
289.943	1.87
290.157	2.76
290.371	2.23
290.584	0.54
290.798	-0.49
291.012	0.15
291.226	-0.62
291.44	-3.8
291.654	-2.08
291.867	-2.31
292.081	0.03
292.295	-0.07
292.509	0.57
292.722	1.84
292.936	2.75
293.15	5.92
293.364	8.6
293.577	9.47
293.791	11.61
294.005	9.44
294.218	10.17
294.432	7.54
294.645	8.54
294.859	7.88
295.073	7.35
295.286	7.73
295.5	5.54
295.713	4.01
295.927	3.7
296.14	5.5
296.354	7.16
296.568	7.85
296.781	9.25
296.994	9.78
297.208	8.96
297.421	9.4
297.635	8.46
297.848	8.34
298.062	8.62
298.275	8.34
298.489	7.5
298.702	7.16
298.915	6.36
299.129	6.75
299.342	5.83
299.555	6.68
299.769	5.14
299.982	5.63
300.195	4.26
300.409	3.41
300.622	3.59
300.835	3.93
301.048	3.74
301.262	4.64
301.475	4.34
301.688	3.83
301.901	4.02
302.115	5.27
302.328	6.18
302.541	7.3
302.754	6.77
302.967	8.67
303.18	7.13
303.393	8.5
303.607	7.89
303.82	5.46
304.033	5.48
304.246	3.55
304.459	1.85
304.672	1.6
304.885	3.59
305.098	4.42
305.311	5.72
305.524	6.69
305.737	3.86
305.95	3.26
306.163	6.17
306.376	6.89
306.589	9.38
306.802	9.16
307.015	9.77
307.228	9.54
307.44	9.49
307.653	7.64
307.866	7.25
308.079	7.14
308.292	5.53
308.505	5.6
308.718	6.34
308.93	7.38
309.143	6.59
309.356	6.54
309.569	5.67
309.781	6.16
309.994	4.42
310.207	6.01
310.42	6.7
310.632	9.56
310.845	9.72
311.058	9.78
311.27	8.06
311.483	9.74
311.696	9.58
311.908	9.71
312.121	8.27
312.333	9.13
312.546	7.92
312.759	9.39
312.971	8.14
313.184	7.89
313.396	7.99
313.609	9.17
313.821	10.13
314.034	9.92
314.246	11.62
314.459	13.49
314.671	12.34
314.884	13.22
315.096	12.42
315.309	11.99
315.521	11.64
315.733	10.91
315.946	9.43
316.158	9.81
316.371	9.46
316.583	8.66
316.795	7.92
317.008	9.07
317.22	10.54
317.432	11
317.644	12.07
317.857	11.95
318.069	12.36
318.281	12.36
318.494	11.49
318.706	12.41
318.918	11.25
319.13	12.08
319.342	12.61
319.555	9.22
319.767	7.78
319.979	7.66
320.191	8.74
320.403	6.73
320.615	7.19
320.827	5.68
321.039	6.55
321.252	8.13
321.464	8.42
321.676	9.28
321.888	10.34
322.1	13.16
322.312	14.02
322.524	15.3
322.736	16.67
322.948	16.41
323.16	17.7
323.372	16.32
323.584	15.89
323.796	16.46
324.007	15.92
324.219	15.9
324.431	15.5
324.643	14.89
324.855	13.66
325.067	14.26
325.279	14.48
325.491	14.48
325.702	14.67
325.914	14.91
326.126	15.18
326.338	13.63
326.55	14.17
326.761	13.36
326.973	13.73
327.185	14.8
327.396	14.96
327.608	16.47
327.82	17.85
328.032	18.73
328.243	18.48
328.455	18.49
328.666	21.08
328.878	22.74
329.09	24.11
329.301	23.71
329.513	22.74
329.725	23.2
329.936	25.65
330.148	26.27
330.359	28.94
330.571	31.53
330.782	32.03
330.994	31.54
331.205	31.44
331.417	32.11
331.628	32.09
331.84	33.76
332.051	35.88
332.262	35.29
332.474	33.34
332.685	31.86
332.897	32.98
333.108	33.09
333.319	35.35
333.531	37.62
333.742	39
333.953	41.46
334.165	42.07
334.376	41.44
334.587	40.72
334.799	42.48
335.01	44.31
335.221	41.43
335.432	43.5
335.644	43.7
335.855	44.07
336.066	44.49
336.277	45.75
336.488	45.58
336.7	45.66
336.911	46.68
337.122	48.64
337.333	48.58
337.544	51.53
337.755	49.24
337.966	49.61
338.177	48.47
338.388	48.64
338.599	48.14
338.811	49.93
339.022	51.42
339.233	51.01
339.444	49.15
339.655	49.83
339.866	49.55
340.076	51.91
340.287	50.75
340.498	50.76
340.709	51.65
340.92	51.18
341.131	51.84
341.342	50.39
341.553	51.47
341.764	51.64
341.975	52.21
342.185	54.03
342.396	53.66
342.607	54.83
342.818	54.12
343.029	53.56
343.239	53.83
343.45	53.47
343.661	54.26
343.872	54.38
344.082	55.5
344.293	53.4
344.504	52.3
344.714	51.67
344.925	52.29
345.136	53.05
345.346	52.51
345.557	53.73
345.768	53.93
345.978	54.44
346.189	53.32
346.399	52.7
346.61	53.65
346.821	53.53
347.031	54.6
347.242	53.65
347.452	54.22
347.663	54.4
347.873	53.81
348.084	53.54
348.294	53.87
348.504	55.76
348.715	55.71
348.925	55.37
349.136	54.3
349.346	54.2
349.557	55.86
349.767	54.96
349.977	54.67
350.188	55.83
350.398	54.37
350.608	54.26
350.819	54.65
351.029	53.85
351.239	55.05
351.449	55.27
351.66	54.42
351.87	54.07
352.08	55.04
352.29	53.76
352.501	53.24
352.711	53.56
352.921	53.7
353.131	53.32
353.341	54.78
353.552	53.7
353.762	54.41
353.972	55.05
354.182	55
354.392	55.5
354.602	57.91
354.812	56.81
355.022	57.66
355.232	58.08
355.442	57.98
355.652	58.07
355.862	58.91
356.072	60.28
356.282	60.87
356.492	61.22
356.702	60.59
356.912	59.89
357.122	60.71
357.332	60.09
357.542	59.59
357.752	59.38
357.962	59.17
358.171	58.5
358.381	56.49
358.591	56.32
358.801	55.52
359.011	55.63
359.221	55.73
359.43	55.72
359.64	55.96
359.85	56.22
360.06	55.82
360.269	55.38
360.479	55.68
360.689	56.83
360.899	57.22
361.108	57.07
361.318	57.21
361.528	57.1
361.737	56.41
361.947	56.76
362.156	56.46
362.366	55.8
362.576	55.39
362.785	55.22
362.995	54.48
363.204	53.62
363.414	53.31
363.623	52.44
363.833	52.75
364.042	52.25
364.252	51.63
364.461	51.63
364.671	52.45
364.88	52.39
365.09	51.82
365.299	52.17
365.509	51.76
365.718	52.07
365.927	52.29
366.137	52.07
366.346	53.04
366.555	53.78
366.765	53.34
366.974	52.33
367.183	52.69
367.393	52.75
367.602	52.77
367.811	53.17
368.021	53.22
368.23	53.14
368.439	52.8
368.648	52.68
368.857	52.59
369.067	53.11
369.276	53.51
369.485	53.24
369.694	54
369.903	53.81
370.112	53.64
370.321	53.69
370.531	53.86
370.74	53.82
370.949	53.75
371.158	52.66
371.367	52.19
371.576	52.89
371.785	53.12
371.994	52.73
372.203	52.05
372.412	52.65
372.621	52.36
372.83	52.44
373.039	51.81
373.248	51.1
373.457	51.44
373.666	51.23
373.874	49.92
374.083	49.92
374.292	49.81
374.501	50.24
374.71	49.65
374.919	49.86
375.128	50.42
375.336	50.72
375.545	50.44
375.754	50.73
375.963	50.26
376.171	51.59
376.38	51.93
376.589	51.77
376.798	51.01
377.006	50.86
377.215	50.4
377.424	49.38
377.632	48.8
377.841	49.81
378.05	49.59
378.258	49.54
378.467	49.03
378.675	48.31
378.884	48.48
379.093	48.87
379.301	49.33
379.51	48.66
379.718	49.26
379.927	49.98
380.135	49.76
380.344	49.47
380.552	49.53
380.761	49.14
380.969	49.29
381.177	49.04
381.386	48.46
381.594	48.18
381.803	48.7
382.011	48.74
382.219	48.77
382.428	47.9
382.636	47.44
382.845	47.59
383.053	47.55
383.261	47.24
383.469	46.71
383.678	47.06
383.886	47.35
384.094	47.48
384.302	47
384.511	46.5
384.719	46.16
384.927	46.43
385.135	46.31
385.343	46.7
385.552	47.23
385.76	47.57
385.968	47.33
386.176	46.98
386.384	46.62
386.592	46.41
386.8	46.61
387.008	46.86
387.216	46.37
387.424	46.22
387.633	45.68
387.841	44.95
388.049	44.77
388.257	45.19
388.465	44.62
388.672	44.08
388.88	43.46
389.088	43.15
389.296	43.09
389.504	43.48
389.712	43.21
389.92	43.14
390.128	43.55
390.336	43.4
390.544	43.05
390.751	43
390.959	42.97
391.167	43.4
391.375	43.14
391.583	43.23
391.79	43.2
391.998	43.38
392.206	43.21
392.414	42.96
392.621	43.27
392.829	43.12
393.037	43.04
393.244	43.67
393.452	43.67
393.66	44.23
393.867	44.13
394.075	44.17
394.283	44.32
394.49	44.49
394.698	44.39
394.905	44.02
395.113	44.27
395.32	44.2
395.528	43.83
395.735	43.91
395.943	43.73
396.15	43.94
396.358	43.61
396.565	43.86
396.773	43.92
396.98	43.98
397.188	44.25
397.395	44.5
397.602	44.63
397.81	44.8
398.017	44.93
398.225	44.7
398.432	44.84
398.639	44.83
398.847	44.72
399.054	44.83
399.261	45.01
399.468	45.09
399.676	44.94
399.883	45.26
400.09	45.63
400.297	45.37
400.505	45.2
400.712	45.03
400.919	45.63
401.126	45.01
401.333	44.84
401.54	44.73
401.748	44.39
401.955	44.26
402.162	44.37
402.369	44.22
402.576	44.31
402.783	44.25
402.99	44.05
403.197	43.68
403.404	44.46
403.611	44.56
403.818	44.32
404.025	44.82
404.232	44.76
404.439	44.79
404.646	44.42
404.853	44.47
405.06	44.71
405.267	44.99
405.474	44.97
405.681	44.51
405.887	44.53
406.094	44.6
406.301	44.32
406.508	44.43
406.715	44.32
406.922	44.61
407.128	44.31
407.335	44.31
407.542	44.29
407.749	44.59
407.955	44.47
408.162	44.27
408.369	44.51
408.575	44.56
408.782	44.53
408.989	44.22
409.195	44.28
409.402	44.61
409.609	44.36
409.815	44.05
410.022	43.78
410.228	43.81
410.435	44.08
410.642	43.89
410.848	43.83
411.055	43.6
411.261	43.66
411.468	43.58
411.674	43.78
411.881	44.18
412.087	44.48
412.294	44.36
412.5	44.58
412.706	44.29
412.913	44.24
413.119	44.35
413.326	44.59
413.532	44.66
413.738	44.52
413.945	44.13
414.151	43.75
414.357	43.38
414.564	43.29
414.77	43.37
414.976	43.3
415.182	43.36
415.389	42.91
415.595	42.87
415.801	42.77
416.007	42.85
416.214	42.68
416.42	42.61
416.626	42.82
416.832	43
417.038	42.69
417.244	42.71
417.45	42.75
417.657	43.01
417.863	43.18
418.069	43.33
418.275	43.13
418.481	43.55
418.687	43.42
418.893	43.31
419.099	43.17
419.305	42.97
419.511	43.04
419.717	43.01
419.923	42.86
420.129	42.68
420.335	42.52
420.541	42.45
420.746	42.26
420.952	42.55
421.158	42.48
421.364	42.34
421.57	42.4
421.776	42.5
421.982	42.34
422.187	42.29
422.393	42.37
422.599	42.41
422.805	42.35
423.01	42.36
423.216	42.18
423.422	42.25
423.628	42.31
423.833	42.41
424.039	42.36
424.245	42.47
424.45	42.6
424.656	42.48
424.862	42.25
425.067	42.29
425.273	42.27
425.478	42.2
425.684	42.14
425.889	42.09
426.095	42.04
426.301	41.95
426.506	41.73
426.712	41.62
426.917	41.46
427.123	41.58
427.328	41.73
427.533	41.53
427.739	41.57
427.944	41.52
428.15	41.51
428.355	41.44
428.561	41.21
428.766	41.3
428.971	41.12
429.177	41.18
429.382	40.99
429.587	40.85
429.793	40.87
429.998	40.85
430.203	40.73
430.408	40.71
430.614	40.75
430.819	40.85
431.024	40.66
431.229	40.74
431.434	40.7
431.64	40.78
431.845	40.84
432.05	40.81
432.255	40.78
432.46	40.94
432.665	41.02
432.87	40.88
433.076	40.77
433.281	40.99
433.486	41.09
433.691	41.19
433.896	41.42
434.101	41.31
434.306	41.57
434.511	41.55
434.716	41.67
434.921	41.61
435.126	41.85
435.331	41.88
435.535	41.92
435.74	41.92
435.945	41.82
436.15	41.64
436.355	41.67
436.56	41.48
436.765	41.46
436.97	41.11
437.174	41.19
437.379	41.13
437.584	41.21
437.789	41.07
437.993	40.89
438.198	40.79
438.403	40.86
438.608	40.98
438.812	41
439.017	40.94
439.222	41.12
439.426	41.23
439.631	41.14
439.836	40.99
440.04	41.11
440.245	41.16
440.45	41.29
440.654	41.45
440.859	41.22
441.063	41.15
441.268	41.31
441.472	41.3
441.677	41.22
441.881	41.31
442.086	41.47
442.29	41.45
442.495	41.52
442.699	41.56
442.904	41.18
443.108	41.4
443.312	41.45
443.517	41.4
443.721	41.54
443.925	41.31
444.13	41.24
444.334	41.23
444.538	41.19
444.743	41.12
444.947	41.03
445.151	41.23
445.356	41.09
445.56	41.11
445.764	41.08
445.968	40.85
446.173	41.03
446.377	40.95
446.581	40.96
446.785	40.96
446.989	41.09
447.193	41.11
447.398	41.14
447.602	41.34
447.806	41.31
448.01	41.3
448.214	41.49
448.418	41.55
448.622	41.6
448.826	41.58
449.03	41.54
449.234	41.51
449.438	41.37
449.642	41.22
449.846	41.02
450.05	40.84
450.254	40.72
450.458	40.48
450.662	40.32
450.866	40.42
451.069	40.23
451.273	40.17
451.477	39.91
451.681	40.01
451.885	39.93
452.089	40.09
452.292	40.12
452.496	40.04
452.7	40.14
452.904	40.11
453.107	39.99
453.311	40.13
453.515	40.1
453.719	40.18
453.922	40.2
454.126	40.43
454.33	40.21
454.533	40.37
454.737	40.54
454.94	40.51
455.144	40.49
455.348	40.57
455.551	40.45
455.755	40.51
455.958	40.62
456.162	40.38
456.365	40.04
456.569	40.06
456.772	39.86
456.976	39.61
457.179	39.45
457.383	39.6
457.586	39.37
457.79	39.48
457.993	39.53
458.196	39.55
458.4	39.91
458.603	40.01
458.807	39.87
459.01	39.9
459.213	40.22
459.417	40.15
459.62	40.23
459.823	40.32
460.026	40.27
460.23	40.31
460.433	40.27
460.636	40.17
460.839	40.18
461.042	40.32
461.246	40.35
461.449	40.43
461.652	40.66
461.855	40.56
462.058	40.67
462.261	40.87
462.464	40.92
462.668	40.89
462.871	40.93
463.074	40.93
463.277	40.96
463.48	41.07
463.683	40.9
463.886	41.04
464.089	41.16
464.292	41.09
464.495	40.98
464.698	40.75
464.901	40.81
465.104	40.9
465.306	40.93
465.509	40.97
465.712	41.06
465.915	41.07
466.118	40.97
466.321	40.77
466.524	40.9
466.726	41.01
466.929	41.34
467.132	41.47
467.335	41.37
467.538	41.43
467.74	41.43
467.943	41.51
468.146	41.66
468.348	41.59
468.551	41.69
468.754	41.72
468.956	41.57
469.159	41.49
469.362	41.38
469.564	41.59
469.767	41.81
469.969	42.07
470.172	42.03
470.375	41.83
470.577	41.98
470.78	41.92
470.982	41.74
471.185	41.86
471.387	41.87
471.59	41.94
471.792	41.85
471.995	41.65
472.197	41.31
472.399	41.26
472.602	41.31
472.804	41.32
473.007	41.45
473.209	41.79
473.411	41.81
473.614	41.69
473.816	41.82
474.018	41.72
474.22	41.86
474.423	41.94
474.625	41.95
474.827	41.96
475.03	41.95
475.232	41.8
475.434	41.76
475.636	41.67
475.838	41.89
476.04	41.79
476.243	41.82
476.445	41.69
476.647	41.63
476.849	41.56
477.051	41.45
477.253	41.37
477.455	41.49
477.657	41.37
477.859	41.63
478.061	41.47
478.263	41.49
478.465	41.66
478.667	41.69
478.869	41.81
479.071	41.73
479.273	41.83
479.475	41.86
479.677	41.66
479.879	41.65
480.081	41.46
480.283	41.48
480.485	41.54
480.686	41.35
480.888	41.49
481.09	41.51
481.292	41.69
481.494	41.73
481.695	41.74
481.897	41.89
482.099	41.88
482.301	41.91
482.502	41.98
482.704	41.91
482.906	41.79
483.107	41.84
483.309	41.88
483.511	41.87
483.712	41.91
483.914	41.94
484.115	41.94
484.317	41.99
484.519	41.94
484.72	41.95
484.922	41.92
485.123	42.05
485.325	42.03
485.526	41.92
485.728	41.91
485.929	41.82
486.131	41.79
486.332	41.69
486.534	41.62
486.735	41.63
486.936	41.5
487.138	41.5
487.339	41.39
487.541	41.29
487.742	41.4
487.943	41.37
488.144	41.38
488.346	41.35
488.547	41.48
488.748	41.42
488.95	41.51
489.151	41.61
489.352	41.61
489.553	41.7
489.755	41.75
489.956	41.72
490.157	41.73
490.358	41.68
490.559	41.64
490.76	41.59
490.961	41.61
491.163	41.36
491.364	41.37
491.565	41.41
491.766	41.45
491.967	41.59
492.168	41.57
492.369	41.63
492.57	41.72
492.771	41.81
492.972	41.85
493.173	41.85
493.374	42.1
493.575	42.07
493.776	42.2
493.976	42.26
494.177	42.12
494.378	42.12
494.579	42.04
494.78	41.93
494.981	41.87
495.182	41.76
495.382	41.96
495.583	41.9
495.784	41.93
495.985	41.76
496.185	41.68
496.386	41.87
496.587	42.02
496.788	42.13
496.988	42.3
497.189	42.43
497.39	42.59
497.59	42.77
497.791	42.9
497.992	42.98
498.192	43.04
498.393	43.06
498.593	42.92
498.794	42.68
498.994	42.62
499.195	42.52
499.395	42.48
499.596	42.48
499.796	42.36
499.997	42.31
500.197	42.31
500.398	42.43
500.598	42.42
500.799	42.64
500.999	42.94
501.199	43.02
501.4	43.31
501.6	43.36
501.801	43.31
502.001	43.24
502.201	43.35
502.402	43.42
502.602	43.31
502.802	43.54
503.002	43.36
503.203	43.56
503.403	43.66
503.603	43.48
503.803	43.68
504.003	43.74
504.204	43.8
504.404	43.6
504.604	43.44
504.804	43.58
505.004	43.57
505.204	43.63
505.404	43.6
505.604	43.68
505.804	43.76
506.005	43.67
506.205	43.7
506.405	43.81
506.605	43.83
506.805	44.01
507.005	43.99
507.204	43.94
507.404	43.86
507.604	44.02
507.804	44.05
508.004	44.22
508.204	44.18
508.404	44.32
508.604	44.31
508.804	44.6
509.003	44.64
509.203	44.94
509.403	44.88
509.603	45.08
509.803	45.03
510.002	45.16
510.202	45.27
510.402	45.36
510.602	45.34
510.801	45.41
511.001	45.35
511.201	45.57
511.4	45.47
511.6	45.66
511.8	45.71
511.999	45.72
512.199	45.54
512.398	45.54
512.598	45.67
512.797	45.78
512.997	45.89
513.197	45.94
513.396	45.93
513.596	46.04
513.795	46.13
513.994	46.29
514.194	46.3
514.393	46.59
514.593	46.45
514.792	46.36
514.992	46.34
515.191	46.39
515.39	46.52
515.59	46.52
515.789	46.47
515.988	46.51
516.188	46.48
516.387	46.59
516.586	46.75
516.786	46.93
516.985	47.11
517.184	47.32
517.383	47.43
517.582	47.51
517.782	47.59
517.981	47.77
518.18	47.85
518.379	48.04
518.578	48.2
518.777	48.36
518.976	48.42
519.176	48.7
519.375	48.7
519.574	48.8
519.773	48.89
519.972	48.88
520.171	48.96
520.37	49.05
520.569	49.16
520.768	49.18
520.967	49.09
521.166	49.2
521.365	49.02
521.564	49.14
521.762	49.08
521.961	49.21
522.16	49.44
522.359	49.44
522.558	49.44
522.757	49.43
522.956	49.56
523.154	49.5
523.353	49.53
523.552	49.69
523.751	49.86
523.949	50.18
524.148	50.24
524.347	50.29
524.546	50.52
524.744	50.62
524.943	50.62
525.142	50.72
525.34	50.77
525.539	50.93
525.737	50.99
525.936	50.95
526.135	50.95
526.333	51.12
526.532	51.22
526.73	51.2
526.929	51.22
527.127	51.32
527.326	51.33
527.524	51.5
527.723	51.53
527.921	51.6
528.12	51.66
528.318	51.61
528.516	51.71
528.715	51.7
528.913	51.73
529.112	51.79
529.31	51.84
529.508	51.97
529.707	52.01
529.905	52.08
530.103	52.16
530.301	52.19
530.5	52.3
530.698	52.16
530.896	52.24
531.094	52.25
531.293	52.35
531.491	52.45
531.689	52.26
531.887	52.12
532.085	52.11
532.283	52.1
532.481	52.18
532.68	52.27
532.878	52.37
533.076	52.49
533.274	52.49
533.472	52.67
533.67	52.7
533.868	52.97
534.066	53.08
534.264	53.1
534.462	53.19
534.66	53.17
534.858	53.14
535.056	53.17
535.253	53.11
535.451	53.18
535.649	53.18
535.847	53.1
536.045	53.01
536.243	53.1
536.441	53.3
536.638	53.18
536.836	53.24
537.034	53.24
537.232	53.34
537.43	53.28
537.627	53.33
537.825	53.26
538.023	53.17
538.22	53.12
538.418	53.19
538.616	53.12
538.813	53.09
539.011	53.14
539.209	53.27
539.406	53.22
539.604	53.31
539.801	53.37
539.999	53.33
540.196	53.53
540.394	53.63
540.591	53.76
540.789	53.92
540.986	53.98
541.184	54.06
541.381	54.04
541.579	54.02
541.776	54
541.974	53.98
542.171	54.03
542.368	54.13
542.566	54.16
542.763	54
542.96	53.83
543.158	53.94
543.355	53.97
543.552	54.06
543.75	54.13
543.947	54.21
544.144	54.16
544.341	54.19
544.539	54.03
544.736	53.97
544.933	54
545.13	54.22
545.327	54.2
545.524	54.06
545.722	54.04
545.919	54.11
546.116	54.2
546.313	54.37
546.51	54.32
546.707	54.48
546.904	54.61
547.101	54.76
547.298	54.64
547.495	54.47
547.692	54.57
547.889	54.62
548.086	54.59
548.283	54.49
548.48	54.64
548.677	54.87
548.874	54.86
549.07	54.71
549.267	54.64
549.464	54.6
549.661	54.8
549.858	54.8
550.055	54.76
550.251	54.66
550.448	54.89
550.645	54.7
550.842	54.44
551.038	54.33
551.235	54.47
551.432	54.47
551.628	54.56
551.825	54.38
552.022	54.51
552.218	54.52
552.415	54.66
552.612	54.52
552.808	54.6
553.005	54.71
553.201	54.66
553.398	54.48
553.594	54.76
553.791	54.87
553.987	55.08
554.184	55
554.38	55.07
554.577	55.02
554.773	55.05
554.97	54.91
555.166	54.99
555.362	55.17
555.559	55.36
555.755	55.1
555.952	54.88
556.148	54.9
556.344	54.97
556.541	54.71
556.737	54.73
556.933	55.01
557.129	55.25
557.326	55.06
557.522	55.1
557.718	55.13
557.914	55.16
558.11	55.36
558.307	55.19
558.503	55.15
558.699	55.52
558.895	55.58
559.091	55.55
559.287	55.27
559.483	55.45
559.679	55.41
559.876	55.43
560.072	55.31
560.268	54.82
560.464	55.1
560.66	55.15
560.856	54.82
561.052	55.03
561.247	54.91
561.443	55.15
561.639	54.99
561.835	55.02
562.031	55.26
562.227	55.31
562.423	55.73
562.619	55.74
562.815	55.66
563.01	55.68
563.206	55.37
563.402	55.65
563.598	55.43
563.793	55.56
563.989	55.54
564.185	55.34
564.381	55.49
564.576	55.33
564.772	55.23
564.968	55.09
565.163	55.22
565.359	55.56
565.555	55.38
565.75	55.43
565.946	55.56
566.141	55.7
566.337	55.72
566.532	55.76
566.728	55.92
566.923	55.9
567.119	56.17
567.314	56
567.51	55.72
567.705	55.55
567.901	55.75
568.096	55.46
568.292	55.27
568.487	55.1
568.682	54.94
568.878	54.96
569.073	55.06
569.268	54.96
569.464	55.42
569.659	55.55
569.854	55.75
570.05	55.57
570.245	55.75
570.44	55.75
570.635	55.76
570.831	56
571.026	56.04
571.221	55.94
571.416	56.07
571.611	55.78
571.806	55.79
572.002	55.75
572.197	55.58
572.392	55.48
572.587	55.68
572.782	55.76
572.977	55.63
573.172	55.56
573.367	55.38
573.562	55.37
573.757	55.23
573.952	55.15
574.147	55.16
574.342	55.54
574.537	55.64
574.732	55.41
574.927	55.5
575.121	55.53
575.316	55.46
575.511	55.46
575.706	55.3
575.901	55.55
576.096	55.7
576.29	55.6
576.485	55.62
576.68	55.51
576.875	55.67
577.069	55.66
577.264	55.48
577.459	55.65
577.654	55.91
577.848	56.06
578.043	56.04
578.238	55.85
578.432	55.9
578.627	55.69
578.821	55.86
579.016	55.57
579.21	55.39
579.405	55.76
579.6	55.63
579.794	55.56
579.989	55.54
580.183	55.88
580.378	55.8
580.572	56.02
580.766	56.14
580.961	55.87
581.155	55.89
581.35	55.93
581.544	55.62
581.738	55.61
581.933	55.91
582.127	55.76
582.321	55.52
582.516	55.7
582.71	55.54
582.904	55.63
583.099	55.76
583.293	55.82
583.487	55.94
583.681	55.96
583.875	56.43
584.07	56.39
584.264	56.59
584.458	56.83
584.652	56.87
584.846	56.89
585.04	56.81
585.234	56.97
585.428	57.19
585.623	57.35
585.817	57.38
586.011	56.84
586.205	56.71
586.399	56.46
586.593	56.07
586.787	55.83
586.981	55.95
587.174	55.78
587.368	55.56
587.562	55.57
587.756	55.41
587.95	55.64
588.144	55.82
588.338	55.82
588.532	56.1
588.725	56.19
588.919	56.48
589.113	56.39
589.307	56.51
589.501	56.82
589.694	56.64
589.888	56.64
590.082	56.44
590.275	56.35
590.469	56.22
590.663	56.18
590.856	56.29
591.05	56.28
591.244	56.63
591.437	56.59
591.631	56.53
591.824	56.74
592.018	56.8
592.212	57.02
592.405	57.12
592.599	57.11
592.792	57.1
592.986	56.82
593.179	56.66
593.372	55.95
593.566	56.15
593.759	55.96
593.953	55.95
594.146	55.97
594.339	55.99
594.533	55.93
594.726	56.16
594.92	56.32
595.113	56.54
595.306	56.51
595.499	56.82
595.693	56.86
595.886	57.09
596.079	57.13
596.272	57.1
596.466	56.99
596.659	57.1
596.852	57.23
597.045	57.13
597.238	57.12
597.431	57.26
597.624	57.29
597.818	57.14
598.011	57.19
598.204	57.27
598.397	56.92
598.59	56.96
598.783	56.93
598.976	56.56
599.169	56.71
599.362	56.9
599.555	56.81
599.748	56.61
599.941	56.72
600.134	56.79
600.326	56.51
600.519	57
600.712	56.73
600.905	56.68
601.098	56.79
601.291	56.65
601.483	56.33
601.676	56.42
601.869	56.9
602.062	56.65
602.255	56.13
602.447	56.38
602.64	56.66
602.833	56.89
603.025	56.86
603.218	56.51
603.411	56.15
603.603	56.17
603.796	56.09
603.989	55.79
604.181	55.85
604.374	56.13
604.566	56.07
604.759	55.63
604.951	55.61
605.144	55.54
605.336	55.81
605.529	55.9
605.721	55.85
605.914	55.91
606.106	56.09
606.299	56.46
606.491	56.42
606.683	56.48
606.876	56.54
607.068	56.55
607.26	56.92
607.453	56.98
607.645	57.31
607.837	57.47
608.03	57.53
608.222	57.36
608.414	56.93
608.606	57.17
608.799	57.1
608.991	57.45
609.183	57.22
609.375	56.84
609.567	57.09
609.759	56.99
609.952	56.81
610.144	56.65
610.336	56.41
610.528	56.26
610.72	56.02
610.912	55.59
611.104	55.52
611.296	55.58
611.488	55.42
611.68	55.04
611.872	54.99
612.064	54.96
612.256	55.02
612.448	55.29
612.64	55.2
612.832	55.29
613.023	55.48
613.215	55.43
613.407	55.76
613.599	56.25
613.791	55.99
613.983	56.08
614.174	56.16
614.366	56.52
614.558	56.54
614.75	57.03
614.941	56.52
615.133	56.59
615.325	56.64
615.516	56.48
615.708	56.03
615.9	56.61
616.091	56.42
616.283	56.49
616.475	56.2
616.666	56.32
616.858	56
617.049	56.66
617.241	57.08
617.432	56.94
617.624	56.9
617.815	57.06
618.007	56.89
618.198	56.86
618.39	56.45
618.581	56.32
618.773	56.06
618.964	56.12
619.155	55.42
619.347	55.21
619.538	55.09
619.729	54.73
619.921	54.73
620.112	54.65
620.303	54.71
620.494	54.68
620.686	54.54
620.877	54.93
621.068	55.17
621.259	55.83
621.451	55.97
621.642	56.05
621.833	56.55
622.024	56.78
622.215	57.32
622.406	57.59
622.597	58.12
622.788	58.42
622.98	58.32
623.171	58.3
623.362	58.14
623.553	57.96
623.744	57.74
623.935	57.54
624.126	57.51
624.317	57.13
624.508	56.93
624.698	57
624.889	57.14
625.08	57.19
625.271	57.55
625.462	57.58
625.653	57.57
625.844	57.5
626.034	57.32
626.225	57.16
626.416	57.18
626.607	57.07
626.798	57.13
626.988	56.73
627.179	56.4
627.37	55.99
627.56	55.99
627.751	56.15
627.942	56.34
628.132	56.69
628.323	56.63
628.514	56.42
628.704	56.64
628.895	56.46
629.085	56.87
629.276	56.99
629.466	57
629.657	57.11
629.847	56.99
630.038	57.08
630.228	56.66
630.419	56.79
630.609	56.98
630.8	56.91
630.99	57.04
631.181	56.8
631.371	57.06
631.561	57.23
631.752	56.88
631.942	57.05
632.132	56.97
632.323	57.19
632.513	57.37
632.703	57.47
632.893	57.44
633.084	57.13
633.274	57.37
633.464	57.3
633.654	57.12
633.844	57.11
634.034	57.01
634.225	57.1
634.415	57.06
634.605	56.67
634.795	56.8
634.985	57.15
635.175	57.34
635.365	57.12
635.555	56.79
635.745	56.92
635.935	57.26
636.125	57.24
636.315	57.04
636.505	57.33
636.695	57.49
636.885	57.15
637.075	56.61
637.265	56.51
637.455	56.55
637.644	56.81
637.834	57.1
638.024	56.63
638.214	56.66
638.404	56.63
638.593	56.18
638.783	56.54
638.973	56.32
639.163	56.28
639.352	56.14
639.542	56.28
639.732	55.7
639.921	55.04
640.111	55.31
640.301	55.32
640.49	55.29
640.68	55.7
640.87	55.34
641.059	55.78
641.249	55.34
641.438	55.7
641.628	55.63
641.817	56.03
642.007	55.83
642.196	55.48
642.386	55.28
642.575	55.6
642.764	55.38
642.954	55.26
643.143	54.8
643.333	55.43
643.522	55.07
643.711	54.97
643.901	55.08
644.09	55.64
644.279	56.03
644.469	55.81
644.658	55.76
644.847	55.96
645.036	56.02
645.226	56.48
645.415	56.64
645.604	57.08
645.793	56.94
645.982	57.1
646.171	57.06
646.361	57.02
646.55	57.41
646.739	57.19
646.928	56.83
647.117	56.92
647.306	57.13
647.495	57.11
647.684	56.8
647.873	56.77
648.062	56.9
648.251	56.94
648.44	57.07
648.629	56.77
648.818	57.63
649.007	57.78
649.196	57.43
649.384	57.31
649.573	57.09
649.762	57.34
649.951	57.8
650.14	57.61
650.328	57.14
650.517	57.5
650.706	58.06
650.895	57.5
651.083	57.29
651.272	57.48
651.461	56.68
651.65	56.83
651.838	56.36
652.027	56.44
652.216	56.49
652.404	57.42
652.593	56.96
652.781	56.63
652.97	56.28
653.158	56.41
653.347	56.81
653.535	56.91
653.724	56.91
653.912	57.13
654.101	57.54
654.289	57.64
654.478	57.15
654.666	57.11
654.855	57.14
655.043	56.88
655.231	56.95
655.42	56.65
655.608	57.23
655.796	57.19
655.985	56.73
656.173	56.08
656.361	55.92
656.55	55.82
656.738	55.97
656.926	56.04
657.114	56.29
657.302	56.34
657.491	56.13
657.679	56.09
657.867	56.36
658.055	56.89
658.243	56.93
658.431	57.37
658.619	57.28
658.807	56.99
658.996	56.89
659.184	56.94
659.372	56.78
659.56	57.17
659.748	57.01
659.936	56.4
660.124	56.42
660.311	56.3
660.499	55.75
660.687	55.36
660.875	55.52
661.063	55.77
661.251	55.97
661.439	56.21
661.627	55.82
661.814	56.15
662.002	56.63
662.19	56.77
662.378	56.91
662.565	57.09
662.753	57.49
662.941	57.59
663.129	57.21
663.316	56.61
663.504	56.54
663.692	56.52
663.879	56.18
664.067	56.46
664.254	56.13
664.442	55.32
664.63	55.2
664.817	55.59
665.005	55.33
665.192	55.41
665.38	55.56
665.567	55.61
665.755	56.55
665.942	56.47
666.13	56.19
666.317	55.85
666.504	56.13
666.692	56.18
666.879	55.94
667.067	56.04
667.254	55.83
667.441	56.04
667.629	55.96
667.816	55.6
668.003	55.62
668.19	55.45
668.378	55.93
668.565	55.9
668.752	56.32
668.939	56.21
669.127	55.57
669.314	55.37
669.501	55.56
669.688	55.5
669.875	55.66
670.062	55.96
670.249	55.97
670.436	55.87
670.623	56.13
670.81	55.79
670.997	56.12
671.184	56.86
671.371	57.29
671.558	56.76
671.745	56.54
671.932	56.38
672.119	56.04
672.306	56.44
672.493	56.6
672.68	56.58
672.867	56.59
673.054	56.27
673.24	55.95
673.427	56.31
673.614	56.99
673.801	57.15
673.988	56.83
674.174	57.05
674.361	56.86
674.548	56.87
674.734	56.88
674.921	56.59
675.108	56.92
675.294	56.61
675.481	56.02
675.668	55.94
675.854	55.75
676.041	55.92
676.227	55.74
676.414	55.31
676.601	55.09
676.787	56.02
676.974	55.83
677.16	55.3
677.347	56.17
677.533	56.36
677.719	55.99
677.906	56.39
678.092	56.45
678.279	56.69
678.465	57.39
678.651	57.49
678.838	57.38
679.024	57.79
679.21	57.87
679.397	57.35
679.583	57.65
679.769	57.69
679.955	57.64
680.142	57.62
680.328	57.17
680.514	56.76
680.7	56.72
680.886	56.28
681.073	56.33
681.259	56.41
681.445	56.52
681.631	55.9
681.817	56.56
682.003	56.43
682.189	56.26
682.375	56.93
682.561	57.39
682.747	57.56
682.933	57.1
683.119	56.84
683.305	56.65
683.491	56.43
683.677	56.78
683.863	56.53
684.049	56.53
684.235	56.45
684.42	56.49
684.606	56
684.792	55.88
684.978	56.8
685.164	57.19
685.349	57.68
685.535	58.13
685.721	58.98
685.907	58.19
686.092	58.62
686.278	59.11
686.464	59.24
686.649	59.08
686.835	58.79
687.021	57.98
687.206	57.53
687.392	57.52
687.577	57.17
687.763	56.63
687.948	57.48
688.134	57.32
688.319	56.71
688.505	56.29
688.69	56.48
688.876	56.77
689.061	57.47
689.247	57.65
689.432	57.35
689.618	57.53
689.803	56.4
689.988	56.15
690.174	55.55
690.359	55.68
690.544	55.07
690.73	54.38
690.915	54.84
691.1	54
691.285	54.22
691.471	54.41
691.656	54.2
691.841	54.65
692.026	54.68
692.211	55.4
692.396	55.33
692.582	55.77
692.767	56.87
692.952	56.98
693.137	57.42
693.322	57.04
693.507	57.03
693.692	57.65
693.877	57.78
694.062	57.72
694.247	57.97
694.432	58.19
694.617	58.4
694.802	58.04
694.987	57.39
695.172	57.78
695.357	57.49
695.541	57.52
695.726	57.49
695.911	57.82
696.096	57.01
696.281	56.38
696.466	56.24
696.65	55.91
696.835	55.52
697.02	55.51
697.204	55.51
697.389	55.89
697.574	55.46
697.759	55.26
697.943	55.41
698.128	55.94
698.312	55.78
698.497	55.69
698.682	55.95
698.866	56.24
699.051	56.52
699.235	55.96
699.42	56.11
699.604	56.12
699.789	55.86
699.973	55.52
700.158	55.01
700.342	55.19
700.527	54.97
700.711	55.19
700.895	54.74
701.08	54.01
701.264	54.62
701.448	54.57
701.633	54.85
701.817	54.83
702.001	54.92
702.186	55.84
702.37	55.81
702.554	55.73
702.738	54.95
702.923	54.59
703.107	54.7
703.291	54.9
703.475	54.83
703.659	54.43
703.843	55.44
704.027	55.4
704.212	54.48
704.396	53.97
704.58	54.79
704.764	55.08
704.948	56.65
705.132	56.43
705.316	55.86
705.5	56.12
705.684	56.07
705.868	56.11
706.052	56.25
706.235	56.7
706.419	56.83
706.603	56.55
706.787	56.14
706.971	55.32
707.155	55.53
707.339	55.04
707.522	55.02
707.706	55.05
707.89	54.09
708.074	54.84
708.257	54.89
708.441	55.55
708.625	55.43
708.808	55.49
708.992	55.86
709.176	55.65
709.359	56.2
709.543	55.21
709.727	55.64
709.91	55.55
710.094	54.42
710.277	54.31
710.461	54.56
710.644	54.51
710.828	55.42
711.011	54.72
711.195	54.64
711.378	54.53
711.562	55.35
711.745	54.86
711.928	55.45
712.112	55.94
712.295	55.34
712.478	54.88
712.662	55.31
712.845	54.59
713.028	54.89
713.212	55.14
713.395	54.78
713.578	54.54
713.761	54.55
713.945	54.53
714.128	54.56
714.311	55.43
714.494	55.84
714.677	55.5
714.86	55.37
715.043	55.69
715.227	56.8
715.41	56.64
715.593	57.09
715.776	57.61
715.959	56.86
716.142	57.52
716.325	57.93
716.508	57.24
716.691	56.98
716.874	57.67
717.057	57.36
717.239	57.33
717.422	57.62
717.605	56.99
717.788	56.63
717.971	58.21
718.154	58.11
718.337	57.36
718.519	57.34
718.702	56.67
718.885	55.95
719.068	56.59
719.25	55.48
719.433	56.25
719.616	57.29
719.798	56.85
719.981	55.89
720.164	55.69
720.346	55.52
720.529	55.88
720.712	57.63
720.894	56.9
721.077	56.64
721.259	57.37
721.442	56.75
721.624	55.15
721.807	55.95
721.989	56.25
722.172	55.19
722.354	55.3
722.537	54.25
722.719	53.68
722.901	53.54
723.084	54.44
723.266	53.15
723.448	53.56
723.631	54.5
723.813	54.43
723.995	54.57
724.178	54.67
724.36	55.64
724.542	56.68
724.724	56.36
724.907	57.09
725.089	56.4
725.271	57.31
725.453	56.2
725.635	55.48
725.817	54.11
725.999	53.85
726.181	54.28
726.364	53.5
726.546	53.86
726.728	54.51
726.91	54.39
727.092	53.85
727.274	52.68
727.456	53.23
727.638	53.96
727.819	55.19
728.001	55.67
728.183	55.77
728.365	56.17
728.547	56.3
728.729	55.45
728.911	57.32
729.093	56.98
729.274	58.5
729.456	59.91
729.638	59.62
729.82	59.93
730.001	59.46
730.183	59.65
730.365	59.86
730.546	58.53
730.728	59.49
730.91	58.79
731.091	59.76
731.273	59.26
731.455	58.02
731.636	57.86
731.818	57.9
731.999	57.04
732.181	56.58
732.362	55.73
732.544	56.78
732.725	56.5
732.907	56.79
733.088	56.38
733.27	56.17
733.451	56.04
733.633	55.65
733.814	55.47
733.995	56.18
734.177	55.42
734.358	55.87
734.539	54.74
734.721	54.44
734.902	52.92
735.083	52.61
735.264	52.63
735.446	52.31
735.627	51.58
735.808	51.08
735.989	50.47
736.17	51.15
736.351	49.27
736.533	49.96
736.714	49.82
736.895	49.5
737.076	49.92
737.257	50.69
737.438	50.14
737.619	51.02
737.8	51.68
737.981	51.37
738.162	51.41
738.343	52.46
738.524	53.54
738.705	53.13
738.886	54.77
739.067	52.75
739.247	51.62
739.428	51.83
739.609	52.99
739.79	53.63
739.971	54.29
740.151	54.34
740.332	55.25
740.513	53.69
740.694	54.47
740.874	53.9
741.055	55.87
741.236	56.84
741.417	57.44
741.597	56.54
741.778	54.18
741.958	53.07
742.139	53.99
742.32	52.83
742.5	53.6
742.681	53.65
742.861	52.72
743.042	51.26
743.222	50.4
743.403	50.75
743.583	50.64
743.764	50.65
743.944	52.65
744.124	52.53
744.305	53.32
744.485	52.69
744.666	52.41
744.846	52.2
745.026	52.82
745.207	52.37
745.387	51.59
745.567	52.89
745.747	54.72
745.928	54.31
746.108	52.68
746.288	53.97
746.468	54.35
746.648	54.1
746.829	55.6
747.009	56.88
747.189	58.11
747.369	59.68
747.549	57.92
747.729	57.36
747.909	56.34
748.089	57.56
748.269	55.56
748.449	55.94
748.629	55.69
748.809	54.41
748.989	53.5
749.169	52.28
749.349	50.96
749.529	50.9
749.709	50.92
749.889	51.28
750.068	50.86
750.248	52.66
750.428	51.83
750.608	51.51
750.788	52.21
750.967	52.38
751.147	53.14
751.327	52.75
751.507	53.04
751.686	53.44
751.866	53.91
752.046	54.47
752.225	52.71
752.405	54.12
752.585	55.28
752.764	54.3
752.944	53.53
753.123	54.25
753.303	54.55
753.482	55.2
753.662	54.31
753.841	53.58
754.021	51.81
754.2	53.52
754.38	53.55
754.559	52.68
754.739	52.96
754.918	53.09
755.097	52.33
755.277	51.9
755.456	51.1
755.635	50.71
755.815	50.37
755.994	50.23
756.173	47.52
756.352	48.21
756.532	48.65
756.711	49.82
756.89	49.69
757.069	49.76
757.248	50.66
757.427	50.04
757.607	50.59
757.786	51.25
757.965	52.04
758.144	52.64
758.323	50.5
758.502	49.99
758.681	49.01
758.86	51.48
759.039	51.15
759.218	49.96
759.397	51.25
759.576	50.58
759.755	50.61
759.934	50.61
760.113	51.97
760.291	51.67
760.47	51.3
760.649	52.08
760.828	50.87
761.007	50.65
761.186	52.12
761.364	52.32
761.543	53.44
761.722	53.13
761.901	52.68
762.079	52.2
762.258	53.82
762.437	55.87
762.615	56.16
762.794	56.83
762.972	57.53
763.151	56.4
763.33	56.3
763.508	56.08
763.687	55.68
763.865	56.41
764.044	56.48
764.222	56.08
764.401	54.53
764.579	53.94
764.758	53.95
764.936	54.41
765.114	55.46
765.293	54.84
765.471	54.72
765.65	55.88
765.828	55.02
766.006	54.38
766.184	53.87
766.363	54.88
766.541	54.7
766.719	53.52
766.898	51.65
767.076	50.5
767.254	50.73
767.432	49.58
767.61	48.62
767.788	50.68
767.967	51.31
768.145	50.96
768.323	49.03
768.501	48.73
768.679	48.57
768.857	48.59
769.035	48.05
769.213	48.65
769.391	49.99
769.569	50.66
769.747	49.01
769.925	49.17
770.103	49.03
770.281	52.53
770.459	52.9
770.636	52.76
770.814	54.14
770.992	54.51
771.17	53.78
771.348	53.13
771.525	51.74
771.703	52.63
771.881	53.18
772.059	52.32
772.236	49.69
772.414	49.82
772.592	51.05
772.769	52.54
772.947	54.84
773.125	55.61
773.302	56.8
773.48	60.08
773.657	57.78
773.835	57.9
774.013	61.32
774.19	61.02
774.368	59.78
774.545	58.14
774.723	56.66
774.9	53.92
775.077	53.89
775.255	53.84
775.432	50.78
775.61	51.96
775.787	50.72
775.964	49.17
776.142	51.29
776.319	54.03
776.496	53.95
776.674	55.11
776.851	56.47
777.028	53.99
777.205	53.22
777.382	52.61
777.56	53.17
777.737	51.58
777.914	50.29
778.091	48.79
778.268	48.61
778.445	47.31
778.622	46.57
778.8	46.61
778.977	47.54
779.154	47.65
779.331	47.63
779.508	46.63
779.685	48.42
779.862	48.6
780.038	48.99
780.215	46.35
780.392	47.91
780.569	46.38
780.746	45.13
780.923	47.03
781.1	46.47
781.277	48.37
781.453	48.77
781.63	47
781.807	46.62
781.984	47.83
782.16	50.37
782.337	50.22
782.514	52.64
782.691	53.46
782.867	51.08
783.044	52.6
783.221	53.04
783.397	53.41
783.574	54.83
783.75	55.52
783.927	55.4
784.103	52.73
784.28	54.92
784.456	51.45
784.633	53.09
784.809	54.14
784.986	51.44
785.162	48.66
785.339	49.59
785.515	51.85
785.692	53.05
785.868	51.71
786.044	53.99
786.221	51.93
786.397	52.75
786.573	49.6
786.749	49.54
786.926	49.77
787.102	51.51
787.278	51.66
787.454	49.3
787.631	50.16
787.807	49.72
787.983	47.8
788.159	48.86
788.335	47.43
788.511	51.38
788.687	52.02
788.863	53.66
789.039	53.08
789.216	48.7
789.392	50.3
789.568	49.98
789.744	50.6
789.919	53.24
790.095	53.32
790.271	57.65
790.447	55.74
790.623	55.15
790.799	53.4
790.975	53.27
791.151	54.03
791.327	49.73
791.502	44.84
791.678	44.88
791.854	43.3
792.03	40.67
792.205	38.89
792.381	39.19
792.557	40.09
792.733	40.42
792.908	40.84
793.084	41.03
793.259	45.19
793.435	51.12
793.611	49.15
793.786	49.55
793.962	52.12
794.137	52.69
794.313	50.92
794.488	49.42
794.664	48.84
794.839	48
795.015	53
795.19	49.31
795.366	50.41
795.541	52.98
795.716	49.97
795.892	51.05
796.067	49.1
796.242	48.73
796.418	45.49
796.593	47.35
796.768	48.2
796.944	43.98
797.119	47.77
797.294	48.09
797.469	45.27
797.644	47.3
797.82	46.29
797.995	46.18
798.17	46.55
798.345	51.1
798.52	48.67
798.695	48.7
798.87	50.29
799.045	49.06
799.22	47.01
799.395	49.26
799.57	46.75
799.745	45.53
799.92	45.14
800.095	45.54
800.27	46.24
800.445	48.42
800.62	47.63
800.795	49.44
800.97	50.05
801.145	46.74
801.319	46.94
801.494	49.02
801.669	51.44
801.844	52.2
802.018	55.19
802.193	54.43
802.368	49.65
802.543	51.12
802.717	52.28
802.892	54.62
803.067	55.83
803.241	54.68
803.416	55.21
803.59	53.93
803.765	55.47
803.94	54.22
804.114	53.79
804.289	56.17
804.463	54.42
804.638	50.41
804.812	44.61
804.986	44.97
805.161	43.55
805.335	45.17
805.51	48.7
805.684	49.73
805.858	47.67
806.033	45.6
806.207	49.56
806.381	52.54
806.556	54.99
806.73	56.09
806.904	54.41
807.078	53.59
807.253	51.12
807.427	47.5
807.601	43.87
807.775	46.09
807.949	47.33
808.123	43.24
808.298	40.36
808.472	39.92
808.646	42.53
808.82	44.2
808.994	48.89
809.168	48.77
809.342	50.44
809.516	51.83
809.69	51.54
809.864	51.62
810.038	51.93
810.212	49.5
810.385	53.93
810.559	53.46
810.733	51.36
810.907	48.04
811.081	50
811.255	49.99
811.428	47.36
811.602	45.25
811.776	44.33
811.95	41.58
812.123	43.37
812.297	39.44
812.471	42.73
812.644	46.11
812.818	49.88
812.992	48.43
813.165	49.76
813.339	52.88
813.512	55.09
813.686	53.13
813.86	54.9
814.033	58.99
814.207	56.65
814.38	58.59
814.554	60.31
814.727	52.65
814.9	54.92
815.074	50.41
815.247	46.67
815.421	42.36
815.594	42.68
815.767	44.44
815.941	39.84
816.114	40.29
816.287	34.53
816.46	31.67
816.634	37.93
816.807	34.52
816.98	35.21
817.153	40.25
817.327	41.39
817.5	43.87
817.673	41.61
817.846	41.24
818.019	45.18
818.192	44.1
818.365	43.61
818.538	40.65
818.711	40.26
818.884	37.3
819.057	35.03
819.23	44.27
819.403	46.25
819.576	48.93
819.749	50.84
819.922	45.8
820.095	47.62
820.268	49.03
820.441	50.98
820.614	52.21
820.786	57.02
820.959	57.65
821.132	54.57
821.305	52.71
821.477	51.26
821.65	50.73
821.823	51.14
821.996	52.14
822.168	52.27
822.341	52.59
822.514	52.29
822.686	51.59
822.859	51.27
823.031	52.13
823.204	52.36
823.376	52.47
823.549	52.34
823.722	53.16
823.894	53.04
824.067	52.61
824.239	51.46
824.411	51.43
824.584	51.2
824.756	51.55
824.929	49.77
825.101	51.25
825.273	50.4
825.446	50.2
825.618	49
825.79	49.26
825.963	50.24
826.135	51.02
826.307	52.4
826.479	52.92
826.652	52.87
826.824	53.21
826.996	50.94
827.168	52.16
827.34	54.01
827.512	54.99
827.684	53.76
827.856	53.27
828.029	54.22
828.201	52.62
828.373	51.44
828.545	52.17
828.717	51.88
828.889	52.92
829.061	51.34
829.232	49.4
829.404	48.35
829.576	48.03
829.748	46.62
829.92	44.74
830.092	44.96
830.264	46.91
830.436	45.88
830.607	46.49
830.779	44.87
830.951	46.08
831.123	45.8
831.294	44.69
831.466	44.7
831.638	45.24
831.809	43.51
831.981	44.31
832.153	41.92
832.324	38.76
832.496	40.79
832.667	38.77
832.839	42.21
833.011	44.7
833.182	46.64
833.354	47.06
833.525	45.31
833.697	47.52
833.868	48.81
834.039	48.87
834.211	50.28
834.382	48.79
834.554	50.43
834.725	48.8
834.896	46.39
835.068	44.75
835.239	43.63
835.41	43.25
835.581	38.46
835.753	34.44
835.924	34.52
836.095	32.83
836.266	34.67
836.438	36.81
836.609	37.81
836.78	43.89
836.951	45.34
837.122	48.47
837.293	49.35
837.464	57.15
837.635	58.95
837.806	57.34
837.977	57.32
838.148	52.74
838.319	51.79
838.49	48.08
838.661	39.02
838.832	40.11
839.003	32.24
839.174	30.39
839.345	31.42
839.516	33.93
839.687	31.62
839.857	38.1
840.028	41.81
840.199	34.03
840.37	34.66
840.54	42.7
840.711	44.81
840.882	54.74
841.053	57.79
841.223	48.89
841.394	49.15
841.564	54.66
841.735	55.7
841.906	54.58
842.076	63.83
842.247	62.8
842.417	55.51
842.588	55.38
842.758	52.24
842.929	49.18
843.099	52.21
843.27	50.76
843.44	51.38
843.611	44.93
843.781	50.93
843.951	37.97
844.122	33.88
844.292	37.1
844.462	39.29
844.633	36.83
844.803	48.76
844.973	47.68
845.144	54.98
845.314	56
845.484	72.66
845.654	58.31
845.824	68.06
845.995	68.56
846.165	57.86
846.335	44.53
846.505	44.42
846.675	32.86
846.845	32.12
847.015	25.92
847.185	-2.58
847.355	-16.68
847.525	-19.08
847.695	-25.54
847.865	-27.07
848.035	1.06
848.205	13.46
848.375	5.34
848.545	-2.02
848.715	12.21
848.884	11.99
849.054	24.09
849.224	31.21
849.394	32.28
849.564	40.59
849.733	30.72
849.903	22.13
850.073	24.7
850.243	31.2
850.412	40.83
850.582	43.91
850.752	51.52
850.921	50.1
851.091	54.32
851.26	63.11
851.43	55.34
851.599	72.21
851.769	76.67
851.939	65.55
852.108	59.4
852.278	59.97
852.447	48.86
852.616	39.61
852.786	42.03
852.955	36.87
853.125	29.69
853.294	23.66
853.463	22.22
853.633	14.84
853.802	4.15
853.971	20.37
854.141	27.95
854.31	32.9
854.479	39.3
854.648	31.39
854.818	41.27
854.987	44.15
855.156	51.05
855.325	44.61
855.494	40.94
855.663	44.18
855.832	45.02
856.001	44.42
856.171	41.55
856.34	41.42
856.509	40.07
856.678	44.05
856.847	78.14
857.016	65.89
857.185	76.91
857.353	76.76
857.522	68.61
857.691	49.08
857.86	51.51
858.029	54.4
858.198	48.66
858.367	55.1
858.535	40.92
858.704	31.3
858.873	30.72
859.042	31.56
859.21	25.03
859.379	30.76
859.548	40.7
859.717	39.44
859.885	53.37
860.054	56.36
860.222	52.34
860.391	51.87
860.56	44.23
860.728	59.17
860.897	69.32
861.065	73.66
861.234	68.38
861.402	80.7
861.571	89.8
861.739	73.27
861.908	63.48
862.076	70.14
862.244	70.28
862.413	80.89
862.581	84.17
862.749	55.11
862.918	53.77
863.086	58.84
863.254	-6.91
863.423	-47.39
863.591	-49.45
863.759	-37.11
863.927	1.31
864.096	-21.99
864.264	-21.34
864.432	-44.49
864.6	-39.73
864.768	-49.07
864.936	-15.84
865.104	-6.35
865.272	8.88
865.44	30.31
865.608	26.03
865.776	14.92
865.944	36.69
866.112	50.9
866.28	62.79
866.448	50.45
866.616	68.27
866.784	84.64
866.952	67.4
867.12	54.87
867.288	51.72
867.455	47.36
867.623	54.17
867.791	45.93
867.959	45.04
868.127	56.37
868.294	50.7
868.462	56.25
868.63	41.18
868.797	41.4
868.965	54.92
869.133	33.03
869.3	39.79
869.468	25.35
869.636	44.15
869.803	41.69
869.971	21.94
870.138	48.15
870.306	49.4
870.473	49.37
870.641	63.93
870.808	48.81
870.975	70.7
871.143	52.9
871.31	83.34
871.478	75.33
871.645	68.18
871.812	73.66
871.98	62.67
872.147	69.7
872.314	69.95
872.482	59.02
872.649	63.07
872.816	50.85
872.983	63.3
873.15	42.19
873.318	39.74
873.485	46
873.652	44.08
873.819	56
873.986	34.46
874.153	20.46
874.32	31.84
874.487	28.2
874.654	46.12
874.821	31.04
874.988	43.85
875.155	33.07
875.322	22.43
875.489	17.6
875.656	0.27
875.823	-0.85
875.99	2.38
876.157	10.68
876.324	16.76
876.49	13.48
876.657	24.23
876.824	13.04
876.991	31.49
877.157	6.73
877.324	37.43
877.491	40.6
877.658	30.56
877.824	38.55
877.991	39.29
878.157	36.59
878.324	57.87
878.491	53.27
878.657	51.13
878.824	49.29
878.99	58.7
879.157	42.12
879.323	51.59
879.49	58.24
879.656	50.22
879.823	37.24
879.989	43.73
880.156	27.28
880.322	25.36
880.488	31.09
880.655	30.94
880.821	21.27
880.987	23.44
881.154	9.95
881.32	7.77
881.486	10.29
881.652	28.95
881.819	21.79
881.985	23.15
882.151	28.6
882.317	31.6
882.483	34.95
882.649	46.08
882.816	46.21
882.982	48.17
883.148	49.36
883.314	47.05
883.48	49.42
883.646	48.61
883.812	50.12
883.978	51.25
884.144	50.5
884.31	52.35
884.476	51.31
884.642	50.8
884.807	47.54
884.973	46.97
885.139	50.86
885.305	46.89
885.471	47.55
885.637	47.26
885.802	44.49
885.968	43.22
886.134	40.81
886.3	39.23
886.465	46.24
886.631	49.23
886.797	45.7
886.962	47.02
887.128	48.02
887.293	50.21
887.459	51.9
887.625	50.51
887.79	55.47
887.956	47.6
888.121	46.44
888.287	23.98
888.452	26.12
888.618	33.49
888.783	16.84
