Data from 2937854_Reflection_2.txt Node
Date: Wed Jul 15 15:46:28 EDT 2015
User: robert
Spectrometer: USB4E03001
Autoset integration time: false
Trigger mode: 4
Integration Time (sec): 1.000000E-1
Scans to average: 10
Electric dark correction enabled: true
Nonlinearity correction enabled: false
Boxcar width: 5
Stray light correction enabled: false
XAxis mode: Wavelengths
Stop averaging: false
Number of Pixels in Spectrum: 3648
>>>>>Begin Spectral Data<<<<<
177.566	115.57
177.785	217.27
178.005	331.46
178.225	27.06
178.445	-200.53
178.665	34.66
178.885	100.5
179.105	236.22
179.324	184.28
179.544	79.17
179.764	88.99
179.984	45.96
180.204	88.19
180.423	120.11
180.643	80.67
180.863	61.98
181.083	369.1
181.302	415.51
181.522	134.05
181.742	363.83
181.961	444.74
182.181	823.41
182.401	-1494.56
182.621	-820.55
182.84	-1667
183.06	5516.08
183.279	-1578.34
183.499	476.36
183.719	21025.64
183.938	-3654.81
184.158	217.69
184.377	219.99
184.597	206.98
184.816	111.94
185.036	100.84
185.256	89.92
185.475	76.96
185.695	73.8
185.914	63.75
186.134	63.54
186.353	73.16
186.572	102.93
186.792	72.98
187.011	24.7
187.231	-52.09
187.45	52.01
187.67	-121.91
187.889	-203.24
188.108	23.99
188.328	20.54
188.547	-11.66
188.766	-5.01
188.986	-4.47
189.205	36.1
189.424	44.05
189.644	143.19
189.863	83.29
190.082	218.43
190.302	136.06
190.521	4017.69
190.74	300.49
190.959	174.9
191.178	207.76
191.398	287.62
191.617	397.02
191.836	479.97
192.055	192.05
192.274	237.78
192.494	262.73
192.713	-491.72
192.932	1374.36
193.151	107.53
193.37	-10.06
193.589	4.73
193.808	3.28
194.027	-111.12
194.246	-11.03
194.465	300.52
194.685	307.33
194.904	1077.29
195.123	382.34
195.342	-35.95
195.561	251.37
195.78	81.11
195.999	77.14
196.218	-31.36
196.436	-28.95
196.655	-218.57
196.874	-158.03
197.093	1047.08
197.312	318.93
197.531	183.58
197.75	1356.48
197.969	602.53
198.188	-555.13
198.407	-956.48
198.625	1549.18
198.844	363.14
199.063	451.17
199.282	172.22
199.501	-238.46
199.719	33.71
199.938	23.55
200.157	-113.53
200.376	55.96
200.594	30.27
200.813	78.19
201.032	252.04
201.251	-2960.44
201.469	181.14
201.688	522.27
201.907	-72.91
202.125	-565.13
202.344	-15.38
202.563	-318.88
202.781	17.22
203	54.62
203.218	37.64
203.437	29.32
203.656	92.11
203.874	53.12
204.093	51.73
204.311	26.05
204.53	29.5
204.748	22.86
204.967	44.31
205.185	21.92
205.404	-18.85
205.622	34.86
205.841	57.55
206.059	960.44
206.278	38.99
206.496	607.69
206.715	96.51
206.933	265.78
207.151	503.97
207.37	-102.06
207.588	-85.17
207.806	-77.48
208.025	-59.52
208.243	-67.31
208.461	-87.57
208.68	-40.28
208.898	-25.63
209.116	14.27
209.335	-30.85
209.553	45.62
209.771	189.71
209.989	148.47
210.208	66.38
210.426	-551.08
210.644	-1026.22
210.862	-37.41
211.081	-99.24
211.299	-358.46
211.517	-28.07
211.735	-319.97
211.953	-85.9
212.171	-116.39
212.39	-125.3
212.608	-104.34
212.826	-53.3
213.044	105.07
213.262	-414.72
213.48	209.49
213.698	-225.04
213.916	378.36
214.134	164.15
214.352	224.42
214.57	136.29
214.788	147.13
215.006	221.8
215.224	129.6
215.442	140.74
215.66	94.64
215.878	94.33
216.096	86.15
216.314	102.47
216.532	121.38
216.75	116.25
216.968	113.05
217.185	104.1
217.403	93.03
217.621	153
217.839	130.31
218.057	342.49
218.275	168.14
218.492	101.98
218.71	85.77
218.928	88.66
219.146	63.05
219.363	144.54
219.581	245.41
219.799	149.84
220.017	149.68
220.234	591.72
220.452	401.83
220.67	366.05
220.887	-169.19
221.105	-368.65
221.323	-60.36
221.54	-126.33
221.758	-34.57
221.976	-32.6
222.193	-30.91
222.411	-50.75
222.629	-64.98
222.846	-45.2
223.064	26.41
223.281	7.78
223.499	-27.08
223.716	-291.69
223.934	-122.65
224.151	-249.74
224.369	-567.13
224.586	-203.3
224.804	5.68
225.021	-8.3
225.239	-11.38
225.456	13.63
225.674	14.14
225.891	42.85
226.108	45.37
226.326	39.97
226.543	34.19
226.76	30.25
226.978	35.53
227.195	-4.26
227.413	19
227.63	23.93
227.847	10.42
228.064	15.75
228.282	12.77
228.499	11.61
228.716	11.87
228.934	15.36
229.151	17.73
229.368	19.91
229.585	23.98
229.802	14.34
230.02	10.05
230.237	12
230.454	6.46
230.671	7.22
230.888	13.86
231.105	15.14
231.323	15.82
231.54	12.68
231.757	12.29
231.974	6.92
232.191	22.67
232.408	17.57
232.625	16.81
232.842	17.92
233.059	25.43
233.276	15.68
233.493	16.54
233.71	1.24
233.927	6.05
234.144	3.66
234.361	1.34
234.578	-1.09
234.795	3.91
235.012	6.45
235.229	7.72
235.446	2.16
235.663	3.37
235.879	0.72
236.096	8.92
236.313	4.9
236.53	7.07
236.747	10.39
236.964	12.32
237.181	11.96
237.397	10.36
237.614	13.88
237.831	15.01
238.048	13.87
238.264	14.47
238.481	13.21
238.698	9.92
238.915	6.03
239.131	4.7
239.348	3.87
239.565	6.84
239.781	11.69
239.998	11.86
240.215	8.53
240.431	13.39
240.648	12.96
240.865	13.76
241.081	11.77
241.298	14.9
241.514	17.09
241.731	16.18
241.947	17.98
242.164	18.83
242.38	17.84
242.597	17.75
242.814	18.21
243.03	17.48
243.246	18.96
243.463	20.36
243.679	20.6
243.896	22.47
244.112	23.03
244.329	22.23
244.545	21.5
244.762	22.27
244.978	21.52
245.194	19.04
245.411	20.3
245.627	18.36
245.843	19.94
246.06	16.59
246.276	14.54
246.492	14.24
246.709	14.68
246.925	14.11
247.141	14.65
247.357	15.1
247.574	15.49
247.79	14.87
248.006	14.62
248.222	14.01
248.439	14.36
248.655	14.48
248.871	16.41
249.087	14.78
249.303	14.89
249.519	15.16
249.736	15.53
249.952	14.97
250.168	18.27
250.384	19.4
250.6	21.22
250.816	23.43
251.032	24.06
251.248	20.59
251.464	21.54
251.68	20.74
251.896	18.71
252.112	19.82
252.328	18.97
252.544	16.21
252.76	16.34
252.976	15.14
253.192	13.76
253.408	13.54
253.624	11.37
253.84	12.34
254.056	11.32
254.272	9.27
254.487	5.29
254.703	7.16
254.919	10.81
255.135	10.36
255.351	7.37
255.567	9.78
255.782	8.92
255.998	12.1
256.214	13.05
256.43	13.08
256.646	14.01
256.861	17.1
257.077	16.78
257.293	12.4
257.508	9.26
257.724	9.8
257.94	7.61
258.155	7.09
258.371	8.56
258.587	7.69
258.802	9.97
259.018	9.8
259.234	8.81
259.449	9.52
259.665	9.67
259.88	10.37
260.096	10.75
260.312	10.67
260.527	11.36
260.743	10.99
260.958	10.68
261.174	10.63
261.389	11.52
261.605	11.37
261.82	11.05
262.036	12.43
262.251	13.78
262.466	12.88
262.682	13.23
262.897	12.3
263.113	11.72
263.328	13.94
263.543	12.49
263.759	11.17
263.974	12.05
264.189	13
264.405	9.06
264.62	7.07
264.835	9.49
265.051	9.71
265.266	9.83
265.481	10.36
265.696	11.67
265.912	12.19
266.127	13.03
266.342	12.24
266.557	11.45
266.773	10.94
266.988	10.59
267.203	9.24
267.418	9.2
267.633	10.73
267.848	10.55
268.064	9.5
268.279	8.53
268.494	7.7
268.709	7.26
268.924	6.37
269.139	6.44
269.354	6.26
269.569	4.89
269.784	3.45
269.999	3.54
270.214	5.21
270.429	4.34
270.644	4.02
270.859	4.64
271.074	5.43
271.289	6.74
271.504	8.28
271.719	8.48
271.934	9.57
272.149	10.31
272.363	9.2
272.578	8.49
272.793	6.99
273.008	9.37
273.223	8.97
273.438	9.13
273.653	7
273.867	7.52
274.082	7.65
274.297	8.62
274.512	9.55
274.726	9.49
274.941	10.04
275.156	11.57
275.371	7.55
275.585	8.41
275.8	7.9
276.015	10.86
276.229	9.23
276.444	10.09
276.659	9.05
276.873	7.95
277.088	8.46
277.302	6.69
277.517	7.47
277.732	10.42
277.946	9.94
278.161	10.56
278.375	8.46
278.59	11.17
278.804	10.05
279.019	11.45
279.233	12.47
279.448	12.87
279.662	12.95
279.877	12.94
280.091	12.49
280.306	11.33
280.52	10.49
280.735	11
280.949	8.91
281.163	8.84
281.378	6.58
281.592	5.02
281.806	5.13
282.021	5.53
282.235	5.22
282.449	5.97
282.664	7.74
282.878	8.57
283.092	8.5
283.307	8.11
283.521	8.77
283.735	11.54
283.949	12.16
284.164	11.31
284.378	11.96
284.592	11.12
284.806	9.87
285.02	9.26
285.234	9.22
285.449	9.1
285.663	10.61
285.877	11.48
286.091	10.2
286.305	10.25
286.519	9.82
286.733	8.59
286.947	9.99
287.161	10.52
287.375	11.31
287.589	11.39
287.803	10.67
288.017	8.94
288.231	8.85
288.445	7.48
288.659	8.89
288.873	10.6
289.087	12.02
289.301	11.73
289.515	13.08
289.729	11.58
289.943	11.49
290.157	12.72
290.371	13.01
290.584	11.83
290.798	14.1
291.012	12.47
291.226	11.47
291.44	10.43
291.654	10.59
291.867	9.65
292.081	10.79
292.295	9.78
292.509	10.75
292.722	10.23
292.936	11.19
293.15	10.31
293.364	11.2
293.577	11.73
293.791	9.2
294.005	10.12
294.218	10.89
294.432	9.71
294.645	11.1
294.859	11.7
295.073	14.45
295.286	13.94
295.5	14.86
295.713	14.81
295.927	14.41
296.14	17.74
296.354	16.55
296.568	15.61
296.781	16.51
296.994	15.96
297.208	15.09
297.421	15.67
297.635	15.78
297.848	14.88
298.062	14.48
298.275	14.69
298.489	13.89
298.702	14.16
298.915	13.16
299.129	12.58
299.342	13.36
299.555	13.53
299.769	11.45
299.982	12.29
300.195	11.51
300.409	13.24
300.622	13.26
300.835	13.48
301.048	13.55
301.262	14.96
301.475	15.8
301.688	15.12
301.901	15.08
302.115	15.15
302.328	15.41
302.541	16.09
302.754	15.04
302.967	14.34
303.18	13.18
303.393	12.71
303.607	10.83
303.82	11.08
304.033	10.63
304.246	12.43
304.459	13.55
304.672	13.57
304.885	13.74
305.098	13.63
305.311	14.25
305.524	14.71
305.737	14.08
305.95	15.67
306.163	15.31
306.376	14.24
306.589	10.69
306.802	9.24
307.015	9.39
307.228	8.42
307.44	6.34
307.653	6.2
307.866	6.85
308.079	8.5
308.292	9.15
308.505	11.03
308.718	13.17
308.93	13.21
309.143	13.7
309.356	13.38
309.569	15.42
309.781	16.29
309.994	16.92
310.207	15.91
310.42	14.79
310.632	15.23
310.845	13.99
311.058	13.03
311.27	15.16
311.483	14.98
311.696	13.74
311.908	12.92
312.121	13.83
312.333	14.22
312.546	15.27
312.759	16.41
312.971	14.26
313.184	14.19
313.396	16.36
313.609	14.06
313.821	14.04
314.034	14.85
314.246	15.22
314.459	14.67
314.671	13.6
314.884	12.96
315.096	11.2
315.309	12.91
315.521	11.68
315.733	8.85
315.946	10.76
316.158	12.06
316.371	12.16
316.583	11
316.795	10.72
317.008	10.18
317.22	10.68
317.432	11.55
317.644	12.65
317.857	13.22
318.069	14.94
318.281	14.65
318.494	12.47
318.706	13.08
318.918	13.76
319.13	14.25
319.342	15.48
319.555	14.5
319.767	14.66
319.979	13.11
320.191	15.5
320.403	14.31
320.615	12.8
320.827	13.02
321.039	12.17
321.252	11.32
321.464	11.54
321.676	10.72
321.888	11.86
322.1	11.71
322.312	12.34
322.524	11.83
322.736	11.22
322.948	11.76
323.16	13.08
323.372	12.02
323.584	13.48
323.796	12.8
324.007	13.02
324.219	12.51
324.431	12.75
324.643	11.73
324.855	10.2
325.067	10.1
325.279	8.76
325.491	7.5
325.702	8.13
325.914	8.37
326.126	10.27
326.338	9.71
326.55	9.09
326.761	9.17
326.973	9.71
327.185	9.02
327.396	10.82
327.608	13.74
327.82	15.53
328.032	16.19
328.243	14.4
328.455	13.01
328.666	14.69
328.878	15.03
329.09	13.66
329.301	13.58
329.513	14.59
329.725	14.63
329.936	13.99
330.148	12.81
330.359	12.54
330.571	14.25
330.782	13.71
330.994	13.34
331.205	15.61
331.417	17.59
331.628	17.92
331.84	18.17
332.051	17.42
332.262	17.51
332.474	16.78
332.685	14.25
332.897	12.46
333.108	11.9
333.319	10.7
333.531	8.96
333.742	11.05
333.953	13.02
334.165	12.28
334.376	12.15
334.587	11.18
334.799	12.72
335.01	16.34
335.221	17.76
335.432	17.79
335.644	18.55
335.855	19.38
336.066	17.41
336.277	15.51
336.488	15.62
336.7	16.46
336.911	17.13
337.122	16.72
337.333	16.05
337.544	16.15
337.755	16.61
337.966	16.31
338.177	15.97
338.388	17.6
338.599	18.07
338.811	18.57
339.022	17.49
339.233	17.4
339.444	16.54
339.655	15.66
339.866	14.33
340.076	15.25
340.287	15.84
340.498	15.71
340.709	15.18
340.92	16.24
341.131	16.72
341.342	17.54
341.553	18.15
341.764	18.16
341.975	17.47
342.185	18.81
342.396	18.63
342.607	19.29
342.818	19.94
343.029	18.66
343.239	18.53
343.45	16.83
343.661	16.86
343.872	15.82
344.082	15.71
344.293	17.2
344.504	16.25
344.714	15.92
344.925	15.14
345.136	15.58
345.346	15.59
345.557	14.47
345.768	16.76
345.978	16.86
346.189	17.36
346.399	17.97
346.61	16.47
346.821	15.86
347.031	16.47
347.242	16.14
347.452	14.61
347.663	14.16
347.873	14.09
348.084	13.43
348.294	12.54
348.504	12.24
348.715	12
348.925	12.9
349.136	13.34
349.346	11.21
349.557	12.78
349.767	13.6
349.977	13.36
350.188	13.83
350.398	13.32
350.608	14.18
350.819	14.14
351.029	14.64
351.239	14.44
351.449	13.72
351.66	15.41
351.87	14.42
352.08	14.08
352.29	15.43
352.501	17.03
352.711	18.26
352.921	18.51
353.131	17.87
353.341	16.21
353.552	15.78
353.762	16.95
353.972	16.62
354.182	16.37
354.392	16.32
354.602	16.15
354.812	14.34
355.022	12.9
355.232	12.35
355.442	13.06
355.652	14.47
355.862	15.83
356.072	15.29
356.282	14.73
356.492	15.53
356.702	15.52
356.912	15.24
357.122	15.74
357.332	16.61
357.542	16.78
357.752	16.62
357.962	16.99
358.171	15.77
358.381	16.73
358.591	17.28
358.801	16.74
359.011	16.86
359.221	16.79
359.43	16.87
359.64	15.5
359.85	15.03
360.06	15.37
360.269	15.02
360.479	15.68
360.689	15.01
360.899	14.52
361.108	14.11
361.318	13.58
361.528	13.29
361.737	12.94
361.947	13.32
362.156	12.73
362.366	12.69
362.576	12.19
362.785	12.5
362.995	13.42
363.204	13.95
363.414	14.44
363.623	14.8
363.833	14.3
364.042	13.99
364.252	14.38
364.461	15.14
364.671	14.75
364.88	14.74
365.09	14.67
365.299	13.84
365.509	13.38
365.718	12.24
365.927	12.15
366.137	13.22
366.346	14.41
366.555	13.52
366.765	13.87
366.974	14
367.183	13.46
367.393	11.92
367.602	11.63
367.811	11.54
368.021	12.23
368.23	11.95
368.439	11.69
368.648	10.96
368.857	12.39
369.067	12.4
369.276	12.3
369.485	13.16
369.694	14.19
369.903	14.73
370.112	15.18
370.321	14.66
370.531	14.95
370.74	14.97
370.949	14.8
371.158	13.7
371.367	13.64
371.576	13.41
371.785	13.69
371.994	13.86
372.203	13.35
372.412	12.77
372.621	13.35
372.83	13.37
373.039	13.27
373.248	12.64
373.457	12.71
373.666	12.81
373.874	12.82
374.083	12.68
374.292	12.67
374.501	11.96
374.71	12.16
374.919	12.07
375.128	12.06
375.336	12.02
375.545	12.96
375.754	12.81
375.963	12.02
376.171	12.17
376.38	11.82
376.589	11.33
376.798	11.21
377.006	11.54
377.215	11.35
377.424	11.25
377.632	11.4
377.841	10.84
378.05	11.1
378.258	11.5
378.467	11.07
378.675	10.67
378.884	10.82
379.093	11.13
379.301	10.44
379.51	10.08
379.718	9.9
379.927	9.64
380.135	10.64
380.344	10.24
380.552	9.67
380.761	9.85
380.969	10.05
381.177	9.99
381.386	10.28
381.594	9.64
381.803	9.79
382.011	10.51
382.219	10.7
382.428	9.74
382.636	9.75
382.845	10.51
383.053	10.19
383.261	9.73
383.469	9.26
383.678	9.03
383.886	10.35
384.094	9.85
384.302	9.68
384.511	9.87
384.719	10.26
384.927	10.29
385.135	9.5
385.343	9.32
385.552	9.55
385.76	9.75
385.968	9.74
386.176	9.37
386.384	10
386.592	9.5
386.8	9.02
387.008	8.24
387.216	8.47
387.424	9.12
387.633	9.8
387.841	10.17
388.049	9.92
388.257	10.34
388.465	10.01
388.672	9.54
388.88	9.29
389.088	9.54
389.296	9.76
389.504	9.37
389.712	8.35
389.92	8.3
390.128	8
390.336	8.22
390.544	7.99
390.751	8.26
390.959	8.4
391.167	8.47
391.375	8.21
391.583	8.54
391.79	8.68
391.998	9.14
392.206	8.84
392.414	8.98
392.621	9.09
392.829	8.84
393.037	8.54
393.244	8.91
393.452	8.92
393.66	8.82
393.867	8.43
394.075	8.44
394.283	8.92
394.49	9.08
394.698	9.11
394.905	8.79
395.113	8.61
395.32	8.95
395.528	8.92
395.735	8.66
395.943	8.97
396.15	9.26
396.358	8.94
396.565	8.4
396.773	8.15
396.98	7.5
397.188	7.74
397.395	8.28
397.602	8.07
397.81	7.95
398.017	8.37
398.225	7.99
398.432	7.82
398.639	7.97
398.847	8.2
399.054	8.44
399.261	8.83
399.468	8.4
399.676	7.88
399.883	7.86
400.09	7.68
400.297	7.49
400.505	7.47
400.712	7.36
400.919	7.5
401.126	7.1
401.333	7.06
401.54	7.21
401.748	7.7
401.955	8.42
402.162	8.35
402.369	8.31
402.576	8.28
402.783	8.44
402.99	8.86
403.197	8.87
403.404	9.01
403.611	8.73
403.818	8.55
404.025	8.12
404.232	7.5
404.439	7.36
404.646	7.44
404.853	7.33
405.06	7.35
405.267	7.32
405.474	7.42
405.681	7.56
405.887	7.75
406.094	7.75
406.301	7.95
406.508	8.27
406.715	8.49
406.922	8.57
407.128	8.78
407.335	8.61
407.542	8.26
407.749	8.07
407.955	7.7
408.162	7.77
408.369	7.58
408.575	7.54
408.782	7.45
408.989	7.58
409.195	7.54
409.402	7.63
409.609	7.48
409.815	7.44
410.022	7.64
410.228	8.04
410.435	8.22
410.642	8.14
410.848	8.5
411.055	8.52
411.261	8.19
411.468	7.91
411.674	7.86
411.881	7.81
412.087	7.92
412.294	7.83
412.5	7.31
412.706	7.02
412.913	6.96
413.119	6.49
413.326	6.41
413.532	6.42
413.738	6.85
413.945	6.89
414.151	7.13
414.357	7.4
414.564	7.31
414.77	7.74
414.976	7.45
415.182	7.75
415.389	8
415.595	7.96
415.801	8.19
416.007	8.09
416.214	7.73
416.42	7.71
416.626	7.53
416.832	7.64
417.038	7.66
417.244	7.97
417.45	7.97
417.657	7.93
417.863	7.81
418.069	7.76
418.275	7.85
418.481	7.81
418.687	7.86
418.893	7.8
419.099	7.63
419.305	7.45
419.511	7.55
419.717	7.47
419.923	7.56
420.129	7.78
420.335	7.74
420.541	7.66
420.746	8.02
420.952	7.8
421.158	7.81
421.364	7.78
421.57	7.91
421.776	7.69
421.982	7.91
422.187	7.87
422.393	7.81
422.599	7.71
422.805	7.7
423.01	7.57
423.216	7.82
423.422	7.82
423.628	7.86
423.833	7.81
424.039	7.84
424.245	7.62
424.45	7.54
424.656	7.63
424.862	7.7
425.067	7.64
425.273	7.53
425.478	7.5
425.684	7.4
425.889	7.4
426.095	7.43
426.301	7.36
426.506	7.37
426.712	7.38
426.917	7.32
427.123	7.37
427.328	7.36
427.533	7.48
427.739	7.58
427.944	7.68
428.15	7.48
428.355	7.43
428.561	7.78
428.766	7.59
428.971	7.67
429.177	7.46
429.382	7.54
429.587	7.52
429.793	7.6
429.998	7.39
430.203	7.47
430.408	7.7
430.614	7.71
430.819	7.4
431.024	7.62
431.229	7.49
431.434	7.45
431.64	7.34
431.845	7.44
432.05	7.13
432.255	7.4
432.46	7.22
432.665	7.07
432.87	7.02
433.076	7.05
433.281	7.28
433.486	7.5
433.691	7.4
433.896	7.42
434.101	7.4
434.306	7.6
434.511	7.43
434.716	7.48
434.921	7.71
435.126	7.93
435.331	7.92
435.535	7.55
435.74	7.45
435.945	7.61
436.15	7.52
436.355	7.48
436.56	7.45
436.765	7.25
436.97	7.34
437.174	7.33
437.379	6.96
437.584	6.99
437.789	7.1
437.993	7.09
438.198	7.1
438.403	7.14
438.608	7.08
438.812	7.14
439.017	7.36
439.222	7.35
439.426	7.22
439.631	7.38
439.836	7.49
440.04	7.55
440.245	7.48
440.45	7.38
440.654	7.53
440.859	7.46
441.063	7.35
441.268	7.31
441.472	7.32
441.677	7.29
441.881	7.23
442.086	7.15
442.29	7.18
442.495	7.28
442.699	7.26
442.904	7.08
443.108	7.17
443.312	7.29
443.517	7.44
443.721	7.42
443.925	7.56
444.13	7.69
444.334	7.57
444.538	7.35
444.743	7.28
444.947	7.36
445.151	7.37
445.356	7.31
445.56	7.31
445.764	7.01
445.968	7.01
446.173	6.86
446.377	6.76
446.581	6.86
446.785	7.01
446.989	7.12
447.193	7.23
447.398	7.17
447.602	7.13
447.806	7.06
448.01	7.11
448.214	7
448.418	7.31
448.622	7.27
448.826	7.19
449.03	7.13
449.234	6.93
449.438	7.06
449.642	7.25
449.846	7.36
450.05	7.44
450.254	7.46
450.458	7.47
450.662	7.24
450.866	7.24
451.069	7.06
451.273	7.27
451.477	7.13
451.681	6.94
451.885	6.84
452.089	6.81
452.292	6.78
452.496	6.8
452.7	6.83
452.904	6.9
453.107	7.05
453.311	7.38
453.515	6.96
453.719	7.25
453.922	7.23
454.126	7.19
454.33	7.18
454.533	7.1
454.737	7.1
454.94	7.26
455.144	7.18
455.348	7.25
455.551	7.38
455.755	7.73
455.958	7.58
456.162	7.56
456.365	7.54
456.569	7.59
456.772	7.46
456.976	7.57
457.179	7.42
457.383	7.47
457.586	7.27
457.79	7.08
457.993	7.05
458.196	6.95
458.4	7.04
458.603	7.11
458.807	7.26
459.01	7.3
459.213	7.29
459.417	7.31
459.62	7.41
459.823	7.51
460.026	7.51
460.23	7.44
460.433	7.48
460.636	7.4
460.839	7.3
461.042	7.22
461.246	7.4
461.449	7.25
461.652	7.06
461.855	6.97
462.058	6.76
462.261	6.99
462.464	6.91
462.668	7.07
462.871	7.19
463.074	7.29
463.277	7.15
463.48	7.02
463.683	7.2
463.886	7.39
464.089	7.36
464.292	7.4
464.495	7.03
464.698	7.1
464.901	6.93
465.104	6.8
465.306	6.69
465.509	6.74
465.712	6.85
465.915	6.86
466.118	7
466.321	7.09
466.524	7.29
466.726	7.18
466.929	7.21
467.132	7.06
467.335	7.2
467.538	7.22
467.74	7.22
467.943	7.14
468.146	7.14
468.348	7.14
468.551	6.93
468.754	7.03
468.956	7.08
469.159	6.97
469.362	6.93
469.564	7.04
469.767	7.04
469.969	7.27
470.172	7.14
470.375	7.02
470.577	6.8
470.78	6.86
470.982	6.81
471.185	6.89
471.387	6.94
471.59	7.33
471.792	6.9
471.995	6.89
472.197	6.6
472.399	6.65
472.602	6.62
472.804	6.55
473.007	6.55
473.209	6.35
473.411	6.22
473.614	6.28
473.816	6.12
474.018	6.33
474.22	6.58
474.423	6.64
474.625	6.97
474.827	7.16
475.03	7.46
475.232	7.54
475.434	7.67
475.636	7.91
475.838	7.93
476.04	8.01
476.243	7.85
476.445	7.81
476.647	7.98
476.849	7.66
477.051	7.59
477.253	7.36
477.455	7.65
477.657	7.49
477.859	7.42
478.061	7.34
478.263	7.25
478.465	7.26
478.667	7.33
478.869	7.18
479.071	7.15
479.273	7.33
479.475	7.7
479.677	7.37
479.879	7.5
480.081	7.57
480.283	7.6
480.485	7.69
480.686	7.82
480.888	7.55
481.09	7.74
481.292	7.79
481.494	7.57
481.695	7.42
481.897	7.41
482.099	7.27
482.301	7.23
482.502	7.18
482.704	7.18
482.906	7.23
483.107	7.38
483.309	7.22
483.511	7.22
483.712	7.21
483.914	7.25
484.115	7.23
484.317	7.31
484.519	7.3
484.72	7.31
484.922	7.28
485.123	7.13
485.325	7.08
485.526	7.15
485.728	7.14
485.929	7.18
486.131	7.19
486.332	7.24
486.534	7.17
486.735	7.24
486.936	7.27
487.138	7.27
487.339	7.33
487.541	7.23
487.742	7.13
487.943	7.19
488.144	7.09
488.346	7.06
488.547	7.07
488.748	7.12
488.95	7.09
489.151	7.13
489.352	7.15
489.553	7.24
489.755	7.28
489.956	7.36
490.157	7.32
490.358	7.45
490.559	7.38
490.76	7.34
490.961	7.28
491.163	7.13
491.364	7.11
491.565	7.13
491.766	7.03
491.967	7.04
492.168	7.09
492.369	7.15
492.57	7.08
492.771	7.07
492.972	6.99
493.173	7.05
493.374	7.16
493.575	7.06
493.776	6.89
493.976	6.95
494.177	7
494.378	6.83
494.579	6.8
494.78	6.95
494.981	6.87
495.182	7.06
495.382	7.1
495.583	7.16
495.784	7.3
495.985	7.36
496.185	7.43
496.386	7.34
496.587	7.55
496.788	7.37
496.988	7.24
497.189	7.23
497.39	7.2
497.59	7.13
497.791	6.93
497.992	7.04
498.192	7.07
498.393	7.11
498.593	7.1
498.794	7
498.994	6.99
499.195	7.17
499.395	7.42
499.596	7.28
499.796	7.35
499.997	7.52
500.197	7.44
500.398	7.67
500.598	7.58
500.799	7.69
500.999	7.79
501.199	7.9
501.4	7.82
501.6	7.71
501.801	7.62
502.001	7.49
502.201	7.5
502.402	7.13
502.602	6.93
502.802	6.71
503.002	6.79
503.203	6.66
503.403	6.6
503.603	6.71
503.803	6.72
504.003	6.78
504.204	6.87
504.404	6.88
504.604	7.12
504.804	7.31
505.004	7.52
505.204	7.44
505.404	7.54
505.604	7.72
505.804	7.57
506.005	7.82
506.205	8.09
506.405	8.03
506.605	8.13
506.805	8.31
507.005	8.33
507.204	8.26
507.404	8.44
507.604	8.55
507.804	8.55
508.004	8.44
508.204	8.26
508.404	8.17
508.604	8.06
508.804	8.04
509.003	7.87
509.203	7.78
509.403	7.88
509.603	7.86
509.803	7.88
510.002	7.78
510.202	7.99
510.402	8.03
510.602	8.11
510.801	8.33
511.001	8.43
511.201	8.53
511.4	8.66
511.6	8.66
511.8	8.5
511.999	8.25
512.199	8.24
512.398	8.04
512.598	8.04
512.797	8.17
512.997	8.15
513.197	8.1
513.396	8.03
513.596	8.07
513.795	8.19
513.994	8.19
514.194	8.48
514.393	8.47
514.593	8.61
514.792	8.6
514.992	8.41
515.191	8.34
515.39	8.26
515.59	8.29
515.789	8.27
515.988	7.97
516.188	8.2
516.387	8.19
516.586	8.35
516.786	8.32
516.985	8.39
517.184	8.5
517.383	8.55
517.582	8.61
517.782	8.81
517.981	8.78
518.18	9.06
518.379	9.11
518.578	9.08
518.777	9.1
518.976	9.14
519.176	9.04
519.375	9.22
519.574	9.3
519.773	9.27
519.972	9.28
520.171	9.17
520.37	9.15
520.569	8.99
520.768	9.01
520.967	8.98
521.166	9.08
521.365	9.2
521.564	8.93
521.762	8.93
521.961	9.07
522.16	9.14
522.359	9.32
522.558	9.35
522.757	9.47
522.956	9.68
523.154	9.86
523.353	9.94
523.552	10.04
523.751	10.07
523.949	10.15
524.148	10.13
524.347	10.03
524.546	9.91
524.744	9.76
524.943	9.77
525.142	9.81
525.34	9.66
525.539	9.68
525.737	9.67
525.936	9.79
526.135	9.82
526.333	9.84
526.532	9.98
526.73	10.08
526.929	10.21
527.127	10.3
527.326	10.18
527.524	10.31
527.723	10.27
527.921	10.35
528.12	10.35
528.318	10.23
528.516	10.33
528.715	10.28
528.913	10.29
529.112	10.36
529.31	10.38
529.508	10.41
529.707	10.38
529.905	10.42
530.103	10.35
530.301	10.41
530.5	10.49
530.698	10.44
530.896	10.51
531.094	10.6
531.293	10.48
531.491	10.39
531.689	10.48
531.887	10.55
532.085	10.54
532.283	10.6
532.481	10.63
532.68	10.72
532.878	10.78
533.076	10.69
533.274	10.69
533.472	10.81
533.67	10.88
533.868	10.9
534.066	10.97
534.264	11.01
534.462	11.01
534.66	10.82
534.858	10.83
535.056	10.76
535.253	10.92
535.451	11.02
535.649	11.07
535.847	11.16
536.045	11.04
536.243	11.07
536.441	11.14
536.638	11.18
536.836	11.31
537.034	11.34
537.232	11.39
537.43	11.31
537.627	11.11
537.825	10.96
538.023	10.8
538.22	10.9
538.418	10.99
538.616	10.9
538.813	10.97
539.011	11.17
539.209	11.12
539.406	11.28
539.604	11.51
539.801	11.86
539.999	12.12
540.196	12.18
540.394	12.25
540.591	12.27
540.789	12.42
540.986	12.52
541.184	12.51
541.381	12.62
541.579	12.54
541.776	12.49
541.974	12.49
542.171	12.51
542.368	12.62
542.566	12.69
542.763	12.74
542.96	12.66
543.158	12.69
543.355	12.73
543.552	12.8
543.75	13.07
543.947	13.13
544.144	13.08
544.341	13.04
544.539	13
544.736	13.09
544.933	12.96
545.13	13.09
545.327	13.08
545.524	13.1
545.722	13.16
545.919	13.15
546.116	13.28
546.313	13.42
546.51	13.5
546.707	13.72
546.904	13.62
547.101	13.77
547.298	14.08
547.495	14.13
547.692	14.24
547.889	14.18
548.086	14.19
548.283	14.2
548.48	14.17
548.677	14.26
548.874	14.26
549.07	14.41
549.267	14.5
549.464	14.13
549.661	14.29
549.858	14.2
550.055	14.36
550.251	14.67
550.448	14.79
550.645	14.96
550.842	15.12
551.038	15.19
551.235	15.1
551.432	15.11
551.628	15.22
551.825	15.4
552.022	15.59
552.218	15.68
552.415	15.5
552.612	15.28
552.808	15.5
553.005	15.3
553.201	15.32
553.398	15.42
553.594	15.58
553.791	15.75
553.987	15.53
554.184	15.56
554.38	15.62
554.577	15.76
554.773	16.27
554.97	16.17
555.166	16.49
555.362	16.77
555.559	16.94
555.755	16.8
555.952	17.04
556.148	17.05
556.344	17.14
556.541	17.2
556.737	17.13
556.933	16.85
557.129	16.82
557.326	16.82
557.522	16.7
557.718	17.04
557.914	17.22
558.11	16.95
558.307	17.23
558.503	17.37
558.699	17.37
558.895	17.43
559.091	17.68
559.287	17.67
559.483	17.92
559.679	17.98
559.876	17.65
560.072	17.75
560.268	18.27
560.464	18.32
560.66	18.28
560.856	18.48
561.052	18.36
561.247	18.31
561.443	18.49
561.639	18.45
561.835	18.42
562.031	18.74
562.227	18.72
562.423	18.48
562.619	18.7
562.815	18.63
563.01	18.88
563.206	19.16
563.402	19.3
563.598	19.25
563.793	19.37
563.989	19.61
564.185	19.54
564.381	19.83
564.576	20.09
564.772	20.27
564.968	20.57
565.163	20.3
565.359	20.49
565.555	20.83
565.75	21.09
565.946	21.15
566.141	20.92
566.337	21.05
566.532	21.15
566.728	21.33
566.923	21.26
567.119	21.26
567.314	21.43
567.51	21.54
567.705	21.4
567.901	21.38
568.096	21.44
568.292	21.81
568.487	22.16
568.682	21.9
568.878	21.77
569.073	21.76
569.268	21.81
569.464	21.76
569.659	21.71
569.854	21.82
570.05	21.76
570.245	21.85
570.44	21.84
570.635	21.56
570.831	21.76
571.026	21.78
571.221	21.7
571.416	21.89
571.611	21.85
571.806	21.87
572.002	21.88
572.197	21.99
572.392	21.85
572.587	21.88
572.782	21.96
572.977	21.95
573.172	21.9
573.367	22.23
573.562	22.06
573.757	22.25
573.952	22.1
574.147	21.92
574.342	22.07
574.537	22.41
574.732	22.55
574.927	22.85
575.121	23.04
575.316	23.25
575.511	23.06
575.706	23.28
575.901	23.12
576.096	23.64
576.29	23.71
576.485	23.81
576.68	23.71
576.875	23.79
577.069	23.68
577.264	23.45
577.459	23.48
577.654	23.65
577.848	23.71
578.043	24.1
578.238	23.83
578.432	24.17
578.627	24.07
578.821	24.31
579.016	24.26
579.21	24.25
579.405	24.63
579.6	24.35
579.794	24.2
579.989	24.15
580.183	24.02
580.378	24.01
580.572	23.99
580.766	23.96
580.961	23.78
581.155	23.82
581.35	23.93
581.544	24.01
581.738	24.29
581.933	24.57
582.127	24.61
582.321	24.77
582.516	25.06
582.71	24.87
582.904	24.95
583.099	24.99
583.293	25
583.487	24.87
583.681	24.96
583.875	24.91
584.07	24.95
584.264	24.84
584.458	24.88
584.652	24.82
584.846	25.03
585.04	25.06
585.234	24.99
585.428	24.96
585.623	24.99
585.817	24.84
586.011	25.1
586.205	25.12
586.399	25.46
586.593	25.33
586.787	25.11
586.981	25.16
587.174	25.05
587.368	25.07
587.562	25.23
587.756	25.24
587.95	25.2
588.144	25.16
588.338	24.84
588.532	24.85
588.725	24.87
588.919	24.95
589.113	25.03
589.307	25.1
589.501	25.11
589.694	25.31
589.888	25.49
590.082	25.62
590.275	25.74
590.469	25.99
590.663	26.01
590.856	26.41
591.05	26.58
591.244	26.31
591.437	26.59
591.631	26.62
591.824	26.31
592.018	26.41
592.212	26.47
592.405	26.56
592.599	26.67
592.792	26.59
592.986	26.17
593.179	26.3
593.372	26.83
593.566	26.72
593.759	27.1
593.953	27.1
594.146	27.08
594.339	26.99
594.533	27.2
594.726	27.17
594.92	27.22
595.113	27.38
595.306	27.39
595.499	27.5
595.693	27.45
595.886	27.05
596.079	27.11
596.272	26.91
596.466	27.12
596.659	26.78
596.852	26.85
597.045	26.7
597.238	26.68
597.431	26.64
597.624	26.47
597.818	26.66
598.011	26.85
598.204	26.96
598.397	27.19
598.59	27.19
598.783	27.42
598.976	27.52
599.169	27.81
599.362	27.75
599.555	28
599.748	27.92
599.941	27.86
600.134	27.9
600.326	27.96
600.519	27.98
600.712	27.8
600.905	27.67
601.098	27.73
601.291	27.61
601.483	28
601.676	27.5
601.869	27.29
602.062	27.28
602.255	27.57
602.447	27.67
602.64	27.63
602.833	27.71
603.025	28.09
603.218	27.76
603.411	27.67
603.603	27.65
603.796	27.91
603.989	28.3
604.181	28.47
604.374	28.47
604.566	28.14
604.759	28.22
604.951	28.12
605.144	28.07
605.336	28.2
605.529	28.33
605.721	28.43
605.914	28.3
606.106	28.27
606.299	28.26
606.491	28.15
606.683	28.39
606.876	28.11
607.068	28.12
607.26	27.81
607.453	27.89
607.645	27.93
607.837	27.71
608.03	28
608.222	28.16
608.414	27.81
608.606	27.68
608.799	27.66
608.991	28.09
609.183	28.23
609.375	28.26
609.567	28.26
609.759	28.18
609.952	28.1
610.144	27.89
610.336	27.77
610.528	27.62
610.72	27.67
610.912	27.53
611.104	27.09
611.296	27.09
611.488	27.21
611.68	27.24
611.872	27.2
612.064	27.49
612.256	27.38
612.448	27.54
612.64	27.94
612.832	27.98
613.023	28.24
613.215	28.44
613.407	28.3
613.599	27.88
613.791	27.98
613.983	28.05
614.174	27.89
614.366	28.32
614.558	27.99
614.75	28.01
614.941	28
615.133	27.83
615.325	28.02
615.516	27.97
615.708	28.25
615.9	28.34
616.091	28.1
616.283	28.41
616.475	27.99
616.666	28.1
616.858	28.16
617.049	28.26
617.241	28.32
617.432	28.39
617.624	28.28
617.815	28.44
618.007	28.22
618.198	28.67
618.39	28.37
618.581	28.62
618.773	28.67
618.964	29.04
619.155	29.17
619.347	29.52
619.538	29.32
619.729	29.76
619.921	29.73
620.112	29.92
620.303	29.69
620.494	29.81
620.686	30.04
620.877	30.31
621.068	29.78
621.259	29.63
621.451	29.32
621.642	29.35
621.833	29.06
622.024	28.92
622.215	28.93
622.406	28.98
622.597	29.17
622.788	29.13
622.98	28.7
623.171	28.8
623.362	29.12
623.553	29.18
623.744	29.31
623.935	29.6
624.126	29.38
624.317	29.15
624.508	29.33
624.698	29.34
624.889	28.96
625.08	29.22
625.271	29.16
625.462	29.16
625.653	29.44
625.844	29.33
626.034	29.6
626.225	29.85
626.416	30.03
626.607	29.87
626.798	29.8
626.988	29.95
627.179	29.92
627.37	29.91
627.56	29.81
627.751	29.48
627.942	29.98
628.132	29.88
628.323	29.93
628.514	30.1
628.704	30.5
628.895	30.39
629.085	30.62
629.276	30.63
629.466	31.01
629.657	30.89
629.847	30.94
630.038	30.71
630.228	30.77
630.419	30.73
630.609	30.44
630.8	30.33
630.99	30.54
631.181	30.73
631.371	30.73
631.561	30.37
631.752	30.4
631.942	30.79
632.132	30.29
632.323	30.14
632.513	30.25
632.703	30.15
632.893	29.84
633.084	29.33
633.274	29.13
633.464	29.12
633.654	29.61
633.844	29.51
634.034	29.27
634.225	29.56
634.415	29.85
634.605	30.18
634.795	30.26
634.985	30.35
635.175	30.52
635.365	30.32
635.555	30.13
635.745	29.8
635.935	29.76
636.125	29.79
636.315	29.79
636.505	29.82
636.695	29.5
636.885	29.65
637.075	29.77
637.265	29.81
637.455	29.81
637.644	29.87
637.834	29.94
638.024	30.11
638.214	30.07
638.404	30.4
638.593	30.17
638.783	29.76
638.973	29.92
639.163	29.87
639.352	30.04
639.542	30.17
639.732	30.02
639.921	30.52
640.111	30.6
640.301	30.4
640.49	30.07
640.68	29.88
640.87	30.45
641.059	30.3
641.249	30.43
641.438	30.8
641.628	30.76
641.817	30.75
642.007	29.98
642.196	29.9
642.386	29.77
642.575	30.01
642.764	30.07
642.954	29.65
643.143	29.67
643.333	29.01
643.522	28.43
643.711	28.37
643.901	28.71
644.09	28.62
644.279	28.56
644.469	29.07
644.658	29.05
644.847	29.07
645.036	29.3
645.226	29.63
645.415	29.89
645.604	30.48
645.793	30.85
645.982	30.22
646.171	30.79
646.361	30.84
646.55	31.07
646.739	30.91
646.928	31.22
647.117	31.15
647.306	30.82
647.495	31.25
647.684	30.85
647.873	30.51
648.062	31.27
648.251	31.12
648.44	31.61
648.629	31.47
648.818	31.27
649.007	31.23
649.196	31.48
649.384	31.36
649.573	30.76
649.762	30.92
649.951	31.12
650.14	31.11
650.328	31.66
650.517	31.72
650.706	31.77
650.895	32.18
651.083	31.69
651.272	31.44
651.461	31.3
651.65	31.57
651.838	31.78
652.027	32.16
652.216	31.86
652.404	30.94
652.593	30.72
652.781	30.58
652.97	30.08
653.158	30.01
653.347	30.49
653.535	30.72
653.724	31.28
653.912	31.14
654.101	30.79
654.289	31.05
654.478	31.82
654.666	31.31
654.855	31.16
655.043	31.45
655.231	31.85
655.42	31.95
655.608	32.08
655.796	31.41
655.985	31.01
656.173	31.43
656.361	31.25
656.55	30.66
656.738	31.19
656.926	31.28
657.114	31.05
657.302	31.17
657.491	30.62
657.679	30.39
657.867	30.68
658.055	30.98
658.243	30.21
658.431	30.41
658.619	30.78
658.807	31.09
658.996	31.48
659.184	31.71
659.372	31.86
659.56	32.03
659.748	32.26
659.936	32.24
660.124	32.39
660.311	32.91
660.499	32.67
660.687	32.36
660.875	32.21
661.063	31.87
661.251	31.35
661.439	31.1
661.627	31.14
661.814	31.06
662.002	30.98
662.19	31.16
662.378	31.13
662.565	31.2
662.753	31.7
662.941	31.42
663.129	31.52
663.316	32.35
663.504	32.53
663.692	32.55
663.879	32.66
664.067	32.91
664.254	32.26
664.442	31.95
664.63	32.38
664.817	32.57
665.005	32.08
665.192	32.22
665.38	31.45
665.567	31.37
665.755	31.28
665.942	30.76
666.13	30.24
666.317	30.61
666.504	30.7
666.692	30.44
666.879	29.96
667.067	30
667.254	29.63
667.441	30.35
667.629	30.11
667.816	30.15
668.003	30.58
668.19	31.44
668.378	31.07
668.565	30.91
668.752	30.8
668.939	30.88
669.127	31.31
669.314	31.43
669.501	31.71
669.688	31.92
669.875	32.08
670.062	32.03
670.249	31.92
670.436	32.35
670.623	32.29
670.81	31.99
670.997	31.97
671.184	31.99
671.371	32.08
671.558	31.66
671.745	31.25
671.932	31.12
672.119	31.53
672.306	31.25
672.493	31.08
672.68	30.81
672.867	31.92
673.054	31.79
673.24	32.02
673.427	32.24
673.614	31.58
673.801	31.8
673.988	32.2
674.174	32.02
674.361	31.86
674.548	31.88
674.734	32.63
674.921	31.82
675.108	32.04
675.294	31.72
675.481	31.3
675.668	32.34
675.854	32.59
676.041	31.75
676.227	31.22
676.414	31.02
676.601	30.82
676.787	30.7
676.974	30.48
677.16	30.33
677.347	30.62
677.533	30.75
677.719	30.77
677.906	30.29
678.092	30.11
678.279	30.34
678.465	30.78
678.651	30.81
678.838	31.34
679.024	31.77
679.21	31.84
679.397	32.15
679.583	32.08
679.769	31.5
679.955	31.92
680.142	32.04
680.328	31.92
680.514	31.99
680.7	31.84
680.886	31.4
681.073	31.39
681.259	31.23
681.445	30.5
681.631	30.96
681.817	31.07
682.003	31.06
682.189	31.23
682.375	31.12
682.561	30.43
682.747	30.48
682.933	30.67
683.119	30.7
683.305	31.19
683.491	31.66
683.677	31.51
683.863	31.87
684.049	31.92
684.235	32.56
684.42	33.13
684.606	34.08
684.792	34.09
684.978	34.53
685.164	34.59
685.349	33.76
685.535	33.7
685.721	33.3
685.907	32.79
686.092	32.63
686.278	31.69
686.464	31.73
686.649	31.45
686.835	31.98
687.021	31.02
687.206	31.32
687.392	31.9
687.577	31.52
687.763	32.24
687.948	32.03
688.134	32.44
688.319	33.07
688.505	33.1
688.69	32.71
688.876	32.66
689.061	32.87
689.247	32.82
689.432	32.88
689.618	33.28
689.803	33.34
689.988	33.8
690.174	33.25
690.359	33.41
690.544	33.36
690.73	33.96
690.915	33.56
691.1	33.71
691.285	33.64
691.471	33.52
691.656	33.37
691.841	32.86
692.026	32.82
692.211	33.31
692.396	32.54
692.582	32.27
692.767	31.36
692.952	32.19
693.137	32.49
693.322	32.63
693.507	33.18
693.692	33.24
693.877	32.82
694.062	33.43
694.247	32.83
694.432	32.97
694.617	32.97
694.802	33.25
694.987	32.47
695.172	32.38
695.357	32.34
695.541	31.41
695.726	31.21
695.911	31.22
696.096	30.96
696.281	31.74
696.466	32.15
696.65	31.95
696.835	32.29
697.02	32.63
697.204	33.31
697.389	33.05
697.574	33.97
697.759	33.29
697.943	33.22
698.128	32.98
698.312	32.95
698.497	32.58
698.682	33.09
698.866	32.98
699.051	33.15
699.235	32.49
699.42	32.33
699.604	31.62
699.789	32.53
699.973	32.98
700.158	33.12
700.342	33.16
700.527	33.45
700.711	33.56
700.895	33.92
701.08	33.77
701.264	34.19
701.448	34.15
701.633	34.5
701.817	33.65
702.001	32.86
702.186	32.64
702.37	32.02
702.554	32.06
702.738	31.47
702.923	30.77
703.107	30.78
703.291	31.02
703.475	30.66
703.659	30.25
703.843	29.92
704.027	30.38
704.212	30.71
704.396	30.57
704.58	30.51
704.764	29.95
704.948	30.94
705.132	30.99
705.316	29.74
705.5	30.28
705.684	31.31
705.868	31.93
706.052	32.66
706.235	32.46
706.419	32.85
706.603	32.75
706.787	33.88
706.971	32.74
707.155	32.89
707.339	33.92
707.522	33.3
707.706	32.7
707.89	33.51
708.074	32.55
708.257	33.01
708.441	33.73
708.625	34.41
708.808	34.05
708.992	34.65
709.176	33.95
709.359	32.91
709.543	33.3
709.727	33.54
709.91	32.65
710.094	33.15
710.277	32.17
710.461	31.28
710.644	30.08
710.828	30.72
711.011	30.73
711.195	30.76
711.378	30.94
711.562	31.63
711.745	31.15
711.928	30.8
712.112	30.78
712.295	31.65
712.478	31.48
712.662	31.67
712.845	30.93
713.028	30.88
713.212	31.16
713.395	31.27
713.578	30.67
713.761	30.86
713.945	32.37
714.128	32.17
714.311	31.68
714.494	32.73
714.677	33.3
714.86	33.41
715.043	33.59
715.227	33.23
715.41	33.92
715.593	33.66
715.776	33.47
715.959	32.5
716.142	32.42
716.325	33
716.508	32.29
716.691	32.37
716.874	33.14
717.057	33.55
717.239	33.85
717.422	33.39
717.605	33.81
717.788	34
717.971	34.72
718.154	36.22
718.337	35.57
718.519	35.23
718.702	35.23
718.885	34.54
719.068	33.21
719.25	33.29
719.433	32.82
719.616	32.01
719.798	31.43
719.981	32.11
720.164	30.81
720.346	31.54
720.529	31.15
720.712	31.43
720.894	31.2
721.077	31.36
721.259	30.73
721.442	31.93
721.624	32.87
721.807	33.25
721.989	32.07
722.172	32.06
722.354	31.19
722.537	32.28
722.719	32.25
722.901	33.09
723.084	34.41
723.266	35.05
723.448	34.87
723.631	34.6
723.813	34.76
723.995	35.38
724.178	35.23
724.36	35.09
724.542	35.59
724.724	35.99
724.907	34.29
725.089	33.38
725.271	33.86
725.453	33.76
725.635	34.78
725.817	35.3
725.999	34.75
726.181	34.33
726.364	33.88
726.546	32.84
726.728	32.71
726.91	32.82
727.092	32.92
727.274	32.53
727.456	31.75
727.638	30.64
727.819	30.7
728.001	30.1
728.183	30.36
728.365	31.65
728.547	31.75
728.729	31.22
728.911	32.23
729.093	32.49
729.274	32.13
729.456	32.97
729.638	33.82
729.82	33.22
730.001	33.83
730.183	34.78
730.365	33.91
730.546	33.22
730.728	33.13
730.91	32.84
731.091	31.36
731.273	30.72
731.455	30.4
731.636	30.27
731.818	30.88
731.999	31.28
732.181	31.02
732.362	31.26
732.544	32.15
732.725	32.15
732.907	31.62
733.088	33.65
733.27	34.63
733.451	34.76
733.633	34.49
733.814	34.36
733.995	33.13
734.177	32.75
734.358	32.76
734.539	32.86
734.721	31.94
734.902	31.77
735.083	31.45
735.264	31.07
735.446	30.5
735.627	30.73
735.808	31.25
735.989	32.73
736.17	32.89
736.351	33.33
736.533	33.03
736.714	34
736.895	34.66
737.076	34.61
737.257	34.58
737.438	34.5
737.619	34.1
737.8	34.58
737.981	34.25
738.162	35.39
738.343	34.8
738.524	34.3
738.705	33.44
738.886	33.69
739.067	33.72
739.247	34.08
739.428	33.58
739.609	33.58
739.79	33.12
739.971	32.62
740.151	31.45
740.332	31.22
740.513	31.83
740.694	31.87
740.874	31.96
741.055	31.17
741.236	31.49
741.417	32.45
741.597	32.22
741.778	31.42
741.958	32.24
742.139	33.02
742.32	33.99
742.5	34.64
742.681	35.38
742.861	34.28
743.042	37.06
743.222	36.77
743.403	37.18
743.583	38.01
743.764	38.3
743.944	38.91
744.124	38.84
744.305	39.23
744.485	39.18
744.666	38.96
744.846	39.52
745.026	37.51
745.207	36.79
745.387	36.53
745.567	36.55
745.747	37.78
745.928	37.26
746.108	35.91
746.288	36.22
746.468	35.58
746.648	36.51
746.829	36.98
747.009	37.47
747.189	36.5
747.369	36.28
747.549	36.01
747.729	33.97
747.909	33.93
748.089	35.12
748.269	33.12
748.449	32.91
748.629	32.21
748.809	33.74
748.989	35.12
749.169	35.71
749.349	36.86
749.529	36.19
749.709	37.2
749.889	36.37
750.068	34.04
750.248	34.7
750.428	34.57
750.608	34.19
750.788	32.82
750.967	30.57
751.147	31.68
751.327	30.02
751.507	29.79
751.686	29.8
751.866	31.58
752.046	31.92
752.225	32.53
752.405	32.46
752.585	33.87
752.764	33.35
752.944	32.68
753.123	32.7
753.303	32.12
753.482	31.54
753.662	31.95
753.841	29.77
754.021	30.02
754.2	30.48
754.38	31.45
754.559	31.09
754.739	30.17
754.918	30.69
755.097	30.96
755.277	31.37
755.456	32.83
755.635	31.92
755.815	32.63
755.994	34.5
756.173	34.12
756.352	34.02
756.532	32.54
756.711	32.51
756.89	32.26
757.069	31.87
757.248	31.84
757.427	31.41
757.607	31.27
757.786	32.32
757.965	31.68
758.144	31.17
758.323	30.97
758.502	33.09
758.681	35.44
758.86	35.44
759.039	34.31
759.218	35.19
759.397	36.82
759.576	37.53
759.755	36.28
759.934	35.71
760.113	35.09
760.291	35.66
760.47	34.16
760.649	32.63
760.828	33
761.007	34.6
761.186	34.94
761.364	32.6
761.543	33.08
761.722	33.05
761.901	33.84
762.079	35.07
762.258	35.66
762.437	35.59
762.615	35.67
762.794	35.68
762.972	37.07
763.151	37.22
763.33	37.82
763.508	37.9
763.687	38.37
763.865	38.19
764.044	37.39
764.222	35.87
764.401	36.29
764.579	36.33
764.758	36.09
764.936	34.43
765.114	34.15
765.293	32.98
765.471	32.27
765.65	33.54
765.828	32.7
766.006	32.97
766.184	32.88
766.363	31.96
766.541	32
766.719	31.49
766.898	30.62
767.076	30.65
767.254	31.6
767.432	31.11
767.61	28.74
767.788	30.2
767.967	31.54
768.145	32.02
768.323	32.99
768.501	32.75
768.679	34.29
768.857	35.76
769.035	34.42
769.213	35.2
769.391	36.39
769.569	36.42
769.747	34.95
769.925	33.15
770.103	35.37
770.281	34.49
770.459	36.3
770.636	36.55
770.814	33.84
770.992	33.24
771.17	33.69
771.348	32.02
771.525	32.84
771.703	32.36
771.881	32.79
772.059	34.57
772.236	36.07
772.414	34.08
772.592	32.11
772.769	35.21
772.947	35.71
773.125	34.77
773.302	35.39
773.48	34.68
773.657	34.53
773.835	35.63
774.013	31.02
774.19	27.77
774.368	28.7
774.545	29.48
774.723	26.93
774.9	28.94
775.077	28.82
775.255	30.65
775.432	31.59
775.61	32.11
775.787	32.69
775.964	32.29
776.142	32.59
776.319	33.47
776.496	37.81
776.674	42.09
776.851	40.4
777.028	39.92
777.205	40.53
777.382	40.74
777.56	42.19
777.737	38.94
777.914	40.51
778.091	41.95
778.268	40.02
778.445	37.98
778.622	34.37
778.8	37.57
778.977	36.29
779.154	35.73
779.331	35.03
779.508	33.18
779.685	35.99
779.862	37.12
780.038	37.67
780.215	36.18
780.392	35.83
780.569	36.25
780.746	31.63
780.923	32.7
781.1	30.04
781.277	32.26
781.453	33.54
781.63	32.65
781.807	32.68
781.984	34.01
782.16	33.09
782.337	29.92
782.514	28.71
782.691	30.56
782.867	29.8
783.044	32.53
783.221	30.87
783.397	31.3
783.574	30.7
783.75	29.66
783.927	30.15
784.103	33.04
784.28	35.03
784.456	32.87
784.633	35.38
784.809	34.99
784.986	31.12
785.162	30.65
785.339	27.8
785.515	27.84
785.692	25.57
785.868	25.16
786.044	27.41
786.221	24.27
786.397	27.41
786.573	25.72
786.749	28.53
786.926	28.69
787.102	27.39
787.278	30.87
787.454	30.45
787.631	31.49
787.807	30.83
787.983	30.21
788.159	30.41
788.335	31.52
788.511	30.96
788.687	32.11
788.863	35.02
789.039	36.62
789.216	35.56
789.392	38.73
789.568	37.98
789.744	36.23
789.919	35.75
790.095	36.42
790.271	37.41
790.447	39.26
790.623	35.76
790.799	35.5
790.975	35.12
791.151	35.16
791.327	32.68
791.502	33.88
791.678	33.2
791.854	32.92
792.03	34.32
792.205	34.33
792.381	29.69
792.557	30.41
792.733	29.92
792.908	28.73
793.084	26.37
793.259	24.99
793.435	26.74
793.611	28.7
793.786	32.44
793.962	34.67
794.137	34.46
794.313	37.8
794.488	38.24
794.664	40.59
794.839	41
795.015	43.29
795.19	41.67
795.366	41.66
795.541	42.35
795.716	37.64
795.892	36.89
796.067	35.25
796.242	36.92
796.418	36.77
796.593	32.11
796.768	35.29
796.944	34.4
797.119	35.11
797.294	34.4
797.469	38.39
797.644	42.72
797.82	44
797.995	41.87
798.17	40.86
798.345	40.88
798.52	43.05
798.695	40.22
798.87	38.98
799.045	44.07
799.22	42.27
799.395	35.65
799.57	34.7
799.745	30.86
799.92	33.31
800.095	32.53
800.27	31.7
800.445	32.55
800.62	29.76
800.795	26.59
800.97	23.05
801.145	25.26
801.319	29.99
801.494	29.46
801.669	28.88
801.844	31.07
802.018	29.7
802.193	33.01
802.368	28.58
802.543	32.87
802.717	36.31
802.892	36.07
803.067	38.74
803.241	40.96
803.416	37.02
803.59	38.06
803.765	38.85
803.94	42.02
804.114	38.94
804.289	40.04
804.463	37.23
804.638	39.89
804.812	37.68
804.986	31.63
805.161	27.39
805.335	30.03
805.51	29.31
805.684	26.31
805.858	25.02
806.033	26.25
806.207	27.85
806.381	28.21
806.556	28.03
806.73	28.25
806.904	29.26
807.078	27.95
807.253	25.31
807.427	26.94
807.601	28
807.775	29.75
807.949	26.42
808.123	23.07
808.298	20.55
808.472	17.97
808.646	21.7
808.82	23.29
808.994	23.62
809.168	28.3
809.342	24.85
809.516	21.73
809.69	21.44
809.864	21.93
810.038	24.07
810.212	22.77
810.385	25.17
810.559	21.71
810.733	22.63
810.907	21.02
811.081	21.59
811.255	28.46
811.428	28.39
811.602	25.89
811.776	33.3
811.95	35.02
812.123	40.17
812.297	43.11
812.471	41.75
812.644	41.37
812.818	47.59
812.992	42.67
813.165	38.65
813.339	41.69
813.512	42.81
813.686	37.53
813.86	35.37
814.033	34.2
814.207	25.79
814.38	28.1
814.554	28.68
814.727	26.72
814.9	29.42
815.074	31.13
815.247	29.78
815.421	26.15
815.594	27.13
815.767	24.25
815.941	26.29
816.114	33.3
816.287	33.51
816.46	30.2
816.634	29.93
816.807	31.68
816.98	28.95
817.153	31.08
817.327	37.96
817.5	38.27
817.673	40.31
817.846	42.83
818.019	37.77
818.192	36.13
818.365	40.09
818.538	38.92
818.711	32.94
818.884	37.84
819.057	33.25
819.23	34.05
819.403	34.96
819.576	33.17
819.749	30.05
819.922	33.64
820.095	34.46
820.268	34.16
820.441	34.59
820.614	36.63
820.786	32.36
820.959	32.12
821.132	28.57
821.305	28.25
821.477	30.3
821.65	29.25
821.823	28.38
821.996	30.79
822.168	31.3
822.341	32.8
822.514	33.63
822.686	34.32
822.859	35.35
823.031	35.91
823.204	36.52
823.376	36.21
823.549	36.6
823.722	37.08
823.894	36.57
824.067	36.17
824.239	35.89
824.411	35.46
824.584	35.25
824.756	34.8
824.929	35.23
825.101	35.43
825.273	36.48
825.446	38.13
825.618	38.6
825.79	38.64
825.963	39.2
826.135	37.76
826.307	38.92
826.479	39.64
826.652	39.2
826.824	37.84
826.996	36.22
827.168	33.92
827.34	33.61
827.512	35.06
827.684	34.36
827.856	34.14
828.029	35.09
828.201	34.62
828.373	34.68
828.545	35.87
828.717	36.04
828.889	35.51
829.061	37.55
829.232	36.47
829.404	32.52
829.576	32.53
829.748	35.12
829.92	35.5
830.092	33.39
830.264	31.99
830.436	30.62
830.607	29.87
830.779	30.62
830.951	29.42
831.123	30.93
831.294	32.28
831.466	33.59
831.638	27.48
831.809	28.48
831.981	33.14
832.153	32.42
832.324	28.55
832.496	33.42
832.667	30.1
832.839	27.06
833.011	24.25
833.182	24.97
833.354	24.96
833.525	29.95
833.697	29.62
833.868	28.43
834.039	29.41
834.211	30.23
834.382	28.69
834.554	33.45
834.725	34.5
834.896	37.08
835.068	35.36
835.239	34.91
835.41	34.51
835.581	32.29
835.753	31.69
835.924	32.21
836.095	34.96
836.266	32.39
836.438	30.3
836.609	31.8
836.78	30.13
836.951	34.57
837.122	34.6
837.293	30.62
837.464	29.1
837.635	30.49
837.806	26.2
837.977	23.32
838.148	27.66
838.319	28.63
838.49	32.76
838.661	36.1
838.832	30.25
839.003	30.83
839.174	29.9
839.345	35.4
839.516	35.67
839.687	37.53
839.857	40.1
840.028	41.06
840.199	45.18
840.37	42
840.54	34.47
840.711	35.15
840.882	35.6
841.053	36.03
841.223	36.97
841.394	35.8
841.564	34.32
841.735	32.17
841.906	35.83
842.076	26.08
842.247	23.61
842.417	27.43
842.588	28.75
842.758	28.05
842.929	29.72
843.099	29.43
843.27	18.67
843.44	21.06
843.611	25.93
843.781	28.85
843.951	35.58
844.122	30.04
844.292	23.61
844.462	30.73
844.633	24.2
844.803	40.47
844.973	48.34
845.144	55.21
845.314	48.98
845.484	43.22
845.654	29.69
845.824	13.63
845.995	-9.13
846.165	-19.37
846.335	-55.4
846.505	-103.95
846.675	-114.2
846.845	-126.08
847.015	-166.61
847.185	-179.94
847.355	-54.32
847.525	-41.96
847.695	-42.23
847.865	-6.07
848.035	5.96
848.205	6.99
848.375	19.85
848.545	3.84
848.715	-4.81
848.884	42.46
849.054	49.4
849.224	48.61
849.394	56.04
849.564	110.52
849.733	98.7
849.903	81.93
850.073	71.46
850.243	87.46
850.412	131.49
850.582	111.54
850.752	84.75
850.921	60.89
851.091	57.66
851.26	50.03
851.43	26.56
851.599	41.52
851.769	11.41
851.939	5.09
852.108	-16.19
852.278	-18.84
852.447	-9.2
852.616	-1.78
852.786	-0.22
852.955	2.48
853.125	-9.69
853.294	-0.19
853.463	-10.97
853.633	1.7
853.802	17.58
853.971	14.19
854.141	11.94
854.31	17.72
854.479	14.57
854.648	17.14
854.818	5.15
854.987	1.88
855.156	4.26
855.325	-22.09
855.494	-9.9
855.663	-60.23
855.832	-9.13
856.001	2.58
856.171	-9.98
856.34	-4.56
856.509	-12.09
856.678	19.24
856.847	34.39
857.016	33.61
857.185	36.37
857.353	44.71
857.522	60.53
857.691	34.14
857.86	22.39
858.029	28.6
858.198	28.89
858.367	29.07
858.535	23.63
858.704	23.93
858.873	-2.18
859.042	-0.32
859.21	-1.7
859.379	15.12
859.548	42.76
859.717	50.34
859.885	70.23
860.054	63.17
860.222	61.31
860.391	61.21
860.56	46.66
860.728	83.06
860.897	63.16
861.065	65.75
861.234	63.07
861.402	50.78
861.571	50.32
861.739	32.56
861.908	57.61
862.076	52.15
862.244	53.12
862.413	61.59
862.581	51.52
862.749	61.58
862.918	79.16
863.086	64.6
863.254	63.83
863.423	71.88
863.591	55.93
863.759	13.92
863.927	20.77
864.096	18.01
864.264	24.92
864.432	43.13
864.6	51.12
864.768	28.39
864.936	29.63
865.104	18.69
865.272	10.68
865.44	14.28
865.608	23.99
865.776	38.77
865.944	52.94
866.112	38.83
866.28	44.51
866.448	21.78
866.616	22.45
866.784	13.72
866.952	7.16
867.12	22.75
867.288	13.84
867.455	25.73
867.623	7.63
867.791	-7.58
867.959	-5.08
868.127	-9.52
868.294	3.01
868.462	18.14
868.63	26.79
868.797	52.32
868.965	82.07
869.133	102.42
869.3	69.49
869.468	71.93
869.636	1.76
869.803	9.8
869.971	-17.14
870.138	-1.76
870.306	-16.21
870.473	-39.02
870.641	-3.89
870.808	-23.7
870.975	-31.92
871.143	-89.49
871.31	-102.46
871.478	-71.05
871.645	-64.88
871.812	-108.11
871.98	-61.68
872.147	-127.25
872.314	-45.54
872.482	-110.61
872.649	12.5
872.816	-18
872.983	1.18
873.15	41.28
873.318	-10.21
873.485	3.11
873.652	-4.78
873.819	-89.69
873.986	-32.15
874.153	-22.9
874.32	-22.44
874.487	-203.96
874.654	-111.23
874.821	-134.12
874.988	-895.04
875.155	-165.98
875.322	1364.72
875.489	-3197.9
875.656	-106.31
875.823	-219.98
875.99	603.1
876.157	1015.74
876.324	-213.98
876.49	-103.32
876.657	-121.49
876.824	-34.93
876.991	-48.1
877.157	-16.16
877.324	-15.87
877.491	-6.12
877.658	28.31
877.824	47.22
877.991	64.47
878.157	77.71
878.324	81.27
878.491	53.57
878.657	42.67
878.824	50.87
878.99	16.24
879.157	30.13
879.323	13.22
879.49	4.68
879.656	-16.16
879.823	6.42
879.989	-8.79
880.156	-7.11
880.322	-98.36
880.488	3.23
880.655	26.54
880.821	32.23
880.987	13.16
881.154	-0.14
881.32	13.02
881.486	-4.92
881.652	-9.44
881.819	4.89
881.985	4.82
882.151	19.85
882.317	18.65
882.483	21.99
882.649	25.61
882.816	26.42
882.982	28.86
883.148	28.9
883.314	36.92
883.48	37.53
883.646	36.37
883.812	39.07
883.978	38.41
884.144	37.29
884.31	35.69
884.476	36.19
884.642	37.58
884.807	37.43
884.973	36.95
885.139	31.79
885.305	33.08
885.471	34.45
885.637	27.77
885.802	27.37
885.968	30.48
886.134	37.42
886.3	37.33
886.465	29.03
886.631	24.08
886.797	18.69
886.962	18.54
887.128	7.9
887.293	-0.64
887.459	11.84
887.625	2.96
887.79	-12.46
887.956	-27.73
888.121	-31.59
888.287	-16.48
888.452	-7.77
888.618	-6.64
888.783	-18.97
