Data from 2937861_Reflection_2.txt Node
Date: Wed Jul 15 15:24:55 EDT 2015
User: robert
Spectrometer: USB4E03001
Autoset integration time: false
Trigger mode: 4
Integration Time (sec): 1.000000E-1
Scans to average: 10
Electric dark correction enabled: true
Nonlinearity correction enabled: false
Boxcar width: 5
Stray light correction enabled: false
XAxis mode: Wavelengths
Stop averaging: false
Number of Pixels in Spectrum: 3648
>>>>>Begin Spectral Data<<<<<
177.566	-10.28
177.785	-6.24
178.005	-29.52
178.225	-32.37
178.445	-104.03
178.665	-177.65
178.885	922.22
179.105	346.32
179.324	192.07
179.544	19.85
179.764	29.18
179.984	45.97
180.204	26.59
180.423	25.93
180.643	14.49
180.863	3.79
181.083	14.73
181.302	30.97
181.522	58.42
181.742	81.86
181.961	34.75
182.181	62.83
182.401	2.84
182.621	30.61
182.84	64.77
183.06	51.4
183.279	70.08
183.499	55.65
183.719	35.59
183.938	90
184.158	66.65
184.377	109.68
184.597	99.58
184.816	120.61
185.036	213.7
185.256	161.88
185.475	221.19
185.695	231.14
185.914	645.23
186.134	363.91
186.353	199.42
186.572	138
186.792	117.82
187.011	75.26
187.231	61.26
187.45	66.52
187.67	60.75
187.889	66.04
188.108	52.13
188.328	90.99
188.547	82.82
188.766	68.99
188.986	73.09
189.205	74.17
189.424	84.42
189.644	33.39
189.863	-62.21
190.082	-269.21
190.302	1445.58
190.521	-83.18
190.74	-109.26
190.959	-209.86
191.178	-113.97
191.398	-116.35
191.617	-186.78
191.836	-188.62
192.055	-130.65
192.274	-94.05
192.494	-66.02
192.713	-53.43
192.932	-71.96
193.151	-141.61
193.37	-127.53
193.589	-2754.55
193.808	-491.38
194.027	-113.39
194.246	56.49
194.465	67.48
194.685	58.89
194.904	87.47
195.123	66.48
195.342	112.89
195.561	117.84
195.78	96.54
195.999	48.08
196.218	35.01
196.436	18.11
196.655	18.99
196.874	25.91
197.093	34.76
197.312	22.31
197.531	8.49
197.75	-3.11
197.969	23.66
198.188	27.38
198.407	61.9
198.625	81.18
198.844	98.51
199.063	88
199.282	37.69
199.501	37.95
199.719	119.97
199.938	88.77
200.157	65.13
200.376	67
200.594	73.04
200.813	38.69
201.032	67.19
201.251	74.64
201.469	86.66
201.688	105.83
201.907	82.18
202.125	34.09
202.344	35.66
202.563	13.06
202.781	-217.59
203	-98.27
203.218	-154.28
203.437	33740
203.656	3895.02
203.874	-695.91
204.093	-660.03
204.311	-115.31
204.53	-212.13
204.748	-67.44
204.967	-69.54
205.185	-48.86
205.404	-79.15
205.622	-37.82
205.841	-24.74
206.059	21.47
206.278	17.8
206.496	29.36
206.715	35.1
206.933	53.28
207.151	52
207.37	59.49
207.588	79.66
207.806	78
208.025	74.19
208.243	81.12
208.461	71.07
208.68	81.6
208.898	77.67
209.116	61.09
209.335	37.3
209.553	33.79
209.771	33.82
209.989	41.05
210.208	27.92
210.426	10.2
210.644	1.1
210.862	10.31
211.081	-3.88
211.299	14.29
211.517	38.46
211.735	51.78
211.953	41.59
212.171	49.72
212.39	45.75
212.608	38.67
212.826	37.84
213.044	22.64
213.262	17.44
213.48	-0.01
213.698	-14.38
213.916	-50.7
214.134	-42.94
214.352	-3.33
214.57	-32.56
214.788	-9.45
215.006	15.4
215.224	22.16
215.442	35.9
215.66	33.08
215.878	55.98
216.096	56.86
216.314	86.87
216.532	84.5
216.75	61.95
216.968	53.22
217.185	62.75
217.403	86.13
217.621	88.74
217.839	94.73
218.057	116.39
218.275	67.38
218.492	62.35
218.71	7.55
218.928	-53.99
219.146	-0.03
219.363	45.28
219.581	41.6
219.799	21.43
220.017	26.17
220.234	28.65
220.452	24.02
220.67	38.04
220.887	40.87
221.105	60.32
221.323	56.65
221.54	42.86
221.758	26.13
221.976	20.24
222.193	20.98
222.411	18.62
222.629	24.78
222.846	23.29
223.064	13.07
223.281	3.7
223.499	-1.4
223.716	6.92
223.934	10.88
224.151	28.87
224.369	23.3
224.586	19.24
224.804	28.73
225.021	39.79
225.239	43.24
225.456	45.6
225.674	52.46
225.891	54.19
226.108	43.97
226.326	28.65
226.543	20.87
226.76	21.68
226.978	22.35
227.195	18.79
227.413	10.68
227.63	8.49
227.847	10.76
228.064	12.34
228.282	11.21
228.499	11.05
228.716	14.55
228.934	14.97
229.151	17.4
229.368	17.62
229.585	18.23
229.802	19.98
230.02	21.02
230.237	19.32
230.454	17.08
230.671	16.77
230.888	19.15
231.105	20.35
231.323	15.72
231.54	11.35
231.757	9.29
231.974	0.47
232.191	-6.07
232.408	-10.86
232.625	-7.49
232.842	-5.78
233.059	-0.1
233.276	-3.18
233.493	-4.93
233.71	-0.65
233.927	0.03
234.144	1.58
234.361	6
234.578	10.3
234.795	12.44
235.012	9.12
235.229	6.44
235.446	-0.62
235.663	1.19
235.879	10.88
236.096	13.18
236.313	14.93
236.53	15.55
236.747	15.43
236.964	14.16
237.181	13.86
237.397	15
237.614	17.87
237.831	21.76
238.048	22.11
238.264	12.95
238.481	11.71
238.698	17.73
238.915	19.23
239.131	20.68
239.348	21.31
239.565	22.28
239.781	25.03
239.998	21.51
240.215	17.4
240.431	17.21
240.648	17.95
240.865	19.06
241.081	13.04
241.298	12.6
241.514	11.94
241.731	12.87
241.947	10.67
242.164	9.9
242.38	11.72
242.597	11.54
242.814	11.84
243.03	11.8
243.246	11.17
243.463	12.24
243.679	11.03
243.896	11.14
244.112	9.69
244.329	11.41
244.545	12.14
244.762	11.33
244.978	12.2
245.194	11.5
245.411	13.23
245.627	11.7
245.843	12.43
246.06	14.01
246.276	14.22
246.492	14.41
246.709	14.09
246.925	13.65
247.141	13.62
247.357	13.15
247.574	13.15
247.79	12.95
248.006	13.26
248.222	13.18
248.439	12.06
248.655	11.9
248.871	11.68
249.087	10.72
249.303	10.91
249.519	9.7
249.736	10.73
249.952	10.42
250.168	9.88
250.384	10.44
250.6	9.45
250.816	10.75
251.032	10.16
251.248	9.77
251.464	12.26
251.68	9.92
251.896	10.23
252.112	8.57
252.328	8.89
252.544	9.36
252.76	9.56
252.976	9.46
253.192	11.43
253.408	11.13
253.624	10.17
253.84	9.12
254.056	8.67
254.272	8.37
254.487	9.29
254.703	6.81
254.919	2.98
255.135	2.7
255.351	2.92
255.567	0.02
255.782	-0.63
255.998	0.09
256.214	0.93
256.43	4.94
256.646	6.53
256.861	6.49
257.077	7.45
257.293	9.05
257.508	8.88
257.724	8.95
257.94	9.02
258.155	8.35
258.371	7.84
258.587	8.31
258.802	8.72
259.018	8.08
259.234	8.39
259.449	8.71
259.665	8.29
259.88	8.58
260.096	9.42
260.312	9.62
260.527	9.37
260.743	9.72
260.958	9.31
261.174	8.97
261.389	9.05
261.605	8.58
261.82	7.32
262.036	7.58
262.251	5.72
262.466	4.2
262.682	2.83
262.897	2.52
263.113	1.99
263.328	1.79
263.543	1.38
263.759	0.98
263.974	1.3
264.189	2.5
264.405	2.94
264.62	5.86
264.835	6.06
265.051	6.17
265.266	8.3
265.481	9.42
265.696	9.36
265.912	7.32
266.127	9.08
266.342	9.89
266.557	10.04
266.773	9.02
266.988	7.94
267.203	6.89
267.418	7.47
267.633	7.98
267.848	7.61
268.064	7.96
268.279	8.62
268.494	7.7
268.709	6.35
268.924	7.79
269.139	8.4
269.354	8.13
269.569	9.23
269.784	8.43
269.999	7.58
270.214	7.32
270.429	7.78
270.644	8.53
270.859	7.9
271.074	9.86
271.289	7.52
271.504	8.01
271.719	7.96
271.934	7.01
272.149	7.48
272.363	7.33
272.578	6.41
272.793	4.71
273.008	5.31
273.223	6.39
273.438	4.88
273.653	6.97
273.867	6.91
274.082	7.05
274.297	6.83
274.512	7.07
274.726	5.56
274.941	5.95
275.156	8.18
275.371	8.01
275.585	8.41
275.8	8.51
276.015	7.57
276.229	7.74
276.444	7.77
276.659	9
276.873	8.63
277.088	8.97
277.302	8.69
277.517	7.1
277.732	5.24
277.946	2.88
278.161	2.78
278.375	3.74
278.59	4.54
278.804	3.09
279.019	3.05
279.233	4.62
279.448	4.31
279.662	4.63
279.877	5.56
280.091	7.77
280.306	8.72
280.52	8.16
280.735	7.51
280.949	5.77
281.163	6.67
281.378	7.34
281.592	4.78
281.806	5.33
282.021	6.86
282.235	6.86
282.449	6.35
282.664	5.94
282.878	6.94
283.092	6.92
283.307	7.44
283.521	7.89
283.735	8.1
283.949	9.88
284.164	11.67
284.378	11.23
284.592	10.87
284.806	10.17
285.02	11.65
285.234	11.2
285.449	11.45
285.663	11.46
285.877	12.32
286.091	11.23
286.305	10.87
286.519	10.24
286.733	9.8
286.947	9.48
287.161	10.09
287.375	9.79
287.589	9.83
287.803	8.89
288.017	8.72
288.231	7.76
288.445	8.07
288.659	8.07
288.873	8.27
289.087	7.77
289.301	9.14
289.515	8.88
289.729	7.47
289.943	6.64
290.157	7.88
290.371	7.56
290.584	7.14
290.798	7.28
291.012	7.6
291.226	6.48
291.44	6.8
291.654	6.96
291.867	6.32
292.081	6.21
292.295	6.86
292.509	6.08
292.722	6
292.936	5.93
293.15	5.79
293.364	5.31
293.577	6.28
293.791	5.89
294.005	5.63
294.218	5.49
294.432	7.1
294.645	6.39
294.859	6.14
295.073	8.07
295.286	8.89
295.5	9.49
295.713	9.29
295.927	10.2
296.14	10.7
296.354	10.08
296.568	11.05
296.781	10.84
296.994	11.81
297.208	12.46
297.421	11.58
297.635	10.83
297.848	10.58
298.062	10.63
298.275	9.83
298.489	9.94
298.702	10.74
298.915	9.71
299.129	10.55
299.342	11.17
299.555	10.61
299.769	10.11
299.982	11.5
300.195	11.37
300.409	11.15
300.622	11.48
300.835	11.81
301.048	11.64
301.262	12.82
301.475	11.89
301.688	10.52
301.901	10.94
302.115	11.8
302.328	10.74
302.541	10.88
302.754	12.01
302.967	12.38
303.18	11.36
303.393	11.13
303.607	10.33
303.82	10.4
304.033	11.07
304.246	9.87
304.459	8.23
304.672	9.48
304.885	10.06
305.098	9.04
305.311	7.73
305.524	8.46
305.737	7.3
305.95	7.53
306.163	7.37
306.376	9.06
306.589	9.28
306.802	10.74
307.015	9.07
307.228	6.85
307.44	5.57
307.653	5.93
307.866	6.89
308.079	8.51
308.292	7.96
308.505	6.32
308.718	5.52
308.93	7.46
309.143	6.4
309.356	7.28
309.569	8.68
309.781	8.74
309.994	10.4
310.207	9.75
310.42	9.36
310.632	10.57
310.845	12.26
311.058	11.53
311.27	10.72
311.483	12.44
311.696	11.72
311.908	11.48
312.121	12.56
312.333	11.83
312.546	11.24
312.759	11.32
312.971	10.16
313.184	9.37
313.396	9.4
313.609	9.96
313.821	8.9
314.034	10.34
314.246	10.94
314.459	11.56
314.671	10.47
314.884	11.94
315.096	11.11
315.309	10.95
315.521	10.57
315.733	10.99
315.946	10.19
316.158	11.28
316.371	11.6
316.583	11.41
316.795	10.02
317.008	11.69
317.22	11.69
317.432	11.73
317.644	12.94
317.857	15.04
318.069	14.77
318.281	14.27
318.494	13.25
318.706	13.99
318.918	13.84
319.13	14.07
319.342	10.61
319.555	9.86
319.767	9.58
319.979	10.78
320.191	9.56
320.403	7.79
320.615	8.38
320.827	8.36
321.039	6.27
321.252	4.45
321.464	5.02
321.676	8.25
321.888	8.08
322.1	8.82
322.312	6.16
322.524	5.89
322.736	7.24
322.948	7.06
323.16	6.36
323.372	6.5
323.584	7.78
323.796	6.13
324.007	5.4
324.219	5.27
324.431	5.08
324.643	5.34
324.855	5.44
325.067	5.69
325.279	6.43
325.491	6.73
325.702	7.39
325.914	7.96
326.126	10.72
326.338	10.19
326.55	9.22
326.761	8.97
326.973	8.89
327.185	8.72
327.396	7.78
327.608	6.47
327.82	6.51
328.032	5.58
328.243	5.37
328.455	3.92
328.666	5.08
328.878	4.94
329.09	5.01
329.301	5.7
329.513	6.55
329.725	8.33
329.936	9.93
330.148	10.22
330.359	10.45
330.571	10.11
330.782	9.83
330.994	10.45
331.205	10.28
331.417	9.24
331.628	9.19
331.84	8.93
332.051	7.86
332.262	7.04
332.474	7
332.685	6.36
332.897	5.81
333.108	6.38
333.319	4.37
333.531	6.17
333.742	8.55
333.953	8.18
334.165	7.23
334.376	7.27
334.587	7.92
334.799	6.59
335.01	8.22
335.221	9.32
335.432	8.83
335.644	8.65
335.855	7.65
336.066	6.59
336.277	5.84
336.488	6.2
336.7	5.81
336.911	5.58
337.122	5.77
337.333	4.36
337.544	3.96
337.755	3.47
337.966	4.53
338.177	4.29
338.388	4.17
338.599	4.99
338.811	4.15
339.022	4.45
339.233	4.48
339.444	5.59
339.655	6.07
339.866	6.03
340.076	5.18
340.287	4.49
340.498	5.02
340.709	4.51
340.92	4.65
341.131	6.47
341.342	6.45
341.553	5.13
341.764	4.69
341.975	4.24
342.185	3.96
342.396	4.77
342.607	4.67
342.818	5.47
343.029	6.69
343.239	6.45
343.45	5.14
343.661	6.06
343.872	7.5
344.082	7.31
344.293	7.59
344.504	7.83
344.714	8.37
344.925	9.02
345.136	9.48
345.346	8.51
345.557	9.26
345.768	9.49
345.978	9.17
346.189	9.22
346.399	9.6
346.61	10.02
346.821	9.93
347.031	9.59
347.242	10.08
347.452	8.86
347.663	8.5
347.873	8.53
348.084	8.26
348.294	8.09
348.504	7.68
348.715	7.81
348.925	6.84
349.136	7.34
349.346	7.01
349.557	5.52
349.767	4.97
349.977	5.65
350.188	4.64
350.398	4.48
350.608	5.41
350.819	4.97
351.029	4.19
351.239	4.11
351.449	4.56
351.66	4.77
351.87	5.86
352.08	7.33
352.29	7.48
352.501	8.65
352.711	9
352.921	7.28
353.131	7.47
353.341	6.96
353.552	8.17
353.762	7.09
353.972	7.95
354.182	6.76
354.392	6.2
354.602	6.17
354.812	5.62
355.022	6.15
355.232	7.65
355.442	6.96
355.652	6.93
355.862	5.76
356.072	5.15
356.282	3.72
356.492	4.8
356.702	4.92
356.912	4.63
357.122	5.04
357.332	4.23
357.542	3.81
357.752	5.32
357.962	5.55
358.171	5.92
358.381	6.7
358.591	7.56
358.801	6.54
359.011	6.98
359.221	6.88
359.43	6.3
359.64	6.75
359.85	6.47
360.06	6.01
360.269	6.88
360.479	6.62
360.689	6.29
360.899	6.74
361.108	7.06
361.318	6.82
361.528	7.05
361.737	7.44
361.947	7.22
362.156	7.65
362.366	7.39
362.576	7.17
362.785	6.8
362.995	7.08
363.204	7.06
363.414	7.59
363.623	7.73
363.833	7.98
364.042	7.77
364.252	7.73
364.461	7.19
364.671	7.15
364.88	7.28
365.09	8.62
365.299	9.02
365.509	8.4
365.718	8.41
365.927	7.94
366.137	7.93
366.346	7.19
366.555	7.55
366.765	7.45
366.974	6.73
367.183	6.48
367.393	6.16
367.602	5.87
367.811	6.05
368.021	6.1
368.23	5.9
368.439	5.6
368.648	6.03
368.857	5.64
369.067	5.37
369.276	6.35
369.485	5.23
369.694	5.16
369.903	4.38
370.112	4
370.321	3.12
370.531	4.06
370.74	4.38
370.949	4.19
371.158	4.3
371.367	4.48
371.576	4.75
371.785	5.56
371.994	5.89
372.203	6.34
372.412	6.44
372.621	6.97
372.83	6.17
373.039	5.89
373.248	6.56
373.457	6.48
373.666	6.14
373.874	6.02
374.083	6.76
374.292	6.97
374.501	7.19
374.71	7.12
374.919	6.33
375.128	6.34
375.336	6.66
375.545	5.93
375.754	5.46
375.963	5.31
376.171	4.83
376.38	4.78
376.589	4.38
376.798	3.9
377.006	3.79
377.215	3.74
377.424	4.46
377.632	4.03
377.841	4
378.05	4.66
378.258	5.26
378.467	5.47
378.675	5.02
378.884	4.99
379.093	5.43
379.301	5.55
379.51	6.11
379.718	5.87
379.927	5.93
380.135	7.06
380.344	6.65
380.552	6.19
380.761	6.13
380.969	6.23
381.177	5.76
381.386	5.53
381.594	5.08
381.803	4.9
382.011	5.06
382.219	4.99
382.428	3.64
382.636	3.61
382.845	3.63
383.053	3.43
383.261	3.51
383.469	3.78
383.678	3.82
383.886	4.2
384.094	4.54
384.302	3.48
384.511	3.6
384.719	4.01
384.927	4.23
385.135	4.57
385.343	4.7
385.552	4.33
385.76	4.21
385.968	3.91
386.176	3.61
386.384	3.44
386.592	4.38
386.8	4.79
387.008	4.85
387.216	4.74
387.424	4.56
387.633	4.15
387.841	4.41
388.049	4.51
388.257	4.05
388.465	3.56
388.672	3.73
388.88	3.22
389.088	2.52
389.296	2.32
389.504	2.21
389.712	1.95
389.92	1.91
390.128	1.5
390.336	1.48
390.544	2.51
390.751	2.73
390.959	2.28
391.167	2.86
391.375	2.97
391.583	3.03
391.79	3.26
391.998	3.37
392.206	3.72
392.414	3.96
392.621	3.98
392.829	3.8
393.037	4.11
393.244	4.6
393.452	3.95
393.66	4.23
393.867	4.36
394.075	4.42
394.283	4.55
394.49	4.34
394.698	4.35
394.905	4.21
395.113	4.07
395.32	4.32
395.528	4
395.735	4.16
395.943	4.26
396.15	4.34
396.358	4.11
396.565	4.11
396.773	4.2
396.98	4.34
397.188	4.3
397.395	4.16
397.602	3.87
397.81	3.6
398.017	3.78
398.225	3.6
398.432	3.35
398.639	3.33
398.847	3.04
399.054	3
399.261	2.85
399.468	2.83
399.676	2.95
399.883	3.13
400.09	3.19
400.297	3.22
400.505	3.12
400.712	3.09
400.919	2.95
401.126	3.03
401.333	2.92
401.54	3.16
401.748	3.39
401.955	3.07
402.162	3.15
402.369	3.06
402.576	3.12
402.783	3.33
402.99	3.33
403.197	3.28
403.404	3.23
403.611	3.32
403.818	3.07
404.025	3.02
404.232	3.45
404.439	3.25
404.646	3.42
404.853	3.11
405.06	2.93
405.267	3.03
405.474	3.49
405.681	3.82
405.887	4.15
406.094	4.14
406.301	4.24
406.508	4.29
406.715	4.35
406.922	4.51
407.128	4.66
407.335	4.7
407.542	4.55
407.749	4.37
407.955	4.24
408.162	3.92
408.369	4
408.575	4.24
408.782	3.85
408.989	3.7
409.195	3.56
409.402	3.67
409.609	3.63
409.815	3.91
410.022	3.87
410.228	4
410.435	4.02
410.642	4
410.848	3.66
411.055	3.79
411.261	3.71
411.468	3.7
411.674	3.53
411.881	3.35
412.087	3.32
412.294	3.07
412.5	2.86
412.706	2.92
412.913	2.89
413.119	3.05
413.326	3.11
413.532	3.22
413.738	3.22
413.945	3.4
414.151	3.67
414.357	3.54
414.564	3.73
414.77	3.94
414.976	3.77
415.182	3.9
415.389	3.75
415.595	3.74
415.801	3.99
416.007	4.1
416.214	4
416.42	3.85
416.626	3.57
416.832	3.35
417.038	3.03
417.244	2.93
417.45	2.89
417.657	2.8
417.863	2.61
418.069	2.39
418.275	2.32
418.481	2.3
418.687	2.44
418.893	2.72
419.099	2.72
419.305	2.89
419.511	3.03
419.717	2.92
419.923	2.95
420.129	2.96
420.335	3.01
420.541	3.03
420.746	2.94
420.952	2.75
421.158	2.58
421.364	2.68
421.57	2.61
421.776	2.59
421.982	2.52
422.187	2.57
422.393	2.45
422.599	2.45
422.805	2.28
423.01	2.3
423.216	2.54
423.422	2.54
423.628	2.49
423.833	2.5
424.039	2.46
424.245	2.54
424.45	2.43
424.656	2.62
424.862	2.56
425.067	2.76
425.273	2.84
425.478	2.81
425.684	2.95
425.889	3.05
426.095	2.95
426.301	3.01
426.506	3.08
426.712	3.28
426.917	3.38
427.123	3.39
427.328	3.34
427.533	3.2
427.739	2.94
427.944	3.17
428.15	3.13
428.355	3.29
428.561	3.22
428.766	3
428.971	2.93
429.177	2.87
429.382	2.8
429.587	2.67
429.793	2.74
429.998	2.68
430.203	2.44
430.408	2.28
430.614	2.26
430.819	2.44
431.024	2.39
431.229	2.11
431.434	2.18
431.64	2.35
431.845	2.6
432.05	2.51
432.255	2.76
432.46	2.72
432.665	2.59
432.87	2.45
433.076	2.64
433.281	2.86
433.486	3.05
433.691	3.12
433.896	3.1
434.101	2.95
434.306	3.26
434.511	3.13
434.716	3.23
434.921	3.56
435.126	3.74
435.331	3.5
435.535	3.62
435.74	3.46
435.945	3.35
436.15	3.34
436.355	3.21
436.56	2.88
436.765	2.9
436.97	2.69
437.174	2.73
437.379	2.79
437.584	2.71
437.789	2.55
437.993	2.63
438.198	2.29
438.403	2.12
438.608	2.21
438.812	2.38
439.017	2.36
439.222	2.46
439.426	2.25
439.631	2.23
439.836	2.23
440.04	2.3
440.245	2.34
440.45	2.53
440.654	2.82
440.859	3.01
441.063	2.93
441.268	3.06
441.472	3.03
441.677	3.11
441.881	3.05
442.086	3.18
442.29	3.07
442.495	3.1
442.699	3
442.904	2.61
443.108	2.54
443.312	2.71
443.517	2.73
443.721	2.73
443.925	2.63
444.13	2.59
444.334	2.61
444.538	2.73
444.743	2.63
444.947	2.73
445.151	2.95
445.356	2.88
445.56	2.67
445.764	2.56
445.968	2.63
446.173	2.63
446.377	2.71
446.581	2.53
446.785	2.53
446.989	2.53
447.193	2.51
447.398	2.47
447.602	2.57
447.806	2.65
448.01	2.65
448.214	2.65
448.418	2.71
448.622	2.53
448.826	2.69
449.03	2.52
449.234	2.67
449.438	2.87
449.642	2.84
449.846	2.76
450.05	2.8
450.254	2.8
450.458	2.84
450.662	2.83
450.866	2.91
451.069	2.84
451.273	2.73
451.477	2.6
451.681	2.39
451.885	2.39
452.089	2.24
452.292	2.14
452.496	2.26
452.7	2.01
452.904	2.17
453.107	2.2
453.311	2.22
453.515	2.29
453.719	2.22
453.922	2.4
454.126	2.37
454.33	2.42
454.533	2.56
454.737	2.41
454.94	2.54
455.144	2.39
455.348	2.38
455.551	2.53
455.755	2.73
455.958	2.79
456.162	2.64
456.365	2.69
456.569	2.86
456.772	2.84
456.976	2.77
457.179	2.79
457.383	2.86
457.586	2.59
457.79	2.51
457.993	2.6
458.196	2.65
458.4	2.74
458.603	2.55
458.807	2.57
459.01	2.44
459.213	2.51
459.417	2.45
459.62	2.47
459.823	2.73
460.026	2.59
460.23	2.39
460.433	2.35
460.636	2.29
460.839	2.42
461.042	2.36
461.246	2.53
461.449	2.57
461.652	2.55
461.855	2.55
462.058	2.52
462.261	2.69
462.464	2.93
462.668	2.99
462.871	3.12
463.074	3.28
463.277	3.09
463.48	2.97
463.683	3.04
463.886	3.04
464.089	2.93
464.292	2.97
464.495	2.94
464.698	2.9
464.901	2.94
465.104	2.68
465.306	2.51
465.509	2.53
465.712	2.63
465.915	2.65
466.118	2.84
466.321	2.97
466.524	2.97
466.726	3.11
466.929	3.02
467.132	3.01
467.335	3.08
467.538	3.05
467.74	2.96
467.943	2.89
468.146	2.68
468.348	2.53
468.551	2.49
468.754	2.4
468.956	2.28
469.159	2.42
469.362	2.31
469.564	2.39
469.767	2.41
469.969	2.67
470.172	2.56
470.375	2.5
470.577	2.6
470.78	2.8
470.982	2.82
471.185	2.76
471.387	2.48
471.59	2.65
471.792	2.52
471.995	2.75
472.197	2.54
472.399	2.55
472.602	2.73
472.804	2.68
473.007	2.33
473.209	2.33
473.411	2.46
473.614	2.79
473.816	2.78
474.018	2.89
474.22	2.71
474.423	2.82
474.625	2.87
474.827	2.96
475.03	3.08
475.232	3.2
475.434	3.16
475.636	2.91
475.838	2.79
476.04	2.78
476.243	2.66
476.445	2.66
476.647	2.45
476.849	2.34
477.051	2.31
477.253	2.21
477.455	2.11
477.657	2.17
477.859	2.23
478.061	2.19
478.263	2
478.465	2.17
478.667	2.28
478.869	2.37
479.071	2.53
479.273	2.39
479.475	2.45
479.677	2.55
479.879	2.58
480.081	2.65
480.283	2.64
480.485	2.67
480.686	2.7
480.888	2.72
481.09	2.82
481.292	2.72
481.494	2.69
481.695	2.67
481.897	2.52
482.099	2.5
482.301	2.51
482.502	2.47
482.704	2.4
482.906	2.31
483.107	2.18
483.309	2.2
483.511	2.13
483.712	2.13
483.914	2.14
484.115	2.2
484.317	2.18
484.519	2.11
484.72	2.08
484.922	2.22
485.123	2.24
485.325	2.27
485.526	2.23
485.728	2.34
485.929	2.34
486.131	2.36
486.332	2.36
486.534	2.38
486.735	2.49
486.936	2.51
487.138	2.39
487.339	2.29
487.541	2.36
487.742	2.37
487.943	2.31
488.144	2.37
488.346	2.31
488.547	2.26
488.748	2.27
488.95	2.26
489.151	2.27
489.352	2.37
489.553	2.48
489.755	2.5
489.956	2.5
490.157	2.62
490.358	2.66
490.559	2.73
490.76	2.8
490.961	2.8
491.163	2.76
491.364	2.72
491.565	2.63
491.766	2.61
491.967	2.58
492.168	2.6
492.369	2.5
492.57	2.47
492.771	2.41
492.972	2.35
493.173	2.38
493.374	2.32
493.575	2.28
493.776	2.24
493.976	2.23
494.177	2.16
494.378	2.13
494.579	2.26
494.78	2.19
494.981	2.2
495.182	2.31
495.382	2.18
495.583	2.3
495.784	2.54
495.985	2.53
496.185	2.48
496.386	2.54
496.587	2.48
496.788	2.34
496.988	2.33
497.189	2.4
497.39	2.33
497.59	2.45
497.791	2.29
497.992	2.12
498.192	2.14
498.393	2.15
498.593	2.22
498.794	2.34
498.994	2.46
499.195	2.46
499.395	2.33
499.596	2.5
499.796	2.29
499.997	2.34
500.197	2.39
500.398	2.39
500.598	2.41
500.799	2.33
500.999	2.21
501.199	2.29
501.4	2.38
501.6	2.62
501.801	2.3
502.001	2.57
502.201	2.59
502.402	2.71
502.602	2.73
502.802	2.63
503.002	2.73
503.203	2.73
503.403	2.59
503.603	2.62
503.803	2.49
504.003	2.54
504.204	2.53
504.404	2.55
504.604	2.49
504.804	2.55
505.004	2.66
505.204	2.48
505.404	2.49
505.604	2.6
505.804	2.39
506.005	2.43
506.205	2.53
506.405	2.3
506.605	2.28
506.805	2.23
507.005	2.2
507.204	2.24
507.404	2.39
507.604	2.45
507.804	2.38
508.004	2.44
508.204	2.35
508.404	2.33
508.604	2.44
508.804	2.63
509.003	2.8
509.203	2.7
509.403	2.8
509.603	2.76
509.803	2.65
510.002	2.65
510.202	2.63
510.402	2.64
510.602	2.68
510.801	2.61
511.001	2.46
511.201	2.34
511.4	2.34
511.6	2.23
511.8	2.21
511.999	2.2
512.199	2.26
512.398	2.38
512.598	2.3
512.797	2.34
512.997	2.4
513.197	2.42
513.396	2.41
513.596	2.48
513.795	2.54
513.994	2.45
514.194	2.41
514.393	2.28
514.593	2.37
514.792	2.31
514.992	2.19
515.191	2.13
515.39	2.16
515.59	2.21
515.789	2.17
515.988	2.16
516.188	2.3
516.387	2.34
516.586	2.43
516.786	2.34
516.985	2.47
517.184	2.52
517.383	2.65
517.582	2.62
517.782	2.69
517.981	2.91
518.18	2.92
518.379	2.87
518.578	3.04
518.777	3.04
518.976	2.96
519.176	3
519.375	2.91
519.574	2.8
519.773	2.83
519.972	2.74
520.171	2.65
520.37	2.58
520.569	2.68
520.768	2.64
520.967	2.71
521.166	2.85
521.365	2.96
521.564	3.14
521.762	3.14
521.961	3.19
522.16	3.22
522.359	3.18
522.558	3.24
522.757	3.3
522.956	3.39
523.154	3.14
523.353	3.22
523.552	3.16
523.751	3.09
523.949	3.28
524.148	3.26
524.347	3.43
524.546	3.53
524.744	3.5
524.943	3.5
525.142	3.48
525.34	3.8
525.539	3.72
525.737	3.71
525.936	3.76
526.135	3.73
526.333	3.8
526.532	3.71
526.73	3.65
526.929	3.66
527.127	3.58
527.326	3.57
527.524	3.38
527.723	3.4
527.921	3.47
528.12	3.47
528.318	3.5
528.516	3.49
528.715	3.51
528.913	3.46
529.112	3.44
529.31	3.49
529.508	3.44
529.707	3.51
529.905	3.56
530.103	3.52
530.301	3.52
530.5	3.47
530.698	3.46
530.896	3.42
531.094	3.56
531.293	3.63
531.491	3.61
531.689	3.65
531.887	3.64
532.085	3.57
532.283	3.6
532.481	3.68
532.68	3.77
532.878	3.73
533.076	3.67
533.274	3.65
533.472	3.65
533.67	3.72
533.868	3.81
534.066	3.87
534.264	3.9
534.462	3.87
534.66	3.7
534.858	3.77
535.056	3.86
535.253	4
535.451	4.04
535.649	4.09
535.847	4.19
536.045	4.1
536.243	4.07
536.441	4.13
536.638	4.29
536.836	4.41
537.034	4.38
537.232	4.49
537.43	4.54
537.627	4.47
537.825	4.5
538.023	4.36
538.22	4.38
538.418	4.4
538.616	4.41
538.813	4.31
539.011	4.42
539.209	4.35
539.406	4.29
539.604	4.33
539.801	4.44
539.999	4.39
540.196	4.42
540.394	4.45
540.591	4.47
540.789	4.54
540.986	4.7
541.184	4.76
541.381	4.87
541.579	4.86
541.776	4.85
541.974	4.8
542.171	4.92
542.368	4.91
542.566	5.02
542.763	5
542.96	5.04
543.158	4.89
543.355	4.84
543.552	4.85
543.75	4.88
543.947	4.82
544.144	4.94
544.341	4.93
544.539	5.09
544.736	5.13
544.933	5.31
545.13	5.28
545.327	5.35
545.524	5.42
545.722	5.37
545.919	5.43
546.116	5.54
546.313	5.79
546.51	5.77
546.707	5.78
546.904	5.7
547.101	5.7
547.298	5.85
547.495	6.01
547.692	5.96
547.889	5.98
548.086	6.04
548.283	6.07
548.48	5.86
548.677	5.96
548.874	5.92
549.07	6.04
549.267	6.1
549.464	6.03
549.661	6.1
549.858	6.3
550.055	6.27
550.251	6.38
550.448	6.5
550.645	6.39
550.842	6.5
551.038	6.56
551.235	6.7
551.432	6.69
551.628	6.68
551.825	6.76
552.022	6.82
552.218	6.89
552.415	6.86
552.612	6.79
552.808	6.99
553.005	7
553.201	7.02
553.398	7.02
553.594	7.29
553.791	7.22
553.987	7.11
554.184	7.37
554.38	7.35
554.577	7.45
554.773	7.81
554.97	7.77
555.166	7.9
555.362	8.26
555.559	8.09
555.755	7.87
555.952	8.2
556.148	8.3
556.344	8.11
556.541	8.26
556.737	8.39
556.933	8.26
557.129	8.43
557.326	8.23
557.522	7.99
557.718	8.02
557.914	8.07
558.11	8.1
558.307	8.07
558.503	8.35
558.699	8.67
558.895	8.57
559.091	8.48
559.287	8.59
559.483	8.84
559.679	8.8
559.876	8.95
560.072	9.23
560.268	9.45
560.464	9.53
560.66	9.44
560.856	9.36
561.052	9.68
561.247	9.89
561.443	9.94
561.639	9.9
561.835	10.28
562.031	10.43
562.227	10.25
562.423	10.23
562.619	10.6
562.815	10.65
563.01	10.91
563.206	10.91
563.402	10.96
563.598	10.91
563.793	10.98
563.989	11.21
564.185	11.25
564.381	11.53
564.576	11.24
564.772	11.04
564.968	10.94
565.163	10.84
565.359	10.69
565.555	10.8
565.75	10.8
565.946	10.81
566.141	10.61
566.337	10.78
566.532	10.82
566.728	11.16
566.923	11.16
567.119	11.26
567.314	11.26
567.51	11.23
567.705	11.27
567.901	11.58
568.096	11.52
568.292	11.42
568.487	11.32
568.682	11.36
568.878	11.4
569.073	11.76
569.268	11.69
569.464	11.84
569.659	12.13
569.854	12.16
570.05	11.91
570.245	12.07
570.44	12.21
570.635	12.39
570.831	12.24
571.026	12.09
571.221	11.84
571.416	12.01
571.611	11.98
571.806	11.91
572.002	11.9
572.197	11.99
572.392	12.19
572.587	12.33
572.782	12.42
572.977	12.64
573.172	12.86
573.367	12.98
573.562	13.05
573.757	12.99
573.952	13.24
574.147	13.43
574.342	13.66
574.537	13.7
574.732	13.68
574.927	13.6
575.121	13.63
575.316	13.55
575.511	13.52
575.706	13.6
575.901	13.82
576.096	13.74
576.29	13.69
576.485	13.81
576.68	13.85
576.875	13.65
577.069	13.59
577.264	13.69
577.459	13.91
577.654	14.33
577.848	14.46
578.043	14.5
578.238	14.42
578.432	14.63
578.627	14.45
578.821	14.47
579.016	14.96
579.21	15.29
579.405	15.19
579.6	15.09
579.794	14.79
579.989	14.87
580.183	14.81
580.378	14.95
580.572	14.46
580.766	14.7
580.961	14.82
581.155	14.81
581.35	14.68
581.544	14.67
581.738	14.7
581.933	14.95
582.127	14.8
582.321	14.82
582.516	14.83
582.71	15.12
582.904	14.86
583.099	14.79
583.293	14.74
583.487	14.64
583.681	14.73
583.875	14.65
584.07	14.43
584.264	14.42
584.458	14.61
584.652	14.6
584.846	14.69
585.04	14.74
585.234	14.54
585.428	14.25
585.623	14.25
585.817	14.45
586.011	14.85
586.205	14.66
586.399	14.89
586.593	14.77
586.787	14.88
586.981	15.07
587.174	15.25
587.368	15.43
587.562	15.88
587.756	15.96
587.95	16.06
588.144	15.71
588.338	16.06
588.532	16.17
588.725	16.16
588.919	16.22
589.113	16.13
589.307	16.11
589.501	16.27
589.694	16.49
589.888	16.72
590.082	16.67
590.275	16.74
590.469	16.59
590.663	16.41
590.856	16.5
591.05	16.52
591.244	16.56
591.437	16.52
591.631	16.5
591.824	16.06
592.018	16
592.212	15.97
592.405	16.21
592.599	16.35
592.792	16.29
592.986	16.34
593.179	16.48
593.372	16.59
593.566	16.61
593.759	16.61
593.953	17.05
594.146	17.02
594.339	17.09
594.533	17.12
594.726	17.02
594.92	16.96
595.113	17.04
595.306	16.74
595.499	16.75
595.693	16.69
595.886	16.54
596.079	16.2
596.272	16.32
596.466	16.25
596.659	16.22
596.852	16.48
597.045	16.5
597.238	16.45
597.431	16.56
597.624	16.63
597.818	16.92
598.011	17.21
598.204	17.27
598.397	17.03
598.59	16.98
598.783	16.78
598.976	16.69
599.169	16.72
599.362	16.77
599.555	16.77
599.748	16.6
599.941	16.3
600.134	15.96
600.326	15.73
600.519	15.96
600.712	15.93
600.905	16.1
601.098	16.09
601.291	16.23
601.483	16.34
601.676	16.43
601.869	16.41
602.062	16.5
602.255	16.49
602.447	16.76
602.64	16.8
602.833	16.94
603.025	17.03
603.218	16.89
603.411	17.1
603.603	16.93
603.796	16.91
603.989	17.01
604.181	17.1
604.374	17.17
604.566	17.23
604.759	17.31
604.951	17.27
605.144	17.39
605.336	17.56
605.529	17.65
605.721	17.59
605.914	17.69
606.106	17.67
606.299	17.64
606.491	17.99
606.683	18.01
606.876	18
607.068	17.96
607.26	17.93
607.453	18
607.645	17.73
607.837	17.99
608.03	18
608.222	18.24
608.414	18.28
608.606	17.88
608.799	17.83
608.991	17.81
609.183	18.05
609.375	17.81
609.567	17.83
609.759	17.87
609.952	17.85
610.144	17.6
610.336	17.42
610.528	17.23
610.72	17.41
610.912	17.42
611.104	17.43
611.296	17.29
611.488	17.5
611.68	17.4
611.872	17.31
612.064	17.39
612.256	17.66
612.448	17.85
612.64	18.13
612.832	18.34
613.023	18.45
613.215	18.51
613.407	18.58
613.599	18.37
613.791	18.42
613.983	18.52
614.174	18.3
614.366	18.51
614.558	18.47
614.75	18.45
614.941	18.09
615.133	17.82
615.325	17.28
615.516	17.6
615.708	17.72
615.9	17.63
616.091	17.71
616.283	17.69
616.475	17.5
616.666	17.42
616.858	17.36
617.049	17.46
617.241	17.51
617.432	18.07
617.624	17.64
617.815	17.67
618.007	17.71
618.198	17.9
618.39	18.12
618.581	18.28
618.773	18.26
618.964	18.08
619.155	18.17
619.347	18.17
619.538	17.9
619.729	18.08
619.921	18.33
620.112	18.68
620.303	18.43
620.494	18.68
620.686	18.51
620.877	18.59
621.068	18.83
621.259	18.87
621.451	19.11
621.642	19.36
621.833	19.6
622.024	19.32
622.215	19.13
622.406	19.12
622.597	18.65
622.788	18.68
622.98	18.54
623.171	18.62
623.362	18.42
623.553	18.1
623.744	18.07
623.935	17.78
624.126	18.02
624.317	17.93
624.508	18.01
624.698	18.36
624.889	18.28
625.08	18.01
625.271	17.95
625.462	18.03
625.653	18.32
625.844	18.42
626.034	18.34
626.225	18.09
626.416	18.06
626.607	18.21
626.798	18.19
626.988	18.26
627.179	18.67
627.37	18.75
627.56	18.92
627.751	18.98
627.942	18.97
628.132	19.13
628.323	19.25
628.514	19.47
628.704	19.49
628.895	19.24
629.085	19.33
629.276	19.28
629.466	19.33
629.657	19.24
629.847	19.27
630.038	19.15
630.228	18.89
630.419	18.99
630.609	18.61
630.8	18.49
630.99	18.61
631.181	18.79
631.371	18.64
631.561	18.37
631.752	18.61
631.942	18.63
632.132	18.66
632.323	18.99
632.513	18.67
632.703	18.9
632.893	18.86
633.084	19.05
633.274	18.86
633.464	19.06
633.654	19.23
633.844	19.03
634.034	18.88
634.225	19.14
634.415	19.09
634.605	19.2
634.795	19.37
634.985	19.88
635.175	19.84
635.365	19.62
635.555	19.83
635.745	19.75
635.935	19.79
636.125	19.94
636.315	19.98
636.505	19.81
636.695	20.02
636.885	19.84
637.075	19.22
637.265	19.33
637.455	19.72
637.644	19.59
637.834	19.84
638.024	19.96
638.214	19.98
638.404	19.89
638.593	20.19
638.783	20.05
638.973	20.17
639.163	20.28
639.352	20.05
639.542	19.67
639.732	19.73
639.921	19.8
640.111	19.9
640.301	19.83
640.49	19.63
640.68	19.88
640.87	19.93
641.059	20.16
641.249	20.02
641.438	19.99
641.628	20.2
641.817	19.97
642.007	19.23
642.196	19.17
642.386	18.96
642.575	19
642.764	18.29
642.954	18.49
643.143	18.34
643.333	18.6
643.522	18.8
643.711	18.72
643.901	18.77
644.09	19.46
644.279	19.72
644.469	19.76
644.658	20.19
644.847	20.3
645.036	20.22
645.226	20.08
645.415	19.98
645.604	19.88
645.793	20.15
645.982	20.54
646.171	20.51
646.361	20.12
646.55	20.21
646.739	19.9
646.928	20.17
647.117	19.99
647.306	19.95
647.495	20.04
647.684	19.85
647.873	19.98
648.062	20.01
648.251	20.25
648.44	20.08
648.629	20.2
648.818	20.05
649.007	19.7
649.196	20.01
649.384	19.99
649.573	19.73
649.762	19.7
649.951	19.58
650.14	19.55
650.328	19.48
650.517	19.9
650.706	20.15
650.895	20.26
651.083	20.42
651.272	20.42
651.461	20.53
651.65	20.46
651.838	20.2
652.027	19.97
652.216	19.63
652.404	19.61
652.593	19.28
652.781	19.11
652.97	19.1
653.158	19.02
653.347	18.94
653.535	18.92
653.724	19.35
653.912	20.21
654.101	20.33
654.289	20.25
654.478	20.1
654.666	20.07
654.855	19.84
655.043	20.09
655.231	20.28
655.42	20.1
655.608	20.23
655.796	19.87
655.985	19.46
656.173	19.23
656.361	19.5
656.55	19.48
656.738	19.87
656.926	20.22
657.114	19.97
657.302	19.84
657.491	20.18
657.679	20.31
657.867	20.21
658.055	20.17
658.243	20.16
658.431	19.82
658.619	20.31
658.807	20.03
658.996	20.07
659.184	20.08
659.372	20.16
659.56	20.1
659.748	19.89
659.936	20.25
660.124	20.58
660.311	20.77
660.499	20.94
660.687	20.41
660.875	20.2
661.063	20.07
661.251	19.94
661.439	19.88
661.627	19.94
661.814	20
662.002	19.94
662.19	19.97
662.378	19.82
662.565	19.91
662.753	20.05
662.941	19.85
663.129	20.15
663.316	20.74
663.504	21.08
663.692	20.52
663.879	20.6
664.067	20.16
664.254	19.92
664.442	19.84
664.63	20.23
664.817	20.5
665.005	21.28
665.192	20.81
665.38	20.64
665.567	19.96
665.755	20.74
665.942	20.56
666.13	21.48
666.317	21.02
666.504	21.6
666.692	21.04
666.879	20.58
667.067	20.64
667.254	21.03
667.441	21.13
667.629	21.75
667.816	21.27
668.003	21.78
668.19	21.17
668.378	21.74
668.565	21.29
668.752	21.45
668.939	21.62
669.127	21.76
669.314	21.38
669.501	20.89
669.688	20.82
669.875	21
670.062	20.84
670.249	20.63
670.436	20.47
670.623	20.55
670.81	20.46
670.997	20.99
671.184	20.54
671.371	20.37
671.558	20.33
671.745	20.03
671.932	19.66
672.119	19.72
672.306	20.21
672.493	19.87
672.68	19.84
672.867	19.74
673.054	19.33
673.24	19.44
673.427	19.73
673.614	19.88
673.801	20.14
673.988	20.78
674.174	20.44
674.361	20.14
674.548	21.06
674.734	21.21
674.921	21.8
675.108	21.73
675.294	21.6
675.481	21.73
675.668	22.51
675.854	22.65
676.041	22.47
676.227	22.39
676.414	22.7
676.601	22.03
676.787	22.54
676.974	21.98
677.16	22.04
677.347	22.09
677.533	21.99
677.719	21.69
677.906	21.54
678.092	21.1
678.279	21.06
678.465	20.91
678.651	21.11
678.838	20.94
679.024	21.1
679.21	20.8
679.397	21.11
679.583	21.35
679.769	21.14
679.955	21.03
680.142	21.42
680.328	21.68
680.514	21.78
680.7	22.12
680.886	21.84
681.073	22.01
681.259	22.3
681.445	22.04
681.631	21.9
681.817	21.93
682.003	22.59
682.189	22.25
682.375	21.96
682.561	21.53
682.747	21.44
682.933	21.47
683.119	21.56
683.305	21.77
683.491	21.67
683.677	21.77
683.863	21.94
684.049	21.5
684.235	21.59
684.42	22.09
684.606	22.53
684.792	22.02
684.978	22.04
685.164	21.64
685.349	21.37
685.535	21.5
685.721	20.85
685.907	20.55
686.092	20.67
686.278	20.84
686.464	20.54
686.649	20.45
686.835	20.47
687.021	20.89
687.206	21.42
687.392	21.49
687.577	21.54
687.763	21.81
687.948	22.08
688.134	21.66
688.319	21.57
688.505	21.27
688.69	21.55
688.876	21.73
689.061	21.19
689.247	20.79
689.432	20.8
689.618	20.75
689.803	20.98
689.988	20.48
690.174	20.87
690.359	20.76
690.544	21.58
690.73	21.63
690.915	21.58
691.1	21.84
691.285	21.66
691.471	21.76
691.656	22.19
691.841	22.47
692.026	23.38
692.211	23.13
692.396	23.44
692.582	22.68
692.767	22.71
692.952	22.74
693.137	22.82
693.322	23.49
693.507	23.06
693.692	22.9
693.877	22.54
694.062	22.28
694.247	22.55
694.432	22.49
694.617	22.55
694.802	22.58
694.987	22.43
695.172	22.15
695.357	21.83
695.541	22.03
695.726	21.95
695.911	21.53
696.096	21.56
696.281	21.38
696.466	21.81
696.65	22.69
696.835	22.87
697.02	22.46
697.204	22.4
697.389	21.83
697.574	21.85
697.759	21.3
697.943	21.58
698.128	21
698.312	20.88
698.497	20.69
698.682	20.22
698.866	19.95
699.051	20.4
699.235	20.7
699.42	20.8
699.604	20.66
699.789	21.13
699.973	21.52
700.158	21.83
700.342	22.14
700.527	22.13
700.711	22.1
700.895	22.34
701.08	22.09
701.264	22.15
701.448	22.56
701.633	22.61
701.817	23.05
702.001	22.96
702.186	22.96
702.37	22.91
702.554	22.94
702.738	23.17
702.923	23.09
703.107	23.11
703.291	23.71
703.475	23.95
703.659	24.13
703.843	23.61
704.027	23.5
704.212	23.61
704.396	23.77
704.58	23.54
704.764	23.98
704.948	24
705.132	24.63
705.316	23.36
705.5	22.98
705.684	23.4
705.868	23.37
706.052	22.83
706.235	23.33
706.419	23.26
706.603	23.92
706.787	23.83
706.971	22.97
707.155	22.08
707.339	21.88
707.522	22.23
707.706	22.76
707.89	22.36
708.074	22.69
708.257	22.63
708.441	21.94
708.625	22.2
708.808	21.87
708.992	21.41
709.176	21.95
709.359	23.24
709.543	22.77
709.727	22.19
709.91	22.61
710.094	22.8
710.277	22.28
710.461	23.07
710.644	22.11
710.828	22.34
711.011	23.61
711.195	23.79
711.378	23.3
711.562	23.58
711.745	23.61
711.928	24.29
712.112	24.61
712.295	24.62
712.478	24.8
712.662	24.91
712.845	24.61
713.028	24.36
713.212	24.92
713.395	24.56
713.578	24.74
713.761	25.01
713.945	24.6
714.128	24.18
714.311	23.95
714.494	23.56
714.677	23.75
714.86	23.73
715.043	23.64
715.227	23.26
715.41	23.53
715.593	23.07
715.776	22.58
715.959	22.31
716.142	22.38
716.325	22.39
716.508	22.32
716.691	22.09
716.874	21.91
717.057	22.37
717.239	21.6
717.422	21.37
717.605	22.08
717.788	22.17
717.971	22.18
718.154	21.54
718.337	21.76
718.519	21.47
718.702	21.45
718.885	21.46
719.068	21.63
719.25	22.83
719.433	23.33
719.616	21.74
719.798	21.02
719.981	21.04
720.164	21.54
720.346	22.05
720.529	22.46
720.712	22.76
720.894	23.26
721.077	22.38
721.259	20.92
721.442	21.03
721.624	21.66
721.807	22.57
721.989	22.72
722.172	22.9
722.354	22.67
722.537	23.23
722.719	23.58
722.901	23.76
723.084	24.44
723.266	24.78
723.448	24.63
723.631	25.25
723.813	25.77
723.995	25.51
724.178	25.69
724.36	24.97
724.542	23.72
724.724	23.55
724.907	22.6
725.089	22.2
725.271	23.72
725.453	22.39
725.635	22.63
725.817	22.32
725.999	22.75
726.181	23.09
726.364	23.87
726.546	25.09
726.728	24.77
726.91	24.95
727.092	24.91
727.274	24.72
727.456	25.59
727.638	25.92
727.819	25.24
728.001	24.42
728.183	23.92
728.365	23.24
728.547	22.89
728.729	24.36
728.911	24.76
729.093	25.1
729.274	24.87
729.456	23.92
729.638	23.03
729.82	23.03
730.001	22.56
730.183	23.06
730.365	24.03
730.546	23.33
730.728	21.87
730.91	23.15
731.091	23.28
731.273	22.56
731.455	23.83
731.636	25.1
731.818	25.3
731.999	26.3
732.181	26.38
732.362	26.11
732.544	26.94
732.725	26.27
732.907	24.96
733.088	24.65
733.27	24.62
733.451	24.25
733.633	22.74
733.814	23
733.995	22.36
734.177	21.5
734.358	21.53
734.539	21.25
734.721	21.92
734.902	22.08
735.083	22.38
735.264	22.75
735.446	24.71
735.627	25.86
735.808	25.29
735.989	25.54
736.17	25.91
736.351	25.82
736.533	25.08
736.714	25.62
736.895	25.14
737.076	24.61
737.257	24.88
737.438	23.36
737.619	22.53
737.8	22.77
737.981	22.59
738.162	21.81
738.343	21.03
738.524	21.06
738.705	20.61
738.886	20.52
739.067	20.09
739.247	19.37
739.428	18.43
739.609	18.29
739.79	18.15
739.971	19.22
740.151	21.68
740.332	21.56
740.513	22.54
740.694	21.71
740.874	21.56
741.055	22.1
741.236	22.21
741.417	22.76
741.597	23.57
741.778	23.06
741.958	22.03
742.139	19.72
742.32	20.73
742.5	19.91
742.681	20.76
742.861	22.06
743.042	21.05
743.222	20.98
743.403	21.82
743.583	20.3
743.764	22.15
743.944	23
744.124	23.75
744.305	23.93
744.485	24.04
744.666	24.73
744.846	23.13
745.026	24.45
745.207	24.71
745.387	23.88
745.567	24.7
745.747	24.14
745.928	23.27
746.108	23.46
746.288	23.98
746.468	25.48
746.648	24.65
746.829	26.2
747.009	25.89
747.189	25.86
747.369	26.03
747.549	26.7
747.729	25.22
747.909	26.03
748.089	25.15
748.269	24.6
748.449	24.41
748.629	24.34
748.809	23.15
748.989	22.92
749.169	22.57
749.349	21.92
749.529	19.39
749.709	20.79
749.889	20.46
750.068	21.35
750.248	21.31
750.428	19.71
750.608	20.86
750.788	20.86
750.967	21.69
751.147	22.04
751.327	22.96
751.507	25.44
751.686	25.33
751.866	26.65
752.046	26.07
752.225	25.62
752.405	26.26
752.585	24.76
752.764	25.24
752.944	24.4
753.123	23.81
753.303	23.49
753.482	22.14
753.662	21.68
753.841	21.1
754.021	21.57
754.2	22.19
754.38	22
754.559	22.49
754.739	21.93
754.918	21.85
755.097	22.33
755.277	21.8
755.456	23.57
755.635	22.89
755.815	21.76
755.994	20.02
756.173	20.53
756.352	20.09
756.532	20.07
756.711	20.92
756.89	22.54
757.069	21.91
757.248	23.19
757.427	22.75
757.607	23.36
757.786	23.52
757.965	25.23
758.144	24.57
758.323	25.59
758.502	25.35
758.681	25.69
758.86	23.18
759.039	23.47
759.218	22.17
759.397	21.02
759.576	19.3
759.755	19.2
759.934	19.1
760.113	18.39
760.291	17.09
760.47	16.91
760.649	17.37
760.828	19.41
761.007	19.34
761.186	20.11
761.364	22.68
761.543	24.73
761.722	25.57
761.901	25.07
762.079	25.41
762.258	25.6
762.437	26.6
762.615	25.51
762.794	24.96
762.972	25.3
763.151	24.94
763.33	23.86
763.508	23.21
763.687	22.84
763.865	23.11
764.044	23.29
764.222	24.6
764.401	24.08
764.579	24.79
764.758	24.84
764.936	25.22
765.114	26.66
765.293	27.11
765.471	28.3
765.65	28.47
765.828	28.23
766.006	27.72
766.184	27.2
766.363	27.49
766.541	26.66
766.719	26.43
766.898	26.27
767.076	25.24
767.254	24.19
767.432	23.22
767.61	23.51
767.788	23.37
767.967	24.04
768.145	22.26
768.323	23.09
768.501	22.42
768.679	22.83
768.857	23.6
769.035	22.7
769.213	22.81
769.391	23.88
769.569	23.39
769.747	23.23
769.925	23.2
770.103	24.22
770.281	24.8
770.459	25.02
770.636	25.8
770.814	24.87
770.992	25.26
771.17	25.19
771.348	23.42
771.525	22.54
771.703	23.29
771.881	23.16
772.059	23.21
772.236	23.18
772.414	25.63
772.592	23.83
772.769	22.93
772.947	22.36
773.125	22.34
773.302	24.32
773.48	25.23
773.657	24.56
773.835	23.94
774.013	25.64
774.19	22.38
774.368	21.26
774.545	23.13
774.723	24.28
774.9	25.47
775.077	25.45
775.255	25.23
775.432	24.26
775.61	24.76
775.787	25.58
775.964	24.4
776.142	24.47
776.319	25.05
776.496	26.63
776.674	24.47
776.851	22.71
777.028	19.82
777.205	19.14
777.382	20.75
777.56	21.85
777.737	23.2
777.914	23.8
778.091	25.34
778.268	24.83
778.445	22.05
778.622	23.22
778.8	24
778.977	28.35
779.154	27.78
779.331	27.54
779.508	26.84
779.685	25.2
779.862	25.03
780.038	25.49
780.215	26.03
780.392	25.92
780.569	26.17
780.746	25.19
780.923	21.84
781.1	21.2
781.277	21.38
781.453	19.48
781.63	20.14
781.807	17.78
781.984	17.33
782.16	16.13
782.337	16.95
782.514	17.08
782.691	18.03
782.867	18.82
783.044	18.44
783.221	15.96
783.397	18.15
783.574	15.38
783.75	19.23
783.927	20.29
784.103	23.09
784.28	19.74
784.456	20.98
784.633	21.65
784.809	24.4
784.986	26.62
785.162	29.36
785.339	27.97
785.515	29.73
785.692	28.37
785.868	28.6
786.044	28
786.221	30.1
786.397	27.63
786.573	29.13
786.749	28.19
786.926	28.84
787.102	30.7
787.278	33.76
787.454	34.8
787.631	33.47
787.807	33.51
787.983	31.53
788.159	34.34
788.335	35.24
788.511	32.55
788.687	32.32
788.863	33.28
789.039	32.29
789.216	29.29
789.392	28.61
789.568	28.36
789.744	26.42
789.919	24.83
790.095	22.49
790.271	21.13
790.447	23.06
790.623	22.58
790.799	18.14
790.975	17.9
791.151	18.76
791.327	20.45
791.502	24.18
791.678	24.1
791.854	25.78
792.03	25.6
792.205	25.97
792.381	23.51
792.557	21.73
792.733	25.47
792.908	25.32
793.084	24.13
793.259	21.6
793.435	20.04
793.611	20.72
793.786	22.05
793.962	23.41
794.137	24.93
794.313	25.92
794.488	28.37
794.664	25.03
794.839	25.71
795.015	27.4
795.19	29.99
795.366	31.04
795.541	29.52
795.716	26.5
795.892	23.74
796.067	24.17
796.242	23.85
796.418	25.23
796.593	27.79
796.768	28.74
796.944	25.86
797.119	25.99
797.294	22.29
797.469	23.22
797.644	24.8
797.82	26.81
797.995	27.13
798.17	28.33
798.345	27.75
798.52	26.65
798.695	24.13
798.87	26.19
799.045	24.4
799.22	26.87
799.395	28.21
799.57	31.07
799.745	32.39
799.92	30.65
800.095	30.25
800.27	28.94
800.445	28.24
800.62	29.94
800.795	29.74
800.97	27.96
801.145	25.57
801.319	24.27
801.494	21.26
801.669	20.97
801.844	21.25
802.018	23.4
802.193	21.57
802.368	21.12
802.543	21.14
802.717	21.13
802.892	23.51
803.067	25.66
803.241	23.86
803.416	23.45
803.59	20.35
803.765	18.76
803.94	17.63
804.114	22.74
804.289	26.15
804.463	24.26
804.638	21.06
804.812	21.88
804.986	24.3
805.161	29.12
805.335	27.5
805.51	29
805.684	33.05
805.858	33.66
806.033	34.25
806.207	32.65
806.381	33.31
806.556	37
806.73	38.14
806.904	33.46
807.078	28.58
807.253	30.42
807.427	27.47
807.601	25.82
807.775	25.95
807.949	22.06
808.123	22.61
808.298	22.83
808.472	20.51
808.646	14.3
808.82	16.64
808.994	21.95
809.168	20.66
809.342	24.08
809.516	25.29
809.69	26.68
809.864	26.99
810.038	26.76
810.212	24.61
810.385	30.14
810.559	33.95
810.733	33.08
810.907	28.93
811.081	30.48
811.255	30.75
811.428	28.69
811.602	24.52
811.776	23.55
811.95	23.21
812.123	26.16
812.297	25.11
812.471	25.22
812.644	24.54
812.818	26.17
812.992	26.36
813.165	23.9
813.339	21.57
813.512	24.4
813.686	27.4
813.86	26.23
814.033	24.18
814.207	21.89
814.38	21.51
814.554	23.57
814.727	24.15
814.9	20.6
815.074	24.93
815.247	24.61
815.421	22.16
815.594	19.69
815.767	17.19
815.941	19.36
816.114	21.95
816.287	21.44
816.46	14.7
816.634	13.55
816.807	12.73
816.98	7.95
817.153	9.9
817.327	9.11
817.5	6.07
817.673	7.29
817.846	6.65
818.019	4.51
818.192	5.29
818.365	10.99
818.538	12.97
818.711	13.78
818.884	15.29
819.057	15.13
819.23	17.7
819.403	21.41
819.576	21.35
819.749	22.96
819.922	21.69
820.095	22.78
820.268	23.14
820.441	22.3
820.614	24.04
820.786	23.53
820.959	25.15
821.132	23.85
821.305	22.95
821.477	24.72
821.65	24.26
821.823	23.82
821.996	22.72
822.168	21.83
822.341	22.59
822.514	23.29
822.686	23.74
822.859	23.71
823.031	24.54
823.204	25.28
823.376	25.11
823.549	25.62
823.722	26.27
823.894	27.11
824.067	27.16
824.239	27.02
824.411	26.44
824.584	26.59
824.756	26.21
824.929	25.13
825.101	24.44
825.273	24.55
825.446	22.95
825.618	22.57
825.79	22.33
825.963	22.95
826.135	23.39
826.307	24.74
826.479	24.83
826.652	25.43
826.824	25.96
826.996	27.08
827.168	26.56
827.34	26.76
827.512	26.79
827.684	25.21
827.856	24.89
828.029	23.37
828.201	21.43
828.373	20.38
828.545	20.85
828.717	20.82
828.889	18.54
829.061	18.95
829.232	19.86
829.404	18.99
829.576	19.63
829.748	21.34
829.92	22
830.092	24.54
830.264	25.09
830.436	20.83
830.607	21.5
830.779	25.66
830.951	24.96
831.123	26.07
831.294	26.58
831.466	28.8
831.638	26.33
831.809	26.44
831.981	25.95
832.153	24.79
832.324	27.85
832.496	27.28
832.667	21.57
832.839	18.4
833.011	17.96
833.182	17.6
833.354	16.62
833.525	19.97
833.697	21.76
833.868	20.7
834.039	23.33
834.211	22.05
834.382	22.75
834.554	23.49
834.725	24.48
834.896	23.72
835.068	24.91
835.239	28.19
835.41	26.78
835.581	25.18
835.753	24.04
835.924	24.21
836.095	26.16
836.266	25.59
836.438	24.33
836.609	26.59
836.78	25.54
836.951	23.74
837.122	21.05
837.293	20.82
837.464	21.66
837.635	24.86
837.806	21.22
837.977	20.02
838.148	21.22
838.319	21.59
838.49	17.94
838.661	24.27
838.832	24.5
839.003	21.42
839.174	19.54
839.345	16.74
839.516	11.18
839.687	16.51
839.857	23.78
840.028	17.83
840.199	18.24
840.37	23.25
840.54	17.85
840.711	21.91
840.882	29.11
841.053	32.1
841.223	37.64
841.394	39.99
841.564	36.94
841.735	31.98
841.906	38.36
842.076	37.9
842.247	33.82
842.417	34.49
842.588	29.95
842.758	35.85
842.929	34.85
843.099	25.81
843.27	26.9
843.44	33.07
843.611	34.43
843.781	26.9
843.951	28.67
844.122	27.68
844.292	26.33
844.462	31.64
844.633	12.28
844.803	12.01
844.973	16.91
845.144	19.28
845.314	22.06
845.484	20
845.654	19.84
845.824	20.45
845.995	19.65
846.165	17.88
846.335	20.94
846.505	32.15
846.675	31.65
846.845	43.98
847.015	36.01
847.185	26.84
847.355	34.05
847.525	47.5
847.695	47.26
847.865	53.1
848.035	46.85
848.205	35.21
848.375	25.25
848.545	21.7
848.715	6.21
848.884	2.39
849.054	1.51
849.224	-6
849.394	-13.14
849.564	-11.9
849.733	-8.24
849.903	-4.89
850.073	1.45
850.243	2.09
850.412	12.06
850.582	17.22
850.752	20.12
850.921	22.92
851.091	24.57
851.26	23.68
851.43	32.89
851.599	39.02
851.769	49.11
851.939	46.44
852.108	46.11
852.278	52.21
852.447	50.91
852.616	51.24
852.786	52.98
852.955	55.06
853.125	55.9
853.294	55.19
853.463	40.7
853.633	40.84
853.802	47.55
853.971	47.35
854.141	28.35
854.31	26.65
854.479	33.9
854.648	32.01
854.818	34.6
854.987	35.79
855.156	32.21
855.325	43.42
855.494	36.58
855.663	28.92
855.832	18.42
856.001	30.75
856.171	37.85
856.34	36.69
856.509	39.39
856.678	27.15
856.847	26.29
857.016	31.06
857.185	25.56
857.353	26.1
857.522	24.57
857.691	38.63
857.86	42.45
858.029	32.18
858.198	23.39
858.367	18.7
858.535	30.93
858.704	31.69
858.873	26.98
859.042	27.25
859.21	34.45
859.379	25.42
859.548	20.16
859.717	10.46
859.885	20.22
860.054	23.83
860.222	21.2
860.391	11.32
860.56	-6.4
860.728	-13.13
860.897	-9.1
861.065	-7.41
861.234	-2.39
861.402	10.71
861.571	-3.86
861.739	3.25
861.908	1.73
862.076	10.91
862.244	3.47
862.413	14.26
862.581	29.54
862.749	31.88
862.918	18.12
863.086	32.22
863.254	29.92
863.423	20.8
863.591	13.24
863.759	21.93
863.927	31.02
864.096	37.09
864.264	39.44
864.432	32.78
864.6	36.19
864.768	43.49
864.936	42.65
865.104	37.87
865.272	65.52
865.44	45.46
865.608	28.2
865.776	18.8
865.944	11.96
866.112	10.73
866.28	-4.08
866.448	2.95
866.616	14.97
866.784	8.32
866.952	17.4
867.12	9.09
867.288	26.88
867.455	29.91
867.623	37.22
867.791	43.17
867.959	36.47
868.127	42.38
868.294	34.54
868.462	28.05
868.63	26.2
868.797	23.89
868.965	13.6
869.133	-8.37
869.3	-23.63
869.468	-44.72
869.636	-27.54
869.803	-2.87
869.971	-10.7
870.138	-13.06
870.306	-34.11
870.473	-72.64
870.641	-85.63
870.808	-40.93
870.975	-12.18
871.143	13.61
871.31	8.88
871.478	-1.36
871.645	-13.38
871.812	-5.03
871.98	0.56
872.147	-1.26
872.314	19.63
872.482	12.38
872.649	8.81
872.816	14.87
872.983	19.72
873.15	27.83
873.318	34.94
873.485	26.11
873.652	33.01
873.819	24.93
873.986	36.75
874.153	29.26
874.32	32.72
874.487	29.27
874.654	24.55
874.821	19.54
874.988	18.7
875.155	23.26
875.322	38.34
875.489	40.01
875.656	47.61
875.823	49.14
875.99	50.63
876.157	55.96
876.324	54.32
876.49	50.54
876.657	45.73
876.824	44.72
876.991	46.71
877.157	35.03
877.324	30.53
877.491	28.48
877.658	21.09
877.824	6.96
877.991	-10.24
878.157	0.97
878.324	-4.9
878.491	-8.01
878.657	-8.69
878.824	-24.42
878.99	-18.2
879.157	-8.85
879.323	-9.78
879.49	4.92
879.656	11.39
879.823	18.4
879.989	21.45
880.156	26.87
880.322	16.69
880.488	14.96
880.655	22.14
880.821	14.82
880.987	9.24
881.154	8.82
881.32	7.92
881.486	21.45
881.652	16.41
881.819	14.26
881.985	14.51
882.151	23.8
882.317	27.18
882.483	26.9
882.649	31.76
882.816	31.47
882.982	31.52
883.148	32.08
883.314	28.57
883.48	30.13
883.646	31.39
883.812	32.12
883.978	31.68
884.144	33
884.31	32.54
884.476	32.05
884.642	32.52
884.807	31.56
884.973	29.23
885.139	26.15
885.305	25.73
885.471	21.71
885.637	23.63
885.802	21.66
885.968	19.26
886.134	20.41
886.3	19.07
886.465	16.82
886.631	15.23
886.797	19.2
886.962	25.39
887.128	32.07
887.293	37.55
887.459	36.59
887.625	31.61
887.79	28.75
887.956	28.52
888.121	29.97
888.287	36.2
888.452	47.17
888.618	45.93
888.783	48.98
