Data from 2937841_Reflection_1.txt Node
Date: Wed Jul 15 16:16:53 EDT 2015
User: robert
Spectrometer: USB4E03001
Autoset integration time: false
Trigger mode: 4
Integration Time (sec): 1.000000E-1
Scans to average: 10
Electric dark correction enabled: true
Nonlinearity correction enabled: false
Boxcar width: 5
Stray light correction enabled: false
XAxis mode: Wavelengths
Stop averaging: false
Number of Pixels in Spectrum: 3648
>>>>>Begin Spectral Data<<<<<
177.566	-19.66
177.785	-265.82
178.005	162.67
178.225	28.31
178.445	103.36
178.665	296.85
178.885	618.69
179.105	78.74
179.324	43.74
179.544	-1332.81
179.764	590.86
179.984	430.28
180.204	231.56
180.423	118.2
180.643	118.97
180.863	235.52
181.083	327.39
181.302	391.26
181.522	456.06
181.742	370.78
181.961	467.12
182.181	23381.48
182.401	762.36
182.621	414.77
182.84	3135.59
183.06	340.36
183.279	130.91
183.499	176.09
183.719	101.08
183.938	75.39
184.158	72.11
184.377	67.36
184.597	57.5
184.816	38.36
185.036	58.73
185.256	76.38
185.475	7.88
185.695	5.08
185.914	-1.96
186.134	22.38
186.353	59.49
186.572	84.1
186.792	47.37
187.011	47.7
187.231	163.24
187.45	50.06
187.67	-44.46
187.889	34
188.108	-2.06
188.328	-8.88
188.547	-61.89
188.766	-140.72
188.986	-187.16
189.205	324.92
189.424	196.82
189.644	227.68
189.863	193.33
190.082	84.9
190.302	25.05
190.521	-20.01
190.74	46.36
190.959	74.85
191.178	-158.46
191.398	42.93
191.617	-224.24
191.836	20
192.055	74.28
192.274	275.28
192.494	298.43
192.713	-247.96
192.932	-1.84
193.151	14.01
193.37	-123.15
193.589	-15.61
193.808	-1058.37
194.027	-98.23
194.246	-55.94
194.465	-63.6
194.685	3595
194.904	338.24
195.123	-299.65
195.342	59.81
195.561	73.7
195.78	28.06
195.999	-43.17
196.218	4528.95
196.436	-11.6
196.655	34.18
196.874	34.58
197.093	1425.93
197.312	-53.31
197.531	40.97
197.75	81.4
197.969	79.64
198.188	98.21
198.407	87.51
198.625	60.54
198.844	44.9
199.063	43.4
199.282	34.66
199.501	38.18
199.719	29.58
199.938	15.17
200.157	-5.96
200.376	51.53
200.594	111.48
200.813	-383.82
201.032	-130.4
201.251	-214.15
201.469	-750.36
201.688	-639.04
201.907	-184.34
202.125	1616.28
202.344	-262.47
202.563	-488.41
202.781	-17504
203	-94.42
203.218	-133.76
203.437	-13.63
203.656	24.47
203.874	24.54
204.093	20.4
204.311	76.92
204.53	43.36
204.748	-33.57
204.967	-1825.16
205.185	199.53
205.404	189.24
205.622	144.19
205.841	159.15
206.059	156.41
206.278	132.62
206.496	181.33
206.715	149.68
206.933	152.64
207.151	129.83
207.37	113.83
207.588	109.04
207.806	77.28
208.025	55.09
208.243	64.07
208.461	12.86
208.68	26.13
208.898	28.57
209.116	39.54
209.335	32.86
209.553	40.03
209.771	37.32
209.989	26
210.208	-9.65
210.426	0.19
210.644	-79.63
210.862	-19.73
211.081	-110.98
211.299	-102.46
211.517	-143.73
211.735	-942
211.953	-2610.59
212.171	225.42
212.39	314.06
212.608	-2218.64
212.826	-1656.17
213.044	-40.1
213.262	-64.99
213.48	-159.26
213.698	1590.72
213.916	-39.66
214.134	-53.52
214.352	-46.09
214.57	-110.37
214.788	154.42
215.006	53.65
215.224	486.4
215.442	878.36
215.66	-96.26
215.878	-167.58
216.096	-1298.52
216.314	-249.85
216.532	-155.54
216.75	-361.72
216.968	2492.34
217.185	201.44
217.403	120.75
217.621	-192.3
217.839	-110.12
218.057	-124.96
218.275	363.77
218.492	546.27
218.71	351.8
218.928	262.55
219.146	122.57
219.363	132.86
219.581	157.51
219.799	139.8
220.017	117.01
220.234	111.31
220.452	111.18
220.67	87.61
220.887	88.3
221.105	79.79
221.323	54.89
221.54	65.1
221.758	18.29
221.976	33.13
222.193	19.6
222.411	41.4
222.629	30.47
222.846	33.08
223.064	68.33
223.281	62.89
223.499	75.75
223.716	81.78
223.934	77.34
224.151	81.95
224.369	83.65
224.586	90.14
224.804	74.48
225.021	35.67
225.239	31.91
225.456	20.38
225.674	-0.77
225.891	-31.91
226.108	-37.94
226.326	-23.71
226.543	2.64
226.76	2.39
226.978	-4.69
227.195	-0.38
227.413	15.03
227.63	9.71
227.847	13.64
228.064	15.9
228.282	18.65
228.499	23.45
228.716	18.91
228.934	16.67
229.151	20.78
229.368	20.35
229.585	18.12
229.802	16.8
230.02	19.95
230.237	18.28
230.454	21.52
230.671	23.45
230.888	20.83
231.105	24.53
231.323	23.41
231.54	18.98
231.757	16.22
231.974	19.38
232.191	20.19
232.408	17.92
232.625	18.41
232.842	12.13
233.059	4.53
233.276	3.18
233.493	-2.54
233.71	5.19
233.927	11.15
234.144	23.93
234.361	18.11
234.578	15.16
234.795	18.67
235.012	16.58
235.229	25.92
235.446	31.68
235.663	33.2
235.879	38.05
236.096	36.69
236.313	32.14
236.53	29.92
236.747	28.45
236.964	37.31
237.181	31.73
237.397	35.3
237.614	31.48
237.831	30.5
238.048	25.6
238.264	14.21
238.481	16.87
238.698	15.61
238.915	14.63
239.131	22.88
239.348	15.86
239.565	23.21
239.781	16.43
239.998	13.32
240.215	14.07
240.431	18.48
240.648	20.84
240.865	19.99
241.081	22.42
241.298	21.54
241.514	20.7
241.731	22.6
241.947	20.23
242.164	22.72
242.38	21.58
242.597	21.4
242.814	21.69
243.03	23.28
243.246	24.9
243.463	24.58
243.679	25.17
243.896	25.41
244.112	24.6
244.329	26.55
244.545	28.19
244.762	30.54
244.978	29.82
245.194	27.21
245.411	23.9
245.627	21.02
245.843	22.21
246.06	22.58
246.276	21.72
246.492	20.2
246.709	19.43
246.925	17.55
247.141	17.68
247.357	17.9
247.574	17.93
247.79	18.44
248.006	17.89
248.222	17.06
248.439	17.14
248.655	18
248.871	19.04
249.087	18.9
249.303	19.23
249.519	19.16
249.736	18.32
249.952	18.4
250.168	17.76
250.384	19.2
250.6	20.91
250.816	20.88
251.032	20.16
251.248	21.25
251.464	22.88
251.68	22.23
251.896	21.17
252.112	19.76
252.328	20.19
252.544	20.15
252.76	18.39
252.976	19.8
253.192	18.5
253.408	17.95
253.624	14.23
253.84	15.32
254.056	16.5
254.272	16.72
254.487	19.61
254.703	20.63
254.919	24.66
255.135	27.51
255.351	21.26
255.567	24.9
255.782	25.48
255.998	26.61
256.214	23.85
256.43	23.12
256.646	22.53
256.861	19.7
257.077	17.85
257.293	17.5
257.508	16.14
257.724	16.2
257.94	14.29
258.155	14.04
258.371	15.01
258.587	14.26
258.802	14.55
259.018	14.83
259.234	15.3
259.449	16.32
259.665	15.42
259.88	15.62
260.096	15.99
260.312	15.82
260.527	15.38
260.743	15.91
260.958	15.87
261.174	15.95
261.389	16
261.605	15.7
261.82	14.8
262.036	16.25
262.251	15.64
262.466	16.65
262.682	18.27
262.897	19.94
263.113	19.91
263.328	19.67
263.543	19.47
263.759	18.9
263.974	19.1
264.189	20.5
264.405	16.87
264.62	17.52
264.835	14.95
265.051	12.12
265.266	9.53
265.481	8.53
265.696	9.35
265.912	7.86
266.127	5.46
266.342	6.7
266.557	7.8
266.773	7.4
266.988	7.51
267.203	7.86
267.418	8.19
267.633	7.7
267.848	6.83
268.064	6.38
268.279	8.52
268.494	11.63
268.709	9.95
268.924	8.85
269.139	11.01
269.354	11.1
269.569	9.96
269.784	10.94
269.999	12.65
270.214	12.46
270.429	14.63
270.644	13.29
270.859	13.71
271.074	14.73
271.289	16.07
271.504	15.93
271.719	16.3
271.934	17.67
272.149	17.34
272.363	16.62
272.578	17.69
272.793	16.65
273.008	17.3
273.223	16.19
273.438	15.43
273.653	13.98
273.867	13.84
274.082	13.68
274.297	14.04
274.512	13.58
274.726	14.3
274.941	12.18
275.156	13.01
275.371	13.22
275.585	13.55
275.8	13.39
276.015	12.99
276.229	13.35
276.444	12.89
276.659	12.59
276.873	13.12
277.088	14.39
277.302	16.56
277.517	15.93
277.732	13.88
277.946	13.86
278.161	15.82
278.375	17.15
278.59	16.9
278.804	15.7
279.019	13.94
279.233	13.16
279.448	12.83
279.662	14.41
279.877	14.32
280.091	15.51
280.306	17.2
280.52	15.41
280.735	13.99
280.949	14.46
281.163	14.82
281.378	16.12
281.592	16.17
281.806	15.43
282.021	12.33
282.235	13.17
282.449	13.75
282.664	13.58
282.878	13.8
283.092	13.5
283.307	11.67
283.521	12.18
283.735	11.93
283.949	12.14
284.164	11.64
284.378	12.09
284.592	11.89
284.806	11.88
285.02	12.67
285.234	13.83
285.449	15.2
285.663	17.23
285.877	16.09
286.091	15.56
286.305	16.34
286.519	17.55
286.733	19.74
286.947	18.79
287.161	18.47
287.375	15.9
287.589	15.24
287.803	14.26
288.017	12.13
288.231	12.29
288.445	12.43
288.659	11.42
288.873	10.23
289.087	10.1
289.301	11.74
289.515	13.38
289.729	14.25
289.943	14.94
290.157	14.92
290.371	16.93
290.584	18.72
290.798	18.59
291.012	18.14
291.226	19.01
291.44	18.13
291.654	18.35
291.867	17.14
292.081	18.02
292.295	19.69
292.509	20.69
292.722	19.12
292.936	18.63
293.15	20.6
293.364	21.48
293.577	21.31
293.791	21.98
294.005	21.43
294.218	20.74
294.432	19.75
294.645	17.25
294.859	17
295.073	17.75
295.286	17.21
295.5	16.17
295.713	16.38
295.927	15.78
296.14	15.26
296.354	16.12
296.568	16.25
296.781	17.23
296.994	17.75
297.208	18.18
297.421	17.14
297.635	18.07
297.848	17.7
298.062	17.33
298.275	18.55
298.489	19.16
298.702	17.92
298.915	17.98
299.129	18.78
299.342	19.26
299.555	19.2
299.769	19.56
299.982	19.05
300.195	19.41
300.409	21.43
300.622	19.71
300.835	19.01
301.048	19.83
301.262	19.91
301.475	16.88
301.688	16.61
301.901	17.85
302.115	19.18
302.328	18.74
302.541	17.47
302.754	15.77
302.967	16.83
303.18	17.39
303.393	16.17
303.607	15.58
303.82	17.16
304.033	16.25
304.246	14.92
304.459	14.01
304.672	14.2
304.885	15.64
305.098	15.32
305.311	16.26
305.524	16.71
305.737	18.69
305.95	18.16
306.163	18.52
306.376	20.4
306.589	20.82
306.802	21.96
307.015	24.07
307.228	24.53
307.44	24.24
307.653	22.04
307.866	22.17
308.079	22.13
308.292	24.68
308.505	24.7
308.718	22.87
308.93	21.97
309.143	22.51
309.356	20.71
309.569	20.24
309.781	19.98
309.994	21.29
310.207	21.29
310.42	20.89
310.632	22.2
310.845	21.71
311.058	22.04
311.27	22.1
311.483	21.51
311.696	21.83
311.908	24.3
312.121	24.95
312.333	23.96
312.546	23.78
312.759	25.55
312.971	23.99
313.184	24.2
313.396	25.3
313.609	26.17
313.821	25.71
314.034	25.45
314.246	22.77
314.459	22.91
314.671	24.82
314.884	25.06
315.096	25.49
315.309	25.9
315.521	26.91
315.733	26.73
315.946	26.33
316.158	26.53
316.371	26.94
316.583	27.78
316.795	28.68
317.008	29.82
317.22	29.89
317.432	27
317.644	26.24
317.857	25.49
318.069	24.97
318.281	27.36
318.494	26.71
318.706	27.49
318.918	27.07
319.13	25.49
319.342	24
319.555	24.17
319.767	25.27
319.979	26.25
320.191	28.4
320.403	28.33
320.615	27.68
320.827	28.84
321.039	28.38
321.252	28.23
321.464	29.7
321.676	28.75
321.888	29.94
322.1	28.8
322.312	28.55
322.524	27.2
322.736	26.91
322.948	24.82
323.16	24.28
323.372	23.99
323.584	24.73
323.796	24.15
324.007	24.5
324.219	22.4
324.431	20.78
324.643	20.07
324.855	20.18
325.067	22.03
325.279	22.54
325.491	22.77
325.702	22.69
325.914	22.23
326.126	21.9
326.338	21.22
326.55	23.07
326.761	25.22
326.973	25.27
327.185	24.6
327.396	24.63
327.608	23.7
327.82	24.24
328.032	24.19
328.243	23.93
328.455	24.09
328.666	24.2
328.878	23.97
329.09	24.54
329.301	25
329.513	25.08
329.725	24.88
329.936	25.22
330.148	25.37
330.359	26.71
330.571	27.63
330.782	26.66
330.994	27.37
331.205	25.77
331.417	25.97
331.628	25.67
331.84	26.29
332.051	24.57
332.262	25.4
332.474	26.84
332.685	25.29
332.897	24.28
333.108	26.59
333.319	27.67
333.531	29.4
333.742	28.36
333.953	29.24
334.165	28.27
334.376	28.4
334.587	28.9
334.799	27.48
335.01	27.91
335.221	27.19
335.432	26.15
335.644	26.93
335.855	25.66
336.066	25.69
336.277	24.33
336.488	25.32
336.7	26.9
336.911	27.49
337.122	28.06
337.333	28.55
337.544	28.85
337.755	29.07
337.966	27.59
338.177	29.1
338.388	29.38
338.599	30.48
338.811	30.96
339.022	29.66
339.233	28.02
339.444	27.55
339.655	27.24
339.866	28.29
340.076	28.27
340.287	29.27
340.498	27.87
340.709	26.5
340.92	25.33
341.131	25.02
341.342	25.67
341.553	26.99
341.764	27.15
341.975	28.21
342.185	27.62
342.396	27.13
342.607	26.54
342.818	27.88
343.029	28.31
343.239	28.85
343.45	28.03
343.661	27.63
343.872	27.4
344.082	26.77
344.293	25.41
344.504	25.38
344.714	25.74
344.925	25.2
345.136	23.71
345.346	24.56
345.557	25.04
345.768	26.38
345.978	25.07
346.189	25.39
346.399	26.7
346.61	26.97
346.821	27.47
347.031	28.03
347.242	28.95
347.452	29.93
347.663	29.83
347.873	29.69
348.084	29.88
348.294	32.61
348.504	31.75
348.715	30.83
348.925	31.02
349.136	30.76
349.346	30.4
349.557	30.39
349.767	30.14
349.977	29.24
350.188	29.1
350.398	27.62
350.608	27.87
350.819	27.88
351.029	28.02
351.239	27.5
351.449	28.52
351.66	29.14
351.87	28.45
352.08	28.02
352.29	28.15
352.501	28.85
352.711	29.53
352.921	27.61
353.131	27.82
353.341	27.26
353.552	28.09
353.762	26.12
353.972	25.69
354.182	26.04
354.392	26.44
354.602	26.61
354.812	25.64
355.022	24.45
355.232	24.73
355.442	23.93
355.652	24.63
355.862	24.54
356.072	24.72
356.282	23.42
356.492	23.11
356.702	22.91
356.912	22.88
357.122	23.83
357.332	23.78
357.542	24.02
357.752	23.48
357.962	22.74
358.171	22.52
358.381	22.62
358.591	24.68
358.801	25.01
359.011	25.39
359.221	25.25
359.43	24.21
359.64	25.1
359.85	25.22
360.06	25.9
360.269	25.64
360.479	24.89
360.689	24.78
360.899	23.87
361.108	23.71
361.318	23.08
361.528	23.1
361.737	23.24
361.947	22.8
362.156	22.5
362.366	22.25
362.576	22.14
362.785	22.57
362.995	22.92
363.204	22.49
363.414	22.93
363.623	22.96
363.833	23.48
364.042	23.82
364.252	22.93
364.461	22.49
364.671	22.83
364.88	22.73
365.09	22.82
365.299	22.93
365.509	22.99
365.718	21.75
365.927	21.41
366.137	21.06
366.346	20.79
366.555	21.06
366.765	21.98
366.974	21.28
367.183	21.51
367.393	21.05
367.602	21.33
367.811	21.15
368.021	20.99
368.23	20.51
368.439	20.51
368.648	20.17
368.857	20.47
369.067	20.07
369.276	20.74
369.485	20.29
369.694	20.27
369.903	20.51
370.112	21.02
370.321	21.44
370.531	22.62
370.74	22.07
370.949	22.44
371.158	22.06
371.367	22.2
371.576	22.13
371.785	22.46
371.994	22.77
372.203	21.9
372.412	21.83
372.621	21.12
372.83	20.92
373.039	20.46
373.248	19.48
373.457	20.46
373.666	19.51
373.874	18.74
374.083	18.77
374.292	18.37
374.501	18.07
374.71	17.53
374.919	17.97
375.128	18.18
375.336	18.73
375.545	18.61
375.754	17.96
375.963	17.94
376.171	18.17
376.38	18.35
376.589	17.37
376.798	17.91
377.006	17.9
377.215	18.06
377.424	17.05
377.632	17.04
377.841	17.2
378.05	17.5
378.258	17.81
378.467	18.77
378.675	18.37
378.884	19.39
379.093	19.25
379.301	19.58
379.51	19.96
379.718	20.09
379.927	20.18
380.135	19.85
380.344	19.23
380.552	18.67
380.761	17.82
380.969	18.33
381.177	17.91
381.386	17.58
381.594	16.9
381.803	16
382.011	16.27
382.219	16.12
382.428	16.57
382.636	16.94
382.845	17.15
383.053	17.14
383.261	17.11
383.469	17.62
383.678	17.55
383.886	17.91
384.094	18.03
384.302	17.95
384.511	17.66
384.719	17.22
384.927	17.15
385.135	16.87
385.343	16.68
385.552	15.89
385.76	15.48
385.968	15.33
386.176	15.26
386.384	15.03
386.592	14.95
386.8	14.93
387.008	15.48
387.216	15.35
387.424	14.92
387.633	14.92
387.841	14.83
388.049	15.1
388.257	14.42
388.465	14.28
388.672	14.29
388.88	13.79
389.088	13.34
389.296	12.95
389.504	12.86
389.712	13.18
389.92	13.05
390.128	13.04
390.336	12.2
390.544	12.85
390.751	12.66
390.959	12.66
391.167	12.98
391.375	13.16
391.583	12.89
391.79	12.72
391.998	12.75
392.206	13.04
392.414	13.11
392.621	13.43
392.829	13.57
393.037	13.54
393.244	13.84
393.452	13.37
393.66	13.11
393.867	13.31
394.075	13.54
394.283	13.66
394.49	13.53
394.698	13.48
394.905	13.51
395.113	13.1
395.32	13.23
395.528	12.94
395.735	13.33
395.943	13.45
396.15	13.49
396.358	13.14
396.565	13.05
396.773	12.75
396.98	12.42
397.188	12.36
397.395	12.43
397.602	12.4
397.81	12.45
398.017	12.51
398.225	12.73
398.432	12.58
398.639	12.84
398.847	12.73
399.054	12.25
399.261	12.51
399.468	12.37
399.676	12.08
399.883	11.83
400.09	11.37
400.297	11.11
400.505	11.07
400.712	11.1
400.919	11.02
401.126	10.97
401.333	11.47
401.54	11.55
401.748	11.67
401.955	11.96
402.162	12.02
402.369	12.47
402.576	12.29
402.783	11.95
402.99	12.14
403.197	11.59
403.404	11.49
403.611	11.33
403.818	11.49
404.025	11.53
404.232	11.32
404.439	11.59
404.646	11.06
404.853	11.15
405.06	11.54
405.267	11.42
405.474	11.54
405.681	11.78
405.887	11.54
406.094	11.08
406.301	10.87
406.508	11.15
406.715	10.99
406.922	11.35
407.128	11.48
407.335	11.23
407.542	11.16
407.749	11.75
407.955	11.54
408.162	12.03
408.369	12.04
408.575	12
408.782	11.98
408.989	12.05
409.195	11.77
409.402	11.67
409.609	11.6
409.815	11.13
410.022	10.75
410.228	10.79
410.435	10.31
410.642	10.38
410.848	10.18
411.055	9.81
411.261	9.71
411.468	9.72
411.674	9.69
411.881	9.8
412.087	10.29
412.294	10.52
412.5	10.53
412.706	10.73
412.913	10.93
413.119	11
413.326	10.69
413.532	10.37
413.738	10.43
413.945	10.37
414.151	10.43
414.357	10.25
414.564	9.95
414.77	9.86
414.976	9.84
415.182	9.8
415.389	9.99
415.595	10.47
415.801	10.53
416.007	10.56
416.214	10.66
416.42	10.39
416.626	10.26
416.832	10.26
417.038	10.2
417.244	10.27
417.45	10.19
417.657	10.22
417.863	10.24
418.069	10.35
418.275	10.61
418.481	10.53
418.687	10.66
418.893	10.75
419.099	10.73
419.305	11.02
419.511	11.18
419.717	11.33
419.923	11.2
420.129	11.13
420.335	11.07
420.541	10.99
420.746	10.89
420.952	10.87
421.158	10.94
421.364	10.81
421.57	10.69
421.776	10.63
421.982	10.51
422.187	10.52
422.393	10.42
422.599	10.39
422.805	10.38
423.01	10.43
423.216	10.36
423.422	10.24
423.628	10.46
423.833	10.5
424.039	10.34
424.245	10.34
424.45	10.47
424.656	10.55
424.862	10.55
425.067	10.27
425.273	10.27
425.478	10.34
425.684	10.37
425.889	10.27
426.095	10.16
426.301	10.14
426.506	10.08
426.712	9.96
426.917	10.13
427.123	10.07
427.328	10.29
427.533	10.38
427.739	10.35
427.944	10.56
428.15	10.71
428.355	10.6
428.561	10.76
428.766	10.76
428.971	10.88
429.177	10.48
429.382	10.75
429.587	10.6
429.793	10.5
429.998	10.54
430.203	10.19
430.408	9.9
430.614	9.97
430.819	9.83
431.024	9.88
431.229	9.57
431.434	9.9
431.64	9.8
431.845	10.25
432.05	10.2
432.255	10.03
432.46	10.09
432.665	10.15
432.87	10.27
433.076	10.23
433.281	10.28
433.486	10.38
433.691	10.31
433.896	10.27
434.101	9.94
434.306	9.98
434.511	10.12
434.716	10.27
434.921	10.33
435.126	10.28
435.331	10.3
435.535	10.26
435.74	10.37
435.945	10.19
436.15	10.36
436.355	10.49
436.56	10.4
436.765	10.39
436.97	10.2
437.174	10.29
437.379	10.14
437.584	10.16
437.789	10.2
437.993	10.11
438.198	10.09
438.403	9.97
438.608	9.89
438.812	9.94
439.017	9.97
439.222	10.21
439.426	10.03
439.631	10.18
439.836	10.24
440.04	10.2
440.245	10.16
440.45	10.27
440.654	10.32
440.859	10.25
441.063	10.44
441.268	10.36
441.472	10.13
441.677	10.26
441.881	10.21
442.086	10.13
442.29	10.19
442.495	10.2
442.699	10.1
442.904	9.98
443.108	9.98
443.312	9.68
443.517	9.68
443.721	9.89
443.925	9.76
444.13	9.73
444.334	9.71
444.538	9.66
444.743	9.66
444.947	9.74
445.151	9.67
445.356	9.65
445.56	9.83
445.764	9.84
445.968	9.72
446.173	9.84
446.377	9.97
446.581	10.02
446.785	9.96
446.989	9.82
447.193	9.85
447.398	9.9
447.602	10.04
447.806	9.99
448.01	10.03
448.214	9.97
448.418	9.99
448.622	9.87
448.826	9.87
449.03	10.01
449.234	10.19
449.438	10.36
449.642	10.55
449.846	10.45
450.05	10.41
450.254	10.32
450.458	10.46
450.662	10.36
450.866	10.46
451.069	10.45
451.273	10.3
451.477	10.08
451.681	9.85
451.885	9.65
452.089	9.77
452.292	9.66
452.496	9.71
452.7	9.68
452.904	9.68
453.107	9.27
453.311	9.34
453.515	9.44
453.719	9.64
453.922	9.53
454.126	9.47
454.33	9.23
454.533	9.36
454.737	9.29
454.94	9.15
455.144	8.97
455.348	9.34
455.551	9.19
455.755	9.16
455.958	9.15
456.162	9.13
456.365	9.09
456.569	9.27
456.772	9.23
456.976	9.27
457.179	9.24
457.383	9.46
457.586	9.32
457.79	9.43
457.993	9.47
458.196	9.44
458.4	9.65
458.603	9.86
458.807	9.8
459.01	9.83
459.213	9.83
459.417	9.96
459.62	9.96
459.823	9.96
460.026	9.95
460.23	9.94
460.433	10.02
460.636	10.03
460.839	9.77
461.042	9.79
461.246	9.86
461.449	9.84
461.652	9.7
461.855	9.66
462.058	9.59
462.261	9.63
462.464	9.55
462.668	9.45
462.871	9.46
463.074	9.66
463.277	9.78
463.48	9.6
463.683	9.72
463.886	9.79
464.089	9.72
464.292	9.96
464.495	9.72
464.698	9.72
464.901	9.72
465.104	9.77
465.306	9.75
465.509	9.52
465.712	9.36
465.915	9.57
466.118	9.74
466.321	9.66
466.524	9.57
466.726	9.75
466.929	9.61
467.132	9.68
467.335	9.5
467.538	9.54
467.74	9.63
467.943	10
468.146	9.89
468.348	9.8
468.551	10.17
468.754	10.24
468.956	10.15
469.159	10.35
469.362	10.36
469.564	10.4
469.767	10.47
469.969	10.36
470.172	10.2
470.375	9.94
470.577	9.9
470.78	9.52
470.982	9.48
471.185	9.59
471.387	9.42
471.59	9.26
471.792	9.4
471.995	9.22
472.197	9.37
472.399	9.33
472.602	9.4
472.804	9.54
473.007	9.72
473.209	9.74
473.411	9.8
473.614	9.92
473.816	10
474.018	9.74
474.22	9.83
474.423	9.9
474.625	9.93
474.827	9.96
475.03	9.69
475.232	9.69
475.434	9.77
475.636	9.71
475.838	9.81
476.04	9.68
476.243	9.74
476.445	9.77
476.647	9.63
476.849	9.61
477.051	9.69
477.253	9.91
477.455	9.77
477.657	9.61
477.859	9.53
478.061	9.45
478.263	9.62
478.465	9.62
478.667	9.66
478.869	9.67
479.071	9.76
479.273	9.61
479.475	9.53
479.677	9.6
479.879	9.5
480.081	9.59
480.283	9.58
480.485	9.37
480.686	9.41
480.888	9.31
481.09	9.42
481.292	9.29
481.494	9.41
481.695	9.4
481.897	9.4
482.099	9.42
482.301	9.36
482.502	9.28
482.704	9.41
482.906	9.41
483.107	9.36
483.309	9.4
483.511	9.44
483.712	9.43
483.914	9.45
484.115	9.43
484.317	9.48
484.519	9.48
484.72	9.44
484.922	9.33
485.123	9.27
485.325	9.3
485.526	9.29
485.728	9.27
485.929	9.25
486.131	9.22
486.332	9.2
486.534	9.12
486.735	9.09
486.936	9.23
487.138	9.34
487.339	9.44
487.541	9.47
487.742	9.44
487.943	9.38
488.144	9.35
488.346	9.3
488.547	9.29
488.748	9.26
488.95	9.29
489.151	9.22
489.352	9.16
489.553	9.15
489.755	9.09
489.956	9
490.157	9.04
490.358	9.13
490.559	9.19
490.76	9.28
490.961	9.41
491.163	9.48
491.364	9.55
491.565	9.55
491.766	9.58
491.967	9.62
492.168	9.57
492.369	9.55
492.57	9.51
492.771	9.46
492.972	9.4
493.173	9.32
493.374	9.15
493.575	9.04
493.776	9.11
493.976	9.08
494.177	9.01
494.378	8.99
494.579	8.97
494.78	8.92
494.981	9.08
495.182	9.21
495.382	9.29
495.583	9.49
495.784	9.69
495.985	9.57
496.185	9.4
496.386	9.46
496.587	9.58
496.788	9.6
496.988	9.63
497.189	9.49
497.39	9.34
497.59	9.35
497.791	9.34
497.992	9.17
498.192	9.26
498.393	9.31
498.593	9.32
498.794	9.44
498.994	9.5
499.195	9.52
499.395	9.62
499.596	9.76
499.796	9.65
499.997	9.63
500.197	9.84
500.398	10
500.598	10.14
500.799	10.07
500.999	9.98
501.199	10.15
501.4	10.2
501.6	10.27
501.801	10.25
502.001	10.54
502.201	10.49
502.402	10.3
502.602	10.25
502.802	10.1
503.002	10.11
503.203	10.08
503.403	10.04
503.603	9.84
503.803	9.86
504.003	9.99
504.204	9.95
504.404	10.1
504.604	10.21
504.804	10.09
505.004	10.02
505.204	10.01
505.404	10.1
505.604	10.14
505.804	10.27
506.005	10.27
506.205	10.11
506.405	9.98
506.605	10
506.805	10.03
507.005	10.14
507.204	10.29
507.404	10.28
507.604	10.24
507.804	10.19
508.004	10.19
508.204	10.12
508.404	10.09
508.604	10.13
508.804	10.1
509.003	10.13
509.203	10.12
509.403	10.02
509.603	10.13
509.803	10.29
510.002	10.16
510.202	10.13
510.402	10.13
510.602	10.25
510.801	10.28
511.001	10.3
511.201	10.17
511.4	10.27
511.6	10.53
511.8	10.62
511.999	10.43
512.199	10.61
512.398	10.64
512.598	10.69
512.797	10.73
512.997	10.64
513.197	10.67
513.396	10.85
513.596	10.65
513.795	10.53
513.994	10.47
514.194	10.36
514.393	10.36
514.593	10.43
514.792	10.34
514.992	10.15
515.191	10.32
515.39	10.23
515.59	10.19
515.789	10.3
515.988	10.34
516.188	10.28
516.387	10.54
516.586	10.47
516.786	10.39
516.985	10.51
517.184	10.68
517.383	10.72
517.582	10.8
517.782	10.79
517.981	10.76
518.18	10.68
518.379	10.75
518.578	10.65
518.777	10.6
518.976	10.69
519.176	10.69
519.375	10.54
519.574	10.46
519.773	10.49
519.972	10.54
520.171	10.59
520.37	10.65
520.569	10.73
520.768	10.84
520.967	11.04
521.166	10.98
521.365	11.07
521.564	11.22
521.762	11.18
521.961	11.17
522.16	11.16
522.359	11.08
522.558	11.09
522.757	11.15
522.956	11.07
523.154	10.94
523.353	10.96
523.552	10.87
523.751	10.8
523.949	11.1
524.148	11.09
524.347	11.02
524.546	11.1
524.744	11.16
524.943	11.04
525.142	11.16
525.34	11.21
525.539	11.15
525.737	11.26
525.936	11.27
526.135	11.23
526.333	11.24
526.532	11.3
526.73	11.47
526.929	11.44
527.127	11.58
527.326	11.54
527.524	11.67
527.723	11.85
527.921	11.82
528.12	11.89
528.318	11.84
528.516	11.85
528.715	11.94
528.913	11.93
529.112	11.98
529.31	11.88
529.508	11.94
529.707	11.89
529.905	11.84
530.103	11.86
530.301	11.88
530.5	11.93
530.698	11.84
530.896	11.83
531.094	11.81
531.293	11.82
531.491	11.93
531.689	11.95
531.887	12.02
532.085	11.99
532.283	12.15
532.481	12.27
532.68	12.3
532.878	12.43
533.076	12.41
533.274	12.45
533.472	12.5
533.67	12.6
533.868	12.61
534.066	12.71
534.264	12.83
534.462	12.77
534.66	12.74
534.858	12.76
535.056	12.83
535.253	12.87
535.451	12.91
535.649	12.92
535.847	12.75
536.045	12.83
536.243	12.83
536.441	12.94
536.638	13.04
536.836	12.99
537.034	13.05
537.232	13.07
537.43	13.1
537.627	12.96
537.825	13.01
538.023	13.16
538.22	13.22
538.418	13.22
538.616	13.23
538.813	13.23
539.011	13.4
539.209	13.33
539.406	13.36
539.604	13.48
539.801	13.6
539.999	13.59
540.196	13.67
540.394	13.64
540.591	13.63
540.789	13.59
540.986	13.47
541.184	13.43
541.381	13.49
541.579	13.52
541.776	13.59
541.974	13.61
542.171	13.55
542.368	13.52
542.566	13.59
542.763	13.61
542.96	13.67
543.158	13.79
543.355	13.85
543.552	13.84
543.75	13.91
543.947	13.88
544.144	14.12
544.341	14.34
544.539	14.43
544.736	14.52
544.933	14.69
545.13	14.78
545.327	14.9
545.524	14.91
545.722	15.02
545.919	15.06
546.116	15.04
546.313	14.9
546.51	14.94
546.707	15.11
546.904	15.07
547.101	14.91
547.298	15
547.495	15.04
547.692	15.16
547.889	15.25
548.086	15.24
548.283	15.41
548.48	15.36
548.677	15.41
548.874	15.28
549.07	15.47
549.267	15.79
549.464	15.83
549.661	15.92
549.858	16.01
550.055	16.2
550.251	16.37
550.448	16.37
550.645	16.57
550.842	16.58
551.038	16.77
551.235	16.71
551.432	16.56
551.628	16.61
551.825	16.61
552.022	16.72
552.218	16.71
552.415	16.74
552.612	16.73
552.808	16.92
553.005	16.92
553.201	17.1
553.398	17.08
553.594	17.17
553.791	16.96
553.987	16.94
554.184	17.12
554.38	17.38
554.577	17.55
554.773	17.69
554.97	17.52
555.166	17.78
555.362	17.54
555.559	17.61
555.755	17.75
555.952	17.8
556.148	17.76
556.344	17.43
556.541	17.02
556.737	16.72
556.933	16.68
557.129	16.92
557.326	16.87
557.522	17.29
557.718	17.32
557.914	17.5
558.11	17.61
558.307	17.71
558.503	17.75
558.699	18.23
558.895	18.63
559.091	18.77
559.287	18.73
559.483	18.68
559.679	18.37
559.876	18.5
560.072	18.31
560.268	18.56
560.464	18.32
560.66	18.55
560.856	18.27
561.052	18.15
561.247	18.21
561.443	18.1
561.639	18.13
561.835	18.15
562.031	18.1
562.227	17.98
562.423	17.96
562.619	18.26
562.815	18.22
563.01	18.4
563.206	18.47
563.402	18.56
563.598	18.83
563.793	18.86
563.989	19.05
564.185	18.95
564.381	19.29
564.576	19.38
564.772	19.79
564.968	19.76
565.163	19.91
565.359	20.02
565.555	20.34
565.75	20.4
565.946	20.86
566.141	20.84
566.337	21.06
566.532	21.03
566.728	20.98
566.923	21.04
567.119	21.19
567.314	21.09
567.51	21.27
567.705	21.17
567.901	21.32
568.096	20.93
568.292	21.14
568.487	21.27
568.682	21.36
568.878	21.69
569.073	21.41
569.268	21.62
569.464	21.71
569.659	21.69
569.854	21.76
570.05	21.72
570.245	21.96
570.44	22.1
570.635	22.21
570.831	22.36
571.026	22.37
571.221	22.59
571.416	22.77
571.611	22.86
571.806	22.74
572.002	22.56
572.197	22.55
572.392	22.59
572.587	22.5
572.782	22.49
572.977	22.49
573.172	22.4
573.367	22.38
573.562	22.1
573.757	22.15
573.952	22.2
574.147	22.32
574.342	22.39
574.537	22.48
574.732	22.47
574.927	22.56
575.121	22.6
575.316	22.77
575.511	22.6
575.706	22.91
575.901	23.03
576.096	23.18
576.29	23.42
576.485	23.31
576.68	23.31
576.875	23.51
577.069	23.46
577.264	23.53
577.459	23.62
577.654	23.88
577.848	24.08
578.043	23.77
578.238	23.76
578.432	23.51
578.627	23.84
578.821	23.89
579.016	23.73
579.21	23.89
579.405	23.77
579.6	23.61
579.794	23.63
579.989	23.59
580.183	23.63
580.378	23.77
580.572	23.99
580.766	23.86
580.961	23.96
581.155	23.93
581.35	23.77
581.544	23.87
581.738	23.96
581.933	24.06
582.127	24.08
582.321	24.52
582.516	24.57
582.71	24.43
582.904	24.7
583.099	24.6
583.293	24.51
583.487	24.6
583.681	24.81
583.875	24.74
584.07	24.66
584.264	24.28
584.458	24.12
584.652	24.05
584.846	24.23
585.04	24.04
585.234	23.98
585.428	24.31
585.623	24.37
585.817	24.07
586.011	24.14
586.205	24.48
586.399	25.11
586.593	25.25
586.787	25.18
586.981	25.14
587.174	25.5
587.368	25.48
587.562	25.48
587.756	25.78
587.95	25.98
588.144	26.11
588.338	25.77
588.532	25.24
588.725	25.19
588.919	25.44
589.113	25.54
589.307	25.25
589.501	25.29
589.694	25.19
589.888	24.99
590.082	24.92
590.275	24.78
590.469	24.8
590.663	24.87
590.856	24.86
591.05	24.82
591.244	24.94
591.437	25.01
591.631	25.12
591.824	25.26
592.018	25.1
592.212	25.2
592.405	25.52
592.599	25.94
592.792	26.1
592.986	26.39
593.179	26.19
593.372	26.28
593.566	26.31
593.759	26.42
593.953	26.33
594.146	26.38
594.339	26.42
594.533	26.29
594.726	26.25
594.92	26.23
595.113	25.95
595.306	26
595.499	25.82
595.693	25.96
595.886	25.88
596.079	25.97
596.272	26.21
596.466	26.18
596.659	26.02
596.852	26.01
597.045	25.96
597.238	25.91
597.431	25.95
597.624	25.94
597.818	25.97
598.011	25.86
598.204	25.83
598.397	25.77
598.59	25.97
598.783	26.25
598.976	26.22
599.169	26.17
599.362	26.54
599.555	26.88
599.748	26.86
599.941	26.95
600.134	27.38
600.326	27.51
600.519	27.47
600.712	27.27
600.905	27.31
601.098	27.06
601.291	27.14
601.483	26.86
601.676	26.8
601.869	27
602.062	26.61
602.255	26.3
602.447	26.46
602.64	26.5
602.833	26.51
603.025	26.46
603.218	26.68
603.411	26.81
603.603	27.08
603.796	26.82
603.989	26.72
604.181	26.81
604.374	27.17
604.566	27.04
604.759	27.2
604.951	27.18
605.144	27.33
605.336	27.2
605.529	26.96
605.721	27.07
605.914	27.46
606.106	27.67
606.299	27.78
606.491	27.69
606.683	27.72
606.876	27.68
607.068	27.72
607.26	27.57
607.453	27.85
607.645	28.26
607.837	27.9
608.03	27.79
608.222	27.67
608.414	27.77
608.606	27.62
608.799	27.73
608.991	27.63
609.183	27.67
609.375	27.68
609.567	27.6
609.759	27.63
609.952	27.8
610.144	27.7
610.336	27.51
610.528	27.56
610.72	27.49
610.912	27.44
611.104	27.3
611.296	27.76
611.488	27.62
611.68	27.88
611.872	27.76
612.064	27.57
612.256	27.77
612.448	27.95
612.64	27.8
612.832	28.07
613.023	27.99
613.215	28.13
613.407	27.52
613.599	27.84
613.791	27.34
613.983	27.36
614.174	27.51
614.366	27.34
614.558	27.26
614.75	27.35
614.941	27.38
615.133	27.43
615.325	27.46
615.516	27.76
615.708	27.88
615.9	28.21
616.091	28.28
616.283	28.39
616.475	28.19
616.666	28.51
616.858	28.54
617.049	28.5
617.241	28.72
617.432	28.82
617.624	28.82
617.815	28.71
618.007	28.78
618.198	28.85
618.39	28.76
618.581	29.06
618.773	29.15
618.964	29.02
619.155	29.05
619.347	29.12
619.538	29.1
619.729	28.9
619.921	28.93
620.112	28.98
620.303	28.82
620.494	28.55
620.686	28.49
620.877	28.39
621.068	28.37
621.259	28.29
621.451	27.99
621.642	28.12
621.833	28.36
622.024	28.39
622.215	28.5
622.406	28.6
622.597	28.96
622.788	29.24
622.98	29.21
623.171	29.09
623.362	29.05
623.553	29.42
623.744	29.51
623.935	29.37
624.126	29.39
624.317	29.35
624.508	29.39
624.698	29.39
624.889	28.97
625.08	29.05
625.271	29.19
625.462	29.28
625.653	29.13
625.844	29.02
626.034	28.99
626.225	28.89
626.416	28.63
626.607	28.59
626.798	28.38
626.988	28.63
627.179	28.71
627.37	29.05
627.56	29.2
627.751	29.5
627.942	29.51
628.132	29.56
628.323	29.63
628.514	29.74
628.704	29.67
628.895	29.85
629.085	29.91
629.276	29.86
629.466	29.67
629.657	29.59
629.847	29.22
630.038	29.45
630.228	29.5
630.419	29.43
630.609	29.51
630.8	29.95
630.99	29.94
631.181	29.86
631.371	30.02
631.561	30.03
631.752	29.8
631.942	29.56
632.132	29.25
632.323	29.52
632.513	29.62
632.703	29.37
632.893	28.95
633.084	29.02
633.274	28.62
633.464	28.34
633.654	28.06
633.844	28.21
634.034	28.64
634.225	29.06
634.415	28.46
634.605	28.2
634.795	28.42
634.985	28.68
635.175	28.72
635.365	29.01
635.555	29.1
635.745	29.46
635.935	29.61
636.125	29.66
636.315	29.32
636.505	29.8
636.695	30.15
636.885	30.11
637.075	30.14
637.265	30.48
637.455	30.74
637.644	30.99
637.834	31.09
638.024	31.29
638.214	30.81
638.404	31.12
638.593	31.13
638.783	31.08
638.973	31.27
639.163	31.39
639.352	31.32
639.542	31.19
639.732	31.16
639.921	31.29
640.111	31.38
640.301	31.47
640.49	31.1
640.68	31.03
640.87	30.75
641.059	30.95
641.249	30.8
641.438	30.73
641.628	30.61
641.817	30.27
642.007	30.1
642.196	30.01
642.386	29.92
642.575	30.12
642.764	30.25
642.954	30.76
643.143	30.15
643.333	30.01
643.522	29.84
643.711	30.28
643.901	30.43
644.09	30.41
644.279	30.09
644.469	30.85
644.658	30.41
644.847	30.03
645.036	29.55
645.226	29.85
645.415	29.58
645.604	29.75
645.793	29.04
645.982	28.73
646.171	28.81
646.361	29.08
646.55	28.59
646.739	29
646.928	29.46
647.117	29.96
647.306	30.11
647.495	30.49
647.684	30.47
647.873	31.08
648.062	31.69
648.251	31.86
648.44	31.86
648.629	32.12
648.818	32.01
649.007	31.91
649.196	31.49
649.384	31.73
649.573	31.43
649.762	31.66
649.951	31.43
650.14	31.12
650.328	30.82
650.517	30.53
650.706	29.7
650.895	30.2
651.083	30.59
651.272	30.85
651.461	30.71
651.65	30.84
651.838	30.99
652.027	31.22
652.216	31.13
652.404	31.36
652.593	31.66
652.781	32
652.97	31.4
653.158	30.97
653.347	30.93
653.535	30.75
653.724	30.89
653.912	30.5
654.101	30.39
654.289	30.63
654.478	30.49
654.666	30.54
654.855	30.99
655.043	31.1
655.231	31
655.42	31.25
655.608	31.49
655.796	31.8
655.985	32.11
656.173	31.53
656.361	31.42
656.55	31.57
656.738	31.28
656.926	31.81
657.114	32.28
657.302	32.52
657.491	32.45
657.679	32.59
657.867	32.27
658.055	32.3
658.243	32.66
658.431	32.46
658.619	32.43
658.807	32.38
658.996	32.07
659.184	31.74
659.372	31.74
659.56	31.59
659.748	31.65
659.936	31.82
660.124	31.35
660.311	31.55
660.499	31.71
660.687	31.61
660.875	31.81
661.063	31.96
661.251	31.98
661.439	32.06
661.627	31.84
661.814	31.27
662.002	31.08
662.19	30.92
662.378	30.68
662.565	30.23
662.753	30.02
662.941	29.81
663.129	29.57
663.316	29.43
663.504	29.19
663.692	29.55
663.879	30.01
664.067	30
664.254	30.46
664.442	30.43
664.63	31.29
664.817	31.54
665.005	31.91
665.192	32.17
665.38	32.75
665.567	33.12
665.755	32.96
665.942	32.69
666.13	32.84
666.317	33.14
666.504	33.46
666.692	33.01
666.879	32.93
667.067	32.31
667.254	31.86
667.441	32.06
667.629	32.11
667.816	32.52
668.003	32.81
668.19	33.16
668.378	32.75
668.565	32.64
668.752	32.71
668.939	32.69
669.127	32.64
669.314	32.96
669.501	32.16
669.688	31.83
669.875	31.72
670.062	31.58
670.249	31.26
670.436	31.24
670.623	31.43
670.81	31.19
670.997	31.52
671.184	32.27
671.371	32.28
671.558	33.18
671.745	33.17
671.932	33.19
672.119	33.41
672.306	33.24
672.493	33.21
672.68	33.05
672.867	33.62
673.054	33.09
673.24	32.66
673.427	32.28
673.614	31.67
673.801	31.89
673.988	31.94
674.174	31.93
674.361	32.14
674.548	32.01
674.734	31.68
674.921	31.25
675.108	31.43
675.294	31.78
675.481	31.92
675.668	31.97
675.854	32.34
676.041	32.38
676.227	32.08
676.414	31.65
676.601	31.96
676.787	31.99
676.974	32.11
677.16	32.4
677.347	32.63
677.533	32.66
677.719	33.01
677.906	32.71
678.092	32.41
678.279	32.34
678.465	32.67
678.651	33.08
678.838	33.46
679.024	33.73
679.21	33.77
679.397	33.19
679.583	32.96
679.769	32.82
679.955	32.12
680.142	32.18
680.328	32.48
680.514	32.41
680.7	32.19
680.886	31.84
681.073	31.89
681.259	31.32
681.445	31.36
681.631	31.66
681.817	31.26
682.003	31.78
682.189	32.1
682.375	31.89
682.561	32.04
682.747	32.17
682.933	32.4
683.119	32.31
683.305	32.69
683.491	33.1
683.677	33.29
683.863	33.34
684.049	33.43
684.235	33.54
684.42	33.7
684.606	34.15
684.792	33.69
684.978	33.54
685.164	33.5
685.349	33.32
685.535	33.23
685.721	32.68
685.907	32.56
686.092	32.38
686.278	31.84
686.464	31.79
686.649	31.29
686.835	31.7
687.021	32.06
687.206	32.16
687.392	32.07
687.577	32.08
687.763	32.16
687.948	32.35
688.134	32.84
688.319	32.77
688.505	32.87
688.69	33.19
688.876	32.77
689.061	32.64
689.247	32.64
689.432	33.16
689.618	33.11
689.803	33.71
689.988	34.31
690.174	34.17
690.359	34.67
690.544	34.13
690.73	33.63
690.915	34.3
691.1	33.77
691.285	33.65
691.471	33.58
691.656	33.44
691.841	32.84
692.026	31.97
692.211	32.38
692.396	32.12
692.582	32.51
692.767	32.21
692.952	31.74
693.137	32.38
693.322	32.04
693.507	32.02
693.692	32.44
693.877	32.95
694.062	33.81
694.247	33.05
694.432	33.7
694.617	33.94
694.802	34.86
694.987	34.82
695.172	34.6
695.357	35.54
695.541	35.73
695.726	35.56
695.911	35.5
696.096	35.43
696.281	35.51
696.466	34.78
696.65	34.31
696.835	33.86
697.02	34.1
697.204	33.73
697.389	33.72
697.574	32.97
697.759	33.17
697.943	32.64
698.128	32.61
698.312	32.73
698.497	33
698.682	33.21
698.866	33.56
699.051	33.54
699.235	33.93
699.42	33.56
699.604	34.36
699.789	34.15
699.973	34.92
700.158	34.87
700.342	34.66
700.527	34.32
700.711	33.93
700.895	33.67
701.08	33.73
701.264	33.59
701.448	33.74
701.633	33.05
701.817	32.97
702.001	32.38
702.186	32.25
702.37	32.09
702.554	32.15
702.738	32.7
702.923	32.3
703.107	31.73
703.291	31.56
703.475	31.11
703.659	31
703.843	30.83
704.027	30.13
704.212	29.86
704.396	30.58
704.58	30.65
704.764	30.66
704.948	30.97
705.132	31.47
705.316	31.97
705.5	32
705.684	31.6
705.868	31.26
706.052	31.78
706.235	31.93
706.419	31.83
706.603	31.87
706.787	31.67
706.971	31.56
707.155	31.83
707.339	31.99
707.522	31.95
707.706	32.52
707.89	32.78
708.074	32.64
708.257	32.81
708.441	32.56
708.625	32.04
708.808	32.27
708.992	32.54
709.176	31.8
709.359	31.26
709.543	31.58
709.727	31.22
709.91	31.35
710.094	32.19
710.277	31.85
710.461	31.63
710.644	32.3
710.828	31.66
711.011	32.41
711.195	32.57
711.378	32.81
711.562	32.9
711.745	33.96
711.928	33.76
712.112	32.88
712.295	33.45
712.478	34.56
712.662	34.39
712.845	34.41
713.028	33.16
713.212	33.14
713.395	33.69
713.578	33.67
713.761	33.06
713.945	33.7
714.128	34.54
714.311	33.88
714.494	33.45
714.677	33.07
714.86	33.66
715.043	34.25
715.227	34.46
715.41	33.86
715.593	33.73
715.776	33.73
715.959	33.28
716.142	32.86
716.325	32.96
716.508	32.51
716.691	33.16
716.874	32.94
717.057	32.25
717.239	33.12
717.422	33.43
717.605	34.07
717.788	33.71
717.971	34.12
718.154	34.2
718.337	34.85
718.519	35.45
718.702	35.49
718.885	35.81
719.068	36.66
719.25	35.46
719.433	34.37
719.616	33.16
719.798	33.83
719.981	34.41
720.164	33.73
720.346	33.19
720.529	33.44
720.712	34.17
720.894	34.34
721.077	33.84
721.259	35.02
721.442	36.37
721.624	36.45
721.807	35.85
721.989	34.54
722.172	35.4
722.354	36.01
722.537	35.2
722.719	35.6
722.901	35.22
723.084	35.59
723.266	34.54
723.448	34.22
723.631	35.02
723.813	34.91
723.995	36.33
724.178	36.58
724.36	35.86
724.542	34.93
724.724	34.06
724.907	34.16
725.089	33.48
725.271	34.31
725.453	34.17
725.635	33.96
725.817	34.63
725.999	34.21
726.181	33.89
726.364	34.76
726.546	34.98
726.728	34.02
726.91	35.07
727.092	35.63
727.274	35.06
727.456	34.87
727.638	34.36
727.819	33.85
728.001	33.63
728.183	33.78
728.365	33.55
728.547	34.51
728.729	35.8
728.911	34.77
729.093	34.33
729.274	35.06
729.456	35.84
729.638	36.37
729.82	37.16
730.001	37.41
730.183	36.61
730.365	36.71
730.546	36.86
730.728	35.76
730.91	36.59
731.091	37.24
731.273	37.09
731.455	36.25
731.636	35.62
731.818	34.48
731.999	33.88
732.181	34.73
732.362	34.1
732.544	34.51
732.725	34.6
732.907	33.95
733.088	33.8
733.27	33.62
733.451	33.55
733.633	34.76
733.814	35.08
733.995	35.11
734.177	35.28
734.358	35.82
734.539	34.01
734.721	35.56
734.902	35.99
735.083	36.12
735.264	34.84
735.446	35.74
735.627	35.13
735.808	35.7
735.989	35.11
736.17	34.03
736.351	34.29
736.533	35.3
736.714	33.49
736.895	32.59
737.076	31.81
737.257	32.49
737.438	32.32
737.619	31.22
737.8	31
737.981	31.58
738.162	31.64
738.343	31.11
738.524	31.71
738.705	31.44
738.886	32.14
739.067	33.74
739.247	33.57
739.428	34.18
739.609	35.25
739.79	35.51
739.971	35.38
740.151	37.06
740.332	36.53
740.513	36.59
740.694	37.19
740.874	37.54
741.055	36.61
741.236	37.01
741.417	36.21
741.597	37.67
741.778	37.2
741.958	36.84
742.139	34.87
742.32	36.54
742.5	36.14
742.681	37.11
742.861	36.46
743.042	36.45
743.222	35.77
743.403	35.69
743.583	33.79
743.764	34.8
743.944	35.57
744.124	35.61
744.305	34.01
744.485	33.91
744.666	33.15
744.846	34.04
745.026	33.42
745.207	34.67
745.387	33.98
745.567	33.68
745.747	33.83
745.928	33.27
746.108	34.35
746.288	34.14
746.468	34.94
746.648	34.28
746.829	34.66
747.009	35.85
747.189	36.51
747.369	35.89
747.549	36.06
747.729	34.76
747.909	34.69
748.089	34.92
748.269	35.63
748.449	34.81
748.629	35.2
748.809	33.98
748.989	32.9
749.169	31.87
749.349	32.23
749.529	32.42
749.709	33.61
749.889	34.41
750.068	34.3
750.248	34.15
750.428	33.52
750.608	33.65
750.788	34.94
750.967	35.47
751.147	35.16
751.327	35.65
751.507	35.88
751.686	35.74
751.866	34.88
752.046	34.55
752.225	34.19
752.405	35.65
752.585	36.93
752.764	35.56
752.944	34.08
753.123	34
753.303	34.16
753.482	34.47
753.662	32.62
753.841	34.13
754.021	33.41
754.2	34.2
754.38	33.33
754.559	32.81
754.739	32.75
754.918	33.64
755.097	33.45
755.277	33.63
755.456	33.01
755.635	34.6
755.815	32.88
755.994	34.41
756.173	33.41
756.352	33.71
756.532	33.01
756.711	32.71
756.89	34.22
757.069	35.94
757.248	36.46
757.427	36.58
757.607	37.69
757.786	38.51
757.965	38.44
758.144	37.87
758.323	38.17
758.502	38.66
758.681	38.62
758.86	39.12
759.039	39.27
759.218	38.74
759.397	38.23
759.576	36.95
759.755	37.97
759.934	37.84
760.113	38.98
760.291	38.03
760.47	36.24
760.649	36.64
760.828	34.97
761.007	35.13
761.186	35.7
761.364	35.81
761.543	36.58
761.722	35.09
761.901	34.54
762.079	34.95
762.258	35.76
762.437	36.64
762.615	37
762.794	37.98
762.972	36.61
763.151	36.37
763.33	37.46
763.508	36.42
763.687	36.85
763.865	36.32
764.044	36.22
764.222	36.03
764.401	35.66
764.579	35.15
764.758	35.39
764.936	36.32
765.114	36.86
765.293	36.53
765.471	37.21
765.65	37.66
765.828	38.74
766.006	38.22
766.184	38.12
766.363	38.62
766.541	39.08
766.719	39
766.898	37.2
767.076	35.3
767.254	34.92
767.432	34.92
767.61	34.27
767.788	33.98
767.967	36.01
768.145	35.39
768.323	34.68
768.501	34.77
768.679	33.43
768.857	35.98
769.035	38.69
769.213	38.66
769.391	39.02
769.569	37.98
769.747	38.77
769.925	38.8
770.103	40.65
770.281	42.13
770.459	42.39
770.636	42.76
770.814	41.44
770.992	41.82
771.17	42.37
771.348	41.12
771.525	41.22
771.703	39.07
771.881	36.93
772.059	36.13
772.236	35.99
772.414	35.77
772.592	34.82
772.769	33.97
772.947	29.77
773.125	28.06
773.302	28.63
773.48	29.97
773.657	29.17
773.835	30.56
774.013	30.22
774.19	29.82
774.368	32.33
774.545	32.2
774.723	32.77
774.9	34.18
775.077	35.61
775.255	34.44
775.432	34.43
775.61	38.03
775.787	38.61
775.964	36.72
776.142	35.6
776.319	31.99
776.496	32.64
776.674	33.4
776.851	34.31
777.028	36.46
777.205	37.44
777.382	37.11
777.56	35.6
777.737	33.35
777.914	35.16
778.091	36.64
778.268	37.76
778.445	39.28
778.622	36.98
778.8	37.34
778.977	34.3
779.154	35.87
779.331	36.98
779.508	34.76
779.685	34.55
779.862	33.45
780.038	33.72
780.215	34.29
780.392	33.66
780.569	37.47
780.746	35.88
780.923	36.5
781.1	35.11
781.277	34.97
781.453	36.23
781.63	38.62
781.807	39.06
781.984	37.66
782.16	37.6
782.337	35.97
782.514	33.47
782.691	33.48
782.867	31.58
783.044	29.93
783.221	30.17
783.397	31.04
783.574	31.46
783.75	30.84
783.927	31.94
784.103	29.41
784.28	30.98
784.456	32.57
784.633	35.25
784.809	35.75
784.986	36.05
785.162	35.36
785.339	37.68
785.515	35.37
785.692	37.44
785.868	37.45
786.044	40.31
786.221	40.16
786.397	37.97
786.573	35.63
786.749	37.79
786.926	37.36
787.102	36.73
787.278	32.83
787.454	33.76
787.631	33.17
787.807	32.06
787.983	30.53
788.159	28.29
788.335	31.42
788.511	31.58
788.687	30.51
788.863	33.35
789.039	33.47
789.216	34.59
789.392	35.61
789.568	35.89
789.744	37.13
789.919	36.41
790.095	38.13
790.271	36.44
790.447	34.8
790.623	34.29
790.799	36.81
790.975	36.87
791.151	39.28
791.327	38.91
791.502	37.18
791.678	36.59
791.854	36.55
792.03	37.86
792.205	37.73
792.381	40.69
792.557	42.53
792.733	38.91
792.908	38.21
793.084	34.66
793.259	33.3
793.435	35.23
793.611	39.56
793.786	41.42
793.962	38.75
794.137	37.85
794.313	38.87
794.488	40.15
794.664	40.73
794.839	42.97
795.015	45.12
795.19	42.71
795.366	43.25
795.541	39.09
795.716	38.45
795.892	40.8
796.067	39.94
796.242	38.3
796.418	34.1
796.593	33.6
796.768	32.96
796.944	33.68
797.119	37.69
797.294	37.67
797.469	37.14
797.644	38.92
797.82	38.89
797.995	42.9
798.17	44.56
798.345	46.55
798.52	45.75
798.695	44.82
798.87	43.28
799.045	43.14
799.22	41.8
799.395	43.31
799.57	42.26
799.745	39.72
799.92	39.25
800.095	36.11
800.27	37.8
800.445	38.73
800.62	39.75
800.795	38.21
800.97	38.02
801.145	39.09
801.319	37.2
801.494	37.14
801.669	38.52
801.844	36.61
802.018	41.02
802.193	37.91
802.368	38.86
802.543	40.11
802.717	38.2
802.892	39.08
803.067	38.87
803.241	37.83
803.416	36.99
803.59	37.67
803.765	36.97
803.94	34.79
804.114	37.41
804.289	36.33
804.463	34.31
804.638	41.29
804.812	37.66
804.986	35.34
805.161	38.14
805.335	38.1
805.51	39.34
805.684	42.35
805.858	41.66
806.033	40.54
806.207	40.26
806.381	40.93
806.556	41.56
806.73	41.56
806.904	43.21
807.078	42.19
807.253	42.98
807.427	43.38
807.601	38.77
807.775	40.42
807.949	39.18
808.123	38.11
808.298	38.03
808.472	36.37
808.646	35.76
808.82	36.77
808.994	36.35
809.168	33.9
809.342	35.02
809.516	35.81
809.69	35
809.864	34.06
810.038	36.8
810.212	33.79
810.385	32.82
810.559	35.7
810.733	38.08
810.907	42.34
811.081	43.19
811.255	42.23
811.428	38.41
811.602	38.42
811.776	43.32
811.95	42.34
812.123	46.23
812.297	41.36
812.471	41.29
812.644	37.58
812.818	33.9
812.992	37.07
813.165	38.98
813.339	46.95
813.512	49.81
813.686	48.81
813.86	47.76
814.033	46.44
814.207	50
814.38	47.62
814.554	53.83
814.727	56.8
814.9	55.76
815.074	49.33
815.247	44.32
815.421	39.76
815.594	38.99
815.767	37.16
815.941	37.4
816.114	36.75
816.287	40.73
816.46	32.23
816.634	28.9
816.807	26.24
816.98	29.43
817.153	31.7
817.327	35.32
817.5	35.95
817.673	35.3
817.846	35.39
818.019	40.04
818.192	37.23
818.365	40.05
818.538	36.81
818.711	39.57
818.884	35.63
819.057	34.11
819.23	32.54
819.403	34.76
819.576	40.07
819.749	40.13
819.922	39.81
820.095	42.48
820.268	40.38
820.441	44.04
820.614	41.03
820.786	43.18
820.959	43.21
821.132	44.17
821.305	42.75
821.477	41.87
821.65	42.13
821.823	39.22
821.996	39.6
822.168	39.56
822.341	38.96
822.514	38.93
822.686	38.79
822.859	39.37
823.031	39.28
823.204	38.59
823.376	38.11
823.549	38.12
823.722	39.28
823.894	38.22
824.067	38.98
824.239	38.72
824.411	39.48
824.584	39.71
824.756	38.91
824.929	37.63
825.101	37.16
825.273	37.75
825.446	36.62
825.618	35.84
825.79	36.56
825.963	35.55
826.135	35.76
826.307	35.11
826.479	35.39
826.652	35.6
826.824	37.28
826.996	38.88
827.168	38.96
827.34	38.5
827.512	39.67
827.684	38.13
827.856	38.56
828.029	37.82
828.201	37.43
828.373	37.4
828.545	37.38
828.717	36.57
828.889	36.34
829.061	36.17
829.232	37.59
829.404	34.62
829.576	34.33
829.748	33.96
829.92	34.81
830.092	37.59
830.264	34.93
830.436	34.78
830.607	36.33
830.779	37.3
830.951	37.61
831.123	36.15
831.294	38.02
831.466	41.9
831.638	41.48
831.809	44.43
831.981	39.91
832.153	43.46
832.324	42.84
832.496	42.53
832.667	38.97
832.839	37.63
833.011	37.74
833.182	41.18
833.354	38.33
833.525	35.3
833.697	37.01
833.868	38.78
834.039	38.31
834.211	41.34
834.382	41.22
834.554	41.83
834.725	43.46
834.896	44.97
835.068	43.3
835.239	45.16
835.41	46.87
835.581	44.24
835.753	43.83
835.924	42.38
836.095	40.11
836.266	37.88
836.438	39.56
836.609	39.3
836.78	38.18
836.951	37.26
837.122	33.49
837.293	33.67
837.464	33.88
837.635	32.25
837.806	36.68
837.977	38.12
838.148	41.57
838.319	37.86
838.49	31.92
838.661	33.99
838.832	39.8
839.003	43.31
839.174	45.04
839.345	45.05
839.516	46.47
839.687	44.22
839.857	45.77
840.028	43.91
840.199	47.38
840.37	54.65
840.54	52.54
840.711	49.8
840.882	35.66
841.053	26.83
841.223	20.88
841.394	23.23
841.564	14.94
841.735	14.77
841.906	19.41
842.076	22.92
842.247	14.16
842.417	18.92
842.588	20.05
842.758	32.94
842.929	42.48
843.099	52.06
843.27	56.17
843.44	54.32
843.611	53.93
843.781	42.25
843.951	31.57
844.122	33.93
844.292	31.73
844.462	19.97
844.633	21.8
844.803	24.9
844.973	17.37
845.144	4.85
845.314	39.28
845.484	39.33
845.654	54.36
845.824	68.79
845.995	75.89
846.165	66.06
846.335	71.13
846.505	73.46
846.675	66.51
846.845	71.42
847.015	68.22
847.185	71.39
847.355	70.2
847.525	66.83
847.695	66.76
847.865	65.05
848.035	69.44
848.205	71.96
848.375	70.1
848.545	71.19
848.715	68.55
848.884	64.02
849.054	50.87
849.224	42.21
849.394	49.57
849.564	46.65
849.733	49.95
849.903	29.92
850.073	37.85
850.243	36.36
850.412	48.94
850.582	44.46
850.752	43.79
850.921	50.12
851.091	61.1
851.26	57.25
851.43	63.06
851.599	63.83
851.769	71.83
851.939	65.45
852.108	70.35
852.278	67.83
852.447	72.69
852.616	102.32
852.786	99.85
852.955	82.88
853.125	86.39
853.294	85.35
853.463	77.51
853.633	95.57
853.802	97.73
853.971	92.58
854.141	87.75
854.31	84.23
854.479	64.4
854.648	72.18
854.818	72.98
854.987	65.39
855.156	51.54
855.325	52.75
855.494	44.65
855.663	44.25
855.832	48.51
856.001	47.91
856.171	46.48
856.34	39.34
856.509	39.76
856.678	32.23
856.847	35.7
857.016	38.24
857.185	62.02
857.353	75.72
857.522	76.92
857.691	76.13
857.86	89.94
858.029	95.09
858.198	110.38
858.367	84.22
858.535	81.56
858.704	76.41
858.873	67.47
859.042	55.16
859.21	46.67
859.379	54.55
859.548	49.34
859.717	41.29
859.885	46.4
860.054	46.02
860.222	51.29
860.391	47.03
860.56	50.78
860.728	69.5
860.897	69.25
861.065	75.63
861.234	77.23
861.402	78.14
861.571	72.22
861.739	75.05
861.908	61.3
862.076	59.37
862.244	69.41
862.413	78.55
862.581	58.22
862.749	61.24
862.918	58.2
863.086	29.11
863.254	34.09
863.423	41.86
863.591	32.87
863.759	28.76
863.927	39.9
864.096	21.86
864.264	22.39
864.432	30.84
864.6	29.93
864.768	24.5
864.936	40.19
865.104	35.38
865.272	19.76
865.44	27.63
865.608	34.75
865.776	23.88
865.944	35.43
866.112	26.16
866.28	27.95
866.448	23.23
866.616	19.11
866.784	3.34
866.952	4.71
867.12	17.88
867.288	16.81
867.455	22.17
867.623	3.05
867.791	30.3
867.959	35.55
868.127	43.72
868.294	43.83
868.462	43.55
868.63	50.18
868.797	50.12
868.965	50.55
869.133	47.01
869.3	51.6
869.468	66.97
869.636	62.9
869.803	61.66
869.971	52.51
870.138	41.31
870.306	67.4
870.473	58.5
870.641	96.25
870.808	119.04
870.975	128.03
871.143	85.26
871.31	74.45
871.478	59.4
871.645	57.44
871.812	59.38
871.98	73.75
872.147	60.69
872.314	65.14
872.482	43.13
872.649	44.25
872.816	43.76
872.983	37.33
873.15	43.74
873.318	34.94
873.485	36.95
873.652	47.2
873.819	50.18
873.986	54.69
874.153	65.99
874.32	74.96
874.487	73.5
874.654	71.72
874.821	86.13
874.988	74.57
875.155	98.89
875.322	95.11
875.489	83.67
875.656	70.36
875.823	63.25
875.99	47.87
876.157	40.16
876.324	37.77
876.49	30.36
876.657	-0.62
876.824	-6.39
876.991	9.03
877.157	31.04
877.324	8.21
877.491	31.11
877.658	49.56
877.824	52.12
877.991	67.57
878.157	68.63
878.324	83.21
878.491	104.75
878.657	100.56
878.824	87.48
878.99	88.03
879.157	79.05
879.323	74.15
879.49	73.55
879.656	71.38
879.823	46.85
879.989	57.63
880.156	65.06
880.322	66.53
880.488	65.11
880.655	46.63
880.821	57.25
880.987	78.85
881.154	70.61
881.32	55.19
881.486	42.5
881.652	46.43
881.819	39.1
881.985	32.58
882.151	28.4
882.317	28.61
882.483	33.22
882.649	29.96
882.816	25.33
882.982	22.13
883.148	26.81
883.314	32.19
883.48	33.23
883.646	34.16
883.812	34.73
883.978	35.63
884.144	36.86
884.31	38.79
884.476	38.24
884.642	39.1
884.807	43.51
884.973	45.3
885.139	44.62
885.305	42.89
885.471	43.78
885.637	43.08
885.802	47.78
885.968	48.08
886.134	45.53
886.3	44.5
886.465	46.12
886.631	42.21
886.797	40.2
886.962	38.41
887.128	42.89
887.293	41.83
887.459	45.79
887.625	31.85
887.79	29.84
887.956	35.97
888.121	38.22
888.287	37.38
888.452	38.82
888.618	33.66
888.783	35.82
