Data from 2937858_Reflection_2.txt Node
Date: Wed Jul 15 15:33:07 EDT 2015
User: robert
Spectrometer: USB4E03001
Autoset integration time: false
Trigger mode: 4
Integration Time (sec): 1.000000E-1
Scans to average: 10
Electric dark correction enabled: true
Nonlinearity correction enabled: false
Boxcar width: 5
Stray light correction enabled: false
XAxis mode: Wavelengths
Stop averaging: false
Number of Pixels in Spectrum: 3648
>>>>>Begin Spectral Data<<<<<
177.566	47.15
177.785	28.22
178.005	86.78
178.225	125.56
178.445	22.48
178.665	115.36
178.885	-3460
179.105	277.92
179.324	80.83
179.544	129.67
179.764	96.3
179.984	128.69
180.204	107.84
180.423	141.86
180.643	120.84
180.863	94.22
181.083	125.99
181.302	138.36
181.522	107.45
181.742	99.35
181.961	109.74
182.181	146.74
182.401	123.39
182.621	105.75
182.84	141.25
183.06	143.28
183.279	158.74
183.499	121.95
183.719	140.95
183.938	177.31
184.158	146.98
184.377	135.4
184.597	81.06
184.816	102.41
185.036	121.05
185.256	131.5
185.475	174.31
185.695	81.93
185.914	194.27
186.134	43.57
186.353	1.29
186.572	-11.51
186.792	-12.33
187.011	-20.98
187.231	-57.83
187.45	-16.74
187.67	-35.18
187.889	-19.83
188.108	-19.53
188.328	16.89
188.547	46.09
188.766	63.1
188.986	76.62
189.205	95.17
189.424	99.09
189.644	157.18
189.863	137.26
190.082	121.03
190.302	210.23
190.521	-17.02
190.74	-63.93
190.959	-125.58
191.178	-110.96
191.398	-195.91
191.617	-278.2
191.836	-171.76
192.055	-114.16
192.274	-67.09
192.494	-15.21
192.713	-50.68
192.932	-61.44
193.151	-121.75
193.37	-129.59
193.589	-4263.64
193.808	-672.07
194.027	-1081.7
194.246	-484.77
194.465	-132.42
194.685	-236.18
194.904	-96.39
195.123	-5.76
195.342	27.39
195.561	94.24
195.78	44.76
195.999	44.4
196.218	58.21
196.436	76.93
196.655	89.57
196.874	76.33
197.093	85.42
197.312	92.72
197.531	123.52
197.75	118.22
197.969	82.51
198.188	103.98
198.407	121.26
198.625	119.62
198.844	137.38
199.063	132.22
199.282	162.92
199.501	97.38
199.719	96.24
199.938	36.1
200.157	27.36
200.376	51.32
200.594	29.92
200.813	-19.84
201.032	14.73
201.251	14.29
201.469	25.79
201.688	-5.1
201.907	-8.51
202.125	0.55
202.344	12.01
202.563	9.06
202.781	-342.73
203	-100.95
203.218	-49.55
203.437	2910
203.656	1341.91
203.874	-414.71
204.093	-230.18
204.311	-22.92
204.53	23.49
204.748	5.55
204.967	-14.66
205.185	13.18
205.404	11.29
205.622	33.83
205.841	13.12
206.059	40.08
206.278	39.6
206.496	46.65
206.715	40.25
206.933	42.2
207.151	46.7
207.37	50.95
207.588	50.62
207.806	39.94
208.025	36.02
208.243	35.03
208.461	48.88
208.68	63.73
208.898	54.83
209.116	57.38
209.335	50.52
209.553	43.92
209.771	54.43
209.989	44.27
210.208	29.85
210.426	5.63
210.644	-31.55
210.862	-9.54
211.081	-71.2
211.299	-59.46
211.517	-12.64
211.735	-1.53
211.953	-3.9
212.171	2.86
212.39	1.23
212.608	0.4
212.826	0.76
213.044	14.04
213.262	0.46
213.48	7.03
213.698	11.72
213.916	0.77
214.134	4.73
214.352	30.22
214.57	33.5
214.788	34.8
215.006	45.23
215.224	58.05
215.442	59.84
215.66	36.57
215.878	62.97
216.096	65.39
216.314	71.85
216.532	58.8
216.75	37.42
216.968	14.23
217.185	14.78
217.403	11.48
217.621	-19.3
217.839	-59.05
218.057	-25.93
218.275	-35.83
218.492	-37.09
218.71	-103
218.928	-289.51
219.146	-168.14
219.363	-92.7
219.581	-27.29
219.799	-7.83
220.017	3.84
220.234	0.27
220.452	-0.55
220.67	-5.63
220.887	-3.73
221.105	7.12
221.323	2.39
221.54	9.57
221.758	-14.41
221.976	-45.79
222.193	-30.09
222.411	-17.95
222.629	-7.3
222.846	-0.51
223.064	6.32
223.281	-2.5
223.499	-7.67
223.716	10.33
223.934	2.56
224.151	16.84
224.369	16.1
224.586	7.98
224.804	3.33
225.021	21.86
225.239	10.63
225.456	18.6
225.674	32.71
225.891	36.72
226.108	35.21
226.326	25.63
226.543	10.64
226.76	22.4
226.978	18.63
227.195	22.05
227.413	10.37
227.63	9.21
227.847	7.87
228.064	4.87
228.282	1.93
228.499	-0.04
228.716	3.63
228.934	8.63
229.151	9.1
229.368	11.12
229.585	12.3
229.802	12.57
230.02	15.38
230.237	12.26
230.454	12.66
230.671	12.25
230.888	13.64
231.105	13.84
231.323	9.05
231.54	3.75
231.757	0.45
231.974	-5.28
232.191	-4.58
232.408	-9.65
232.625	-4.24
232.842	0.14
233.059	3.99
233.276	2.25
233.493	7.05
233.71	13.54
233.927	14.32
234.144	12.51
234.361	14.51
234.578	15.46
234.795	17.1
235.012	15.27
235.229	13.34
235.446	14.13
235.663	15.78
235.879	14.46
236.096	13.55
236.313	15.97
236.53	14.97
236.747	19.07
236.964	19.8
237.181	16.57
237.397	18.92
237.614	17.33
237.831	16.15
238.048	14.8
238.264	11.32
238.481	12.58
238.698	15.18
238.915	17.76
239.131	13.61
239.348	13.94
239.565	15.43
239.781	16.07
239.998	15.51
240.215	13.08
240.431	14.84
240.648	15.54
240.865	17.1
241.081	15.21
241.298	15.53
241.514	14.1
241.731	14.75
241.947	15.74
242.164	14.24
242.38	13.09
242.597	13.93
242.814	13.25
243.03	13.31
243.246	13.02
243.463	13.11
243.679	12.88
243.896	14.01
244.112	14.39
244.329	12.51
244.545	14.79
244.762	16.07
244.978	15.25
245.194	15.34
245.411	15.39
245.627	12.3
245.843	13.16
246.06	14.21
246.276	13.98
246.492	13.69
246.709	13.74
246.925	12.47
247.141	12.55
247.357	13
247.574	12.65
247.79	12.51
248.006	13.86
248.222	13.36
248.439	12.3
248.655	11.55
248.871	11.74
249.087	11.28
249.303	10.92
249.519	10.43
249.736	10.92
249.952	11.46
250.168	12.56
250.384	11.42
250.6	10.57
250.816	10.26
251.032	10.57
251.248	6.7
251.464	8.19
251.68	8.36
251.896	7.15
252.112	5.82
252.328	6.59
252.544	6.83
252.76	7.14
252.976	8.19
253.192	9.9
253.408	10.53
253.624	11.1
253.84	11.09
254.056	11.81
254.272	13.71
254.487	16.76
254.703	13.99
254.919	10.83
255.135	11.2
255.351	9.72
255.567	8.97
255.782	6.48
255.998	5.01
256.214	5.91
256.43	7.66
256.646	8.61
256.861	7.06
257.077	7.98
257.293	9.66
257.508	8.23
257.724	8.96
257.94	7.97
258.155	8.04
258.371	8.88
258.587	8.63
258.802	8.72
259.018	6.65
259.234	7.05
259.449	8.16
259.665	7.14
259.88	8.22
260.096	8.94
260.312	9.63
260.527	9.82
260.743	9.83
260.958	9.64
261.174	9.03
261.389	10.45
261.605	10.19
261.82	8.86
262.036	10.25
262.251	8.74
262.466	7.22
262.682	7.38
262.897	7.69
263.113	9.64
263.328	9.14
263.543	10.17
263.759	9.46
263.974	9.48
264.189	9.28
264.405	8.77
264.62	9.96
264.835	10.2
265.051	7.89
265.266	8.65
265.481	7.67
265.696	8.91
265.912	8.32
266.127	8.58
266.342	8.4
266.557	8.96
266.773	10.02
266.988	9.58
267.203	10.64
267.418	11.38
267.633	10.67
267.848	9.82
268.064	9.18
268.279	9.53
268.494	9.96
268.709	11.95
268.924	12.71
269.139	12.21
269.354	11.92
269.569	12.16
269.784	10.74
269.999	10.84
270.214	11.3
270.429	11.26
270.644	11.62
270.859	9.88
271.074	9.09
271.289	8.02
271.504	7.65
271.719	7.76
271.934	6.83
272.149	7.73
272.363	6.98
272.578	6.74
272.793	6.64
273.008	5.94
273.223	6.63
273.438	6.19
273.653	7.2
273.867	7.82
274.082	8.54
274.297	8.63
274.512	9.39
274.726	9.84
274.941	10.37
275.156	11.6
275.371	11.68
275.585	11.97
275.8	10.94
276.015	11.72
276.229	11.01
276.444	10.34
276.659	10.57
276.873	10.17
277.088	10.54
277.302	7.73
277.517	5.68
277.732	6.18
277.946	5.9
278.161	6.73
278.375	7.15
278.59	6.91
278.804	6.49
279.019	7.2
279.233	8.44
279.448	8.59
279.662	10.03
279.877	11.43
280.091	11.4
280.306	11.65
280.52	11.05
280.735	9.58
280.949	9.28
281.163	10.12
281.378	9.87
281.592	8.49
281.806	8
282.021	9.02
282.235	9.02
282.449	8.57
282.664	7.63
282.878	8.4
283.092	8.15
283.307	8.07
283.521	7.26
283.735	5.81
283.949	5.72
284.164	6.73
284.378	5.95
284.592	6.02
284.806	6.48
285.02	8.21
285.234	7.79
285.449	8.11
285.663	8.69
285.877	9.55
286.091	10.66
286.305	11.12
286.519	11.16
286.733	12.27
286.947	12.45
287.161	12.11
287.375	12.06
287.589	12.34
287.803	12.58
288.017	13.14
288.231	12.95
288.445	12.13
288.659	12.31
288.873	10.87
289.087	9.89
289.301	10.43
289.515	11.34
289.729	10.84
289.943	9.45
290.157	10.27
290.371	9.87
290.584	9.22
290.798	9.35
291.012	8.42
291.226	9.49
291.44	9.29
291.654	9.27
291.867	8.14
292.081	8.27
292.295	10.21
292.509	9.29
292.722	9.05
292.936	10.17
293.15	9.67
293.364	11.51
293.577	10
293.791	10.86
294.005	10.89
294.218	10.7
294.432	10.83
294.645	10.34
294.859	10.34
295.073	10.5
295.286	11.41
295.5	12.95
295.713	11.73
295.927	13.28
296.14	13.17
296.354	11.97
296.568	12.06
296.781	12.08
296.994	12.15
297.208	12.42
297.421	11.81
297.635	10.96
297.848	10.68
298.062	10.32
298.275	8.99
298.489	9.1
298.702	10.03
298.915	10.04
299.129	9.49
299.342	9.73
299.555	10.27
299.769	10.96
299.982	11.37
300.195	11.64
300.409	12.23
300.622	13.06
300.835	13.38
301.048	13.09
301.262	13.12
301.475	14.31
301.688	13.58
301.901	12.97
302.115	12.82
302.328	13.02
302.541	12.16
302.754	12.19
302.967	12.66
303.18	11.35
303.393	10.7
303.607	9.74
303.82	8.4
304.033	9.6
304.246	9.02
304.459	8.5
304.672	8.3
304.885	9.07
305.098	8.86
305.311	8.95
305.524	10.33
305.737	10.31
305.95	10.44
306.163	11.6
306.376	11.98
306.589	12.95
306.802	13.9
307.015	13.49
307.228	12.24
307.44	11.22
307.653	10.54
307.866	11.34
308.079	11.4
308.292	12.21
308.505	11.13
308.718	9.07
308.93	9.34
309.143	9.45
309.356	9.02
309.569	9.03
309.781	9.61
309.994	10.53
310.207	9.72
310.42	10.28
310.632	11.06
310.845	11.71
311.058	12.54
311.27	12.53
311.483	12.74
311.696	13.07
311.908	12.98
312.121	13.36
312.333	12.85
312.546	11.92
312.759	11.07
312.971	9.88
313.184	8.78
313.396	8.38
313.609	8.26
313.821	7.79
314.034	8.59
314.246	9.46
314.459	10.21
314.671	9.63
314.884	11.52
315.096	12.03
315.309	11.83
315.521	12.35
315.733	13.24
315.946	12.14
316.158	12.77
316.371	12.76
316.583	12.66
316.795	11.23
317.008	12.69
317.22	13.18
317.432	11.78
317.644	13.07
317.857	13.55
318.069	14.3
318.281	14.21
318.494	13.95
318.706	13.03
318.918	12.85
319.13	12.66
319.342	10.63
319.555	9.94
319.767	11.62
319.979	11.43
320.191	11.77
320.403	8.52
320.615	9.57
320.827	8.25
321.039	8
321.252	9.13
321.464	9.27
321.676	12.05
321.888	12.24
322.1	12.09
322.312	10.54
322.524	9.91
322.736	10.68
322.948	10.93
323.16	11.49
323.372	12.48
323.584	11.28
323.796	10.62
324.007	8.8
324.219	7.14
324.431	6.6
324.643	8
324.855	8.44
325.067	9.45
325.279	8.98
325.491	9.25
325.702	9.63
325.914	10.52
326.126	12.45
326.338	13.09
326.55	13.28
326.761	14.38
326.973	14.39
327.185	14.49
327.396	14.46
327.608	13.58
327.82	13.97
328.032	12.89
328.243	12.92
328.455	11.05
328.666	10.65
328.878	10.65
329.09	10.01
329.301	9.76
329.513	10.25
329.725	10.8
329.936	11.56
330.148	11.35
330.359	11.69
330.571	11.63
330.782	11.95
330.994	12.77
331.205	13.3
331.417	12.67
331.628	12.77
331.84	12.51
332.051	11.48
332.262	10.82
332.474	11.24
332.685	11.97
332.897	12.6
333.108	15.28
333.319	13.62
333.531	14.53
333.742	14.89
333.953	15.24
334.165	15.14
334.376	15.93
334.587	16.46
334.799	16.32
335.01	16.22
335.221	15.14
335.432	14.41
335.644	14.85
335.855	13.65
336.066	14.57
336.277	13.46
336.488	13.51
336.7	14.01
336.911	14.66
337.122	15.18
337.333	14.5
337.544	14.94
337.755	13.93
337.966	14.99
338.177	15.7
338.388	15.75
338.599	17.48
338.811	17.87
339.022	17.74
339.233	17.47
339.444	16.58
339.655	16.91
339.866	17.2
340.076	16.89
340.287	16.85
340.498	16.23
340.709	15.24
340.92	13.98
341.131	14.44
341.342	14.57
341.553	13.66
341.764	13.54
341.975	13.48
342.185	13.2
342.396	13.21
342.607	12.34
342.818	13.4
343.029	14.02
343.239	15.27
343.45	14.87
343.661	14.13
343.872	14.79
344.082	14.58
344.293	14.42
344.504	13.74
344.714	14.25
344.925	15.58
345.136	14.95
345.346	15.25
345.557	14.55
345.768	14.32
345.978	14.32
346.189	15.04
346.399	15.8
346.61	15.97
346.821	16.93
347.031	17.31
347.242	16.82
347.452	17.4
347.663	17.14
347.873	17.23
348.084	16.25
348.294	16.05
348.504	16.64
348.715	15.82
348.925	15.31
349.136	15.38
349.346	14.94
349.557	14.09
349.767	13.3
349.977	13.83
350.188	14.29
350.398	14.4
350.608	14.7
350.819	13.62
351.029	13.43
351.239	13.58
351.449	13.73
351.66	13.91
351.87	13.98
352.08	14.92
352.29	14.44
352.501	13.55
352.711	14.25
352.921	14.55
353.131	14.57
353.341	14.32
353.552	14.74
353.762	14.06
353.972	14.59
354.182	14.04
354.392	13.35
354.602	13.55
354.812	13.13
355.022	12.77
355.232	12.37
355.442	12.12
355.652	12.24
355.862	11.7
356.072	11.15
356.282	10.28
356.492	10.67
356.702	10.57
356.912	9.81
357.122	10.84
357.332	10.62
357.542	11.23
357.752	11.41
357.962	12.16
358.171	12.4
358.381	12.76
358.591	13.31
358.801	13.21
359.011	13.92
359.221	13.95
359.43	13.84
359.64	14.03
359.85	13.87
360.06	14.22
360.269	14.14
360.479	14.24
360.689	14.48
360.899	14.08
361.108	14.14
361.318	14.59
361.528	15.02
361.737	14.6
361.947	14.81
362.156	15.2
362.366	14.45
362.576	15.11
362.785	14.69
362.995	14.85
363.204	15.14
363.414	15.66
363.623	14.89
363.833	14.76
364.042	14.72
364.252	14.41
364.461	13.45
364.671	12.98
364.88	12.3
365.09	12.95
365.299	12.96
365.509	13.14
365.718	12.89
365.927	12.99
366.137	12.94
366.346	12.85
366.555	13.9
366.765	13.77
366.974	14.66
367.183	14.4
367.393	14.2
367.602	13.85
367.811	14
368.021	14.3
368.23	13.89
368.439	14.28
368.648	13.86
368.857	12.99
369.067	13.49
369.276	13.42
369.485	12.44
369.694	11.82
369.903	11.63
370.112	11.31
370.321	10.51
370.531	11.14
370.74	10.77
370.949	11.17
371.158	10.52
371.367	10.17
371.576	10.16
371.785	10.56
371.994	10.99
372.203	10.92
372.412	10.49
372.621	10.66
372.83	10.25
373.039	9.8
373.248	9.83
373.457	10.1
373.666	9.73
373.874	10.04
374.083	10.62
374.292	11.06
374.501	10.55
374.71	9.95
374.919	9.52
375.128	9.59
375.336	10.17
375.545	9.91
375.754	9.92
375.963	9.75
376.171	9.93
376.38	10.03
376.589	9.65
376.798	9.66
377.006	9.81
377.215	9.41
377.424	9.6
377.632	9.48
377.841	9.52
378.05	9.42
378.258	9.72
378.467	9.33
378.675	9.06
378.884	9.36
379.093	10.09
379.301	10.56
379.51	11.37
379.718	11.03
379.927	10.79
380.135	11.32
380.344	11.35
380.552	11.26
380.761	11.49
380.969	11.19
381.177	10.71
381.386	10.68
381.594	10.29
381.803	10.67
382.011	11.11
382.219	11.15
382.428	10.12
382.636	9.58
382.845	9.71
383.053	9.67
383.261	9.86
383.469	10.1
383.678	9.42
383.886	9.58
384.094	9.1
384.302	8.31
384.511	8.55
384.719	9.13
384.927	9.65
385.135	10.11
385.343	10.03
385.552	9.94
385.76	9.49
385.968	9.84
386.176	9.4
386.384	9.5
386.592	10.01
386.8	9.98
387.008	9.75
387.216	10.15
387.424	9.84
387.633	9.21
387.841	9.07
388.049	9.46
388.257	9.34
388.465	9.31
388.672	9.33
388.88	8.91
389.088	8.51
389.296	8.61
389.504	8.12
389.712	7.8
389.92	8.11
390.128	8.44
390.336	8.38
390.544	8.8
390.751	9.23
390.959	8.99
391.167	9.38
391.375	9.28
391.583	9
391.79	9.05
391.998	8.97
392.206	9.06
392.414	8.67
392.621	8.63
392.829	8.47
393.037	8.55
393.244	8.78
393.452	8.38
393.66	8.74
393.867	8.83
394.075	8.74
394.283	8.95
394.49	8.83
394.698	8.86
394.905	8.86
395.113	8.65
395.32	8.55
395.528	8.39
395.735	8.54
395.943	8.38
396.15	8.84
396.358	9.12
396.565	8.89
396.773	8.93
396.98	9.2
397.188	9.05
397.395	9.03
397.602	9.04
397.81	8.76
398.017	9.02
398.225	8.9
398.432	8.62
398.639	8.48
398.847	8.41
399.054	8.51
399.261	8.18
399.468	8.16
399.676	8.11
399.883	8.14
400.09	7.89
400.297	7.82
400.505	7.71
400.712	7.53
400.919	7.59
401.126	7.75
401.333	7.7
401.54	7.82
401.748	7.9
401.955	7.99
402.162	8.08
402.369	8.13
402.576	8
402.783	7.98
402.99	8.05
403.197	7.63
403.404	7.68
403.611	7.69
403.818	7.55
404.025	7.5
404.232	7.54
404.439	7.32
404.646	7.57
404.853	7.55
405.06	7.48
405.267	7.45
405.474	7.94
405.681	8.01
405.887	8.03
406.094	8.06
406.301	8.16
406.508	8.08
406.715	8.14
406.922	8.42
407.128	8.26
407.335	8.34
407.542	8.09
407.749	7.68
407.955	7.49
408.162	7.24
408.369	7.44
408.575	7.67
408.782	7.6
408.989	7.49
409.195	7.31
409.402	7.55
409.609	7.72
409.815	8.39
410.022	8.41
410.228	8.56
410.435	8.68
410.642	8.6
410.848	8.71
411.055	8.92
411.261	9.01
411.468	8.92
411.674	8.69
411.881	8.59
412.087	8.33
412.294	8.29
412.5	8.45
412.706	8.72
412.913	8.9
413.119	8.78
413.326	8.73
413.532	8.49
413.738	8.54
413.945	9.03
414.151	9.17
414.357	9.3
414.564	9.49
414.77	9.23
414.976	8.71
415.182	8.54
415.389	8.4
415.595	8.52
415.801	8.64
416.007	8.67
416.214	8.16
416.42	8.07
416.626	7.46
416.832	7.19
417.038	7.23
417.244	7.21
417.45	7.32
417.657	7.13
417.863	6.89
418.069	6.88
418.275	6.88
418.481	7.01
418.687	7.09
418.893	7.56
419.099	7.72
419.305	7.85
419.511	7.99
419.717	7.99
419.923	8
420.129	8.08
420.335	8.05
420.541	8.02
420.746	8.05
420.952	7.91
421.158	7.61
421.364	7.6
421.57	7.4
421.776	7.45
421.982	7.27
422.187	7.21
422.393	7.11
422.599	7.12
422.805	7.01
423.01	6.97
423.216	7.05
423.422	7.15
423.628	7.16
423.833	7.2
424.039	7.18
424.245	7.22
424.45	7.44
424.656	7.57
424.862	7.56
425.067	7.79
425.273	7.77
425.478	7.87
425.684	7.93
425.889	8.07
426.095	8.08
426.301	8.08
426.506	8.1
426.712	7.9
426.917	7.92
427.123	8.02
427.328	7.91
427.533	8.02
427.739	7.92
427.944	8.02
428.15	8.01
428.355	8.15
428.561	8.22
428.766	8.18
428.971	8.44
429.177	8.52
429.382	8.42
429.587	8.2
429.793	8.06
429.998	8.01
430.203	7.72
430.408	7.66
430.614	7.66
430.819	7.61
431.024	7.52
431.229	7.13
431.434	7.02
431.64	7.17
431.845	7.3
432.05	7.28
432.255	7.31
432.46	7.5
432.665	7.23
432.87	7.07
433.076	7.17
433.281	7.31
433.486	7.69
433.691	7.62
433.896	7.7
434.101	7.79
434.306	7.96
434.511	7.81
434.716	7.79
434.921	7.94
435.126	7.99
435.331	7.89
435.535	7.98
435.74	7.79
435.945	7.93
436.15	7.74
436.355	7.58
436.56	7.33
436.765	7.52
436.97	7.5
437.174	7.57
437.379	7.79
437.584	7.68
437.789	7.54
437.993	7.45
438.198	7.09
438.403	7.02
438.608	7.13
438.812	7.22
439.017	7.16
439.222	7.12
439.426	7.07
439.631	7.03
439.836	7.06
440.04	7.22
440.245	7.29
440.45	7.45
440.654	7.52
440.859	7.57
441.063	7.67
441.268	7.62
441.472	7.58
441.677	7.53
441.881	7.38
442.086	7.37
442.29	7.37
442.495	7.27
442.699	7.25
442.904	7.2
443.108	7.2
443.312	7.2
443.517	7.31
443.721	7.37
443.925	7.37
444.13	7.39
444.334	7.48
444.538	7.52
444.743	7.6
444.947	7.47
445.151	7.45
445.356	7.26
445.56	7.1
445.764	7.04
445.968	7.11
446.173	7.04
446.377	7.01
446.581	6.92
446.785	6.88
446.989	6.96
447.193	7.08
447.398	7.15
447.602	7.31
447.806	7.33
448.01	7.39
448.214	7.37
448.418	7.55
448.622	7.6
448.826	7.64
449.03	7.52
449.234	7.48
449.438	7.64
449.642	7.5
449.846	7.37
450.05	7.45
450.254	7.27
450.458	7.38
450.662	7.31
450.866	7.27
451.069	7.41
451.273	7.29
451.477	7.3
451.681	6.99
451.885	7.14
452.089	7.09
452.292	7.01
452.496	7.29
452.7	7.17
452.904	7.05
453.107	7.14
453.311	6.97
453.515	7.01
453.719	6.98
453.922	7.28
454.126	7.21
454.33	7.27
454.533	7.45
454.737	7.22
454.94	7.15
455.144	7.18
455.348	7.14
455.551	7.31
455.755	7.17
455.958	6.97
456.162	6.64
456.365	6.52
456.569	6.68
456.772	6.58
456.976	6.55
457.179	6.8
457.383	6.87
457.586	6.63
457.79	6.66
457.993	7.06
458.196	7.09
458.4	7.3
458.603	7.34
458.807	7.36
459.01	7.33
459.213	7.4
459.417	7.28
459.62	7.2
459.823	7.35
460.026	7.21
460.23	7.15
460.433	7.23
460.636	7.21
460.839	7.26
461.042	7.21
461.246	7.25
461.449	7.26
461.652	7.11
461.855	7.23
462.058	7.25
462.261	7.43
462.464	7.43
462.668	7.38
462.871	7.41
463.074	7.59
463.277	7.37
463.48	7.21
463.683	7.12
463.886	7.16
464.089	7.14
464.292	7.31
464.495	7.19
464.698	7.26
464.901	7.54
465.104	7.35
465.306	7.23
465.509	7.29
465.712	7.53
465.915	7.59
466.118	7.87
466.321	7.86
466.524	7.66
466.726	7.72
466.929	7.55
467.132	7.3
467.335	7.13
467.538	7.05
467.74	6.96
467.943	6.81
468.146	6.76
468.348	6.57
468.551	6.58
468.754	6.59
468.956	6.6
469.159	6.77
469.362	6.83
469.564	7.24
469.767	7.1
469.969	7.42
470.172	7.47
470.375	7.51
470.577	7.6
470.78	7.72
470.982	7.64
471.185	7.55
471.387	7.35
471.59	7.32
471.792	7.13
471.995	7.42
472.197	7.37
472.399	7.26
472.602	7.42
472.804	7.34
473.007	7.08
473.209	7.21
473.411	7.45
473.614	7.68
473.816	7.79
474.018	7.76
474.22	7.79
474.423	7.64
474.625	7.91
474.827	7.92
475.03	8.08
475.232	8.22
475.434	8.17
475.636	7.93
475.838	7.59
476.04	7.54
476.243	7.62
476.445	7.38
476.647	7.26
476.849	7.14
477.051	7.17
477.253	6.86
477.455	6.95
477.657	6.9
477.859	6.84
478.061	7.05
478.263	7
478.465	7.02
478.667	7.17
478.869	7.35
479.071	7.31
479.273	7.14
479.475	7.3
479.677	7.31
479.879	7.32
480.081	7.44
480.283	7.27
480.485	7.35
480.686	7.35
480.888	7.33
481.09	7.32
481.292	7.4
481.494	7.44
481.695	7.44
481.897	7.34
482.099	7.37
482.301	7.32
482.502	7.42
482.704	7.27
482.906	7.25
483.107	7.14
483.309	7.15
483.511	7.01
483.712	6.95
483.914	6.92
484.115	6.92
484.317	6.92
484.519	6.93
484.72	6.88
484.922	6.96
485.123	6.92
485.325	6.92
485.526	6.91
485.728	7.03
485.929	7.11
486.131	7.14
486.332	7.15
486.534	7.16
486.735	7.21
486.936	7.25
487.138	7.15
487.339	7.16
487.541	7.24
487.742	7.22
487.943	7.17
488.144	7.17
488.346	7.16
488.547	7.15
488.748	7.12
488.95	7.08
489.151	7.08
489.352	7.12
489.553	7.13
489.755	7.19
489.956	7.18
490.157	7.34
490.358	7.41
490.559	7.41
490.76	7.4
490.961	7.44
491.163	7.45
491.364	7.43
491.565	7.48
491.766	7.45
491.967	7.42
492.168	7.43
492.369	7.28
492.57	7.18
492.771	7.22
492.972	7.26
493.173	7.25
493.374	7.25
493.575	7.25
493.776	7.2
493.976	7.26
494.177	7.17
494.378	7.19
494.579	7.31
494.78	7.28
494.981	7.16
495.182	7.23
495.382	7.17
495.583	7.2
495.784	7.3
495.985	7.23
496.185	7.29
496.386	7.27
496.587	7.33
496.788	7.25
496.988	7.28
497.189	7.37
497.39	7.3
497.59	7.43
497.791	7.32
497.992	7.19
498.192	7.32
498.393	7.24
498.593	7.36
498.794	7.27
498.994	7.36
499.195	7.34
499.395	7.25
499.596	7.41
499.796	7.27
499.997	7.35
500.197	7.49
500.398	7.45
500.598	7.51
500.799	7.56
500.999	7.67
501.199	7.67
501.4	7.86
501.6	8.01
501.801	7.81
502.001	7.9
502.201	7.89
502.402	7.64
502.602	7.63
502.802	7.57
503.002	7.58
503.203	7.49
503.403	7.47
503.603	7.29
503.803	7.33
504.003	7.34
504.204	7.33
504.404	7.19
504.604	7.34
504.804	7.42
505.004	7.46
505.204	7.4
505.404	7.32
505.604	7.42
505.804	7.33
506.005	7.2
506.205	7.4
506.405	7.39
506.605	7.7
506.805	7.75
507.005	7.74
507.204	7.85
507.404	7.99
507.604	8.11
507.804	8.01
508.004	8.07
508.204	8.17
508.404	8.17
508.604	8.08
508.804	7.96
509.003	8.18
509.203	8.18
509.403	8.23
509.603	8.16
509.803	8.17
510.002	8.26
510.202	8.44
510.402	8.58
510.602	8.53
510.801	8.6
511.001	8.45
511.201	8.33
511.4	8.27
511.6	8.27
511.8	8.26
511.999	8.3
512.199	8.2
512.398	8.1
512.598	8.01
512.797	8.02
512.997	7.95
513.197	8.11
513.396	8.17
513.596	8.24
513.795	8.25
513.994	8.29
514.194	8.22
514.393	8.32
514.593	8.5
514.792	8.45
514.992	8.5
515.191	8.65
515.39	8.71
515.59	8.68
515.789	8.68
515.988	8.72
516.188	8.83
516.387	8.92
516.586	8.96
516.786	8.87
516.985	8.9
517.184	8.86
517.383	8.92
517.582	8.87
517.782	8.95
517.981	9.05
518.18	9.03
518.379	8.95
518.578	8.96
518.777	9
518.976	9.03
519.176	9.08
519.375	9.08
519.574	9.01
519.773	9.05
519.972	9
520.171	9.08
520.37	9.12
520.569	9.27
520.768	9.26
520.967	9.38
521.166	9.42
521.365	9.41
521.564	9.43
521.762	9.55
521.961	9.79
522.16	9.86
522.359	9.8
522.558	9.8
522.757	9.77
522.956	9.83
523.154	9.64
523.353	9.81
523.552	9.9
523.751	10.04
523.949	10.25
524.148	10.14
524.347	10.21
524.546	10.27
524.744	10.25
524.943	10.37
525.142	10.41
525.34	10.59
525.539	10.56
525.737	10.56
525.936	10.52
526.135	10.48
526.333	10.62
526.532	10.62
526.73	10.61
526.929	10.68
527.127	10.59
527.326	10.65
527.524	10.57
527.723	10.54
527.921	10.64
528.12	10.77
528.318	10.75
528.516	10.74
528.715	10.81
528.913	10.84
529.112	10.86
529.31	10.93
529.508	10.89
529.707	10.95
529.905	10.99
530.103	11.02
530.301	10.95
530.5	10.97
530.698	10.96
530.896	10.96
531.094	10.98
531.293	11.05
531.491	11.02
531.689	11.28
531.887	11.26
532.085	11.32
532.283	11.29
532.481	11.36
532.68	11.44
532.878	11.44
533.076	11.4
533.274	11.41
533.472	11.46
533.67	11.51
533.868	11.45
534.066	11.52
534.264	11.62
534.462	11.63
534.66	11.63
534.858	11.67
535.056	11.77
535.253	11.89
535.451	11.98
535.649	11.93
535.847	12.04
536.045	12.1
536.243	12.19
536.441	12.13
536.638	12.19
536.836	12.25
537.034	12.24
537.232	12.28
537.43	12.3
537.627	12.36
537.825	12.34
538.023	12.36
538.22	12.39
538.418	12.33
538.616	12.42
538.813	12.45
539.011	12.49
539.209	12.57
539.406	12.71
539.604	12.76
539.801	12.73
539.999	12.97
540.196	13.11
540.394	13.06
540.591	13.17
540.789	13.19
540.986	13.35
541.184	13.42
541.381	13.53
541.579	13.48
541.776	13.52
541.974	13.66
542.171	13.7
542.368	13.63
542.566	13.76
542.763	13.82
542.96	13.84
543.158	13.76
543.355	13.76
543.552	13.81
543.75	13.84
543.947	13.91
544.144	13.91
544.341	13.84
544.539	13.92
544.736	13.87
544.933	13.99
545.13	14.11
545.327	14.17
545.524	14.19
545.722	14.18
545.919	14.2
546.116	14.25
546.313	14.36
546.51	14.48
546.707	14.48
546.904	14.58
547.101	14.49
547.298	14.58
547.495	14.65
547.692	14.93
547.889	14.94
548.086	15.13
548.283	15.07
548.48	14.93
548.677	15.02
548.874	15.16
549.07	15.24
549.267	15.29
549.464	15.29
549.661	15.55
549.858	15.51
550.055	15.4
550.251	15.31
550.448	15.46
550.645	15.59
550.842	15.68
551.038	15.8
551.235	15.9
551.432	16.06
551.628	15.98
551.825	15.73
552.022	15.87
552.218	16.04
552.415	16.05
552.612	16.1
552.808	16.13
553.005	16.16
553.201	16.08
553.398	16
553.594	16.18
553.791	16.35
553.987	16.56
554.184	16.53
554.38	16.6
554.577	16.71
554.773	16.89
554.97	16.93
555.166	16.95
555.362	17.09
555.559	17.06
555.755	16.85
555.952	17.06
556.148	17.02
556.344	16.86
556.541	16.73
556.737	16.86
556.933	16.83
557.129	17.01
557.326	17.09
557.522	17.18
557.718	17.44
557.914	17.52
558.11	17.4
558.307	17.48
558.503	17.85
558.699	18.22
558.895	18.32
559.091	18.14
559.287	18.01
559.483	18.1
559.679	18.11
559.876	17.99
560.072	18.26
560.268	18.39
560.464	18.58
560.66	18.43
560.856	18.42
561.052	18.64
561.247	18.79
561.443	18.81
561.639	18.86
561.835	18.87
562.031	19.1
562.227	18.96
562.423	19.09
562.619	19.1
562.815	19.23
563.01	19.17
563.206	19.2
563.402	19.24
563.598	19.45
563.793	19.47
563.989	19.74
564.185	19.86
564.381	20.03
564.576	19.88
564.772	19.91
564.968	20.01
565.163	19.95
565.359	19.77
565.555	19.86
565.75	19.91
565.946	20.07
566.141	19.99
566.337	19.88
566.532	19.89
566.728	20.12
566.923	20.19
567.119	20.15
567.314	20.13
567.51	20.13
567.705	20.26
567.901	20.19
568.096	20.04
568.292	20.07
568.487	19.99
568.682	20.05
568.878	20.11
569.073	20.24
569.268	20.26
569.464	20.66
569.659	20.7
569.854	20.86
570.05	20.9
570.245	21.05
570.44	20.87
570.635	21.08
570.831	20.8
571.026	20.77
571.221	20.68
571.416	20.67
571.611	20.55
571.806	20.65
572.002	20.5
572.197	20.62
572.392	20.66
572.587	21.05
572.782	21.07
572.977	21.49
573.172	21.64
573.367	21.75
573.562	21.79
573.757	21.76
573.952	21.92
574.147	22.14
574.342	22.18
574.537	22.16
574.732	21.98
574.927	22.06
575.121	21.82
575.316	21.56
575.511	21.42
575.706	21.61
575.901	21.78
576.096	21.72
576.29	21.65
576.485	21.52
576.68	21.54
576.875	21.41
577.069	21.49
577.264	21.75
577.459	21.95
577.654	21.98
577.848	22.19
578.043	22.21
578.238	22.18
578.432	22.18
578.627	22.27
578.821	22.25
579.016	22.63
579.21	22.77
579.405	22.54
579.6	22.57
579.794	22.62
579.989	22.3
580.183	21.94
580.378	22.19
580.572	21.96
580.766	22.19
580.961	22.62
581.155	22.39
581.35	22.13
581.544	22.09
581.738	22.1
581.933	22.29
582.127	22.5
582.321	22.71
582.516	22.68
582.71	22.82
582.904	22.76
583.099	22.54
583.293	22.68
583.487	22.6
583.681	22.88
583.875	23.06
584.07	22.98
584.264	22.95
584.458	23.23
584.652	23.29
584.846	23.43
585.04	23.61
585.234	23.68
585.428	23.4
585.623	23.5
585.817	23.2
586.011	23.31
586.205	23.15
586.399	23.13
586.593	23.11
586.787	23.05
586.981	23.13
587.174	23.12
587.368	23.07
587.562	23.34
587.756	23.54
587.95	23.75
588.144	23.43
588.338	23.75
588.532	23.85
588.725	23.84
588.919	23.86
589.113	23.69
589.307	23.7
589.501	23.82
589.694	24.16
589.888	24.07
590.082	24.15
590.275	24.31
590.469	24.16
590.663	24.24
590.856	24.22
591.05	24.28
591.244	24.77
591.437	24.66
591.631	24.64
591.824	24.35
592.018	24.24
592.212	24.56
592.405	24.66
592.599	24.93
592.792	24.9
592.986	24.97
593.179	25.03
593.372	24.77
593.566	24.78
593.759	24.63
593.953	24.76
594.146	25.15
594.339	25.17
594.533	25.11
594.726	24.92
594.92	24.46
595.113	24.55
595.306	24.23
595.499	24.37
595.693	24.47
595.886	24.53
596.079	24.5
596.272	24.28
596.466	24.1
596.659	24.07
596.852	24.24
597.045	24.38
597.238	24.36
597.431	24.51
597.624	24.48
597.818	24.6
598.011	24.74
598.204	24.64
598.397	24.52
598.59	24.52
598.783	24.56
598.976	24.53
599.169	24.65
599.362	24.74
599.555	24.7
599.748	24.57
599.941	24.23
600.134	24.26
600.326	24.25
600.519	24.58
600.712	24.57
600.905	24.51
601.098	24.32
601.291	24.63
601.483	24.56
601.676	24.73
601.869	25.06
602.062	25.28
602.255	25.07
602.447	25.36
602.64	25.35
602.833	25.42
603.025	25.65
603.218	25.62
603.411	25.59
603.603	25.63
603.796	25.69
603.989	25.54
604.181	25.65
604.374	25.84
604.566	25.78
604.759	25.74
604.951	25.76
605.144	25.66
605.336	25.81
605.529	25.84
605.721	25.87
605.914	25.78
606.106	25.64
606.299	25.43
606.491	25.47
606.683	25.48
606.876	25.44
607.068	25.33
607.26	25.31
607.453	25.31
607.645	25.18
607.837	25.13
608.03	25.45
608.222	25.71
608.414	25.83
608.606	25.53
608.799	25.6
608.991	25.83
609.183	25.94
609.375	25.94
609.567	26.02
609.759	26
609.952	26.12
610.144	25.81
610.336	25.75
610.528	25.7
610.72	25.83
610.912	25.78
611.104	25.69
611.296	25.59
611.488	25.66
611.68	25.59
611.872	25.81
612.064	25.76
612.256	25.79
612.448	25.97
612.64	26.09
612.832	26.09
613.023	26.18
613.215	26.13
613.407	25.95
613.599	25.73
613.791	25.75
613.983	25.54
614.174	25.41
614.366	25.61
614.558	25.52
614.75	25.52
614.941	25.59
615.133	25.25
615.325	25.24
615.516	25.75
615.708	26.05
615.9	26.07
616.091	26.45
616.283	26.65
616.475	26.58
616.666	26.68
616.858	26.75
617.049	26.79
617.241	27.12
617.432	27.4
617.624	26.99
617.815	26.96
618.007	26.77
618.198	26.67
618.39	26.39
618.581	26.75
618.773	26.61
618.964	26.49
619.155	26.33
619.347	26.43
619.538	26.23
619.729	26.28
619.921	26.32
620.112	26.77
620.303	26.64
620.494	26.92
620.686	26.7
620.877	26.62
621.068	26.96
621.259	27.06
621.451	27.08
621.642	27.2
621.833	27.22
622.024	27.38
622.215	27.42
622.406	27.33
622.597	27.42
622.788	27.25
622.98	27.21
623.171	26.96
623.362	27.14
623.553	26.85
623.744	26.62
623.935	27.08
624.126	27.03
624.317	26.74
624.508	26.74
624.698	26.61
624.889	26.81
625.08	26.87
625.271	26.7
625.462	26.66
625.653	26.53
625.844	26.74
626.034	26.45
626.225	26.22
626.416	25.96
626.607	26.1
626.798	26.2
626.988	25.98
627.179	26.08
627.37	26.15
627.56	26.04
627.751	26.34
627.942	26.27
628.132	26.35
628.323	26.59
628.514	27.18
628.704	27.27
628.895	27.21
629.085	27.46
629.276	27.43
629.466	27.54
629.657	27.56
629.847	27.49
630.038	27.35
630.228	27.22
630.419	27.08
630.609	26.7
630.8	26.39
630.99	26.39
631.181	26.34
631.371	26.37
631.561	26.24
631.752	26.27
631.942	26.32
632.132	26.18
632.323	26.58
632.513	26.41
632.703	26.41
632.893	26.5
633.084	26.47
633.274	26.81
633.464	26.98
633.654	27.11
633.844	27.08
634.034	27.06
634.225	27.52
634.415	27.14
634.605	26.98
634.795	27.39
634.985	27.53
635.175	27.67
635.365	27.2
635.555	27.1
635.745	27.05
635.935	27.25
636.125	27.31
636.315	27.48
636.505	27.4
636.695	27.98
636.885	27.59
637.075	27.65
637.265	27.55
637.455	27.59
637.644	27.45
637.834	27.72
638.024	27.57
638.214	27.58
638.404	27.07
638.593	27.3
638.783	27.14
638.973	27.28
639.163	27.11
639.352	26.8
639.542	27
639.732	27.06
639.921	26.69
640.111	27.09
640.301	26.56
640.49	26.71
640.68	26.8
640.87	26.41
641.059	26.07
641.249	26.33
641.438	26.82
641.628	26.63
641.817	26.73
642.007	26.7
642.196	26.39
642.386	26.82
642.575	26.7
642.764	26.75
642.954	27.16
643.143	27.54
643.333	27.09
643.522	27.14
643.711	27.41
643.901	27.3
644.09	28.14
644.279	28.41
644.469	28.23
644.658	28.38
644.847	28.04
645.036	28.2
645.226	28.09
645.415	28.35
645.604	28.28
645.793	28.38
645.982	28.58
646.171	28.06
646.361	27.81
646.55	28.17
646.739	28.19
646.928	28.37
647.117	27.98
647.306	28.06
647.495	27.9
647.684	27.55
647.873	27.59
648.062	27.52
648.251	27.72
648.44	27.75
648.629	27.55
648.818	27.29
649.007	26.99
649.196	27.07
649.384	27.11
649.573	27.27
649.762	27.77
649.951	27.46
650.14	27.58
650.328	27.37
650.517	27.76
650.706	28.19
650.895	28.44
651.083	28.93
651.272	29.03
651.461	28.74
651.65	29.1
651.838	28.72
652.027	29.01
652.216	28.76
652.404	28.83
652.593	28.57
652.781	28.33
652.97	28.24
653.158	27.95
653.347	27.88
653.535	27.87
653.724	27.57
653.912	27.77
654.101	27.55
654.289	28.02
654.478	28.22
654.666	28.18
654.855	28.1
655.043	28.15
655.231	28.14
655.42	28.13
655.608	28.94
655.796	28.58
655.985	28.64
656.173	28.61
656.361	28.41
656.55	28.46
656.738	28.34
656.926	28.58
657.114	28.81
657.302	28.84
657.491	28.94
657.679	28.34
657.867	28.6
658.055	28.76
658.243	28.84
658.431	28.76
658.619	28.54
658.807	28.65
658.996	28.74
659.184	28.93
659.372	29.14
659.56	29.29
659.748	29.36
659.936	29.45
660.124	29.51
660.311	29.6
660.499	29.69
660.687	29.67
660.875	29.56
661.063	29.5
661.251	29.04
661.439	28.68
661.627	28.67
661.814	28.46
662.002	28.19
662.19	27.67
662.378	27.42
662.565	27.53
662.753	27.82
662.941	28.22
663.129	28.56
663.316	28.42
663.504	29.28
663.692	29.22
663.879	29.68
664.067	29.65
664.254	29.61
664.442	30.01
664.63	30.15
664.817	29.75
665.005	29.49
665.192	28.95
665.38	29.54
665.567	28.79
665.755	29.07
665.942	28.87
666.13	28.89
666.317	28.81
666.504	28.57
666.692	28.03
666.879	28.39
667.067	28.41
667.254	28.51
667.441	28.47
667.629	29.11
667.816	29.02
668.003	29.35
668.19	29.82
668.378	30.62
668.565	30.8
668.752	30.87
668.939	31.17
669.127	31.09
669.314	30.71
669.501	30.29
669.688	29.57
669.875	29.44
670.062	29.39
670.249	29.11
670.436	28.77
670.623	28.75
670.81	28.91
670.997	28.46
671.184	28.18
671.371	28.65
671.558	28.71
671.745	29.08
671.932	29.01
672.119	28.93
672.306	29.35
672.493	28.84
672.68	28.67
672.867	28.78
673.054	29.02
673.24	29.4
673.427	29.45
673.614	29.6
673.801	29.47
673.988	29.83
674.174	29.78
674.361	29.2
674.548	30.34
674.734	30.53
674.921	30.12
675.108	29.77
675.294	29.57
675.481	29.47
675.668	29.97
675.854	30.25
676.041	29.75
676.227	29.77
676.414	30.03
676.601	29.08
676.787	29.01
676.974	29.22
677.16	29.79
677.347	30.22
677.533	30.29
677.719	29.87
677.906	29.87
678.092	29.71
678.279	29.78
678.465	29.49
678.651	29.83
678.838	30.1
679.024	30.66
679.21	30.16
679.397	29.72
679.583	29.73
679.769	29.87
679.955	29.71
680.142	29.99
680.328	29.71
680.514	29.83
680.7	29.93
680.886	29.92
681.073	29.26
681.259	29.35
681.445	29.66
681.631	29.68
681.817	29.69
682.003	29.55
682.189	29.49
682.375	29.62
682.561	29.54
682.747	29.6
682.933	29.27
683.119	29.65
683.305	29.77
683.491	29.65
683.677	29.6
683.863	29.88
684.049	30.26
684.235	29.89
684.42	30.17
684.606	30.3
684.792	30
684.978	29.63
685.164	29.7
685.349	29.92
685.535	29.89
685.721	29.07
685.907	28.98
686.092	28.49
686.278	28.47
686.464	28.36
686.649	28.86
686.835	29.12
687.021	30.16
687.206	30.17
687.392	30.09
687.577	29.75
687.763	30.67
687.948	30.24
688.134	30.65
688.319	30.95
688.505	30.93
688.69	30.69
688.876	30.53
689.061	29.96
689.247	30.33
689.432	30.18
689.618	30.24
689.803	30.11
689.988	29.89
690.174	30.19
690.359	29.95
690.544	30.04
690.73	29.86
690.915	29.75
691.1	30.11
691.285	29.7
691.471	30.29
691.656	31.27
691.841	31.21
692.026	32.04
692.211	31.61
692.396	32.04
692.582	31.74
692.767	31.87
692.952	31.7
693.137	31.25
693.322	30.48
693.507	29.55
693.692	29.38
693.877	29.5
694.062	29.22
694.247	29.25
694.432	29.22
694.617	29.49
694.802	29.71
694.987	29.8
695.172	30.01
695.357	30.88
695.541	31.35
695.726	30.54
695.911	29.87
696.096	29.74
696.281	29.75
696.466	30.02
696.65	30.32
696.835	30.12
697.02	30.31
697.204	30.12
697.389	29.82
697.574	29.55
697.759	29.5
697.943	30.24
698.128	30.23
698.312	29.86
698.497	30.07
698.682	30.24
698.866	30.52
699.051	30.71
699.235	31.45
699.42	31.31
699.604	31.46
699.789	31.73
699.973	31.58
700.158	31.71
700.342	32.33
700.527	32
700.711	31.7
700.895	31.38
701.08	30.68
701.264	30.22
701.448	30.47
701.633	30.06
701.817	29.96
702.001	30.34
702.186	30.32
702.37	29.79
702.554	30.38
702.738	30.79
702.923	30.94
703.107	31.62
703.291	31.35
703.475	31.61
703.659	32.31
703.843	32.65
704.027	32.13
704.212	32.24
704.396	32.89
704.58	32.34
704.764	31.77
704.948	31.63
705.132	31.77
705.316	31.09
705.5	31.15
705.684	31.01
705.868	31.11
706.052	30.39
706.235	29.89
706.419	29.7
706.603	29.92
706.787	30.36
706.971	30.71
707.155	30.54
707.339	30.65
707.522	30.81
707.706	31.2
707.89	30.73
708.074	31.54
708.257	32.13
708.441	31.76
708.625	31.55
708.808	30.96
708.992	30.04
709.176	30.02
709.359	30.1
709.543	29.99
709.727	29.97
709.91	30.1
710.094	29.75
710.277	29.12
710.461	29.13
710.644	28.79
710.828	29.02
711.011	30.23
711.195	30.36
711.378	30.63
711.562	30.8
711.745	30.37
711.928	30.42
712.112	30.33
712.295	30.7
712.478	31.44
712.662	31.79
712.845	31.68
713.028	30.94
713.212	30.89
713.395	31.08
713.578	30.21
713.761	30.57
713.945	31.16
714.128	31.08
714.311	30.94
714.494	31.05
714.677	31.71
714.86	31.12
715.043	30.9
715.227	31.03
715.41	31.33
715.593	31.56
715.776	31.28
715.959	30.5
716.142	31.01
716.325	31.09
716.508	31.16
716.691	29.97
716.874	30.68
717.057	31.47
717.239	31.65
717.422	31.07
717.605	30.91
717.788	30.64
717.971	31.08
718.154	31.07
718.337	30.92
718.519	30.07
718.702	30.23
718.885	30
719.068	29.95
719.25	29.82
719.433	29.81
719.616	30.14
719.798	29.79
719.981	29.59
720.164	30.03
720.346	30.08
720.529	30.19
720.712	29.72
720.894	29.33
721.077	28.36
721.259	27.77
721.442	27.53
721.624	27.08
721.807	27.63
721.989	27.82
722.172	27.06
722.354	26.75
722.537	26.21
722.719	27.84
722.901	28.57
723.084	29.5
723.266	29.22
723.448	29.69
723.631	29.63
723.813	30.63
723.995	30.44
724.178	31.09
724.36	31
724.542	30.74
724.724	30.15
724.907	30.1
725.089	29.21
725.271	30.1
725.453	29.6
725.635	30.52
725.817	30.05
725.999	29.99
726.181	29.84
726.364	30.57
726.546	31.24
726.728	30.98
726.91	30.8
727.092	31.18
727.274	31.38
727.456	31.43
727.638	30.93
727.819	30.68
728.001	31.1
728.183	30.78
728.365	30.53
728.547	31.18
728.729	32.42
728.911	31.98
729.093	31.71
729.274	31.48
729.456	31.22
729.638	30.89
729.82	30.78
730.001	30.68
730.183	31.05
730.365	31.93
730.546	31.27
730.728	31.63
730.91	32.44
731.091	32.2
731.273	31.83
731.455	32.32
731.636	33.26
731.818	32.89
731.999	32.51
732.181	32.35
732.362	31.57
732.544	31.68
732.725	30.4
732.907	29.79
733.088	31.1
733.27	31.38
733.451	31.83
733.633	31.7
733.814	31.75
733.995	32.06
734.177	31.88
734.358	31.42
734.539	31.82
734.721	32.44
734.902	32.66
735.083	32.38
735.264	32.4
735.446	32.53
735.627	32.75
735.808	33.33
735.989	33.23
736.17	32.68
736.351	32.72
736.533	32.99
736.714	32.54
736.895	32.8
737.076	32.28
737.257	32.24
737.438	32.47
737.619	31.63
737.8	31.6
737.981	30.21
738.162	29.93
738.343	29.28
738.524	28.21
738.705	28.72
738.886	28.17
739.067	28.47
739.247	28.5
739.428	27.99
739.609	27.78
739.79	27.42
739.971	29.35
740.151	30.25
740.332	30.61
740.513	31.55
740.694	30.03
740.874	30.04
741.055	29.27
741.236	29
741.417	28.64
741.597	30.03
741.778	29.73
741.958	29.39
742.139	28.9
742.32	30.2
742.5	28.7
742.681	29.03
742.861	30.69
743.042	30.78
743.222	29.73
743.403	30.99
743.583	29.65
743.764	30.59
743.944	30.36
744.124	30.58
744.305	29.75
744.485	31.14
744.666	32.1
744.846	30.9
745.026	31.5
745.207	31.71
745.387	30.24
745.567	32.17
745.747	31.62
745.928	31.44
746.108	32.14
746.288	33.07
746.468	32.9
746.648	33.44
746.829	33.23
747.009	32.58
747.189	33.37
747.369	33.68
747.549	33.11
747.729	33.09
747.909	33.99
748.089	32.72
748.269	32.29
748.449	32.16
748.629	30.59
748.809	29.68
748.989	30.6
749.169	30.32
749.349	30.26
749.529	29.39
749.709	29.23
749.889	28.33
750.068	29.53
750.248	29.97
750.428	30.05
750.608	31.51
750.788	32.11
750.967	31.82
751.147	33.12
751.327	32.23
751.507	32.55
751.686	33.58
751.866	34.58
752.046	34.11
752.225	34.02
752.405	33.6
752.585	32.88
752.764	33.52
752.944	33.64
753.123	32.82
753.303	34.21
753.482	32.96
753.662	31.62
753.841	30.62
754.021	29.91
754.2	30.27
754.38	29.85
754.559	29.86
754.739	29.56
754.918	28.37
755.097	29.89
755.277	28.83
755.456	30.36
755.635	29.95
755.815	30.18
755.994	31.65
756.173	30.44
756.352	31.59
756.532	32.33
756.711	32.23
756.89	33.99
757.069	31.91
757.248	32.88
757.427	32.92
757.607	33.04
757.786	33.02
757.965	32.8
758.144	32.47
758.323	32.17
758.502	30.43
758.681	30.54
758.86	28.45
759.039	27.39
759.218	26.66
759.397	26.36
759.576	26.65
759.755	25.99
759.934	26.35
760.113	27.17
760.291	26.48
760.47	27.43
760.649	27.62
760.828	28.88
761.007	30.17
761.186	30.33
761.364	30.69
761.543	31.96
761.722	32.71
761.901	32.51
762.079	32.25
762.258	32.64
762.437	32.69
762.615	32.34
762.794	32.74
762.972	32.4
763.151	32.23
763.33	32.23
763.508	31.69
763.687	31.34
763.865	31.12
764.044	30.21
764.222	30.55
764.401	30.82
764.579	31.5
764.758	30.95
764.936	31.81
765.114	32.69
765.293	32.75
765.471	32.46
765.65	32.26
765.828	32.44
766.006	34.07
766.184	34.78
766.363	34.8
766.541	34.43
766.719	34.26
766.898	34.2
767.076	33.69
767.254	32.38
767.432	33.04
767.61	34.17
767.788	33.5
767.967	33.58
768.145	32.08
768.323	33.39
768.501	33.05
768.679	34.22
768.857	33.81
769.035	32.7
769.213	33.77
769.391	33.03
769.569	31.03
769.747	31.98
769.925	32.02
770.103	31.79
770.281	31.17
770.459	31.08
770.636	31.45
770.814	31.64
770.992	32.12
771.17	32.62
771.348	34.3
771.525	35.77
771.703	34.22
771.881	34.19
772.059	35.53
772.236	34.34
772.414	35.89
772.592	35.21
772.769	35.49
772.947	33.66
773.125	32.76
773.302	32.19
773.48	32.19
773.657	31.94
773.835	31.25
774.013	32.24
774.19	30.92
774.368	29.69
774.545	29.53
774.723	29.44
774.9	31.77
775.077	31.15
775.255	31.11
775.432	29.01
775.61	29.62
775.787	29.55
775.964	27.6
776.142	27.31
776.319	27.57
776.496	26.23
776.674	24.45
776.851	24.29
777.028	25.16
777.205	23.43
777.382	27.51
777.56	28.52
777.737	30.78
777.914	31.46
778.091	33.78
778.268	34.11
778.445	33.92
778.622	34.64
778.8	34.78
778.977	36.83
779.154	38.37
779.331	35.89
779.508	37.09
779.685	36.41
779.862	37.62
780.038	38.49
780.215	37.68
780.392	38.57
780.569	38.52
780.746	37.91
780.923	36.32
781.1	35.29
781.277	36.15
781.453	33.6
781.63	31.87
781.807	30.5
781.984	28.45
782.16	27.37
782.337	26.86
782.514	27.11
782.691	28.66
782.867	28.58
783.044	26.59
783.221	26.92
783.397	28.91
783.574	27.53
783.75	28.31
783.927	27.37
784.103	29.99
784.28	29.3
784.456	30.62
784.633	29.31
784.809	27.7
784.986	32.17
785.162	31.21
785.339	29.64
785.515	30.98
785.692	29.82
785.868	30.85
786.044	30.3
786.221	31.18
786.397	29.12
786.573	29.94
786.749	31.79
786.926	29.61
787.102	32.37
787.278	32.44
787.454	34.17
787.631	33.5
787.807	33.4
787.983	32.94
788.159	33.26
788.335	35.2
788.511	36.99
788.687	38.6
788.863	40.25
789.039	38.87
789.216	38.6
789.392	37.5
789.568	38.71
789.744	39.05
789.919	39.99
790.095	39.68
790.271	38.11
790.447	34.42
790.623	31.66
790.799	31.61
790.975	33.44
791.151	34.28
791.327	35.56
791.502	37.33
791.678	37.56
791.854	36.21
792.03	34.04
792.205	34.08
792.381	32.68
792.557	32.65
792.733	30.47
792.908	27.8
793.084	28.13
793.259	25.38
793.435	22.49
793.611	20.19
793.786	20.09
793.962	23.1
794.137	26.27
794.313	29.67
794.488	31.72
794.664	30.4
794.839	30.7
795.015	28.97
795.19	30.21
795.366	33.13
795.541	35.42
795.716	35.5
795.892	35.32
796.067	34.41
796.242	34.6
796.418	33.51
796.593	34.66
796.768	35.64
796.944	38.33
797.119	36.83
797.294	35.1
797.469	34.15
797.644	32.56
797.82	33.7
797.995	34.24
798.17	34.67
798.345	35.53
798.52	36.51
798.695	35.34
798.87	32.89
799.045	34.75
799.22	35.93
799.395	37.28
799.57	37.77
799.745	38.84
799.92	35.68
800.095	35.08
800.27	32.32
800.445	31.35
800.62	31.86
800.795	34.79
800.97	32.71
801.145	29.62
801.319	28.79
801.494	32.01
801.669	29.35
801.844	27.37
802.018	32.85
802.193	36.74
802.368	36.23
802.543	38.97
802.717	39.15
802.892	42.91
803.067	46.03
803.241	46.36
803.416	46.37
803.59	45.94
803.765	46.91
803.94	42.68
804.114	42.71
804.289	43.42
804.463	39.19
804.638	37.86
804.812	37.61
804.986	37.85
805.161	39.08
805.335	36.53
805.51	37.81
805.684	40.78
805.858	39.75
806.033	35.91
806.207	34.91
806.381	34.7
806.556	32.03
806.73	31.09
806.904	28.01
807.078	26.93
807.253	26.81
807.427	23.35
807.601	24.17
807.775	22.04
807.949	23.08
808.123	27.26
808.298	29.8
808.472	30.33
808.646	27.07
808.82	27.73
808.994	28.93
809.168	27.66
809.342	30.73
809.516	28.25
809.69	31.89
809.864	35.38
810.038	31.94
810.212	29.37
810.385	31.39
810.559	35.4
810.733	36.89
810.907	33.94
811.081	38.27
811.255	36.15
811.428	38.74
811.602	38.03
811.776	38.15
811.95	39.21
812.123	40.06
812.297	39.86
812.471	38.09
812.644	35.83
812.818	37.4
812.992	35.77
813.165	37.43
813.339	39.22
813.512	40.43
813.686	40.54
813.86	39.63
814.033	40.63
814.207	40.17
814.38	44.57
814.554	45.97
814.727	46.41
814.9	46.3
815.074	50.29
815.247	45.73
815.421	41.44
815.594	36.08
815.767	33.1
815.941	35.68
816.114	35.72
816.287	30.4
816.46	27.92
816.634	29.7
816.807	31.85
816.98	24.05
817.153	25.34
817.327	23.44
817.5	24.86
817.673	26.09
817.846	24.2
818.019	25.13
818.192	25.7
818.365	25.65
818.538	25.6
818.711	22.66
818.884	25.54
819.057	24.67
819.23	29.67
819.403	31.89
819.576	35.7
819.749	32.87
819.922	30.85
820.095	29.69
820.268	34.16
820.441	34.14
820.614	33.77
820.786	33.87
820.959	35.09
821.132	32.24
821.305	31.97
821.477	31.9
821.65	31.29
821.823	31.16
821.996	31.3
822.168	30.11
822.341	31.11
822.514	31.37
822.686	31.6
822.859	32.04
823.031	32.98
823.204	33.33
823.376	33
823.549	34.06
823.722	34.49
823.894	34.85
824.067	34.94
824.239	33.56
824.411	33.06
824.584	33.27
824.756	32.33
824.929	31.64
825.101	31.21
825.273	31.05
825.446	31.01
825.618	31.23
825.79	30.68
825.963	30.48
826.135	31.94
826.307	33.19
826.479	32.76
826.652	33.61
826.824	34.73
826.996	35.58
827.168	35.3
827.34	35.06
827.512	34.49
827.684	34.1
827.856	34.55
828.029	34.47
828.201	33.09
828.373	33.2
828.545	32.68
828.717	30.9
828.889	27.93
829.061	28.62
829.232	28.8
829.404	28.31
829.576	27.41
829.748	29.11
829.92	30.12
830.092	31.33
830.264	33.72
830.436	30.82
830.607	33.87
830.779	36.36
830.951	36.95
831.123	38.39
831.294	40.89
831.466	43.54
831.638	42.1
831.809	34.87
831.981	35.07
832.153	30.5
832.324	34.31
832.496	31.99
832.667	31.78
832.839	27.66
833.011	27.05
833.182	26.93
833.354	28.34
833.525	30.45
833.697	33.69
833.868	34.02
834.039	34.61
834.211	35.11
834.382	35.71
834.554	35.43
834.725	36.26
834.896	35.07
835.068	33.71
835.239	36.5
835.41	35.95
835.581	35.4
835.753	32.9
835.924	36.61
836.095	34.42
836.266	32.5
836.438	32.71
836.609	35.42
836.78	37.2
836.951	35.85
837.122	32.31
837.293	31.93
837.464	34.9
837.635	37.77
837.806	33.68
837.977	37.23
838.148	38.02
838.319	34.88
838.49	32.77
838.661	33.15
838.832	33.28
839.003	28.31
839.174	24.67
839.345	20.57
839.516	20.69
839.687	24.34
839.857	20
840.028	25.8
840.199	27.8
840.37	27.71
840.54	24.56
840.711	30.08
840.882	35.06
841.053	34.82
841.223	38.95
841.394	40.66
841.564	41.31
841.735	41.87
841.906	41.57
842.076	46.3
842.247	47.81
842.417	47.18
842.588	42.52
842.758	46.38
842.929	50.12
843.099	47.02
843.27	46.09
843.44	43.13
843.611	45.88
843.781	39.89
843.951	42.16
844.122	38.2
844.292	37.69
844.462	44.4
844.633	41.76
844.803	46.31
844.973	44.26
845.144	42.53
845.314	41.3
845.484	38.03
845.654	35.02
845.824	29.29
845.995	30.75
846.165	28.85
846.335	15.71
846.505	17.46
846.675	11.08
846.845	15.32
847.015	10.07
847.185	11.78
847.355	20.6
847.525	26.25
847.695	26.82
847.865	27.55
848.035	23.41
848.205	25.84
848.375	25.27
848.545	25.22
848.715	25.98
848.884	20.01
849.054	22.8
849.224	9.78
849.394	5.31
849.564	7.99
849.733	13.85
849.903	25.72
850.073	28.68
850.243	20.29
850.412	16.41
850.582	10.98
850.752	19.25
850.921	11
851.091	21.62
851.26	19.38
851.43	19.56
851.599	18.88
851.769	12.58
851.939	25.6
852.108	30.64
852.278	28.49
852.447	31.12
852.616	30.69
852.786	30.05
852.955	28.91
853.125	34.24
853.294	38.08
853.463	26.84
853.633	27.87
853.802	28.92
853.971	31.9
854.141	36.65
854.31	33.73
854.479	42.78
854.648	46.49
854.818	42.71
854.987	42.79
855.156	33.4
855.325	46.52
855.494	40.17
855.663	34.82
855.832	31.76
856.001	39.65
856.171	43.17
856.34	31.15
856.509	41.35
856.678	45.36
856.847	44.95
857.016	56.11
857.185	46.72
857.353	59.38
857.522	58.44
857.691	58.74
857.86	52.93
858.029	54.12
858.198	50.82
858.367	35.63
858.535	35.15
858.704	35.3
858.873	35.93
859.042	42.66
859.21	37.61
859.379	32.29
859.548	39.35
859.717	35.33
859.885	27.29
860.054	43.07
860.222	40.53
860.391	42.67
860.56	50.06
860.728	34.36
860.897	27.96
861.065	26.59
861.234	25.87
861.402	15.75
861.571	4.98
861.739	11.98
861.908	-0.55
862.076	28.7
862.244	32.57
862.413	18.73
862.581	29.67
862.749	35.85
862.918	30.62
863.086	40.73
863.254	52.46
863.423	49.73
863.591	56.99
863.759	66.64
863.927	64.26
864.096	62.28
864.264	71.53
864.432	61.27
864.6	43.58
864.768	45.13
864.936	41.53
865.104	34.66
865.272	46.72
865.44	22.29
865.608	18.4
865.776	20.05
865.944	25.99
866.112	27.73
866.28	24.4
866.448	40.18
866.616	49.86
866.784	51.64
866.952	50.44
867.12	55.65
867.288	62.34
867.455	66.71
867.623	67.74
867.791	71.18
867.959	56.97
868.127	52.43
868.294	48.55
868.462	36.61
868.63	32.69
868.797	26.9
868.965	5
869.133	-23.07
869.3	-24.5
869.468	-39.85
869.636	-27.4
869.803	-15.18
869.971	-15.55
870.138	-1.54
870.306	-0.21
870.473	-12.09
870.641	18.48
870.808	64.94
870.975	90.88
871.143	79.67
871.31	84.51
871.478	72.57
871.645	53.95
871.812	69.86
871.98	56.71
872.147	57.53
872.314	61.9
872.482	40.52
872.649	29.14
872.816	31.22
872.983	37.98
873.15	31.63
873.318	49.82
873.485	78.03
873.652	67.82
873.819	67.81
873.986	57.65
874.153	48.78
874.32	35.99
874.487	24.12
874.654	16.48
874.821	13.19
874.988	9.47
875.155	-4.65
875.322	6.87
875.489	25.87
875.656	24.95
875.823	35.1
875.99	33.14
876.157	44.94
876.324	43.91
876.49	45.48
876.657	43.68
876.824	44.08
876.991	48.49
877.157	36.25
877.324	29.34
877.491	31.81
877.658	21.53
877.824	24.33
877.991	18.14
878.157	23.92
878.324	19.92
878.491	9.36
878.657	-6.89
878.824	-16.09
878.99	-3.72
879.157	1.87
879.323	11.62
879.49	34.29
879.656	31.77
879.823	38.69
879.989	50.22
880.156	44.74
880.322	46.82
880.488	51.86
880.655	55.76
880.821	47.43
880.987	41.33
881.154	35.26
881.32	29.85
881.486	37.07
881.652	34.73
881.819	30.84
881.985	31.1
882.151	33.82
882.317	37.7
882.483	38.44
882.649	38.7
882.816	37.39
882.982	38.76
883.148	38.32
883.314	37.48
883.48	35.73
883.646	34.05
883.812	33.09
883.978	34.02
884.144	34.67
884.31	33.02
884.476	32.09
884.642	32.92
884.807	30.55
884.973	30.31
885.139	27.32
885.305	28.16
885.471	28.72
885.637	31.5
885.802	30.9
885.968	28.15
886.134	30.63
886.3	31.05
886.465	29.82
886.631	30.46
886.797	25.73
886.962	29.68
887.128	33.18
887.293	32.42
887.459	36.84
887.625	29.26
887.79	26.18
887.956	18.06
888.121	24.08
888.287	25.25
888.452	25.73
888.618	34.54
888.783	28.79
