Data from 2937827_Reflection_2.txt Node
Date: Wed Jul 15 16:58:51 EDT 2015
User: robert
Spectrometer: USB4E03001
Autoset integration time: false
Trigger mode: 4
Integration Time (sec): 1.000000E-1
Scans to average: 10
Electric dark correction enabled: true
Nonlinearity correction enabled: false
Boxcar width: 5
Stray light correction enabled: false
XAxis mode: Wavelengths
Stop averaging: false
Number of Pixels in Spectrum: 3648
>>>>>Begin Spectral Data<<<<<
177.566	64.42
177.785	84.42
178.005	96.97
178.225	94.12
178.445	84.2
178.665	85.14
178.885	173.98
179.105	41.73
179.324	40.02
179.544	56.74
179.764	74.96
179.984	58.29
180.204	59.72
180.423	59.46
180.643	53.81
180.863	26.72
181.083	19.57
181.302	5.22
181.522	-18.37
181.742	-6.23
181.961	9.13
182.181	-23.77
182.401	-32
182.621	12.29
182.84	29.79
183.06	35
183.279	44.26
183.499	50.15
183.719	45.36
183.938	59.11
184.158	45.91
184.377	37.6
184.597	85.41
184.816	144.78
185.036	110.91
185.256	315.11
185.475	198.87
185.695	167.39
185.914	191.03
186.134	127.32
186.353	80.15
186.572	36.77
186.792	12.82
187.011	-26.88
187.231	5.89
187.45	-6.34
187.67	9.57
187.889	7.43
188.108	-12.12
188.328	7.77
188.547	-5.33
188.766	5.64
188.986	28.46
189.205	68.06
189.424	72.66
189.644	37.22
189.863	7.28
190.082	-51.58
190.302	-32.13
190.521	-36.53
190.74	-13.2
190.959	-7.15
191.178	-31.91
191.398	-23.95
191.617	-37.85
191.836	-9.18
192.055	9.7
192.274	61.46
192.494	61.53
192.713	34.08
192.932	10.14
193.151	-21.29
193.37	-12.68
193.589	-15.35
193.808	-32.13
194.027	-46.14
194.246	-44.98
194.465	-11.79
194.685	-5.64
194.904	-10.42
195.123	-46.27
195.342	105.5
195.561	141.78
195.78	448.03
195.999	165.95
196.218	331.24
196.436	930.38
196.655	-859.75
196.874	-3205.76
197.093	-648.14
197.312	-337.24
197.531	451.74
197.75	291.44
197.969	121.95
198.188	121.39
198.407	75.17
198.625	52.09
198.844	35.38
199.063	34.33
199.282	32.04
199.501	15.62
199.719	17.4
199.938	23.01
200.157	-5.83
200.376	18.74
200.594	14.28
200.813	24.55
201.032	26.48
201.251	38.08
201.469	21.23
201.688	13.09
201.907	21.88
202.125	55.69
202.344	72.39
202.563	90.31
202.781	110.81
203	86.72
203.218	70.63
203.437	32.1
203.656	53.53
203.874	35.8
204.093	50.9
204.311	50.59
204.53	19.88
204.748	-13.38
204.967	-8.75
205.185	24.65
205.404	-121.33
205.622	-465.2
205.841	8918.6
206.059	47.27
206.278	476.24
206.496	19.89
206.715	60.34
206.933	57.09
207.151	154.14
207.37	274.53
207.588	-100.52
207.806	-2.32
208.025	-21.34
208.243	-3.96
208.461	39.74
208.68	30.69
208.898	40.18
209.116	42.37
209.335	30.33
209.553	35.34
209.771	38.58
209.989	27.44
210.208	-3.5
210.426	21.13
210.644	6.49
210.862	12.95
211.081	17.61
211.299	15.24
211.517	18.54
211.735	33.75
211.953	45.39
212.171	64.21
212.39	73
212.608	73.27
212.826	42.69
213.044	30.85
213.262	5.17
213.48	28.42
213.698	-412.44
213.916	273.98
214.134	424.17
214.352	591.24
214.57	-1053.38
214.788	1072.16
215.006	583.12
215.224	-341.86
215.442	-231.74
215.66	-131.65
215.878	-230.71
216.096	-54.2
216.314	-29.4
216.532	-10.82
216.75	0
216.968	-2.26
217.185	2.47
217.403	-16.93
217.621	-42.41
217.839	-39.64
218.057	1.73
218.275	16.56
218.492	20.73
218.71	20.23
218.928	15.51
219.146	27.61
219.363	42.97
219.581	31.05
219.799	48.69
220.017	44.86
220.234	80.44
220.452	99.16
220.67	-88.8
220.887	36.19
221.105	60.51
221.323	88.74
221.54	66.27
221.758	132.2
221.976	127.63
222.193	119.2
222.411	66.79
222.629	12.11
222.846	464.04
223.064	182.06
223.281	326.46
223.499	233.74
223.716	-184.44
223.934	283.86
224.151	34.45
224.369	109.85
224.586	89.07
224.804	112.57
225.021	175.22
225.239	195.9
225.456	102.18
225.674	174.86
225.891	17.94
226.108	797.17
226.326	-2665.47
226.543	5929.27
226.76	-762.46
226.978	-1517.1
227.195	-387.92
227.413	-295.86
227.63	-161.12
227.847	-58.08
228.064	-21.12
228.282	-0.94
228.499	12.84
228.716	13.26
228.934	10.53
229.151	12.1
229.368	9.96
229.585	14.61
229.802	16.44
230.02	11.15
230.237	13.6
230.454	8.07
230.671	6.51
230.888	3.6
231.105	6.34
231.323	6.22
231.54	2.41
231.757	9.21
231.974	5.74
232.191	-0.5
232.408	3.78
232.625	2.78
232.842	-1.13
233.059	6.41
233.276	5.43
233.493	2.65
233.71	0.51
233.927	1.93
234.144	3.26
234.361	4.67
234.578	11.24
234.795	13.66
235.012	7.84
235.229	11.52
235.446	-0.33
235.663	-3.47
235.879	-13.4
236.096	-16.84
236.313	-16.24
236.53	-34.05
236.747	-40.42
236.964	-48.67
237.181	-51.41
237.397	-36.45
237.614	-29.07
237.831	-27.01
238.048	-25.51
238.264	-17.19
238.481	1.71
238.698	11.42
238.915	19.08
239.131	16.46
239.348	11.46
239.565	10.11
239.781	16.92
239.998	12.03
240.215	13.56
240.431	13.48
240.648	17.32
240.865	10.36
241.081	11.14
241.298	12.12
241.514	11.71
241.731	11.82
241.947	12.44
242.164	11.31
242.38	12.45
242.597	14.07
242.814	14.29
243.03	15.79
243.246	17.3
243.463	15.17
243.679	13.61
243.896	11.89
244.112	13.05
244.329	13.04
244.545	12.86
244.762	11.93
244.978	11.08
245.194	12.58
245.411	9.8
245.627	8.2
245.843	8.61
246.06	10.03
246.276	15.12
246.492	14.03
246.709	14.12
246.925	12.67
247.141	11.98
247.357	11.22
247.574	9.8
247.79	8.77
248.006	9.32
248.222	8.94
248.439	7.36
248.655	5.07
248.871	5.48
249.087	5.61
249.303	5.78
249.519	7.18
249.736	6.89
249.952	7.6
250.168	10.76
250.384	13.35
250.6	16.98
250.816	17.83
251.032	21.61
251.248	16.41
251.464	16.06
251.68	14.98
251.896	13.94
252.112	12.95
252.328	14.27
252.544	9.59
252.76	6.34
252.976	4.39
253.192	6.74
253.408	5.54
253.624	9.69
253.84	9.37
254.056	9.69
254.272	9.9
254.487	10.1
254.703	12.05
254.919	18.63
255.135	24.41
255.351	22.71
255.567	18.44
255.782	19.7
255.998	20.25
256.214	21.11
256.43	22.05
256.646	20.83
256.861	18.94
257.077	15.42
257.293	14.25
257.508	11.21
257.724	13.85
257.94	14.12
258.155	12.41
258.371	7.9
258.587	6.68
258.802	7.37
259.018	9.75
259.234	10.89
259.449	11.79
259.665	10.94
259.88	10.11
260.096	9.16
260.312	9.96
260.527	9.96
260.743	11.76
260.958	11.26
261.174	11.1
261.389	9.21
261.605	9.01
261.82	7.22
262.036	6.58
262.251	7.72
262.466	8.03
262.682	6.96
262.897	6.82
263.113	4.58
263.328	2.28
263.543	1
263.759	3.24
263.974	1.34
264.189	1.95
264.405	2.04
264.62	3.06
264.835	2.79
265.051	4.24
265.266	3.75
265.481	4.82
265.696	7.98
265.912	9.61
266.127	10.85
266.342	9.59
266.557	9.64
266.773	8.36
266.988	5.28
267.203	5.76
267.418	5.45
267.633	6.54
267.848	6.69
268.064	7.41
268.279	7.12
268.494	5.12
268.709	5.68
268.924	6.78
269.139	8.71
269.354	9.8
269.569	7.98
269.784	5.7
269.999	5.16
270.214	4.69
270.429	5.13
270.644	3.97
270.859	4.57
271.074	7.34
271.289	6.7
271.504	7.97
271.719	8.78
271.934	11.11
272.149	11.71
272.363	10.79
272.578	12.26
272.793	11.31
273.008	12.39
273.223	12.12
273.438	10.15
273.653	10.18
273.867	9.77
274.082	7.73
274.297	6.76
274.512	4.85
274.726	4.63
274.941	3.48
275.156	3.98
275.371	2.46
275.585	2.18
275.8	3.1
276.015	1.89
276.229	1.95
276.444	1.98
276.659	1.83
276.873	4.22
277.088	2.25
277.302	5.12
277.517	7.31
277.732	9.17
277.946	9.48
278.161	8.48
278.375	10.64
278.59	10.43
278.804	12.02
279.019	12.03
279.233	11.46
279.448	16.82
279.662	15.23
279.877	11.45
280.091	9.33
280.306	7.9
280.52	6
280.735	4.83
280.949	5.54
281.163	5.73
281.378	5.1
281.592	5.31
281.806	4.69
282.021	5.33
282.235	6.41
282.449	7.72
282.664	8.24
282.878	10.08
283.092	10.86
283.307	8.92
283.521	10.34
283.735	12.47
283.949	12.18
284.164	11.11
284.378	9.63
284.592	9.99
284.806	9.7
285.02	10.96
285.234	11.34
285.449	10.95
285.663	11.81
285.877	10.89
286.091	8.46
286.305	10.6
286.519	10.7
286.733	9.36
286.947	8.21
287.161	8.67
287.375	9.13
287.589	8.86
287.803	7.69
288.017	6.77
288.231	4.14
288.445	5.5
288.659	3.97
288.873	3.53
289.087	5.93
289.301	6.72
289.515	7.07
289.729	2.41
289.943	4.64
290.157	7.33
290.371	8.62
290.584	11.86
290.798	11.78
291.012	12.55
291.226	14.06
291.44	13.44
291.654	16.71
291.867	15.82
292.081	18.28
292.295	18.04
292.509	15.17
292.722	13.05
292.936	12.71
293.15	13.07
293.364	12.01
293.577	11.11
293.791	11.7
294.005	8.68
294.218	9.66
294.432	12.28
294.645	11.6
294.859	12.42
295.073	14.96
295.286	13.06
295.5	11.9
295.713	13.76
295.927	13.08
296.14	12.62
296.354	11.72
296.568	12.02
296.781	12.03
296.994	12.78
297.208	13.93
297.421	14.46
297.635	15.83
297.848	17.14
298.062	16.65
298.275	16.74
298.489	18.26
298.702	19.02
298.915	19.28
299.129	18.49
299.342	17.99
299.555	17.57
299.769	18.46
299.982	18.42
300.195	17.45
300.409	16.92
300.622	18.22
300.835	17.22
301.048	18.48
301.262	19.8
301.475	20.8
301.688	22.31
301.901	22.68
302.115	20.23
302.328	20.4
302.541	21.26
302.754	17.71
302.967	16.47
303.18	17.28
303.393	15.17
303.607	14.53
303.82	14.58
304.033	15.86
304.246	16.65
304.459	16.84
304.672	17.31
304.885	17
305.098	19.72
305.311	18.4
305.524	18.5
305.737	20.38
305.95	18.28
306.163	19.18
306.376	18.54
306.589	19.43
306.802	19.81
307.015	18.89
307.228	18.46
307.44	18.12
307.653	21.37
307.866	20.58
308.079	19.45
308.292	18.97
308.505	17.62
308.718	17.07
308.93	16.11
309.143	17.37
309.356	17.85
309.569	18.31
309.781	19.75
309.994	19.22
310.207	17.77
310.42	17.76
310.632	19.1
310.845	18.82
311.058	17.73
311.27	16.82
311.483	16.79
311.696	16.95
311.908	16.91
312.121	16.21
312.333	15.22
312.546	15.72
312.759	16.05
312.971	15.96
313.184	15.95
313.396	17.13
313.609	18.39
313.821	18.03
314.034	16.27
314.246	15.86
314.459	15.34
314.671	16.13
314.884	17.56
315.096	19.18
315.309	20.15
315.521	19.67
315.733	17.26
315.946	18.84
316.158	17.4
316.371	19.09
316.583	21.28
316.795	22.69
317.008	21.94
317.22	21.17
317.432	20.26
317.644	17.4
317.857	19.85
318.069	20.04
318.281	17.94
318.494	20.31
318.706	21.9
318.918	20.36
319.13	19.8
319.342	20.06
319.555	20.34
319.767	19.96
319.979	19.6
320.191	17.15
320.403	18.69
320.615	19.5
320.827	18.17
321.039	15.37
321.252	15.25
321.464	15.16
321.676	15.64
321.888	15.35
322.1	12.75
322.312	14.87
322.524	17.59
322.736	17.49
322.948	16.69
323.16	16.21
323.372	16.84
323.584	17.9
323.796	18.95
324.007	19.48
324.219	19.63
324.431	21.42
324.643	19.94
324.855	18.69
325.067	18.61
325.279	18.5
325.491	18.23
325.702	19.32
325.914	18.22
326.126	18.28
326.338	19.9
326.55	21.66
326.761	21.49
326.973	22.66
327.185	21.8
327.396	20.74
327.608	23.06
327.82	25.62
328.032	24.11
328.243	23.45
328.455	22.86
328.666	19.64
328.878	17.94
329.09	18.44
329.301	19.22
329.513	19.41
329.725	20.31
329.936	18.18
330.148	18.34
330.359	20.17
330.571	20.09
330.782	19.27
330.994	17.62
331.205	17.64
331.417	17.38
331.628	17.35
331.84	19.48
332.051	20.08
332.262	18.78
332.474	15.21
332.685	14.95
332.897	16.86
333.108	18.26
333.319	19.96
333.531	21.54
333.742	22.68
333.953	22.45
334.165	22.44
334.376	22.38
334.587	23.69
334.799	22.8
335.01	20.33
335.221	18.86
335.432	19.3
335.644	20.38
335.855	20.12
336.066	20.84
336.277	21.41
336.488	21.2
336.7	20.37
336.911	19.56
337.122	22.55
337.333	23.92
337.544	24.57
337.755	23.84
337.966	23.01
338.177	21.91
338.388	19.86
338.599	18.47
338.811	18.23
339.022	19.78
339.233	19.62
339.444	18.54
339.655	19.31
339.866	17.59
340.076	17.94
340.287	18.45
340.498	19.46
340.709	20.44
340.92	20.83
341.131	19.77
341.342	18.54
341.553	17.44
341.764	16.09
341.975	15.05
342.185	17.34
342.396	15.66
342.607	15.83
342.818	14.68
343.029	12.33
343.239	13.54
343.45	14.11
343.661	13.87
343.872	15.2
344.082	16.14
344.293	17.94
344.504	18.32
344.714	18.71
344.925	17.13
345.136	17.19
345.346	18.01
345.557	16.67
345.768	16.96
345.978	16.97
346.189	17.51
346.399	17.03
346.61	15.98
346.821	15.31
347.031	14.81
347.242	15.92
347.452	16.25
347.663	15.51
347.873	16.22
348.084	15.98
348.294	17.16
348.504	15.69
348.715	17.8
348.925	18.51
349.136	18.48
349.346	19.15
349.557	20.71
349.767	20.43
349.977	20.64
350.188	21.72
350.398	22.69
350.608	22.5
350.819	23.5
351.029	22.41
351.239	22.7
351.449	23.28
351.66	24.53
351.87	23.56
352.08	23.59
352.29	23.61
352.501	22.43
352.711	22.69
352.921	20.6
353.131	20.49
353.341	19.86
353.552	19.22
353.762	18.46
353.972	17.15
354.182	17.38
354.392	17.28
354.602	18.3
354.812	18.59
355.022	17.2
355.232	18.27
355.442	18.17
355.652	18.24
355.862	18.42
356.072	18.66
356.282	18.93
356.492	20.3
356.702	20.43
356.912	20.33
357.122	19.96
357.332	21.23
357.542	20.74
357.752	21.66
357.962	21.64
358.171	21.42
358.381	20.93
358.591	21.22
358.801	19.98
359.011	20.09
359.221	20.57
359.43	20.57
359.64	19.87
359.85	19.98
360.06	19.91
360.269	20.83
360.479	20.53
360.689	20.14
360.899	20.28
361.108	18.85
361.318	18.67
361.528	18.19
361.737	17.81
361.947	16.91
362.156	16.9
362.366	16.31
362.576	14.84
362.785	14.51
362.995	14.82
363.204	14.2
363.414	14.45
363.623	14.63
363.833	14.43
364.042	14.8
364.252	15.28
364.461	15.54
364.671	16.33
364.88	17.41
365.09	17.47
365.299	17.21
365.509	16.86
365.718	17.73
365.927	18.14
366.137	18.17
366.346	18.82
366.555	19.22
366.765	19.26
366.974	18.02
367.183	18.51
367.393	18.71
367.602	19.55
367.811	19.98
368.021	19.64
368.23	18.58
368.439	18.73
368.648	17.98
368.857	16.87
369.067	16.56
369.276	16.32
369.485	14.97
369.694	14.98
369.903	13.54
370.112	13.25
370.321	12.41
370.531	12.85
370.74	12.08
370.949	11.36
371.158	11.69
371.367	11.55
371.576	12.3
371.785	12.91
371.994	12.4
372.203	12.53
372.412	12.63
372.621	12.64
372.83	13.22
373.039	14.48
373.248	15.23
373.457	15.98
373.666	16.38
373.874	16.44
374.083	16.03
374.292	15.99
374.501	15.54
374.71	14.83
374.919	15.43
375.128	14.81
375.336	14.19
375.545	13.26
375.754	13.14
375.963	12.91
376.171	13.28
376.38	12.81
376.589	12.06
376.798	12.16
377.006	12.34
377.215	12.6
377.424	12.61
377.632	11.84
377.841	12.02
378.05	11.25
378.258	10.77
378.467	9.77
378.675	9.81
378.884	10.99
379.093	12.08
379.301	12.5
379.51	12
379.718	11.75
379.927	12.11
380.135	12.42
380.344	11.99
380.552	12.78
380.761	12.83
380.969	12.78
381.177	12.43
381.386	11.61
381.594	10.92
381.803	10.96
382.011	10.24
382.219	10.03
382.428	9.16
382.636	9.49
382.845	8.67
383.053	8.56
383.261	8.96
383.469	9.28
383.678	10
383.886	10.24
384.094	10.44
384.302	10.47
384.511	10.57
384.719	10.96
384.927	11.44
385.135	11.73
385.343	11.75
385.552	11.36
385.76	10.93
385.968	10.45
386.176	10.08
386.384	9.65
386.592	10.2
386.8	9.6
387.008	9.43
387.216	8.87
387.424	8.37
387.633	8.18
387.841	8.35
388.049	8.28
388.257	8.29
388.465	8.8
388.672	8.99
388.88	8.44
389.088	8.55
389.296	8.45
389.504	7.99
389.712	8.35
389.92	8.51
390.128	8.95
390.336	8.73
390.544	8.73
390.751	8.54
390.959	8.51
391.167	8.7
391.375	8.59
391.583	8.18
391.79	8.37
391.998	8.08
392.206	7.75
392.414	7.41
392.621	7.65
392.829	7.49
393.037	7.13
393.244	6.97
393.452	7.11
393.66	7.1
393.867	7.41
394.075	7.59
394.283	7.79
394.49	7.78
394.698	7.33
394.905	7.15
395.113	7.17
395.32	7.01
395.528	6.86
395.735	6.9
395.943	7.03
396.15	7.28
396.358	7.27
396.565	7.39
396.773	7.64
396.98	7.98
397.188	8.12
397.395	7.81
397.602	8.28
397.81	8.58
398.017	8.34
398.225	8.18
398.432	8.28
398.639	8
398.847	7.84
399.054	7.67
399.261	7.13
399.468	7.22
399.676	7.31
399.883	7.45
400.09	7.29
400.297	7.45
400.505	7.54
400.712	7.5
400.919	7.37
401.126	7.34
401.333	7.56
401.54	7.88
401.748	7.72
401.955	7.52
402.162	7.25
402.369	7.4
402.576	7.16
402.783	7.36
402.99	7.26
403.197	7.44
403.404	7.09
403.611	6.67
403.818	6.89
404.025	6.51
404.232	6.53
404.439	6.45
404.646	6.19
404.853	6.3
405.06	6.29
405.267	6.31
405.474	6.26
405.681	6.55
405.887	6.99
406.094	7
406.301	7.15
406.508	7.58
406.715	7.54
406.922	7.56
407.128	7.53
407.335	7.3
407.542	7.2
407.749	7.31
407.955	7.11
408.162	6.93
408.369	6.75
408.575	6.84
408.782	6.69
408.989	6.87
409.195	7.08
409.402	6.89
409.609	7.24
409.815	7.45
410.022	7.14
410.228	7.34
410.435	7.21
410.642	7.38
410.848	7.49
411.055	7.46
411.261	7.29
411.468	6.9
411.674	6.96
411.881	6.73
412.087	6.38
412.294	6.79
412.5	6.88
412.706	7.04
412.913	7.09
413.119	6.89
413.326	6.94
413.532	6.68
413.738	6.74
413.945	6.86
414.151	6.91
414.357	6.9
414.564	6.53
414.77	6.14
414.976	6.09
415.182	5.76
415.389	5.67
415.595	5.48
415.801	5.91
416.007	6.18
416.214	5.96
416.42	5.81
416.626	5.78
416.832	5.99
417.038	6.33
417.244	6.21
417.45	6.38
417.657	6.46
417.863	6.75
418.069	6.55
418.275	6.42
418.481	6.76
418.687	6.84
418.893	7.1
419.099	7.16
419.305	6.97
419.511	6.93
419.717	6.94
419.923	6.84
420.129	6.53
420.335	6.66
420.541	6.73
420.746	6.55
420.952	6.61
421.158	6.41
421.364	6.36
421.57	6.4
421.776	6.49
421.982	6.49
422.187	6.51
422.393	6.68
422.599	6.61
422.805	6.65
423.01	6.54
423.216	6.44
423.422	6.42
423.628	6.21
423.833	6.28
424.039	6.4
424.245	6.47
424.45	6.59
424.656	6.46
424.862	6.59
425.067	6.53
425.273	6.64
425.478	6.75
425.684	6.84
425.889	7.02
426.095	6.9
426.301	6.78
426.506	6.82
426.712	6.64
426.917	6.69
427.123	6.7
427.328	6.83
427.533	6.94
427.739	6.82
427.944	6.88
428.15	6.95
428.355	6.97
428.561	6.92
428.766	6.66
428.971	6.81
429.177	6.97
429.382	6.81
429.587	6.55
429.793	6.55
429.998	6.51
430.203	6.33
430.408	6.3
430.614	6.37
430.819	6.18
431.024	6.21
431.229	6.21
431.434	6.2
431.64	6.22
431.845	6.33
432.05	6.19
432.255	6.22
432.46	6.3
432.665	6.27
432.87	6.13
433.076	6.29
433.281	6.18
433.486	6.3
433.691	6.33
433.896	6.35
434.101	6.13
434.306	6.36
434.511	6.43
434.716	6.35
434.921	6.26
435.126	6.39
435.331	6.42
435.535	6.48
435.74	6.27
435.945	6.2
436.15	6.11
436.355	6.27
436.56	5.99
436.765	6.05
436.97	6.09
437.174	6.23
437.379	6.14
437.584	6
437.789	6.15
437.993	6.31
438.198	6.26
438.403	6.38
438.608	6.48
438.812	6.4
439.017	6.17
439.222	6.24
439.426	6.16
439.631	6.31
439.836	6.5
440.04	6.48
440.245	6.47
440.45	6.51
440.654	6.43
440.859	6.34
441.063	6.55
441.268	6.65
441.472	6.6
441.677	6.53
441.881	6.38
442.086	6.22
442.29	6.22
442.495	6.21
442.699	6.05
442.904	6.03
443.108	5.91
443.312	6.03
443.517	6.02
443.721	6.13
443.925	6.36
444.13	6.42
444.334	6.55
444.538	6.32
444.743	6.28
444.947	6.39
445.151	6.45
445.356	6.56
445.56	6.39
445.764	6.36
445.968	6.36
446.173	6.44
446.377	6.49
446.581	6.41
446.785	6.64
446.989	6.6
447.193	6.59
447.398	6.51
447.602	6.53
447.806	6.53
448.01	6.43
448.214	6.44
448.418	6.26
448.622	6.19
448.826	6.26
449.03	6.02
449.234	6.09
449.438	6.14
449.642	6.18
449.846	5.97
450.05	5.97
450.254	6.26
450.458	6.2
450.662	5.96
450.866	5.99
451.069	5.76
451.273	5.84
451.477	5.78
451.681	5.71
451.885	5.68
452.089	5.83
452.292	5.83
452.496	5.78
452.7	5.74
452.904	6.08
453.107	6.11
453.311	6.29
453.515	6.29
453.719	6.37
453.922	6.55
454.126	6.7
454.33	6.85
454.533	6.74
454.737	6.74
454.94	6.69
455.144	6.63
455.348	6.51
455.551	6.49
455.755	6.42
455.958	6.4
456.162	6.14
456.365	5.9
456.569	5.73
456.772	5.81
456.976	5.81
457.179	6.02
457.383	5.91
457.586	5.98
457.79	5.97
457.993	5.9
458.196	5.89
458.4	5.97
458.603	6.21
458.807	6.22
459.01	6.18
459.213	6.11
459.417	5.99
459.62	6.06
459.823	6.02
460.026	6.07
460.23	6.1
460.433	6.18
460.636	6.15
460.839	5.95
461.042	5.91
461.246	5.87
461.449	5.92
461.652	5.89
461.855	5.83
462.058	5.85
462.261	5.76
462.464	6
462.668	5.96
462.871	5.96
463.074	6.15
463.277	6.31
463.48	6.54
463.683	6.5
463.886	6.52
464.089	6.56
464.292	6.52
464.495	6.64
464.698	6.35
464.901	6.43
465.104	6.37
465.306	6.1
465.509	5.98
465.712	5.8
465.915	5.86
466.118	5.97
466.321	5.85
466.524	5.9
466.726	5.88
466.929	5.77
467.132	5.54
467.335	5.52
467.538	5.63
467.74	5.68
467.943	5.76
468.146	5.55
468.348	5.39
468.551	5.47
468.754	5.45
468.956	5.38
469.159	5.58
469.362	5.56
469.564	5.66
469.767	5.83
469.969	5.9
470.172	5.79
470.375	5.86
470.577	6.08
470.78	6.07
470.982	5.96
471.185	5.88
471.387	5.85
471.59	5.88
471.792	5.94
471.995	5.8
472.197	5.76
472.399	5.5
472.602	5.72
472.804	5.67
473.007	5.72
473.209	5.75
473.411	5.66
473.614	5.58
473.816	5.6
474.018	5.46
474.22	5.54
474.423	5.51
474.625	5.87
474.827	5.67
475.03	5.55
475.232	5.47
475.434	5.44
475.636	5.65
475.838	5.84
476.04	5.81
476.243	5.94
476.445	5.71
476.647	5.73
476.849	5.71
477.051	5.73
477.253	5.94
477.455	6.01
477.657	6.02
477.859	6.13
478.061	6
478.263	5.92
478.465	5.89
478.667	6.01
478.869	5.96
479.071	5.83
479.273	5.81
479.475	5.64
479.677	5.66
479.879	5.71
480.081	5.59
480.283	5.57
480.485	5.69
480.686	5.66
480.888	5.63
481.09	5.51
481.292	5.56
481.494	5.62
481.695	5.68
481.897	5.57
482.099	5.67
482.301	5.65
482.502	5.61
482.704	5.63
482.906	5.68
483.107	5.76
483.309	5.93
483.511	5.97
483.712	5.97
483.914	6.02
484.115	6.02
484.317	6.02
484.519	6.04
484.72	6.09
484.922	6.08
485.123	6.09
485.325	6.05
485.526	6.01
485.728	5.98
485.929	5.96
486.131	5.88
486.332	5.93
486.534	5.96
486.735	5.91
486.936	5.9
487.138	5.87
487.339	5.81
487.541	5.88
487.742	5.88
487.943	5.91
488.144	5.92
488.346	6.04
488.547	6.05
488.748	6
488.95	6.02
489.151	6.01
489.352	6
489.553	6
489.755	5.99
489.956	5.94
490.157	5.94
490.358	5.92
490.559	5.7
490.76	5.65
490.961	5.63
491.163	5.64
491.364	5.7
491.565	5.9
491.766	5.93
491.967	6
492.168	6.05
492.369	6.13
492.57	6.13
492.771	6.24
492.972	6.2
493.173	6.18
493.374	6.26
493.575	6.3
493.776	6.13
493.976	6.15
494.177	5.97
494.378	5.85
494.579	5.78
494.78	5.68
494.981	5.63
495.182	5.75
495.382	5.86
495.583	5.82
495.784	5.85
495.985	5.87
496.185	5.92
496.386	6.07
496.587	6.08
496.788	5.84
496.988	6
497.189	6.09
497.39	6.12
497.59	6.17
497.791	6.33
497.992	6.21
498.192	6.15
498.393	6.16
498.593	6.12
498.794	6.19
498.994	6.33
499.195	6.24
499.395	6.05
499.596	6.05
499.796	6.02
499.997	5.82
500.197	6.02
500.398	6.19
500.598	6.12
500.799	6
500.999	6.05
501.199	6.08
501.4	6.22
501.6	6.35
501.801	6.18
502.001	6.2
502.201	6.1
502.402	6.04
502.602	5.95
502.802	6
503.002	5.98
503.203	5.99
503.403	6.02
503.603	5.86
503.803	5.85
504.003	6
504.204	5.92
504.404	6.08
504.604	6.1
504.804	5.98
505.004	6.04
505.204	6.22
505.404	6.11
505.604	6.21
505.804	6.39
506.005	6.49
506.205	6.59
506.405	6.64
506.605	6.76
506.805	6.71
507.005	6.87
507.204	6.81
507.404	6.67
507.604	6.78
507.804	6.75
508.004	6.62
508.204	6.55
508.404	6.62
508.604	6.59
508.804	6.55
509.003	6.78
509.203	6.8
509.403	6.83
509.603	7.17
509.803	7.09
510.002	7
510.202	7.11
510.402	7.08
510.602	6.95
510.801	7.09
511.001	7.1
511.201	6.94
511.4	7.06
511.6	7.13
511.8	6.89
511.999	7.01
512.199	7.02
512.398	7.05
512.598	7.17
512.797	7.22
512.997	7.18
513.197	7.14
513.396	7.22
513.596	7.1
513.795	6.97
513.994	6.92
514.194	6.84
514.393	6.99
514.593	7
514.792	6.81
514.992	6.93
515.191	6.92
515.39	6.88
515.59	6.8
515.789	6.89
515.988	6.94
516.188	7.03
516.387	7.05
516.586	7
516.786	6.91
516.985	7.09
517.184	7.04
517.383	7.17
517.582	7.22
517.782	7.18
517.981	7.12
518.18	7.23
518.379	7.15
518.578	7.31
518.777	7.41
518.976	7.53
519.176	7.52
519.375	7.61
519.574	7.48
519.773	7.46
519.972	7.57
520.171	7.65
520.37	7.69
520.569	7.95
520.768	7.71
520.967	7.61
521.166	7.43
521.365	7.48
521.564	7.4
521.762	7.44
521.961	7.53
522.16	7.51
522.359	7.43
522.558	7.36
522.757	7.25
522.956	7.22
523.154	7.26
523.353	7.61
523.552	7.66
523.751	7.68
523.949	7.71
524.148	7.61
524.347	7.51
524.546	7.63
524.744	7.57
524.943	7.66
525.142	7.95
525.34	7.88
525.539	7.78
525.737	7.75
525.936	7.74
526.135	7.77
526.333	7.82
526.532	7.95
526.73	7.95
526.929	8.02
527.127	8.06
527.326	8.05
527.524	8.14
527.723	8.25
527.921	8.24
528.12	8.33
528.318	8.33
528.516	8.35
528.715	8.37
528.913	8.38
529.112	8.44
529.31	8.41
529.508	8.43
529.707	8.4
529.905	8.35
530.103	8.45
530.301	8.49
530.5	8.54
530.698	8.58
530.896	8.64
531.094	8.69
531.293	8.66
531.491	8.66
531.689	8.68
531.887	8.73
532.085	8.73
532.283	8.72
532.481	8.6
532.68	8.62
532.878	8.67
533.076	8.65
533.274	8.69
533.472	8.77
533.67	8.77
533.868	8.74
534.066	8.8
534.264	8.86
534.462	8.88
534.66	8.91
534.858	8.88
535.056	8.86
535.253	8.94
535.451	8.93
535.649	9
535.847	9.15
536.045	9.23
536.243	9.33
536.441	9.34
536.638	9.32
536.836	9.4
537.034	9.39
537.232	9.45
537.43	9.37
537.627	9.28
537.825	9.08
538.023	8.95
538.22	8.96
538.418	8.79
538.616	8.93
538.813	9.02
539.011	8.92
539.209	9.2
539.406	9.22
539.604	9.38
539.801	9.52
539.999	9.75
540.196	9.9
540.394	9.86
540.591	10.04
540.789	9.91
540.986	9.95
541.184	10.1
541.381	10.11
541.579	10.17
541.776	10.18
541.974	10.24
542.171	10.27
542.368	10.31
542.566	10.43
542.763	10.48
542.96	10.61
543.158	10.61
543.355	10.55
543.552	10.42
543.75	10.49
543.947	10.58
544.144	10.55
544.341	10.56
544.539	10.5
544.736	10.57
544.933	10.7
545.13	10.68
545.327	10.9
545.524	11.1
545.722	11.23
545.919	11.32
546.116	11.1
546.313	11.25
546.51	11.33
546.707	11.51
546.904	11.34
547.101	11.26
547.298	11.4
547.495	11.31
547.692	11.24
547.889	11.38
548.086	11.31
548.283	11.65
548.48	11.79
548.677	11.82
548.874	11.76
549.07	11.99
549.267	11.94
549.464	11.84
549.661	11.8
549.858	12.01
550.055	12.05
550.251	12.27
550.448	12.18
550.645	11.96
550.842	12.16
551.038	12.12
551.235	12.41
551.432	12.57
551.628	12.75
551.825	12.9
552.022	12.98
552.218	12.94
552.415	12.81
552.612	12.87
552.808	13.16
553.005	13.1
553.201	13.3
553.398	13.15
553.594	13.19
553.791	13.38
553.987	13.59
554.184	13.69
554.38	13.89
554.577	14.08
554.773	14.12
554.97	14.1
555.166	14.29
555.362	14.27
555.559	14.33
555.755	14.24
555.952	14.09
556.148	14.09
556.344	14.09
556.541	13.96
556.737	13.99
556.933	14.01
557.129	14.19
557.326	14.08
557.522	14.29
557.718	14.29
557.914	14.5
558.11	14.5
558.307	14.51
558.503	14.35
558.699	14.42
558.895	14.51
559.091	14.64
559.287	14.78
559.483	14.81
559.679	14.98
559.876	15.11
560.072	15.13
560.268	15.1
560.464	15.17
560.66	15.46
560.856	15.65
561.052	15.77
561.247	15.65
561.443	15.51
561.639	15.72
561.835	15.65
562.031	15.55
562.227	15.72
562.423	15.95
562.619	15.9
562.815	16
563.01	15.91
563.206	15.86
563.402	16.11
563.598	16.29
563.793	16.39
563.989	16.35
564.185	16.72
564.381	16.69
564.576	16.84
564.772	17.07
564.968	16.94
565.163	17.21
565.359	17.27
565.555	17.52
565.75	17.63
565.946	17.52
566.141	17.63
566.337	17.5
566.532	17.49
566.728	17.59
566.923	17.53
567.119	17.78
567.314	17.81
567.51	17.91
567.705	17.6
567.901	17.28
568.096	17.43
568.292	17.41
568.487	17.58
568.682	17.72
568.878	17.57
569.073	17.65
569.268	17.79
569.464	17.93
569.659	17.9
569.854	17.96
570.05	18.27
570.245	18.39
570.44	18.49
570.635	18.62
570.831	18.79
571.026	18.88
571.221	18.61
571.416	18.38
571.611	18.36
571.806	18.44
572.002	18.5
572.197	18.54
572.392	18.34
572.587	18.36
572.782	18.18
572.977	18.04
573.172	17.96
573.367	18.29
573.562	18.25
573.757	18.29
573.952	18.35
574.147	18.6
574.342	18.6
574.537	18.67
574.732	18.75
574.927	18.79
575.121	18.82
575.316	19.05
575.511	19.11
575.706	19.42
575.901	19.27
576.096	19.17
576.29	19.26
576.485	19.4
576.68	19.56
576.875	19.58
577.069	19.78
577.264	19.88
577.459	19.9
577.654	19.65
577.848	19.52
578.043	19.63
578.238	19.72
578.432	19.53
578.627	19.31
578.821	19.53
579.016	19.64
579.21	19.47
579.405	19.44
579.6	19.27
579.794	19.76
579.989	19.76
580.183	19.83
580.378	19.91
580.572	19.98
580.766	19.89
580.961	19.69
581.155	19.57
581.35	19.5
581.544	19.42
581.738	19.63
581.933	19.45
582.127	19.52
582.321	19.63
582.516	19.54
582.71	19.66
582.904	20.01
583.099	20.01
583.293	19.99
583.487	20.05
583.681	20.29
583.875	20.23
584.07	20.03
584.264	20.13
584.458	20.12
584.652	20.33
584.846	20.25
585.04	20.01
585.234	19.99
585.428	19.86
585.623	19.96
585.817	19.95
586.011	20.12
586.205	20.28
586.399	20.26
586.593	20.08
586.787	19.92
586.981	20.12
587.174	20.19
587.368	20.22
587.562	20.49
587.756	20.66
587.95	20.62
588.144	20.41
588.338	20.46
588.532	20.51
588.725	20.62
588.919	20.72
589.113	20.76
589.307	21.03
589.501	21.12
589.694	21.27
589.888	20.98
590.082	21.02
590.275	21.09
590.469	21.17
590.663	20.99
590.856	21.23
591.05	21.27
591.244	21.22
591.437	21.05
591.631	21.08
591.824	21.04
592.018	21.37
592.212	21.73
592.405	21.75
592.599	21.83
592.792	21.98
592.986	21.98
593.179	21.99
593.372	22.01
593.566	21.76
593.759	21.76
593.953	21.61
594.146	21.52
594.339	21.1
594.533	21.13
594.726	21.25
594.92	21.22
595.113	21.36
595.306	21.45
595.499	21.37
595.693	21.6
595.886	21.51
596.079	21.81
596.272	21.7
596.466	21.8
596.659	21.94
596.852	21.82
597.045	21.72
597.238	21.62
597.431	21.49
597.624	21.46
597.818	21.48
598.011	21.46
598.204	21.05
598.397	21.14
598.59	21.34
598.783	21.26
598.976	21.4
599.169	21.54
599.362	21.48
599.555	21.6
599.748	21.59
599.941	21.39
600.134	21.77
600.326	22
600.519	21.95
600.712	21.72
600.905	21.89
601.098	21.52
601.291	21.48
601.483	21.26
601.676	21.42
601.869	21.47
602.062	21.89
602.255	21.62
602.447	21.75
602.64	22.09
602.833	22.28
603.025	22.19
603.218	22.32
603.411	22.3
603.603	22.43
603.796	22.45
603.989	22.48
604.181	22.35
604.374	22.43
604.566	22.5
604.759	22.63
604.951	22.53
605.144	22.68
605.336	22.63
605.529	22.63
605.721	22.66
605.914	22.52
606.106	22.63
606.299	22.79
606.491	22.78
606.683	22.69
606.876	22.44
607.068	22.5
607.26	22.4
607.453	22.48
607.645	22.94
607.837	23.13
608.03	23.33
608.222	23.48
608.414	23.61
608.606	23.64
608.799	23.76
608.991	23.91
609.183	23.7
609.375	23.47
609.567	23.57
609.759	23.18
609.952	23.13
610.144	22.8
610.336	22.71
610.528	22.55
610.72	22.48
610.912	22.42
611.104	22.39
611.296	22.56
611.488	22.63
611.68	22.44
611.872	22.55
612.064	22.38
612.256	22.35
612.448	22.34
612.64	22.27
612.832	22.05
613.023	22.13
613.215	21.97
613.407	22.05
613.599	22.27
613.791	22.61
613.983	22.32
614.174	22.36
614.366	22.81
614.558	23.02
614.75	23.11
614.941	23.51
615.133	23.57
615.325	23.44
615.516	23.02
615.708	22.98
615.9	22.81
616.091	23.06
616.283	23.14
616.475	22.83
616.666	22.71
616.858	22.75
617.049	22.6
617.241	22.45
617.432	22.58
617.624	22.69
617.815	22.46
618.007	22.31
618.198	22.68
618.39	22.64
618.581	22.72
618.773	22.5
618.964	22.39
619.155	22.52
619.347	22.72
619.538	22.92
619.729	23.01
619.921	23.15
620.112	23.53
620.303	23.14
620.494	23.08
620.686	23.07
620.877	23.2
621.068	23.42
621.259	23.42
621.451	23.05
621.642	22.94
621.833	23.4
622.024	23.6
622.215	23.32
622.406	23.43
622.597	23.74
622.788	23.82
622.98	23.82
623.171	24.07
623.362	23.84
623.553	24.08
623.744	23.87
623.935	23.59
624.126	23.63
624.317	23.43
624.508	23.47
624.698	23.11
624.889	22.92
625.08	23.23
625.271	22.78
625.462	22.93
625.653	22.63
625.844	22.78
626.034	22.97
626.225	22.91
626.416	23.23
626.607	23.42
626.798	23.63
626.988	23.86
627.179	23.61
627.37	23.53
627.56	23.79
627.751	24.01
627.942	24.1
628.132	23.66
628.323	23.78
628.514	23.7
628.704	23.57
628.895	23.51
629.085	23.59
629.276	23.72
629.466	23.9
629.657	23.47
629.847	23.34
630.038	23.15
630.228	23.38
630.419	23.26
630.609	23.37
630.8	22.97
630.99	23
631.181	23.06
631.371	22.78
631.561	22.83
631.752	23.12
631.942	23.32
632.132	23.51
632.323	23.75
632.513	23.57
632.703	23.62
632.893	23.85
633.084	23.77
633.274	23.65
633.464	23.77
633.654	23.51
633.844	23.31
634.034	23.16
634.225	22.9
634.415	22.94
634.605	23.04
634.795	22.84
634.985	23.24
635.175	23.28
635.365	23.42
635.555	23.55
635.745	23.86
635.935	24.01
636.125	23.98
636.315	24.2
636.505	24.12
636.695	24.15
636.885	24.14
637.075	23.97
637.265	23.61
637.455	23.46
637.644	23.14
637.834	23.11
638.024	23.12
638.214	23.14
638.404	23.26
638.593	23.1
638.783	23.51
638.973	23.45
639.163	23.48
639.352	24.02
639.542	23.68
639.732	24.17
639.921	23.85
640.111	24.26
640.301	24.34
640.49	23.77
640.68	23.96
640.87	23.07
641.059	22.79
641.249	22.7
641.438	22.78
641.628	23.01
641.817	22.74
642.007	22.53
642.196	21.74
642.386	21.84
642.575	22.3
642.764	22.28
642.954	22.76
643.143	23.53
643.333	23.49
643.522	23.2
643.711	23.33
643.901	23.61
644.09	24.46
644.279	25.18
644.469	25.16
644.658	25.06
644.847	24.8
645.036	24.92
645.226	24.27
645.415	24.72
645.604	24.79
645.793	25.13
645.982	24.74
646.171	24.36
646.361	23.7
646.55	23.35
646.739	23.53
646.928	23.64
647.117	23.62
647.306	23.88
647.495	23.55
647.684	23.38
647.873	22.88
648.062	22.96
648.251	23
648.44	23.49
648.629	24.02
648.818	23.57
649.007	23.69
649.196	23.79
649.384	23.99
649.573	23.87
649.762	24.16
649.951	24.48
650.14	24.44
650.328	24.17
650.517	24.45
650.706	24.21
650.895	24.48
651.083	24.25
651.272	23.85
651.461	23.61
651.65	23.63
651.838	23.44
652.027	23.16
652.216	23.17
652.404	23.21
652.593	22.73
652.781	22.71
652.97	22.62
653.158	22.84
653.347	23.27
653.535	23.53
653.724	23.55
653.912	23.61
654.101	23.54
654.289	23.57
654.478	23.86
654.666	23.75
654.855	23.65
655.043	23.7
655.231	23.65
655.42	23
655.608	22.67
655.796	23
655.985	22.74
656.173	22.73
656.361	22.82
656.55	22.34
656.738	22.72
656.926	23.05
657.114	23.32
657.302	23.21
657.491	23.86
657.679	24.33
657.867	24.11
658.055	24.45
658.243	24.69
658.431	24.88
658.619	25.45
658.807	25.23
658.996	25.05
659.184	24.74
659.372	24.88
659.56	24.42
659.748	23.95
659.936	23.78
660.124	23.6
660.311	23.55
660.499	23.42
660.687	23.29
660.875	23.01
661.063	22.62
661.251	22.76
661.439	22.51
661.627	22.83
661.814	23.1
662.002	22.74
662.19	23.05
662.378	22.93
662.565	22.8
662.753	22.44
662.941	22.28
663.129	22.2
663.316	22.38
663.504	22.81
663.692	22.28
663.879	22.44
664.067	22.93
664.254	22.83
664.442	22.81
664.63	22.78
664.817	22.57
665.005	23.27
665.192	23.88
665.38	23.09
665.567	22.6
665.755	23.26
665.942	23.17
666.13	23.19
666.317	22.77
666.504	23.11
666.692	23.12
666.879	23.67
667.067	23.41
667.254	23.45
667.441	24.18
667.629	24.62
667.816	24.25
668.003	24.48
668.19	24.73
668.378	25.41
668.565	24.84
668.752	25.16
668.939	25.12
669.127	24.99
669.314	24.97
669.501	24.83
669.688	24.86
669.875	25.19
670.062	24.8
670.249	24.41
670.436	24.18
670.623	24.41
670.81	24.24
670.997	24.07
671.184	23.7
671.371	23.81
671.558	24.21
671.745	23.63
671.932	23.52
672.119	23.43
672.306	23.43
672.493	23.17
672.68	23.07
672.867	22.45
673.054	22.41
673.24	22.76
673.427	22.82
673.614	22.12
673.801	22.61
673.988	21.68
674.174	22.05
674.361	22.3
674.548	22.85
674.734	23.26
674.921	23.99
675.108	23.67
675.294	23.85
675.481	23.45
675.668	23.81
675.854	23.65
676.041	24.36
676.227	24.26
676.414	24.15
676.601	23.69
676.787	23.78
676.974	23.32
677.16	23.49
677.347	23.65
677.533	24.06
677.719	24.22
677.906	24.15
678.092	24.65
678.279	24.91
678.465	24.87
678.651	24.82
678.838	24.55
679.024	24.71
679.21	24.94
679.397	25.05
679.583	24.62
679.769	24.77
679.955	24.81
680.142	24.49
680.328	24.4
680.514	24.48
680.7	24.62
680.886	24.92
681.073	25.09
681.259	25.08
681.445	24.73
681.631	24.51
681.817	23.98
682.003	23.49
682.189	24.09
682.375	24.21
682.561	24.26
682.747	24.24
682.933	23.94
683.119	23.54
683.305	23.72
683.491	23.98
683.677	24.32
683.863	24.57
684.049	24.79
684.235	24.32
684.42	23.87
684.606	23.73
684.792	23.74
684.978	23.69
685.164	23.77
685.349	23.76
685.535	23.32
685.721	23.43
685.907	23.49
686.092	24.54
686.278	24.62
686.464	24.97
686.649	25.02
686.835	25.19
687.021	25.17
687.206	25.07
687.392	25.46
687.577	25.76
687.763	25.82
687.948	26.16
688.134	25.39
688.319	25.08
688.505	24.8
688.69	24.5
688.876	23.82
689.061	23.92
689.247	24.15
689.432	23.4
689.618	23.55
689.803	23.16
689.988	23.35
690.174	23.77
690.359	23.7
690.544	23.77
690.73	23.95
690.915	23.96
691.1	24.32
691.285	24.52
691.471	24.82
691.656	24.6
691.841	25.48
692.026	25.11
692.211	24.73
692.396	25.05
692.582	24.86
692.767	25.32
692.952	25.62
693.137	25.4
693.322	25.07
693.507	25.49
693.692	25.59
693.877	25.08
694.062	24.21
694.247	23.93
694.432	23.24
694.617	23.51
694.802	23.77
694.987	24.03
695.172	23.79
695.357	23.66
695.541	22.99
695.726	22.98
695.911	22.55
696.096	23.36
696.281	23.62
696.466	24.05
696.65	24.11
696.835	23.21
697.02	23.13
697.204	23.58
697.389	23.95
697.574	23.96
697.759	23.76
697.943	24.09
698.128	24
698.312	23.9
698.497	23.91
698.682	24
698.866	24.65
699.051	25.15
699.235	25.04
699.42	25.19
699.604	24.91
699.789	25.3
699.973	25.54
700.158	25.19
700.342	25.58
700.527	25.52
700.711	25.44
700.895	24.9
701.08	23.78
701.264	23.5
701.448	22.7
701.633	22.78
701.817	22.48
702.001	21.36
702.186	21.98
702.37	21.99
702.554	21.93
702.738	21.95
702.923	22.28
703.107	22.53
703.291	22.38
703.475	23.09
703.659	23.63
703.843	23.6
704.027	25.3
704.212	24.93
704.396	24.51
704.58	24.3
704.764	24.12
704.948	23.99
705.132	24.5
705.316	24.78
705.5	24.42
705.684	24.2
705.868	24.14
706.052	23.43
706.235	23.61
706.419	23.44
706.603	23.66
706.787	23.79
706.971	23.9
707.155	23.11
707.339	23.62
707.522	23.26
707.706	22.84
707.89	23.15
708.074	22.83
708.257	22.67
708.441	21.98
708.625	22.34
708.808	21.75
708.992	21.24
709.176	21.84
709.359	20.8
709.543	21.32
709.727	22.1
709.91	21.4
710.094	22
710.277	22.29
710.461	22.66
710.644	22.15
710.828	22.59
711.011	22.93
711.195	22.57
711.378	23.02
711.562	22.76
711.745	23.17
711.928	22.96
712.112	22.72
712.295	22.76
712.478	23.18
712.662	22.98
712.845	22.79
713.028	22.78
713.212	22.94
713.395	22.26
713.578	22.35
713.761	21.4
713.945	22.1
714.128	22.54
714.311	22.24
714.494	22.08
714.677	22.89
714.86	23.57
715.043	24.16
715.227	24.28
715.41	24.66
715.593	25.17
715.776	25.58
715.959	25.2
716.142	24.68
716.325	25.16
716.508	25.18
716.691	24.63
716.874	23.94
717.057	23.24
717.239	23.52
717.422	22.82
717.605	22.38
717.788	22.19
717.971	22.65
718.154	22.07
718.337	22.07
718.519	21.78
718.702	22.12
718.885	22.49
719.068	22.72
719.25	22.83
719.433	24.43
719.616	24.81
719.798	25.36
719.981	24.65
720.164	25.15
720.346	24.62
720.529	25.63
720.712	24.43
720.894	24.08
721.077	23.98
721.259	23.39
721.442	22.79
721.624	22.71
721.807	22.52
721.989	23.57
722.172	23.09
722.354	23.17
722.537	22.51
722.719	23.75
722.901	24.41
723.084	25.2
723.266	25.63
723.448	25.63
723.631	25.65
723.813	25.08
723.995	25.18
724.178	25.39
724.36	25.95
724.542	25.56
724.724	25.58
724.907	25.42
725.089	25.77
725.271	25.26
725.453	25.65
725.635	24
725.817	24.65
725.999	23.1
726.181	22.66
726.364	22.68
726.546	23.22
726.728	22.82
726.91	22.38
727.092	20.39
727.274	21.28
727.456	20.37
727.638	21.36
727.819	19.8
728.001	20.38
728.183	20.95
728.365	20.18
728.547	19.47
728.729	20.53
728.911	20.44
729.093	21.16
729.274	20.98
729.456	22.51
729.638	22.66
729.82	23.8
730.001	23.81
730.183	24.29
730.365	24.38
730.546	23.82
730.728	22.32
730.91	22.12
731.091	22.18
731.273	21.34
731.455	20.59
731.636	20.99
731.818	20.76
731.999	21.02
732.181	19.97
732.362	20.21
732.544	22.3
732.725	23.57
732.907	24.65
733.088	24.05
733.27	24.08
733.451	23.77
733.633	23.93
733.814	24.45
733.995	24.22
734.177	25.01
734.358	24.34
734.539	24.36
734.721	23.78
734.902	23.04
735.083	23.37
735.264	23.86
735.446	23.8
735.627	22.87
735.808	22.46
735.989	23.11
736.17	22.41
736.351	22.38
736.533	20.69
736.714	20.28
736.895	20.69
737.076	20.85
737.257	20.54
737.438	21.21
737.619	21.92
737.8	21.92
737.981	21.98
738.162	22.37
738.343	23.35
738.524	22.9
738.705	24.24
738.886	24.1
739.067	24.25
739.247	24
739.428	22.84
739.609	22.24
739.79	23.07
739.971	22.65
740.151	22.22
740.332	22.37
740.513	24.54
740.694	23.64
740.874	24.08
741.055	24.45
741.236	26.17
741.417	28.09
741.597	27.98
741.778	27.93
741.958	28.72
742.139	30.16
742.32	29.52
742.5	29.62
742.681	30.39
742.861	28.18
743.042	28.32
743.222	26.36
743.403	24.32
743.583	24.25
743.764	23.11
743.944	21.31
744.124	20.15
744.305	21.47
744.485	22.08
744.666	20.53
744.846	23.22
745.026	22.62
745.207	23.24
745.387	23.83
745.567	23.49
745.747	24.02
745.928	23.64
746.108	24.75
746.288	23.39
746.468	20.12
746.648	21.06
746.829	20.08
747.009	19.91
747.189	19.99
747.369	20.77
747.549	23
747.729	22.44
747.909	22.87
748.089	20.58
748.269	19.88
748.449	21.26
748.629	20.91
748.809	20.62
748.989	21.52
749.169	21.63
749.349	21.54
749.529	19.95
749.709	21.57
749.889	23.18
750.068	24.41
750.248	24.65
750.428	24.53
750.608	24.55
750.788	25.17
750.967	23.93
751.147	23.79
751.327	22.98
751.507	23.41
751.686	24.49
751.866	23.71
752.046	22.82
752.225	23.37
752.405	23.7
752.585	23.16
752.764	22.42
752.944	22.43
753.123	23.27
753.303	24.62
753.482	25.25
753.662	24.28
753.841	23.24
754.021	24.57
754.2	24.9
754.38	25.43
754.559	26.1
754.739	24.92
754.918	25.56
755.097	24.67
755.277	23.03
755.456	22.85
755.635	20.9
755.815	22.4
755.994	23.72
756.173	23.38
756.352	22.46
756.532	21.59
756.711	23.46
756.89	23.29
757.069	23.09
757.248	23.92
757.427	23
757.607	22.51
757.786	22.78
757.965	21.05
758.144	21.93
758.323	22.3
758.502	22.79
758.681	21.64
758.86	20.75
759.039	20.5
759.218	21.13
759.397	21.43
759.576	22.59
759.755	22.36
759.934	21.88
760.113	21.19
760.291	21.31
760.47	21.8
760.649	21.79
760.828	23.48
761.007	23.6
761.186	22.94
761.364	22.76
761.543	22.26
761.722	22.08
761.901	22.89
762.079	23.02
762.258	22.91
762.437	23.86
762.615	25.12
762.794	24.04
762.972	24.03
763.151	23.43
763.33	24.14
763.508	24.49
763.687	24.06
763.865	23.46
764.044	22.62
764.222	22.07
764.401	20.61
764.579	20.46
764.758	20.83
764.936	22.42
765.114	23.14
765.293	22.83
765.471	23.15
765.65	22.94
765.828	23.84
766.006	24.8
766.184	25.95
766.363	26.1
766.541	26.65
766.719	26.39
766.898	24.43
767.076	23.53
767.254	23.05
767.432	22.26
767.61	21.72
767.788	22.19
767.967	22.25
768.145	20.41
768.323	21.59
768.501	21.54
768.679	19.69
768.857	20.67
769.035	22.16
769.213	22.71
769.391	23.57
769.569	24.67
769.747	24.42
769.925	23.84
770.103	24.66
770.281	22.88
770.459	20.24
770.636	23.5
770.814	22.27
770.992	20.31
771.17	20.16
771.348	19.89
771.525	19.18
771.703	16.37
771.881	19.05
772.059	17.89
772.236	18.99
772.414	19.79
772.592	18.53
772.769	19.03
772.947	21.42
773.125	23.57
773.302	22.84
773.48	24.42
773.657	27.18
773.835	26.18
774.013	26.45
774.19	28.16
774.368	27.6
774.545	28.64
774.723	30.12
774.9	27.93
775.077	25.68
775.255	26.5
775.432	27.3
775.61	27.75
775.787	26.2
775.964	26.41
776.142	22.84
776.319	23.17
776.496	21.32
776.674	21.22
776.851	20.2
777.028	21.3
777.205	19.88
777.382	19.6
777.56	16.37
777.737	18.34
777.914	18.9
778.091	22.58
778.268	25.29
778.445	26.01
778.622	27.29
778.8	28.93
778.977	27.67
779.154	27.16
779.331	24.39
779.508	26.25
779.685	23.65
779.862	24
780.038	20.35
780.215	18.3
780.392	18.08
780.569	15.24
780.746	14.4
780.923	12.03
781.1	14.35
781.277	14.49
781.453	12.61
781.63	13.75
781.807	16.25
781.984	18.72
782.16	16.83
782.337	16.62
782.514	15.31
782.691	18.53
782.867	20.28
783.044	19.79
783.221	21.31
783.397	24.53
783.574	24.9
783.75	22.38
783.927	20.57
784.103	22.09
784.28	21.06
784.456	23.22
784.633	20.04
784.809	17.99
784.986	16.86
785.162	15.96
785.339	12.59
785.515	11.03
785.692	11.66
785.868	9.85
786.044	10.53
786.221	12.45
786.397	11.3
786.573	16.64
786.749	21.89
786.926	21.57
787.102	22.46
787.278	23.38
787.454	24.51
787.631	22.69
787.807	24.45
787.983	22.53
788.159	23.49
788.335	24.12
788.511	21.84
788.687	21.65
788.863	22.45
789.039	23.85
789.216	21.83
789.392	24.54
789.568	25.06
789.744	24.96
789.919	25.89
790.095	27.57
790.271	23.69
790.447	21.45
790.623	16.73
790.799	14
790.975	12.2
791.151	14.12
791.327	9.12
791.502	9.53
791.678	7.04
791.854	6.78
792.03	-0.26
792.205	4.98
792.381	4.87
792.557	4.88
792.733	7.81
792.908	6.51
793.084	4.94
793.259	6.05
793.435	8.23
793.611	14.63
793.786	14.66
793.962	21.72
794.137	21.78
794.313	23.7
794.488	25.61
794.664	26.57
794.839	32.57
795.015	32.95
795.19	35.11
795.366	30.09
795.541	25.2
795.716	25.05
795.892	22.33
796.067	21.94
796.242	23.61
796.418	21.65
796.593	20.87
796.768	15.42
796.944	14.07
797.119	16.41
797.294	18.43
797.469	22.7
797.644	24.05
797.82	25.46
797.995	27.17
798.17	27.46
798.345	30.76
798.52	30.35
798.695	30.84
798.87	32.6
799.045	30.98
799.22	32.14
799.395	28.43
799.57	27.63
799.745	25.64
799.92	21.46
800.095	16.17
800.27	14.14
800.445	13.01
800.62	12.85
800.795	11.24
800.97	9.18
801.145	9.39
801.319	8.78
801.494	12.3
801.669	10.04
801.844	15.29
802.018	19.97
802.193	19.43
802.368	21.96
802.543	24.58
802.717	24.49
802.892	24.21
803.067	26.65
803.241	27.41
803.416	22.15
803.59	26.21
803.765	28.79
803.94	27.16
804.114	25.12
804.289	22.77
804.463	18.39
804.638	19.66
804.812	15.97
804.986	12.48
805.161	9.84
805.335	12.8
805.51	13.22
805.684	8.79
805.858	5.83
806.033	9.94
806.207	9.71
806.381	14.41
806.556	13.95
806.73	22.71
806.904	24.65
807.078	29.4
807.253	28.48
807.427	23.64
807.601	24.12
807.775	28.22
807.949	24.97
808.123	24.14
808.298	22.21
808.472	21.54
808.646	17.31
808.82	9.23
808.994	9.6
809.168	10.85
809.342	16.56
809.516	19.61
809.69	18.05
809.864	20.63
810.038	21.97
810.212	20.31
810.385	26.15
810.559	24.21
810.733	27.51
810.907	26.84
811.081	23.5
811.255	22.05
811.428	14.95
811.602	16.05
811.776	14.41
811.95	13.57
812.123	17.29
812.297	10.7
812.471	9.34
812.644	13.74
812.818	12.75
812.992	12.13
813.165	6.51
813.339	11.89
813.512	12.24
813.686	17.29
813.86	22.35
814.033	22.47
814.207	21.38
814.38	26.61
814.554	20.31
814.727	16.43
814.9	22.43
815.074	23.52
815.247	21.19
815.421	22.65
815.594	16.28
815.767	13.33
815.941	3.11
816.114	2.1
816.287	5.15
816.46	8.48
816.634	6.13
816.807	-6.67
816.98	-11.03
817.153	-5.49
817.327	-12.93
817.5	-9.16
817.673	-8.58
817.846	-0.82
818.019	-5.51
818.192	-10.82
818.365	-10.41
818.538	-3.37
818.711	9.15
818.884	14.38
819.057	12
819.23	17.13
819.403	18.2
819.576	18.09
819.749	23.28
819.922	26.34
820.095	24.62
820.268	28.6
820.441	26.46
820.614	26.22
820.786	21.48
820.959	24.47
821.132	23.39
821.305	23.5
821.477	23.21
821.65	22.55
821.823	23.92
821.996	24.66
822.168	23.75
822.341	24.88
822.514	24.14
822.686	25.56
822.859	23.94
823.031	24.05
823.204	24.08
823.376	23.35
823.549	23.89
823.722	22.86
823.894	23
824.067	22.07
824.239	21.55
824.411	22.43
824.584	22.74
824.756	23.38
824.929	23.16
825.101	22.56
825.273	23.67
825.446	22.33
825.618	22.92
825.79	22.88
825.963	23.31
826.135	22.74
826.307	21.49
826.479	19.79
826.652	20.13
826.824	20.76
826.996	21.19
827.168	21.14
827.34	20.81
827.512	20.34
827.684	18.28
827.856	19.3
828.029	18.83
828.201	19.62
828.373	19.25
828.545	17.14
828.717	15.54
828.889	16.39
829.061	14.48
829.232	13.88
829.404	15.31
829.576	16.58
829.748	13.38
829.92	13.96
830.092	14.37
830.264	13.72
830.436	14.19
830.607	15.26
830.779	12.37
830.951	11.43
831.123	9.86
831.294	8.62
831.466	4.25
831.638	8.98
831.809	12.45
831.981	8.98
832.153	11.83
832.324	11.66
832.496	10.33
832.667	12.17
832.839	15.27
833.011	19.45
833.182	12.72
833.354	18.51
833.525	17.6
833.697	14.3
833.868	17.7
834.039	16.85
834.211	15.73
834.382	17.65
834.554	18.42
834.725	19.97
834.896	20.19
835.068	23.89
835.239	24.8
835.41	25.83
835.581	25.58
835.753	24.45
835.924	23.11
836.095	24.95
836.266	23.51
836.438	23.39
836.609	24.47
836.78	22.7
836.951	19.21
837.122	16.29
837.293	17.09
837.464	17.91
837.635	18.25
837.806	18.38
837.977	16.01
838.148	13.28
838.319	7.62
838.49	0.49
838.661	4.27
838.832	9.81
839.003	8.66
839.174	5.08
839.345	10.92
839.516	6.55
839.687	11.05
839.857	12.95
840.028	20.8
840.199	27.91
840.37	28.57
840.54	27.98
840.711	22.4
840.882	28.48
841.053	32.04
841.223	25.84
841.394	23.51
841.564	21.37
841.735	17.8
841.906	21.72
842.076	12.55
842.247	11.91
842.417	7.47
842.588	5.69
842.758	-10.61
842.929	-6.58
843.099	-4.01
843.27	2.85
843.44	5.6
843.611	13.75
843.781	-5.4
843.951	2.64
844.122	9.53
844.292	18.98
844.462	37.55
844.633	47.69
844.803	45.52
844.973	18.21
845.144	-1.89
845.314	-8.59
845.484	-21.29
845.654	10.2
845.824	20.51
845.995	24.29
846.165	10.86
846.335	21.63
846.505	20.78
846.675	11.83
846.845	16.69
847.015	25.68
847.185	31.91
847.355	42.87
847.525	23.11
847.695	10.15
847.865	-10.19
848.035	-23.26
848.205	-74.2
848.375	-51.41
848.545	-72.09
848.715	-80.41
848.884	-129.82
849.054	-2.2
849.224	-79.95
849.394	-25.56
849.564	-36.34
849.733	-29.55
849.903	13.86
850.073	-3.42
850.243	-55.83
850.412	28.25
850.582	25.24
850.752	27.13
850.921	-3.81
851.091	17.26
851.26	21.59
851.43	4.56
851.599	10.87
851.769	24.15
851.939	30.39
852.108	30.08
852.278	22.58
852.447	-23.71
852.616	-37.3
852.786	-82.09
852.955	-0
853.125	-45.27
853.294	-22.04
853.463	-38.71
853.633	-61.81
853.802	129.45
853.971	138.73
854.141	323.83
854.31	16.47
854.479	59.44
854.648	66.08
854.818	-6.97
854.987	6.41
855.156	24.94
855.325	24.8
855.494	16.79
855.663	40.5
855.832	51.78
856.001	26.32
856.171	41.21
856.34	15.27
856.509	-6.7
856.678	-19.15
856.847	39.86
857.016	20.16
857.185	9.72
857.353	-21.33
857.522	-50.28
857.691	-53.42
857.86	-51.8
858.029	-25.34
858.198	16.71
858.367	22.25
858.535	43.21
858.704	-1.66
858.873	21.85
859.042	60.88
859.21	84.87
859.379	85.12
859.548	54.01
859.717	-0.84
859.885	-181.49
860.054	489.5
860.222	576.92
860.391	-497.9
860.56	-122.61
860.728	-185.55
860.897	-202.98
861.065	-186.93
861.234	-180.79
861.402	-181.06
861.571	-158.17
861.739	-208.08
861.908	-151.37
862.076	-77.97
862.244	-32.27
862.413	-164.67
862.581	-144.98
862.749	17766.67
862.918	415.33
863.086	204.55
863.254	-137.24
863.423	768.18
863.591	-248.1
863.759	-150.9
863.927	-237.56
864.096	-446.14
864.264	-114.59
864.432	-299.92
864.6	-61.17
864.768	-65.42
864.936	-132.5
865.104	-284.57
865.272	-212.3
865.44	239.56
865.608	106.5
865.776	-247.62
865.944	12.87
866.112	38.75
866.28	192.01
866.448	236.31
866.616	103.17
866.784	259.51
866.952	-103.95
867.12	-180.88
867.288	-24.54
867.455	17.56
867.623	19.16
867.791	-71.84
867.959	-28.88
868.127	19.56
868.294	12.95
868.462	-75.22
868.63	-51.48
868.797	-675.24
868.965	-176.81
869.133	-289.86
869.3	1160.16
869.468	294.36
869.636	91.24
869.803	182.11
869.971	103.57
870.138	98.74
870.306	93.41
870.473	95.13
870.641	103.35
870.808	72.19
870.975	108.08
871.143	110.85
871.31	115.89
871.478	109.69
871.645	112.53
871.812	152.42
871.98	149.59
872.147	138.73
872.314	259.15
872.482	125.41
872.649	112.46
872.816	112.29
872.983	88.05
873.15	77.18
873.318	87.21
873.485	52.39
873.652	56.9
873.819	24.79
873.986	40.47
874.153	51.42
874.32	-17.87
874.487	49.28
874.654	-62.16
874.821	11.9
874.988	-552.18
875.155	-87.23
875.322	-100.37
875.489	12.28
875.656	-15.89
875.823	-4.11
875.99	225.59
876.157	-123.31
876.324	38.33
876.49	-42.09
876.657	6258.14
876.824	130.45
876.991	82.99
877.157	248.37
877.324	244.63
877.491	147.57
877.658	247.49
877.824	199.6
877.991	184.83
878.157	213.49
878.324	102.75
878.491	156.61
878.657	31.73
878.824	-136.02
878.99	3972.22
879.157	244.57
879.323	-894.81
879.49	-14.69
879.656	-580.44
879.823	-70.11
879.989	-23.99
880.156	1587.37
880.322	-995.06
880.488	-398.24
880.655	-75.65
880.821	137.53
880.987	18.56
881.154	-3.55
881.32	-26.14
881.486	15.6
881.652	-43.2
881.819	-31.53
881.985	-19.43
882.151	-6.91
882.317	-6.5
882.483	0.54
882.649	-1.36
882.816	-0.78
882.982	4.27
883.148	2.42
883.314	7.89
883.48	13.87
883.646	15.59
883.812	19.82
883.978	19.6
884.144	21.65
884.31	21.85
884.476	22.1
884.642	27.94
884.807	24.83
884.973	22.86
885.139	19.35
885.305	15.57
885.471	14.32
885.637	10.69
885.802	12.85
885.968	12.3
886.134	3.97
886.3	1.1
886.465	-7.16
886.631	-8.4
886.797	-4.3
886.962	-5.34
887.128	-5.93
887.293	5.3
887.459	13.9
887.625	2.87
887.79	-23.49
887.956	-21.16
888.121	-25.35
888.287	-30.69
888.452	-28.64
888.618	-27.86
888.783	-33.49
