Data from 2937813_Reflection_1.txt Node
Date: Wed Jul 15 17:42:07 EDT 2015
User: robert
Spectrometer: USB4E03001
Autoset integration time: false
Trigger mode: 4
Integration Time (sec): 1.000000E-1
Scans to average: 10
Electric dark correction enabled: true
Nonlinearity correction enabled: false
Boxcar width: 5
Stray light correction enabled: false
XAxis mode: Wavelengths
Stop averaging: false
Number of Pixels in Spectrum: 3648
>>>>>Begin Spectral Data<<<<<
177.566	392.65
177.785	15283.33
178.005	103.06
178.225	55.94
178.445	83.49
178.665	-95.19
178.885	1.52
179.105	-27.78
179.324	-392.09
179.544	116.12
179.764	116.75
179.984	419.15
180.204	-1992.52
180.423	499.6
180.643	-2115.94
180.863	-671.1
181.083	125.69
181.302	28.94
181.522	-49.35
181.742	-1.19
181.961	-104.57
182.181	-94.06
182.401	-32.71
182.621	72.74
182.84	-447.12
183.06	130.09
183.279	35.54
183.499	56.16
183.719	83.57
183.938	89.13
184.158	49.78
184.377	70.57
184.597	71.11
184.816	31.98
185.036	40.91
185.256	22.61
185.475	28.82
185.695	19.84
185.914	15.57
186.134	20.99
186.353	10.03
186.572	22.33
186.792	28.43
187.011	34.87
187.231	43.2
187.45	-6.49
187.67	-2.73
187.889	-6.75
188.108	9.75
188.328	5.48
188.547	5.51
188.766	-2.49
188.986	4
189.205	399.01
189.424	254.75
189.644	-1212.14
189.863	6.19
190.082	283.28
190.302	326.59
190.521	89.4
190.74	509.19
190.959	-105.31
191.178	546.7
191.398	-182.39
191.617	-40.5
191.836	2.99
192.055	-112.75
192.274	-22.3
192.494	-55.78
192.713	-4.4
192.932	13.86
193.151	-70.07
193.37	-612.78
193.589	-172.02
193.808	-280.45
194.027	157.37
194.246	-80.39
194.465	-22.62
194.685	432.76
194.904	-363.31
195.123	761.63
195.342	585.19
195.561	275.17
195.78	-55.86
195.999	26.89
196.218	-79.75
196.436	48.25
196.655	148.15
196.874	197.57
197.093	171.34
197.312	356.44
197.531	-16.86
197.75	154.57
197.969	112.83
198.188	105.65
198.407	76.32
198.625	235.57
198.844	939.21
199.063	-2320.83
199.282	69.7
199.501	-119.4
199.719	77.09
199.938	135.67
200.157	185.05
200.376	37.52
200.594	51.52
200.813	50.86
201.032	19.55
201.251	1.56
201.469	-17.85
201.688	-1407.3
201.907	164.23
202.125	384.31
202.344	-50.32
202.563	45.89
202.781	54.84
203	20.86
203.218	43.32
203.437	49.49
203.656	45.77
203.874	81.38
204.093	30.5
204.311	49.66
204.53	59.26
204.748	39.1
204.967	20.18
205.185	33.48
205.404	125.8
205.622	183.73
205.841	-300.85
206.059	-198.03
206.278	-273.27
206.496	101.72
206.715	104.91
206.933	6.39
207.151	-77.57
207.37	-1250.82
207.588	14.71
207.806	-1.3
208.025	0.27
208.243	77.31
208.461	42.7
208.68	229.24
208.898	251.49
209.116	369.58
209.335	204.72
209.553	1886.52
209.771	210.13
209.989	-71.07
210.208	100.66
210.426	180.34
210.644	91.6
210.862	109.32
211.081	84.7
211.299	82.33
211.517	121.47
211.735	109.11
211.953	135.73
212.171	141.67
212.39	69.58
212.608	45.46
212.826	69.18
213.044	120.43
213.262	-47.57
213.48	136.09
213.698	39225
213.916	82.43
214.134	26.43
214.352	-439.87
214.57	-159.09
214.788	654
215.006	-279.31
215.224	249.25
215.442	895.93
215.66	180.63
215.878	123.56
216.096	189.13
216.314	389.74
216.532	130.86
216.75	-109.37
216.968	4
217.185	-34.7
217.403	-37.3
217.621	-77.97
217.839	-96.86
218.057	-488.28
218.275	87.9
218.492	101.53
218.71	84.75
218.928	40.04
219.146	42.74
219.363	52.31
219.581	58.63
219.799	69.9
220.017	22.1
220.234	34.94
220.452	73.17
220.67	183.54
220.887	13.96
221.105	-217.09
221.323	-96.35
221.54	-177.94
221.758	259.43
221.976	139.79
222.193	-2.59
222.411	341.36
222.629	275.11
222.846	562.7
223.064	233.51
223.281	269.91
223.499	158.99
223.716	228.96
223.934	281.44
224.151	1772.95
224.369	5766.12
224.586	2031.27
224.804	-608.7
225.021	-304.17
225.239	-146.2
225.456	-81.22
225.674	-48.86
225.891	-20.59
226.108	10.87
226.326	7.65
226.543	-11.13
226.76	23.29
226.978	3.44
227.195	-15.83
227.413	-0.18
227.63	9.58
227.847	14.86
228.064	10.05
228.282	18.25
228.499	17.46
228.716	18.37
228.934	16.2
229.151	11.02
229.368	18.07
229.585	19.17
229.802	16.25
230.02	14.07
230.237	16.81
230.454	17.55
230.671	8.75
230.888	8.38
231.105	12.44
231.323	14.14
231.54	16.49
231.757	8.25
231.974	9.3
232.191	5.35
232.408	6.13
232.625	-0.04
232.842	-1.91
233.059	7.76
233.276	4.7
233.493	-0.4
233.71	-4.93
233.927	-8.07
234.144	-0.98
234.361	1.06
234.578	-1.74
234.795	-0.41
235.012	-0.42
235.229	-0.95
235.446	-0.88
235.663	-0.32
235.879	-8.32
236.096	-6.25
236.313	-3.52
236.53	-7.03
236.747	-9.85
236.964	-4.94
237.181	-8.66
237.397	-19.69
237.614	-20.6
237.831	-29
238.048	-24.44
238.264	-18.8
238.481	-8.21
238.698	-8.06
238.915	-2.92
239.131	-0.95
239.348	6.75
239.565	11.66
239.781	12.43
239.998	7.25
240.215	12.09
240.431	7.77
240.648	5.07
240.865	0.68
241.081	6.4
241.298	5.45
241.514	7.52
241.731	7.73
241.947	7.38
242.164	10.13
242.38	9.75
242.597	12.28
242.814	12.85
243.03	11.84
243.246	13.81
243.463	11.69
243.679	11.6
243.896	10.91
244.112	11.82
244.329	12.59
244.545	14.15
244.762	14.6
244.978	13.01
245.194	16.9
245.411	19.21
245.627	20.62
245.843	22.58
246.06	22
246.276	19.93
246.492	17.64
246.709	16.55
246.925	15.64
247.141	17.9
247.357	16.46
247.574	15.27
247.79	15.09
248.006	14.99
248.222	14.35
248.439	15.78
248.655	15.16
248.871	14.18
249.087	13.88
249.303	13.5
249.519	10.76
249.736	9.88
249.952	8.87
250.168	9.13
250.384	6.96
250.6	5.42
250.816	0.56
251.032	3.46
251.248	1.71
251.464	2.95
251.68	2.81
251.896	3.28
252.112	3.61
252.328	2.61
252.544	3.46
252.76	0.8
252.976	2.49
253.192	2.13
253.408	3.96
253.624	6
253.84	3.41
254.056	2.41
254.272	4.12
254.487	5.48
254.703	5.74
254.919	4.35
255.135	6.62
255.351	4.61
255.567	5.08
255.782	0.6
255.998	3.75
256.214	5.99
256.43	8.48
256.646	3.85
256.861	2.55
257.077	6.19
257.293	8.63
257.508	7.42
257.724	8.21
257.94	9.21
258.155	8.6
258.371	6.88
258.587	6.82
258.802	6.82
259.018	9.29
259.234	10.99
259.449	10.23
259.665	9.05
259.88	9.84
260.096	8.94
260.312	7.9
260.527	8.23
260.743	9.05
260.958	9.1
261.174	9.36
261.389	8.76
261.605	8.15
261.82	7.38
262.036	6.89
262.251	5.81
262.466	4.79
262.682	4.35
262.897	2.84
263.113	0.93
263.328	0.72
263.543	-1.26
263.759	-1.36
263.974	-2.73
264.189	-1.94
264.405	-0.75
264.62	0.55
264.835	3.78
265.051	6.61
265.266	10.08
265.481	8.65
265.696	11.78
265.912	13.19
266.127	12
266.342	11.71
266.557	10.53
266.773	10.44
266.988	11.27
267.203	9.81
267.418	9
267.633	7.9
267.848	8.6
268.064	6.62
268.279	6.3
268.494	7.59
268.709	8.78
268.924	9.1
269.139	9.42
269.354	8.87
269.569	9.85
269.784	9.66
269.999	10.12
270.214	12.1
270.429	11.22
270.644	9
270.859	9.77
271.074	8.96
271.289	7.65
271.504	8.24
271.719	9.25
271.934	8.58
272.149	8.44
272.363	8.19
272.578	7.36
272.793	8.54
273.008	10.73
273.223	9.27
273.438	9.62
273.653	10.66
273.867	10.78
274.082	10.66
274.297	11.3
274.512	11.24
274.726	10.15
274.941	11.22
275.156	12.25
275.371	11.26
275.585	9.73
275.8	8.87
276.015	8.52
276.229	6.23
276.444	3.56
276.659	4.96
276.873	6.57
277.088	7.32
277.302	6.19
277.517	3.51
277.732	1.93
277.946	4.79
278.161	7.05
278.375	7.26
278.59	7.35
278.804	7.62
279.019	4.26
279.233	4.49
279.448	4.37
279.662	3.26
279.877	5.06
280.091	4.51
280.306	4.76
280.52	5.41
280.735	5.41
280.949	5.73
281.163	7.39
281.378	7.21
281.592	7.67
281.806	7.72
282.021	9.5
282.235	7.78
282.449	8.88
282.664	9.56
282.878	10.02
283.092	11.12
283.307	12.43
283.521	12.16
283.735	13.39
283.949	10.03
284.164	11.2
284.378	10.5
284.592	11.56
284.806	13.16
285.02	12.65
285.234	11.61
285.449	11
285.663	10.35
285.877	10.81
286.091	10.5
286.305	11.55
286.519	11.52
286.733	10.92
286.947	9.78
287.161	9.53
287.375	9.31
287.589	8.83
287.803	9.81
288.017	9.87
288.231	9.42
288.445	9.04
288.659	9.55
288.873	10.21
289.087	10.64
289.301	12.07
289.515	12.97
289.729	13.79
289.943	13.43
290.157	13.13
290.371	11.54
290.584	13.23
290.798	12.76
291.012	13.62
291.226	12.51
291.44	13.36
291.654	11.8
291.867	11.42
292.081	9.55
292.295	11.17
292.509	11.59
292.722	12.67
292.936	10.18
293.15	13.33
293.364	12.86
293.577	13.35
293.791	13.07
294.005	13.2
294.218	8.6
294.432	10.69
294.645	9.08
294.859	8.43
295.073	10.26
295.286	10.04
295.5	8.94
295.713	8.46
295.927	8.79
296.14	9.38
296.354	8.95
296.568	10.89
296.781	10.66
296.994	10.92
297.208	11.1
297.421	10.25
297.635	9.58
297.848	8.61
298.062	8.57
298.275	9.22
298.489	10.09
298.702	11.16
298.915	11.63
299.129	11.58
299.342	11.98
299.555	13.19
299.769	13.39
299.982	15.52
300.195	15.36
300.409	14.62
300.622	14.64
300.835	12.4
301.048	12.09
301.262	13.05
301.475	12.55
301.688	11.63
301.901	9.58
302.115	9.6
302.328	9.21
302.541	11.54
302.754	13.76
302.967	12.76
303.18	13.81
303.393	13.19
303.607	12.62
303.82	12.66
304.033	12.54
304.246	13.21
304.459	12.36
304.672	11.98
304.885	10.02
305.098	8.93
305.311	10.29
305.524	8.87
305.737	9.24
305.95	8.9
306.163	8.53
306.376	7.77
306.589	7.41
306.802	7.95
307.015	7.38
307.228	9.76
307.44	11.2
307.653	10.46
307.866	9.4
308.079	11.27
308.292	11
308.505	10.88
308.718	13.78
308.93	13.33
309.143	14.37
309.356	14.36
309.569	12.53
309.781	11.93
309.994	9.87
310.207	12.16
310.42	10.59
310.632	10.03
310.845	10.65
311.058	8.86
311.27	8.48
311.483	7.16
311.696	7.07
311.908	8.29
312.121	7.15
312.333	8.19
312.546	6.31
312.759	7.59
312.971	7
313.184	6.72
313.396	7.28
313.609	6.6
313.821	7.64
314.034	7.04
314.246	4.56
314.459	5.44
314.671	6.41
314.884	7.75
315.096	5.02
315.309	6.72
315.521	6.01
315.733	5.17
315.946	6.22
316.158	5.61
316.371	7.58
316.583	10.72
316.795	9.82
317.008	8.05
317.22	6.9
317.432	7.97
317.644	9.27
317.857	6.98
318.069	7.95
318.281	8.68
318.494	8.18
318.706	8.06
318.918	7.94
319.13	8.67
319.342	10.56
319.555	10.71
319.767	11.46
319.979	10.76
320.191	14.18
320.403	13.24
320.615	13.99
320.827	14.34
321.039	14.71
321.252	13.67
321.464	13.53
321.676	13.23
321.888	15.39
322.1	15.59
322.312	15.53
322.524	13.96
322.736	15.46
322.948	15.14
323.16	14.28
323.372	12.11
323.584	14
323.796	13.69
324.007	14.03
324.219	12.75
324.431	13.82
324.643	12.84
324.855	14.71
325.067	13.87
325.279	13.66
325.491	14.59
325.702	15.64
325.914	14.42
326.126	15.33
326.338	13.15
326.55	12.85
326.761	10.76
326.973	11.67
327.185	12.19
327.396	12.11
327.608	12.36
327.82	13.01
328.032	13.76
328.243	12.62
328.455	12.2
328.666	13.38
328.878	13.93
329.09	14.03
329.301	12.55
329.513	8.94
329.725	8.56
329.936	8.73
330.148	8.8
330.359	7.33
330.571	7.98
330.782	7.54
330.994	7.64
331.205	8.92
331.417	9.55
331.628	10.27
331.84	13.32
332.051	15.14
332.262	16.22
332.474	15.64
332.685	14.36
332.897	13.96
333.108	14.05
333.319	13.31
333.531	11.7
333.742	12.63
333.953	12.86
334.165	12.26
334.376	12.11
334.587	10.7
334.799	12.33
335.01	15.15
335.221	15.77
335.432	15.56
335.644	16.05
335.855	15.7
336.066	16.22
336.277	15.47
336.488	14.79
336.7	13.83
336.911	14.95
337.122	13.93
337.333	14.53
337.544	14.8
337.755	16.54
337.966	15.63
338.177	15.32
338.388	15.76
338.599	16.24
338.811	17.81
339.022	17.8
339.233	17.01
339.444	16.3
339.655	14.62
339.866	14.07
340.076	11.85
340.287	13.53
340.498	15.61
340.709	14.67
340.92	13.95
341.131	11.98
341.342	11.14
341.553	11.6
341.764	11.9
341.975	11.99
342.185	10.75
342.396	11.33
342.607	10.91
342.818	9.53
343.029	10.42
343.239	11.48
343.45	11.41
343.661	10.73
343.872	9.64
344.082	9.6
344.293	8.61
344.504	10.89
344.714	10.83
344.925	11.86
345.136	13.05
345.346	11.97
345.557	11.76
345.768	12.58
345.978	14.7
346.189	13.29
346.399	12.73
346.61	14.01
346.821	12.42
347.031	12.9
347.242	9.42
347.452	8.76
347.663	8.29
347.873	6.95
348.084	7.66
348.294	6.15
348.504	8.06
348.715	9.42
348.925	10.01
349.136	11.75
349.346	9.1
349.557	12.35
349.767	12.84
349.977	13.41
350.188	14.31
350.398	14.17
350.608	13.65
350.819	12.73
351.029	11.15
351.239	10.95
351.449	10.85
351.66	11.93
351.87	11.34
352.08	10.43
352.29	10.02
352.501	8.69
352.711	7.86
352.921	7.98
353.131	10.47
353.341	9.49
353.552	10.01
353.762	9.89
353.972	11.63
354.182	11.36
354.392	12.55
354.602	13.44
354.812	13.96
355.022	15.91
355.232	16.33
355.442	14.64
355.652	16.48
355.862	14.69
356.072	12.89
356.282	11.45
356.492	11.51
356.702	10.91
356.912	10.53
357.122	11.93
357.332	10.94
357.542	10.86
357.752	11.3
357.962	10.95
358.171	11.54
358.381	12.6
358.591	13.03
358.801	13.74
359.011	13.06
359.221	13.12
359.43	13.27
359.64	12.76
359.85	13.36
360.06	11.6
360.269	12.02
360.479	11.1
360.689	11.33
360.899	10.8
361.108	10.47
361.318	11.53
361.528	11.19
361.737	10.41
361.947	10.35
362.156	10.19
362.366	11.12
362.576	10.59
362.785	10.94
362.995	10.82
363.204	11.36
363.414	11.25
363.623	11.23
363.833	11.37
364.042	11.97
364.252	12.09
364.461	12.24
364.671	12.4
364.88	11.63
365.09	11.95
365.299	11.98
365.509	12.05
365.718	11.96
365.927	11.01
366.137	10.97
366.346	10.54
366.555	9.99
366.765	9.34
366.974	9.59
367.183	9.67
367.393	10.39
367.602	9.93
367.811	9.82
368.021	10.36
368.23	10.47
368.439	9.35
368.648	9.19
368.857	8.78
369.067	9.31
369.276	8.94
369.485	9.63
369.694	8
369.903	7.91
370.112	8.3
370.321	8.02
370.531	7.73
370.74	8.16
370.949	8.49
371.158	8.95
371.367	8.66
371.576	8.77
371.785	9.04
371.994	9.76
372.203	10.28
372.412	9.96
372.621	9.02
372.83	8.54
373.039	8.61
373.248	8.7
373.457	8.58
373.666	8.72
373.874	9.71
374.083	9.82
374.292	9.27
374.501	8.28
374.71	8.48
374.919	8.84
375.128	8.86
375.336	9.31
375.545	8.73
375.754	8.23
375.963	7.6
376.171	6.49
376.38	6.5
376.589	7.01
376.798	7.73
377.006	7.35
377.215	7.49
377.424	7.64
377.632	7.41
377.841	7.5
378.05	8.88
378.258	8.89
378.467	9.04
378.675	8.65
378.884	8.49
379.093	8.39
379.301	8.68
379.51	9.06
379.718	9.68
379.927	10.64
380.135	10.68
380.344	10.39
380.552	11.96
380.761	12.15
380.969	12.85
381.177	12.94
381.386	13.25
381.594	12.91
381.803	13.14
382.011	12.74
382.219	11.86
382.428	12.2
382.636	11.68
382.845	10.98
383.053	10.82
383.261	10.08
383.469	9.84
383.678	9.49
383.886	9.38
384.094	8.55
384.302	8.64
384.511	8.6
384.719	7.88
384.927	8.22
385.135	7.83
385.343	8.04
385.552	8.22
385.76	8.05
385.968	7.83
386.176	7.6
386.384	7.36
386.592	7.47
386.8	7.51
387.008	7.9
387.216	7.91
387.424	8.08
387.633	7.89
387.841	7.68
388.049	7.71
388.257	7.52
388.465	7.69
388.672	8.03
388.88	7.46
389.088	7.5
389.296	7.06
389.504	6.63
389.712	6.66
389.92	6.74
390.128	6.99
390.336	6.9
390.544	7.14
390.751	7.52
390.959	7.35
391.167	7.21
391.375	6.92
391.583	7.48
391.79	7.44
391.998	6.73
392.206	6.27
392.414	5.72
392.621	5.53
392.829	5.35
393.037	5.45
393.244	5.15
393.452	5.7
393.66	5.41
393.867	5.21
394.075	4.96
394.283	5.21
394.49	5.2
394.698	5.24
394.905	5.24
395.113	5.39
395.32	4.8
395.528	5.24
395.735	5.18
395.943	5.2
396.15	5.05
396.358	5.58
396.565	5.48
396.773	5.68
396.98	5.45
397.188	5.51
397.395	5.62
397.602	5.62
397.81	5.17
398.017	4.53
398.225	4.76
398.432	4.87
398.639	4.7
398.847	5.21
399.054	5.12
399.261	5.44
399.468	5.73
399.676	5.63
399.883	6.15
400.09	6.43
400.297	6.53
400.505	6.62
400.712	6.31
400.919	6.15
401.126	5.69
401.333	6.18
401.54	6.31
401.748	6.37
401.955	6.33
402.162	5.84
402.369	5.95
402.576	6.53
402.783	6.52
402.99	6.38
403.197	6.54
403.404	6.56
403.611	6.26
403.818	6.45
404.025	6.23
404.232	5.94
404.439	6.31
404.646	6.28
404.853	6.07
405.06	6.02
405.267	6.25
405.474	6.36
405.681	6.49
405.887	6.35
406.094	6.1
406.301	6.05
406.508	5.95
406.715	5.68
406.922	5.46
407.128	5.56
407.335	5.5
407.542	5.32
407.749	4.79
407.955	4.74
408.162	4.65
408.369	4.91
408.575	5.16
408.782	5.43
408.989	5.5
409.195	5.43
409.402	5.33
409.609	5.49
409.815	5.16
410.022	5.39
410.228	5.5
410.435	5.63
410.642	5.42
410.848	5.16
411.055	5.21
411.261	5.23
411.468	5.57
411.674	5.21
411.881	5.14
412.087	5.5
412.294	5.51
412.5	5.35
412.706	5.26
412.913	5.36
413.119	5.09
413.326	4.95
413.532	4.62
413.738	4.29
413.945	4.68
414.151	4.49
414.357	4.32
414.564	4.7
414.77	4.36
414.976	4.52
415.182	4.17
415.389	4.6
415.595	4.59
415.801	4.94
416.007	5.23
416.214	5.15
416.42	5.33
416.626	5.64
416.832	5.46
417.038	5.84
417.244	5.88
417.45	6.07
417.657	5.9
417.863	6.13
418.069	6.1
418.275	6
418.481	5.82
418.687	5.91
418.893	5.7
419.099	5.66
419.305	5.44
419.511	5.42
419.717	5.54
419.923	5.6
420.129	5.6
420.335	5.82
420.541	5.76
420.746	5.79
420.952	5.8
421.158	5.87
421.364	5.79
421.57	5.92
421.776	5.99
421.982	5.81
422.187	5.76
422.393	5.76
422.599	5.52
422.805	5.5
423.01	5.56
423.216	5.43
423.422	5.47
423.628	5.47
423.833	5.46
424.039	5.33
424.245	5.44
424.45	5.45
424.656	5.37
424.862	5.42
425.067	5.47
425.273	5.48
425.478	5.35
425.684	5.32
425.889	5.37
426.095	4.99
426.301	5.1
426.506	4.91
426.712	5.05
426.917	5.14
427.123	5.04
427.328	4.87
427.533	4.92
427.739	5.37
427.944	5.26
428.15	5.32
428.355	5.57
428.561	5.43
428.766	5.65
428.971	5.36
429.177	5.25
429.382	5.19
429.587	5.29
429.793	5.09
429.998	4.72
430.203	4.82
430.408	4.69
430.614	5.2
430.819	5.21
431.024	5
431.229	5.31
431.434	5.3
431.64	5.33
431.845	5.53
432.05	5.58
432.255	5.52
432.46	5.32
432.665	5.39
432.87	5.17
433.076	5.15
433.281	5.28
433.486	5.01
433.691	4.96
433.896	5.05
434.101	5.03
434.306	5.23
434.511	5.29
434.716	5.36
434.921	5.41
435.126	5.28
435.331	5.27
435.535	5.34
435.74	5.46
435.945	5.55
436.15	5.38
436.355	5.27
436.56	5.21
436.765	5.27
436.97	5.3
437.174	5.46
437.379	5.48
437.584	5.52
437.789	5.48
437.993	5.43
438.198	5.3
438.403	5.29
438.608	5.23
438.812	5.23
439.017	5.19
439.222	5.42
439.426	5.19
439.631	5.15
439.836	5.07
440.04	5.11
440.245	5.08
440.45	5.21
440.654	5.26
440.859	5.38
441.063	5.41
441.268	5.38
441.472	5.35
441.677	5.32
441.881	5.43
442.086	5.58
442.29	5.62
442.495	5.68
442.699	5.66
442.904	5.57
443.108	5.78
443.312	5.48
443.517	5.54
443.721	5.36
443.925	5.57
444.13	5.67
444.334	5.52
444.538	5.15
444.743	5.23
444.947	5.2
445.151	5.24
445.356	4.94
445.56	5.12
445.764	5.11
445.968	5.1
446.173	5
446.377	4.81
446.581	5
446.785	5.35
446.989	5.36
447.193	5.21
447.398	5.3
447.602	5.31
447.806	5.43
448.01	5.47
448.214	5.4
448.418	5.47
448.622	5.54
448.826	5.25
449.03	5.14
449.234	5.06
449.438	5.17
449.642	5.34
449.846	5.54
450.05	5.27
450.254	5.27
450.458	5.43
450.662	5.32
450.866	5.31
451.069	5.46
451.273	5.38
451.477	5.34
451.681	5.32
451.885	5.06
452.089	4.92
452.292	5.27
452.496	5.25
452.7	5.39
452.904	5.31
453.107	5.51
453.311	5.52
453.515	5.45
453.719	5.56
453.922	5.53
454.126	5.62
454.33	5.57
454.533	5.5
454.737	5.61
454.94	5.64
455.144	5.66
455.348	5.61
455.551	5.46
455.755	5.41
455.958	5.34
456.162	5.53
456.365	5.44
456.569	5.34
456.772	5.25
456.976	5.08
457.179	5.08
457.383	5.09
457.586	4.82
457.79	4.88
457.993	5.02
458.196	5
458.4	5.1
458.603	4.95
458.807	5.03
459.01	4.99
459.213	5
459.417	4.71
459.62	4.74
459.823	4.78
460.026	4.74
460.23	4.82
460.433	4.92
460.636	4.74
460.839	4.85
461.042	4.96
461.246	4.87
461.449	4.85
461.652	5.06
461.855	5.19
462.058	5.41
462.261	5.45
462.464	5.34
462.668	5.11
462.871	5.35
463.074	5.3
463.277	5.01
463.48	5
463.683	5.09
463.886	5.02
464.089	4.91
464.292	4.81
464.495	4.84
464.698	4.7
464.901	4.91
465.104	4.76
465.306	4.87
465.509	5.13
465.712	5.29
465.915	5.22
466.118	5.18
466.321	5.16
466.524	5.06
466.726	5.24
466.929	5.49
467.132	5.45
467.335	5.46
467.538	5.48
467.74	5.4
467.943	5.45
468.146	5.46
468.348	5.55
468.551	5.42
468.754	5.47
468.956	5.3
469.159	5.29
469.362	5.17
469.564	5.24
469.767	5.14
469.969	5.01
470.172	4.83
470.375	5.01
470.577	5
470.78	5.06
470.982	4.85
471.185	4.92
471.387	4.68
471.59	4.73
471.792	4.69
471.995	4.79
472.197	4.88
472.399	5.1
472.602	4.94
472.804	4.87
473.007	4.88
473.209	5.01
473.411	4.9
473.614	4.96
473.816	5.09
474.018	4.97
474.22	5.04
474.423	5.08
474.625	4.92
474.827	4.7
475.03	4.78
475.232	4.87
475.434	5.02
475.636	5.13
475.838	5.33
476.04	5.25
476.243	5.37
476.445	5.37
476.647	5.42
476.849	5.59
477.051	5.78
477.253	5.75
477.455	5.8
477.657	5.64
477.859	5.64
478.061	5.53
478.263	5.39
478.465	5.41
478.667	5.41
478.869	5.34
479.071	5.34
479.273	5.19
479.475	5.13
479.677	5.11
479.879	5.21
480.081	5.21
480.283	5.17
480.485	5.54
480.686	5.54
480.888	5.4
481.09	5.35
481.292	5.26
481.494	5.2
481.695	5.3
481.897	5.26
482.099	5.27
482.301	5.31
482.502	5.27
482.704	5.08
482.906	5.04
483.107	5.04
483.309	5.05
483.511	5.1
483.712	5.21
483.914	5.13
484.115	5.14
484.317	5.15
484.519	5.16
484.72	5.16
484.922	5.2
485.123	5.2
485.325	5.24
485.526	5.26
485.728	5.24
485.929	5.25
486.131	5.37
486.332	5.41
486.534	5.39
486.735	5.34
486.936	5.42
487.138	5.32
487.339	5.34
487.541	5.35
487.742	5.3
487.943	5.24
488.144	5.14
488.346	5.02
488.547	4.98
488.748	4.91
488.95	4.94
489.151	4.89
489.352	4.98
489.553	4.99
489.755	5
489.956	5.03
490.157	5.01
490.358	5.07
490.559	5.2
490.76	5.15
490.961	5.21
491.163	5.15
491.364	5.13
491.565	5.09
491.766	5.08
491.967	5.05
492.168	5.05
492.369	5.15
492.57	5.2
492.771	5.14
492.972	5.14
493.173	5.1
493.374	5.16
493.575	5.27
493.776	5.26
493.976	5.24
494.177	5.14
494.378	5.22
494.579	5.21
494.78	5.18
494.981	5.13
495.182	5.23
495.382	5.35
495.583	5.28
495.784	5.09
495.985	5.23
496.185	5.19
496.386	5.31
496.587	5.24
496.788	5.14
496.988	5.17
497.189	5.24
497.39	5.16
497.59	5.18
497.791	5.17
497.992	5.31
498.192	5.21
498.393	5.28
498.593	5.21
498.794	5.16
498.994	5.23
499.195	5.19
499.395	5.32
499.596	5.37
499.796	5.33
499.997	5.28
500.197	5.32
500.398	5.38
500.598	5.26
500.799	5.34
500.999	5.35
501.199	5.23
501.4	5.16
501.6	4.96
501.801	5.04
502.001	4.97
502.201	4.99
502.402	4.83
502.602	4.84
502.802	4.97
503.002	5.07
503.203	5.04
503.403	5.09
503.603	5.2
503.803	5.32
504.003	5.33
504.204	5.36
504.404	5.6
504.604	5.76
504.804	5.73
505.004	5.64
505.204	5.57
505.404	5.8
505.604	5.81
505.804	5.85
506.005	5.89
506.205	5.88
506.405	5.93
506.605	5.83
506.805	5.85
507.005	5.88
507.204	6.02
507.404	6.08
507.604	6.11
507.804	6.09
508.004	6.03
508.204	6.03
508.404	6.01
508.604	5.94
508.804	5.97
509.003	5.82
509.203	5.74
509.403	5.76
509.603	5.76
509.803	5.76
510.002	5.76
510.202	5.67
510.402	5.6
510.602	5.71
510.801	5.86
511.001	5.79
511.201	5.92
511.4	6.08
511.6	6.05
511.8	6.07
511.999	6.01
512.199	6.09
512.398	6.23
512.598	6.25
512.797	6.16
512.997	6.1
513.197	6.26
513.396	6.29
513.596	6.38
513.795	6.41
513.994	6.46
514.194	6.29
514.393	6.29
514.593	6.27
514.792	6.35
514.992	6.61
515.191	6.59
515.39	6.55
515.59	6.57
515.789	6.48
515.988	6.53
516.188	6.51
516.387	6.63
516.586	6.58
516.786	6.63
516.985	6.73
517.184	6.59
517.383	6.52
517.582	6.45
517.782	6.47
517.981	6.43
518.18	6.37
518.379	6.33
518.578	6.37
518.777	6.42
518.976	6.5
519.176	6.46
519.375	6.46
519.574	6.53
519.773	6.47
519.972	6.37
520.171	6.34
520.37	6.34
520.569	6.27
520.768	6.31
520.967	6.29
521.166	6.15
521.365	6.04
521.564	6.13
521.762	6.17
521.961	6.28
522.16	6.27
522.359	6.43
522.558	6.51
522.757	6.5
522.956	6.58
523.154	6.56
523.353	6.6
523.552	6.68
523.751	6.5
523.949	6.66
524.148	6.7
524.347	6.92
524.546	6.96
524.744	7.03
524.943	7.25
525.142	7.14
525.34	7.28
525.539	7.23
525.737	7.19
525.936	7.34
526.135	7.31
526.333	7.28
526.532	7.16
526.73	7.23
526.929	7.13
527.127	7.13
527.326	7.21
527.524	7.34
527.723	7.4
527.921	7.45
528.12	7.47
528.318	7.48
528.516	7.55
528.715	7.56
528.913	7.55
529.112	7.61
529.31	7.63
529.508	7.64
529.707	7.54
529.905	7.56
530.103	7.56
530.301	7.57
530.5	7.55
530.698	7.55
530.896	7.59
531.094	7.58
531.293	7.57
531.491	7.55
531.689	7.64
531.887	7.76
532.085	7.81
532.283	7.91
532.481	7.91
532.68	7.87
532.878	7.85
533.076	7.94
533.274	7.92
533.472	8
533.67	7.95
533.868	7.95
534.066	7.83
534.264	7.95
534.462	7.91
534.66	7.92
534.858	8.02
535.056	8.09
535.253	8.07
535.451	8.16
535.649	8.19
535.847	8.45
536.045	8.43
536.243	8.45
536.441	8.37
536.638	8.45
536.836	8.54
537.034	8.55
537.232	8.58
537.43	8.61
537.627	8.56
537.825	8.46
538.023	8.31
538.22	8.39
538.418	8.56
538.616	8.5
538.813	8.48
539.011	8.46
539.209	8.57
539.406	8.63
539.604	8.8
539.801	8.93
539.999	9.09
540.196	9.03
540.394	9.08
540.591	9.19
540.789	9.29
540.986	9.32
541.184	9.25
541.381	9.25
541.579	9.21
541.776	9.26
541.974	9.31
542.171	9.32
542.368	9.43
542.566	9.42
542.763	9.42
542.96	9.45
543.158	9.48
543.355	9.6
543.552	9.65
543.75	9.58
543.947	9.58
544.144	9.46
544.341	9.5
544.539	9.47
544.736	9.55
544.933	9.5
545.13	9.5
545.327	9.53
545.524	9.62
545.722	9.69
545.919	10.01
546.116	9.99
546.313	10.03
546.51	10.1
546.707	10.29
546.904	10.37
547.101	10.52
547.298	10.5
547.495	10.58
547.692	10.6
547.889	10.55
548.086	10.49
548.283	10.66
548.48	10.88
548.677	10.91
548.874	10.75
549.07	10.67
549.267	10.76
549.464	10.98
549.661	11.03
549.858	11.06
550.055	11.17
550.251	11.39
550.448	11.23
550.645	11.15
550.842	11.29
551.038	11.52
551.235	11.74
551.432	11.67
551.628	11.62
551.825	11.68
552.022	11.74
552.218	11.89
552.415	11.9
552.612	11.87
552.808	12.09
553.005	11.82
553.201	12.05
553.398	12.17
553.594	12.18
553.791	12.3
553.987	12.41
554.184	12.33
554.38	12.25
554.577	12.25
554.773	12.51
554.97	12.47
555.166	12.87
555.362	12.53
555.559	12.53
555.755	12.71
555.952	12.79
556.148	12.5
556.344	12.8
556.541	12.93
556.737	12.93
556.933	13.01
557.129	13.08
557.326	12.96
557.522	13.5
557.718	13.59
557.914	13.6
558.11	13.69
558.307	13.92
558.503	14.09
558.699	14.17
558.895	14.46
559.091	14.51
559.287	14.55
559.483	14.9
559.679	14.82
559.876	14.82
560.072	14.96
560.268	15.11
560.464	15.34
560.66	15.42
560.856	15.45
561.052	15.19
561.247	15.17
561.443	15.23
561.639	15.24
561.835	15.23
562.031	15.32
562.227	15.37
562.423	15.5
562.619	15.64
562.815	15.52
563.01	15.81
563.206	16.13
563.402	16.24
563.598	16.49
563.793	16.44
563.989	16.59
564.185	16.8
564.381	16.75
564.576	16.84
564.772	16.87
564.968	17.13
565.163	17.17
565.359	17.19
565.555	17.36
565.75	17.31
565.946	17.44
566.141	17.43
566.337	17.5
566.532	17.92
566.728	17.69
566.923	17.84
567.119	17.82
567.314	17.8
567.51	17.8
567.705	17.9
567.901	18.04
568.096	18.15
568.292	18.25
568.487	18.28
568.682	18.14
568.878	18.44
569.073	18.46
569.268	18.63
569.464	18.73
569.659	18.72
569.854	18.62
570.05	18.65
570.245	18.54
570.44	18.55
570.635	18.45
570.831	18.37
571.026	18.3
571.221	18.51
571.416	18.63
571.611	18.75
571.806	18.92
572.002	19.09
572.197	19.43
572.392	19.67
572.587	19.81
572.782	19.97
572.977	20.14
573.172	20.41
573.367	20.37
573.562	20.38
573.757	20.41
573.952	20.4
574.147	20.4
574.342	20.31
574.537	20.27
574.732	20.28
574.927	20.53
575.121	20.66
575.316	20.59
575.511	20.68
575.706	20.7
575.901	20.98
576.096	21.02
576.29	21.18
576.485	21.05
576.68	21.29
576.875	21.58
577.069	21.41
577.264	21.5
577.459	21.32
577.654	21.12
577.848	21.26
578.043	20.95
578.238	21.08
578.432	21.23
578.627	21.38
578.821	21.37
579.016	21.22
579.21	21.21
579.405	20.96
579.6	21.33
579.794	21.68
579.989	21.9
580.183	22.04
580.378	22.17
580.572	21.79
580.766	21.79
580.961	21.65
581.155	21.69
581.35	21.76
581.544	21.93
581.738	21.76
581.933	21.65
582.127	21.51
582.321	21.45
582.516	21.53
582.71	21.78
582.904	21.84
583.099	21.86
583.293	21.91
583.487	22.05
583.681	22.21
583.875	22.48
584.07	22.81
584.264	22.87
584.458	22.82
584.652	22.81
584.846	22.85
585.04	22.9
585.234	23.06
585.428	23.04
585.623	22.87
585.817	22.96
586.011	23.14
586.205	23.13
586.399	23.06
586.593	23.46
586.787	23.63
586.981	23.64
587.174	23.68
587.368	23.67
587.562	23.65
587.756	23.82
587.95	23.77
588.144	23.64
588.338	23.64
588.532	23.8
588.725	23.73
588.919	23.66
589.113	23.79
589.307	23.78
589.501	23.9
589.694	23.94
589.888	24.16
590.082	24.12
590.275	23.98
590.469	23.96
590.663	23.88
590.856	23.73
591.05	23.82
591.244	23.91
591.437	23.95
591.631	23.64
591.824	23.78
592.018	23.54
592.212	23.63
592.405	23.79
592.599	23.98
592.792	23.93
592.986	24.24
593.179	24.29
593.372	23.94
593.566	23.75
593.759	24.09
593.953	24.27
594.146	24.19
594.339	24.4
594.533	24.58
594.726	24.12
594.92	24.1
595.113	24.11
595.306	24.31
595.499	24.82
595.693	25.14
595.886	25.12
596.079	25.07
596.272	25.17
596.466	25.23
596.659	25.02
596.852	25.21
597.045	25.3
597.238	25.16
597.431	25.01
597.624	24.95
597.818	24.97
598.011	25.21
598.204	25.26
598.397	25.49
598.59	25.36
598.783	25.7
598.976	26.08
599.169	26.13
599.362	26.07
599.555	26.16
599.748	26.04
599.941	25.95
600.134	25.6
600.326	25.57
600.519	25.45
600.712	25.37
600.905	25.25
601.098	24.65
601.291	24.69
601.483	24.82
601.676	24.87
601.869	25
602.062	25.29
602.255	25.35
602.447	25.45
602.64	25.55
602.833	25.6
603.025	25.59
603.218	25.86
603.411	25.81
603.603	26.03
603.796	26.14
603.989	26.32
604.181	26.01
604.374	26.13
604.566	26.02
604.759	26.11
604.951	26.18
605.144	26.34
605.336	26.47
605.529	26.53
605.721	26.36
605.914	26.17
606.106	26.06
606.299	26.27
606.491	26.5
606.683	26.53
606.876	26.28
607.068	26.27
607.26	26.14
607.453	25.91
607.645	26.28
607.837	26.43
608.03	26.4
608.222	26.29
608.414	26.21
608.606	25.98
608.799	26
608.991	26.01
609.183	26
609.375	25.99
609.567	26.19
609.759	25.78
609.952	25.91
610.144	25.93
610.336	26.15
610.528	26.36
610.72	26.55
610.912	26.69
611.104	26.98
611.296	27.03
611.488	27.07
611.68	26.93
611.872	27.16
612.064	27.15
612.256	27.43
612.448	27.16
612.64	26.97
612.832	26.78
613.023	26.55
613.215	26.2
613.407	26.08
613.599	25.98
613.791	26.01
613.983	25.77
614.174	25.88
614.366	25.78
614.558	25.68
614.75	25.7
614.941	25.75
615.133	25.81
615.325	26.25
615.516	26.17
615.708	26.49
615.9	26.62
616.091	26.75
616.283	26.65
616.475	26.74
616.666	26.92
616.858	26.88
617.049	26.85
617.241	26.99
617.432	26.52
617.624	26.75
617.815	26.72
618.007	26.9
618.198	26.76
618.39	26.55
618.581	26.38
618.773	26.55
618.964	26.44
619.155	26.58
619.347	26.72
619.538	26.84
619.729	26.87
619.921	26.87
620.112	26.99
620.303	27.36
620.494	27.6
620.686	27.83
620.877	27.62
621.068	27.96
621.259	28.05
621.451	27.71
621.642	27.69
621.833	28.09
622.024	28.14
622.215	28.26
622.406	28.25
622.597	28.57
622.788	28.59
622.98	28.85
623.171	28.56
623.362	28.46
623.553	28.68
623.744	29.35
623.935	29.18
624.126	29.02
624.317	28.5
624.508	28.47
624.698	28.03
624.889	27.82
625.08	27.64
625.271	27.85
625.462	27.82
625.653	27.62
625.844	27.21
626.034	27.06
626.225	27.12
626.416	27.28
626.607	27.35
626.798	27.58
626.988	27.65
627.179	27.87
627.37	27.77
627.56	28.18
627.751	28.33
627.942	28.33
628.132	28.42
628.323	28.3
628.514	28.31
628.704	28.27
628.895	27.99
629.085	28.14
629.276	28.12
629.466	28.18
629.657	27.74
629.847	28.06
630.038	28.32
630.228	28.05
630.419	28.28
630.609	28.31
630.8	28.18
630.99	28.28
631.181	28.3
631.371	27.93
631.561	27.92
631.752	27.86
631.942	28.01
632.132	27.75
632.323	27.94
632.513	27.91
632.703	27.92
632.893	28.03
633.084	27.99
633.274	27.78
633.464	28.04
633.654	28.08
633.844	28.06
634.034	27.73
634.225	27.59
634.415	27.43
634.605	27.21
634.795	27
634.985	26.89
635.175	26.73
635.365	26.86
635.555	27.04
635.745	27.27
635.935	27.33
636.125	27.36
636.315	27.69
636.505	27.91
636.695	28.17
636.885	28.46
637.075	28.5
637.265	28.97
637.455	29.06
637.644	29.17
637.834	29.03
638.024	28.82
638.214	28.85
638.404	28.39
638.593	28.3
638.783	28.4
638.973	28.29
639.163	28.54
639.352	28.41
639.542	28.64
639.732	28.66
639.921	28.99
640.111	28.89
640.301	28.5
640.49	28.75
640.68	28.92
640.87	28.49
641.059	28.51
641.249	28.44
641.438	28.27
641.628	28.01
641.817	27.58
642.007	27.41
642.196	27.81
642.386	28.15
642.575	28.29
642.764	28.06
642.954	28.64
643.143	28.73
643.333	28.26
643.522	28.12
643.711	27.9
643.901	28.21
644.09	27.81
644.279	27.51
644.469	27.91
644.658	28.1
644.847	28.2
645.036	28.12
645.226	27.78
645.415	28.24
645.604	28.79
645.793	28.75
645.982	28.65
646.171	28.96
646.361	29.18
646.55	28.91
646.739	28.99
646.928	28.91
647.117	28.91
647.306	29.15
647.495	29.13
647.684	28.69
647.873	28.39
648.062	28.47
648.251	28.06
648.44	28.19
648.629	28.34
648.818	28.45
649.007	28.63
649.196	28.73
649.384	28.19
649.573	28.22
649.762	28.71
649.951	28.96
650.14	28.3
650.328	28.79
650.517	28.73
650.706	28.44
650.895	28.24
651.083	28.16
651.272	28.08
651.461	28.52
651.65	28.57
651.838	28.21
652.027	28.21
652.216	28.64
652.404	28.66
652.593	28.74
652.781	28.81
652.97	28.65
653.158	28.66
653.347	28.33
653.535	27.93
653.724	27.3
653.912	27.57
654.101	28.04
654.289	27.82
654.478	27.66
654.666	27.55
654.855	27.54
655.043	27.73
655.231	27.49
655.42	27.54
655.608	27.65
655.796	28.2
655.985	27.93
656.173	27.36
656.361	27.95
656.55	27.86
656.738	28.29
656.926	28.08
657.114	27.83
657.302	28.12
657.491	28.4
657.679	29.05
657.867	29.12
658.055	29.15
658.243	29.63
658.431	29.47
658.619	29.42
658.807	29.31
658.996	29.85
659.184	29.96
659.372	30.24
659.56	30.14
659.748	30.01
659.936	30.09
660.124	30.49
660.311	30.14
660.499	30.18
660.687	30.63
660.875	30.53
661.063	30.21
661.251	30.03
661.439	29.62
661.627	29.73
661.814	29.7
662.002	29.78
662.19	29.62
662.378	29.89
662.565	29.97
662.753	29.34
662.941	28.91
663.129	28.65
663.316	29.08
663.504	29.04
663.692	28.57
663.879	28.86
664.067	28.87
664.254	28.83
664.442	28.53
664.63	28.62
664.817	28.94
665.005	29.56
665.192	29.99
665.38	29.54
665.567	29.3
665.755	29.96
665.942	30.01
666.13	30.07
666.317	30.33
666.504	30.72
666.692	30.38
666.879	30.17
667.067	29.8
667.254	29.54
667.441	29.71
667.629	30.4
667.816	30.08
668.003	29.81
668.19	29.73
668.378	29.5
668.565	29.01
668.752	29.05
668.939	29.28
669.127	29.82
669.314	30.3
669.501	30.4
669.688	30
669.875	30.14
670.062	29.83
670.249	29.4
670.436	29.39
670.623	29.94
670.81	29.71
670.997	29.72
671.184	28.96
671.371	29.01
671.558	29.32
671.745	29.66
671.932	29.5
672.119	29.81
672.306	30.15
672.493	30.28
672.68	29.93
672.867	30.37
673.054	29.93
673.24	30.9
673.427	30.19
673.614	29.92
673.801	29.49
673.988	30.03
674.174	30.1
674.361	29.63
674.548	29.87
674.734	30.04
674.921	29.77
675.108	29.99
675.294	29.43
675.481	29.35
675.668	29.27
675.854	29.64
676.041	28.82
676.227	28.8
676.414	29.24
676.601	28.88
676.787	29.05
676.974	29.64
677.16	29.95
677.347	29.98
677.533	30.37
677.719	30.2
677.906	30.22
678.092	30.29
678.279	30.18
678.465	30.3
678.651	30.58
678.838	30.83
679.024	30.4
679.21	30.34
679.397	30.46
679.583	30.57
679.769	30.93
679.955	30.9
680.142	31.22
680.328	30.94
680.514	31.01
680.7	30.59
680.886	30.57
681.073	30.75
681.259	30.67
681.445	30.62
681.631	30.55
681.817	30.45
682.003	30.43
682.189	30.52
682.375	30.71
682.561	30.6
682.747	30.25
682.933	29.87
683.119	29.68
683.305	29.78
683.491	29.96
683.677	30.42
683.863	31.17
684.049	31.52
684.235	31.52
684.42	31.63
684.606	31.77
684.792	32.95
684.978	33.21
685.164	33.66
685.349	33.48
685.535	33.36
685.721	32.62
685.907	31.88
686.092	31.76
686.278	31.67
686.464	31.61
686.649	31.33
686.835	30.19
687.021	29.8
687.206	29.08
687.392	29.5
687.577	29.36
687.763	29.62
687.948	29.83
688.134	30.02
688.319	30.77
688.505	30.96
688.69	31.21
688.876	31.66
689.061	31.68
689.247	31.89
689.432	31.69
689.618	31.62
689.803	31.7
689.988	31.46
690.174	30.81
690.359	30.25
690.544	30.15
690.73	30.64
690.915	31.09
691.1	31.62
691.285	32.01
691.471	32.15
691.656	32.6
691.841	32.71
692.026	32.69
692.211	32.8
692.396	32.49
692.582	32.56
692.767	31.8
692.952	30.58
693.137	30.86
693.322	30.54
693.507	30.31
693.692	29.79
693.877	29.26
694.062	29.47
694.247	29.49
694.432	29.55
694.617	29.43
694.802	29.8
694.987	31.02
695.172	30.67
695.357	31.25
695.541	31.74
695.726	31.59
695.911	31.75
696.096	32.08
696.281	32.47
696.466	32.71
696.65	32.83
696.835	32.93
697.02	32.88
697.204	32.63
697.389	32.65
697.574	32.08
697.759	32.76
697.943	33.13
698.128	32.78
698.312	32.94
698.497	33.07
698.682	32.99
698.866	33.22
699.051	32.95
699.235	33.05
699.42	32.67
699.604	32.63
699.789	32.16
699.973	31.89
700.158	31.87
700.342	31.76
700.527	31.57
700.711	31.76
700.895	31.34
701.08	31.43
701.264	31.53
701.448	31.35
701.633	31.91
701.817	31.95
702.001	32.1
702.186	31.09
702.37	30.5
702.554	30.13
702.738	30.62
702.923	30.11
703.107	29.41
703.291	29.1
703.475	29.79
703.659	29.5
703.843	29.3
704.027	29.3
704.212	30.55
704.396	30.46
704.58	30.79
704.764	30.05
704.948	30.26
705.132	30.37
705.316	30.44
705.5	30.57
705.684	30.8
705.868	31.06
706.052	30.64
706.235	30.74
706.419	30.78
706.603	30.9
706.787	31.02
706.971	31.69
707.155	32.43
707.339	32.02
707.522	31.2
707.706	31.11
707.89	30.95
708.074	30.87
708.257	30.93
708.441	31.23
708.625	31.09
708.808	30.91
708.992	30.45
709.176	30.41
709.359	31.04
709.543	32.55
709.727	31.95
709.91	31.78
710.094	32.01
710.277	31.81
710.461	32.2
710.644	32.51
710.828	32.62
711.011	32.82
711.195	32.5
711.378	32.43
711.562	31.14
711.745	31.8
711.928	32.3
712.112	32.23
712.295	32.57
712.478	32.54
712.662	32.45
712.845	32.31
713.028	31.54
713.212	32.19
713.395	31.86
713.578	32.53
713.761	31.71
713.945	30.71
714.128	31.36
714.311	30.78
714.494	30.8
714.677	30.42
714.86	31.12
715.043	31.44
715.227	30.6
715.41	31.56
715.593	31.29
715.776	32.71
715.959	33.62
716.142	33.15
716.325	32.9
716.508	32.78
716.691	33.32
716.874	32.95
717.057	32.95
717.239	34.21
717.422	33.34
717.605	33.03
717.788	32.48
717.971	32.77
718.154	32.89
718.337	33.86
718.519	33.71
718.702	32.88
718.885	31.81
719.068	32.81
719.25	31.53
719.433	31.26
719.616	30.52
719.798	30.46
719.981	30.71
720.164	30.15
720.346	29.38
720.529	29.03
720.712	29.16
720.894	28.98
721.077	27.92
721.259	28.26
721.442	27.99
721.624	28.63
721.807	28.8
721.989	28.89
722.172	29.69
722.354	29.08
722.537	30.49
722.719	31.25
722.901	33.5
723.084	34.28
723.266	34.27
723.448	35.13
723.631	35.3
723.813	34.41
723.995	33.49
724.178	33.35
724.36	34.73
724.542	32.84
724.724	31.88
724.907	29.92
725.089	29.42
725.271	28.9
725.453	28.51
725.635	29.13
725.817	29.1
725.999	29.41
726.181	28.96
726.364	28.29
726.546	27.97
726.728	28.27
726.91	29.22
727.092	28.53
727.274	28.07
727.456	28.39
727.638	28.02
727.819	29.13
728.001	28.99
728.183	28.82
728.365	29.75
728.547	30.4
728.729	30.88
728.911	31.34
729.093	31.64
729.274	33.45
729.456	32.38
729.638	31.69
729.82	31.19
730.001	30.71
730.183	29.68
730.365	28.24
730.546	28.87
730.728	28.89
730.91	28.37
731.091	28.87
731.273	28.16
731.455	29.63
731.636	30.94
731.818	31.28
731.999	31.83
732.181	33.27
732.362	33.02
732.544	33.36
732.725	32.88
732.907	33.59
733.088	33.23
733.27	32.86
733.451	32.65
733.633	32.46
733.814	32.6
733.995	32.03
734.177	32.59
734.358	33.79
734.539	32.44
734.721	32.24
734.902	31.19
735.083	31.59
735.264	31.3
735.446	30.72
735.627	30.08
735.808	29.03
735.989	28.2
736.17	26.71
736.351	25.8
736.533	26.19
736.714	25.33
736.895	26.34
737.076	26.17
737.257	27.35
737.438	28.1
737.619	28.7
737.8	29.08
737.981	31.44
738.162	31.64
738.343	31.23
738.524	31.64
738.705	33.01
738.886	32.81
739.067	33.01
739.247	32.56
739.428	31.61
739.609	31.13
739.79	30.44
739.971	28.78
740.151	29.72
740.332	30.58
740.513	30.43
740.694	31.14
740.874	31.54
741.055	30.82
741.236	30.9
741.417	31.59
741.597	30.74
741.778	31.68
741.958	32.1
742.139	31.26
742.32	30.46
742.5	29.78
742.681	28.63
742.861	26.84
743.042	27.63
743.222	27.25
743.403	26.6
743.583	27.8
743.764	26.42
743.944	27.55
744.124	27.53
744.305	28.75
744.485	29.41
744.666	29.09
744.846	29.67
745.026	29.48
745.207	29.73
745.387	30.43
745.567	31.17
745.747	32.15
745.928	31.05
746.108	31.2
746.288	29.99
746.468	31.67
746.648	33.74
746.829	33.89
747.009	33.06
747.189	33.62
747.369	34.3
747.549	33.01
747.729	32.49
747.909	32.09
748.089	31.96
748.269	32.53
748.449	31.41
748.629	30.02
748.809	30.1
748.989	30.16
749.169	30.07
749.349	29.12
749.529	28.69
749.709	29.41
749.889	29.06
750.068	28.98
750.248	29.4
750.428	29.5
750.608	28.91
750.788	27.94
750.967	29.66
751.147	27.94
751.327	28.14
751.507	28.6
751.686	27.81
751.866	28.62
752.046	30.55
752.225	30.16
752.405	29.6
752.585	30.13
752.764	31.9
752.944	30.75
753.123	31.24
753.303	29.98
753.482	29.87
753.662	31.41
753.841	30.8
754.021	27.68
754.2	28.63
754.38	27.81
754.559	28.06
754.739	27.61
754.918	26.86
755.097	26.12
755.277	25.56
755.456	26.31
755.635	24.01
755.815	24.75
755.994	25.78
756.173	24.76
756.352	26.69
756.532	27.16
756.711	27.9
756.89	27.75
757.069	30.06
757.248	31.25
757.427	31.71
757.607	35.23
757.786	34.41
757.965	34.92
758.144	35.55
758.323	34.41
758.502	32.65
758.681	32.51
758.86	33.16
759.039	30.31
759.218	30.27
759.397	29.22
759.576	27.41
759.755	27.59
759.934	26.21
760.113	24.52
760.291	23.23
760.47	24.6
760.649	22.39
760.828	23.08
761.007	26.03
761.186	27.4
761.364	27.92
761.543	27.26
761.722	28.78
761.901	30.46
762.079	31.46
762.258	32.52
762.437	32.08
762.615	32.58
762.794	33.02
762.972	32.28
763.151	31.65
763.33	31.56
763.508	32.47
763.687	32.44
763.865	31.82
764.044	32.23
764.222	32.33
764.401	32.13
764.579	32.55
764.758	32.21
764.936	31.82
765.114	31.15
765.293	31.34
765.471	31.46
765.65	30.24
765.828	30.32
766.006	29.68
766.184	29.42
766.363	30.12
766.541	29.07
766.719	28.31
766.898	28.54
767.076	28.91
767.254	27.59
767.432	27.17
767.61	28.08
767.788	28.64
767.967	29.15
768.145	29.39
768.323	29.43
768.501	30.17
768.679	30.3
768.857	31.77
769.035	31.55
769.213	34.19
769.391	34.12
769.569	33.29
769.747	33.35
769.925	32.72
770.103	33.05
770.281	31.51
770.459	31.98
770.636	33.16
770.814	31.85
770.992	33
771.17	29.85
771.348	27.74
771.525	26.82
771.703	26.14
771.881	24.89
772.059	25.29
772.236	26.03
772.414	25.89
772.592	24.33
772.769	24.89
772.947	26.36
773.125	27.86
773.302	28.86
773.48	31.82
773.657	31.81
773.835	33.73
774.013	30.91
774.19	29.65
774.368	30.83
774.545	31.47
774.723	32.04
774.9	31.02
775.077	32
775.255	33.84
775.432	32.51
775.61	33.72
775.787	34.28
775.964	35.58
776.142	37.94
776.319	36.92
776.496	36.3
776.674	35.08
776.851	33.81
777.028	35.17
777.205	35.97
777.382	37.39
777.56	34.72
777.737	32.92
777.914	33.14
778.091	32.09
778.268	33.32
778.445	34.76
778.622	36
778.8	37.94
778.977	34.9
779.154	33.54
779.331	32.14
779.508	34.15
779.685	34.49
779.862	33.98
780.038	33.22
780.215	29.76
780.392	30.03
780.569	29.13
780.746	24.89
780.923	26.15
781.1	27.58
781.277	27.45
781.453	28.14
781.63	27.13
781.807	28.57
781.984	29
782.16	30.8
782.337	30.41
782.514	28.79
782.691	31.48
782.867	29.07
783.044	23.85
783.221	21.22
783.397	20.99
783.574	23.61
783.75	24.89
783.927	25.92
784.103	24.94
784.28	20.35
784.456	21.55
784.633	21.05
784.809	21.65
784.986	26.35
785.162	29.28
785.339	29.82
785.515	28.52
785.692	28
785.868	29.79
786.044	29.88
786.221	33.22
786.397	32.07
786.573	32.7
786.749	35.28
786.926	35.27
787.102	31.66
787.278	29.82
787.454	28.71
787.631	27.25
787.807	26.15
787.983	27.01
788.159	29.07
788.335	31.97
788.511	32.17
788.687	29.99
788.863	28.69
789.039	32.87
789.216	33.53
789.392	34.8
789.568	32.19
789.744	31.53
789.919	33.29
790.095	30.43
790.271	27.17
790.447	25.4
790.623	26.85
790.799	27.07
790.975	27.02
791.151	26.66
791.327	27.02
791.502	30.37
791.678	29.98
791.854	27.42
792.03	28.92
792.205	31.13
792.381	32.19
792.557	32.73
792.733	31.98
792.908	28.97
793.084	29.18
793.259	30.27
793.435	32.65
793.611	27.42
793.786	27.61
793.962	25.32
794.137	23.52
794.313	22.55
794.488	23.21
794.664	23.66
794.839	23.63
795.015	22.95
795.19	21
795.366	20.31
795.541	27.55
795.716	26.17
795.892	28.58
796.067	28.51
796.242	28.94
796.418	30.74
796.593	30.54
796.768	31.44
796.944	33.11
797.119	35.22
797.294	34.59
797.469	32.66
797.644	33.27
797.82	34.55
797.995	36.13
798.17	38.55
798.345	36.24
798.52	37.57
798.695	44.8
798.87	43.47
799.045	41.09
799.22	41.88
799.395	40.52
799.57	41.26
799.745	39.42
799.92	36.91
800.095	37.49
800.27	35.6
800.445	32.16
800.62	25.16
800.795	26.58
800.97	28.37
801.145	23.81
801.319	23.99
801.494	23.63
801.669	24.65
801.844	26.8
802.018	24.56
802.193	25.76
802.368	32.47
802.543	31.75
802.717	30.44
802.892	30.12
803.067	36.78
803.241	35.22
803.416	36.7
803.59	35.26
803.765	36.51
803.94	36.11
804.114	34.99
804.289	35.43
804.463	35.59
804.638	28.91
804.812	26.43
804.986	22.91
805.161	25.62
805.335	24.2
805.51	23.35
805.684	22.54
805.858	24.48
806.033	26.31
806.207	22.33
806.381	21.52
806.556	28.27
806.73	28.16
806.904	26.26
807.078	22.15
807.253	22.06
807.427	21.05
807.601	20.23
807.775	20.75
807.949	18.64
808.123	14.04
808.298	15.08
808.472	21.98
808.646	30.29
808.82	26.3
808.994	32.77
809.168	35.04
809.342	38.13
809.516	40.51
809.69	32.4
809.864	33.75
810.038	40.61
810.212	45.78
810.385	39.75
810.559	35.59
810.733	37.35
810.907	33.29
811.081	30.09
811.255	25.94
811.428	27.78
811.602	29.03
811.776	28.73
811.95	22.81
812.123	20.16
812.297	21.48
812.471	18.68
812.644	23.3
812.818	28.15
812.992	27.53
813.165	31.44
813.339	32.54
813.512	37.08
813.686	37.87
813.86	36.83
814.033	34.97
814.207	33.21
814.38	35.54
814.554	39.7
814.727	37.65
814.9	40.15
815.074	39.1
815.247	32.95
815.421	27.72
815.594	27.68
815.767	32.01
815.941	26.73
816.114	25.79
816.287	26.76
816.46	16.3
816.634	12.46
816.807	5.2
816.98	14.05
817.153	20.41
817.327	26.81
817.5	27.03
817.673	24.61
817.846	26.69
818.019	24.57
818.192	25.46
818.365	24.73
818.538	24.31
818.711	31.19
818.884	25.71
819.057	26.09
819.23	30.89
819.403	35.41
819.576	31.79
819.749	35.6
819.922	37.12
820.095	34.71
820.268	37.95
820.441	36.99
820.614	37.18
820.786	37.27
820.959	34.82
821.132	33.03
821.305	30.94
821.477	32.95
821.65	31.67
821.823	32.87
821.996	33.33
822.168	33.19
822.341	33.48
822.514	34.17
822.686	33.33
822.859	33.39
823.031	32.96
823.204	32.38
823.376	32.07
823.549	32.73
823.722	32.4
823.894	32.43
824.067	31.89
824.239	32.01
824.411	31.36
824.584	31.56
824.756	30.8
824.929	30.32
825.101	30.97
825.273	32.44
825.446	31.75
825.618	30.68
825.79	29.55
825.963	29.71
826.135	29.56
826.307	30.28
826.479	31.4
826.652	33.42
826.824	34.46
826.996	35.16
827.168	33.4
827.34	34.18
827.512	34.88
827.684	35.5
827.856	35.48
828.029	35.04
828.201	34.67
828.373	33.34
828.545	31.19
828.717	30.9
828.889	30.69
829.061	30.58
829.232	30.57
829.404	30.12
829.576	30.91
829.748	32.86
829.92	31.73
830.092	31.23
830.264	32.03
830.436	31.59
830.607	28.03
830.779	25.49
830.951	23.44
831.123	17.51
831.294	17.21
831.466	19.65
831.638	19.14
831.809	23.52
831.981	20.23
832.153	18.61
832.324	17.24
832.496	22.37
832.667	19.88
832.839	19.71
833.011	21.79
833.182	18.06
833.354	12.58
833.525	12.86
833.697	10.51
833.868	13.24
834.039	13.51
834.211	17.91
834.382	17.2
834.554	21.1
834.725	24.57
834.896	28.93
835.068	29.81
835.239	31.74
835.41	30.89
835.581	32.29
835.753	32.42
835.924	35.16
836.095	34.27
836.266	34.12
836.438	35.2
836.609	36.04
836.78	29.84
836.951	35.48
837.122	30.35
837.293	28.48
837.464	32.64
837.635	34.32
837.806	35.69
837.977	35.8
838.148	34.65
838.319	27.37
838.49	25.72
838.661	27.45
838.832	19.39
839.003	25.21
839.174	28.35
839.345	23.3
839.516	19.79
839.687	14.21
839.857	14.87
840.028	16.08
840.199	14.86
840.37	14.25
840.54	15.79
840.711	15.7
840.882	17.1
841.053	9.23
841.223	6.32
841.394	7.89
841.564	4.62
841.735	6.01
841.906	13.82
842.076	13.87
842.247	5.52
842.417	-1.73
842.588	-6.49
842.758	-1.17
842.929	7.78
843.099	13.19
843.27	17.55
843.44	26.67
843.611	27.16
843.781	25.14
843.951	31.09
844.122	33.43
844.292	31.21
844.462	42.76
844.633	38.8
844.803	38.43
844.973	38.46
845.144	39.37
845.314	40.38
845.484	42.02
845.654	28.21
845.824	26.88
845.995	40.81
846.165	47.63
846.335	29.26
846.505	20.62
846.675	32.36
846.845	39.32
847.015	41.84
847.185	20.07
847.355	16.3
847.525	42.37
847.695	12.28
847.865	11.76
848.035	19.25
848.205	39.67
848.375	38.7
848.545	31.41
848.715	25.33
848.884	6.69
849.054	18.7
849.224	13.59
849.394	-5.28
849.564	34.02
849.733	9.35
849.903	-8.13
850.073	-39.5
850.243	-25.85
850.412	-25.09
850.582	-51.65
850.752	-31.48
850.921	-57.81
851.091	-81.1
851.26	-216.32
851.43	-157.15
851.599	-495.26
851.769	-1478.04
851.939	-470.41
852.108	-2821.24
852.278	885.52
852.447	2185.97
852.616	593.45
852.786	2618.43
852.955	-1224.59
853.125	-445.33
853.294	-461.98
853.463	-233.67
853.633	-68.24
853.802	-29.17
853.971	-14.8
854.141	-6.36
854.31	14.76
854.479	11.26
854.648	28.3
854.818	30.35
854.987	38.7
855.156	34.1
855.325	38
855.494	31.88
855.663	28.14
855.832	30.19
856.001	29.96
856.171	31.62
856.34	37.66
856.509	37.15
856.678	44.34
856.847	39.19
857.016	44.64
857.185	37.74
857.353	31.32
857.522	5.6
857.691	12.17
857.86	11.92
858.029	23.49
858.198	26.79
858.367	22.56
858.535	-1.7
858.704	-10.81
858.873	-11.77
859.042	12.12
859.21	42.18
859.379	59.4
859.548	51.3
859.717	38
859.885	37.51
860.054	33.75
860.222	34.73
860.391	41.28
860.56	56.81
860.728	48.3
860.897	41.62
861.065	21.45
861.234	17.47
861.402	31.82
861.571	39.2
861.739	28.91
861.908	1.85
862.076	-13.03
862.244	-14.25
862.413	-34.55
862.581	-31.83
862.749	-45.12
862.918	-34.28
863.086	-9.01
863.254	-20.24
863.423	-29.17
863.591	-21.71
863.759	-10.46
863.927	-3.91
864.096	-11.96
864.264	-30.83
864.432	-63.55
864.6	-46.78
864.768	-21.17
864.936	-18.59
865.104	-23.45
865.272	-9.47
865.44	7.85
865.608	2.19
865.776	11.15
865.944	23.4
866.112	40.69
866.28	54.86
866.448	51.12
866.616	98.37
866.784	106.74
866.952	89.42
867.12	70.73
867.288	89.3
867.455	114.7
867.623	98.04
867.791	81.21
867.959	33.58
868.127	29.91
868.294	6.88
868.462	-3.06
868.63	-0.46
868.797	-1.44
868.965	-2.25
869.133	-15.76
869.3	-19.38
869.468	-13.74
869.636	-25.04
869.803	-10.34
869.971	-9.94
870.138	10.42
870.306	18.84
870.473	-32.69
870.641	-16.6
870.808	-26.58
870.975	-50.51
871.143	-70.03
871.31	-92.32
871.478	-72.33
871.645	-118.85
871.812	-118.45
871.98	-58.44
872.147	-53.85
872.314	-22.79
872.482	-26.36
872.649	3.12
872.816	0.7
872.983	2.76
873.15	-2.9
873.318	-89.11
873.485	-23.53
873.652	-27.58
873.819	-266.39
873.986	-95.2
874.153	733.74
874.32	185.27
874.487	158.62
874.654	213.57
874.821	-100
874.988	141.57
875.155	91.96
875.322	74.64
875.489	73.08
875.656	56.04
875.823	47.65
875.99	107.78
876.157	75.49
876.324	50.31
876.49	7.92
876.657	29.89
876.824	18
876.991	29.05
877.157	19.57
877.324	19.5
877.491	29.2
877.658	23.2
877.824	36.77
877.991	8.92
878.157	28.09
878.324	33.01
878.491	-5.94
878.657	26.36
878.824	-15.94
878.99	-6.94
879.157	-1.63
879.323	8.61
879.49	28.07
879.656	-22.6
879.823	2.18
879.989	-48.99
880.156	-71.95
880.322	-55.75
880.488	-118.92
880.655	-200.66
880.821	-16.42
880.987	3.01
881.154	-15.42
881.32	-8.95
881.486	-10.36
881.652	-3.03
881.819	6.55
881.985	18.8
882.151	23.02
882.317	20.7
882.483	32.98
882.649	29.16
882.816	29.72
882.982	33.75
883.148	31.2
883.314	31.73
883.48	31.09
883.646	27.79
883.812	28.9
883.978	32.81
884.144	31.09
884.31	28.23
884.476	25.38
884.642	20.62
884.807	19.66
884.973	22.31
885.139	23.37
885.305	23.4
885.471	29.13
885.637	29.22
885.802	20.06
885.968	22.6
886.134	23.04
886.3	25.25
886.465	25.11
886.631	23.49
886.797	20.16
886.962	15.2
887.128	14.47
887.293	8.41
887.459	14.77
887.625	27.54
887.79	26.03
887.956	30.91
888.121	28.2
888.287	45.6
888.452	47.01
888.618	53.43
888.783	59.64
