Data from 2937813_Reflection_3.txt Node
Date: Wed Jul 15 17:42:29 EDT 2015
User: robert
Spectrometer: USB4E03001
Autoset integration time: false
Trigger mode: 4
Integration Time (sec): 1.000000E-1
Scans to average: 10
Electric dark correction enabled: true
Nonlinearity correction enabled: false
Boxcar width: 5
Stray light correction enabled: false
XAxis mode: Wavelengths
Stop averaging: false
Number of Pixels in Spectrum: 3648
>>>>>Begin Spectral Data<<<<<
177.566	656.93
177.785	14875
178.005	127.55
178.225	170.46
178.445	134.93
178.665	270.86
178.885	86.04
179.105	-106.6
179.324	-848.42
179.544	346.48
179.764	323.93
179.984	762.79
180.204	-3000
180.423	1145.53
180.643	-8426.09
180.863	-3849.13
181.083	-1248.61
181.302	-486.74
181.522	-206.61
181.742	-163.39
181.961	-183.18
182.181	-60.74
182.401	-299.07
182.621	-145.34
182.84	1723.56
183.06	2832.74
183.279	-18.23
183.499	0.99
183.719	44.81
183.938	4.09
184.158	15.29
184.377	39.81
184.597	47.72
184.816	54.27
185.036	44.83
185.256	57.48
185.475	55.99
185.695	54.51
185.914	54.39
186.134	35.8
186.353	31.41
186.572	29.79
186.792	29.76
187.011	39.88
187.231	30.62
187.45	24.43
187.67	32.17
187.889	12.15
188.108	46.16
188.328	26.74
188.547	43.19
188.766	101.42
188.986	380
189.205	-196.54
189.424	-129.93
189.644	261.27
189.863	116.46
190.082	465.35
190.302	407.65
190.521	107.25
190.74	491.93
190.959	-376.12
191.178	662.44
191.398	-264.96
191.617	-49.56
191.836	-19.82
192.055	-98.83
192.274	2.22
192.494	-35.04
192.713	-1.91
192.932	31.89
193.151	-56.46
193.37	-342.22
193.589	-2.8
193.808	119.75
194.027	-83.54
194.246	206.74
194.465	139.73
194.685	-19.19
194.904	-36.33
195.123	232.72
195.342	293.47
195.561	-45.77
195.78	258.02
195.999	241.57
196.218	-458.92
196.436	-32.39
196.655	29.72
196.874	-26.81
197.093	-25.29
197.312	-1468.89
197.531	741.28
197.75	-60.97
197.969	24.64
198.188	46.73
198.407	45.83
198.625	268.6
198.844	982.98
199.063	-3108.33
199.282	-63.79
199.501	453.73
199.719	78.01
199.938	162.88
200.157	329.9
200.376	83.49
200.594	86.73
200.813	89.74
201.032	184.05
201.251	328.54
201.469	793.21
201.688	2557.87
201.907	-666.34
202.125	2416.67
202.344	-793.31
202.563	-436.77
202.781	-45.84
203	-8.84
203.218	24.12
203.437	48.28
203.656	18.28
203.874	20.25
204.093	17.35
204.311	14.89
204.53	35.65
204.748	49.85
204.967	49.06
205.185	35.02
205.404	66.81
205.622	95.24
205.841	-172.67
206.059	440.02
206.278	348.25
206.496	-289.91
206.715	-645.62
206.933	-293.61
207.151	-181.35
207.37	-7070.49
207.588	-742.11
207.806	422.47
208.025	152.24
208.243	288.51
208.461	529.62
208.68	691.81
208.898	21.27
209.116	211.28
209.335	191.71
209.553	1279.78
209.771	209.22
209.989	-298.75
210.208	-180.47
210.426	-99.81
210.644	-62.35
210.862	11.16
211.081	34.64
211.299	73.17
211.517	125.5
211.735	143.9
211.953	194.69
212.171	158.8
212.39	139.29
212.608	123.4
212.826	79.9
213.044	47.39
213.262	-219.19
213.48	-12.36
213.698	-54675
213.916	-113.55
214.134	-86.68
214.352	-788.02
214.57	-487.08
214.788	5216
215.006	-2081.03
215.224	690.09
215.442	1653.56
215.66	861.62
215.878	287.49
216.096	276.8
216.314	659.26
216.532	430.71
216.75	451.49
216.968	128.88
217.185	45.38
217.403	-19.74
217.621	-48.37
217.839	-122.94
218.057	-1166.73
218.275	370.53
218.492	165.13
218.71	197.9
218.928	146.56
219.146	118.38
219.363	147.65
219.581	129.92
219.799	100.45
220.017	63.62
220.234	44.29
220.452	60.27
220.67	136.1
220.887	-1.61
221.105	-128.93
221.323	-91.62
221.54	-285.87
221.758	435.31
221.976	503.36
222.193	-1366.57
222.411	797.28
222.629	672.59
222.846	1396.45
223.064	354.73
223.281	394.72
223.499	259.88
223.716	183.72
223.934	186.66
224.151	797.26
224.369	1480.17
224.586	325.07
224.804	-56.16
225.021	37.25
225.239	59.36
225.456	45.1
225.674	-44.17
225.891	-32.18
226.108	-78.58
226.326	-14.32
226.543	-53.08
226.76	-93.06
226.978	-66.01
227.195	-65.73
227.413	-37.16
227.63	-33.12
227.847	-14.35
228.064	-1.83
228.282	2.49
228.499	7.31
228.716	8.13
228.934	11.99
229.151	15
229.368	18.18
229.585	21.28
229.802	18.31
230.02	23.7
230.237	22.69
230.454	21.67
230.671	21.23
230.888	19.27
231.105	20.1
231.323	15.96
231.54	13.87
231.757	5.7
231.974	9.34
232.191	7.59
232.408	1.96
232.625	-4.38
232.842	-7.46
233.059	-12.62
233.276	-12.49
233.493	-15.05
233.71	-7.29
233.927	-2.74
234.144	0.01
234.361	-7.37
234.578	-8.61
234.795	-6.28
235.012	-2.91
235.229	-5.06
235.446	-0.21
235.663	0.39
235.879	-9.37
236.096	-11.55
236.313	-19.99
236.53	-14.21
236.747	-18.48
236.964	-17.01
237.181	-16.09
237.397	-10.39
237.614	-4.84
237.831	-15.78
238.048	-8.61
238.264	3.63
238.481	15.56
238.698	18.94
238.915	20.29
239.131	27.9
239.348	28.46
239.565	29.85
239.781	21.8
239.998	19.85
240.215	17.2
240.431	13.79
240.648	9.44
240.865	2.29
241.081	10.24
241.298	9.5
241.514	8.3
241.731	9.29
241.947	7.72
242.164	9.92
242.38	8.55
242.597	11.76
242.814	13.07
243.03	13.77
243.246	14.01
243.463	8.81
243.679	8.28
243.896	7.73
244.112	5.19
244.329	6.41
244.545	8.12
244.762	8.77
244.978	10.36
245.194	10.52
245.411	9.99
245.627	11.72
245.843	16.2
246.06	16.88
246.276	16.81
246.492	17.56
246.709	17.85
246.925	16.58
247.141	16.91
247.357	15.22
247.574	15.39
247.79	13.94
248.006	13.88
248.222	12.7
248.439	12.36
248.655	11.18
248.871	10.7
249.087	9.77
249.303	8.08
249.519	6.26
249.736	6.05
249.952	4.94
250.168	7.19
250.384	5.85
250.6	6.87
250.816	4.28
251.032	7.84
251.248	3.58
251.464	5.86
251.68	6.25
251.896	7.37
252.112	7.36
252.328	5.33
252.544	6.43
252.76	5.98
252.976	5.19
253.192	5.52
253.408	4.31
253.624	6.3
253.84	0.46
254.056	1.72
254.272	0.45
254.487	0.61
254.703	1.78
254.919	-1.32
255.135	0.66
255.351	2.8
255.567	4.26
255.782	6.51
255.998	7.5
256.214	13.49
256.43	14.99
256.646	12.94
256.861	7.75
257.077	5.96
257.293	9.6
257.508	6.83
257.724	7.63
257.94	8.09
258.155	7.74
258.371	7.12
258.587	4.54
258.802	4.75
259.018	6.06
259.234	8.03
259.449	9.8
259.665	8.45
259.88	9.17
260.096	8.35
260.312	7.61
260.527	7.75
260.743	8.3
260.958	8.85
261.174	8.45
261.389	9.45
261.605	9.7
261.82	8.25
262.036	9.14
262.251	8.53
262.466	8.78
262.682	10.21
262.897	9.43
263.113	8.19
263.328	9.65
263.543	11.53
263.759	7.43
263.974	7.29
264.189	7.56
264.405	7.11
264.62	7.49
264.835	8.74
265.051	7.13
265.266	9
265.481	8.21
265.696	6.22
265.912	3.33
266.127	5.7
266.342	5.45
266.557	5.12
266.773	5.57
266.988	7.47
267.203	7.07
267.418	5.97
267.633	5.07
267.848	6.43
268.064	5.28
268.279	4.54
268.494	5.67
268.709	7.25
268.924	8.84
269.139	7.83
269.354	6.81
269.569	6.87
269.784	7.51
269.999	7.2
270.214	7.54
270.429	9.46
270.644	10.81
270.859	11.24
271.074	11.35
271.289	8.32
271.504	8.27
271.719	7.31
271.934	5.99
272.149	6.56
272.363	7.44
272.578	7.31
272.793	6.19
273.008	6.52
273.223	5.6
273.438	4.23
273.653	5.62
273.867	7.16
274.082	7.98
274.297	8.71
274.512	9.14
274.726	9.21
274.941	10.29
275.156	12.27
275.371	10.78
275.585	7.98
275.8	6.29
276.015	7.08
276.229	3.41
276.444	2.58
276.659	3.48
276.873	2.16
277.088	1.52
277.302	-0.64
277.517	-4.79
277.732	-4.29
277.946	-3.35
278.161	-0.47
278.375	-0.34
278.59	1.37
278.804	-1.27
279.019	-3.38
279.233	-0.47
279.448	-4.21
279.662	-4.56
279.877	-1.04
280.091	-0.42
280.306	3.04
280.52	2.38
280.735	1.74
280.949	2.52
281.163	7.01
281.378	6.78
281.592	6.94
281.806	9.84
282.021	10.45
282.235	8.4
282.449	8.88
282.664	7.58
282.878	8.3
283.092	8.56
283.307	8.83
283.521	8.21
283.735	7.94
283.949	6.44
284.164	7.58
284.378	7.17
284.592	10.27
284.806	11.51
285.02	12.58
285.234	11.28
285.449	11.49
285.663	10.64
285.877	9.3
286.091	10.34
286.305	11.34
286.519	9.71
286.733	9.12
286.947	7.52
287.161	5.6
287.375	5.4
287.589	6.35
287.803	5.52
288.017	4.78
288.231	4.01
288.445	4.09
288.659	3.92
288.873	5.23
289.087	7.09
289.301	8.01
289.515	9.63
289.729	10.08
289.943	8.69
290.157	9.1
290.371	9.78
290.584	12.58
290.798	11.27
291.012	11.67
291.226	11.81
291.44	11.9
291.654	11.76
291.867	10.72
292.081	7.13
292.295	9.13
292.509	9.68
292.722	8.71
292.936	8.05
293.15	11.33
293.364	10.17
293.577	9.24
293.791	7.2
294.005	6.29
294.218	5.56
294.432	9.2
294.645	8.07
294.859	7.82
295.073	9.97
295.286	9.24
295.5	7.37
295.713	7.55
295.927	8.14
296.14	8.29
296.354	9.5
296.568	10.29
296.781	9.97
296.994	11.55
297.208	12.8
297.421	12.13
297.635	12.66
297.848	13.64
298.062	14.41
298.275	15.13
298.489	16.53
298.702	16.12
298.915	17.22
299.129	18.53
299.342	18.14
299.555	17.75
299.769	18.4
299.982	18.8
300.195	18.32
300.409	18.53
300.622	17.69
300.835	16.81
301.048	18.48
301.262	18.01
301.475	17.48
301.688	16.62
301.901	17.16
302.115	16.61
302.328	18.88
302.541	20.35
302.754	18.01
302.967	18.03
303.18	20.1
303.393	17.2
303.607	18.53
303.82	18.48
304.033	19.93
304.246	20.54
304.459	20.79
304.672	18.75
304.885	18.2
305.098	19.38
305.311	21.58
305.524	20.37
305.737	21.39
305.95	20.24
306.163	19.26
306.376	18.61
306.589	17.98
306.802	18.27
307.015	16.65
307.228	16.31
307.44	17.14
307.653	16.15
307.866	14.15
308.079	15.68
308.292	16.94
308.505	18.65
308.718	21.94
308.93	20.31
309.143	21.58
309.356	21.76
309.569	22.1
309.781	23.4
309.994	22.8
310.207	24.64
310.42	23.49
310.632	23.76
310.845	24.04
311.058	21.49
311.27	22.91
311.483	22.34
311.696	22.37
311.908	22.75
312.121	20.61
312.333	20.67
312.546	20.82
312.759	21.57
312.971	20.03
313.184	18.92
313.396	17.96
313.609	15.64
313.821	16.63
314.034	17.05
314.246	16.11
314.459	16.61
314.671	16.86
314.884	15.62
315.096	14.78
315.309	14.6
315.521	13.98
315.733	15.81
315.946	15.85
316.158	13.95
316.371	15.32
316.583	15.11
316.795	15.87
317.008	16.18
317.22	16.95
317.432	16.94
317.644	18.47
317.857	19.16
318.069	18.27
318.281	19.67
318.494	19.87
318.706	18.25
318.918	20.95
319.13	22.94
319.342	23.04
319.555	21.08
319.767	22.15
319.979	21.4
320.191	23.19
320.403	22.87
320.615	24.15
320.827	24.51
321.039	24.55
321.252	22
321.464	19.46
321.676	18.51
321.888	21.57
322.1	20.38
322.312	20.63
322.524	18.2
322.736	19.1
322.948	18.21
323.16	18.39
323.372	19.48
323.584	20.88
323.796	22.57
324.007	21.18
324.219	21.25
324.431	23.56
324.643	24.04
324.855	27.68
325.067	27.41
325.279	28.47
325.491	28.53
325.702	29.24
325.914	29.5
326.126	27.94
326.338	28.11
326.55	27.56
326.761	26.88
326.973	28.16
327.185	26.06
327.396	25.74
327.608	25.88
327.82	27.74
328.032	29.03
328.243	29.84
328.455	31.81
328.666	35.18
328.878	36.24
329.09	37.8
329.301	38.48
329.513	37.87
329.725	39.9
329.936	40.78
330.148	42.07
330.359	41.71
330.571	40.51
330.782	41.31
330.994	44.66
331.205	47.23
331.417	49.31
331.628	48.44
331.84	52.71
332.051	54.02
332.262	56.26
332.474	54.86
332.685	56.53
332.897	58.52
333.108	58.05
333.319	55
333.531	55.04
333.742	54.22
333.953	55.96
334.165	55.7
334.376	58.05
334.587	58.71
334.799	62.19
335.01	63.05
335.221	64.23
335.432	67.15
335.644	69.09
335.855	69.22
336.066	71.51
336.277	70.4
336.488	70.23
336.7	69.77
336.911	69.43
337.122	68.32
337.333	68.37
337.544	70.05
337.755	69.91
337.966	69.91
338.177	70.14
338.388	68.44
338.599	71.06
338.811	72.68
339.022	73.06
339.233	74.32
339.444	74.38
339.655	75.37
339.866	74.37
340.076	73.71
340.287	74.58
340.498	75.9
340.709	76.69
340.92	76.91
341.131	76.92
341.342	76.3
341.553	76.28
341.764	76.19
341.975	76.12
342.185	76.96
342.396	78.48
342.607	77.82
342.818	79.14
343.029	80.25
343.239	79.84
343.45	80.1
343.661	80.47
343.872	80.44
344.082	81.7
344.293	81
344.504	81.29
344.714	80.07
344.925	80.58
345.136	80.28
345.346	78.89
345.557	78.78
345.768	78.98
345.978	80.27
346.189	79.77
346.399	79.8
346.61	79.46
346.821	79.09
347.031	80.28
347.242	79.03
347.452	78.51
347.663	78.19
347.873	77.78
348.084	78.35
348.294	78.21
348.504	78.84
348.715	79.05
348.925	79.42
349.136	78.33
349.346	76.92
349.557	78.74
349.767	78.21
349.977	79.68
350.188	79.97
350.398	79.68
350.608	77.91
350.819	77.12
351.029	76.93
351.239	78.67
351.449	77.98
351.66	79.03
351.87	78.34
352.08	77.67
352.29	77.25
352.501	78.47
352.711	78.37
352.921	79.73
353.131	80.41
353.341	79.27
353.552	78.25
353.762	78.44
353.972	78.46
354.182	78.55
354.392	79.78
354.602	80.4
354.812	78.25
355.022	78.46
355.232	79.43
355.442	79.29
355.652	79.1
355.862	78.4
356.072	79
356.282	78
356.492	77.82
356.702	76.7
356.912	76.85
357.122	78.32
357.332	78.35
357.542	77.58
357.752	77.64
357.962	78.66
358.171	79.25
358.381	79.8
358.591	79.93
358.801	80.88
359.011	81.63
359.221	80.75
359.43	79.79
359.64	79.44
359.85	78.6
360.06	77.9
360.269	77.22
360.479	76.29
360.689	75.58
360.899	75.29
361.108	75.08
361.318	74.66
361.528	74.43
361.737	74.46
361.947	73.19
362.156	72.8
362.366	73.08
362.576	72.46
362.785	72.88
362.995	72.76
363.204	72.32
363.414	71.66
363.623	71.42
363.833	71.07
364.042	70.82
364.252	71.93
364.461	71.23
364.671	70.87
364.88	70.95
365.09	70.47
365.299	70.47
365.509	70.87
365.718	70.98
365.927	71.63
366.137	71.77
366.346	71.8
366.555	70.97
366.765	71.29
366.974	71.36
367.183	71.5
367.393	71.37
367.602	71.32
367.811	71.23
368.021	71.38
368.23	69.94
368.439	69.53
368.648	68.72
368.857	68.29
369.067	67.96
369.276	67.73
369.485	67.33
369.694	67.06
369.903	66.16
370.112	66.52
370.321	65.34
370.531	65.29
370.74	65.61
370.949	65.64
371.158	65.5
371.367	65.68
371.576	64.95
371.785	64.25
371.994	63.62
372.203	63.11
372.412	62.48
372.621	61.81
372.83	60.73
373.039	59.6
373.248	59.38
373.457	58.95
373.666	58.51
373.874	58.7
374.083	58.23
374.292	57.97
374.501	57.99
374.71	57.33
374.919	58.29
375.128	58.78
375.336	58.92
375.545	59.16
375.754	59
375.963	59
376.171	58.02
376.38	59.05
376.589	59.06
376.798	58.49
377.006	57.49
377.215	56.62
377.424	56.34
377.632	55.89
377.841	54.75
378.05	54.79
378.258	54.61
378.467	54.49
378.675	53.42
378.884	52.93
379.093	53.24
379.301	53.59
379.51	53.14
379.718	52.9
379.927	53.33
380.135	53.51
380.344	53.32
380.552	53.21
380.761	53.26
380.969	53.82
381.177	53.71
381.386	52.88
381.594	52.53
381.803	52.73
382.011	52.81
382.219	52.06
382.428	51.67
382.636	50.36
382.845	49.55
383.053	49.17
383.261	47.88
383.469	47.54
383.678	47.67
383.886	47.39
384.094	46.34
384.302	45.56
384.511	44.83
384.719	44.29
384.927	44.72
385.135	44.54
385.343	43.82
385.552	43.28
385.76	42.44
385.968	41.85
386.176	41.41
386.384	41.31
386.592	41.16
386.8	41.34
387.008	41.25
387.216	40.86
387.424	40.31
387.633	40.04
387.841	39.74
388.049	40.14
388.257	39.62
388.465	39.42
388.672	39.5
388.88	38.84
389.088	38.43
389.296	38
389.504	37.42
389.712	37.09
389.92	37.01
390.128	36.97
390.336	36.68
390.544	36.78
390.751	36.93
390.959	36.43
391.167	36.19
391.375	35.59
391.583	35.73
391.79	35.62
391.998	35.14
392.206	34.82
392.414	34.44
392.621	34.2
392.829	33.79
393.037	33.69
393.244	33.36
393.452	33.34
393.66	33.53
393.867	33.33
394.075	33.49
394.283	33.53
394.49	33.6
394.698	33.6
394.905	33.33
395.113	33.33
395.32	32.69
395.528	32.87
395.735	32.67
395.943	32.31
396.15	32.24
396.358	32.1
396.565	32.09
396.773	32.33
396.98	32.31
397.188	31.98
397.395	31.7
397.602	31.35
397.81	31.19
398.017	31.05
398.225	31.37
398.432	31.02
398.639	30.82
398.847	30.91
399.054	30.29
399.261	30.11
399.468	30.41
399.676	30.67
399.883	31.08
400.09	30.77
400.297	30.74
400.505	30.59
400.712	30.42
400.919	30.4
401.126	30.19
401.333	30.59
401.54	30.86
401.748	30.78
401.955	30.77
402.162	30.7
402.369	30.88
402.576	31.05
402.783	30.72
402.99	30.56
403.197	30.43
403.404	30.53
403.611	30.44
403.818	30.38
404.025	30.33
404.232	30.16
404.439	30.06
404.646	29.9
404.853	29.75
405.06	29.66
405.267	29.89
405.474	29.76
405.681	29.75
405.887	29.58
406.094	29.38
406.301	29.44
406.508	29.17
406.715	29.32
406.922	29.16
407.128	29.25
407.335	29.44
407.542	28.99
407.749	28.56
407.955	28.24
408.162	28.13
408.369	28.19
408.575	27.93
408.782	28.01
408.989	28.04
409.195	28.31
409.402	28.12
409.609	28.2
409.815	28.32
410.022	28.91
410.228	29.24
410.435	29.15
410.642	29.29
410.848	29.11
411.055	29.17
411.261	28.89
411.468	28.73
411.674	28.7
411.881	28.24
412.087	28.28
412.294	28.07
412.5	27.8
412.706	27.67
412.913	27.3
413.119	27.15
413.326	26.94
413.532	26.86
413.738	26.59
413.945	26.8
414.151	26.98
414.357	26.79
414.564	26.74
414.77	27.1
414.976	27.17
415.182	27.05
415.389	27.09
415.595	27.2
415.801	27.45
416.007	27.66
416.214	27.33
416.42	27.35
416.626	27.63
416.832	27.93
417.038	27.58
417.244	27.67
417.45	27.88
417.657	27.7
417.863	27.54
418.069	27.37
418.275	27.37
418.481	27.14
418.687	27.14
418.893	26.69
419.099	26.29
419.305	26.15
419.511	26.03
419.717	25.99
419.923	26.16
420.129	26.15
420.335	26.22
420.541	26.14
420.746	26.42
420.952	26.35
421.158	26.58
421.364	26.6
421.57	26.65
421.776	26.54
421.982	26.45
422.187	26.47
422.393	26.57
422.599	26.45
422.805	26.25
423.01	26.15
423.216	26.27
423.422	26.19
423.628	26.11
423.833	26.14
424.039	26.25
424.245	26.26
424.45	26.11
424.656	26.02
424.862	25.92
425.067	26.15
425.273	25.99
425.478	25.88
425.684	25.75
425.889	25.76
426.095	25.57
426.301	25.57
426.506	25.43
426.712	25.64
426.917	25.64
427.123	25.68
427.328	25.66
427.533	25.65
427.739	25.69
427.944	25.82
428.15	25.99
428.355	25.99
428.561	25.7
428.766	25.82
428.971	25.33
429.177	25.3
429.382	25.26
429.587	24.99
429.793	25.13
429.998	24.96
430.203	24.76
430.408	24.58
430.614	24.95
430.819	25.3
431.024	25.05
431.229	25.36
431.434	25.16
431.64	25.17
431.845	25.22
432.05	25.14
432.255	25
432.46	25.21
432.665	25.24
432.87	25.15
433.076	24.97
433.281	25.18
433.486	25.13
433.691	25.23
433.896	25.15
434.101	25.28
434.306	25.39
434.511	25.45
434.716	25.4
434.921	25.34
435.126	25.18
435.331	25.3
435.535	25.31
435.74	25.24
435.945	25.24
436.15	25.39
436.355	25.32
436.56	25.46
436.765	25.46
436.97	25.35
437.174	25.68
437.379	25.74
437.584	25.53
437.789	25.62
437.993	25.71
438.198	25.95
438.403	25.73
438.608	25.67
438.812	25.47
439.017	25.52
439.222	25.73
439.426	25.42
439.631	25.38
439.836	25.39
440.04	25.35
440.245	25.32
440.45	24.97
440.654	24.96
440.859	25.02
441.063	25.11
441.268	25.17
441.472	25.09
441.677	25.19
441.881	25.21
442.086	25.3
442.29	25.13
442.495	25.17
442.699	25.38
442.904	25.23
443.108	25.2
443.312	25.11
443.517	24.91
443.721	24.75
443.925	24.63
444.13	24.66
444.334	24.62
444.538	24.35
444.743	24.29
444.947	24.25
445.151	24.48
445.356	24.47
445.56	24.33
445.764	24.36
445.968	24.5
446.173	24.55
446.377	24.45
446.581	24.48
446.785	24.74
446.989	24.74
447.193	24.69
447.398	24.7
447.602	24.68
447.806	24.85
448.01	24.78
448.214	24.68
448.418	24.64
448.622	24.71
448.826	24.52
449.03	24.37
449.234	24.29
449.438	24.17
449.642	24.35
449.846	24.37
450.05	24.03
450.254	24
450.458	23.94
450.662	23.86
450.866	23.68
451.069	23.66
451.273	23.73
451.477	23.73
451.681	23.94
451.885	23.68
452.089	23.56
452.292	23.68
452.496	23.77
452.7	23.84
452.904	23.78
453.107	23.77
453.311	23.84
453.515	23.78
453.719	23.66
453.922	23.5
454.126	23.45
454.33	23.31
454.533	23.33
454.737	23.25
454.94	23.23
455.144	23.33
455.348	23.39
455.551	23.28
455.755	23.25
455.958	23.32
456.162	23.37
456.365	23.34
456.569	23.44
456.772	23.54
456.976	23.34
457.179	23.67
457.383	23.69
457.586	23.74
457.79	23.6
457.993	23.62
458.196	23.53
458.4	23.55
458.603	23.4
458.807	23.46
459.01	23.42
459.213	23.67
459.417	23.39
459.62	23.38
459.823	23.25
460.026	23.49
460.23	23.59
460.433	23.76
460.636	23.71
460.839	23.86
461.042	23.91
461.246	23.9
461.449	23.74
461.652	23.84
461.855	23.99
462.058	24.03
462.261	23.87
462.464	23.79
462.668	23.63
462.871	23.86
463.074	23.92
463.277	23.81
463.48	23.77
463.683	23.96
463.886	24.02
464.089	23.78
464.292	24.1
464.495	24
464.698	24.01
464.901	24.15
465.104	23.91
465.306	23.91
465.509	23.94
465.712	24.07
465.915	24.18
466.118	23.97
466.321	23.98
466.524	23.84
466.726	24.13
466.929	24.14
467.132	24.06
467.335	24.3
467.538	24.34
467.74	24.72
467.943	24.64
468.146	24.61
468.348	24.72
468.551	24.67
468.754	24.74
468.956	24.61
469.159	24.75
469.362	24.82
469.564	24.69
469.767	24.52
469.969	24.19
470.172	24.25
470.375	24.14
470.577	24.24
470.78	24.2
470.982	24.25
471.185	24.3
471.387	24.09
471.59	23.99
471.792	24.05
471.995	24.22
472.197	24.26
472.399	24.4
472.602	24.54
472.804	24.33
473.007	24.46
473.209	24.44
473.411	24.54
473.614	24.64
473.816	24.78
474.018	24.76
474.22	24.6
474.423	24.51
474.625	24.41
474.827	24.16
475.03	24.16
475.232	24.28
475.434	24.25
475.636	24.28
475.838	24.18
476.04	24.2
476.243	24.02
476.445	24.06
476.647	24.18
476.849	24.15
477.051	24.32
477.253	24.43
477.455	24.42
477.657	24.46
477.859	24.29
478.061	24.32
478.263	24.1
478.465	24.14
478.667	24.25
478.869	24.28
479.071	24.43
479.273	24.32
479.475	24.36
479.677	24.5
479.879	24.48
480.081	24.63
480.283	24.59
480.485	24.82
480.686	24.86
480.888	24.84
481.09	24.62
481.292	24.43
481.494	24.45
481.695	24.45
481.897	24.49
482.099	24.36
482.301	24.29
482.502	24.26
482.704	24.19
482.906	24.24
483.107	24.15
483.309	24.19
483.511	24.26
483.712	24.28
483.914	24.23
484.115	24.14
484.317	24.16
484.519	24.11
484.72	24.13
484.922	24.17
485.123	24.16
485.325	24.18
485.526	24.19
485.728	24.21
485.929	24.26
486.131	24.33
486.332	24.35
486.534	24.4
486.735	24.45
486.936	24.46
487.138	24.43
487.339	24.43
487.541	24.47
487.742	24.43
487.943	24.32
488.144	24.32
488.346	24.23
488.547	24.17
488.748	24.09
488.95	24.19
489.151	24.21
489.352	24.15
489.553	24.21
489.755	24.17
489.956	24.26
490.157	24.23
490.358	24.2
490.559	24.29
490.76	24.36
490.961	24.49
491.163	24.37
491.364	24.36
491.565	24.44
491.766	24.39
491.967	24.46
492.168	24.51
492.369	24.61
492.57	24.61
492.771	24.66
492.972	24.67
493.173	24.66
493.374	24.7
493.575	24.84
493.776	24.92
493.976	24.94
494.177	24.89
494.378	24.88
494.579	24.75
494.78	24.66
494.981	24.59
495.182	24.5
495.382	24.48
495.583	24.66
495.784	24.57
495.985	24.69
496.185	24.73
496.386	24.83
496.587	24.94
496.788	25.15
496.988	25.29
497.189	25.4
497.39	25.48
497.59	25.64
497.791	25.69
497.992	25.79
498.192	25.59
498.393	25.63
498.593	25.77
498.794	25.67
498.994	25.6
499.195	25.71
499.395	25.78
499.596	25.87
499.796	25.86
499.997	25.75
500.197	25.78
500.398	26.03
500.598	26.11
500.799	26.03
500.999	25.91
501.199	26.06
501.4	26.12
501.6	26.01
501.801	26.07
502.001	25.99
502.201	26.04
502.402	26.13
502.602	26.05
502.802	26.2
503.002	26.39
503.203	26.56
503.403	26.74
503.603	26.67
503.803	26.91
504.003	27.13
504.204	27.35
504.404	27.64
504.604	27.76
504.804	27.88
505.004	27.9
505.204	27.79
505.404	27.99
505.604	27.88
505.804	28.03
506.005	28.06
506.205	28.09
506.405	28.29
506.605	28.26
506.805	28.27
507.005	28.42
507.204	28.54
507.404	28.68
507.604	28.8
507.804	29.01
508.004	29.15
508.204	29.19
508.404	29.37
508.604	29.44
508.804	29.51
509.003	29.48
509.203	29.55
509.403	29.61
509.603	29.76
509.803	29.89
510.002	29.93
510.202	29.84
510.402	29.99
510.602	30.04
510.801	29.96
511.001	30.01
511.201	30.26
511.4	30.45
511.6	30.5
511.8	30.51
511.999	30.63
512.199	30.72
512.398	30.93
512.598	31.01
512.797	30.98
512.997	31.13
513.197	31.36
513.396	31.5
513.596	31.48
513.795	31.59
513.994	31.86
514.194	31.74
514.393	31.93
514.593	32
514.792	32.14
514.992	32.36
515.191	32.47
515.39	32.41
515.59	32.44
515.789	32.59
515.988	32.76
516.188	32.84
516.387	33.04
516.586	33.15
516.786	33.38
516.985	33.64
517.184	33.73
517.383	33.95
517.582	34.13
517.782	34.22
517.981	34.31
518.18	34.41
518.379	34.47
518.578	34.54
518.777	34.61
518.976	34.66
519.176	34.56
519.375	34.67
519.574	34.7
519.773	34.78
519.972	34.84
520.171	34.91
520.37	35.02
520.569	35.15
520.768	35.26
520.967	35.4
521.166	35.52
521.365	35.61
521.564	35.69
521.762	35.87
521.961	35.99
522.16	36.28
522.359	36.4
522.558	36.57
522.757	36.67
522.956	36.94
523.154	36.94
523.353	37.14
523.552	37.38
523.751	37.41
523.949	37.38
524.148	37.53
524.347	37.5
524.546	37.63
524.744	37.92
524.943	38.05
525.142	38.11
525.34	38.3
525.539	38.35
525.737	38.48
525.936	38.72
526.135	38.93
526.333	38.99
526.532	39.15
526.73	39.34
526.929	39.25
527.127	39.35
527.326	39.4
527.524	39.52
527.723	39.57
527.921	39.66
528.12	39.63
528.318	39.75
528.516	39.86
528.715	39.84
528.913	39.81
529.112	39.86
529.31	39.92
529.508	40.04
529.707	40.03
529.905	40.18
530.103	40.27
530.301	40.38
530.5	40.41
530.698	40.46
530.896	40.63
531.094	40.89
531.293	41
531.491	41.07
531.689	41.1
531.887	41.37
532.085	41.37
532.283	41.5
532.481	41.71
532.68	41.74
532.878	41.77
533.076	41.85
533.274	41.93
533.472	42.06
533.67	42.11
533.868	42.2
534.066	42.19
534.264	42.32
534.462	42.27
534.66	42.27
534.858	42.3
535.056	42.43
535.253	42.52
535.451	42.52
535.649	42.54
535.847	42.55
536.045	42.63
536.243	42.69
536.441	42.56
536.638	42.65
536.836	42.72
537.034	42.87
537.232	43.06
537.43	43.1
537.627	43.14
537.825	43.16
538.023	43.37
538.22	43.49
538.418	43.57
538.616	43.84
538.813	43.97
539.011	44.09
539.209	44.12
539.406	44.11
539.604	44.28
539.801	44.46
539.999	44.62
540.196	44.69
540.394	44.68
540.591	44.7
540.789	44.71
540.986	44.71
541.184	44.76
541.381	44.73
541.579	44.74
541.776	44.7
541.974	44.67
542.171	44.65
542.368	44.63
542.566	44.71
542.763	44.79
542.96	44.85
543.158	44.96
543.355	44.9
543.552	44.95
543.75	44.92
543.947	45.04
544.144	45.02
544.341	45.06
544.539	45.13
544.736	45.08
544.933	45.16
545.13	45.2
545.327	45.19
545.524	45.35
545.722	45.48
545.919	45.7
546.116	45.68
546.313	45.77
546.51	45.81
546.707	45.82
546.904	45.92
547.101	45.9
547.298	45.88
547.495	46.03
547.692	46.05
547.889	46.12
548.086	46.06
548.283	46.17
548.48	46.2
548.677	46.31
548.874	46.34
549.07	46.28
549.267	46.33
549.464	46.4
549.661	46.24
549.858	46.15
550.055	46.11
550.251	46.25
550.448	46.09
550.645	46.23
550.842	46.34
551.038	46.29
551.235	46.42
551.432	46.53
551.628	46.59
551.825	46.79
552.022	46.86
552.218	46.96
552.415	46.92
552.612	47
552.808	46.88
553.005	46.73
553.201	46.98
553.398	47.13
553.594	46.78
553.791	46.87
553.987	46.87
554.184	46.88
554.38	46.92
554.577	47.05
554.773	47.01
554.97	47.23
555.166	47.43
555.362	47.33
555.559	47.32
555.755	47.69
555.952	47.78
556.148	47.69
556.344	47.93
556.541	48.07
556.737	47.91
556.933	48.07
557.129	48.09
557.326	48.04
557.522	48.06
557.718	48.2
557.914	48.27
558.11	48.06
558.307	48.2
558.503	48.39
558.699	48.44
558.895	48.93
559.091	48.91
559.287	49.11
559.483	49.28
559.679	49.32
559.876	49.4
560.072	49.47
560.268	49.76
560.464	49.73
560.66	49.64
560.856	49.64
561.052	49.38
561.247	49.35
561.443	49.19
561.639	49.17
561.835	49.16
562.031	48.92
562.227	48.98
562.423	49.05
562.619	49.37
562.815	49.4
563.01	49.56
563.206	49.85
563.402	49.92
563.598	50.21
563.793	50.29
563.989	50.45
564.185	50.61
564.381	50.6
564.576	50.56
564.772	50.53
564.968	50.52
565.163	50.59
565.359	50.56
565.555	50.71
565.75	50.67
565.946	50.78
566.141	50.78
566.337	51.01
566.532	51.02
566.728	50.95
566.923	50.76
567.119	50.88
567.314	50.71
567.51	50.52
567.705	50.5
567.901	50.49
568.096	50.38
568.292	50.62
568.487	50.44
568.682	50.63
568.878	50.76
569.073	51.05
569.268	51.04
569.464	51.15
569.659	51.34
569.854	51.55
570.05	51.5
570.245	51.61
570.44	51.28
570.635	51.35
570.831	51.35
571.026	51.33
571.221	51.28
571.416	51.41
571.611	51.31
571.806	51.43
572.002	51.47
572.197	51.6
572.392	51.66
572.587	51.91
572.782	51.97
572.977	51.88
573.172	52.06
573.367	52.06
573.562	51.99
573.757	52.11
573.952	52.05
574.147	51.81
574.342	51.93
574.537	52.09
574.732	52.1
574.927	52.15
575.121	52.06
575.316	51.97
575.511	52.1
575.706	51.99
575.901	52.12
576.096	52.19
576.29	52.67
576.485	52.58
576.68	52.73
576.875	52.95
577.069	53.18
577.264	53.34
577.459	53.27
577.654	53.03
577.848	53.18
578.043	53.01
578.238	53.07
578.432	52.97
578.627	53.08
578.821	53.05
579.016	52.83
579.21	52.62
579.405	52.82
579.6	53.13
579.794	53.26
579.989	53.13
580.183	53.22
580.378	53.17
580.572	53.12
580.766	52.93
580.961	52.73
581.155	52.78
581.35	52.62
581.544	52.68
581.738	52.41
581.933	52.52
582.127	52.87
582.321	52.69
582.516	52.74
582.71	52.64
582.904	52.75
583.099	52.52
583.293	52.53
583.487	52.7
583.681	52.61
583.875	52.82
584.07	52.86
584.264	52.97
584.458	53.13
584.652	53.05
584.846	52.7
585.04	52.61
585.234	52.77
585.428	52.76
585.623	52.79
585.817	52.65
586.011	52.69
586.205	52.88
586.399	52.53
586.593	52.62
586.787	52.55
586.981	52.69
587.174	52.92
587.368	52.9
587.562	52.9
587.756	52.92
587.95	53.1
588.144	53.43
588.338	53.37
588.532	53.32
588.725	53.36
588.919	53.45
589.113	53.79
589.307	53.7
589.501	54.02
589.694	53.78
589.888	53.83
590.082	53.76
590.275	53.5
590.469	53.61
590.663	53.65
590.856	53.8
591.05	53.92
591.244	54.2
591.437	54.34
591.631	54.08
591.824	54.38
592.018	54.5
592.212	54.57
592.405	54.73
592.599	54.68
592.792	54.76
592.986	54.65
593.179	54.51
593.372	54.28
593.566	54.26
593.759	54.08
593.953	54.42
594.146	54.27
594.339	53.94
594.533	53.93
594.726	53.82
594.92	54.13
595.113	54.17
595.306	54.36
595.499	54.37
595.693	54.28
595.886	54.55
596.079	54.33
596.272	54.29
596.466	54.62
596.659	54.69
596.852	54.77
597.045	54.75
597.238	54.54
597.431	54.61
597.624	54.56
597.818	54.77
598.011	54.76
598.204	54.79
598.397	54.92
598.59	55.23
598.783	55.05
598.976	54.81
599.169	54.75
599.362	55.03
599.555	55.05
599.748	55.03
599.941	54.87
600.134	54.91
600.326	55.03
600.519	55.22
600.712	55.05
600.905	55.17
601.098	55
601.291	55.32
601.483	55.34
601.676	55.45
601.869	55.66
602.062	55.84
602.255	55.68
602.447	55.6
602.64	55.51
602.833	55.78
603.025	55.77
603.218	56.2
603.411	55.9
603.603	56.12
603.796	55.99
603.989	55.95
604.181	55.96
604.374	55.91
604.566	55.72
604.759	55.79
604.951	55.55
605.144	55.68
605.336	55.56
605.529	55.78
605.721	55.57
605.914	55.58
606.106	55.74
606.299	55.72
606.491	56.07
606.683	56.43
606.876	56.29
607.068	56.28
607.26	55.97
607.453	55.84
607.645	55.66
607.837	55.99
608.03	56.02
608.222	55.82
608.414	55.76
608.606	55.5
608.799	55.36
608.991	55.43
609.183	55.5
609.375	55.61
609.567	55.8
609.759	55.58
609.952	55.41
610.144	55.3
610.336	55.2
610.528	55.06
610.72	55.06
610.912	55.09
611.104	55.22
611.296	55.06
611.488	55.31
611.68	55.08
611.872	55.2
612.064	55.24
612.256	55.46
612.448	55.69
612.64	55.51
612.832	55.55
613.023	55.62
613.215	55.52
613.407	55.36
613.599	54.95
613.791	55.45
613.983	55.26
614.174	55.11
614.366	55.03
614.558	54.62
614.75	54.93
614.941	54.97
615.133	54.86
615.325	55.1
615.516	55.64
615.708	56.21
615.9	55.98
616.091	56.26
616.283	56.37
616.475	56.23
616.666	56.52
616.858	56.5
617.049	56.4
617.241	56.56
617.432	56.16
617.624	56.08
617.815	55.42
618.007	55.7
618.198	55.69
618.39	55.94
618.581	55.9
618.773	56.24
618.964	56.52
619.155	56.81
619.347	56.52
619.538	56.44
619.729	56.29
619.921	57
620.112	57.05
620.303	57.19
620.494	57.02
620.686	57.48
620.877	57.17
621.068	56.9
621.259	56.65
621.451	56.42
621.642	56.67
621.833	56.78
622.024	56.36
622.215	56.33
622.406	56.38
622.597	56.36
622.788	56.37
622.98	56.69
623.171	56.76
623.362	56.92
623.553	57.28
623.744	57.38
623.935	57.62
624.126	57.68
624.317	57.8
624.508	57.69
624.698	57.49
624.889	56.9
625.08	56.62
625.271	56.49
625.462	56.66
625.653	56.57
625.844	56.39
626.034	56.15
626.225	56.23
626.416	56.05
626.607	55.92
626.798	56.02
626.988	56.05
627.179	55.89
627.37	56.05
627.56	55.99
627.751	56.08
627.942	55.99
628.132	55.86
628.323	55.87
628.514	55.66
628.704	56.2
628.895	56.38
629.085	56.78
629.276	56.93
629.466	56.65
629.657	56.86
629.847	57.1
630.038	57.14
630.228	57.33
630.419	57.12
630.609	57.16
630.8	56.8
630.99	56.85
631.181	56.72
631.371	56.51
631.561	56.79
631.752	56.54
631.942	56.73
632.132	56.61
632.323	56.55
632.513	56.69
632.703	56.88
632.893	56.79
633.084	56.39
633.274	56.35
633.464	57.08
633.654	57.27
633.844	56.98
634.034	56.56
634.225	56.74
634.415	56.83
634.605	56.83
634.795	56.77
634.985	56.6
635.175	56.72
635.365	57.03
635.555	56.85
635.745	56.55
635.935	56.94
636.125	57.15
636.315	57.17
636.505	57.31
636.695	57.55
636.885	57.84
637.075	58.16
637.265	58.55
637.455	58.09
637.644	57.8
637.834	57.75
638.024	57.34
638.214	57.32
638.404	57.26
638.593	57.01
638.783	56.87
638.973	56.27
639.163	56.21
639.352	55.78
639.542	56.1
639.732	56.21
639.921	56.29
640.111	56.82
640.301	56.76
640.49	56.84
640.68	56.83
640.87	57.01
641.059	56.95
641.249	56.88
641.438	56.72
641.628	56.46
641.817	56.46
642.007	56.81
642.196	56.68
642.386	56.65
642.575	56.47
642.764	56.61
642.954	56.38
643.143	56.83
643.333	56.74
643.522	56.94
643.711	56.83
643.901	56.51
644.09	56.15
644.279	56.82
644.469	56.76
644.658	57.49
644.847	57.22
645.036	57.17
645.226	56.87
645.415	56.96
645.604	57.06
645.793	57.35
645.982	57.64
646.171	57.7
646.361	57.04
646.55	56.77
646.739	56.18
646.928	56.23
647.117	56.26
647.306	56.72
647.495	56.69
647.684	56.58
647.873	56.22
648.062	56.2
648.251	56.27
648.44	56.48
648.629	56.98
648.818	57
649.007	57.09
649.196	57.38
649.384	56.66
649.573	56.72
649.762	56.55
649.951	56.67
650.14	56.68
650.328	56.72
650.517	56.37
650.706	55.94
650.895	56
651.083	56.26
651.272	55.97
651.461	56.45
651.65	56.28
651.838	56.44
652.027	56.28
652.216	56.43
652.404	56.62
652.593	56.93
652.781	57.13
652.97	57.37
653.158	57.05
653.347	56.59
653.535	56.69
653.724	56.76
653.912	56.76
654.101	57.23
654.289	56.87
654.478	56.56
654.666	56.12
654.855	56.4
655.043	56.09
655.231	56.14
655.42	56.64
655.608	56.78
655.796	56.8
655.985	56.84
656.173	56.29
656.361	56.77
656.55	56.88
656.738	57.12
656.926	56.95
657.114	57.09
657.302	57.26
657.491	57.34
657.679	57.12
657.867	57.36
658.055	57.61
658.243	58.42
658.431	58.35
658.619	58.07
658.807	58.04
658.996	58.06
659.184	58.03
659.372	57.85
659.56	58.06
659.748	58.02
659.936	58.07
660.124	58.16
660.311	57.58
660.499	57.5
660.687	57.92
660.875	57.95
661.063	57.79
661.251	57.73
661.439	57.68
661.627	57.86
661.814	57.92
662.002	57.48
662.19	57.23
662.378	57.47
662.565	57.4
662.753	56.96
662.941	56.88
663.129	56.76
663.316	57.27
663.504	57.36
663.692	56.63
663.879	56.27
664.067	57.1
664.254	57.07
664.442	56.33
664.63	56.57
664.817	56.83
665.005	56.7
665.192	56.76
665.38	56.35
665.567	56.16
665.755	56.53
665.942	56.46
666.13	56.02
666.317	56.3
666.504	56.74
666.692	56.68
666.879	56.57
667.067	56.89
667.254	57.02
667.441	56.46
667.629	56.94
667.816	56.63
668.003	57.29
668.19	57.23
668.378	57.04
668.565	56.83
668.752	56.81
668.939	56.63
669.127	56.64
669.314	56.99
669.501	57.34
669.688	56.87
669.875	56.8
670.062	56.78
670.249	56.55
670.436	56.8
670.623	57.46
670.81	57.38
670.997	58.18
671.184	57.65
671.371	57.76
671.558	57.67
671.745	58.04
671.932	58.29
672.119	57.97
672.306	58.35
672.493	58.28
672.68	57.42
672.867	57.22
673.054	56.94
673.24	57.79
673.427	57.22
673.614	57.67
673.801	57.24
673.988	57.3
674.174	57.48
674.361	56.79
674.548	56.47
674.734	57.17
674.921	57.19
675.108	56.85
675.294	56.22
675.481	56.35
675.668	56.27
675.854	57.25
676.041	56.63
676.227	56.35
676.414	57.04
676.601	57.11
676.787	57.1
676.974	57.1
677.16	56.85
677.347	57.79
677.533	58.23
677.719	58.08
677.906	57.19
678.092	57.52
678.279	57.62
678.465	57.18
678.651	57.33
678.838	57.78
679.024	58.34
679.21	58.59
679.397	57.58
679.583	57.23
679.769	57.29
679.955	57.7
680.142	57.93
680.328	57.86
680.514	58.49
680.7	58.41
680.886	58.31
681.073	58.13
681.259	57.77
681.445	58.15
681.631	58.15
681.817	58.24
682.003	57.9
682.189	57.71
682.375	57.89
682.561	57.87
682.747	57.79
682.933	57.22
683.119	57.27
683.305	57.7
683.491	58.16
683.677	58.54
683.863	58.91
684.049	59.1
684.235	58.9
684.42	58.82
684.606	58.18
684.792	58.31
684.978	58.73
685.164	58.62
685.349	58.81
685.535	57.61
685.721	57.23
685.907	56.98
686.092	56.85
686.278	57.52
686.464	57.7
686.649	57.28
686.835	57.24
687.021	56.9
687.206	56.87
687.392	56.75
687.577	57.37
687.763	57.26
687.948	57.19
688.134	57.9
688.319	57.55
688.505	57.57
688.69	58.26
688.876	58.05
689.061	58.48
689.247	58.07
689.432	57.93
689.618	57.9
689.803	58.25
689.988	58.02
690.174	57.46
690.359	57.27
690.544	57.3
690.73	57.32
690.915	57.81
691.1	57.53
691.285	57.73
691.471	57.77
691.656	57.92
691.841	57.7
692.026	57.9
692.211	57.62
692.396	57.79
692.582	57.87
692.767	57.91
692.952	56.67
693.137	56.4
693.322	56.4
693.507	56.27
693.692	56.36
693.877	55.65
694.062	55.16
694.247	55.35
694.432	55.08
694.617	54.76
694.802	55.24
694.987	56.52
695.172	56.91
695.357	57.07
695.541	57.17
695.726	56.78
695.911	57.76
696.096	58.18
696.281	58.18
696.466	58.55
696.65	58.6
696.835	57.88
697.02	57.78
697.204	57.83
697.389	58.05
697.574	57.98
697.759	58.2
697.943	58.12
698.128	58.11
698.312	58.03
698.497	58.5
698.682	58.65
698.866	59.34
699.051	59.4
699.235	59.28
699.42	58.99
699.604	58.8
699.789	58.76
699.973	58.58
700.158	58.59
700.342	58.8
700.527	58.56
700.711	58.35
700.895	57.3
701.08	56.98
701.264	57.21
701.448	57.44
701.633	57.57
701.817	57.81
702.001	57.77
702.186	56.92
702.37	57.12
702.554	56.36
702.738	56.13
702.923	56.62
703.107	56.19
703.291	55.64
703.475	55.12
703.659	55.7
703.843	55.33
704.027	55.51
704.212	56.58
704.396	56
704.58	56.57
704.764	56.76
704.948	56.26
705.132	55.58
705.316	55.96
705.5	56.62
705.684	56.14
705.868	55.71
706.052	55.33
706.235	55.29
706.419	55.27
706.603	55.12
706.787	55.04
706.971	55.96
707.155	56.79
707.339	56.2
707.522	54.93
707.706	54.69
707.89	55.8
708.074	56.36
708.257	56.09
708.441	55.51
708.625	55.86
708.808	56.15
708.992	54.9
709.176	54.92
709.359	55.68
709.543	56.48
709.727	56.22
709.91	55.72
710.094	54.89
710.277	55.43
710.461	56.34
710.644	56.39
710.828	55.66
711.011	56.32
711.195	56.56
711.378	55.98
711.562	56.11
711.745	56.4
711.928	56.28
712.112	56.91
712.295	56.91
712.478	57.12
712.662	56.83
712.845	57.67
713.028	57.53
713.212	57.16
713.395	57.9
713.578	58.12
713.761	58.06
713.945	58
714.128	58.23
714.311	57.74
714.494	56.95
714.677	56.64
714.86	56.79
715.043	57.06
715.227	57.52
715.41	56.69
715.593	56.17
715.776	57.07
715.959	56.6
716.142	56.18
716.325	56.48
716.508	56.5
716.691	55.99
716.874	55.12
717.057	54.72
717.239	55.37
717.422	55.26
717.605	55.58
717.788	54.89
717.971	55.11
718.154	56.08
718.337	55.91
718.519	56.14
718.702	56.62
718.885	58.28
719.068	58.22
719.25	57.29
719.433	58.16
719.616	56.83
719.798	57.77
719.981	58.35
720.164	56.77
720.346	56.35
720.529	56.64
720.712	56.58
720.894	54.77
721.077	55.7
721.259	55.5
721.442	54.83
721.624	55.6
721.807	53.81
721.989	54.32
722.172	55.74
722.354	55.67
722.537	56.32
722.719	56.46
722.901	57.54
723.084	57.08
723.266	56.58
723.448	56.53
723.631	56.76
723.813	57.6
723.995	56.92
724.178	56.59
724.36	56.85
724.542	55.12
724.724	54.6
724.907	54.01
725.089	54.28
725.271	55.47
725.453	55.67
725.635	56.22
725.817	56.2
725.999	56.8
726.181	56.84
726.364	57.17
726.546	57.8
726.728	59.23
726.91	59.24
727.092	57.83
727.274	56.71
727.456	56.39
727.638	56.57
727.819	56.19
728.001	54.9
728.183	54.62
728.365	55.65
728.547	55.27
728.729	55.28
728.911	55.09
729.093	56.11
729.274	56.99
729.456	56.5
729.638	56.25
729.82	57.39
730.001	57.67
730.183	56.56
730.365	55.93
730.546	56.14
730.728	55.95
730.91	55.73
731.091	55.89
731.273	55.38
731.455	55.34
731.636	55.13
731.818	54.38
731.999	55.37
732.181	56.24
732.362	55.57
732.544	56.22
732.725	55.37
732.907	55.85
733.088	56.03
733.27	56.42
733.451	57.84
733.633	57.75
733.814	57.87
733.995	56.63
734.177	56.24
734.358	56.87
734.539	56.44
734.721	56.83
734.902	57.16
735.083	57.03
735.264	56.86
735.446	56.26
735.627	55.99
735.808	55.58
735.989	55.28
736.17	56.28
736.351	55.7
736.533	56.5
736.714	56.08
736.895	55.95
737.076	55.77
737.257	55.8
737.438	56.08
737.619	57.09
737.8	57.03
737.981	58.59
738.162	58.42
738.343	58.3
738.524	58.48
738.705	59.57
738.886	58.94
739.067	58.27
739.247	58.79
739.428	57.47
739.609	56.32
739.79	56.41
739.971	55.53
740.151	54.38
740.332	54.74
740.513	52.85
740.694	53.12
740.874	53.15
741.055	52.9
741.236	52.81
741.417	54.39
741.597	54.84
741.778	54.57
741.958	55.32
742.139	55.92
742.32	54.6
742.5	55.77
742.681	54.36
742.861	53.94
743.042	54.9
743.222	52.61
743.403	52.43
743.583	52.96
743.764	53.59
743.944	54.39
744.124	54.6
744.305	56.47
744.485	55.52
744.666	55.21
744.846	56.91
745.026	57.7
745.207	60.3
745.387	60.22
745.567	60.33
745.747	60.46
745.928	57.67
746.108	57.86
746.288	57.11
746.468	59.9
746.648	60.17
746.829	60.68
747.009	59.57
747.189	58.12
747.369	58.01
747.549	57.25
747.729	56.78
747.909	58.74
748.089	59.19
748.269	58.66
748.449	56.07
748.629	55.43
748.809	55.02
748.989	54.89
749.169	54.81
749.349	53.96
749.529	53.85
749.709	54.91
749.889	54.2
750.068	54.54
750.248	55
750.428	54.5
750.608	54.36
750.788	53.84
750.967	55.77
751.147	57
751.327	58.09
751.507	58.3
751.686	57.2
751.866	56.49
752.046	56.65
752.225	56.16
752.405	58.06
752.585	58.62
752.764	57.99
752.944	56.2
753.123	55.23
753.303	54.22
753.482	54.43
753.662	54.97
753.841	55.32
754.021	53.82
754.2	53.21
754.38	53.2
754.559	52.62
754.739	51.91
754.918	53.07
755.097	53.53
755.277	53.18
755.456	53.33
755.635	52.35
755.815	52.55
755.994	53.01
756.173	54.12
756.352	53.52
756.532	54.04
756.711	55.51
756.89	54.47
757.069	55.47
757.248	55.69
757.427	55.47
757.607	57.92
757.786	57.93
757.965	57.58
758.144	57.4
758.323	55.83
758.502	55.89
758.681	55.48
758.86	54.84
759.039	53.83
759.218	54.36
759.397	54.87
759.576	53.28
759.755	54.39
759.934	53.55
760.113	54.4
760.291	56
760.47	57.05
760.649	57.06
760.828	56.58
761.007	55.69
761.186	56.59
761.364	55.81
761.543	55.2
761.722	54.52
761.901	55.08
762.079	55.55
762.258	55.6
762.437	55.32
762.615	55.36
762.794	57.2
762.972	57.61
763.151	56.36
763.33	56.29
763.508	56.85
763.687	57.41
763.865	57.46
764.044	55.24
764.222	55.48
764.401	55.14
764.579	54.97
764.758	53.5
764.936	53.96
765.114	54.09
765.293	55.03
765.471	53.64
765.65	52.63
765.828	52.62
766.006	54.22
766.184	51.96
766.363	52.99
766.541	52.09
766.719	51.69
766.898	50.84
767.076	50.28
767.254	48.87
767.432	50.7
767.61	50.42
767.788	50.28
767.967	50.83
768.145	52.01
768.323	49.96
768.501	51.53
768.679	52.9
768.857	53.34
769.035	53.85
769.213	53.78
769.391	53.89
769.569	54.19
769.747	55.15
769.925	52.42
770.103	54.67
770.281	53.79
770.459	52.78
770.636	53.44
770.814	53.85
770.992	55.7
771.17	55.26
771.348	53.04
771.525	51.61
771.703	49.25
771.881	52.69
772.059	51.05
772.236	52.59
772.414	53.56
772.592	53.46
772.769	52.89
772.947	52.18
773.125	53.56
773.302	54.01
773.48	56.72
773.657	59.25
773.835	57.17
774.013	55.97
774.19	55.34
774.368	56.41
774.545	55.54
774.723	53.93
774.9	54.96
775.077	55.82
775.255	56.82
775.432	57.32
775.61	57.32
775.787	55.76
775.964	56.58
776.142	56.98
776.319	55.22
776.496	53.91
776.674	54.12
776.851	52.34
777.028	52.57
777.205	51.1
777.382	50.41
777.56	49.63
777.737	51.14
777.914	51.98
778.091	52.53
778.268	53.64
778.445	57.83
778.622	58.27
778.8	60.15
778.977	59.52
779.154	61.18
779.331	59.95
779.508	61.32
779.685	62.56
779.862	61.82
780.038	61.93
780.215	61.46
780.392	58.73
780.569	59.71
780.746	57.26
780.923	55.19
781.1	52.8
781.277	53.57
781.453	53.55
781.63	52.74
781.807	53.2
781.984	53.5
782.16	52.55
782.337	53.09
782.514	50.56
782.691	52.26
782.867	51.12
783.044	53.86
783.221	54.59
783.397	52.82
783.574	55.33
783.75	55.78
783.927	53.88
784.103	52.7
784.28	47.32
784.456	50.2
784.633	46.84
784.809	46.71
784.986	45.65
785.162	44.89
785.339	47.87
785.515	45.27
785.692	46.83
785.868	52.59
786.044	52.5
786.221	58.39
786.397	57.59
786.573	60.45
786.749	64.57
786.926	66.68
787.102	65.78
787.278	63.7
787.454	63.98
787.631	64.16
787.807	62.32
787.983	60.06
788.159	59.26
788.335	59.68
788.511	59.77
788.687	56.33
788.863	54.94
789.039	55.87
789.216	54.95
789.392	53.64
789.568	49.77
789.744	46.65
789.919	49.61
790.095	46.67
790.271	44.57
790.447	42.77
790.623	43.85
790.799	43.39
790.975	43.74
791.151	41.74
791.327	42.4
791.502	44.61
791.678	49.28
791.854	48.68
792.03	49.24
792.205	48.94
792.381	47.4
792.557	49.33
792.733	48.07
792.908	47.73
793.084	50.52
793.259	49.98
793.435	50.36
793.611	43.96
793.786	40.53
793.962	41.28
794.137	44.38
794.313	48.4
794.488	47.56
794.664	50.59
794.839	48.41
795.015	48.5
795.19	47.65
795.366	46.4
795.541	47.13
795.716	49.26
795.892	48.71
796.067	48.95
796.242	47.92
796.418	47.27
796.593	45
796.768	45.05
796.944	42.51
797.119	45.44
797.294	48.72
797.469	52.08
797.644	53.16
797.82	53.64
797.995	49.87
798.17	47.19
798.345	49.17
798.52	51.64
798.695	56.09
798.87	57
799.045	54.86
799.22	54
799.395	49.6
799.57	48.81
799.745	49.27
799.92	50.08
800.095	54.24
800.27	53.21
800.445	49.9
800.62	46.43
800.795	49.48
800.97	50.5
801.145	49.72
801.319	52.1
801.494	49.84
801.669	50.44
801.844	53.37
802.018	49.41
802.193	50.54
802.368	53.01
802.543	51.48
802.717	48.45
802.892	49.01
803.067	47.91
803.241	47.44
803.416	51.66
803.59	53.39
803.765	51.55
803.94	53.6
804.114	50.9
804.289	55.52
804.463	59.19
804.638	58.45
804.812	57.58
804.986	57.37
805.161	59.1
805.335	58.55
805.51	56.23
805.684	57.37
805.858	59.31
806.033	56.33
806.207	51.63
806.381	52.53
806.556	55.64
806.73	54.21
806.904	57.36
807.078	56.25
807.253	57.11
807.427	55.04
807.601	53.95
807.775	54.87
807.949	55.88
808.123	51.87
808.298	48.08
808.472	50.53
808.646	52.05
808.82	46.08
808.994	44.38
809.168	43.96
809.342	51.71
809.516	56.67
809.69	54.38
809.864	59.75
810.038	61.22
810.212	63.34
810.385	59.25
810.559	59.99
810.733	64.22
810.907	65.39
811.081	65.06
811.255	61.62
811.428	61.85
811.602	59.6
811.776	57.18
811.95	58.73
812.123	57.25
812.297	55.41
812.471	52.24
812.644	53.02
812.818	56.03
812.992	57.43
813.165	58.39
813.339	59.02
813.512	59.49
813.686	62.12
813.86	60.3
814.033	61.47
814.207	67.17
814.38	68.24
814.554	67.55
814.727	62.31
814.9	61.33
815.074	58.08
815.247	50.38
815.421	52.02
815.594	53.75
815.767	56.65
815.941	54.39
816.114	56.11
816.287	60.2
816.46	53.54
816.634	59.97
816.807	51.87
816.98	55.16
817.153	61.96
817.327	60.18
817.5	54.42
817.673	53.58
817.846	53.54
818.019	46.74
818.192	43.27
818.365	46.85
818.538	45.23
818.711	48.81
818.884	47.9
819.057	48.32
819.23	52.4
819.403	57.26
819.576	55.12
819.749	56.98
819.922	57.25
820.095	56.35
820.268	60
820.441	58.26
820.614	59.09
820.786	57.14
820.959	55.11
821.132	55.27
821.305	53.64
821.477	55.69
821.65	53.79
821.823	53.67
821.996	54.62
822.168	54.44
822.341	54
822.514	53.32
822.686	53.51
822.859	54.32
823.031	53.61
823.204	53.69
823.376	52.78
823.549	52.94
823.722	53.63
823.894	53.6
824.067	51.86
824.239	51.98
824.411	51.59
824.584	51.06
824.756	50.14
824.929	49.8
825.101	49.17
825.273	50.66
825.446	50.58
825.618	49.97
825.79	49.17
825.963	50.41
826.135	49.95
826.307	50.84
826.479	51.88
826.652	51.62
826.824	52.2
826.996	53.15
827.168	51.01
827.34	51.84
827.512	51.62
827.684	52.67
827.856	51.01
828.029	50.99
828.201	50.29
828.373	50.54
828.545	52.03
828.717	52.7
828.889	52.3
829.061	52.19
829.232	51.6
829.404	50.76
829.576	50.96
829.748	53.31
829.92	54.2
830.092	55.78
830.264	55.96
830.436	52.36
830.607	47.82
830.779	46.09
830.951	44.06
831.123	40.77
831.294	37.03
831.466	35.79
831.638	33.81
831.809	33.88
831.981	32.66
832.153	32.18
832.324	31.03
832.496	33.74
832.667	36.69
832.839	42.68
833.011	46.92
833.182	51.19
833.354	50.96
833.525	52.83
833.697	49.57
833.868	49.85
834.039	47.56
834.211	50.58
834.382	52.91
834.554	52.68
834.725	50.73
834.896	51.23
835.068	47.88
835.239	48.08
835.41	46.57
835.581	52.9
835.753	52.04
835.924	52.85
836.095	49.81
836.266	47.21
836.438	48.84
836.609	51.53
836.78	53.17
836.951	58.58
837.122	53.52
837.293	58.64
837.464	52.29
837.635	54.79
837.806	58.91
837.977	60.92
838.148	62.01
838.319	56.99
838.49	51.43
838.661	50.63
838.832	51
839.003	53.13
839.174	50.66
839.345	51.95
839.516	46.97
839.687	46.23
839.857	47.25
840.028	41.04
840.199	41.72
840.37	43.87
840.54	37.82
840.711	28.82
840.882	34.22
841.053	26.72
841.223	22.52
841.394	19.62
841.564	15.55
841.735	18.1
841.906	26.08
842.076	31.73
842.247	28.73
842.417	34.6
842.588	46.13
842.758	45.71
842.929	58.19
843.099	61.01
843.27	75.59
843.44	82.31
843.611	82.24
843.781	76.98
843.951	63.89
844.122	68.33
844.292	63.22
844.462	67.24
844.633	69.94
844.803	73.16
844.973	66.65
845.144	51.92
845.314	52.34
845.484	54.61
845.654	49.89
845.824	52.45
845.995	63.83
846.165	73.78
846.335	47.8
846.505	18.52
846.675	27.04
846.845	27.58
847.015	45.32
847.185	45.13
847.355	40.41
847.525	44.65
847.695	49.79
847.865	51.84
848.035	57.12
848.205	64.53
848.375	63.07
848.545	43.25
848.715	46.03
848.884	51.02
849.054	26.36
849.224	11.08
849.394	42.33
849.564	35.41
849.733	13.56
849.903	-20.73
850.073	-63.84
850.243	-23.87
850.412	-23.95
850.582	-22.87
850.752	-34.12
850.921	-53.59
851.091	-41.25
851.26	-126.46
851.43	-80.27
851.599	-259.84
851.769	-823.06
851.939	-256.49
852.108	-1865.03
852.278	618.74
852.447	1405.68
852.616	345.12
852.786	1569.28
852.955	-791.84
853.125	-344.61
853.294	-492.03
853.463	-337.99
853.633	-113.5
853.802	-38.32
853.971	-4.3
854.141	5.67
854.31	12.06
854.479	15.83
854.648	21.59
854.818	28.28
854.987	31.34
855.156	46.11
855.325	52.2
855.494	52.58
855.663	35.36
855.832	23.19
856.001	28.37
856.171	36.14
856.34	38.47
856.509	47.93
856.678	63.28
856.847	64.51
857.016	43.97
857.185	44.15
857.353	25.22
857.522	37.13
857.691	63.97
857.86	72.82
858.029	69.3
858.198	45.2
858.367	37.22
858.535	-21.1
858.704	-16.27
858.873	1.51
859.042	21.63
859.21	64.11
859.379	34.26
859.548	15.21
859.717	-4.77
859.885	-34.19
860.054	12.22
860.222	11.24
860.391	24.3
860.56	27.53
860.728	25.13
860.897	17.09
861.065	-3.99
861.234	9.88
861.402	20.6
861.571	44.23
861.739	50.2
861.908	50.54
862.076	38.99
862.244	45.4
862.413	40.97
862.581	49.9
862.749	44.3
862.918	48.17
863.086	55.66
863.254	22.9
863.423	10.15
863.591	-2.43
863.759	-23.3
863.927	-25.51
864.096	-15.2
864.264	-21.52
864.432	-27.42
864.6	-27.61
864.768	-6.71
864.936	-17.03
865.104	24.35
865.272	29.5
865.44	56.22
865.608	56.87
865.776	74.93
865.944	50.87
866.112	59.4
866.28	61.06
866.448	63.41
866.616	102.76
866.784	122.02
866.952	71.77
867.12	63.14
867.288	33.42
867.455	58.74
867.623	49.97
867.791	79.45
867.959	48.15
868.127	56.67
868.294	52.24
868.462	38.62
868.63	39.69
868.797	33.28
868.965	51.79
869.133	48.57
869.3	34.83
869.468	24.58
869.636	37.19
869.803	19.72
869.971	4.45
870.138	5.63
870.306	-3.26
870.473	-46.17
870.641	-20.45
870.808	-28.36
870.975	-48.12
871.143	-105.68
871.31	-147.73
871.478	-174.8
871.645	-136.1
871.812	-106.98
871.98	-49.79
872.147	-25.76
872.314	10.81
872.482	-2.91
872.649	3.76
872.816	-17.55
872.983	30.31
873.15	53.56
873.318	49.11
873.485	46.49
873.652	38.1
873.819	75.39
873.986	23.5
874.153	-28.57
874.32	83.68
874.487	291.49
874.654	1461.81
874.821	1437.39
874.988	-330.39
875.155	-69.93
875.322	-48.25
875.489	-22.07
875.656	-55.4
875.823	-126.32
875.99	-168.83
876.157	-14.31
876.324	-2.15
876.49	43.72
876.657	71.75
876.824	53.85
876.991	62.39
877.157	33.22
877.324	22.51
877.491	25.58
877.658	30
877.824	44.89
877.991	29.87
878.157	31.08
878.324	36.49
878.491	27.2
878.657	71.77
878.824	56.15
878.99	69.79
879.157	108.9
879.323	114.12
879.49	97.08
879.656	66.28
879.823	50.21
879.989	26.12
880.156	-14.4
880.322	-30.64
880.488	-135.8
880.655	-239.95
880.821	-52.89
880.987	-22.22
881.154	-28.21
881.32	14.17
881.486	19.99
881.652	24.55
881.819	32.52
881.985	41.44
882.151	43.89
882.317	51.95
882.483	53.68
882.649	59.97
882.816	57.92
882.982	58.68
883.148	54.94
883.314	55.48
883.48	54.1
883.646	51.54
883.812	49.33
883.978	49.46
884.144	47.36
884.31	48.98
884.476	46.3
884.642	45.37
884.807	46.79
884.973	44.74
885.139	42.94
885.305	42.28
885.471	47.72
885.637	50.36
885.802	48.05
885.968	49.48
886.134	47.85
886.3	45.27
886.465	44.2
886.631	39.98
886.797	47.88
886.962	44.55
887.128	43.47
887.293	37.57
887.459	33.84
887.625	46.98
887.79	49.37
887.956	57.73
888.121	63.28
888.287	63.42
888.452	58.36
888.618	41.39
888.783	59.1
