Data from 2937885_Reflection_2.txt Node
Date: Wed Jul 15 14:34:42 EDT 2015
User: robert
Spectrometer: USB4E03001
Autoset integration time: false
Trigger mode: 4
Integration Time (sec): 1.000000E-1
Scans to average: 10
Electric dark correction enabled: true
Nonlinearity correction enabled: false
Boxcar width: 5
Stray light correction enabled: false
XAxis mode: Wavelengths
Stop averaging: false
Number of Pixels in Spectrum: 3648
>>>>>Begin Spectral Data<<<<<
177.566	552.53
177.785	828.79
178.005	79.3
178.225	44.31
178.445	141.55
178.665	211.47
178.885	-2321.92
179.105	273.05
179.324	57.05
179.544	2.76
179.764	61.46
179.984	11.73
180.204	30.01
180.423	5.48
180.643	-32.46
180.863	-43.49
181.083	-27.25
181.302	-0.92
181.522	-25.2
181.742	-42.97
181.961	-33.44
182.181	-39.46
182.401	-191.84
182.621	-220.73
182.84	-6.07
183.06	36.85
183.279	66.9
183.499	13.51
183.719	-249.67
183.938	-9.93
184.158	-32.77
184.377	-66.1
184.597	-5.16
184.816	15.8
185.036	16.07
185.256	-28.72
185.475	-54.72
185.695	-34.15
185.914	1.77
186.134	7.03
186.353	-32.5
186.572	-58.36
186.792	-94.07
187.011	-1801.65
187.231	2130.94
187.45	250.53
187.67	387.9
187.889	-272.36
188.108	-121.02
188.328	-785.18
188.547	-1494.91
188.766	-339.56
188.986	-453.62
189.205	-106.11
189.424	-43.44
189.644	-18.85
189.863	-13.45
190.082	-16.61
190.302	-27.69
190.521	-17.59
190.74	8.21
190.959	-0.59
191.178	10.56
191.398	20.49
191.617	21.86
191.836	18.18
192.055	-13.72
192.274	-20.7
192.494	-14.01
192.713	-31.16
192.932	-63.81
193.151	-137.26
193.37	-245.19
193.589	-457.26
193.808	-687.69
194.027	441.04
194.246	326.66
194.465	250.3
194.685	187.54
194.904	186.7
195.123	188.47
195.342	136.63
195.561	144.25
195.78	119.77
195.999	178.17
196.218	156.55
196.436	76.96
196.655	71.83
196.874	-665.75
197.093	200.44
197.312	78.19
197.531	48
197.75	-49.59
197.969	-78.89
198.188	-155.32
198.407	-241.32
198.625	-240.11
198.844	516.48
199.063	21.25
199.282	339.86
199.501	99.45
199.719	-15.11
199.938	-101.67
200.157	-135.91
200.376	-60.41
200.594	-137.58
200.813	1072.94
201.032	-407.9
201.251	1507.83
201.469	-439.64
201.688	812.73
201.907	232.31
202.125	215.04
202.344	149.03
202.563	246.99
202.781	449.75
203	-5088.39
203.218	-214.75
203.437	-512.48
203.656	-124.94
203.874	-158.65
204.093	-115.99
204.311	-128.19
204.53	-113.54
204.748	-61.96
204.967	-54.93
205.185	-33.41
205.404	-53.62
205.622	-74.5
205.841	-44.25
206.059	-45.32
206.278	-23.61
206.496	-2.84
206.715	20.64
206.933	29.36
207.151	-1.34
207.37	21.66
207.588	29.49
207.806	34.28
208.025	25.83
208.243	-9.17
208.461	16.31
208.68	10.04
208.898	-0.72
209.116	74.79
209.335	343.88
209.553	115.57
209.771	89.36
209.989	118.03
210.208	83.86
210.426	74.16
210.644	64.26
210.862	70.26
211.081	45.1
211.299	-6.33
211.517	-51.69
211.735	-81.66
211.953	-145.04
212.171	-249.1
212.39	-781.76
212.608	-201.15
212.826	-164.94
213.044	-218.16
213.262	-135.48
213.48	-207.53
213.698	-138.53
213.916	-107.9
214.134	-91.3
214.352	-35.01
214.57	-8.67
214.788	-14.29
215.006	-32.41
215.224	-10.43
215.442	8.1
215.66	8.5
215.878	42.22
216.096	46.63
216.314	27.9
216.532	-21.1
216.75	-2.93
216.968	1.11
217.185	51.47
217.403	63.91
217.621	71.7
217.839	18.75
218.057	27.81
218.275	-97.56
218.492	53.96
218.71	62.19
218.928	71.41
219.146	80.74
219.363	82.87
219.581	53.48
219.799	21.33
220.017	12.57
220.234	9.51
220.452	30.9
220.67	36.12
220.887	-53.67
221.105	-39.62
221.323	-90.95
221.54	-195.82
221.758	-153.52
221.976	-150.73
222.193	-32.33
222.411	10.35
222.629	17.8
222.846	28.81
223.064	42.2
223.281	42.32
223.499	44.49
223.716	40.18
223.934	45.08
224.151	42.92
224.369	45.43
224.586	35.73
224.804	29.05
225.021	30.81
225.239	15.22
225.456	12.4
225.674	16.39
225.891	6.85
226.108	8.32
226.326	-0.21
226.543	4.01
226.76	-9.88
226.978	10.48
227.195	11.91
227.413	2.93
227.63	9.2
227.847	8.53
228.064	11.34
228.282	14.74
228.499	17.5
228.716	19.04
228.934	17.31
229.151	19.28
229.368	17.72
229.585	17.52
229.802	18
230.02	16.5
230.237	13.41
230.454	8.87
230.671	9.35
230.888	7.55
231.105	4
231.323	6.97
231.54	1.33
231.757	-0.67
231.974	-1.75
232.191	-1.63
232.408	-1.5
232.625	-3.9
232.842	5.27
233.059	3.16
233.276	1.45
233.493	6.46
233.71	-0.64
233.927	6.49
234.144	0.22
234.361	1.24
234.578	1.57
234.795	5.47
235.012	11.41
235.229	11.69
235.446	9.67
235.663	12.81
235.879	7.1
236.096	9.98
236.313	4.72
236.53	8.91
236.747	9.48
236.964	11.36
237.181	13.62
237.397	14.48
237.614	7.7
237.831	9.32
238.048	5.37
238.264	9.53
238.481	14.27
238.698	11.82
238.915	17.93
239.131	17.07
239.348	14.66
239.565	10.09
239.781	10.64
239.998	12.91
240.215	13.39
240.431	14.87
240.648	16.51
240.865	11.06
241.081	12.04
241.298	9.58
241.514	10.52
241.731	10.48
241.947	10.38
242.164	9.95
242.38	10.97
242.597	11.54
242.814	10.31
243.03	11.64
243.246	12.01
243.463	12.21
243.679	11.94
243.896	12.92
244.112	13.79
244.329	13.05
244.545	10.8
244.762	8.51
244.978	7.55
245.194	8.72
245.411	5.06
245.627	8.3
245.843	8.69
246.06	8.29
246.276	7.62
246.492	6.64
246.709	8.33
246.925	10.11
247.141	10.82
247.357	11.16
247.574	10.99
247.79	10.74
248.006	9.65
248.222	10.47
248.439	10.66
248.655	10.83
248.871	11.4
249.087	11
249.303	10.66
249.519	11.47
249.736	12.06
249.952	13.74
250.168	15.02
250.384	16.58
250.6	15.52
250.816	15.25
251.032	16.67
251.248	18.8
251.464	20
251.68	17.94
251.896	16.11
252.112	12.54
252.328	10.84
252.544	12.58
252.76	13.07
252.976	12.72
253.192	14.23
253.408	13
253.624	11.67
253.84	9.06
254.056	9.6
254.272	8.99
254.487	10.42
254.703	8.04
254.919	7.18
255.135	2.79
255.351	4.26
255.567	2.31
255.782	1.61
255.998	3.28
256.214	5.59
256.43	6.53
256.646	5.79
256.861	6.31
257.077	9.07
257.293	8.87
257.508	11.4
257.724	8.15
257.94	9.44
258.155	9.31
258.371	9.22
258.587	8.6
258.802	9.27
259.018	10.05
259.234	10.35
259.449	10.33
259.665	9.55
259.88	8.45
260.096	10.18
260.312	9.66
260.527	9.58
260.743	8.91
260.958	9.02
261.174	8.63
261.389	8.07
261.605	8.36
261.82	7.78
262.036	7
262.251	8.99
262.466	7.37
262.682	5.69
262.897	5.49
263.113	4.92
263.328	6.78
263.543	7.73
263.759	9.05
263.974	8.16
264.189	8.59
264.405	9.34
264.62	9.02
264.835	10.64
265.051	10.52
265.266	10.47
265.481	10.66
265.696	8.37
265.912	6.83
266.127	3.73
266.342	3.75
266.557	4.77
266.773	5.46
266.988	5.28
267.203	3.9
267.418	5.12
267.633	4.22
267.848	4.89
268.064	5.14
268.279	6.02
268.494	8.41
268.709	7.09
268.924	6.33
269.139	8.45
269.354	8.28
269.569	7.55
269.784	4.59
269.999	5.94
270.214	5.89
270.429	5.2
270.644	3.96
270.859	3.2
271.074	4.59
271.289	4.57
271.504	2.45
271.719	2.39
271.934	3.89
272.149	7.19
272.363	8.41
272.578	8.05
272.793	7.56
273.008	9.07
273.223	10.17
273.438	10.75
273.653	12.43
273.867	14.15
274.082	13.8
274.297	12.82
274.512	12.27
274.726	10.09
274.941	10.29
275.156	12.79
275.371	10.52
275.585	8.17
275.8	8.06
276.015	6.26
276.229	4.45
276.444	4.58
276.659	3.94
276.873	3.73
277.088	5.43
277.302	5.77
277.517	5.72
277.732	4.63
277.946	5.24
278.161	5.31
278.375	4.35
278.59	4.21
278.804	4.39
279.019	6.54
279.233	6.87
279.448	5.32
279.662	4.86
279.877	2.73
280.091	5.18
280.306	5.13
280.52	4.09
280.735	3.98
280.949	3.9
281.163	5.17
281.378	3.22
281.592	3.59
281.806	5.82
282.021	6.82
282.235	7.8
282.449	6.4
282.664	6.27
282.878	7.35
283.092	9.24
283.307	9.77
283.521	8.86
283.735	9.15
283.949	7.9
284.164	5.75
284.378	5.08
284.592	5.85
284.806	8.06
285.02	8.91
285.234	6.98
285.449	5.16
285.663	3.7
285.877	4.99
286.091	5.56
286.305	7.16
286.519	8.47
286.733	8.44
286.947	6.67
287.161	6.8
287.375	7.55
287.589	8.88
287.803	10.12
288.017	11.9
288.231	10.88
288.445	11.14
288.659	10.09
288.873	8.65
289.087	9.28
289.301	10.35
289.515	8.97
289.729	7.39
289.943	7.65
290.157	8.14
290.371	8.16
290.584	6.86
290.798	6.62
291.012	6.38
291.226	5.56
291.44	3.62
291.654	3.95
291.867	4.15
292.081	4.47
292.295	2.95
292.509	2.14
292.722	2.45
292.936	3.98
293.15	5.33
293.364	7.79
293.577	10.27
293.791	11.41
294.005	10.15
294.218	10.65
294.432	9.06
294.645	9.82
294.859	8.78
295.073	8.89
295.286	8.86
295.5	7.73
295.713	6.24
295.927	4.89
296.14	6.79
296.354	8.45
296.568	9.28
296.781	10.89
296.994	12.28
297.208	13.17
297.421	12.31
297.635	11.88
297.848	12.13
298.062	11.34
298.275	11.78
298.489	10.76
298.702	9.81
298.915	7.55
299.129	8.36
299.342	7.42
299.555	7.18
299.769	6.65
299.982	6.77
300.195	5.51
300.409	6.2
300.622	7.26
300.835	6.83
301.048	7.14
301.262	8.65
301.475	7.21
301.688	7.89
301.901	7.97
302.115	10.02
302.328	9.72
302.541	10.17
302.754	10.36
302.967	10.39
303.18	9.4
303.393	9.54
303.607	11.21
303.82	9.9
304.033	8.47
304.246	7.69
304.459	5.91
304.672	6.62
304.885	6.88
305.098	6.01
305.311	7.27
305.524	9.85
305.737	8.85
305.95	7.18
306.163	8.68
306.376	11.14
306.589	12.29
306.802	13.27
307.015	13.55
307.228	13.27
307.44	13.89
307.653	12.69
307.866	12.25
308.079	11.59
308.292	9.93
308.505	10.67
308.718	8.66
308.93	7.93
309.143	5.21
309.356	5.5
309.569	5.89
309.781	6.47
309.994	5.06
310.207	5.07
310.42	6.29
310.632	8.57
310.845	8.13
311.058	9.18
311.27	8.73
311.483	10.03
311.696	9.64
311.908	9.98
312.121	8.5
312.333	9.48
312.546	9.15
312.759	9.5
312.971	8.99
313.184	9
313.396	7.93
313.609	8.85
313.821	11.11
314.034	10.95
314.246	12.24
314.459	14.05
314.671	13.07
314.884	13.73
315.096	12.65
315.309	10.87
315.521	11.53
315.733	11.19
315.946	10.78
316.158	11.51
316.371	9.72
316.583	9.24
316.795	8.93
317.008	9.59
317.22	10.76
317.432	13.12
317.644	14.34
317.857	12.57
318.069	12.12
318.281	13.4
318.494	11.99
318.706	14.93
318.918	12.74
319.13	12.84
319.342	13.24
319.555	9.46
319.767	6.48
319.979	5.67
320.191	6.55
320.403	5.39
320.615	4.18
320.827	2.1
321.039	0.88
321.252	3.02
321.464	3.99
321.676	4.19
321.888	5.15
322.1	9.09
322.312	11.59
322.524	12.75
322.736	15.48
322.948	14.91
323.16	17.28
323.372	17.9
323.584	17.48
323.796	17.18
324.007	17.03
324.219	17.16
324.431	15.59
324.643	13.71
324.855	12.47
325.067	12.01
325.279	11.72
325.491	11.52
325.702	10.21
325.914	10.61
326.126	10.2
326.338	8.52
326.55	9.49
326.761	9.71
326.973	9.25
327.185	10.66
327.396	11.06
327.608	10.51
327.82	10.08
328.032	12.11
328.243	11.62
328.455	11.78
328.666	12.65
328.878	12.75
329.09	11.21
329.301	13.28
329.513	12.65
329.725	11.4
329.936	14.49
330.148	14.91
330.359	12.94
330.571	11.55
330.782	12.21
330.994	13.16
331.205	13.25
331.417	15.26
331.628	13.81
331.84	14.53
332.051	16.28
332.262	16.08
332.474	14.5
332.685	14.94
332.897	16.12
333.108	14.78
333.319	13.93
333.531	14.19
333.742	13
333.953	14.04
334.165	13.41
334.376	12.27
334.587	11.74
334.799	13.14
335.01	13.31
335.221	13.34
335.432	13.51
335.644	14.09
335.855	14.46
336.066	15.05
336.277	15.24
336.488	14.37
336.7	15.58
336.911	15.22
337.122	15.25
337.333	15.15
337.544	15.34
337.755	15.47
337.966	16.33
338.177	15.48
338.388	16.28
338.599	15.76
338.811	17.08
339.022	17.26
339.233	18.48
339.444	17.92
339.655	18.27
339.866	18.77
340.076	20.68
340.287	20.63
340.498	21.79
340.709	21.57
340.92	21.13
341.131	21.82
341.342	20.2
341.553	19.49
341.764	19.11
341.975	19.99
342.185	20.65
342.396	18.79
342.607	18.31
342.818	17.46
343.029	17.13
343.239	18.25
343.45	18.38
343.661	17.35
343.872	18.1
344.082	18.83
344.293	18.18
344.504	16.43
344.714	17.34
344.925	17.74
345.136	18.1
345.346	18.98
345.557	18.88
345.768	20.11
345.978	21.06
346.189	20.3
346.399	19.83
346.61	19.67
346.821	19.6
347.031	19.35
347.242	19.5
347.452	19.2
347.663	17.62
347.873	17.68
348.084	16.16
348.294	16.38
348.504	17.47
348.715	17.53
348.925	17.13
349.136	17.52
349.346	17.14
349.557	17.73
349.767	15.61
349.977	16.39
350.188	16.04
350.398	15.01
350.608	16
350.819	14.86
351.029	14.39
351.239	14.97
351.449	13.88
351.66	14.86
351.87	13.75
352.08	16.48
352.29	15.49
352.501	16.19
352.711	16.16
352.921	15.01
353.131	15.16
353.341	15.69
353.552	14.71
353.762	16.98
353.972	17.38
354.182	17.61
354.392	17.99
354.602	19.16
354.812	17.85
355.022	18.06
355.232	19.73
355.442	19.1
355.652	19.27
355.862	20.43
356.072	19.36
356.282	18.56
356.492	18.56
356.702	17.67
356.912	16.58
357.122	18.22
357.332	18.34
357.542	17.19
357.752	17.19
357.962	16.94
358.171	16.15
358.381	16.37
358.591	15.67
358.801	16.68
359.011	16.26
359.221	16.82
359.43	15.72
359.64	15.58
359.85	16.32
360.06	17.3
360.269	18.06
360.479	18.05
360.689	17.98
360.899	18.29
361.108	17.21
361.318	16.92
361.528	16.99
361.737	16.66
361.947	16.49
362.156	15.79
362.366	15.36
362.576	14.05
362.785	13.32
362.995	13.09
363.204	12.94
363.414	12.38
363.623	12.34
363.833	12.11
364.042	12.06
364.252	11.76
364.461	11.93
364.671	10.92
364.88	11.65
365.09	12.04
365.299	12.9
365.509	12.8
365.718	13
365.927	13.16
366.137	12.77
366.346	12.56
366.555	12.28
366.765	12.29
366.974	13.28
367.183	12.69
367.393	12.12
367.602	11.19
367.811	10.79
368.021	10.75
368.23	11.35
368.439	11.51
368.648	12.73
368.857	13.48
369.067	13.6
369.276	13.57
369.485	14.02
369.694	15.79
369.903	14.91
370.112	15.1
370.321	15.75
370.531	15.81
370.74	15.59
370.949	14.4
371.158	14.11
371.367	13.59
371.576	13.36
371.785	13.24
371.994	12.27
372.203	12.38
372.412	12.2
372.621	11.9
372.83	10.94
373.039	11.08
373.248	11.28
373.457	11.27
373.666	11.92
373.874	10.96
374.083	11.07
374.292	11.54
374.501	11.95
374.71	12.25
374.919	11.41
375.128	12.04
375.336	11.97
375.545	11.79
375.754	11.7
375.963	12.14
376.171	12.9
376.38	13.68
376.589	13.99
376.798	14.13
377.006	14.05
377.215	14.96
377.424	14.77
377.632	14.96
377.841	15.2
378.05	15.34
378.258	14.43
378.467	14.04
378.675	13.26
378.884	12.66
379.093	12.9
379.301	13.11
379.51	12.54
379.718	12.28
379.927	12.64
380.135	12.64
380.344	12.83
380.552	13.28
380.761	13.59
380.969	13.81
381.177	14.58
381.386	14.16
381.594	14.25
381.803	14.26
382.011	14.34
382.219	13.5
382.428	13.37
382.636	12.7
382.845	12.28
383.053	12.07
383.261	12.06
383.469	11.65
383.678	11.67
383.886	11.45
384.094	11.55
384.302	12.2
384.511	12.22
384.719	11.88
384.927	11.98
385.135	11.81
385.343	11.97
385.552	12.22
385.76	12.17
385.968	11.85
386.176	11.77
386.384	11.84
386.592	11.19
386.8	11.42
387.008	11.59
387.216	11.63
387.424	11.42
387.633	11.32
387.841	10.86
388.049	10.81
388.257	10.81
388.465	10.76
388.672	10.4
388.88	10.31
389.088	10.06
389.296	10.55
389.504	10.7
389.712	11.25
389.92	10.91
390.128	11.16
390.336	10.85
390.544	10.94
390.751	11.07
390.959	10.76
391.167	10.93
391.375	10.88
391.583	10.35
391.79	10.22
391.998	9.94
392.206	10.1
392.414	9.6
392.621	9.77
392.829	9.57
393.037	8.86
393.244	9.25
393.452	9.15
393.66	9.47
393.867	9.6
394.075	9.63
394.283	9.81
394.49	9.9
394.698	10.28
394.905	10.05
395.113	10.09
395.32	10.14
395.528	9.82
395.735	10.03
395.943	9.65
396.15	9.69
396.358	9.59
396.565	9.39
396.773	9.5
396.98	9.15
397.188	9.43
397.395	9.59
397.602	10.03
397.81	10.25
398.017	10.05
398.225	9.74
398.432	9.86
398.639	9.77
398.847	9.9
399.054	10.01
399.261	10.31
399.468	10.09
399.676	10.4
399.883	10.22
400.09	9.99
400.297	9.62
400.505	9.73
400.712	9.2
400.919	9.36
401.126	9.31
401.333	9.53
401.54	9.16
401.748	8.85
401.955	8.51
402.162	8.77
402.369	8.98
402.576	9.2
402.783	9.08
402.99	9.25
403.197	8.99
403.404	8.89
403.611	8.55
403.818	8.41
404.025	8.87
404.232	8.56
404.439	8.52
404.646	8.32
404.853	8.02
405.06	8.18
405.267	8.34
405.474	8.42
405.681	8.38
405.887	8.09
406.094	8.61
406.301	8.56
406.508	8.73
406.715	8.88
406.922	9.23
407.128	9.59
407.335	9.46
407.542	9.7
407.749	9.58
407.955	9.55
408.162	9.45
408.369	9
408.575	8.88
408.782	8.93
408.989	8.95
409.195	9.01
409.402	8.87
409.609	9.2
409.815	8.69
410.022	8.76
410.228	8.65
410.435	9.09
410.642	9.17
410.848	8.87
411.055	8.91
411.261	8.63
411.468	8.46
411.674	8.56
411.881	8.31
412.087	8.77
412.294	8.87
412.5	9.15
412.706	9.07
412.913	9.28
413.119	9.83
413.326	10.04
413.532	10.08
413.738	10.09
413.945	10.43
414.151	10.46
414.357	9.93
414.564	10.03
414.77	10.02
414.976	9.95
415.182	9.84
415.389	9.67
415.595	9.82
415.801	9.8
416.007	9.71
416.214	9.36
416.42	9.51
416.626	9.62
416.832	9.54
417.038	9.38
417.244	9.37
417.45	9.59
417.657	9.53
417.863	9.29
418.069	9.45
418.275	9.19
418.481	9.35
418.687	9.38
418.893	9.57
419.099	9.77
419.305	9.66
419.511	9.72
419.717	9.62
419.923	9.49
420.129	9.48
420.335	9.42
420.541	9.46
420.746	9.39
420.952	9.44
421.158	9.19
421.364	8.95
421.57	9.1
421.776	9.2
421.982	9.14
422.187	9.32
422.393	9.45
422.599	9.33
422.805	9.5
423.01	9.5
423.216	9.41
423.422	9.64
423.628	9.65
423.833	9.68
424.039	9.59
424.245	9.67
424.45	9.6
424.656	9.54
424.862	9.6
425.067	9.54
425.273	9.49
425.478	9.32
425.684	9.06
425.889	9.07
426.095	8.96
426.301	8.94
426.506	8.82
426.712	8.88
426.917	8.83
427.123	8.72
427.328	8.63
427.533	8.65
427.739	8.87
427.944	9.12
428.15	9.04
428.355	8.98
428.561	8.64
428.766	8.66
428.971	8.54
429.177	8.51
429.382	8.26
429.587	8.02
429.793	7.8
429.998	7.71
430.203	7.65
430.408	7.66
430.614	7.77
430.819	8.2
431.024	7.96
431.229	7.92
431.434	7.88
431.64	8.23
431.845	8.88
432.05	9.11
432.255	9.22
432.46	9.32
432.665	9.44
432.87	9.3
433.076	8.95
433.281	9.09
433.486	9.01
433.691	9.01
433.896	9.12
434.101	8.88
434.306	9
434.511	8.99
434.716	9.01
434.921	8.94
435.126	9.01
435.331	9.26
435.535	9.17
435.74	9.57
435.945	9.45
436.15	9.19
436.355	9.28
436.56	9.05
436.765	9.1
436.97	8.93
437.174	8.95
437.379	9.11
437.584	9.08
437.789	9.18
437.993	8.87
438.198	8.85
438.403	9.03
438.608	8.85
438.812	8.95
439.017	8.97
439.222	9.06
439.426	9.09
439.631	9.07
439.836	9.08
440.04	9.33
440.245	9.3
440.45	9.3
440.654	9.3
440.859	9.21
441.063	9.09
441.268	9.17
441.472	9.14
441.677	9.06
441.881	8.99
442.086	8.98
442.29	8.9
442.495	8.78
442.699	9
442.904	8.82
443.108	8.95
443.312	9.18
443.517	9.04
443.721	8.98
443.925	8.9
444.13	8.95
444.334	8.97
444.538	8.87
444.743	8.96
444.947	8.9
445.151	9.06
445.356	9.1
445.56	9
445.764	8.97
445.968	8.9
446.173	9.03
446.377	9.1
446.581	9.07
446.785	9.01
446.989	9.1
447.193	9.18
447.398	9.19
447.602	9.29
447.806	9.37
448.01	9.31
448.214	9.27
448.418	9.26
448.622	9.21
448.826	9.19
449.03	9.19
449.234	9.12
449.438	8.88
449.642	8.88
449.846	8.79
450.05	8.58
450.254	8.7
450.458	8.75
450.662	8.96
450.866	9.01
451.069	8.92
451.273	9.13
451.477	9.04
451.681	9.19
451.885	9.14
452.089	9.18
452.292	9.29
452.496	9.31
452.7	9.31
452.904	9.03
453.107	8.97
453.311	9.17
453.515	8.86
453.719	9.15
453.922	8.91
454.126	8.86
454.33	8.72
454.533	8.3
454.737	8.36
454.94	8.47
455.144	8.45
455.348	8.29
455.551	8.15
455.755	8.29
455.958	8.01
456.162	8.25
456.365	8.05
456.569	8.16
456.772	8.34
456.976	8.05
457.179	8
457.383	8.28
457.586	8.26
457.79	8.22
457.993	8.26
458.196	8.34
458.4	8.39
458.603	8.56
458.807	8.42
459.01	8.54
459.213	8.78
459.417	8.62
459.62	8.54
459.823	8.65
460.026	8.57
460.23	8.46
460.433	8.51
460.636	8.41
460.839	8.27
461.042	8.34
461.246	8.31
461.449	8.14
461.652	8.3
461.855	8.22
462.058	7.99
462.261	7.96
462.464	8.08
462.668	7.85
462.871	8
463.074	8.1
463.277	7.96
463.48	7.93
463.683	7.92
463.886	8.02
464.089	8.29
464.292	8.78
464.495	8.97
464.698	8.93
464.901	9.07
465.104	8.99
465.306	8.92
465.509	8.79
465.712	8.88
465.915	8.96
466.118	8.93
466.321	8.58
466.524	8.15
466.726	8.11
466.929	8.11
467.132	8.15
467.335	8
467.538	8.13
467.74	8.21
467.943	8.25
468.146	8.32
468.348	8.07
468.551	8.13
468.754	8.31
468.956	8.2
469.159	8.11
469.362	8.22
469.564	8.49
469.767	8.36
469.969	8.43
470.172	8.48
470.375	8.2
470.577	8.53
470.78	8.47
470.982	8.45
471.185	8.53
471.387	8.66
471.59	8.59
471.792	8.57
471.995	8.71
472.197	8.76
472.399	8.66
472.602	8.61
472.804	8.46
473.007	8.52
473.209	8.55
473.411	8.64
473.614	8.38
473.816	8.23
474.018	8.14
474.22	8.16
474.423	8.05
474.625	8.03
474.827	8.08
475.03	8.17
475.232	8.04
475.434	7.94
475.636	8.04
475.838	8.26
476.04	8.41
476.243	8.18
476.445	8.1
476.647	8.15
476.849	8.26
477.051	8.4
477.253	8.41
477.455	8.49
477.657	8.61
477.859	8.44
478.061	8.35
478.263	8.33
478.465	8.52
478.667	8.83
478.869	8.75
479.071	8.65
479.273	8.59
479.475	8.47
479.677	8.41
479.879	8.36
480.081	8.51
480.283	8.55
480.485	8.43
480.686	8.42
480.888	8.22
481.09	8.35
481.292	8.51
481.494	8.55
481.695	8.59
481.897	8.65
482.099	8.67
482.301	8.66
482.502	8.68
482.704	8.73
482.906	8.67
483.107	8.68
483.309	8.74
483.511	8.64
483.712	8.67
483.914	8.68
484.115	8.62
484.317	8.58
484.519	8.53
484.72	8.47
484.922	8.41
485.123	8.45
485.325	8.42
485.526	8.35
485.728	8.37
485.929	8.37
486.131	8.41
486.332	8.54
486.534	8.55
486.735	8.61
486.936	8.71
487.138	8.79
487.339	8.79
487.541	8.76
487.742	8.72
487.943	8.72
488.144	8.72
488.346	8.68
488.547	8.68
488.748	8.8
488.95	8.85
489.151	8.74
489.352	8.68
489.553	8.71
489.755	8.7
489.956	8.77
490.157	8.76
490.358	8.75
490.559	8.72
490.76	8.65
490.961	8.61
491.163	8.46
491.364	8.53
491.565	8.57
491.766	8.54
491.967	8.63
492.168	8.59
492.369	8.61
492.57	8.53
492.771	8.56
492.972	8.54
493.173	8.4
493.374	8.53
493.575	8.44
493.776	8.57
493.976	8.57
494.177	8.47
494.378	8.4
494.579	8.34
494.78	8.34
494.981	8.27
495.182	8.21
495.382	8.28
495.583	8.22
495.784	8.27
495.985	8.18
496.185	8.22
496.386	8.43
496.587	8.7
496.788	8.62
496.988	8.88
497.189	8.85
497.39	8.95
497.59	9.03
497.791	8.98
497.992	9
498.192	9.01
498.393	8.88
498.593	8.83
498.794	8.79
498.994	8.88
499.195	8.6
499.395	8.61
499.596	8.51
499.796	8.52
499.997	8.64
500.197	8.75
500.398	8.79
500.598	8.88
500.799	8.86
500.999	8.88
501.199	9.06
501.4	9.12
501.6	9.25
501.801	9.28
502.001	9.33
502.201	9.25
502.402	9.22
502.602	8.96
502.802	9.16
503.002	8.98
503.203	9.07
503.403	9.27
503.603	9.19
503.803	9.25
504.003	9.4
504.204	9.34
504.404	9.27
504.604	9.14
504.804	9.27
505.004	9.05
505.204	9.09
505.404	8.94
505.604	8.71
505.804	8.8
506.005	8.71
506.205	8.76
506.405	8.86
506.605	8.93
506.805	9.24
507.005	9.23
507.204	9.33
507.404	9.33
507.604	9.28
507.804	9.25
508.004	9.42
508.204	9.65
508.404	9.58
508.604	9.7
508.804	9.97
509.003	9.81
509.203	9.94
509.403	9.94
509.603	10.18
509.803	10.45
510.002	10.52
510.202	10.55
510.402	10.37
510.602	10.42
510.801	10.28
511.001	10.12
511.201	10.44
511.4	10.48
511.6	10.54
511.8	10.43
511.999	10.34
512.199	10.41
512.398	10.45
512.598	10.54
512.797	10.44
512.997	10.37
513.197	10.36
513.396	10.33
513.596	10.12
513.795	10.16
513.994	10.19
514.194	10.22
514.393	10.25
514.593	10.15
514.792	9.99
514.992	10.19
515.191	10.26
515.39	10.3
515.59	10.25
515.789	10.5
515.988	10.48
516.188	10.45
516.387	10.38
516.586	10.42
516.786	10.53
516.985	10.87
517.184	10.77
517.383	11.15
517.582	11.23
517.782	11.24
517.981	11.38
518.18	11.39
518.379	11.63
518.578	11.72
518.777	11.85
518.976	11.76
519.176	11.78
519.375	11.75
519.574	11.59
519.773	11.57
519.972	11.69
520.171	11.6
520.37	11.72
520.569	11.46
520.768	11.45
520.967	11.42
521.166	11.45
521.365	11.32
521.564	11.41
521.762	11.34
521.961	11.51
522.16	11.43
522.359	11.49
522.558	11.47
522.757	11.74
522.956	11.76
523.154	11.72
523.353	11.84
523.552	11.99
523.751	12.19
523.949	12.53
524.148	12.55
524.347	12.7
524.546	12.91
524.744	12.92
524.943	12.86
525.142	12.91
525.34	12.76
525.539	12.8
525.737	12.72
525.936	12.64
526.135	12.55
526.333	12.57
526.532	12.63
526.73	12.61
526.929	12.75
527.127	12.84
527.326	12.93
527.524	13.18
527.723	13.15
527.921	13.26
528.12	13.33
528.318	13.34
528.516	13.34
528.715	13.27
528.913	13.27
529.112	13.23
529.31	13.23
529.508	13.22
529.707	13.2
529.905	13.26
530.103	13.25
530.301	13.32
530.5	13.35
530.698	13.26
530.896	13.35
531.094	13.33
531.293	13.36
531.491	13.38
531.689	13.42
531.887	13.37
532.085	13.43
532.283	13.62
532.481	13.67
532.68	13.69
532.878	13.94
533.076	13.88
533.274	13.99
533.472	14.12
533.67	14.2
533.868	14.28
534.066	14.39
534.264	14.37
534.462	14.32
534.66	14.26
534.858	14.35
535.056	14.18
535.253	14.4
535.451	14.46
535.649	14.44
535.847	14.6
536.045	14.55
536.243	14.66
536.441	14.86
536.638	14.88
536.836	14.97
537.034	14.92
537.232	15.12
537.43	14.84
537.627	14.83
537.825	14.85
538.023	14.79
538.22	14.87
538.418	14.75
538.616	14.72
538.813	14.71
539.011	14.8
539.209	14.94
539.406	14.94
539.604	15.27
539.801	15.34
539.999	15.44
540.196	15.5
540.394	15.57
540.591	15.7
540.789	15.78
540.986	15.9
541.184	15.9
541.381	15.87
541.579	15.89
541.776	15.85
541.974	15.96
542.171	15.97
542.368	15.97
542.566	16.06
542.763	15.92
542.96	15.91
543.158	15.87
543.355	15.9
543.552	15.94
543.75	16.04
543.947	16.07
544.144	15.93
544.341	16.07
544.539	16
544.736	16.09
544.933	16.36
545.13	16.4
545.327	16.59
545.524	16.62
545.722	16.64
545.919	16.64
546.116	16.77
546.313	16.81
546.51	16.63
546.707	16.89
546.904	16.58
547.101	16.57
547.298	16.69
547.495	16.59
547.692	16.56
547.889	16.65
548.086	16.59
548.283	16.59
548.48	16.68
548.677	16.92
548.874	16.94
549.07	17.36
549.267	17.44
549.464	17.45
549.661	17.47
549.858	17.67
550.055	17.83
550.251	17.91
550.448	18.06
550.645	18.07
550.842	18.17
551.038	18.09
551.235	18.03
551.432	18.11
551.628	18.18
551.825	18.1
552.022	18.13
552.218	17.84
552.415	18
552.612	17.96
552.808	18.07
553.005	17.89
553.201	17.85
553.398	17.82
553.594	18
553.791	18.04
553.987	18.13
554.184	18.18
554.38	18.55
554.577	18.54
554.773	18.56
554.97	18.5
555.166	18.76
555.362	18.8
555.559	18.67
555.755	18.46
555.952	18.58
556.148	18.78
556.344	18.96
556.541	18.8
556.737	19.02
556.933	19.48
557.129	19.72
557.326	19.64
557.522	19.66
557.718	19.87
557.914	20.09
558.11	20.04
558.307	20.04
558.503	19.87
558.699	20.27
558.895	20.14
559.091	19.86
559.287	19.71
559.483	19.97
559.679	20.11
559.876	20.11
560.072	20.02
560.268	20.01
560.464	20.01
560.66	20.01
560.856	19.96
561.052	19.92
561.247	19.9
561.443	19.85
561.639	19.69
561.835	19.79
562.031	19.81
562.227	19.94
562.423	19.95
562.619	20
562.815	19.89
563.01	19.92
563.206	19.98
563.402	20
563.598	20.18
563.793	20.18
563.989	20.23
564.185	20.43
564.381	20.46
564.576	20.42
564.772	20.49
564.968	20.65
565.163	20.5
565.359	20.6
565.555	20.74
565.75	20.79
565.946	21.08
566.141	21.18
566.337	21.12
566.532	20.83
566.728	20.98
566.923	20.95
567.119	21.07
567.314	21.13
567.51	21.03
567.705	21.02
567.901	21.09
568.096	20.75
568.292	20.78
568.487	20.87
568.682	21.23
568.878	21.35
569.073	21.4
569.268	21.5
569.464	21.64
569.659	21.73
569.854	21.67
570.05	21.59
570.245	21.65
570.44	21.51
570.635	21.55
570.831	21.86
571.026	21.85
571.221	22.09
571.416	22.22
571.611	22.19
571.806	22.33
572.002	22.51
572.197	22.64
572.392	22.71
572.587	22.68
572.782	22.6
572.977	22.38
573.172	22.36
573.367	22.26
573.562	22.19
573.757	22.18
573.952	22.27
574.147	22.19
574.342	22.31
574.537	22.28
574.732	22.48
574.927	22.43
575.121	22.43
575.316	22.37
575.511	22.27
575.706	22.29
575.901	22.23
576.096	22.19
576.29	22.26
576.485	22.28
576.68	22.44
576.875	22.28
577.069	22.75
577.264	23.09
577.459	23.01
577.654	23.13
577.848	23.03
578.043	23.33
578.238	23.42
578.432	23.32
578.627	23.23
578.821	22.97
579.016	23.09
579.21	22.72
579.405	22.5
579.6	22.67
579.794	22.72
579.989	22.6
580.183	22.65
580.378	22.59
580.572	22.68
580.766	22.62
580.961	22.81
581.155	22.69
581.35	22.85
581.544	22.62
581.738	22.65
581.933	22.92
582.127	23.16
582.321	23.14
582.516	23.19
582.71	23.41
582.904	23.68
583.099	23.79
583.293	23.82
583.487	23.82
583.681	24.07
583.875	24.39
584.07	24.11
584.264	24.14
584.458	24.16
584.652	23.97
584.846	23.76
585.04	23.41
585.234	23.39
585.428	23.46
585.623	23.43
585.817	23.19
586.011	22.51
586.205	22.42
586.399	22.38
586.593	22.34
586.787	22.34
586.981	22.2
587.174	22.31
587.368	22.4
587.562	22.77
587.756	22.85
587.95	22.99
588.144	23.48
588.338	23.68
588.532	23.91
588.725	24.01
588.919	24.32
589.113	24.7
589.307	24.9
589.501	25.05
589.694	24.68
589.888	24.78
590.082	24.91
590.275	24.92
590.469	24.82
590.663	24.56
590.856	24.45
591.05	24.72
591.244	24.82
591.437	24.65
591.631	24.46
591.824	24.71
592.018	24.49
592.212	24.44
592.405	24.27
592.599	24.05
592.792	24
592.986	23.93
593.179	23.55
593.372	23.19
593.566	23.34
593.759	23.32
593.953	23.12
594.146	22.92
594.339	23.12
594.533	23.04
594.726	23.36
594.92	23.52
595.113	23.7
595.306	23.62
595.499	23.81
595.693	23.71
595.886	23.78
596.079	23.94
596.272	24.01
596.466	23.86
596.659	24.26
596.852	24.42
597.045	24.31
597.238	24.35
597.431	24.42
597.624	24.33
597.818	24.54
598.011	24.67
598.204	24.81
598.397	25.21
598.59	25.08
598.783	24.71
598.976	24.6
599.169	24.76
599.362	24.62
599.555	24.39
599.748	24.49
599.941	24.17
600.134	23.98
600.326	23.89
600.519	23.65
600.712	23.84
600.905	24.16
601.098	23.95
601.291	24.03
601.483	23.94
601.676	24.37
601.869	24.4
602.062	24.5
602.255	24.56
602.447	24.62
602.64	24.78
602.833	24.99
603.025	24.96
603.218	25.08
603.411	25.15
603.603	25.33
603.796	25.26
603.989	25.47
604.181	25.35
604.374	25.24
604.566	25.3
604.759	25.01
604.951	24.86
605.144	24.78
605.336	24.76
605.529	24.74
605.721	24.75
605.914	24.7
606.106	24.57
606.299	24.9
606.491	25.2
606.683	25.26
606.876	25.42
607.068	25.49
607.26	25.61
607.453	25.53
607.645	25.47
607.837	25.57
608.03	25.5
608.222	25.23
608.414	25.06
608.606	24.94
608.799	24.85
608.991	25.06
609.183	25.04
609.375	25.1
609.567	25.21
609.759	24.95
609.952	24.68
610.144	24.75
610.336	24.92
610.528	24.97
610.72	24.93
610.912	24.68
611.104	24.74
611.296	24.72
611.488	24.61
611.68	24.5
611.872	24.61
612.064	24.73
612.256	24.81
612.448	24.75
612.64	24.65
612.832	24.6
613.023	24.8
613.215	24.55
613.407	24.92
613.599	24.97
613.791	24.86
613.983	25.15
614.174	25.08
614.366	25.02
614.558	25
614.75	25.35
614.941	25.04
615.133	24.91
615.325	24.93
615.516	24.7
615.708	24.19
615.9	24.85
616.091	24.69
616.283	24.76
616.475	24.66
616.666	24.54
616.858	23.97
617.049	24.56
617.241	24.57
617.432	24.49
617.624	24.53
617.815	24.91
618.007	24.41
618.198	24.46
618.39	24.71
618.581	24.91
618.773	24.9
618.964	25.26
619.155	25.32
619.347	25.73
619.538	25.85
619.729	25.43
619.921	25.56
620.112	25.66
620.303	25.44
620.494	25.13
620.686	24.88
620.877	25.09
621.068	24.99
621.259	24.42
621.451	24.16
621.642	24.27
621.833	24.72
622.024	24.79
622.215	24.95
622.406	25.37
622.597	25.58
622.788	25.56
622.98	25.66
623.171	25.64
623.362	26.11
623.553	26.27
623.744	25.78
623.935	25.68
624.126	25.65
624.317	25.72
624.508	25.76
624.698	25.75
624.889	26.01
625.08	26.05
625.271	26.04
625.462	26.21
625.653	25.91
625.844	26.12
626.034	26.04
626.225	25.92
626.416	25.75
626.607	25.35
626.798	25.34
626.988	25.11
627.179	24.88
627.37	24.88
627.56	24.41
627.751	24.6
627.942	24.71
628.132	24.65
628.323	24.54
628.514	24.37
628.704	24.84
628.895	24.8
629.085	25.06
629.276	24.92
629.466	24.92
629.657	25.21
629.847	24.79
630.038	24.92
630.228	24.92
630.419	25.06
630.609	25.32
630.8	24.93
630.99	24.85
631.181	25.07
631.371	25.94
631.561	25.99
631.752	25.97
631.942	26.48
632.132	26.18
632.323	26.15
632.513	26.01
632.703	25.9
632.893	26.16
633.084	26.31
633.274	26.47
633.464	26.1
633.654	26.44
633.844	26.34
634.034	26.6
634.225	26.6
634.415	26.81
634.605	26.9
634.795	27.1
634.985	27.15
635.175	27.06
635.365	26.62
635.555	26.54
635.745	26.24
635.935	26.18
636.125	25.77
636.315	26.04
636.505	25.97
636.695	26.32
636.885	26.24
637.075	25.83
637.265	26.16
637.455	26.29
637.644	26.1
637.834	25.85
638.024	26.16
638.214	25.83
638.404	25.56
638.593	25.43
638.783	25.35
638.973	25.25
639.163	25.27
639.352	24.77
639.542	24.85
639.732	24.75
639.921	24.83
640.111	24.56
640.301	25.16
640.49	25.34
640.68	25.32
640.87	25.1
641.059	24.94
641.249	24.92
641.438	25.08
641.628	24.65
641.817	24.77
642.007	25.08
642.196	24.88
642.386	24.66
642.575	24.66
642.764	24.43
642.954	24.74
643.143	24.67
643.333	24.97
643.522	24.98
643.711	25.6
643.901	25.84
644.09	25.69
644.279	25.96
644.469	26.09
644.658	26.08
644.847	26.91
645.036	26.42
645.226	26.61
645.415	26.54
645.604	26.12
645.793	25.47
645.982	25.16
646.171	25.13
646.361	25.2
646.55	25.22
646.739	25.04
646.928	24.31
647.117	24.45
647.306	24.77
647.495	24.77
647.684	25.1
647.873	25.48
648.062	25.74
648.251	26.07
648.44	25.9
648.629	25.49
648.818	25.73
649.007	25.94
649.196	26
649.384	26.18
649.573	26.15
649.762	26.51
649.951	26.58
650.14	26.81
650.328	26.93
650.517	27.64
650.706	28.24
650.895	28.56
651.083	28.33
651.272	28.52
651.461	28.28
651.65	28.6
651.838	28.06
652.027	27.89
652.216	27.45
652.404	27.49
652.593	26.8
652.781	26.58
652.97	25.87
653.158	26.11
653.347	26.15
653.535	25.81
653.724	25.66
653.912	26.18
654.101	26.11
654.289	26.02
654.478	25.31
654.666	25.63
654.855	25.43
655.043	25.96
655.231	26.23
655.42	26.22
655.608	26.64
655.796	26.81
655.985	26.46
656.173	26.64
656.361	26.96
656.55	27.36
656.738	27.47
656.926	27.57
657.114	27.35
657.302	27.25
657.491	27.04
657.679	26.76
657.867	26.73
658.055	26.78
658.243	26.93
658.431	27.29
658.619	27.54
658.807	27.52
658.996	27.66
659.184	27.71
659.372	27.65
659.56	27.59
659.748	27.59
659.936	27.38
660.124	27.23
660.311	27.06
660.499	26.72
660.687	26.42
660.875	26.29
661.063	26.38
661.251	26.36
661.439	25.96
661.627	25.92
661.814	26.28
662.002	26.37
662.19	27.16
662.378	27.15
662.565	27.04
662.753	26.99
662.941	27.37
663.129	26.87
663.316	26.63
663.504	26.98
663.692	26.96
663.879	26.49
664.067	26.31
664.254	25.4
664.442	25.25
664.63	25.34
664.817	25.65
665.005	25.04
665.192	25.46
665.38	25.83
665.567	25.93
665.755	26.38
665.942	26.1
666.13	26.17
666.317	26.37
666.504	26.81
666.692	26.76
666.879	26.53
667.067	27.2
667.254	27.25
667.441	27.52
667.629	27.5
667.816	26.93
668.003	27.16
668.19	27.43
668.378	27.87
668.565	27.34
668.752	26.99
668.939	26.78
669.127	26.77
669.314	26.44
669.501	25.82
669.688	26.08
669.875	26.48
670.062	26.68
670.249	26.34
670.436	25.92
670.623	26.08
670.81	25.94
670.997	26.43
671.184	26.48
671.371	26.47
671.558	27.03
671.745	26.8
671.932	27.27
672.119	27.4
672.306	28.14
672.493	28.58
672.68	28.8
672.867	29.05
673.054	29.12
673.24	28.33
673.427	28.32
673.614	28.33
673.801	28.33
673.988	27.8
674.174	27.94
674.361	27.55
674.548	27.24
674.734	26.93
674.921	27.56
675.108	27.52
675.294	27.13
675.481	26.61
675.668	26.84
675.854	26.86
676.041	27.05
676.227	26.43
676.414	26.02
676.601	26.02
676.787	26.1
676.974	25.38
677.16	25.07
677.347	25.78
677.533	26.26
677.719	26.1
677.906	25.99
678.092	26.21
678.279	26.71
678.465	26.68
678.651	26.55
678.838	26.72
679.024	27.16
679.21	27.26
679.397	27.21
679.583	27.11
679.769	26.93
679.955	26.87
680.142	26.54
680.328	26.39
680.514	26.53
680.7	27.08
680.886	26.75
681.073	26.78
681.259	26.78
681.445	26.87
681.631	27.2
681.817	26.91
682.003	26.51
682.189	26.74
682.375	26.75
682.561	26.71
682.747	26.59
682.933	26.38
683.119	26.32
683.305	26.6
683.491	25.85
683.677	26.24
683.863	26.32
684.049	27.08
684.235	27.14
684.42	27.1
684.606	27.17
684.792	27.04
684.978	27.62
685.164	27.63
685.349	27.36
685.535	27.8
685.721	27.13
685.907	27.19
686.092	27.24
686.278	26.75
686.464	26.61
686.649	26.66
686.835	26.45
687.021	26.57
687.206	26.1
687.392	26.31
687.577	26.96
687.763	26.8
687.948	27.37
688.134	27.51
688.319	27.47
688.505	27.83
688.69	27.42
688.876	27.32
689.061	27.35
689.247	27.97
689.432	27.26
689.618	26.7
689.803	26.62
689.988	26.18
690.174	25.59
690.359	26.11
690.544	25.21
690.73	25.57
690.915	26.2
691.1	25.83
691.285	25.73
691.471	25.93
691.656	26.15
691.841	26.17
692.026	26.52
692.211	26.59
692.396	26.05
692.582	26.28
692.767	26.48
692.952	25.86
693.137	26.34
693.322	25.94
693.507	25.99
693.692	25.94
693.877	26.27
694.062	26.26
694.247	26.46
694.432	26.67
694.617	27.39
694.802	27.6
694.987	27.25
695.172	27.25
695.357	27.7
695.541	27.3
695.726	27.19
695.911	27.09
696.096	26.48
696.281	27.05
696.466	27.36
696.65	27.02
696.835	27.23
697.02	27.56
697.204	27.08
697.389	27.08
697.574	27.31
697.759	27.4
697.943	27.72
698.128	27.75
698.312	27.08
698.497	26.68
698.682	26.95
698.866	26.52
699.051	26.72
699.235	26.56
699.42	26.57
699.604	26.88
699.789	26.8
699.973	26.66
700.158	26.71
700.342	26.64
700.527	27.38
700.711	27.46
700.895	27.51
701.08	27.34
701.264	27.91
701.448	27.78
701.633	27.86
701.817	27.94
702.001	27.52
702.186	27.42
702.37	28.03
702.554	27.06
702.738	26.63
702.923	26.82
703.107	26.58
703.291	26.81
703.475	27.33
703.659	27.01
703.843	27.84
704.027	28.76
704.212	28.41
704.396	27.77
704.58	27.75
704.764	26.68
704.948	26.87
705.132	26.53
705.316	26.49
705.5	26.5
705.684	26.09
705.868	25.16
706.052	24.72
706.235	25.56
706.419	25.7
706.603	26.44
706.787	27.7
706.971	27.79
707.155	28.37
707.339	27.58
707.522	27.45
707.706	27.48
707.89	27.48
708.074	27.23
708.257	27.77
708.441	28.52
708.625	28.42
708.808	27.93
708.992	27.43
709.176	27.61
709.359	28.59
709.543	28
709.727	28.42
709.91	28.89
710.094	29.27
710.277	28.87
710.461	27.66
710.644	27.21
710.828	28.35
711.011	28.14
711.195	27.88
711.378	27.83
711.562	28.31
711.745	28.07
711.928	27.4
712.112	26.78
712.295	25.66
712.478	26.24
712.662	26.18
712.845	25.76
713.028	25.96
713.212	25.33
713.395	24.26
713.578	23.48
713.761	23.4
713.945	24.66
714.128	25.19
714.311	26.08
714.494	26.4
714.677	27.17
714.86	27.18
715.043	27.21
715.227	27.88
715.41	28.31
715.593	29.64
715.776	30.01
715.959	28.19
716.142	28.22
716.325	28.46
716.508	27.39
716.691	26.8
716.874	26.65
717.057	27.05
717.239	27.47
717.422	27.38
717.605	26.86
717.788	26.62
717.971	27.82
718.154	27.37
718.337	26.66
718.519	27.04
718.702	25.48
718.885	25.09
719.068	24.71
719.25	23.45
719.433	24.47
719.616	24.48
719.798	24.09
719.981	23.13
720.164	23.85
720.346	24.72
720.529	25.5
720.712	26.83
720.894	26.65
721.077	27.06
721.259	28.4
721.442	26.84
721.624	25.97
721.807	25.13
721.989	26.81
722.172	26.72
722.354	26.51
722.537	26
722.719	26.23
722.901	25.71
723.084	26.4
723.266	25.69
723.448	26.04
723.631	26.82
723.813	27.8
723.995	27.51
724.178	26.93
724.36	26.68
724.542	27.17
724.724	27.6
724.907	28.4
725.089	27.22
725.271	26.2
725.453	27.04
725.635	25.72
725.817	25.63
725.999	24.86
726.181	25.41
726.364	24.81
726.546	25.35
726.728	25.23
726.91	24.58
727.092	24.21
727.274	25.41
727.456	25.31
727.638	26.74
727.819	27.41
728.001	26.84
728.183	26.58
728.365	27.7
728.547	26.82
728.729	26.79
728.911	27.49
729.093	27.7
729.274	27.66
729.456	27.07
729.638	27.45
729.82	27.9
730.001	29.03
730.183	29.92
730.365	29.62
730.546	29.87
730.728	29.91
730.91	29.7
731.091	30.21
731.273	30.07
731.455	30.12
731.636	29.91
731.818	29.26
731.999	29.49
732.181	28.59
732.362	27.84
732.544	27.41
732.725	27.52
732.907	28.08
733.088	28.2
733.27	28.08
733.451	28.12
733.633	26.85
733.814	27.41
733.995	26.66
734.177	25.86
734.358	26.37
734.539	26.36
734.721	25.17
734.902	25.47
735.083	24.6
735.264	23.54
735.446	24.17
735.627	24.92
735.808	24.01
735.989	23.04
736.17	23.76
736.351	22.82
736.533	23.46
736.714	24.33
736.895	22.76
737.076	23.01
737.257	25.21
737.438	23.76
737.619	23.7
737.8	24.47
737.981	26.17
738.162	25.99
738.343	26.64
738.524	26.94
738.705	27.28
738.886	27.8
739.067	26.76
739.247	26.31
739.428	27.12
739.609	27.3
739.79	27.44
739.971	26.11
740.151	26.26
740.332	24.89
740.513	24.82
740.694	24.64
740.874	24.94
741.055	26.24
741.236	25.38
741.417	25.23
741.597	24.74
741.778	23.61
741.958	23.37
742.139	24.08
742.32	23.43
742.5	23.76
742.681	24.14
742.861	23.14
743.042	23.64
743.222	24.6
743.403	24.51
743.583	24.71
743.764	24.66
743.944	26.59
744.124	27.16
744.305	28.96
744.485	28.37
744.666	28.07
744.846	29.08
745.026	28.51
745.207	27.06
745.387	27.05
745.567	26.95
745.747	27.53
745.928	26.58
746.108	24.86
746.288	26.09
746.468	26.68
746.648	26.5
746.829	26.17
747.009	25.76
747.189	27.58
747.369	27.61
747.549	27.9
747.729	29.6
747.909	29.66
748.089	31.07
748.269	30.15
748.449	30.59
748.629	31.81
748.809	30.86
748.989	31.37
749.169	30.28
749.349	30.25
749.529	29.75
749.709	27.52
749.889	27.31
750.068	26.24
750.248	26.91
750.428	26.1
750.608	24.23
750.788	25.42
750.967	25.96
751.147	26.84
751.327	26.12
751.507	26.29
751.686	26.72
751.866	27.28
752.046	26.79
752.225	25.95
752.405	25.61
752.585	26.7
752.764	26.5
752.944	25.2
753.123	25.2
753.303	26.73
753.482	26.1
753.662	26.79
753.841	25.98
754.021	26.45
754.2	26.7
754.38	26.63
754.559	26.38
754.739	26.04
754.918	27.32
755.097	26.93
755.277	25.7
755.456	26.47
755.635	25.74
755.815	26.09
755.994	26.25
756.173	25.69
756.352	27.23
756.532	26.85
756.711	28.12
756.89	27.47
757.069	26.73
757.248	26.25
757.427	26.23
757.607	27.16
757.786	27.12
757.965	27.79
758.144	28.56
758.323	26.88
758.502	26.42
758.681	26.63
758.86	26.76
759.039	27.79
759.218	29.04
759.397	29.06
759.576	27.45
759.755	28.36
759.934	29.06
760.113	30.02
760.291	31
760.47	31.73
760.649	30.09
760.828	31.17
761.007	31.26
761.186	30.94
761.364	31.53
761.543	33.03
761.722	30.77
761.901	28.87
762.079	27.68
762.258	27.19
762.437	27.34
762.615	27.82
762.794	27.2
762.972	26.46
763.151	26.35
763.33	25.91
763.508	25.48
763.687	26.33
763.865	27.01
764.044	27.1
764.222	27.44
764.401	26.86
764.579	27.12
764.758	27.12
764.936	28.49
765.114	28.47
765.293	28.98
765.471	30.77
765.65	30.45
765.828	30.88
766.006	31.52
766.184	31.12
766.363	32.73
766.541	32.22
766.719	31.89
766.898	29.94
767.076	30.89
767.254	30.53
767.432	28.43
767.61	29.37
767.788	28.77
767.967	27.2
768.145	27.89
768.323	25.12
768.501	26.03
768.679	25.76
768.857	27.9
769.035	26.62
769.213	26.98
769.391	27.42
769.569	27.84
769.747	27.81
769.925	28.94
770.103	27.42
770.281	29.59
770.459	28.63
770.636	28.31
770.814	26.88
770.992	27.1
771.17	26.75
771.348	25.57
771.525	25.22
771.703	24.98
771.881	22.8
772.059	23.43
772.236	21.07
772.414	20.94
772.592	21.81
772.769	23.8
772.947	23.92
773.125	23.18
773.302	25.41
773.48	24.12
773.657	23.25
773.835	25.48
774.013	26.05
774.19	27.09
774.368	25.96
774.545	26.22
774.723	24.74
774.9	24.29
775.077	24.71
775.255	23.29
775.432	25.15
775.61	25.82
775.787	24.64
775.964	25.08
776.142	25.05
776.319	28.72
776.496	26.81
776.674	27.86
776.851	28.81
777.028	27.97
777.205	29.17
777.382	29.91
777.56	30.87
777.737	33.19
777.914	33.19
778.091	32.37
778.268	30.43
778.445	30.93
778.622	31.02
778.8	31.33
778.977	32.02
779.154	29.39
779.331	27.1
779.508	28.9
779.685	28.56
779.862	26.06
780.038	27.87
780.215	29.72
780.392	31.14
780.569	31.74
780.746	30.74
780.923	33.78
781.1	33.91
781.277	35.42
781.453	34.81
781.63	32.24
781.807	33.64
781.984	35.18
782.16	34.34
782.337	35.82
782.514	34.91
782.691	35.01
782.867	31.21
783.044	32.99
783.221	33.31
783.397	31.65
783.574	34.85
783.75	36.65
783.927	34.9
784.103	33.13
784.28	31.47
784.456	29.01
784.633	31.12
784.809	33.07
784.986	33.48
785.162	32.27
785.339	31.62
785.515	31.45
785.692	30.45
785.868	30.84
786.044	31.99
786.221	30.54
786.397	28.77
786.573	26.54
786.749	25.1
786.926	23.89
787.102	24.31
787.278	26.93
787.454	24.76
787.631	25.35
787.807	25.06
787.983	23.66
788.159	23.54
788.335	24.98
788.511	26.17
788.687	27.62
788.863	27.32
789.039	26.59
789.216	23.95
789.392	23.97
789.568	24.21
789.744	25.06
789.919	27.54
790.095	27.73
790.271	29.15
790.447	29.62
790.623	29.76
790.799	30.51
790.975	30.76
791.151	30.33
791.327	30.68
791.502	26.55
791.678	24.22
791.854	23.45
792.03	21.53
792.205	20.08
792.381	20.14
792.557	20.68
792.733	19.99
792.908	21.39
793.084	19.82
793.259	19.26
793.435	23.85
793.611	26.11
793.786	27.33
793.962	30.96
794.137	32.46
794.313	31.88
794.488	27.88
794.664	29.1
794.839	26.37
795.015	31.66
795.19	30.94
795.366	30.19
795.541	30.39
795.716	28.15
795.892	28.75
796.067	28.21
796.242	26.13
796.418	27.18
796.593	26.97
796.768	27.03
796.944	24.22
797.119	24.6
797.294	25.65
797.469	23.74
797.644	24.13
797.82	21.67
797.995	21.16
798.17	23.21
798.345	23.37
798.52	23.03
798.695	26.15
798.87	25.69
799.045	27.44
799.22	23.08
799.395	26.44
799.57	26.87
799.745	27.67
799.92	30.5
800.095	29.29
800.27	29.58
800.445	23.35
800.62	21.62
800.795	20.92
800.97	22.39
801.145	22.61
801.319	19.52
801.494	20.08
801.669	21.08
801.844	21.27
802.018	19.82
802.193	22.81
802.368	27.12
802.543	26
802.717	29.93
802.892	27.34
803.067	33.56
803.241	30.98
803.416	27.75
803.59	31.13
803.765	29.17
803.94	30.72
804.114	27.52
804.289	31.74
804.463	30.42
804.638	28.36
804.812	26.45
804.986	21.01
805.161	21.62
805.335	23.61
805.51	22.27
805.684	21.49
805.858	21.73
806.033	20.73
806.207	17.69
806.381	17.46
806.556	15.8
806.73	14.49
806.904	20
807.078	19.16
807.253	17.96
807.427	12.02
807.601	12.6
807.775	13.56
807.949	13.6
808.123	10.52
808.298	15.21
808.472	18.84
808.646	22.82
808.82	18.24
808.994	19.64
809.168	18.43
809.342	22.27
809.516	21.06
809.69	18.57
809.864	20.18
810.038	24.92
810.212	21.79
810.385	25.75
810.559	22.94
810.733	24.08
810.907	23.14
811.081	22.68
811.255	24.57
811.428	23.87
811.602	22.49
811.776	20.9
811.95	17.57
812.123	19.19
812.297	9.54
812.471	15.96
812.644	17.13
812.818	22.19
812.992	22.3
813.165	24.98
813.339	26.39
813.512	28.19
813.686	23.81
813.86	29.27
814.033	31.22
814.207	32.07
814.38	30.43
814.554	28.2
814.727	24.25
814.9	26.65
815.074	19.36
815.247	17.27
815.421	16.57
815.594	15.24
815.767	12.67
815.941	10.6
816.114	9.76
816.287	8.31
816.46	11.84
816.634	14.66
816.807	10.31
816.98	11.22
817.153	14.34
817.327	15.54
817.5	22.79
817.673	22.69
817.846	21.59
818.019	23.95
818.192	23.11
818.365	16.72
818.538	14.17
818.711	19.07
818.884	20.02
819.057	13.17
819.23	13.84
819.403	13.66
819.576	13.34
819.749	14.22
819.922	14.35
820.095	13.62
820.268	17.41
820.441	20.43
820.614	24.94
820.786	26.76
820.959	31.48
821.132	31.2
821.305	29.58
821.477	30.96
821.65	32.17
821.823	32.64
821.996	32.12
822.168	31.36
822.341	31.13
822.514	29.27
822.686	28.72
822.859	27.66
823.031	27.62
823.204	28.51
823.376	28.59
823.549	28.24
823.722	28.03
823.894	28.54
824.067	28.83
824.239	27.72
824.411	28.12
824.584	29.29
824.756	29.73
824.929	29.02
825.101	28.92
825.273	27.52
825.446	26.73
825.618	27.02
825.79	28.06
825.963	27.11
826.135	29.16
826.307	28.98
826.479	27.96
826.652	27.51
826.824	28.04
826.996	27.45
827.168	26.84
827.34	27.13
827.512	26.41
827.684	24.44
827.856	25.61
828.029	25.25
828.201	23.49
828.373	21.77
828.545	21.8
828.717	22.69
828.889	23.69
829.061	24.52
829.232	23.81
829.404	23.79
829.576	23.87
829.748	22.74
829.92	21.4
830.092	23.78
830.264	25.5
830.436	29.79
830.607	29.62
830.779	29.74
830.951	27.95
831.123	27.95
831.294	31.01
831.466	31.05
831.638	30.12
831.809	29.09
831.981	28.33
832.153	24.97
832.324	17.32
832.496	18.45
832.667	13.67
832.839	18.82
833.011	18.93
833.182	14.36
833.354	12.82
833.525	12.14
833.697	13.49
833.868	15.85
834.039	19.56
834.211	22.35
834.382	23.37
834.554	25.02
834.725	22.97
834.896	19.58
835.068	21.04
835.239	21.28
835.41	21.78
835.581	19.51
835.753	18.08
835.924	18.32
836.095	17.65
836.266	17.3
836.438	14.71
836.609	17.83
836.78	28.06
836.951	28.64
837.122	28.89
837.293	30.18
837.464	32.46
837.635	32.79
837.806	33.13
837.977	34.97
838.148	29.83
838.319	36.34
838.49	32.66
838.661	24.35
838.832	23.11
839.003	22.15
839.174	20.07
839.345	20.34
839.516	22.12
839.687	17.96
839.857	16.79
840.028	17.53
840.199	7.06
840.37	6.08
840.54	6.59
840.711	8.88
840.882	13.85
841.053	11.46
841.223	10.29
841.394	5.64
841.564	9.26
841.735	8.59
841.906	11.23
842.076	14.87
842.247	19.75
842.417	17.8
842.588	17.87
842.758	12.13
842.929	19.68
843.099	23.56
843.27	23.37
843.44	20.58
843.611	13.66
843.781	14.31
843.951	11.47
844.122	7.69
844.292	18.39
844.462	16.4
844.633	24.48
844.803	30.57
844.973	24.79
845.144	32.03
845.314	37.71
845.484	52.94
845.654	47.96
845.824	48.91
845.995	47.56
846.165	33.6
846.335	27.52
846.505	18.1
846.675	13.05
846.845	17.09
847.015	3.18
847.185	-24.51
847.355	-26.88
847.525	-26.82
847.695	-32.87
847.865	-27.63
848.035	-20.4
848.205	-3.01
848.375	7.81
848.545	-3.42
848.715	-1.04
848.884	-3.1
849.054	13.04
849.224	23.12
849.394	25.53
849.564	37.06
849.733	30.92
849.903	37.82
850.073	36.52
850.243	24.83
850.412	28.18
850.582	27.11
850.752	37.27
850.921	37.58
851.091	27.7
851.26	18.53
851.43	9.26
851.599	33.73
851.769	35.96
851.939	44.21
852.108	47.2
852.278	41.98
852.447	43.17
852.616	37.15
852.786	24.86
852.955	19.75
853.125	22.84
853.294	13.03
853.463	10.45
853.633	1.96
853.802	-12.25
853.971	-10.39
854.141	8.98
854.31	6.82
854.479	15.14
854.648	22.25
854.818	33.37
854.987	35.72
855.156	46.51
855.325	23.3
855.494	20.94
855.663	2.71
855.832	11.75
856.001	0.09
856.171	4.05
856.34	15.78
856.509	25.13
856.678	32.44
856.847	35.43
857.016	2.42
857.185	16
857.353	23.59
857.522	32.96
857.691	11.61
857.86	22.23
858.029	31.68
858.198	17.01
858.367	21.04
858.535	26.62
858.704	29.35
858.873	46.17
859.042	41.39
859.21	33.89
859.379	27.68
859.548	35.35
859.717	32.76
859.885	35.52
860.054	36.83
860.222	38.34
860.391	13.1
860.56	-2.05
860.728	-2.94
860.897	-4.8
861.065	7.38
861.234	4.31
861.402	7.66
861.571	17.35
861.739	5.71
861.908	1.59
862.076	-32.65
862.244	-6.27
862.413	-6.09
862.581	5.64
862.749	49.7
862.918	46.2
863.086	57.94
863.254	37.84
863.423	7.43
863.591	38.96
863.759	80.03
863.927	79.32
864.096	79.81
864.264	73.89
864.432	45.17
864.6	3.75
864.768	-2.46
864.936	27.82
865.104	38.04
865.272	33.34
865.44	14.7
865.608	-17.62
865.776	-39.78
865.944	-23.24
866.112	-1.65
866.28	-1.76
866.448	-18.48
866.616	-35.97
866.784	-34.78
866.952	-31.81
867.12	-15.91
867.288	-6.75
867.455	12.78
867.623	33.34
867.791	34.66
867.959	29.69
868.127	38.53
868.294	52.19
868.462	60.23
868.63	50.29
868.797	55.44
868.965	77.14
869.133	79.34
869.3	71.27
869.468	54.59
869.636	66.86
869.803	55.79
869.971	52.34
870.138	58.44
870.306	49.38
870.473	42.01
870.641	47.95
870.808	29.31
870.975	-1.97
871.143	-7.71
871.31	-4.03
871.478	-1.22
871.645	5.39
871.812	9.31
871.98	8.58
872.147	19.8
872.314	34.82
872.482	38.15
872.649	34.55
872.816	43.22
872.983	39.23
873.15	36.08
873.318	26.9
873.485	32.04
873.652	28.73
873.819	34.04
873.986	29.76
874.153	13.35
874.32	3.7
874.487	6.84
874.654	14.54
874.821	23.96
874.988	25.63
875.155	21.66
875.322	12.21
875.489	2.11
875.656	1.5
875.823	-20.15
875.99	-5.81
876.157	-3.26
876.324	5.02
876.49	-0.76
876.657	-15.18
876.824	7.87
876.991	14.03
877.157	-27.14
877.324	3.89
877.491	-28.02
877.658	-30.76
877.824	-36.73
877.991	-45.05
878.157	-80.48
878.324	-52.03
878.491	-38.21
878.657	-57.28
878.824	-60.7
878.99	-10.93
879.157	-5.44
879.323	5.06
879.49	7.14
879.656	-8.64
879.823	-31.22
879.989	-9.56
880.156	-48.96
880.322	-47.3
880.488	-33.35
880.655	-23.08
880.821	-55.21
880.987	-60
881.154	-59.14
881.32	-51.06
881.486	-42.96
881.652	-12.91
881.819	-13.09
881.985	3.21
882.151	6.32
882.317	5.08
882.483	11.02
882.649	22.53
882.816	20.03
882.982	20.52
883.148	20.68
883.314	21
883.48	18.75
883.646	17.96
883.812	20.13
883.978	23.21
884.144	22.3
884.31	22.1
884.476	21.12
884.642	21.33
884.807	22.27
884.973	24.54
885.139	25.87
885.305	30.38
885.471	30.67
885.637	30.15
885.802	30.47
885.968	30.77
886.134	28.95
886.3	30.49
886.465	37.01
886.631	36.42
886.797	33.35
886.962	38.89
887.128	36.46
887.293	45.83
887.459	41.44
887.625	37.26
887.79	43.75
887.956	47.85
888.121	51.3
888.287	40.92
888.452	46.29
888.618	59.46
888.783	56.17
