Data from 2937868_Reflection_1.txt Node
Date: Wed Jul 15 15:04:45 EDT 2015
User: robert
Spectrometer: USB4E03001
Autoset integration time: false
Trigger mode: 4
Integration Time (sec): 1.000000E-1
Scans to average: 10
Electric dark correction enabled: true
Nonlinearity correction enabled: false
Boxcar width: 5
Stray light correction enabled: false
XAxis mode: Wavelengths
Stop averaging: false
Number of Pixels in Spectrum: 3648
>>>>>Begin Spectral Data<<<<<
177.566	-215.12
177.785	87.29
178.005	-563.24
178.225	-72.13
178.445	82.4
178.665	101.75
178.885	19.76
179.105	591.82
179.324	-129.79
179.544	-10.39
179.764	-20.57
179.984	-28.84
180.204	-4.69
180.423	-0.92
180.643	-0.73
180.863	-47.82
181.083	-66.15
181.302	-64.75
181.522	9.89
181.742	110.74
181.961	287.5
182.181	609.95
182.401	-500.29
182.621	-115.9
182.84	-145.3
183.06	-106.3
183.279	-132.88
183.499	-168.29
183.719	-149.09
183.938	-111.07
184.158	-143.38
184.377	-98.29
184.597	-62.04
184.816	-55.23
185.036	-117.73
185.256	7.95
185.475	61.02
185.695	-76.98
185.914	4.83
186.134	-9.03
186.353	-50.26
186.572	-78.97
186.792	-29.59
187.011	-10.45
187.231	35.46
187.45	-10.43
187.67	-41.93
187.889	-34.56
188.108	-438.53
188.328	282.62
188.547	245.88
188.766	507.11
188.986	315.13
189.205	315.92
189.424	179.14
189.644	350.57
189.863	762.36
190.082	696.06
190.302	-36414.29
190.521	-1218.63
190.74	-60.11
190.959	-125.59
191.178	-83.51
191.398	-137.21
191.617	-32.47
191.836	-14
192.055	-12.62
192.274	57.04
192.494	49.14
192.713	-7.18
192.932	-16.29
193.151	-95.74
193.37	-74.36
193.589	-535.89
193.808	-997.21
194.027	141.75
194.246	92.87
194.465	127.2
194.685	143.42
194.904	154.3
195.123	149.77
195.342	99.15
195.561	66
195.78	56.11
195.999	33.67
196.218	22.71
196.436	37.34
196.655	35.99
196.874	13.48
197.093	48.86
197.312	22.05
197.531	6.37
197.75	12.73
197.969	45.51
198.188	60.62
198.407	89.32
198.625	89.92
198.844	14.43
199.063	22.1
199.282	58.61
199.501	-18.77
199.719	47.08
199.938	60.74
200.157	116.49
200.376	68.46
200.594	21.99
200.813	-131.81
201.032	-169.14
201.251	803.86
201.469	-100.11
201.688	49.59
201.907	96.01
202.125	80.21
202.344	104.06
202.563	59.29
202.781	27.09
203	32.65
203.218	84.54
203.437	79.94
203.656	505.53
203.874	-337.31
204.093	-82.08
204.311	-36.32
204.53	-20.71
204.748	-39.37
204.967	-93.45
205.185	-93.36
205.404	-112
205.622	-127.85
205.841	-187.08
206.059	-466.4
206.278	7275
206.496	1694.49
206.715	718.14
206.933	4621.36
207.151	1178.52
207.37	114.78
207.588	268
207.806	102.21
208.025	62.56
208.243	328.71
208.461	-100.26
208.68	26.2
208.898	152.51
209.116	59.29
209.335	80.01
209.553	283.66
209.771	2148.93
209.989	359.53
210.208	470.93
210.426	5317.78
210.644	-732.48
210.862	1611.7
211.081	405.99
211.299	-2555.29
211.517	-844.13
211.735	-103.84
211.953	-33.22
212.171	30.42
212.39	75.97
212.608	221.2
212.826	294.15
213.044	359.72
213.262	-325.63
213.48	583.73
213.698	-8.37
213.916	-46.7
214.134	-43.48
214.352	6.31
214.57	44.14
214.788	63.5
215.006	122.76
215.224	105.3
215.442	96.93
215.66	258.97
215.878	168.3
216.096	269.34
216.314	260.86
216.532	267.47
216.75	144.03
216.968	193.5
217.185	196.73
217.403	217.05
217.621	567.78
217.839	514.41
218.057	306.06
218.275	37.08
218.492	-8.64
218.71	-17.34
218.928	-13.5
219.146	52.29
219.363	64.49
219.581	95.68
219.799	119.48
220.017	143.45
220.234	138.47
220.452	158.25
220.67	151.56
220.887	152.89
221.105	140.8
221.323	400.51
221.54	-192.85
221.758	10.84
221.976	18.2
222.193	31.11
222.411	73.26
222.629	36.6
222.846	53.07
223.064	65.27
223.281	54.45
223.499	45.82
223.716	82.8
223.934	82.72
224.151	81.79
224.369	161.83
224.586	242.01
224.804	301.13
225.021	918.6
225.239	470.13
225.456	178.48
225.674	219.9
225.891	224.41
226.108	117.53
226.326	133.3
226.543	168.79
226.76	-80.12
226.978	-82.83
227.195	-8.16
227.413	0.32
227.63	18.25
227.847	6.73
228.064	17.66
228.282	19.23
228.499	28.15
228.716	17.83
228.934	20.05
229.151	25.16
229.368	25.97
229.585	18.38
229.802	16.23
230.02	14.62
230.237	14.85
230.454	3.65
230.671	3.53
230.888	0.19
231.105	3.46
231.323	4.11
231.54	-8.11
231.757	-11.03
231.974	-5.6
232.191	1.34
232.408	-1.92
232.625	-4.83
232.842	7.02
233.059	10.73
233.276	7.16
233.493	4.38
233.71	10.32
233.927	18.1
234.144	21.1
234.361	27.26
234.578	29.97
234.795	31.27
235.012	24.38
235.229	32.97
235.446	30.1
235.663	34.68
235.879	33.91
236.096	33.07
236.313	33.62
236.53	36.85
236.747	32.81
236.964	23.63
237.181	26.2
237.397	33.55
237.614	23.8
237.831	23.36
238.048	22.49
238.264	21.63
238.481	3.32
238.698	4.76
238.915	-4.46
239.131	0.77
239.348	11.71
239.565	11.91
239.781	9.79
239.998	11.68
240.215	8.91
240.431	3.06
240.648	4.86
240.865	14.24
241.081	12.29
241.298	15.37
241.514	13.22
241.731	11.89
241.947	12.66
242.164	13.81
242.38	13.26
242.597	14.4
242.814	14.62
243.03	16.9
243.246	14.29
243.463	15.25
243.679	15.23
243.896	13.47
244.112	13.81
244.329	14.01
244.545	14.21
244.762	15.5
244.978	13.03
245.194	16.74
245.411	15.84
245.627	16.89
245.843	17.48
246.06	14.4
246.276	15.85
246.492	15.36
246.709	15.79
246.925	14.74
247.141	15.26
247.357	15.77
247.574	14.56
247.79	13.7
248.006	14.36
248.222	13.58
248.439	14.23
248.655	13.48
248.871	12.79
249.087	12.32
249.303	11.37
249.519	8.85
249.736	9.75
249.952	10.39
250.168	9.67
250.384	8.04
250.6	7.41
250.816	8.9
251.032	11.84
251.248	11.23
251.464	10.84
251.68	12.94
251.896	11.64
252.112	8.19
252.328	4.46
252.544	6.61
252.76	7.32
252.976	8
253.192	7.84
253.408	7.47
253.624	9.53
253.84	9.81
254.056	8.7
254.272	11.8
254.487	13.99
254.703	21.43
254.919	20.73
255.135	20.41
255.351	22.4
255.567	19.41
255.782	15.78
255.998	12.96
256.214	9.01
256.43	9.88
256.646	10.34
256.861	9.87
257.077	0.47
257.293	1.69
257.508	0.07
257.724	-1.97
257.94	-1.19
258.155	-0.59
258.371	0.35
258.587	4.7
258.802	6.6
259.018	6.25
259.234	8.01
259.449	10.78
259.665	9.44
259.88	8.59
260.096	9.1
260.312	10.29
260.527	11.67
260.743	12.06
260.958	11.18
261.174	10.39
261.389	11.35
261.605	9.68
261.82	7.41
262.036	8.94
262.251	11.13
262.466	10.3
262.682	8.97
262.897	9.22
263.113	9.15
263.328	10.66
263.543	13.06
263.759	10.23
263.974	12.06
264.189	12.93
264.405	10.17
264.62	9.21
264.835	10.58
265.051	11.85
265.266	8.73
265.481	7.55
265.696	4.34
265.912	0.83
266.127	3
266.342	4.5
266.557	5.71
266.773	6.93
266.988	6.84
267.203	6.53
267.418	4.92
267.633	5.13
267.848	7.81
268.064	7.62
268.279	8.39
268.494	8.02
268.709	7.5
268.924	8.35
269.139	7.51
269.354	5.5
269.569	6.68
269.784	6.95
269.999	8.4
270.214	6.83
270.429	9.3
270.644	9.6
270.859	9.93
271.074	10.59
271.289	10.94
271.504	10.92
271.719	12.29
271.934	10.56
272.149	10.88
272.363	10.11
272.578	10.96
272.793	9.36
273.008	9.11
273.223	8
273.438	6.55
273.653	4.85
273.867	5.38
274.082	5.44
274.297	6.32
274.512	5.95
274.726	4.45
274.941	3.08
275.156	2.95
275.371	1.69
275.585	2.54
275.8	3.34
276.015	4.72
276.229	2.68
276.444	3.03
276.659	-0.55
276.873	-1.08
277.088	0.97
277.302	0.92
277.517	1.18
277.732	2.46
277.946	2.85
278.161	2.48
278.375	1.25
278.59	4.77
278.804	4.42
279.019	6.59
279.233	8.85
279.448	6.68
279.662	4.74
279.877	5.95
280.091	6.34
280.306	7.49
280.52	6.57
280.735	7.88
280.949	7.28
281.163	6.94
281.378	7.05
281.592	7.1
281.806	8.81
282.021	9.25
282.235	8.8
282.449	11.53
282.664	12.73
282.878	14.31
283.092	15.71
283.307	15.29
283.521	14.27
283.735	15.72
283.949	14.53
284.164	14.22
284.378	14.66
284.592	15.22
284.806	12.55
285.02	11.42
285.234	12.27
285.449	10.82
285.663	12.23
285.877	13.69
286.091	13.52
286.305	14.82
286.519	13.81
286.733	14.74
286.947	13.56
287.161	15.34
287.375	13.35
287.589	11.72
287.803	12.2
288.017	9.66
288.231	8.07
288.445	8.6
288.659	8.22
288.873	8.42
289.087	8.2
289.301	8.99
289.515	7.69
289.729	9.66
289.943	10.31
290.157	10.32
290.371	12.83
290.584	13.23
290.798	12.45
291.012	11.5
291.226	13.91
291.44	14.03
291.654	15.19
291.867	15.38
292.081	15.87
292.295	15.68
292.509	15.06
292.722	12.02
292.936	13.71
293.15	14.63
293.364	17.43
293.577	16.25
293.791	17.84
294.005	16.91
294.218	17.33
294.432	16.97
294.645	18
294.859	18.17
295.073	19.56
295.286	18.02
295.5	17.74
295.713	15.87
295.927	15.95
296.14	15.29
296.354	15.68
296.568	15.54
296.781	16.52
296.994	16.47
297.208	17.38
297.421	18.01
297.635	17.58
297.848	18.03
298.062	18.15
298.275	19.37
298.489	19.53
298.702	20.02
298.915	21.03
299.129	20.35
299.342	20.2
299.555	22.33
299.769	20.53
299.982	23.43
300.195	23.89
300.409	24.35
300.622	22.91
300.835	20.91
301.048	19.63
301.262	18.27
301.475	20.6
301.688	21.06
301.901	17.39
302.115	18.98
302.328	16.94
302.541	15.58
302.754	14.51
302.967	16.56
303.18	18.99
303.393	21.25
303.607	21.35
303.82	19.87
304.033	20.18
304.246	21.23
304.459	21.65
304.672	22.53
304.885	23.99
305.098	26.64
305.311	24.74
305.524	26.61
305.737	25.27
305.95	25.53
306.163	25.5
306.376	25.48
306.589	24.3
306.802	23.91
307.015	25.18
307.228	25.37
307.44	25.97
307.653	27.93
307.866	25.79
308.079	24.19
308.292	25.04
308.505	24.88
308.718	25.54
308.93	30.32
309.143	31.12
309.356	29.97
309.569	29.51
309.781	28.26
309.994	27.28
310.207	28.05
310.42	29.62
310.632	29.47
310.845	29.54
311.058	28.74
311.27	25.92
311.483	23.75
311.696	24.29
311.908	23.85
312.121	23.22
312.333	24.48
312.546	24.39
312.759	23.91
312.971	23.77
313.184	22.89
313.396	23.94
313.609	23.81
313.821	26.32
314.034	25.11
314.246	25.83
314.459	26.55
314.671	25.42
314.884	23.42
315.096	24.78
315.309	26.07
315.521	27.47
315.733	25.68
315.946	27.03
316.158	27.59
316.371	30.5
316.583	29.16
316.795	28.3
317.008	27.4
317.22	28.41
317.432	28.15
317.644	27.51
317.857	26.85
318.069	27.51
318.281	26.91
318.494	26.81
318.706	26.74
318.918	28.13
319.13	30.05
319.342	31.19
319.555	30.72
319.767	29.39
319.979	27.43
320.191	29.09
320.403	29.34
320.615	28.49
320.827	28.69
321.039	27.38
321.252	27.88
321.464	27.31
321.676	26.52
321.888	26.78
322.1	28.44
322.312	29.94
322.524	27.52
322.736	26.17
322.948	27.77
323.16	25.85
323.372	26.2
323.584	23.53
323.796	26.21
324.007	25.77
324.219	25.85
324.431	25.78
324.643	25
324.855	24.88
325.067	25.96
325.279	26.13
325.491	27.6
325.702	27.34
325.914	28.73
326.126	25.95
326.338	25.34
326.55	26.67
326.761	26.43
326.973	26.57
327.185	26.92
327.396	26.95
327.608	24.81
327.82	24.21
328.032	23.06
328.243	23.83
328.455	25.36
328.666	26.98
328.878	25.06
329.09	25.52
329.301	26.36
329.513	27.01
329.725	26.85
329.936	27.17
330.148	27.24
330.359	29.13
330.571	27.91
330.782	25.38
330.994	24.19
331.205	24.03
331.417	23.12
331.628	22.57
331.84	23.78
332.051	24.69
332.262	25.68
332.474	25.7
332.685	25.08
332.897	26.06
333.108	27.65
333.319	27.61
333.531	29.81
333.742	31.2
333.953	31.29
334.165	31.67
334.376	31.34
334.587	30.98
334.799	31.09
335.01	30.52
335.221	30.71
335.432	29.83
335.644	30.19
335.855	30.88
336.066	29.31
336.277	30.45
336.488	31.55
336.7	32.19
336.911	33.1
337.122	33.51
337.333	33.62
337.544	33.26
337.755	33.49
337.966	33.77
338.177	32.22
338.388	33.6
338.599	33.25
338.811	31.39
339.022	30.94
339.233	30.83
339.444	30.32
339.655	31.04
339.866	31.68
340.076	31.73
340.287	31.4
340.498	30.82
340.709	29.84
340.92	29.49
341.131	29.71
341.342	30.12
341.553	30.47
341.764	31.44
341.975	31.42
342.185	31.4
342.396	31.94
342.607	32.66
342.818	32.4
343.029	33.91
343.239	33.5
343.45	32.14
343.661	31.75
343.872	29.9
344.082	28.53
344.293	28.14
344.504	27.07
344.714	26.81
344.925	27.74
345.136	29.38
345.346	27.56
345.557	27.69
345.768	28.38
345.978	28.33
346.189	30.2
346.399	31.8
346.61	32.14
346.821	32.55
347.031	32.93
347.242	31.66
347.452	28.63
347.663	28.96
347.873	29.67
348.084	29.39
348.294	28.39
348.504	26.19
348.715	23.68
348.925	21.91
349.136	21.92
349.346	20.21
349.557	18.47
349.767	20.15
349.977	21.69
350.188	20.56
350.398	20.11
350.608	21.63
350.819	22.02
351.029	23.57
351.239	25.91
351.449	24.39
351.66	25
351.87	25.78
352.08	26.85
352.29	26.38
352.501	27.15
352.711	26.71
352.921	27
353.131	27.47
353.341	26.65
353.552	26.12
353.762	27.84
353.972	27.84
354.182	29.13
354.392	29.73
354.602	29.37
354.812	29.28
355.022	31.25
355.232	31.19
355.442	31.49
355.652	32.33
355.862	32.35
356.072	32.94
356.282	32.95
356.492	31.55
356.702	30.92
356.912	30.65
357.122	29.87
357.332	29.08
357.542	28.91
357.752	27.33
357.962	26.73
358.171	26.88
358.381	25.37
358.591	25.31
358.801	25.69
359.011	25.7
359.221	25.38
359.43	25.48
359.64	25.11
359.85	24.76
360.06	25.64
360.269	26.03
360.479	25.27
360.689	26.21
360.899	25.95
361.108	26.49
361.318	25.74
361.528	26.21
361.737	26.38
361.947	26.53
362.156	25.99
362.366	26.02
362.576	25.67
362.785	25.91
362.995	25.33
363.204	24.96
363.414	24.82
363.623	26.03
363.833	25.78
364.042	25.79
364.252	25.66
364.461	25.83
364.671	25.89
364.88	25.54
365.09	24.6
365.299	24.66
365.509	25.11
365.718	24.42
365.927	23.02
366.137	23.88
366.346	23.52
366.555	23.72
366.765	23.86
366.974	23.43
367.183	23.24
367.393	23
367.602	23.32
367.811	23.39
368.021	23.41
368.23	24.82
368.439	23.64
368.648	23.91
368.857	23.72
369.067	23.73
369.276	24.16
369.485	23.93
369.694	24.92
369.903	24.87
370.112	24.64
370.321	24.22
370.531	23.32
370.74	22.85
370.949	23.63
371.158	23.05
371.367	23.48
371.576	23.48
371.785	24.32
371.994	22.97
372.203	22.84
372.412	22.66
372.621	23.03
372.83	22.95
373.039	23.86
373.248	22.26
373.457	22.38
373.666	21.43
373.874	20.37
374.083	19.68
374.292	19.96
374.501	19.32
374.71	19
374.919	18.48
375.128	18.58
375.336	17.76
375.545	17.97
375.754	18.58
375.963	18.31
376.171	19.16
376.38	18.89
376.589	19.02
376.798	18.85
377.006	19.39
377.215	19.31
377.424	18.84
377.632	18.99
377.841	19.08
378.05	18.6
378.258	18.78
378.467	17.99
378.675	17.86
378.884	17.58
379.093	17.43
379.301	16.79
379.51	16.8
379.718	16.34
379.927	15.99
380.135	15.36
380.344	14.91
380.552	14.72
380.761	15.45
380.969	15.27
381.177	15.61
381.386	15.57
381.594	15.11
381.803	14.91
382.011	15.1
382.219	15.25
382.428	15.81
382.636	16
382.845	16.46
383.053	15.83
383.261	15.35
383.469	15.34
383.678	15.5
383.886	16.18
384.094	16.55
384.302	16.18
384.511	16.01
384.719	15.99
384.927	15.85
385.135	15.52
385.343	15.43
385.552	15.78
385.76	15.76
385.968	15.47
386.176	15.23
386.384	14.61
386.592	14.65
386.8	14.77
387.008	14.3
387.216	14.04
387.424	13.76
387.633	13.96
387.841	13.74
388.049	13.15
388.257	13.42
388.465	13.87
388.672	13.9
388.88	13.95
389.088	13.8
389.296	13.55
389.504	14.26
389.712	14.29
389.92	14.28
390.128	14.12
390.336	14.45
390.544	14.54
390.751	14.19
390.959	14.12
391.167	14.07
391.375	14.09
391.583	14.21
391.79	13.94
391.998	14.23
392.206	14.24
392.414	14.36
392.621	13.99
392.829	13.54
393.037	13.51
393.244	13.8
393.452	13.69
393.66	13.28
393.867	13.36
394.075	13.02
394.283	12.47
394.49	12.28
394.698	12.32
394.905	12.21
395.113	12.59
395.32	12.3
395.528	12.02
395.735	11.88
395.943	12.41
396.15	12.48
396.358	12.42
396.565	12.31
396.773	12.12
396.98	11.85
397.188	11.79
397.395	11.42
397.602	11.57
397.81	11.46
398.017	11.73
398.225	11.59
398.432	11.59
398.639	11.66
398.847	11.41
399.054	11.56
399.261	11.67
399.468	11.78
399.676	11.68
399.883	11.91
400.09	12.09
400.297	11.88
400.505	11.31
400.712	11.37
400.919	11.67
401.126	12.03
401.333	12.09
401.54	11.72
401.748	11.94
401.955	11.84
402.162	11.28
402.369	11.12
402.576	11.49
402.783	11.71
402.99	11.19
403.197	10.6
403.404	10.78
403.611	10.52
403.818	10.73
404.025	10.32
404.232	10.62
404.439	10.73
404.646	10.82
404.853	10.59
405.06	10.6
405.267	10.67
405.474	10.93
405.681	11.09
405.887	11.1
406.094	11
406.301	11.58
406.508	11.22
406.715	11.09
406.922	11.22
407.128	11.01
407.335	10.97
407.542	11.3
407.749	11.21
407.955	10.92
408.162	10.72
408.369	10.64
408.575	10.98
408.782	11.1
408.989	11.27
409.195	10.88
409.402	10.86
409.609	11.07
409.815	11.1
410.022	11.33
410.228	11.31
410.435	11.54
410.642	11.82
410.848	11.08
411.055	11.19
411.261	11.04
411.468	11.35
411.674	11.57
411.881	11.08
412.087	10.85
412.294	10.61
412.5	10.49
412.706	10.65
412.913	10.28
413.119	10.43
413.326	10.06
413.532	10.26
413.738	10.15
413.945	10.26
414.151	10.19
414.357	10.19
414.564	10.59
414.77	10.64
414.976	10.27
415.182	10.74
415.389	10.6
415.595	10.93
415.801	10.88
416.007	10.91
416.214	10.43
416.42	10.73
416.626	10.82
416.832	10.68
417.038	10.67
417.244	11
417.45	10.76
417.657	10.79
417.863	10.83
418.069	11.05
418.275	10.84
418.481	10.94
418.687	10.83
418.893	10.98
419.099	11
419.305	10.85
419.511	10.52
419.717	10.6
419.923	10.64
420.129	10.66
420.335	10.55
420.541	10.56
420.746	10.59
420.952	10.62
421.158	10.49
421.364	10.36
421.57	10.53
421.776	10.76
421.982	10.64
422.187	10.62
422.393	10.54
422.599	10.43
422.805	10.72
423.01	10.83
423.216	10.82
423.422	10.73
423.628	10.76
423.833	10.87
424.039	10.88
424.245	10.95
424.45	10.96
424.656	10.75
424.862	10.74
425.067	10.55
425.273	10.38
425.478	10.44
425.684	10.46
425.889	10.37
426.095	10.2
426.301	9.99
426.506	10.03
426.712	9.87
426.917	10.16
427.123	10.22
427.328	10.08
427.533	9.94
427.739	9.9
427.944	9.84
428.15	9.97
428.355	9.8
428.561	9.97
428.766	9.76
428.971	9.87
429.177	9.8
429.382	9.82
429.587	10.02
429.793	10.46
429.998	10.14
430.203	10.01
430.408	9.93
430.614	10.13
430.819	10.2
431.024	10.32
431.229	10.36
431.434	10.22
431.64	10.04
431.845	10.1
432.05	10.12
432.255	10.38
432.46	10.39
432.665	10.37
432.87	10.41
433.076	10.25
433.281	10.32
433.486	10.51
433.691	10.64
433.896	10.75
434.101	10.57
434.306	10.46
434.511	10.41
434.716	10.5
434.921	10.43
435.126	10.28
435.331	10.47
435.535	10.5
435.74	10.26
435.945	10.09
436.15	9.95
436.355	9.92
436.56	9.92
436.765	9.93
436.97	9.93
437.174	10.17
437.379	10.18
437.584	10
437.789	9.64
437.993	9.68
438.198	9.79
438.403	9.99
438.608	10.04
438.812	10.05
439.017	10.24
439.222	10.3
439.426	10.19
439.631	10.24
439.836	10.24
440.04	10.62
440.245	10.63
440.45	10.64
440.654	10.44
440.859	10.49
441.063	10.49
441.268	10.34
441.472	10.28
441.677	10.29
441.881	10.07
442.086	10.13
442.29	9.9
442.495	9.75
442.699	9.81
442.904	10.11
443.108	10.1
443.312	9.76
443.517	9.72
443.721	9.71
443.925	9.63
444.13	9.78
444.334	9.69
444.538	9.81
444.743	9.89
444.947	9.91
445.151	9.67
445.356	9.56
445.56	9.69
445.764	9.7
445.968	9.72
446.173	9.82
446.377	9.94
446.581	10
446.785	9.91
446.989	9.97
447.193	9.96
447.398	9.9
447.602	10.02
447.806	10.04
448.01	10
448.214	9.94
448.418	9.82
448.622	9.77
448.826	9.68
449.03	9.69
449.234	9.67
449.438	9.41
449.642	9.49
449.846	9.37
450.05	9.29
450.254	9.43
450.458	9.48
450.662	9.66
450.866	9.45
451.069	9.68
451.273	9.88
451.477	9.79
451.681	10.17
451.885	10.25
452.089	10.11
452.292	10.16
452.496	10.05
452.7	9.9
452.904	9.91
453.107	10.04
453.311	9.79
453.515	9.45
453.719	9.38
453.922	8.93
454.126	8.91
454.33	9.1
454.533	9.15
454.737	9.41
454.94	9.5
455.144	9.17
455.348	9.04
455.551	9.04
455.755	9.29
455.958	9.51
456.162	9.97
456.365	10.04
456.569	9.89
456.772	9.85
456.976	9.73
457.179	9.79
457.383	9.87
457.586	10.08
457.79	10.24
457.993	9.95
458.196	9.77
458.4	9.65
458.603	9.55
458.807	9.41
459.01	9.37
459.213	9.35
459.417	9.44
459.62	9.43
459.823	9.29
460.026	9.27
460.23	9.35
460.433	9.37
460.636	9.29
460.839	9.24
461.042	9.3
461.246	9.48
461.449	9.45
461.652	9.53
461.855	9.56
462.058	9.52
462.261	9.56
462.464	9.67
462.668	9.67
462.871	9.84
463.074	9.79
463.277	10.04
463.48	10.04
463.683	10.06
463.886	9.88
464.089	10.03
464.292	10.07
464.495	9.88
464.698	9.86
464.901	9.83
465.104	9.48
465.306	9.5
465.509	9.45
465.712	9.29
465.915	9.3
466.118	9.14
466.321	8.95
466.524	9.18
466.726	9.1
466.929	9.01
467.132	8.92
467.335	9.03
467.538	9.06
467.74	9.04
467.943	9.14
468.146	9.13
468.348	9.12
468.551	9.12
468.754	8.84
468.956	8.83
469.159	8.84
469.362	8.89
469.564	9.01
469.767	8.9
469.969	8.87
470.172	8.81
470.375	8.87
470.577	9.06
470.78	8.92
470.982	9.13
471.185	9.38
471.387	9.5
471.59	9.58
471.792	9.55
471.995	9.63
472.197	9.64
472.399	9.28
472.602	9.15
472.804	9.11
473.007	9.26
473.209	9.39
473.411	9.34
473.614	9.3
473.816	9.36
474.018	9.28
474.22	9.49
474.423	9.17
474.625	9.45
474.827	9.27
475.03	9.26
475.232	9.05
475.434	8.9
475.636	8.88
475.838	8.77
476.04	8.83
476.243	8.99
476.445	8.76
476.647	9.12
476.849	9.08
477.051	9.11
477.253	8.94
477.455	9.21
477.657	9.14
477.859	9.14
478.061	9.13
478.263	8.92
478.465	8.67
478.667	8.79
478.869	8.67
479.071	8.69
479.273	8.83
479.475	8.84
479.677	8.84
479.879	8.92
480.081	8.81
480.283	8.95
480.485	9.03
480.686	9.32
480.888	9.36
481.09	9.35
481.292	9.26
481.494	9.29
481.695	9.44
481.897	9.29
482.099	9.27
482.301	9.46
482.502	9.48
482.704	9.58
482.906	9.56
483.107	9.52
483.309	9.48
483.511	9.52
483.712	9.5
483.914	9.49
484.115	9.54
484.317	9.55
484.519	9.49
484.72	9.48
484.922	9.44
485.123	9.38
485.325	9.39
485.526	9.49
485.728	9.5
485.929	9.58
486.131	9.6
486.332	9.67
486.534	9.66
486.735	9.68
486.936	9.66
487.138	9.61
487.339	9.62
487.541	9.67
487.742	9.7
487.943	9.7
488.144	9.63
488.346	9.63
488.547	9.54
488.748	9.59
488.95	9.51
489.151	9.51
489.352	9.54
489.553	9.58
489.755	9.44
489.956	9.34
490.157	9.37
490.358	9.32
490.559	9.35
490.76	9.26
490.961	9.17
491.163	9.25
491.364	9.24
491.565	9.27
491.766	9.26
491.967	9.32
492.168	9.31
492.369	9.3
492.57	9.33
492.771	9.33
492.972	9.42
493.173	9.39
493.374	9.49
493.575	9.5
493.776	9.5
493.976	9.56
494.177	9.63
494.378	9.74
494.579	9.7
494.78	9.85
494.981	9.76
495.182	9.7
495.382	9.71
495.583	9.43
495.784	9.37
495.985	9.41
496.185	9.53
496.386	9.56
496.587	9.46
496.788	9.47
496.988	9.25
497.189	9.23
497.39	9.37
497.59	9.47
497.791	9.64
497.992	9.69
498.192	9.59
498.393	9.56
498.593	9.65
498.794	9.59
498.994	9.62
499.195	9.87
499.395	9.89
499.596	9.87
499.796	9.8
499.997	9.94
500.197	10.06
500.398	10.17
500.598	9.95
500.799	9.82
500.999	9.86
501.199	9.93
501.4	9.92
501.6	9.91
501.801	9.87
502.001	9.9
502.201	9.62
502.402	9.63
502.602	9.61
502.802	9.72
503.002	9.65
503.203	9.57
503.403	9.36
503.603	9.22
503.803	9.26
504.003	9.21
504.204	9.24
504.404	9.53
504.604	9.41
504.804	9.27
505.004	9.22
505.204	9.24
505.404	9.28
505.604	9.6
505.804	9.57
506.005	9.64
506.205	9.69
506.405	9.62
506.605	9.37
506.805	9.6
507.005	9.61
507.204	9.59
507.404	9.69
507.604	9.74
507.804	9.69
508.004	9.79
508.204	9.89
508.404	10.03
508.604	10.09
508.804	10.23
509.003	10.08
509.203	10.21
509.403	10.26
509.603	10.22
509.803	10.22
510.002	10.05
510.202	9.92
510.402	9.86
510.602	9.75
510.801	9.97
511.001	9.89
511.201	9.91
511.4	9.9
511.6	9.94
511.8	10.04
511.999	9.97
512.199	10.13
512.398	10.32
512.598	10.42
512.797	10.43
512.997	10.29
513.197	10.24
513.396	10.07
513.596	10.3
513.795	10.47
513.994	10.42
514.194	10.59
514.393	10.6
514.593	10.42
514.792	10.43
514.992	10.38
515.191	10.36
515.39	10.48
515.59	10.67
515.789	10.53
515.988	10.54
516.188	10.6
516.387	10.62
516.586	10.55
516.786	10.69
516.985	10.63
517.184	10.78
517.383	10.85
517.582	10.84
517.782	10.9
517.981	10.89
518.18	10.94
518.379	10.82
518.578	10.72
518.777	10.78
518.976	10.87
519.176	10.78
519.375	10.8
519.574	10.78
519.773	10.85
519.972	10.76
520.171	10.65
520.37	10.48
520.569	10.63
520.768	10.66
520.967	10.68
521.166	10.35
521.365	10.49
521.564	10.5
521.762	10.49
521.961	10.48
522.16	10.42
522.359	10.55
522.558	10.59
522.757	10.9
522.956	11.02
523.154	11.16
523.353	11.54
523.552	11.41
523.751	11.44
523.949	11.41
524.148	11.41
524.347	11.6
524.546	11.56
524.744	11.67
524.943	11.48
525.142	11.53
525.34	11.43
525.539	11.41
525.737	11.49
525.936	11.44
526.135	11.58
526.333	11.62
526.532	11.72
526.73	11.75
526.929	11.72
527.127	11.61
527.326	11.68
527.524	11.78
527.723	11.83
527.921	11.88
528.12	11.92
528.318	11.89
528.516	11.92
528.715	11.85
528.913	11.9
529.112	11.89
529.31	11.96
529.508	11.89
529.707	11.81
529.905	11.76
530.103	11.72
530.301	11.77
530.5	11.75
530.698	11.73
530.896	11.73
531.094	11.67
531.293	11.65
531.491	11.66
531.689	11.65
531.887	11.77
532.085	11.86
532.283	11.97
532.481	12.03
532.68	12.01
532.878	12.08
533.076	12.16
533.274	12.18
533.472	12.29
533.67	12.31
533.868	12.39
534.066	12.34
534.264	12.32
534.462	12.28
534.66	12.15
534.858	12.33
535.056	12.27
535.253	12.18
535.451	12.2
535.649	12.23
535.847	12.31
536.045	12.44
536.243	12.46
536.441	12.47
536.638	12.57
536.836	12.65
537.034	12.62
537.232	12.73
537.43	12.82
537.627	12.97
537.825	12.89
538.023	12.94
538.22	12.98
538.418	13.17
538.616	13.15
538.813	13.06
539.011	13.2
539.209	13.17
539.406	13.39
539.604	13.5
539.801	13.59
539.999	13.59
540.196	13.67
540.394	13.56
540.591	13.64
540.789	13.82
540.986	13.97
541.184	14.03
541.381	14.14
541.579	14.13
541.776	14.1
541.974	14.04
542.171	14.19
542.368	14.14
542.566	14.28
542.763	14.29
542.96	14.28
543.158	14.33
543.355	14.36
543.552	14.33
543.75	14.26
543.947	14.35
544.144	14.43
544.341	14.43
544.539	14.57
544.736	14.67
544.933	14.64
545.13	14.81
545.327	14.88
545.524	14.87
545.722	15.04
545.919	15.1
546.116	15.25
546.313	15.3
546.51	15.52
546.707	15.51
546.904	15.43
547.101	15.67
547.298	15.65
547.495	15.66
547.692	15.69
547.889	15.6
548.086	15.73
548.283	15.72
548.48	15.92
548.677	15.74
548.874	15.79
549.07	15.93
549.267	15.9
549.464	16.11
549.661	16.19
549.858	16.33
550.055	16.56
550.251	16.69
550.448	16.9
550.645	16.79
550.842	16.91
551.038	17.02
551.235	17.12
551.432	17.12
551.628	17.21
551.825	17.09
552.022	17.35
552.218	17.45
552.415	17.56
552.612	17.45
552.808	17.71
553.005	17.85
553.201	17.93
553.398	18
553.594	18.25
553.791	18.37
553.987	18.65
554.184	18.6
554.38	18.93
554.577	19.02
554.773	19.31
554.97	19.43
555.166	19.42
555.362	19.72
555.559	19.9
555.755	19.83
555.952	19.81
556.148	19.77
556.344	20.09
556.541	20.01
556.737	19.93
556.933	20.09
557.129	20.15
557.326	20.38
557.522	20.36
557.718	20.49
557.914	20.74
558.11	20.76
558.307	21.12
558.503	21.14
558.699	21.12
558.895	21.47
559.091	21.51
559.287	21.67
559.483	21.87
559.679	21.77
559.876	21.91
560.072	21.77
560.268	21.72
560.464	21.79
560.66	21.9
560.856	21.9
561.052	21.96
561.247	21.95
561.443	22
561.639	21.75
561.835	22.01
562.031	22.03
562.227	22.41
562.423	22.76
562.619	22.87
562.815	22.94
563.01	23.03
563.206	23.23
563.402	23.28
563.598	23.31
563.793	23.53
563.989	23.73
564.185	23.63
564.381	23.6
564.576	23.54
564.772	23.61
564.968	23.51
565.163	23.83
565.359	23.79
565.555	23.99
565.75	24.08
565.946	24.22
566.141	24.54
566.337	24.71
566.532	24.78
566.728	24.83
566.923	24.8
567.119	25.11
567.314	25.05
567.51	25.08
567.705	25.33
567.901	25.4
568.096	25.27
568.292	25.09
568.487	25.18
568.682	25.34
568.878	25.69
569.073	25.68
569.268	25.67
569.464	25.82
569.659	25.9
569.854	25.87
570.05	25.71
570.245	26.22
570.44	26.24
570.635	26.28
570.831	26.41
571.026	26.57
571.221	26.73
571.416	26.83
571.611	26.73
571.806	26.91
572.002	26.97
572.197	27.13
572.392	27.1
572.587	27.08
572.782	27.26
572.977	27.25
573.172	27.25
573.367	27.38
573.562	27.36
573.757	27.57
573.952	27.39
574.147	27.47
574.342	27.84
574.537	27.85
574.732	28.12
574.927	28.09
575.121	28.15
575.316	27.87
575.511	28
575.706	28.1
575.901	28.09
576.096	28.44
576.29	28.46
576.485	28.5
576.68	28.6
576.875	28.47
577.069	28.61
577.264	28.63
577.459	28.74
577.654	28.78
577.848	28.84
578.043	28.97
578.238	28.81
578.432	28.69
578.627	28.35
578.821	28.13
579.016	28.37
579.21	28.2
579.405	28.16
579.6	28.36
579.794	28.36
579.989	28.26
580.183	28.15
580.378	28.11
580.572	28.44
580.766	28.45
580.961	28.66
581.155	28.69
581.35	28.68
581.544	28.58
581.738	28.49
581.933	28.59
582.127	28.58
582.321	28.81
582.516	28.94
582.71	28.49
582.904	28.77
583.099	28.84
583.293	28.77
583.487	28.9
583.681	28.89
583.875	29.02
584.07	28.85
584.264	28.93
584.458	28.89
584.652	28.71
584.846	29.06
585.04	29.02
585.234	28.96
585.428	29.14
585.623	29.23
585.817	29.51
586.011	29.38
586.205	29.47
586.399	29.57
586.593	29.52
586.787	29.95
586.981	29.86
587.174	29.82
587.368	30.05
587.562	30.09
587.756	30.1
587.95	30.12
588.144	30.51
588.338	30.5
588.532	30.68
588.725	30.9
588.919	30.72
589.113	30.74
589.307	30.99
589.501	31.09
589.694	30.91
589.888	30.99
590.082	30.99
590.275	31.03
590.469	31.09
590.663	30.91
590.856	31.02
591.05	31.01
591.244	31.32
591.437	31.23
591.631	31.3
591.824	31.45
592.018	31.51
592.212	31.54
592.405	31.26
592.599	31.44
592.792	31.47
592.986	31.29
593.179	31.23
593.372	31.04
593.566	31.03
593.759	30.91
593.953	30.75
594.146	30.67
594.339	30.81
594.533	31.07
594.726	30.94
594.92	30.97
595.113	31.16
595.306	31.3
595.499	31.35
595.693	31.45
595.886	31.48
596.079	31.65
596.272	31.64
596.466	31.56
596.659	31.56
596.852	31.51
597.045	31.65
597.238	31.47
597.431	31.58
597.624	31.55
597.818	31.47
598.011	31.67
598.204	31.63
598.397	31.97
598.59	32.24
598.783	31.98
598.976	31.8
599.169	31.76
599.362	32.05
599.555	31.97
599.748	32.04
599.941	32.3
600.134	32
600.326	32.15
600.519	31.71
600.712	31.66
600.905	32.04
601.098	32.61
601.291	32.73
601.483	32.64
601.676	32.74
601.869	32.98
602.062	32.8
602.255	33.02
602.447	32.79
602.64	33.18
602.833	33.27
603.025	33.12
603.218	33.09
603.411	33.19
603.603	33.18
603.796	33.12
603.989	32.94
604.181	33.2
604.374	33.19
604.566	33.41
604.759	33.53
604.951	33.28
605.144	33.17
605.336	33.07
605.529	32.89
605.721	33.07
605.914	32.98
606.106	33.26
606.299	33
606.491	32.84
606.683	32.78
606.876	32.74
607.068	32.55
607.26	32.56
607.453	32.65
607.645	32.83
607.837	32.65
608.03	33.01
608.222	32.79
608.414	32.74
608.606	32.57
608.799	32.49
608.991	32.34
609.183	32.51
609.375	32.72
609.567	32.63
609.759	32.39
609.952	32.07
610.144	31.98
610.336	31.59
610.528	31.67
610.72	31.82
610.912	31.76
611.104	31.72
611.296	31.7
611.488	31.56
611.68	31.46
611.872	31.94
612.064	32.04
612.256	31.9
612.448	32.09
612.64	32.16
612.832	31.91
613.023	31.78
613.215	31.6
613.407	31.86
613.599	32.13
613.791	32.22
613.983	31.77
614.174	31.88
614.366	31.74
614.558	32.25
614.75	32.22
614.941	32.55
615.133	32.67
615.325	32.47
615.516	32.35
615.708	32.22
615.9	32.15
616.091	32.34
616.283	32.54
616.475	32.8
616.666	32.71
616.858	32.74
617.049	32.57
617.241	32.82
617.432	33.19
617.624	33.33
617.815	33.53
618.007	33.26
618.198	33.19
618.39	33.25
618.581	32.95
618.773	33.42
618.964	33.25
619.155	33.47
619.347	33.09
619.538	32.89
619.729	32.54
619.921	32.43
620.112	33.14
620.303	32.7
620.494	32.48
620.686	32.97
620.877	32.77
621.068	33.09
621.259	33.15
621.451	33.41
621.642	33.9
621.833	33.82
622.024	34.13
622.215	34.15
622.406	34.24
622.597	34.44
622.788	34.32
622.98	34.15
623.171	34.19
623.362	34.13
623.553	34.15
623.744	34.03
623.935	34.21
624.126	34.07
624.317	33.56
624.508	33.73
624.698	33.49
624.889	33.76
625.08	33.56
625.271	33.53
625.462	33.4
625.653	33.79
625.844	33.67
626.034	33.63
626.225	33.45
626.416	33.58
626.607	34.12
626.798	34.18
626.988	34.19
627.179	34.1
627.37	34.04
627.56	34.17
627.751	33.92
627.942	34
628.132	34.07
628.323	34.28
628.514	34.31
628.704	33.84
628.895	34.06
629.085	33.57
629.276	33.7
629.466	33.63
629.657	33.56
629.847	33.6
630.038	33.31
630.228	33.44
630.419	33.37
630.609	33.5
630.8	33.33
630.99	33.02
631.181	33.3
631.371	33.19
631.561	33.12
631.752	33.19
631.942	33.25
632.132	33.43
632.323	33.4
632.513	33.35
632.703	33.41
632.893	33.62
633.084	33.79
633.274	33.9
633.464	33.79
633.654	33.92
633.844	33.73
634.034	33.68
634.225	33.8
634.415	34.04
634.605	33.99
634.795	33.86
634.985	34
635.175	33.74
635.365	33.62
635.555	33.83
635.745	33.69
635.935	34.05
636.125	34.29
636.315	34.39
636.505	34.36
636.695	34.34
636.885	34.24
637.075	34.38
637.265	34.95
637.455	34.71
637.644	34.96
637.834	35.51
638.024	35.55
638.214	35.32
638.404	35.2
638.593	34.93
638.783	34.76
638.973	34.84
639.163	34.44
639.352	34.35
639.542	34.38
639.732	33.96
639.921	33.7
640.111	33.44
640.301	33.52
640.49	33.76
640.68	33.38
640.87	33.9
641.059	34.06
641.249	34.41
641.438	33.7
641.628	33.95
641.817	34.1
642.007	33.74
642.196	33.77
642.386	33.38
642.575	33.23
642.764	34.13
642.954	33.72
643.143	33.67
643.333	33.91
643.522	34.38
643.711	34.37
643.901	34.32
644.09	34.55
644.279	34.79
644.469	34.78
644.658	35.03
644.847	34.29
645.036	34.13
645.226	34.2
645.415	33.83
645.604	33.87
645.793	34.24
645.982	34.24
646.171	34.12
646.361	34
646.55	33.94
646.739	33.67
646.928	33.89
647.117	33.7
647.306	33.65
647.495	33.42
647.684	33.22
647.873	32.92
648.062	32.97
648.251	32.73
648.44	32.42
648.629	32.7
648.818	32.54
649.007	32.45
649.196	32.65
649.384	32.71
649.573	33.49
649.762	33.67
649.951	33.91
650.14	33.7
650.328	33.96
650.517	34.57
650.706	34.71
650.895	34.98
651.083	35.22
651.272	35.23
651.461	35.2
651.65	35.01
651.838	35.04
652.027	34.56
652.216	34.79
652.404	34.62
652.593	33.74
652.781	33.95
652.97	33.4
653.158	33.17
653.347	33.36
653.535	33.52
653.724	33.38
653.912	33.85
654.101	34.02
654.289	33.97
654.478	34.04
654.666	34.38
654.855	33.72
655.043	34.09
655.231	34.52
655.42	34.72
655.608	34.25
655.796	34.15
655.985	33.51
656.173	33.4
656.361	33.01
656.55	33.23
656.738	33.66
656.926	33.95
657.114	34.15
657.302	33.85
657.491	33.73
657.679	34.29
657.867	33.97
658.055	34.7
658.243	35.26
658.431	35.63
658.619	35.68
658.807	35.73
658.996	35.67
659.184	35.59
659.372	35.54
659.56	35.47
659.748	35.5
659.936	35.67
660.124	35.04
660.311	34.13
660.499	34.68
660.687	34.57
660.875	34.46
661.063	34.63
661.251	34.48
661.439	34.55
661.627	34.33
661.814	33.48
662.002	33.6
662.19	33.91
662.378	34.25
662.565	33.73
662.753	33.41
662.941	33.51
663.129	33.26
663.316	32.85
663.504	32.52
663.692	32.81
663.879	33.48
664.067	33.17
664.254	33.13
664.442	33.73
664.63	33.37
664.817	33.39
665.005	32.81
665.192	32.79
665.38	33.45
665.567	33.55
665.755	33.63
665.942	33.18
666.13	33.19
666.317	33.57
666.504	33.16
666.692	33.38
666.879	34.09
667.067	33.85
667.254	33.86
667.441	33.95
667.629	34.26
667.816	34.35
668.003	34.17
668.19	34.35
668.378	34.11
668.565	34.56
668.752	34.82
668.939	34.59
669.127	34.61
669.314	34.75
669.501	34.34
669.688	34.42
669.875	34.61
670.062	35.23
670.249	35.49
670.436	35.4
670.623	35.25
670.81	35.11
670.997	35
671.184	35.33
671.371	35.49
671.558	35.74
671.745	35.48
671.932	34.98
672.119	34.94
672.306	34.45
672.493	34.07
672.68	33.9
672.867	33.77
673.054	33.88
673.24	34.09
673.427	33.94
673.614	34.41
673.801	34.2
673.988	34.1
674.174	34.3
674.361	33.65
674.548	34.83
674.734	34.39
674.921	34.26
675.108	34.96
675.294	35.08
675.481	35.08
675.668	34.56
675.854	34.88
676.041	34.92
676.227	34.45
676.414	35.44
676.601	34.6
676.787	35.21
676.974	35
677.16	34.14
677.347	33.96
677.533	34.16
677.719	34.44
677.906	33.94
678.092	34.42
678.279	35
678.465	35.03
678.651	35.23
678.838	34.85
679.024	34.99
679.21	34.99
679.397	35.01
679.583	35.07
679.769	34.55
679.955	35.18
680.142	34.51
680.328	33.9
680.514	34.28
680.7	34.05
680.886	34.57
681.073	34.65
681.259	34.41
681.445	34.26
681.631	34.21
681.817	34.43
682.003	34.24
682.189	34.94
682.375	35.29
682.561	34.63
682.747	34.6
682.933	34.24
683.119	34.16
683.305	34.67
683.491	35.24
683.677	35.26
683.863	35.62
684.049	35.63
684.235	35.35
684.42	35.04
684.606	34.88
684.792	35.47
684.978	35.65
685.164	35.98
685.349	35.54
685.535	34.86
685.721	34
685.907	33.51
686.092	33.56
686.278	33.81
686.464	34.02
686.649	34.39
686.835	33.72
687.021	33.71
687.206	33.8
687.392	33.99
687.577	34.09
687.763	34.66
687.948	34.71
688.134	34.95
688.319	34.98
688.505	35.12
688.69	34.89
688.876	34.98
689.061	34.22
689.247	34.06
689.432	34.21
689.618	34
689.803	33.95
689.988	33.53
690.174	33.46
690.359	33.04
690.544	33.32
690.73	33.27
690.915	33.43
691.1	34.71
691.285	35
691.471	35.42
691.656	35.85
691.841	36.13
692.026	37.29
692.211	36.81
692.396	37.15
692.582	36.8
692.767	36.85
692.952	36.83
693.137	35.72
693.322	35.7
693.507	35.14
693.692	35.25
693.877	34.64
694.062	34.06
694.247	34.7
694.432	34.17
694.617	34.75
694.802	34.8
694.987	35.1
695.172	35.24
695.357	34.75
695.541	34.73
695.726	34.12
695.911	34.54
696.096	34.22
696.281	34.31
696.466	34.08
696.65	33.48
696.835	34.2
697.02	33.83
697.204	34.01
697.389	34.16
697.574	33.95
697.759	34.25
697.943	34.25
698.128	34.23
698.312	34.34
698.497	35.15
698.682	35.17
698.866	34.39
699.051	34.43
699.235	34.34
699.42	34.1
699.604	34.93
699.789	34.59
699.973	34.4
700.158	34.87
700.342	34.58
700.527	34.24
700.711	33.83
700.895	34.27
701.08	34.03
701.264	34.09
701.448	34.32
701.633	33.5
701.817	34.24
702.001	34.27
702.186	33.88
702.37	33.07
702.554	32.51
702.738	33.02
702.923	32.91
703.107	32.59
703.291	32.87
703.475	32.49
703.659	32.02
703.843	32.1
704.027	32.3
704.212	31.86
704.396	32.4
704.58	32.79
704.764	31.56
704.948	31.51
705.132	32
705.316	31.42
705.5	31.76
705.684	32.51
705.868	31.56
706.052	31.62
706.235	31.65
706.419	31.23
706.603	32.12
706.787	33.18
706.971	33.71
707.155	33.34
707.339	34.28
707.522	33.71
707.706	33.56
707.89	34.24
708.074	34.29
708.257	34.88
708.441	35.21
708.625	34.47
708.808	34.07
708.992	33.2
709.176	33.34
709.359	32.68
709.543	33.18
709.727	33.98
709.91	33.27
710.094	33.02
710.277	32.68
710.461	32.65
710.644	32.78
710.828	32.6
711.011	32.81
711.195	33.36
711.378	33.53
711.562	33.35
711.745	32.8
711.928	33.48
712.112	33.68
712.295	34.1
712.478	35.11
712.662	35.14
712.845	35.77
713.028	35.51
713.212	35.6
713.395	35.71
713.578	34.84
713.761	35.54
713.945	35.19
714.128	35.04
714.311	34.48
714.494	33.31
714.677	32.93
714.86	33.14
715.043	33.15
715.227	32.66
715.41	32.31
715.593	33.67
715.776	32.56
715.959	32.61
716.142	32.84
716.325	33.17
716.508	34.13
716.691	34.22
716.874	33.99
717.057	34.24
717.239	33.95
717.422	33.74
717.605	33.55
717.788	33.72
717.971	33.35
718.154	32.61
718.337	32.31
718.519	31.71
718.702	31.93
718.885	31.92
719.068	31.25
719.25	31.36
719.433	31.63
719.616	31.19
719.798	31.57
719.981	32.06
720.164	32.41
720.346	32.2
720.529	32.41
720.712	32.22
720.894	32.29
721.077	32.63
721.259	33.74
721.442	34.16
721.624	34.13
721.807	33.44
721.989	33.54
722.172	34.42
722.354	34.86
722.537	34.07
722.719	34.37
722.901	33.9
723.084	35.18
723.266	34.18
723.448	32.6
723.631	33.24
723.813	33.03
723.995	32.8
724.178	31.63
724.36	31.33
724.542	31.34
724.724	30.63
724.907	31.5
725.089	31.76
725.271	31.56
725.453	32.46
725.635	31.72
725.817	30.88
725.999	31.35
726.181	31.87
726.364	33.08
726.546	32.15
726.728	31.59
726.91	32.02
727.092	31.42
727.274	31.9
727.456	32.09
727.638	32.26
727.819	33.89
728.001	34.62
728.183	33.78
728.365	33.34
728.547	34.16
728.729	36.07
728.911	35.05
729.093	34.26
729.274	34.21
729.456	35.13
729.638	34.46
729.82	34.02
730.001	32.7
730.183	33.65
730.365	33.97
730.546	33.76
730.728	33.29
730.91	33.96
731.091	34.79
731.273	35.06
731.455	34.38
731.636	35.1
731.818	35.08
731.999	34.46
732.181	34.94
732.362	33.42
732.544	33.35
732.725	32.15
732.907	31.96
733.088	32.26
733.27	31.74
733.451	31.74
733.633	32.49
733.814	32.38
733.995	33.6
734.177	33.74
734.358	34.28
734.539	34.97
734.721	35.29
734.902	35.14
735.083	34.17
735.264	35.54
735.446	35.84
735.627	34.37
735.808	35.5
735.989	33.85
736.17	34.81
736.351	34.1
736.533	33.56
736.714	34.14
736.895	33.82
737.076	34.76
737.257	34.21
737.438	33.63
737.619	34.36
737.8	33.29
737.981	34.46
738.162	32.22
738.343	33.33
738.524	33.53
738.705	33.16
738.886	33.68
739.067	33.69
739.247	33.02
739.428	33.08
739.609	32.41
739.79	31.73
739.971	32.46
740.151	32.91
740.332	33.65
740.513	32.56
740.694	32.83
740.874	32.98
741.055	32.72
741.236	34.08
741.417	34.47
741.597	35.34
741.778	35.88
741.958	34.84
742.139	33.74
742.32	31.68
742.5	32.8
742.681	31.85
742.861	31.43
743.042	30.54
743.222	28.02
743.403	27.71
743.583	26.34
743.764	27.4
743.944	27.37
744.124	27.26
744.305	29.42
744.485	29.41
744.666	28.15
744.846	27.46
745.026	29.51
745.207	30.33
745.387	30.06
745.567	31.29
745.747	30.31
745.928	30.15
746.108	30.71
746.288	29.62
746.468	29.14
746.648	28.75
746.829	28.83
747.009	27.76
747.189	29.02
747.369	28.55
747.549	27.1
747.729	26.75
747.909	25.93
748.089	27.36
748.269	27.69
748.449	30.2
748.629	31.45
748.809	30.8
748.989	29.26
749.169	27.03
749.349	27.26
749.529	29.18
749.709	29.42
749.889	29.35
750.068	29.33
750.248	28.94
750.428	26.59
750.608	28.38
750.788	29.49
750.967	30.66
751.147	31.4
751.327	32.51
751.507	31.52
751.686	33.85
751.866	35.82
752.046	33.97
752.225	35.46
752.405	37.21
752.585	37.2
752.764	38.26
752.944	37.19
753.123	38.72
753.303	38.56
753.482	37.36
753.662	34.06
753.841	33.59
754.021	34.74
754.2	33.28
754.38	32.29
754.559	33.76
754.739	33.85
754.918	34.93
755.097	33.62
755.277	33.48
755.456	35.68
755.635	36.86
755.815	38.23
755.994	38.46
756.173	37.67
756.352	36.3
756.532	33.78
756.711	33.5
756.89	33.85
757.069	32.76
757.248	32.12
757.427	32.47
757.607	33.4
757.786	31.3
757.965	31.44
758.144	31.72
758.323	31.96
758.502	32.6
758.681	30.84
758.86	30.32
759.039	32.13
759.218	32.16
759.397	32.46
759.576	31.8
759.755	31.48
759.934	30.48
760.113	31.11
760.291	30.62
760.47	31.66
760.649	32.55
760.828	30.39
761.007	30.07
761.186	31.93
761.364	30.75
761.543	31.5
761.722	32.14
761.901	32.48
762.079	31.94
762.258	33.4
762.437	32.91
762.615	32.73
762.794	34.65
762.972	34.33
763.151	33.18
763.33	33.6
763.508	32.78
763.687	32.49
763.865	33.93
764.044	35.1
764.222	35.25
764.401	35.27
764.579	35.4
764.758	35.4
764.936	36.03
765.114	36.77
765.293	36.03
765.471	35.51
765.65	35.76
765.828	34.56
766.006	33.91
766.184	33.62
766.363	33.48
766.541	32.86
766.719	32.76
766.898	31.59
767.076	31.73
767.254	33.61
767.432	34.54
767.61	34.8
767.788	36.04
767.967	36.29
768.145	35.45
768.323	34.74
768.501	34.82
768.679	34.66
768.857	35.77
769.035	33.37
769.213	30.1
769.391	28.51
769.569	27.6
769.747	27.67
769.925	25.05
770.103	24.8
770.281	26.63
770.459	27.49
770.636	27.46
770.814	27.94
770.992	28.46
771.17	32.56
771.348	33.65
771.525	36.63
771.703	34.44
771.881	36.33
772.059	34.82
772.236	34
772.414	31.71
772.592	33
772.769	31.13
772.947	33.18
773.125	31.61
773.302	31.47
773.48	30.63
773.657	29.31
773.835	29.54
774.013	30.83
774.19	27.91
774.368	30.9
774.545	31.09
774.723	31.58
774.9	31.69
775.077	31.13
775.255	30.83
775.432	29.58
775.61	29.47
775.787	27.29
775.964	26.53
776.142	27.57
776.319	25.87
776.496	25.42
776.674	24.17
776.851	23.13
777.028	23.4
777.205	23.75
777.382	24.51
777.56	25.83
777.737	28.54
777.914	27.34
778.091	29.32
778.268	28.91
778.445	30.78
778.622	31.17
778.8	28.08
778.977	27.65
779.154	28.85
779.331	26.95
779.508	26.94
779.685	25.72
779.862	26.05
780.038	26.23
780.215	29.56
780.392	22.64
780.569	23.09
780.746	25.73
780.923	27.46
781.1	26.06
781.277	27.17
781.453	26.85
781.63	26.56
781.807	26.68
781.984	23.26
782.16	21.39
782.337	26.49
782.514	26.61
782.691	27.9
782.867	27.35
783.044	28.61
783.221	26.96
783.397	26.15
783.574	27.44
783.75	29.49
783.927	32.35
784.103	32.2
784.28	29.56
784.456	26.69
784.633	23.71
784.809	21.54
784.986	21.99
785.162	23.21
785.339	24.22
785.515	23.35
785.692	23.2
785.868	24.14
786.044	24.5
786.221	27.34
786.397	29.95
786.573	33.87
786.749	31.46
786.926	28.29
787.102	28.28
787.278	25.95
787.454	28.52
787.631	26.69
787.807	22.84
787.983	22.95
788.159	21.63
788.335	24.52
788.511	22.35
788.687	25.65
788.863	28.34
789.039	28.36
789.216	30.35
789.392	29.77
789.568	33.74
789.744	37.29
789.919	38.52
790.095	37.95
790.271	36.46
790.447	37.81
790.623	37.83
790.799	37.32
790.975	39.1
791.151	40.84
791.327	42.1
791.502	38.51
791.678	34.73
791.854	32.71
792.03	36.27
792.205	37.43
792.381	36.92
792.557	38.98
792.733	37.18
792.908	35.62
793.084	33.5
793.259	31.78
793.435	34.33
793.611	34.47
793.786	34.03
793.962	31.46
794.137	29.01
794.313	25.77
794.488	25.47
794.664	28
794.839	27.09
795.015	28.42
795.19	25.19
795.366	21.84
795.541	19.3
795.716	22.05
795.892	22.65
796.067	19.95
796.242	24.9
796.418	25.92
796.593	27.1
796.768	30.76
796.944	31.53
797.119	32.88
797.294	33.31
797.469	35.76
797.644	33.51
797.82	32.44
797.995	37.36
798.17	35.42
798.345	31.31
798.52	31.49
798.695	30.86
798.87	27.01
799.045	26.91
799.22	30.96
799.395	33.62
799.57	35.5
799.745	37.57
799.92	38.53
800.095	37.71
800.27	42.25
800.445	38.35
800.62	38.39
800.795	42.09
800.97	45.17
801.145	43.78
801.319	40.96
801.494	41.99
801.669	40.88
801.844	39.26
802.018	42.85
802.193	41.4
802.368	43.43
802.543	42.05
802.717	43.17
802.892	40.07
803.067	42.28
803.241	43.35
803.416	42.83
803.59	40.76
803.765	36.1
803.94	37.18
804.114	30.96
804.289	27.74
804.463	29.49
804.638	29.3
804.812	32.48
804.986	29.7
805.161	26.83
805.335	27.46
805.51	30.98
805.684	34.45
805.858	29.29
806.033	28.29
806.207	29.18
806.381	31.37
806.556	30.26
806.73	24.41
806.904	24.26
807.078	24.91
807.253	24.25
807.427	19.99
807.601	24.27
807.775	26.84
807.949	29.38
808.123	33.47
808.298	33.48
808.472	30.54
808.646	35.22
808.82	39.42
808.994	40.33
809.168	38.19
809.342	40.7
809.516	36.48
809.69	36.43
809.864	38.92
810.038	37.97
810.212	33.97
810.385	36.28
810.559	35.43
810.733	30.67
810.907	26.26
811.081	22.2
811.255	23.7
811.428	26.7
811.602	27.83
811.776	26.64
811.95	23.95
812.123	25.6
812.297	17.66
812.471	17.22
812.644	25.22
812.818	30.76
812.992	36.91
813.165	32.62
813.339	26.25
813.512	26.93
813.686	29.48
813.86	37.94
814.033	34.79
814.207	39.78
814.38	39.25
814.554	39
814.727	37.95
814.9	41.74
815.074	38.83
815.247	43.94
815.421	41.11
815.594	42.94
815.767	34.87
815.941	39.23
816.114	36.56
816.287	39.9
816.46	37.65
816.634	40
816.807	38.62
816.98	45.44
817.153	44.09
817.327	44.25
817.5	39.67
817.673	46.11
817.846	40.4
818.019	39.24
818.192	33.62
818.365	32.38
818.538	32.26
818.711	30.37
818.884	33.46
819.057	27.08
819.23	25.76
819.403	25.03
819.576	23.77
819.749	28.57
819.922	33.01
820.095	35.64
820.268	33.11
820.441	31.26
820.614	33.19
820.786	26.87
820.959	27.03
821.132	28.1
821.305	32.09
821.477	31.3
821.65	31.35
821.823	31.82
821.996	31.18
822.168	32.16
822.341	32.22
822.514	32.13
822.686	32.73
822.859	33.87
823.031	34.75
823.204	33.24
823.376	33.71
823.549	33.91
823.722	33.22
823.894	33.48
824.067	34.26
824.239	35.13
824.411	34.89
824.584	35.25
824.756	34.73
824.929	33.39
825.101	33.75
825.273	32.27
825.446	32.46
825.618	33.37
825.79	33.89
825.963	32.52
826.135	31.94
826.307	32.42
826.479	32.39
826.652	31.75
826.824	30.98
826.996	32.05
827.168	34.39
827.34	32.69
827.512	31.06
827.684	31.4
827.856	30.05
828.029	29.96
828.201	29.02
828.373	26.85
828.545	27.24
828.717	28.2
828.889	28.53
829.061	26.28
829.232	26.03
829.404	27.64
829.576	22.72
829.748	23.23
829.92	21.11
830.092	23.27
830.264	26.94
830.436	24.92
830.607	22.78
830.779	20.26
830.951	18.53
831.123	16.12
831.294	14.78
831.466	17.64
831.638	22.34
831.809	27.52
831.981	18.64
832.153	16.88
832.324	15.23
832.496	20.63
832.667	16
832.839	18.76
833.011	28.07
833.182	31.94
833.354	30.52
833.525	28.08
833.697	25.46
833.868	29.16
834.039	27.83
834.211	31.48
834.382	31.91
834.554	33.02
834.725	32.38
834.896	29.76
835.068	27.42
835.239	30.69
835.41	30.92
835.581	32.04
835.753	33.83
835.924	37.24
836.095	37.83
836.266	38.98
836.438	40.04
836.609	40.15
836.78	42.27
836.951	41.59
837.122	37.98
837.293	37.2
837.464	38.92
837.635	33.83
837.806	27.26
837.977	28.89
838.148	18.21
838.319	22.96
838.49	32.74
838.661	31.92
838.832	37.35
839.003	42.13
839.174	42.63
839.345	34.25
839.516	29.61
839.687	35.78
839.857	28.66
840.028	41.72
840.199	41.41
840.37	28.98
840.54	26.86
840.711	25.15
840.882	20.01
841.053	18.19
841.223	29.83
841.394	35.04
841.564	28.69
841.735	33.58
841.906	37.72
842.076	33.66
842.247	27.85
842.417	33.39
842.588	33.28
842.758	40.73
842.929	35.54
843.099	33.82
843.27	32.11
843.44	35.85
843.611	28.5
843.781	11.94
843.951	19.93
844.122	37.8
844.292	25.08
844.462	30.62
844.633	26.36
844.803	35.06
844.973	27.67
845.144	45.6
845.314	37.96
845.484	43.92
845.654	40.96
845.824	31.09
845.995	29.7
846.165	33.57
846.335	31.84
846.505	28.99
846.675	31.36
846.845	28.16
847.015	22.93
847.185	33.54
847.355	38.88
847.525	38.74
847.695	46.25
847.865	47.19
848.035	60.74
848.205	57.67
848.375	91.19
848.545	74.05
848.715	80.07
848.884	77.32
849.054	62.48
849.224	50.35
849.394	56.42
849.564	60.18
849.733	54.25
849.903	47.15
850.073	40.71
850.243	23.4
850.412	10.42
850.582	26.15
850.752	15.37
850.921	38.44
851.091	66.44
851.26	70.87
851.43	58.53
851.599	60.26
851.769	66.59
851.939	82.43
852.108	83.69
852.278	88.87
852.447	73.33
852.616	75.03
852.786	72
852.955	74.52
853.125	67.12
853.294	65.91
853.463	74.66
853.633	78.7
853.802	84.28
853.971	80.59
854.141	66.22
854.31	62.27
854.479	49.68
854.648	44.4
854.818	32.2
854.987	42.56
855.156	51.48
855.325	37.64
855.494	22.55
855.663	14.92
855.832	38.71
856.001	34.47
856.171	35.68
856.34	44.92
856.509	44.7
856.678	42.66
856.847	16.34
857.016	10.45
857.185	37.98
857.353	11.2
857.522	47.41
857.691	42.86
857.86	74.66
858.029	63.97
858.198	55.63
858.367	59.52
858.535	36.95
858.704	46.92
858.873	55.13
859.042	17.01
859.21	34.23
859.379	5.39
859.548	-38.97
859.717	-63.84
859.885	-119.32
860.054	-108.32
860.222	-148.34
860.391	-157.23
860.56	-326.65
860.728	-405.59
860.897	-111.58
861.065	-232.08
861.234	-144.33
861.402	-104.49
861.571	-46.14
861.739	-70.23
861.908	-40.32
862.076	7.33
862.244	15.58
862.413	29.14
862.581	45.07
862.749	34.5
862.918	28.77
863.086	17.01
863.254	15.84
863.423	-4.71
863.591	38.39
863.759	36.3
863.927	29.73
864.096	45.78
864.264	38.54
864.432	45.54
864.6	66.88
864.768	62.75
864.936	74.42
865.104	86.39
865.272	91.77
865.44	91.62
865.608	79.02
865.776	76.16
865.944	50.03
866.112	19.99
866.28	-21.07
866.448	-40.25
866.616	-64.23
866.784	-45.17
866.952	-36.05
867.12	-58.1
867.288	-73.81
867.455	-32.72
867.623	-55.56
867.791	-51.11
867.959	-47.98
868.127	-47.06
868.294	-45.01
868.462	-36.19
868.63	-82.12
868.797	-135.87
868.965	-51.57
869.133	-58.62
869.3	-45.17
869.468	-13.53
869.636	5.12
869.803	36.41
869.971	45.15
870.138	58.22
870.306	76.83
870.473	94.86
870.641	107.24
870.808	149.87
870.975	229.53
871.143	205.58
871.31	180.29
871.478	166.33
871.645	146.97
871.812	171.43
871.98	130.15
872.147	96.36
872.314	70.04
872.482	66.06
872.649	56.9
872.816	45.51
872.983	41.85
873.15	36.12
873.318	44.35
873.485	46.42
873.652	30.25
873.819	18.32
873.986	42.06
874.153	48.24
874.32	16
874.487	17.3
874.654	13.47
874.821	38.32
874.988	18.23
875.155	2.6
875.322	29.71
875.489	13.73
875.656	40.55
875.823	18.47
875.99	14.02
876.157	26.11
876.324	17.8
876.49	51.04
876.657	43.91
876.824	38.74
876.991	39.55
877.157	62.49
877.324	76.17
877.491	97.44
877.658	125.17
877.824	107.67
877.991	83.42
878.157	104.03
878.324	53
878.491	39.95
878.657	11.96
878.824	21.82
878.99	-5.3
879.157	6.72
879.323	1.79
879.49	-24.5
879.656	44.05
879.823	51.74
879.989	67.46
880.156	107.69
880.322	157.76
880.488	214.73
880.655	189.48
880.821	220.6
880.987	193.22
881.154	169.01
881.32	154.57
881.486	97.47
881.652	92.52
881.819	79.27
881.985	68.21
882.151	60.21
882.317	54.07
882.483	52.58
882.649	44.63
882.816	43.81
882.982	38.47
883.148	34.15
883.314	32.23
883.48	27.93
883.646	23.23
883.812	20.09
883.978	20.72
884.144	22.18
884.31	17.55
884.476	19.09
884.642	16.37
884.807	16.25
884.973	16.67
885.139	15.85
885.305	17.53
885.471	19.23
885.637	18.58
885.802	15.6
885.968	13.71
886.134	15.06
886.3	10.16
886.465	12.05
886.631	11.68
886.797	14.67
886.962	20.24
887.128	26.71
887.293	29.5
887.459	32.26
887.625	26.36
887.79	27.39
887.956	29.73
888.121	33.68
888.287	37.05
888.452	36.02
888.618	31.04
888.783	25.3
