Data from 2937885_Reflection_1.txt Node
Date: Wed Jul 15 14:34:23 EDT 2015
User: robert
Spectrometer: USB4E03001
Autoset integration time: false
Trigger mode: 4
Integration Time (sec): 1.000000E-1
Scans to average: 10
Electric dark correction enabled: true
Nonlinearity correction enabled: false
Boxcar width: 5
Stray light correction enabled: false
XAxis mode: Wavelengths
Stop averaging: false
Number of Pixels in Spectrum: 3648
>>>>>Begin Spectral Data<<<<<
177.566	858.86
177.785	220.45
178.005	55.31
178.225	-17.29
178.445	-16.13
178.665	3.71
178.885	-186.3
179.105	93.83
179.324	64.39
179.544	126.34
179.764	-1.71
179.984	11.35
180.204	19.44
180.423	41.39
180.643	-30.22
180.863	-63.92
181.083	-81.54
181.302	-38.86
181.522	-17.47
181.742	-12.08
181.961	-56.64
182.181	-54.34
182.401	-446.08
182.621	-241.34
182.84	-165.65
183.06	-61.68
183.279	-18.3
183.499	7.74
183.719	-417.16
183.938	-255.66
184.158	-283.39
184.377	-33.48
184.597	-39.64
184.816	6.21
185.036	-2.88
185.256	1.31
185.475	30.4
185.695	27.27
185.914	62.07
186.134	78.07
186.353	63.63
186.572	30.68
186.792	-36.19
187.011	-346.28
187.231	919.62
187.45	200.4
187.67	681.85
187.889	-1288.44
188.108	-236.89
188.328	-1327.64
188.547	-2969.91
188.766	-667.18
188.986	-368.62
189.205	11.7
189.424	9.75
189.644	56.37
189.863	75.08
190.082	118.3
190.302	89.23
190.521	82.91
190.74	75.34
190.959	100.51
191.178	102.94
191.398	89.22
191.617	72.57
191.836	90.94
192.055	96.01
192.274	97.63
192.494	81.74
192.713	114.03
192.932	81.6
193.151	106.34
193.37	73.05
193.589	125.41
193.808	11.83
194.027	106.07
194.246	149.95
194.465	137.11
194.685	117.58
194.904	97.22
195.123	79.3
195.342	67.33
195.561	86.7
195.78	43.35
195.999	62.83
196.218	-2.7
196.436	-85.91
196.655	-388.93
196.874	6331.51
197.093	-68.77
197.312	-92.33
197.531	64.53
197.75	0.32
197.969	-21.96
198.188	98.55
198.407	14.52
198.625	226.89
198.844	-667.73
199.063	442.72
199.282	-387.18
199.501	11.7
199.719	-28.96
199.938	-84.21
200.157	-47.11
200.376	-82.43
200.594	-108.7
200.813	891.75
201.032	-371.47
201.251	1196.54
201.469	-480.56
201.688	837.27
201.907	289.79
202.125	479.74
202.344	518.42
202.563	556.53
202.781	552.42
203	-7793.75
203.218	-488.57
203.437	-833.33
203.656	-267.5
203.874	-280.07
204.093	-129.76
204.311	-92.28
204.53	-50.13
204.748	-32.4
204.967	-29.41
205.185	-16.38
205.404	-33.32
205.622	-55.99
205.841	-20.43
206.059	-10.57
206.278	7.68
206.496	14.98
206.715	23.1
206.933	27.38
207.151	9.36
207.37	12.1
207.588	-2.16
207.806	21.26
208.025	28.14
208.243	-0.15
208.461	-33.07
208.68	-193.82
208.898	-146.89
209.116	-190.3
209.335	-440.31
209.553	0.9
209.771	24.89
209.989	82.99
210.208	55.02
210.426	71.88
210.644	65.36
210.862	83.48
211.081	81.21
211.299	80.06
211.517	35.81
211.735	5.05
211.953	-19.92
212.171	-57.54
212.39	-280.92
212.608	-87.88
212.826	-81.1
213.044	-134.02
213.262	-84.28
213.48	-155.25
213.698	-112.51
213.916	-55.02
214.134	-68.45
214.352	-66.04
214.57	-55.59
214.788	-61.88
215.006	-56.28
215.224	-16.67
215.442	-7.61
215.66	3.59
215.878	12.72
216.096	15.54
216.314	-13.25
216.532	-28.44
216.75	31
216.968	59.27
217.185	120.78
217.403	78.37
217.621	89.5
217.839	129.97
218.057	130.03
218.275	118.79
218.492	71.64
218.71	38.6
218.928	56.92
219.146	28.5
219.363	1.1
219.581	0.96
219.799	-23.89
220.017	-49.33
220.234	-83.64
220.452	-63.24
220.67	-49.41
220.887	-141.82
221.105	-78.38
221.323	-177.1
221.54	-223.04
221.758	-77.23
221.976	-189.65
222.193	-38.41
222.411	-23.34
222.629	-0.7
222.846	26.1
223.064	15.98
223.281	25.37
223.499	36.28
223.716	34.87
223.934	46.57
224.151	31.19
224.369	44.46
224.586	41.81
224.804	43.86
225.021	39.75
225.239	27.74
225.456	32.34
225.674	33.6
225.891	30.87
226.108	40.08
226.326	13.95
226.543	17.68
226.76	9.15
226.978	11.07
227.195	12.82
227.413	10.93
227.63	19.38
227.847	19.86
228.064	27.7
228.282	30.73
228.499	28.05
228.716	28.62
228.934	28.26
229.151	25.33
229.368	25.04
229.585	25.14
229.802	26.69
230.02	24.1
230.237	23.5
230.454	18.65
230.671	15.47
230.888	13.98
231.105	13.71
231.323	19.38
231.54	24.53
231.757	27.4
231.974	22.21
232.191	25.1
232.408	29.29
232.625	27.3
232.842	28.83
233.059	27.32
233.276	25.53
233.493	24.8
233.71	13.58
233.927	10.09
234.144	10.28
234.361	20.02
234.578	17.47
234.795	12.19
235.012	11.71
235.229	12.07
235.446	15.59
235.663	16.94
235.879	16.69
236.096	16.98
236.313	18.33
236.53	12.64
236.747	14.19
236.964	7.43
237.181	16.69
237.397	22.78
237.614	22.85
237.831	26.86
238.048	26.89
238.264	24.66
238.481	32
238.698	29.25
238.915	30.41
239.131	23.26
239.348	27.84
239.565	23.22
239.781	20.31
239.998	20.94
240.215	16.67
240.431	17.77
240.648	19.03
240.865	13.43
241.081	14.97
241.298	17.2
241.514	18.37
241.731	15.01
241.947	14.2
242.164	13.79
242.38	13.26
242.597	13.25
242.814	11.09
243.03	12.68
243.246	12.23
243.463	11.69
243.679	8.91
243.896	9.44
244.112	10.86
244.329	10.79
244.545	10.4
244.762	10.24
244.978	11.71
245.194	14.42
245.411	11.33
245.627	14.65
245.843	15.19
246.06	14.12
246.276	11.92
246.492	10.95
246.709	11.2
246.925	10.83
247.141	10.98
247.357	9.59
247.574	9
247.79	9.31
248.006	9.06
248.222	9.15
248.439	9.96
248.655	10.89
248.871	11.81
249.087	11.65
249.303	13.03
249.519	13.58
249.736	16.2
249.952	17.44
250.168	15.86
250.384	16.05
250.6	15.68
250.816	18.74
251.032	19.79
251.248	17.78
251.464	16.16
251.68	16.36
251.896	15.31
252.112	13.27
252.328	13.28
252.544	16.54
252.76	16.42
252.976	15.84
253.192	13.81
253.408	12.59
253.624	13.61
253.84	13.64
254.056	13.95
254.272	14.74
254.487	14.03
254.703	11.42
254.919	8.51
255.135	5.81
255.351	4.96
255.567	5.01
255.782	3.95
255.998	4.17
256.214	5.38
256.43	2.24
256.646	-1.77
256.861	0.96
257.077	1.01
257.293	3.89
257.508	4.85
257.724	4.23
257.94	5.27
258.155	7.46
258.371	7.88
258.587	9.1
258.802	8.84
259.018	10.2
259.234	10.71
259.449	11
259.665	9.27
259.88	8.43
260.096	10.48
260.312	10.38
260.527	10.03
260.743	9.66
260.958	9.22
261.174	9.92
261.389	10.1
261.605	9.02
261.82	8.86
262.036	9.49
262.251	11.08
262.466	8.23
262.682	6.23
262.897	6.14
263.113	6.58
263.328	7.86
263.543	6.14
263.759	6.81
263.974	7.94
264.189	7.41
264.405	6.65
264.62	8.34
264.835	10.24
265.051	12.06
265.266	11.11
265.481	10.33
265.696	8.66
265.912	9.47
266.127	7.6
266.342	5.67
266.557	6.99
266.773	8.36
266.988	7.91
267.203	7.99
267.418	8.87
267.633	7.84
267.848	9.34
268.064	8.51
268.279	8.79
268.494	11.42
268.709	12.23
268.924	12.54
269.139	13.41
269.354	10.89
269.569	10.56
269.784	7.68
269.999	9.57
270.214	8.7
270.429	7.72
270.644	7.65
270.859	5.48
271.074	6.52
271.289	6.56
271.504	5.82
271.719	6.51
271.934	5.49
272.149	6.86
272.363	6.62
272.578	4.25
272.793	5.26
273.008	5.92
273.223	6.69
273.438	6.71
273.653	6.26
273.867	8.61
274.082	9.76
274.297	9.27
274.512	9.98
274.726	8.38
274.941	10.22
275.156	11.91
275.371	10.25
275.585	8.37
275.8	7.27
276.015	7.34
276.229	3.88
276.444	1.58
276.659	0.56
276.873	-0.57
277.088	0.68
277.302	0.85
277.517	0.01
277.732	-0.13
277.946	-0.02
278.161	-0.08
278.375	-0.75
278.59	-0.43
278.804	0.65
279.019	4.29
279.233	6.12
279.448	4.46
279.662	5.08
279.877	3.7
280.091	4.07
280.306	5.43
280.52	5.93
280.735	4.78
280.949	6.26
281.163	7.35
281.378	6.51
281.592	4.87
281.806	6.91
282.021	6.95
282.235	8.08
282.449	8.48
282.664	8.49
282.878	8.98
283.092	10.96
283.307	10.27
283.521	10.38
283.735	11.02
283.949	10.54
284.164	10.37
284.378	9.88
284.592	10.15
284.806	10.87
285.02	10.43
285.234	8.36
285.449	7.74
285.663	7.54
285.877	7.56
286.091	6.52
286.305	8.83
286.519	9.1
286.733	9.11
286.947	8.07
287.161	7.72
287.375	8.65
287.589	10.44
287.803	9.72
288.017	10.26
288.231	9.96
288.445	11.36
288.659	9.22
288.873	7.78
289.087	7.05
289.301	6.76
289.515	5.42
289.729	4.2
289.943	4.65
290.157	6.47
290.371	5.66
290.584	5.07
290.798	3.77
291.012	3.34
291.226	3.44
291.44	2.17
291.654	3.78
291.867	4.9
292.081	4.71
292.295	3.22
292.509	2.99
292.722	5.49
292.936	6.25
293.15	8.26
293.364	11.17
293.577	11.38
293.791	13.38
294.005	11.18
294.218	10.8
294.432	9.67
294.645	9.64
294.859	9.04
295.073	8.89
295.286	8.52
295.5	7.26
295.713	6.29
295.927	6.41
296.14	7.73
296.354	9.7
296.568	10.39
296.781	12.01
296.994	13.46
297.208	12.82
297.421	11.69
297.635	12.46
297.848	12.39
298.062	11.92
298.275	13.41
298.489	13.25
298.702	12.41
298.915	11.44
299.129	11.45
299.342	10.65
299.555	12.19
299.769	11.4
299.982	11.2
300.195	11.88
300.409	12.14
300.622	12.75
300.835	12.56
301.048	13.64
301.262	16
301.475	16
301.688	16.49
301.901	15.16
302.115	16.34
302.328	15.78
302.541	14.33
302.754	13.09
302.967	11.15
303.18	10.17
303.393	9.35
303.607	7.56
303.82	4.92
304.033	3.9
304.246	2.11
304.459	1.54
304.672	1.44
304.885	3.15
305.098	3.41
305.311	5.72
305.524	6.21
305.737	5.61
305.95	6.4
306.163	9.38
306.376	10.16
306.589	13.51
306.802	14.05
307.015	12.91
307.228	13.47
307.44	15.36
307.653	13.78
307.866	13.94
308.079	13.47
308.292	12.69
308.505	12.51
308.718	12.51
308.93	11.54
309.143	9.78
309.356	11.28
309.569	10.97
309.781	11.21
309.994	9.94
310.207	11.26
310.42	12.68
310.632	13.54
310.845	13.39
311.058	13.17
311.27	12.37
311.483	13.45
311.696	13.22
311.908	13.4
312.121	12.58
312.333	11.91
312.546	10.97
312.759	11.18
312.971	11.14
313.184	10.15
313.396	11.21
313.609	12.45
313.821	13.45
314.034	13.93
314.246	13.17
314.459	14.25
314.671	14.58
314.884	14.42
315.096	14.49
315.309	14.46
315.521	16.22
315.733	15.31
315.946	13.78
316.158	14.3
316.371	13.26
316.583	13.89
316.795	12.48
317.008	12.29
317.22	13.54
317.432	12.85
317.644	13.47
317.857	11.22
318.069	11.7
318.281	12.38
318.494	10.91
318.706	11.93
318.918	11.1
319.13	11.99
319.342	13.88
319.555	12.01
319.767	9.63
319.979	9.38
320.191	10.43
320.403	8.6
320.615	7.35
320.827	6.62
321.039	7.53
321.252	9.43
321.464	10.5
321.676	10.28
321.888	9.36
322.1	11.98
322.312	10.9
322.524	11.8
322.736	12.47
322.948	13.36
323.16	14.73
323.372	13.08
323.584	11.48
323.796	9.46
324.007	9.63
324.219	10.82
324.431	11.41
324.643	11.29
324.855	12.67
325.067	11.84
325.279	11.11
325.491	12.27
325.702	11.55
325.914	10.34
326.126	10.58
326.338	9.09
326.55	10.22
326.761	8.8
326.973	8.72
327.185	9.07
327.396	10.7
327.608	10.5
327.82	7.76
328.032	9.73
328.243	10.73
328.455	11.25
328.666	12.65
328.878	11.85
329.09	11.7
329.301	11.73
329.513	8.37
329.725	7.47
329.936	8.39
330.148	9.85
330.359	8.78
330.571	11.24
330.782	12.23
330.994	10.42
331.205	9.96
331.417	9.51
331.628	9.39
331.84	10.97
332.051	12.03
332.262	11.82
332.474	11.27
332.685	11.02
332.897	9.14
333.108	7.72
333.319	8.57
333.531	9.64
333.742	10.05
333.953	9.47
334.165	10.13
334.376	9.21
334.587	9.17
334.799	9.81
335.01	10.27
335.221	10.06
335.432	9.94
335.644	10.11
335.855	9.93
336.066	11.6
336.277	12.62
336.488	12.04
336.7	12.76
336.911	12.72
337.122	12.65
337.333	11.45
337.544	12.08
337.755	12.12
337.966	13.15
338.177	12.13
338.388	11.35
338.599	11.44
338.811	12.24
339.022	12.77
339.233	14.69
339.444	14.13
339.655	15.38
339.866	16.09
340.076	16.23
340.287	16.07
340.498	16.65
340.709	16.64
340.92	16.76
341.131	16.32
341.342	15.64
341.553	15.26
341.764	14.34
341.975	14.78
342.185	14.38
342.396	14.77
342.607	14.36
342.818	13.4
343.029	13.82
343.239	13.92
343.45	14.51
343.661	13.27
343.872	13.33
344.082	14.87
344.293	13.85
344.504	12.57
344.714	12.69
344.925	12.89
345.136	13.49
345.346	13.58
345.557	13.55
345.768	13.5
345.978	14.99
346.189	13.9
346.399	13.01
346.61	13.61
346.821	14.81
347.031	15.21
347.242	14.8
347.452	14.44
347.663	13.5
347.873	13.06
348.084	11.55
348.294	11.6
348.504	12.12
348.715	12.67
348.925	12.85
349.136	12.24
349.346	10.46
349.557	10.63
349.767	10.7
349.977	11.24
350.188	12.11
350.398	12.34
350.608	12.41
350.819	13.07
351.029	12.96
351.239	13.33
351.449	14.22
351.66	15.04
351.87	15.47
352.08	16.89
352.29	16.43
352.501	15.85
352.711	17.49
352.921	16.64
353.131	16.76
353.341	16.03
353.552	15.07
353.762	14.39
353.972	15.05
354.182	15.64
354.392	15.21
354.602	15.66
354.812	15.24
355.022	13.82
355.232	14.3
355.442	14.25
355.652	14.61
355.862	14.45
356.072	13.93
356.282	13.39
356.492	13.24
356.702	12.21
356.912	11.31
357.122	12.07
357.332	12.58
357.542	12.18
357.752	10.65
357.962	10.59
358.171	11.01
358.381	10.89
358.591	10.06
358.801	9.49
359.011	9.59
359.221	9.72
359.43	9.63
359.64	8.62
359.85	9
360.06	9.93
360.269	9.46
360.479	9.56
360.689	9.52
360.899	10.16
361.108	9.91
361.318	10.29
361.528	10.31
361.737	9.71
361.947	10.17
362.156	9.73
362.366	9.12
362.576	8.93
362.785	8.23
362.995	8.52
363.204	8.27
363.414	8.2
363.623	7.88
363.833	8.03
364.042	8.09
364.252	8.11
364.461	8.58
364.671	9.25
364.88	9.92
365.09	10.09
365.299	11.18
365.509	11.19
365.718	11.75
365.927	12.29
366.137	11.54
366.346	11.15
366.555	11.56
366.765	11.46
366.974	10.83
367.183	10.83
367.393	10.26
367.602	9.3
367.811	9.2
368.021	8.49
368.23	8.09
368.439	9.02
368.648	9.27
368.857	9.11
369.067	8.25
369.276	8.03
369.485	7.85
369.694	8.82
369.903	8.29
370.112	9.1
370.321	9.31
370.531	9.25
370.74	9.22
370.949	8.44
371.158	7.66
371.367	8.31
371.576	9.07
371.785	8.43
371.994	8.37
372.203	8.76
372.412	8.44
372.621	8.65
372.83	8.5
373.039	8.32
373.248	8.94
373.457	9.22
373.666	9.97
373.874	9.48
374.083	10.5
374.292	10.4
374.501	10.52
374.71	10.37
374.919	9.2
375.128	9.62
375.336	9.41
375.545	9.01
375.754	9.68
375.963	9.21
376.171	9.55
376.38	9.68
376.589	10.04
376.798	10.01
377.006	9.66
377.215	10.43
377.424	10.11
377.632	9.88
377.841	10.66
378.05	9.76
378.258	9.37
378.467	8.9
378.675	8.58
378.884	8.52
379.093	8.64
379.301	9.53
379.51	9.57
379.718	9.21
379.927	9.43
380.135	9.22
380.344	9.33
380.552	9.35
380.761	9.48
380.969	9.24
381.177	9.37
381.386	9.39
381.594	9.42
381.803	9.85
382.011	10.29
382.219	10.56
382.428	10.06
382.636	9.72
382.845	9.66
383.053	10.28
383.261	10.43
383.469	10.18
383.678	9.64
383.886	9.31
384.094	8.45
384.302	8.69
384.511	8.35
384.719	8.46
384.927	8.27
385.135	7.99
385.343	7.75
385.552	8.43
385.76	8.1
385.968	7.83
386.176	7.69
386.384	8.46
386.592	8.28
386.8	8.32
387.008	8.55
387.216	8.69
387.424	8.76
387.633	8.65
387.841	8.2
388.049	8.27
388.257	9.01
388.465	8.88
388.672	8.02
388.88	7.6
389.088	7.71
389.296	7.92
389.504	8.5
389.712	8.14
389.92	7.74
390.128	7.66
390.336	7.49
390.544	7.04
390.751	7.26
390.959	7.39
391.167	7.44
391.375	7.39
391.583	6.85
391.79	6.39
391.998	6.61
392.206	6.59
392.414	6.5
392.621	6.8
392.829	6.46
393.037	5.72
393.244	5.97
393.452	6.17
393.66	6.23
393.867	6.7
394.075	6.85
394.283	7.09
394.49	7.33
394.698	7.53
394.905	7.3
395.113	7.79
395.32	8
395.528	8.09
395.735	8.21
395.943	8.03
396.15	7.92
396.358	7.81
396.565	7.69
396.773	7.58
396.98	7.2
397.188	7.26
397.395	7.3
397.602	7.5
397.81	7.59
398.017	7.48
398.225	7.13
398.432	6.78
398.639	7.07
398.847	7.15
399.054	6.91
399.261	6.94
399.468	7.08
399.676	7.23
399.883	7.09
400.09	6.64
400.297	6.39
400.505	6.8
400.712	6.68
400.919	6.66
401.126	6.73
401.333	7.2
401.54	6.59
401.748	6.72
401.955	6.47
402.162	7.15
402.369	7.25
402.576	7.6
402.783	7.27
402.99	7.32
403.197	7.27
403.404	7.1
403.611	7.15
403.818	7.32
404.025	7.11
404.232	6.83
404.439	6.6
404.646	6.3
404.853	5.88
405.06	5.93
405.267	5.97
405.474	5.98
405.681	6.01
405.887	5.64
406.094	6.22
406.301	6.4
406.508	6.52
406.715	6.42
406.922	7
407.128	7.02
407.335	7.13
407.542	7.49
407.749	7.28
407.955	7.06
408.162	7.02
408.369	6.5
408.575	6.34
408.782	6.57
408.989	6.69
409.195	6.64
409.402	6.5
409.609	6.47
409.815	6
410.022	5.86
410.228	5.9
410.435	6.43
410.642	6.64
410.848	6.51
411.055	6.22
411.261	5.81
411.468	5.73
411.674	6.21
411.881	6.28
412.087	6.59
412.294	6.69
412.5	7.16
412.706	6.61
412.913	6.62
413.119	6.6
413.326	6.6
413.532	7.03
413.738	6.92
413.945	6.91
414.151	6.83
414.357	6.78
414.564	6.87
414.77	6.46
414.976	6.52
415.182	6.44
415.389	6.7
415.595	6.96
415.801	6.79
416.007	6.86
416.214	6.78
416.42	6.9
416.626	6.87
416.832	6.97
417.038	6.9
417.244	7.1
417.45	7.22
417.657	7.14
417.863	7.28
418.069	7.34
418.275	6.97
418.481	7.12
418.687	7.08
418.893	7.07
419.099	6.96
419.305	6.96
419.511	6.76
419.717	6.78
419.923	6.6
420.129	6.45
420.335	6.35
420.541	6.6
420.746	6.51
420.952	6.56
421.158	6.44
421.364	6.35
421.57	6.36
421.776	6.44
421.982	6.26
422.187	6.37
422.393	6.33
422.599	6.26
422.805	6.3
423.01	6.17
423.216	5.97
423.422	6.09
423.628	6.36
423.833	6.55
424.039	6.52
424.245	6.65
424.45	6.56
424.656	6.61
424.862	6.81
425.067	6.65
425.273	6.77
425.478	6.82
425.684	6.63
425.889	6.4
426.095	6.2
426.301	6.39
426.506	6.54
426.712	6.65
426.917	6.58
427.123	6.43
427.328	6.49
427.533	6.37
427.739	6.31
427.944	6.65
428.15	6.71
428.355	6.84
428.561	6.5
428.766	6.14
428.971	5.94
429.177	5.86
429.382	5.59
429.587	5.63
429.793	5.51
429.998	5.71
430.203	5.67
430.408	5.71
430.614	5.72
430.819	5.76
431.024	5.82
431.229	5.88
431.434	5.98
431.64	6.04
431.845	6.12
432.05	6.38
432.255	6.41
432.46	6.45
432.665	6.46
432.87	6.33
433.076	6.22
433.281	6.14
433.486	6.22
433.691	6.16
433.896	6.45
434.101	6.35
434.306	6.33
434.511	6.11
434.716	6.04
434.921	5.97
435.126	6.21
435.331	6.28
435.535	6.48
435.74	6.63
435.945	6.59
436.15	6.37
436.355	6.32
436.56	6.09
436.765	6.26
436.97	6.01
437.174	6.18
437.379	5.97
437.584	6.06
437.789	6.12
437.993	5.88
438.198	5.87
438.403	5.94
438.608	5.95
438.812	6.13
439.017	6.15
439.222	6.39
439.426	6.32
439.631	6.23
439.836	6.27
440.04	6.28
440.245	6.23
440.45	6.31
440.654	6.34
440.859	6.41
441.063	6.28
441.268	6.27
441.472	6.24
441.677	6.05
441.881	6.14
442.086	6.08
442.29	5.99
442.495	6
442.699	6.02
442.904	5.83
443.108	5.75
443.312	5.86
443.517	5.82
443.721	5.83
443.925	6.1
444.13	5.98
444.334	5.96
444.538	6.02
444.743	6.1
444.947	6.06
445.151	6.14
445.356	6.14
445.56	6.23
445.764	6.25
445.968	6.13
446.173	6.04
446.377	6.16
446.581	6.17
446.785	6.11
446.989	6.21
447.193	6.21
447.398	6.31
447.602	6.46
447.806	6.32
448.01	6.27
448.214	6.47
448.418	6.62
448.622	6.56
448.826	6.59
449.03	6.55
449.234	6.44
449.438	6.34
449.642	6.25
449.846	6.07
450.05	6.15
450.254	6.27
450.458	6.01
450.662	6.02
450.866	6.2
451.069	6.35
451.273	6.27
451.477	6.23
451.681	6.37
451.885	6.48
452.089	6.44
452.292	6.33
452.496	6.16
452.7	6.23
452.904	5.92
453.107	5.74
453.311	5.73
453.515	5.89
453.719	5.98
453.922	5.92
454.126	5.83
454.33	5.83
454.533	5.69
454.737	5.75
454.94	5.65
455.144	5.73
455.348	5.82
455.551	5.56
455.755	5.69
455.958	5.62
456.162	5.49
456.365	5.35
456.569	5.51
456.772	5.66
456.976	5.6
457.179	5.64
457.383	5.79
457.586	5.69
457.79	5.79
457.993	5.71
458.196	5.69
458.4	5.78
458.603	5.68
458.807	5.53
459.01	5.61
459.213	5.91
459.417	5.68
459.62	5.65
459.823	5.65
460.026	5.59
460.23	5.53
460.433	5.57
460.636	5.65
460.839	5.74
461.042	5.79
461.246	5.68
461.449	5.51
461.652	5.82
461.855	5.76
462.058	5.69
462.261	5.89
462.464	5.93
462.668	5.86
462.871	5.78
463.074	5.86
463.277	5.89
463.48	6.02
463.683	5.91
463.886	5.86
464.089	6.18
464.292	6.36
464.495	6.28
464.698	6.08
464.901	6.1
465.104	6.12
465.306	5.86
465.509	5.8
465.712	5.69
465.915	5.89
466.118	6
466.321	5.6
466.524	5.49
466.726	5.52
466.929	5.65
467.132	5.87
467.335	5.81
467.538	5.88
467.74	5.76
467.943	5.94
468.146	5.78
468.348	5.53
468.551	5.76
468.754	5.82
468.956	5.4
469.159	5.47
469.362	5.38
469.564	5.53
469.767	5.46
469.969	5.47
470.172	5.64
470.375	5.49
470.577	5.62
470.78	5.47
470.982	5.56
471.185	5.79
471.387	5.7
471.59	5.62
471.792	5.52
471.995	5.67
472.197	5.75
472.399	5.56
472.602	5.65
472.804	5.65
473.007	5.64
473.209	5.73
473.411	5.98
473.614	5.83
473.816	5.93
474.018	6.02
474.22	5.99
474.423	6.02
474.625	5.87
474.827	5.77
475.03	5.91
475.232	5.78
475.434	5.54
475.636	5.53
475.838	5.5
476.04	5.29
476.243	4.98
476.445	5.05
476.647	5.01
476.849	5.09
477.051	5.26
477.253	5.22
477.455	5.46
477.657	5.45
477.859	5.44
478.061	5.56
478.263	5.74
478.465	6
478.667	6.07
478.869	5.86
479.071	5.84
479.273	5.93
479.475	5.75
479.677	5.47
479.879	5.45
480.081	5.4
480.283	5.3
480.485	5.12
480.686	5.03
480.888	5.01
481.09	5.26
481.292	5.42
481.494	5.34
481.695	5.49
481.897	5.49
482.099	5.6
482.301	5.62
482.502	5.69
482.704	5.75
482.906	5.72
483.107	5.7
483.309	5.69
483.511	5.62
483.712	5.63
483.914	5.62
484.115	5.66
484.317	5.61
484.519	5.55
484.72	5.56
484.922	5.52
485.123	5.55
485.325	5.54
485.526	5.52
485.728	5.54
485.929	5.49
486.131	5.47
486.332	5.57
486.534	5.59
486.735	5.68
486.936	5.68
487.138	5.73
487.339	5.66
487.541	5.63
487.742	5.62
487.943	5.64
488.144	5.71
488.346	5.75
488.547	5.73
488.748	5.76
488.95	5.74
489.151	5.71
489.352	5.74
489.553	5.78
489.755	5.83
489.956	5.83
490.157	5.8
490.358	5.76
490.559	5.62
490.76	5.63
490.961	5.62
491.163	5.56
491.364	5.55
491.565	5.54
491.766	5.63
491.967	5.67
492.168	5.76
492.369	5.88
492.57	5.77
492.771	5.91
492.972	5.9
493.173	5.93
493.374	5.99
493.575	5.91
493.776	5.95
493.976	5.88
494.177	5.92
494.378	5.71
494.579	5.42
494.78	5.56
494.981	5.39
495.182	5.46
495.382	5.52
495.583	5.68
495.784	5.84
495.985	5.8
496.185	5.67
496.386	5.81
496.587	6.07
496.788	6.07
496.988	6.17
497.189	6.27
497.39	6.2
497.59	6.33
497.791	6.16
497.992	6.16
498.192	6.12
498.393	6.18
498.593	5.89
498.794	5.85
498.994	5.98
499.195	5.89
499.395	5.93
499.596	5.98
499.796	5.82
499.997	5.95
500.197	6.12
500.398	6.24
500.598	6.41
500.799	6.66
500.999	6.64
501.199	6.56
501.4	6.59
501.6	6.61
501.801	6.62
502.001	6.58
502.201	6.62
502.402	6.5
502.602	6.39
502.802	6.48
503.002	6.37
503.203	6.53
503.403	6.94
503.603	6.95
503.803	6.9
504.003	6.93
504.204	6.96
504.404	6.7
504.604	6.64
504.804	6.68
505.004	6.57
505.204	6.67
505.404	6.56
505.604	6.19
505.804	6.33
506.005	6.18
506.205	6.13
506.405	6.08
506.605	6.29
506.805	6.38
507.005	6.32
507.204	6.23
507.404	6.11
507.604	6.1
507.804	6.27
508.004	6.42
508.204	6.47
508.404	6.63
508.604	6.79
508.804	6.92
509.003	6.89
509.203	7.11
509.403	7.23
509.603	7.37
509.803	7.38
510.002	7.4
510.202	7.24
510.402	7.41
510.602	7.29
510.801	7.29
511.001	7.24
511.201	7.59
511.4	7.42
511.6	7.41
511.8	7.31
511.999	7.42
512.199	7.44
512.398	7.51
512.598	7.59
512.797	7.64
512.997	7.58
513.197	7.56
513.396	7.32
513.596	7.34
513.795	7.32
513.994	7.5
514.194	7.62
514.393	7.81
514.593	7.82
514.792	7.69
514.992	7.82
515.191	7.83
515.39	7.87
515.59	7.97
515.789	8.12
515.988	8.12
516.188	8.01
516.387	8
516.586	7.98
516.786	8.05
516.985	8.16
517.184	8.24
517.383	8.5
517.582	8.59
517.782	8.61
517.981	8.64
518.18	8.84
518.379	9.02
518.578	9.17
518.777	9.16
518.976	9.1
519.176	9.24
519.375	9.19
519.574	9.07
519.773	9.1
519.972	9.14
520.171	9.05
520.37	9.17
520.569	9.15
520.768	8.94
520.967	8.86
521.166	8.98
521.365	9.01
521.564	9.03
521.762	8.93
521.961	9.13
522.16	9.14
522.359	9.44
522.558	9.35
522.757	9.49
522.956	9.64
523.154	9.82
523.353	9.9
523.552	9.91
523.751	10.09
523.949	10.28
524.148	10.27
524.347	10.34
524.546	10.38
524.744	10.28
524.943	10.15
525.142	10.2
525.34	10.1
525.539	10.15
525.737	10.08
525.936	9.99
526.135	10.01
526.333	9.95
526.532	10.09
526.73	10.07
526.929	10.16
527.127	10.27
527.326	10.36
527.524	10.52
527.723	10.53
527.921	10.57
528.12	10.62
528.318	10.67
528.516	10.77
528.715	10.73
528.913	10.75
529.112	10.81
529.31	10.81
529.508	10.81
529.707	10.82
529.905	10.86
530.103	10.89
530.301	10.99
530.5	11.03
530.698	10.95
530.896	11
531.094	11
531.293	11.01
531.491	11.09
531.689	11.09
531.887	10.97
532.085	11.1
532.283	11.21
532.481	11.21
532.68	11.3
532.878	11.44
533.076	11.46
533.274	11.55
533.472	11.65
533.67	11.75
533.868	11.85
534.066	12.04
534.264	11.97
534.462	12.04
534.66	12.08
534.858	12.1
535.056	12.17
535.253	12.25
535.451	12.3
535.649	12.38
535.847	12.38
536.045	12.37
536.243	12.35
536.441	12.53
536.638	12.56
536.836	12.59
537.034	12.65
537.232	12.78
537.43	12.8
537.627	12.93
537.825	12.85
538.023	12.91
538.22	12.98
538.418	13.07
538.616	13.06
538.813	12.97
539.011	13.11
539.209	13.16
539.406	13.07
539.604	13.26
539.801	13.34
539.999	13.53
540.196	13.63
540.394	13.72
540.591	13.82
540.789	13.84
540.986	13.93
541.184	13.94
541.381	13.87
541.579	13.91
541.776	13.89
541.974	13.97
542.171	13.95
542.368	14.01
542.566	14.12
542.763	14.1
542.96	14.11
543.158	14.18
543.355	14.23
543.552	14.42
543.75	14.55
543.947	14.56
544.144	14.58
544.341	14.74
544.539	14.61
544.736	14.65
544.933	14.66
545.13	14.85
545.327	15.04
545.524	15.03
545.722	14.9
545.919	15
546.116	15.11
546.313	15.05
546.51	14.99
546.707	15.17
546.904	15.04
547.101	15.15
547.298	15.12
547.495	14.96
547.692	15.02
547.889	15.17
548.086	15.11
548.283	15.27
548.48	15.42
548.677	15.6
548.874	15.75
549.07	16.07
549.267	16.34
549.464	16.58
549.661	16.86
549.858	16.98
550.055	17.25
550.251	17.28
550.448	17.32
550.645	17.45
550.842	17.41
551.038	17.22
551.235	17.25
551.432	17.15
551.628	17.12
551.825	17.22
552.022	17.54
552.218	17.38
552.415	17.58
552.612	17.47
552.808	17.43
553.005	17.38
553.201	17.52
553.398	17.54
553.594	17.62
553.791	17.84
553.987	17.87
554.184	17.72
554.38	18.16
554.577	18.23
554.773	18.41
554.97	18.48
555.166	18.99
555.362	19.01
555.559	18.88
555.755	18.98
555.952	19.11
556.148	19.01
556.344	18.96
556.541	18.6
556.737	18.62
556.933	18.86
557.129	18.87
557.326	18.76
557.522	18.96
557.718	19.15
557.914	19.22
558.11	19
558.307	19.2
558.503	19.53
558.699	19.87
558.895	20.05
559.091	19.93
559.287	20.02
559.483	20.04
559.679	20.12
559.876	20.13
560.072	20.13
560.268	20.28
560.464	20.35
560.66	20.31
560.856	20.32
561.052	20.39
561.247	20.39
561.443	20.27
561.639	20.27
561.835	20.31
562.031	20.35
562.227	20.47
562.423	20.43
562.619	20.41
562.815	20.3
563.01	20.31
563.206	20.17
563.402	20.75
563.598	21.17
563.793	21.14
563.989	21.2
564.185	21.39
564.381	21.5
564.576	21.45
564.772	21.43
564.968	21.51
565.163	21.53
565.359	21.55
565.555	21.26
565.75	21.31
565.946	21.61
566.141	21.71
566.337	21.72
566.532	21.5
566.728	21.72
566.923	21.8
567.119	22.01
567.314	21.9
567.51	22.06
567.705	22.15
567.901	22.06
568.096	21.79
568.292	21.95
568.487	22
568.682	22.23
568.878	22.26
569.073	22.39
569.268	22.42
569.464	22.63
569.659	22.76
569.854	22.87
570.05	22.97
570.245	23.28
570.44	23.2
570.635	23.18
570.831	23.4
571.026	23.56
571.221	23.68
571.416	23.86
571.611	23.91
571.806	23.88
572.002	23.88
572.197	23.74
572.392	23.77
572.587	23.61
572.782	23.79
572.977	23.78
573.172	23.63
573.367	23.62
573.562	23.53
573.757	23.69
573.952	23.8
574.147	23.81
574.342	24.24
574.537	24.16
574.732	24.47
574.927	24.62
575.121	24.62
575.316	24.71
575.511	24.57
575.706	24.67
575.901	24.48
576.096	24.57
576.29	24.57
576.485	24.51
576.68	24.73
576.875	24.57
577.069	24.49
577.264	24.64
577.459	24.53
577.654	24.72
577.848	24.75
578.043	24.97
578.238	25.11
578.432	25.02
578.627	24.76
578.821	24.81
579.016	24.9
579.21	24.9
579.405	24.97
579.6	25.07
579.794	25.14
579.989	25.08
580.183	25.23
580.378	25.13
580.572	25.48
580.766	25.88
580.961	25.58
581.155	25.63
581.35	25.66
581.544	25.26
581.738	25.49
581.933	25.49
582.127	25.29
582.321	25.06
582.516	25.08
582.71	25.04
582.904	24.96
583.099	25.17
583.293	25.03
583.487	25.06
583.681	25.35
583.875	25.36
584.07	25.38
584.264	25.72
584.458	25.88
584.652	25.56
584.846	25.59
585.04	25.56
585.234	25.51
585.428	25.55
585.623	25.71
585.817	25.72
586.011	25.48
586.205	25.45
586.399	25.27
586.593	25.49
586.787	25.76
586.981	25.54
587.174	25.44
587.368	25.5
587.562	25.87
587.756	25.73
587.95	25.86
588.144	25.93
588.338	25.95
588.532	26.2
588.725	25.87
588.919	25.92
589.113	26.25
589.307	26.64
589.501	26.81
589.694	26.58
589.888	26.86
590.082	26.78
590.275	27.1
590.469	27.08
590.663	26.95
590.856	27.24
591.05	27.55
591.244	27.63
591.437	27.53
591.631	27.52
591.824	27.57
592.018	27.21
592.212	27.36
592.405	27.29
592.599	27.46
592.792	27.47
592.986	27.13
593.179	26.75
593.372	26.57
593.566	26.48
593.759	26.32
593.953	26.46
594.146	26.76
594.339	26.82
594.533	26.8
594.726	26.95
594.92	27.3
595.113	27.54
595.306	27.62
595.499	27.49
595.693	27.38
595.886	27.5
596.079	27.61
596.272	27.51
596.466	27.37
596.659	27.36
596.852	27.26
597.045	27.02
597.238	27.09
597.431	27.28
597.624	27.42
597.818	27.46
598.011	27.63
598.204	27.69
598.397	27.63
598.59	27.52
598.783	27.65
598.976	27.67
599.169	27.72
599.362	27.78
599.555	27.59
599.748	27.6
599.941	27.56
600.134	27.43
600.326	27.46
600.519	27.67
600.712	27.91
600.905	28.04
601.098	27.9
601.291	28.07
601.483	28.05
601.676	28.32
601.869	28.43
602.062	28.69
602.255	28.69
602.447	28.71
602.64	29.06
602.833	29.14
603.025	28.93
603.218	29.02
603.411	29.03
603.603	28.98
603.796	28.98
603.989	29.29
604.181	29.11
604.374	29.05
604.566	29
604.759	28.61
604.951	28.58
605.144	28.75
605.336	28.78
605.529	28.77
605.721	28.79
605.914	28.69
606.106	28.44
606.299	28.74
606.491	28.99
606.683	29.14
606.876	29.18
607.068	29.22
607.26	29.1
607.453	29.2
607.645	29.15
607.837	29.48
608.03	29.55
608.222	29.43
608.414	29.15
608.606	29.05
608.799	28.85
608.991	29
609.183	28.79
609.375	28.72
609.567	28.67
609.759	28.54
609.952	28.11
610.144	27.89
610.336	27.87
610.528	28
610.72	28.09
610.912	27.73
611.104	27.71
611.296	27.79
611.488	27.96
611.68	27.94
611.872	28.04
612.064	28.22
612.256	28.37
612.448	28.42
612.64	28.24
612.832	28.03
613.023	28.72
613.215	28.73
613.407	29.19
613.599	29.23
613.791	29.06
613.983	29.4
614.174	29.58
614.366	29.84
614.558	29.68
614.75	29.94
614.941	29.82
615.133	29.22
615.325	29.22
615.516	28.96
615.708	28.77
615.9	29.43
616.091	29.11
616.283	28.77
616.475	28.49
616.666	28.49
616.858	28.18
617.049	28.53
617.241	28.78
617.432	28.71
617.624	28.7
617.815	28.72
618.007	28.04
618.198	27.9
618.39	28.01
618.581	28.4
618.773	28.79
618.964	28.88
619.155	28.83
619.347	29.04
619.538	29.11
619.729	29.15
619.921	29.05
620.112	29.36
620.303	29.37
620.494	29.31
620.686	28.86
620.877	28.66
621.068	29.15
621.259	29.05
621.451	29.06
621.642	29.31
621.833	29.28
622.024	29.45
622.215	29.71
622.406	30.13
622.597	30.37
622.788	30.28
622.98	30.32
623.171	29.95
623.362	29.84
623.553	29.76
623.744	29.15
623.935	29.15
624.126	29.42
624.317	29.41
624.508	29.34
624.698	29.51
624.889	29.87
625.08	29.86
625.271	29.86
625.462	30.06
625.653	29.98
625.844	30.37
626.034	30.25
626.225	30.07
626.416	30.04
626.607	29.75
626.798	30.13
626.988	30.09
627.179	29.98
627.37	29.94
627.56	29.79
627.751	29.81
627.942	29.8
628.132	29.99
628.323	29.98
628.514	30.08
628.704	30.4
628.895	29.85
629.085	30.3
629.276	30.4
629.466	30.6
629.657	30.55
629.847	30.62
630.038	30.62
630.228	30.53
630.419	30.53
630.609	30.32
630.8	30.1
630.99	30.22
631.181	29.9
631.371	30.08
631.561	30.12
631.752	30.25
631.942	30.16
632.132	30.19
632.323	30.12
632.513	30.36
632.703	30.45
632.893	30.63
633.084	30.57
633.274	30.67
633.464	30.65
633.654	30.96
633.844	30.9
634.034	31.13
634.225	31.17
634.415	31.5
634.605	31.58
634.795	31.96
634.985	31.95
635.175	31.94
635.365	31.51
635.555	31.49
635.745	31.18
635.935	31.04
636.125	31.06
636.315	31.07
636.505	31
636.695	31.25
636.885	30.59
637.075	30.72
637.265	30.58
637.455	31.04
637.644	31.18
637.834	31.5
638.024	32.01
638.214	31.63
638.404	31.66
638.593	31.27
638.783	30.93
638.973	31.16
639.163	31.06
639.352	31.27
639.542	31.45
639.732	31
639.921	30.49
640.111	30.22
640.301	30.53
640.49	30.59
640.68	30.57
640.87	29.78
641.059	29.72
641.249	29.25
641.438	28.84
641.628	28.29
641.817	28.23
642.007	27.93
642.196	28.05
642.386	28.41
642.575	28.54
642.764	28.53
642.954	29.39
643.143	29.49
643.333	29.89
643.522	30.16
643.711	30.22
643.901	30.48
644.09	30.47
644.279	30.75
644.469	30.53
644.658	30.2
644.847	30.7
645.036	30.5
645.226	30.3
645.415	30.55
645.604	30.73
645.793	30.61
645.982	30.63
646.171	30.54
646.361	30.44
646.55	30.49
646.739	30.61
646.928	30.31
647.117	30.1
647.306	30.35
647.495	30.21
647.684	30.5
647.873	30.81
648.062	30.96
648.251	31.91
648.44	31.42
648.629	31.39
648.818	31.58
649.007	31.76
649.196	32
649.384	32.1
649.573	31.84
649.762	31.59
649.951	31.4
650.14	31.33
650.328	30.65
650.517	31.43
650.706	31.32
650.895	31.23
651.083	30.94
651.272	30.81
651.461	30.49
651.65	30.86
651.838	30.85
652.027	31.03
652.216	31.08
652.404	31.83
652.593	31.26
652.781	31.22
652.97	31.2
653.158	31.25
653.347	31.47
653.535	31.66
653.724	31.43
653.912	31.4
654.101	31.51
654.289	31.74
654.478	31.02
654.666	31.45
654.855	31.67
655.043	31.73
655.231	32.17
655.42	32.28
655.608	32
655.796	32.11
655.985	31.65
656.173	31.39
656.361	31.22
656.55	31.71
656.738	31.42
656.926	31.43
657.114	31.61
657.302	31.33
657.491	30.98
657.679	31.27
657.867	31.78
658.055	31.89
658.243	31.97
658.431	32.3
658.619	32.36
658.807	32.36
658.996	32.31
659.184	31.59
659.372	31.65
659.56	31.98
659.748	31.77
659.936	31.12
660.124	31.44
660.311	31.59
660.499	31.46
660.687	31.15
660.875	31.08
661.063	31.34
661.251	32.06
661.439	31.94
661.627	31.83
661.814	31.97
662.002	32.49
662.19	32.56
662.378	32.55
662.565	31.94
662.753	32.1
662.941	32.22
663.129	31.81
663.316	31.75
663.504	31.77
663.692	32.03
663.879	32.08
664.067	31.79
664.254	31.8
664.442	31.45
664.63	31.86
664.817	32.03
665.005	31.78
665.192	31.86
665.38	31.92
665.567	32.44
665.755	32.48
665.942	32.57
666.13	32.68
666.317	32.62
666.504	33.04
666.692	32.85
666.879	32.47
667.067	32.74
667.254	32.82
667.441	32.85
667.629	32.57
667.816	31.86
668.003	31.7
668.19	31.93
668.378	32.05
668.565	31.94
668.752	31.84
668.939	32.09
669.127	32.04
669.314	32.01
669.501	31.57
669.688	31.3
669.875	31.84
670.062	32.39
670.249	31.81
670.436	31.43
670.623	31.36
670.81	31.74
670.997	32.28
671.184	32.46
671.371	32.41
671.558	32.14
671.745	32.26
671.932	32.03
672.119	31.62
672.306	32.01
672.493	32.3
672.68	32.31
672.867	32.34
673.054	31.75
673.24	31.23
673.427	31.31
673.614	32.4
673.801	32.56
673.988	32.66
674.174	32.64
674.361	32.75
674.548	32.35
674.734	32.29
674.921	32.59
675.108	32.8
675.294	32.9
675.481	32.6
675.668	32.2
675.854	32.56
676.041	32.1
676.227	31.64
676.414	31.31
676.601	31.85
676.787	32.49
676.974	31.92
677.16	32.1
677.347	33.23
677.533	33.34
677.719	33.2
677.906	32.5
678.092	32.92
678.279	33.57
678.465	33.8
678.651	33.96
678.838	33.75
679.024	33.83
679.21	33.57
679.397	33.06
679.583	33.07
679.769	33.15
679.955	33.16
680.142	33.28
680.328	33.32
680.514	33.08
680.7	33.08
680.886	32.7
681.073	32.45
681.259	32.3
681.445	32.17
681.631	32.64
681.817	32.95
682.003	33.44
682.189	33.31
682.375	33.48
682.561	33.77
682.747	33.35
682.933	33.17
683.119	33.6
683.305	33.61
683.491	33.63
683.677	33.01
683.863	32.52
684.049	31.67
684.235	31.66
684.42	31.59
684.606	31.73
684.792	31.94
684.978	32.93
685.164	32.77
685.349	33.01
685.535	32.85
685.721	33.46
685.907	33.23
686.092	34.2
686.278	34.42
686.464	33.71
686.649	33.57
686.835	33.69
687.021	32.85
687.206	32.76
687.392	32.67
687.577	33.32
687.763	33.05
687.948	33.63
688.134	33.98
688.319	33.72
688.505	34.16
688.69	33.57
688.876	33.5
689.061	33.41
689.247	33.52
689.432	33.26
689.618	32.71
689.803	32.27
689.988	31.93
690.174	30.85
690.359	30.95
690.544	30.39
690.73	30.11
690.915	30.46
691.1	30.53
691.285	30.67
691.471	30.55
691.656	30.55
691.841	30.7
692.026	30.86
692.211	31.57
692.396	31.1
692.582	30.96
692.767	32.11
692.952	31.49
693.137	31.84
693.322	31.46
693.507	31.45
693.692	31.99
693.877	31.97
694.062	31.77
694.247	31.93
694.432	31.93
694.617	32.61
694.802	33.02
694.987	33.33
695.172	34.03
695.357	34.76
695.541	34.31
695.726	33.96
695.911	34.08
696.096	33.87
696.281	33.79
696.466	34.21
696.65	34.2
696.835	33.66
697.02	33.35
697.204	32.58
697.389	32.35
697.574	32.71
697.759	32.89
697.943	32.76
698.128	32.86
698.312	32.16
698.497	31.93
698.682	31.98
698.866	32.31
699.051	32.32
699.235	32.35
699.42	32.09
699.604	32.02
699.789	31.73
699.973	31.87
700.158	32.06
700.342	32.2
700.527	32.29
700.711	32.13
700.895	31.43
701.08	31.66
701.264	31.52
701.448	31.64
701.633	32.03
701.817	32.33
702.001	32.03
702.186	31.6
702.37	31.73
702.554	31.65
702.738	31.63
702.923	31.42
703.107	31
703.291	31.4
703.475	31.02
703.659	30.78
703.843	30.76
704.027	31.04
704.212	30.46
704.396	30.02
704.58	30.22
704.764	30.23
704.948	31.01
705.132	31.09
705.316	30.5
705.5	31.58
705.684	31.79
705.868	31.81
706.052	32.12
706.235	32.43
706.419	32.61
706.603	32.74
706.787	33.8
706.971	33.47
707.155	33.35
707.339	33.47
707.522	33.09
707.706	33.8
707.89	33.46
708.074	33.22
708.257	33.6
708.441	34.3
708.625	33.94
708.808	33
708.992	32.84
709.176	33.21
709.359	33.46
709.543	32.42
709.727	32.3
709.91	32.03
710.094	32.01
710.277	32.63
710.461	32.06
710.644	32.54
710.828	33.17
711.011	33.53
711.195	33.11
711.378	33.84
711.562	34.96
711.745	34.17
711.928	33.99
712.112	33.69
712.295	32.79
712.478	33.04
712.662	33.21
712.845	32.38
713.028	31.86
713.212	32.36
713.395	30.8
713.578	30.18
713.761	30.12
713.945	31.09
714.128	32.26
714.311	32.95
714.494	33.34
714.677	32.91
714.86	32.94
715.043	33.21
715.227	33.02
715.41	33.88
715.593	35.16
715.776	35.52
715.959	34.75
716.142	34.61
716.325	34.4
716.508	34.27
716.691	34.06
716.874	34.18
717.057	34.41
717.239	35.17
717.422	34.61
717.605	33.74
717.788	33.84
717.971	34.09
718.154	33.67
718.337	33.79
718.519	32.93
718.702	32.77
718.885	32.55
719.068	33.08
719.25	31.17
719.433	32.52
719.616	31.98
719.798	30.53
719.981	30.37
720.164	30.78
720.346	30.79
720.529	32.47
720.712	32.74
720.894	33.3
721.077	32.45
721.259	33.59
721.442	33.04
721.624	33.72
721.807	34.74
721.989	36.03
722.172	35.9
722.354	36.29
722.537	34.47
722.719	35.34
722.901	33.97
723.084	34.93
723.266	34.97
723.448	34.58
723.631	33.81
723.813	34.3
723.995	33.88
724.178	33.63
724.36	33.29
724.542	34.14
724.724	33.71
724.907	36.24
725.089	36.13
725.271	35.4
725.453	35.71
725.635	35.5
725.817	34.62
725.999	33.1
726.181	33.54
726.364	33.47
726.546	33
726.728	33.61
726.91	31.18
727.092	29.63
727.274	29.61
727.456	30.11
727.638	30.11
727.819	31.11
728.001	31.96
728.183	32.28
728.365	32.82
728.547	33.41
728.729	32.01
728.911	33.42
729.093	34.69
729.274	35.03
729.456	35.16
729.638	36.13
729.82	36.54
730.001	36.81
730.183	36.47
730.365	35.54
730.546	35.81
730.728	37.15
730.91	36.53
731.091	37.03
731.273	36.68
731.455	35.42
731.636	35.3
731.818	34.7
731.999	34.73
732.181	34.76
732.362	35.34
732.544	34.26
732.725	34.08
732.907	35.15
733.088	34.5
733.27	34.85
733.451	35.02
733.633	34.93
733.814	35.12
733.995	34.73
734.177	32.96
734.358	33.16
734.539	33.72
734.721	32.88
734.902	31.68
735.083	31.19
735.264	30.54
735.446	30.15
735.627	29.54
735.808	28.48
735.989	27.58
736.17	28.4
736.351	26.6
736.533	27.26
736.714	27.26
736.895	25.99
737.076	25.05
737.257	26.61
737.438	27.12
737.619	28.28
737.8	28.59
737.981	29.25
738.162	29.36
738.343	30.41
738.524	30.68
738.705	31.25
738.886	33.72
739.067	34.12
739.247	33.98
739.428	34.36
739.609	33.72
739.79	34.76
739.971	35.19
740.151	36.74
740.332	35.92
740.513	35.24
740.694	34.97
740.874	34.36
741.055	36.34
741.236	35.42
741.417	35.9
741.597	36.44
741.778	34.6
741.958	33.21
742.139	32.86
742.32	32.6
742.5	32.17
742.681	31.82
742.861	31.35
743.042	29.8
743.222	30.46
743.403	30.17
743.583	28.38
743.764	29.39
743.944	31.27
744.124	32.08
744.305	33.12
744.485	32.98
744.666	34.28
744.846	33.7
745.026	33.28
745.207	32.21
745.387	31.36
745.567	31.97
745.747	33.6
745.928	33.23
746.108	31.27
746.288	31.3
746.468	31.46
746.648	31.12
746.829	31.41
747.009	30.55
747.189	32.79
747.369	32.68
747.549	32.93
747.729	30.96
747.909	30.44
748.089	31.14
748.269	31.66
748.449	32.44
748.629	32.04
748.809	31.82
748.989	33.44
749.169	32.84
749.349	32.6
749.529	32.2
749.709	32.28
749.889	32.36
750.068	32.2
750.248	32.8
750.428	33.04
750.608	32.91
750.788	34.21
750.967	33.92
751.147	33.9
751.327	34.38
751.507	34.17
751.686	33.94
751.866	34.71
752.046	34.72
752.225	32.97
752.405	32.4
752.585	33.62
752.764	33.63
752.944	32.8
753.123	33.28
753.303	34.9
753.482	35.9
753.662	36.77
753.841	36.65
754.021	35.51
754.2	36.93
754.38	36.12
754.559	35.66
754.739	34.24
754.918	34.74
755.097	33.09
755.277	31.38
755.456	30.08
755.635	29.7
755.815	27.99
755.994	27.75
756.173	27.36
756.352	29.58
756.532	28.62
756.711	29.95
756.89	29.73
757.069	31.09
757.248	31.17
757.427	31.65
757.607	32.19
757.786	32.88
757.965	34.26
758.144	35.27
758.323	33.8
758.502	33.4
758.681	33.59
758.86	34.13
759.039	34.01
759.218	33.78
759.397	35.67
759.576	34.82
759.755	35.18
759.934	34.82
760.113	34.6
760.291	34.65
760.47	34.8
760.649	34.81
760.828	35.67
761.007	36.86
761.186	36.84
761.364	35.41
761.543	36.53
761.722	36.16
761.901	36.51
762.079	37.38
762.258	38.29
762.437	39.22
762.615	38.86
762.794	38.47
762.972	38.36
763.151	38.26
763.33	38.12
763.508	37.63
763.687	37.65
763.865	37.46
764.044	35.99
764.222	35.39
764.401	34.13
764.579	33.74
764.758	33.64
764.936	32.82
765.114	33.62
765.293	34.04
765.471	35.28
765.65	35.03
765.828	36.64
766.006	36.79
766.184	35.8
766.363	36.86
766.541	36.27
766.719	37.06
766.898	36.46
767.076	34.28
767.254	34.28
767.432	33.1
767.61	33.55
767.788	31.31
767.967	31.4
768.145	33.12
768.323	31.81
768.501	32.01
768.679	30.61
768.857	31.31
769.035	33.84
769.213	33.56
769.391	32.3
769.569	33.45
769.747	34.82
769.925	35.66
770.103	33.65
770.281	36.6
770.459	36.74
770.636	35.94
770.814	37.05
770.992	34.58
771.17	33.14
771.348	33.55
771.525	31.17
771.703	29.45
771.881	27.34
772.059	27.35
772.236	26.51
772.414	28.39
772.592	31.26
772.769	30.94
772.947	34.48
773.125	35.67
773.302	36.53
773.48	39.05
773.657	37.75
773.835	39.08
774.013	42.07
774.19	41.3
774.368	40.19
774.545	37.67
774.723	36.54
774.9	34.22
775.077	34.54
775.255	35.29
775.432	33.02
775.61	36.25
775.787	36.99
775.964	34.28
776.142	33.58
776.319	34.32
776.496	32.49
776.674	32.88
776.851	33.54
777.028	30.57
777.205	29.28
777.382	30.83
777.56	28.38
777.737	29.59
777.914	30.75
778.091	31.1
778.268	28.69
778.445	31.62
778.622	31.52
778.8	32.5
778.977	34.53
779.154	33.97
779.331	32.25
779.508	35.11
779.685	33.41
779.862	32.44
780.038	31.79
780.215	33.61
780.392	31.41
780.569	32.07
780.746	27.65
780.923	29.24
781.1	31.23
781.277	35.31
781.453	33.53
781.63	33.92
781.807	33.42
781.984	36.01
782.16	34.72
782.337	36.67
782.514	36.76
782.691	39.9
782.867	37.11
783.044	35.8
783.221	31.88
783.397	30.4
783.574	29.46
783.75	29.12
783.927	30.11
784.103	31.32
784.28	32.23
784.456	30.84
784.633	30.46
784.809	36.13
784.986	35.49
785.162	35.51
785.339	36.24
785.515	36.95
785.692	38.23
785.868	33.31
786.044	32.94
786.221	32.17
786.397	31.59
786.573	29.1
786.749	24.47
786.926	27.12
787.102	26.74
787.278	31.36
787.454	30.83
787.631	31.76
787.807	34.48
787.983	34.22
788.159	34.27
788.335	34.47
788.511	35.17
788.687	36.39
788.863	32.73
789.039	34.23
789.216	31.67
789.392	30.6
789.568	31.07
789.744	31.03
789.919	28.88
790.095	27.29
790.271	29.7
790.447	28.09
790.623	26.84
790.799	28.43
790.975	28.95
791.151	27.22
791.327	28.14
791.502	23.9
791.678	25
791.854	28.83
792.03	25.92
792.205	24.4
792.381	27.08
792.557	28.45
792.733	31
792.908	32.08
793.084	33
793.259	32.85
793.435	38.09
793.611	36.11
793.786	34.96
793.962	42.19
794.137	42.28
794.313	42.61
794.488	39.25
794.664	36.61
794.839	36.42
795.015	38.56
795.19	35.24
795.366	33.13
795.541	34.09
795.716	32.16
795.892	30.93
796.067	28.25
796.242	28.93
796.418	30.26
796.593	30.49
796.768	28.01
796.944	26.41
797.119	29.86
797.294	29.78
797.469	26.72
797.644	27.74
797.82	25.56
797.995	26.4
798.17	25.76
798.345	29.36
798.52	29.05
798.695	32.6
798.87	32.91
799.045	32.08
799.22	33.14
799.395	37.57
799.57	38.56
799.745	39.81
799.92	45.65
800.095	45.77
800.27	43.42
800.445	41.27
800.62	37.53
800.795	38.39
800.97	39.63
801.145	37.28
801.319	34.58
801.494	32.62
801.669	34.19
801.844	32.94
802.018	32.31
802.193	32.29
802.368	35.33
802.543	35.97
802.717	34.82
802.892	32.57
803.067	32.03
803.241	29.95
803.416	31.14
803.59	30.18
803.765	25.11
803.94	25.01
804.114	23.62
804.289	25.92
804.463	26.43
804.638	24.85
804.812	22.84
804.986	24.13
805.161	23.29
805.335	22.37
805.51	24.56
805.684	25.76
805.858	24.86
806.033	27.14
806.207	28.57
806.381	28.76
806.556	30.65
806.73	31.1
806.904	30.86
807.078	31.19
807.253	33.53
807.427	31.16
807.601	32.54
807.775	34.96
807.949	33.98
808.123	26.98
808.298	23.99
808.472	22.14
808.646	23.89
808.82	26.24
808.994	29.57
809.168	27.34
809.342	26.77
809.516	25.8
809.69	25.22
809.864	23.87
810.038	26.47
810.212	26.96
810.385	32.34
810.559	32.24
810.733	28.02
810.907	24.08
811.081	21.46
811.255	19.92
811.428	19.25
811.602	14.64
811.776	15.56
811.95	14.12
812.123	11.6
812.297	5.39
812.471	10.49
812.644	16.87
812.818	21.84
812.992	25.43
813.165	30.75
813.339	32.91
813.512	39.45
813.686	38.15
813.86	40.89
814.033	46.72
814.207	51.29
814.38	50.61
814.554	46.56
814.727	44.64
814.9	45.27
815.074	37.51
815.247	34.13
815.421	29.59
815.594	30.79
815.767	29.27
815.941	24.19
816.114	17.32
816.287	18.22
816.46	21.6
816.634	21.93
816.807	15.81
816.98	20.93
817.153	25.46
817.327	24.95
817.5	27.05
817.673	26.87
817.846	25.63
818.019	29.42
818.192	29.4
818.365	23.51
818.538	23.87
818.711	28.29
818.884	25.74
819.057	22.29
819.23	26.6
819.403	24.23
819.576	26.79
819.749	32.91
819.922	34.35
820.095	31.76
820.268	33.14
820.441	34.66
820.614	36.4
820.786	37.19
820.959	38.57
821.132	37.15
821.305	36.39
821.477	36.88
821.65	36.75
821.823	35.94
821.996	36.12
822.168	36.86
822.341	36.45
822.514	37.2
822.686	37.34
822.859	36.31
823.031	36.99
823.204	37.74
823.376	37.57
823.549	37.26
823.722	37.71
823.894	38.87
824.067	38.93
824.239	38.49
824.411	36.85
824.584	37.34
824.756	37.65
824.929	36.88
825.101	37.46
825.273	36.55
825.446	36.43
825.618	35.99
825.79	36.27
825.963	35.92
826.135	36.42
826.307	37.97
826.479	36.56
826.652	37.89
826.824	38.01
826.996	37.63
827.168	36.54
827.34	36.11
827.512	37.43
827.684	35.71
827.856	35.61
828.029	35.96
828.201	33.09
828.373	32.8
828.545	32.81
828.717	33.27
828.889	32.56
829.061	32.63
829.232	32.65
829.404	30.83
829.576	29.66
829.748	29.91
829.92	29.45
830.092	33.03
830.264	34.53
830.436	35.5
830.607	37.18
830.779	35.89
830.951	35.89
831.123	35.96
831.294	37.28
831.466	37.1
831.638	35.37
831.809	35.62
831.981	35.46
832.153	34.18
832.324	29.82
832.496	28.2
832.667	26.92
832.839	31.78
833.011	32.51
833.182	27.84
833.354	26.03
833.525	29.18
833.697	29.04
833.868	28.25
834.039	31.62
834.211	32.43
834.382	30.82
834.554	31.87
834.725	31.1
834.896	29.41
835.068	29.48
835.239	30.75
835.41	26.21
835.581	22.22
835.753	22.05
835.924	21.59
836.095	21.12
836.266	23.28
836.438	24.96
836.609	26.09
836.78	31.86
836.951	36
837.122	38.29
837.293	40
837.464	47.07
837.635	49.2
837.806	47.23
837.977	47.76
838.148	42.45
838.319	41.55
838.49	38.35
838.661	32.48
838.832	32.1
839.003	24.48
839.174	25.77
839.345	24.35
839.516	25.89
839.687	23.66
839.857	30.13
840.028	33.31
840.199	30.3
840.37	32.98
840.54	33.35
840.711	28.28
840.882	35.46
841.053	34.21
841.223	27.28
841.394	28.26
841.564	32.27
841.735	28.32
841.906	29.27
842.076	28.69
842.247	29.32
842.417	28.64
842.588	32.04
842.758	26.01
842.929	24.22
843.099	31.23
843.27	28.49
843.44	25.52
843.611	17.41
843.781	18.2
843.951	17.85
844.122	13.09
844.292	17.01
844.462	15.23
844.633	14.88
844.803	17.57
844.973	8.85
845.144	7.55
845.314	19.48
845.484	25.15
845.654	23.58
845.824	25.52
845.995	29.09
846.165	18.23
846.335	13.55
846.505	8.93
846.675	10.71
846.845	17.01
847.015	13.55
847.185	-18.68
847.355	-14.32
847.525	-16.67
847.695	-22.46
847.865	-9.92
848.035	-4.49
848.205	10.46
848.375	24
848.545	15.66
848.715	12.78
848.884	15.7
849.054	14.47
849.224	28.94
849.394	26.92
849.564	22.93
849.733	15.06
849.903	20.12
850.073	13.39
850.243	13.76
850.412	18.46
850.582	34.06
850.752	42.04
850.921	51.51
851.091	34.96
851.26	41.83
851.43	56
851.599	56.3
851.769	50.57
851.939	59.06
852.108	61.24
852.278	61.45
852.447	52.1
852.616	42.42
852.786	47.51
852.955	52.35
853.125	45.16
853.294	38.62
853.463	45.29
853.633	60.4
853.802	48.1
853.971	47.54
854.141	47.52
854.31	53.7
854.479	58.26
854.648	58.12
854.818	69.21
854.987	82.06
855.156	93.48
855.325	82.09
855.494	53.15
855.663	39.64
855.832	28.21
856.001	33.68
856.171	20.92
856.34	18.55
856.509	-5.26
856.678	-18.28
856.847	-18.52
857.016	-25.15
857.185	-25.8
857.353	-4.81
857.522	-0.05
857.691	-5.42
857.86	2.39
858.029	11.51
858.198	5.06
858.367	34.67
858.535	31.45
858.704	30.34
858.873	29.55
859.042	26.29
859.21	20.19
859.379	34.66
859.548	41.72
859.717	36.8
859.885	40.69
860.054	44.78
860.222	36
860.391	22.72
860.56	22.05
860.728	23.84
860.897	39.45
861.065	40.44
861.234	30.65
861.402	36.48
861.571	42.89
861.739	37.93
861.908	42.89
862.076	38.62
862.244	49.62
862.413	48.78
862.581	65.51
862.749	46.92
862.918	47.6
863.086	42.39
863.254	-15.29
863.423	-26.26
863.591	-22.64
863.759	-15.95
863.927	4.5
864.096	-7.88
864.264	-9.38
864.432	-29.29
864.6	-39.33
864.768	-43.72
864.936	-17.75
865.104	-0.66
865.272	-17.05
865.44	-15.53
865.608	-37.42
865.776	-53.39
865.944	-32
866.112	-14.01
866.28	-10.47
866.448	-23.94
866.616	-28.96
866.784	-9.88
866.952	-11.62
867.12	10.8
867.288	15.26
867.455	7.73
867.623	30.08
867.791	42.37
867.959	25.69
868.127	24.72
868.294	43.66
868.462	36.39
868.63	35.01
868.797	43
868.965	31.27
869.133	40.01
869.3	55.89
869.468	48.02
869.636	52.23
869.803	55.93
869.971	55.84
870.138	49.59
870.306	68.85
870.473	64.9
870.641	64.7
870.808	61.18
870.975	23.36
871.143	9.71
871.31	7.77
871.478	5.4
871.645	14.88
871.812	33.47
871.98	45.68
872.147	43.35
872.314	39.07
872.482	31.43
872.649	41.93
872.816	50.24
872.983	54.27
873.15	49.28
873.318	47.14
873.485	58.55
873.652	46.33
873.819	6.56
873.986	8.47
874.153	4.64
874.32	25.13
874.487	25.19
874.654	22.5
874.821	14.18
874.988	22.35
875.155	15.32
875.322	5.6
875.489	-0.7
875.656	6.38
875.823	5.59
875.99	11.06
876.157	-3.15
876.324	-2.47
876.49	-6.03
876.657	-7.63
876.824	-12.6
876.991	-4.22
877.157	-19.07
877.324	-3.39
877.491	-18.56
877.658	-32.81
877.824	-37.73
877.991	-30.54
878.157	-58.24
878.324	-39.92
878.491	-23.2
878.657	-12.81
878.824	-17.96
878.99	-10.3
879.157	-12.82
879.323	-4.1
879.49	-2.43
879.656	-9.26
879.823	-31.65
879.989	-16.36
880.156	-34.92
880.322	-36.57
880.488	-37.41
880.655	-23.96
880.821	-36.93
880.987	-39.68
881.154	-39.85
881.32	-30.41
881.486	-23.85
881.652	-0.6
881.819	-0.46
881.985	10.12
882.151	14.58
882.317	21
882.483	24.26
882.649	30.06
882.816	31.21
882.982	33.86
883.148	33.78
883.314	34.29
883.48	34
883.646	32.16
883.812	32.84
883.978	33.48
884.144	33.05
884.31	35.21
884.476	34.73
884.642	35.51
884.807	34.35
884.973	32.55
885.139	31.16
885.305	32.22
885.471	35.44
885.637	36.6
885.802	40.08
885.968	37.93
886.134	31.59
886.3	35.43
886.465	39.02
886.631	38.79
886.797	40.53
886.962	49.49
887.128	46.21
887.293	44.84
887.459	38.22
887.625	29.36
887.79	29.05
887.956	32.53
888.121	22.86
888.287	8.54
888.452	8.58
888.618	13.26
888.783	-15.57
