Data from 2937855_Reflection_2.txt Node
Date: Wed Jul 15 15:43:31 EDT 2015
User: robert
Spectrometer: USB4E03001
Autoset integration time: false
Trigger mode: 4
Integration Time (sec): 1.000000E-1
Scans to average: 10
Electric dark correction enabled: true
Nonlinearity correction enabled: false
Boxcar width: 5
Stray light correction enabled: false
XAxis mode: Wavelengths
Stop averaging: false
Number of Pixels in Spectrum: 3648
>>>>>Begin Spectral Data<<<<<
177.566	-220.57
177.785	-484.76
178.005	59.01
178.225	54.11
178.445	143.04
178.665	266.47
178.885	-9.98
179.105	-61.42
179.324	-18.11
179.544	-171.25
179.764	-923.13
179.984	273.79
180.204	130.2
180.423	36.39
180.643	84.16
180.863	69.83
181.083	60.88
181.302	20.85
181.522	29.41
181.742	28.75
181.961	52.82
182.181	32.97
182.401	37.46
182.621	38.59
182.84	30.02
183.06	-1.71
183.279	19.33
183.499	35.18
183.719	34.66
183.938	13.33
184.158	18.08
184.377	-46.4
184.597	-378.43
184.816	-123.95
185.036	-97.7
185.256	-109.85
185.475	-38.15
185.695	4.87
185.914	67.2
186.134	115.6
186.353	157.73
186.572	546.3
186.792	261.65
187.011	238.52
187.231	177.05
187.45	282.94
187.67	341.81
187.889	344.76
188.108	444.25
188.328	218.19
188.547	292.92
188.766	26981.82
188.986	624.39
189.205	248.17
189.424	155.49
189.644	159.14
189.863	186.66
190.082	140.63
190.302	99.95
190.521	26.03
190.74	90.7
190.959	61.8
191.178	12.69
191.398	36.7
191.617	37.49
191.836	-39.89
192.055	171.73
192.274	241.44
192.494	95.14
192.713	159.1
192.932	114.63
193.151	23.36
193.37	-55.61
193.589	-7.46
193.808	-5.08
194.027	-16.53
194.246	-21.1
194.465	7.86
194.685	-9.02
194.904	-68.1
195.123	-86.88
195.342	209.59
195.561	96.49
195.78	-7.8
195.999	-7.33
196.218	51.09
196.436	54.59
196.655	870.59
196.874	87.52
197.093	293.64
197.312	102.23
197.531	243.52
197.75	123.7
197.969	30.25
198.188	8.6
198.407	80.76
198.625	50.42
198.844	44.64
199.063	32.65
199.282	34.73
199.501	-32.71
199.719	-33.07
199.938	-24.31
200.157	-25.82
200.376	21.21
200.594	54.37
200.813	59.3
201.032	9.78
201.251	72.05
201.469	1293.24
201.688	122.21
201.907	143.74
202.125	78.48
202.344	103.67
202.563	39.23
202.781	47.48
203	123.25
203.218	186.94
203.437	2070.51
203.656	1362.92
203.874	137.94
204.093	117.72
204.311	113.31
204.53	217.86
204.748	183.86
204.967	145.3
205.185	128.39
205.404	106.12
205.622	99.99
205.841	90.59
206.059	85.13
206.278	61.12
206.496	80.92
206.715	108.39
206.933	224.49
207.151	239.28
207.37	-29.04
207.588	-19.78
207.806	59.86
208.025	119.3
208.243	88.33
208.461	116.61
208.68	-4.59
208.898	306.01
209.116	111.87
209.335	-256.01
209.553	12.11
209.771	22.96
209.989	67.16
210.208	118.73
210.426	-1243.28
210.644	-99.63
210.862	-55.69
211.081	-136.88
211.299	-635.62
211.517	-318.82
211.735	-111.34
211.953	-6.12
212.171	-28.56
212.39	-36.78
212.608	-111.26
212.826	-101.88
213.044	-265.68
213.262	1706.92
213.48	-223.08
213.698	-386.13
213.916	-1093.52
214.134	-282.65
214.352	-3412.4
214.57	603.99
214.788	603.58
215.006	762.7
215.224	-1741.71
215.442	226.51
215.66	135.35
215.878	147.44
216.096	195.99
216.314	-1857.97
216.532	208.81
216.75	73.39
216.968	107.22
217.185	87.07
217.403	111.48
217.621	70.93
217.839	51.46
218.057	52.75
218.275	16.31
218.492	22.96
218.71	29.08
218.928	32.91
219.146	50.73
219.363	-31.83
219.581	-107.38
219.799	-234.31
220.017	5395.65
220.234	193.43
220.452	126.96
220.67	249.09
220.887	319.54
221.105	682.84
221.323	155.07
221.54	-151.58
221.758	-21.61
221.976	80.35
222.193	111.19
222.411	151.09
222.629	119.84
222.846	115.11
223.064	106.58
223.281	99.24
223.499	68.77
223.716	56.61
223.934	55.54
224.151	71.86
224.369	16.21
224.586	3.89
224.804	-40.16
225.021	-103.49
225.239	-811.09
225.456	299.35
225.674	-872.61
225.891	258.25
226.108	560.48
226.326	-57.31
226.543	-6.73
226.76	-12.1
226.978	-20.45
227.195	6.48
227.413	15.46
227.63	12.85
227.847	4.03
228.064	3.53
228.282	6.46
228.499	7.89
228.716	1.55
228.934	-0.3
229.151	3.33
229.368	8.82
229.585	7.09
229.802	4.76
230.02	6.43
230.237	4.62
230.454	5
230.671	9.37
230.888	11.02
231.105	13.38
231.323	12.95
231.54	14.61
231.757	11.35
231.974	12.22
232.191	13.39
232.408	13.99
232.625	20.62
232.842	22.88
233.059	24.05
233.276	26.42
233.493	29.89
233.71	34
233.927	32.94
234.144	34.98
234.361	34.06
234.578	35.03
234.795	30.48
235.012	29.5
235.229	28.47
235.446	25.37
235.663	26
235.879	26.96
236.096	22.11
236.313	22.24
236.53	22.44
236.747	20.43
236.964	16.16
237.181	17.01
237.397	9.75
237.614	9.21
237.831	15.37
238.048	12.49
238.264	9.32
238.481	11.99
238.698	14.93
238.915	16.47
239.131	15.24
239.348	16.54
239.565	19.79
239.781	21.37
239.998	20.73
240.215	16.56
240.431	16.54
240.648	16.7
240.865	16.39
241.081	14.12
241.298	11.57
241.514	13.48
241.731	13.2
241.947	11.79
242.164	11.35
242.38	11.67
242.597	14.99
242.814	14.03
243.03	12.2
243.246	12.62
243.463	12.77
243.679	14.26
243.896	13.77
244.112	15.96
244.329	17.85
244.545	20.65
244.762	20.17
244.978	17.03
245.194	16.41
245.411	17.99
245.627	17.66
245.843	17.79
246.06	16.98
246.276	17.12
246.492	17.53
246.709	17.69
246.925	15.58
247.141	15.71
247.357	15.72
247.574	15.95
247.79	16.02
248.006	15.28
248.222	14.39
248.439	13.78
248.655	13.38
248.871	11.21
249.087	10.98
249.303	10.76
249.519	11.06
249.736	11.84
249.952	10.63
250.168	10.86
250.384	10.43
250.6	12.98
250.816	15.88
251.032	15.12
251.248	15.84
251.464	15.32
251.68	17.61
251.896	16.41
252.112	14.95
252.328	18.24
252.544	16.7
252.76	18.25
252.976	16.45
253.192	16.06
253.408	18.39
253.624	19.12
253.84	15.36
254.056	12.18
254.272	12.6
254.487	11.55
254.703	9.87
254.919	8.27
255.135	7.52
255.351	6.91
255.567	3.88
255.782	1.33
255.998	0.56
256.214	3.44
256.43	6.12
256.646	7.35
256.861	9.87
257.077	11.55
257.293	13.48
257.508	14.71
257.724	14.08
257.94	14.3
258.155	13.88
258.371	11.96
258.587	11.76
258.802	11.24
259.018	10.9
259.234	10.72
259.449	10.2
259.665	10.86
259.88	11.3
260.096	12.1
260.312	11.02
260.527	10.54
260.743	11.23
260.958	11.43
261.174	11.78
261.389	10.16
261.605	10.03
261.82	9.46
262.036	9.1
262.251	7.89
262.466	5.61
262.682	7.31
262.897	6.42
263.113	5.58
263.328	6.43
263.543	5.87
263.759	7.67
263.974	7.15
264.189	7.88
264.405	6.17
264.62	4.45
264.835	6.26
265.051	5.88
265.266	8.37
265.481	11.41
265.696	10.24
265.912	11.12
266.127	11.58
266.342	9.18
266.557	10.17
266.773	11.18
266.988	10.99
267.203	9.97
267.418	9.38
267.633	8.62
267.848	7.34
268.064	7.33
268.279	8.74
268.494	10.07
268.709	11.67
268.924	10.1
269.139	10.57
269.354	11.27
269.569	13.67
269.784	14.29
269.999	15.44
270.214	15.06
270.429	15.79
270.644	14.44
270.859	13.28
271.074	13.95
271.289	14.26
271.504	13.17
271.719	13.18
271.934	12.22
272.149	12.05
272.363	10.95
272.578	11.67
272.793	10.47
273.008	11.02
273.223	11.46
273.438	10.9
273.653	10.25
273.867	10.51
274.082	11.17
274.297	12.01
274.512	12.79
274.726	13.43
274.941	10.94
275.156	11.9
275.371	11.7
275.585	13
275.8	15.18
276.015	16.15
276.229	15.02
276.444	14.34
276.659	14.6
276.873	14.26
277.088	13.23
277.302	15.14
277.517	13.54
277.732	13.06
277.946	12.2
278.161	11.61
278.375	11
278.59	13.25
278.804	13.96
279.019	11.04
279.233	10.65
279.448	12.98
279.662	13.29
279.877	16.72
280.091	15.95
280.306	15.38
280.52	13.27
280.735	13.97
280.949	12.16
281.163	11.53
281.378	12.18
281.592	11.49
281.806	10.39
282.021	10.18
282.235	8.13
282.449	8.09
282.664	7.7
282.878	8.45
283.092	9.22
283.307	10.89
283.521	10.72
283.735	10.93
283.949	10.81
284.164	11.71
284.378	11.97
284.592	12.72
284.806	12.34
285.02	12.68
285.234	11.97
285.449	10.85
285.663	10.83
285.877	11.39
286.091	11.32
286.305	12.74
286.519	11.73
286.733	12.19
286.947	12.42
287.161	13
287.375	13.35
287.589	13.24
287.803	13.74
288.017	13.31
288.231	12.68
288.445	14.17
288.659	12.64
288.873	14.29
289.087	13.36
289.301	12.51
289.515	12.93
289.729	11.97
289.943	11.91
290.157	11.54
290.371	12.29
290.584	13.69
290.798	12.85
291.012	14.44
291.226	13.43
291.44	14.5
291.654	14.29
291.867	13.75
292.081	14.78
292.295	15.95
292.509	16.84
292.722	16.98
292.936	16.46
293.15	15.91
293.364	14.73
293.577	14.44
293.791	15.07
294.005	16.68
294.218	16.15
294.432	17.35
294.645	18.52
294.859	16.86
295.073	15.81
295.286	15.53
295.5	15.74
295.713	16.93
295.927	17.24
296.14	16.37
296.354	15.06
296.568	15.47
296.781	14.3
296.994	12.77
297.208	13.47
297.421	13.48
297.635	13.17
297.848	13.11
298.062	12.51
298.275	12.38
298.489	11.89
298.702	12.37
298.915	12.68
299.129	12.15
299.342	11.59
299.555	11.53
299.769	11.72
299.982	12.45
300.195	12.48
300.409	11.17
300.622	11.3
300.835	11.11
301.048	11.68
301.262	12.79
301.475	13.38
301.688	14.87
301.901	16.27
302.115	16.2
302.328	16.29
302.541	17.32
302.754	18.66
302.967	19.7
303.18	20
303.393	18.71
303.607	17.46
303.82	18.71
304.033	18.66
304.246	18.3
304.459	19.33
304.672	17.81
304.885	16.8
305.098	15.52
305.311	15.16
305.524	15.04
305.737	14.71
305.95	14.12
306.163	12.65
306.376	12.68
306.589	13.12
306.802	12.06
307.015	14.56
307.228	16.3
307.44	17.16
307.653	16.28
307.866	17.94
308.079	18.62
308.292	19.95
308.505	20.56
308.718	20.1
308.93	19.21
309.143	18.81
309.356	18.49
309.569	17.63
309.781	18.22
309.994	17.78
310.207	17.17
310.42	17.73
310.632	16.81
310.845	15.5
311.058	16.37
311.27	16.14
311.483	18.35
311.696	18.32
311.908	18.92
312.121	18.83
312.333	19.22
312.546	19.06
312.759	18.73
312.971	18.9
313.184	19.66
313.396	18.87
313.609	18.14
313.821	16.7
314.034	15.32
314.246	14.24
314.459	14.66
314.671	14.25
314.884	12.03
315.096	12.43
315.309	11.98
315.521	11.7
315.733	12.13
315.946	13.5
316.158	13.24
316.371	13.03
316.583	13.04
316.795	12.24
317.008	12.63
317.22	13.91
317.432	14.24
317.644	13.29
317.857	14.12
318.069	13.76
318.281	13.52
318.494	14.15
318.706	15.56
318.918	13.23
319.13	13.1
319.342	14.09
319.555	13.45
319.767	13.41
319.979	16.34
320.191	15.44
320.403	14.94
320.615	15.01
320.827	13.13
321.039	13.33
321.252	15.04
321.464	15.87
321.676	15.66
321.888	16.5
322.1	15.08
322.312	13.6
322.524	12.76
322.736	13.01
322.948	13.23
323.16	12.66
323.372	12.07
323.584	13.28
323.796	13.26
324.007	12.31
324.219	13.21
324.431	13.74
324.643	14.7
324.855	15
325.067	14.93
325.279	14.44
325.491	14.61
325.702	14.79
325.914	14.41
326.126	13.5
326.338	15.45
326.55	14.03
326.761	12.95
326.973	12.67
327.185	12.2
327.396	12.66
327.608	12.22
327.82	13.09
328.032	12.55
328.243	12.28
328.455	11.79
328.666	10.18
328.878	11.25
329.09	12.69
329.301	12.13
329.513	13.37
329.725	12.66
329.936	12.81
330.148	13.1
330.359	11.25
330.571	10.43
330.782	11.85
330.994	11.31
331.205	11.77
331.417	11.63
331.628	12.11
331.84	12.67
332.051	13
332.262	13.99
332.474	14.24
332.685	17.65
332.897	18.98
333.108	18.54
333.319	17.88
333.531	17.34
333.742	18.56
333.953	18.25
334.165	17.43
334.376	17.35
334.587	16.54
334.799	16.45
335.01	16.19
335.221	15.69
335.432	15.87
335.644	16.15
335.855	15.31
336.066	15.61
336.277	15.85
336.488	16.87
336.7	17.15
336.911	17.79
337.122	16.63
337.333	15.69
337.544	16.29
337.755	16.45
337.966	15.85
338.177	16.61
338.388	14.8
338.599	15.84
338.811	13.16
339.022	13.42
339.233	12.86
339.444	13.39
339.655	13.8
339.866	12.29
340.076	12.17
340.287	13.38
340.498	13.26
340.709	13.9
340.92	12.56
341.131	14.41
341.342	12.25
341.553	12.27
341.764	11.86
341.975	12.53
342.185	13.37
342.396	13.03
342.607	12.31
342.818	12.71
343.029	12.61
343.239	12.33
343.45	12.66
343.661	13.84
343.872	14.53
344.082	14.97
344.293	14.4
344.504	14.05
344.714	13.64
344.925	13.97
345.136	12.96
345.346	12.47
345.557	13.42
345.768	13.26
345.978	13.47
346.189	12.94
346.399	13.87
346.61	12.6
346.821	12.96
347.031	12.23
347.242	13.25
347.452	13.41
347.663	14
347.873	14.06
348.084	14.47
348.294	14.84
348.504	14.61
348.715	12.96
348.925	12.86
349.136	13.27
349.346	13.78
349.557	12.29
349.767	13.07
349.977	13.49
350.188	13.16
350.398	13.5
350.608	13.5
350.819	12.64
351.029	13.67
351.239	14.21
351.449	13.28
351.66	14.13
351.87	13.91
352.08	14.34
352.29	13.89
352.501	13.02
352.711	12.04
352.921	11.12
353.131	12.21
353.341	11.77
353.552	12.31
353.762	11.51
353.972	10.78
354.182	11.12
354.392	10.19
354.602	10.25
354.812	10.09
355.022	10.3
355.232	10.8
355.442	10.61
355.652	10.01
355.862	9.25
356.072	10.08
356.282	10.94
356.492	11.88
356.702	11.59
356.912	11.54
357.122	12.86
357.332	13.17
357.542	13.62
357.752	13.66
357.962	13.56
358.171	14.14
358.381	14.17
358.591	14.01
358.801	13.78
359.011	13.73
359.221	13.78
359.43	13.22
359.64	13.35
359.85	12.89
360.06	12.42
360.269	12.99
360.479	12.3
360.689	12.55
360.899	12.16
361.108	11.88
361.318	12.13
361.528	12.19
361.737	11.82
361.947	11.73
362.156	10.85
362.366	10.14
362.576	10.35
362.785	10.86
362.995	10.16
363.204	10.22
363.414	9.75
363.623	9.81
363.833	9.7
364.042	9.81
364.252	9.66
364.461	10.84
364.671	12.33
364.88	12.05
365.09	11.92
365.299	12.77
365.509	13.29
365.718	14.38
365.927	13.7
366.137	13.56
366.346	13.57
366.555	12.67
366.765	12.07
366.974	12.11
367.183	11.78
367.393	11.6
367.602	10.51
367.811	9.8
368.021	8.58
368.23	9.12
368.439	8.9
368.648	9.07
368.857	9.56
369.067	9.49
369.276	8.79
369.485	9.14
369.694	8.02
369.903	8.46
370.112	8.1
370.321	8.58
370.531	8.73
370.74	8.17
370.949	7.77
371.158	8.31
371.367	9.06
371.576	9.28
371.785	8.45
371.994	10.08
372.203	10.65
372.412	11.41
372.621	11.67
372.83	11.53
373.039	11.33
373.248	11.37
373.457	10.37
373.666	9.48
373.874	8.82
374.083	9.1
374.292	8.81
374.501	8.88
374.71	8.1
374.919	7.81
375.128	8.03
375.336	8.32
375.545	8.81
375.754	8.95
375.963	9.69
376.171	9.9
376.38	10.42
376.589	10.47
376.798	10.01
377.006	10.27
377.215	10.41
377.424	10.37
377.632	10.72
377.841	10.1
378.05	10.12
378.258	9.38
378.467	9.98
378.675	9.33
378.884	9.34
379.093	8.69
379.301	8.52
379.51	8.46
379.718	8.39
379.927	7.93
380.135	7.66
380.344	8.09
380.552	8.27
380.761	7.9
380.969	8.2
381.177	7.13
381.386	7.95
381.594	8.02
381.803	7.93
382.011	7.42
382.219	7.62
382.428	7.51
382.636	7.54
382.845	7.42
383.053	7.4
383.261	7.35
383.469	8.02
383.678	7.95
383.886	7.81
384.094	7.72
384.302	7.48
384.511	7.62
384.719	7.91
384.927	8.05
385.135	8.41
385.343	8.23
385.552	8.19
385.76	8.02
385.968	8.02
386.176	7.9
386.384	8.02
386.592	8.52
386.8	8.25
387.008	8.62
387.216	8.21
387.424	7.99
387.633	7.91
387.841	7.69
388.049	7.69
388.257	7.29
388.465	7.25
388.672	6.91
388.88	7.04
389.088	7.21
389.296	6.99
389.504	6.86
389.712	6.98
389.92	6.42
390.128	6.58
390.336	6.66
390.544	7.34
390.751	7.54
390.959	7.68
391.167	7.73
391.375	7.56
391.583	6.97
391.79	7.01
391.998	7.05
392.206	7.47
392.414	7.15
392.621	7.04
392.829	6.31
393.037	6.34
393.244	6.17
393.452	6.15
393.66	6.04
393.867	6.49
394.075	6.42
394.283	6.14
394.49	6.34
394.698	6.79
394.905	6.83
395.113	7.26
395.32	7.06
395.528	7.17
395.735	6.86
395.943	6.9
396.15	6.83
396.358	6.94
396.565	6.87
396.773	6.85
396.98	6.6
397.188	6.49
397.395	6.23
397.602	6.35
397.81	6.23
398.017	6.25
398.225	6.24
398.432	6.21
398.639	5.93
398.847	6.05
399.054	5.82
399.261	5.93
399.468	6.06
399.676	6.1
399.883	6.27
400.09	6.27
400.297	6.23
400.505	6.48
400.712	6.44
400.919	7.14
401.126	7.33
401.333	7.37
401.54	7.41
401.748	7.12
401.955	7.34
402.162	7.19
402.369	7.23
402.576	7.28
402.783	6.95
402.99	6.93
403.197	6.35
403.404	6.32
403.611	6.06
403.818	5.95
404.025	5.83
404.232	5.63
404.439	5.72
404.646	5.61
404.853	5.71
405.06	5.66
405.267	5.79
405.474	5.81
405.681	5.57
405.887	6.03
406.094	5.87
406.301	6.17
406.508	6.16
406.715	5.9
406.922	5.93
407.128	5.94
407.335	5.83
407.542	5.81
407.749	5.88
407.955	5.93
408.162	5.71
408.369	5.78
408.575	5.58
408.782	5.69
408.989	5.77
409.195	5.81
409.402	5.71
409.609	5.92
409.815	5.87
410.022	5.96
410.228	6.4
410.435	6.27
410.642	6.52
410.848	6.82
411.055	7.02
411.261	7.11
411.468	6.81
411.674	6.55
411.881	6.67
412.087	6.59
412.294	6.63
412.5	6.33
412.706	6.47
412.913	6.59
413.119	6.55
413.326	6.64
413.532	6.58
413.738	6.97
413.945	7.39
414.151	7.39
414.357	7.49
414.564	7.14
414.77	6.98
414.976	7.21
415.182	6.63
415.389	6.57
415.595	6.14
415.801	6.19
416.007	6.43
416.214	6.27
416.42	6
416.626	6.02
416.832	6.32
417.038	6.46
417.244	6.18
417.45	6.61
417.657	6.47
417.863	6.32
418.069	6.32
418.275	5.82
418.481	5.8
418.687	6.09
418.893	5.95
419.099	5.88
419.305	5.81
419.511	5.82
419.717	5.59
419.923	5.6
420.129	5.71
420.335	5.66
420.541	5.88
420.746	5.87
420.952	5.81
421.158	5.91
421.364	5.86
421.57	5.8
421.776	5.79
421.982	5.82
422.187	5.82
422.393	5.78
422.599	5.78
422.805	5.78
423.01	5.73
423.216	5.66
423.422	5.52
423.628	5.41
423.833	5.55
424.039	5.53
424.245	5.54
424.45	5.47
424.656	5.52
424.862	5.51
425.067	5.34
425.273	5.28
425.478	5.22
425.684	5.12
425.889	5.27
426.095	5
426.301	4.94
426.506	4.98
426.712	4.97
426.917	4.74
427.123	4.6
427.328	4.7
427.533	4.73
427.739	4.73
427.944	5.16
428.15	5.16
428.355	5.3
428.561	5.38
428.766	5.5
428.971	5.55
429.177	6.07
429.382	6.33
429.587	6.47
429.793	6.58
429.998	6.58
430.203	6.38
430.408	6.32
430.614	6.48
430.819	6.63
431.024	6.23
431.229	6.22
431.434	6.05
431.64	5.97
431.845	5.87
432.05	5.9
432.255	6.13
432.46	5.97
432.665	5.9
432.87	5.74
433.076	5.59
433.281	5.76
433.486	5.9
433.691	5.7
433.896	5.64
434.101	5.63
434.306	5.61
434.511	5.62
434.716	5.85
434.921	5.84
435.126	5.78
435.331	5.8
435.535	5.81
435.74	5.77
435.945	5.94
436.15	6.02
436.355	5.99
436.56	6.03
436.765	5.86
436.97	5.92
437.174	6
437.379	6.17
437.584	6.17
437.789	6.08
437.993	6.19
438.198	6.01
438.403	5.79
438.608	6
438.812	5.83
439.017	5.78
439.222	5.71
439.426	5.64
439.631	5.56
439.836	5.54
440.04	5.61
440.245	5.48
440.45	5.56
440.654	5.6
440.859	5.49
441.063	5.49
441.268	5.53
441.472	5.54
441.677	5.66
441.881	5.71
442.086	5.69
442.29	5.62
442.495	5.58
442.699	5.54
442.904	5.67
443.108	5.69
443.312	5.76
443.517	5.76
443.721	5.58
443.925	5.54
444.13	5.45
444.334	5.49
444.538	5.63
444.743	5.6
444.947	5.53
445.151	5.5
445.356	5.57
445.56	5.67
445.764	5.71
445.968	5.78
446.173	5.69
446.377	5.75
446.581	5.71
446.785	5.56
446.989	5.6
447.193	5.66
447.398	5.49
447.602	5.25
447.806	5.13
448.01	5.12
448.214	5.05
448.418	5.02
448.622	5.08
448.826	5.13
449.03	5.17
449.234	5.21
449.438	5.36
449.642	5.38
449.846	5.61
450.05	5.69
450.254	5.65
450.458	5.63
450.662	5.75
450.866	5.61
451.069	5.59
451.273	5.64
451.477	5.54
451.681	5.56
451.885	5.75
452.089	5.78
452.292	5.91
452.496	5.8
452.7	5.87
452.904	5.82
453.107	5.87
453.311	5.77
453.515	5.91
453.719	6.13
453.922	5.86
454.126	5.79
454.33	5.6
454.533	5.47
454.737	5.46
454.94	5.48
455.144	5.5
455.348	5.62
455.551	5.7
455.755	5.47
455.958	5.21
456.162	5.45
456.365	5.55
456.569	5.7
456.772	5.46
456.976	5.4
457.179	5.19
457.383	5.09
457.586	4.84
457.79	4.94
457.993	5.02
458.196	5.14
458.4	5.1
458.603	5.13
458.807	4.97
459.01	5.07
459.213	5.07
459.417	5.2
459.62	5.21
459.823	5.27
460.026	5.17
460.23	5.23
460.433	5.3
460.636	5.23
460.839	5.16
461.042	5.24
461.246	5.24
461.449	5.34
461.652	5.41
461.855	5.38
462.058	5.29
462.261	5.32
462.464	5.26
462.668	5.15
462.871	5.24
463.074	5.34
463.277	5.34
463.48	5.44
463.683	5.61
463.886	5.5
464.089	5.57
464.292	5.71
464.495	5.62
464.698	5.42
464.901	5.17
465.104	5.13
465.306	4.91
465.509	4.88
465.712	4.87
465.915	4.46
466.118	4.5
466.321	4.49
466.524	4.46
466.726	4.58
466.929	4.61
467.132	4.89
467.335	4.77
467.538	4.84
467.74	4.82
467.943	4.66
468.146	4.92
468.348	4.81
468.551	4.95
468.754	4.8
468.956	4.78
469.159	4.85
469.362	4.75
469.564	5.08
469.767	5.23
469.969	5.31
470.172	5.44
470.375	5.37
470.577	5.55
470.78	5.45
470.982	5.65
471.185	5.7
471.387	6
471.59	6.02
471.792	5.8
471.995	5.64
472.197	5.62
472.399	5.62
472.602	5.65
472.804	5.54
473.007	5.41
473.209	5.53
473.411	5.57
473.614	5.16
473.816	5.17
474.018	5.09
474.22	5.2
474.423	5.29
474.625	5.26
474.827	5.25
475.03	5.24
475.232	5.23
475.434	5.07
475.636	4.98
475.838	5.19
476.04	5.02
476.243	5.05
476.445	5.07
476.647	4.79
476.849	4.83
477.051	4.98
477.253	4.87
477.455	4.89
477.657	4.87
477.859	4.9
478.061	4.95
478.263	4.95
478.465	4.94
478.667	4.8
478.869	4.91
479.071	4.88
479.273	4.65
479.475	4.73
479.677	4.8
479.879	4.75
480.081	4.67
480.283	4.59
480.485	4.49
480.686	4.6
480.888	4.71
481.09	4.89
481.292	4.87
481.494	4.97
481.695	5.04
481.897	5.07
482.099	5.13
482.301	5.18
482.502	5.05
482.704	5.16
482.906	5.11
483.107	5.1
483.309	5.01
483.511	5.05
483.712	5.03
483.914	4.99
484.115	4.96
484.317	4.91
484.519	4.93
484.72	4.98
484.922	4.95
485.123	4.93
485.325	4.91
485.526	4.91
485.728	4.89
485.929	4.9
486.131	4.83
486.332	4.88
486.534	4.91
486.735	4.88
486.936	4.84
487.138	4.91
487.339	5.02
487.541	5.05
487.742	5.05
487.943	5.03
488.144	5.02
488.346	5.09
488.547	5.08
488.748	5.07
488.95	5.06
489.151	5.18
489.352	5.07
489.553	4.88
489.755	4.82
489.956	4.85
490.157	4.78
490.358	4.72
490.559	4.73
490.76	4.76
490.961	4.83
491.163	4.84
491.364	4.77
491.565	4.83
491.766	4.92
491.967	4.9
492.168	4.84
492.369	4.86
492.57	4.89
492.771	4.95
492.972	4.86
493.173	4.89
493.374	4.82
493.575	4.78
493.776	4.78
493.976	4.72
494.177	4.78
494.378	4.82
494.579	4.84
494.78	4.91
494.981	4.77
495.182	4.83
495.382	4.72
495.583	4.69
495.784	4.83
495.985	4.74
496.185	4.82
496.386	4.9
496.587	4.96
496.788	5.09
496.988	5.03
497.189	5.21
497.39	5.34
497.59	5.27
497.791	5.44
497.992	5.4
498.192	5.41
498.393	5.49
498.593	5.54
498.794	5.48
498.994	5.37
499.195	5.43
499.395	5.35
499.596	5.32
499.796	5.48
499.997	5.5
500.197	5.54
500.398	5.71
500.598	5.58
500.799	5.44
500.999	5.48
501.199	5.67
501.4	5.65
501.6	5.39
501.801	5.37
502.001	5.15
502.201	5.02
502.402	5.15
502.602	5.2
502.802	5.26
503.002	5.2
503.203	5.33
503.403	5.29
503.603	5.27
503.803	5.49
504.003	5.44
504.204	5.66
504.404	5.63
504.604	5.55
504.804	5.57
505.004	5.51
505.204	5.71
505.404	5.59
505.604	5.65
505.804	5.68
506.005	5.78
506.205	5.89
506.405	6
506.605	6.15
506.805	6.06
507.005	6.12
507.204	6.2
507.404	6.27
507.604	6.46
507.804	6.55
508.004	6.57
508.204	6.48
508.404	6.38
508.604	6.23
508.804	6.19
509.003	6.22
509.203	6.19
509.403	6.12
509.603	5.89
509.803	5.85
510.002	5.76
510.202	5.88
510.402	5.85
510.602	5.83
510.801	5.88
511.001	5.85
511.201	5.86
511.4	5.59
511.6	5.7
511.8	5.8
511.999	5.72
512.199	5.78
512.398	5.8
512.598	5.83
512.797	5.92
512.997	5.88
513.197	5.88
513.396	5.97
513.596	6
513.795	5.98
513.994	5.99
514.194	6.08
514.393	5.96
514.593	5.93
514.792	6.05
514.992	6.13
515.191	6.17
515.39	6.35
515.59	6.31
515.789	6.53
515.988	6.65
516.188	6.83
516.387	6.78
516.586	6.82
516.786	6.63
516.985	6.48
517.184	6.41
517.383	6.4
517.582	6.26
517.782	6.23
517.981	6.27
518.18	6.35
518.379	6.34
518.578	6.2
518.777	6.14
518.976	6.22
519.176	6.26
519.375	6.35
519.574	6.4
519.773	6.51
519.972	6.59
520.171	6.52
520.37	6.41
520.569	6.33
520.768	6.38
520.967	6.49
521.166	6.52
521.365	6.59
521.564	6.51
521.762	6.55
521.961	6.66
522.16	6.67
522.359	6.78
522.558	6.66
522.757	6.77
522.956	6.96
523.154	7
523.353	7.08
523.552	7.12
523.751	7.14
523.949	7.05
524.148	6.93
524.347	7.02
524.546	6.93
524.744	7.01
524.943	6.94
525.142	6.97
525.34	6.95
525.539	7.04
525.737	7.06
525.936	7.03
526.135	7.16
526.333	7.32
526.532	7.11
526.73	7.28
526.929	7.3
527.127	7.37
527.326	7.4
527.524	7.43
527.723	7.38
527.921	7.35
528.12	7.34
528.318	7.33
528.516	7.29
528.715	7.38
528.913	7.34
529.112	7.37
529.31	7.4
529.508	7.4
529.707	7.42
529.905	7.45
530.103	7.45
530.301	7.49
530.5	7.52
530.698	7.5
530.896	7.56
531.094	7.58
531.293	7.64
531.491	7.7
531.689	7.75
531.887	7.83
532.085	7.92
532.283	8.03
532.481	8.15
532.68	8.16
532.878	8.19
533.076	8.24
533.274	8.3
533.472	8.22
533.67	8.23
533.868	8.25
534.066	8.25
534.264	8.21
534.462	8.23
534.66	8.3
534.858	8.38
535.056	8.49
535.253	8.56
535.451	8.64
535.649	8.87
535.847	8.85
536.045	8.81
536.243	8.67
536.441	8.78
536.638	8.76
536.836	8.75
537.034	8.76
537.232	8.78
537.43	8.77
537.627	8.73
537.825	8.6
538.023	8.55
538.22	8.55
538.418	8.76
538.616	8.71
538.813	8.74
539.011	8.73
539.209	8.63
539.406	8.77
539.604	8.76
539.801	8.8
539.999	8.96
540.196	9.11
540.394	9.27
540.591	9.26
540.789	9.38
540.986	9.56
541.184	9.56
541.381	9.62
541.579	9.51
541.776	9.55
541.974	9.58
542.171	9.56
542.368	9.57
542.566	9.61
542.763	9.62
542.96	9.58
543.158	9.44
543.355	9.51
543.552	9.61
543.75	9.72
543.947	9.72
544.144	9.76
544.341	9.82
544.539	9.88
544.736	9.85
544.933	9.8
545.13	9.83
545.327	10.09
545.524	10.08
545.722	10.09
545.919	10.28
546.116	10.4
546.313	10.48
546.51	10.51
546.707	10.55
546.904	10.62
547.101	10.76
547.298	10.93
547.495	10.92
547.692	11.05
547.889	11.07
548.086	10.92
548.283	10.96
548.48	11.03
548.677	11.12
548.874	11.19
549.07	11.44
549.267	11.44
549.464	11.47
549.661	11.39
549.858	11.45
550.055	11.49
550.251	11.69
550.448	11.73
550.645	11.81
550.842	12.02
551.038	12.25
551.235	12.06
551.432	12.2
551.628	12.17
551.825	12.41
552.022	12.4
552.218	12.46
552.415	12.46
552.612	12.36
552.808	12.44
553.005	12.39
553.201	12.31
553.398	12.44
553.594	12.79
553.791	12.9
553.987	12.96
554.184	13.14
554.38	13.3
554.577	13.33
554.773	13.61
554.97	13.6
555.166	13.72
555.362	13.75
555.559	13.59
555.755	13.5
555.952	13.51
556.148	13.43
556.344	13.47
556.541	13.36
556.737	13.42
556.933	13.48
557.129	13.54
557.326	13.48
557.522	13.49
557.718	13.86
557.914	13.65
558.11	13.64
558.307	13.67
558.503	13.81
558.699	14.01
558.895	14.23
559.091	14.41
559.287	14.48
559.483	14.86
559.679	15.05
559.876	15.11
560.072	15.1
560.268	15.18
560.464	15.13
560.66	14.88
560.856	14.91
561.052	14.79
561.247	14.75
561.443	14.82
561.639	14.76
561.835	14.78
562.031	14.72
562.227	15.1
562.423	15.37
562.619	15.52
562.815	15.65
563.01	15.89
563.206	16.01
563.402	15.97
563.598	16.05
563.793	16.08
563.989	16.13
564.185	16.23
564.381	16.2
564.576	16.23
564.772	16.44
564.968	16.73
565.163	16.64
565.359	16.58
565.555	16.67
565.75	16.68
565.946	16.81
566.141	16.98
566.337	16.94
566.532	17.03
566.728	16.97
566.923	16.89
567.119	16.73
567.314	16.73
567.51	17.02
567.705	17.16
567.901	17.23
568.096	17.11
568.292	17.11
568.487	17.24
568.682	17.18
568.878	17.26
569.073	17.29
569.268	17.55
569.464	17.85
569.659	17.93
569.854	18.01
570.05	18.08
570.245	18.21
570.44	18.27
570.635	18.47
570.831	18.6
571.026	18.56
571.221	18.63
571.416	18.58
571.611	18.62
571.806	18.38
572.002	18.32
572.197	18.38
572.392	18.42
572.587	18.4
572.782	18.34
572.977	18.4
573.172	18.57
573.367	18.68
573.562	18.67
573.757	18.58
573.952	18.96
574.147	18.99
574.342	18.96
574.537	18.96
574.732	18.98
574.927	19.07
575.121	19.05
575.316	19.09
575.511	19.2
575.706	19.23
575.901	19.16
576.096	19.01
576.29	19.07
576.485	19.33
576.68	19.44
576.875	19.43
577.069	19.31
577.264	19.52
577.459	19.51
577.654	19.53
577.848	19.78
578.043	19.96
578.238	19.92
578.432	19.94
578.627	19.79
578.821	19.88
579.016	20.07
579.21	20.35
579.405	20.35
579.6	20.68
579.794	20.61
579.989	20.27
580.183	19.9
580.378	20.03
580.572	20.1
580.766	20.07
580.961	19.89
581.155	19.83
581.35	19.7
581.544	19.53
581.738	19.34
581.933	19.25
582.127	19.44
582.321	19.75
582.516	19.86
582.71	19.99
582.904	19.99
583.099	20.25
583.293	20.03
583.487	19.94
583.681	20.03
583.875	20.25
584.07	20.42
584.264	20.43
584.458	20.67
584.652	20.63
584.846	20.64
585.04	20.68
585.234	20.99
585.428	20.97
585.623	21.22
585.817	21.13
586.011	21.05
586.205	20.99
586.399	20.97
586.593	20.96
586.787	21.1
586.981	21.31
587.174	21.43
587.368	21.09
587.562	21.57
587.756	21.85
587.95	21.98
588.144	21.82
588.338	21.98
588.532	22.16
588.725	22.29
588.919	22.1
589.113	21.95
589.307	22.12
589.501	22.47
589.694	22.3
589.888	22.15
590.082	21.96
590.275	22.02
590.469	21.98
590.663	22.04
590.856	21.83
591.05	21.97
591.244	21.87
591.437	21.69
591.631	21.32
591.824	21.51
592.018	21.57
592.212	21.95
592.405	22.29
592.599	22.43
592.792	22.32
592.986	22.61
593.179	22.7
593.372	22.75
593.566	22.91
593.759	23.03
593.953	23.05
594.146	22.91
594.339	22.77
594.533	22.51
594.726	22.44
594.92	22.55
595.113	22.39
595.306	22.37
595.499	22.35
595.693	22.23
595.886	22.14
596.079	22.01
596.272	22.17
596.466	22.39
596.659	22.57
596.852	22.45
597.045	22.3
597.238	22.43
597.431	22.33
597.624	22.53
597.818	22.87
598.011	22.89
598.204	23
598.397	23.01
598.59	22.77
598.783	22.78
598.976	22.81
599.169	22.82
599.362	22.92
599.555	22.94
599.748	22.87
599.941	22.59
600.134	22.8
600.326	22.82
600.519	22.9
600.712	23.19
600.905	22.92
601.098	23.12
601.291	23.18
601.483	23.06
601.676	23.09
601.869	23.3
602.062	23.18
602.255	23.37
602.447	23.53
602.64	23.58
602.833	23.48
603.025	23.71
603.218	23.74
603.411	24.1
603.603	23.93
603.796	24.15
603.989	24
604.181	24.22
604.374	24.01
604.566	24.17
604.759	24.12
604.951	24.41
605.144	24.3
605.336	24.41
605.529	24.05
605.721	24.25
605.914	24.46
606.106	24.56
606.299	24.31
606.491	24.35
606.683	23.97
606.876	24.03
607.068	23.77
607.26	23.84
607.453	23.8
607.645	24.03
607.837	23.88
608.03	23.71
608.222	23.81
608.414	24.05
608.606	24.04
608.799	24.26
608.991	24.27
609.183	24.33
609.375	24.5
609.567	24.47
609.759	24.58
609.952	24.88
610.144	24.75
610.336	24.54
610.528	24.63
610.72	24.73
610.912	24.71
611.104	24.58
611.296	24.57
611.488	24.38
611.68	24.29
611.872	24.09
612.064	23.64
612.256	23.74
612.448	24.04
612.64	23.73
612.832	23.75
613.023	23.76
613.215	24.09
613.407	23.84
613.599	23.9
613.791	23.79
613.983	23.83
614.174	24.01
614.366	23.99
614.558	23.99
614.75	24.14
614.941	24.2
615.133	24.38
615.325	24.08
615.516	24.4
615.708	24.55
615.9	24.96
616.091	25.06
616.283	24.95
616.475	24.75
616.666	24.48
616.858	24.55
617.049	24.5
617.241	24.7
617.432	24.64
617.624	24.57
617.815	24.48
618.007	24.39
618.198	24.64
618.39	24.9
618.581	24.92
618.773	25.22
618.964	25.47
619.155	25.35
619.347	25.13
619.538	25.15
619.729	25.22
619.921	25.45
620.112	25.56
620.303	25.5
620.494	25.79
620.686	25.87
620.877	25.99
621.068	25.75
621.259	25.65
621.451	25.65
621.642	25.94
621.833	26.18
622.024	26.08
622.215	25.91
622.406	25.7
622.597	25.4
622.788	25.67
622.98	25.33
623.171	25.55
623.362	25.95
623.553	25.8
623.744	25.45
623.935	25.25
624.126	25.24
624.317	25.37
624.508	25.82
624.698	25.9
624.889	25.84
625.08	25.89
625.271	25.66
625.462	25.55
625.653	25.62
625.844	25.83
626.034	26.02
626.225	25.81
626.416	25.53
626.607	25.22
626.798	25.12
626.988	25.18
627.179	25.56
627.37	25.83
627.56	25.7
627.751	25.73
627.942	25.92
628.132	25.59
628.323	25.84
628.514	26.13
628.704	26.18
628.895	26.12
629.085	26.26
629.276	26.11
629.466	26.18
629.657	26.51
629.847	26.63
630.038	26.54
630.228	26.71
630.419	26.44
630.609	26.33
630.8	26.64
630.99	26.64
631.181	26.28
631.371	25.91
631.561	25.76
631.752	25.55
631.942	25.44
632.132	25.2
632.323	25.15
632.513	25.3
632.703	25.27
632.893	25.08
633.084	25
633.274	25.24
633.464	25.54
633.654	25.19
633.844	25.51
634.034	25.44
634.225	25.71
634.415	25.7
634.605	25.89
634.795	25.92
634.985	25.98
635.175	26.47
635.365	26.28
635.555	26.18
635.745	26.6
635.935	26.39
636.125	26.7
636.315	26.78
636.505	27.14
636.695	27.23
636.885	27.18
637.075	27.16
637.265	27.29
637.455	27.26
637.644	27.67
637.834	27.71
638.024	27.76
638.214	27.89
638.404	27.99
638.593	27.74
638.783	27.63
638.973	27.75
639.163	27.78
639.352	27.48
639.542	27.65
639.732	27.46
639.921	27.34
640.111	27.49
640.301	27.33
640.49	26.91
640.68	26.96
640.87	26.94
641.059	26.87
641.249	26.5
641.438	26.52
641.628	26.48
641.817	26.35
642.007	26
642.196	25.96
642.386	26
642.575	26.67
642.764	26.77
642.954	26.98
643.143	27.39
643.333	27.84
643.522	27.85
643.711	28.01
643.901	27.74
644.09	28.02
644.279	27.45
644.469	27.34
644.658	26.68
644.847	26.93
645.036	26.92
645.226	26.54
645.415	26.57
645.604	26.47
645.793	26.45
645.982	26.68
646.171	27.19
646.361	27.65
646.55	27.67
646.739	28
646.928	27.94
647.117	27.6
647.306	27.79
647.495	27.78
647.684	27.92
647.873	27.92
648.062	27.9
648.251	27.66
648.44	27.62
648.629	27.51
648.818	27.4
649.007	27.01
649.196	27.23
649.384	26.91
649.573	26.94
649.762	26.63
649.951	26.42
650.14	26.57
650.328	26.13
650.517	26.3
650.706	26.55
650.895	26.87
651.083	26.8
651.272	27.03
651.461	27.75
651.65	27.74
651.838	28.54
652.027	28.85
652.216	28.8
652.404	28.6
652.593	28.44
652.781	28.88
652.97	28.5
653.158	28.89
653.347	28.92
653.535	28.78
653.724	28.84
653.912	28.22
654.101	28.1
654.289	28.18
654.478	28.63
654.666	28.71
654.855	28.03
655.043	28.24
655.231	28.04
655.42	27.85
655.608	27.37
655.796	27.48
655.985	27.84
656.173	27.78
656.361	28.03
656.55	28.45
656.738	28.47
656.926	28.53
657.114	28.47
657.302	28.4
657.491	28.31
657.679	28.28
657.867	28.04
658.055	27.82
658.243	28.03
658.431	27.95
658.619	27.71
658.807	27.93
658.996	27.97
659.184	28.06
659.372	28.27
659.56	28.08
659.748	28.42
659.936	28.25
660.124	28.21
660.311	28.29
660.499	28.15
660.687	28.12
660.875	27.97
661.063	27.87
661.251	27.94
661.439	27.49
661.627	27.71
661.814	27.49
662.002	27.71
662.19	27.62
662.378	27.47
662.565	27.43
662.753	27.59
662.941	27.97
663.129	27.81
663.316	27.36
663.504	27.88
663.692	27.7
663.879	27.79
664.067	28.08
664.254	28.49
664.442	28.36
664.63	28.71
664.817	28.65
665.005	28.12
665.192	28.62
665.38	28.97
665.567	29.07
665.755	29.36
665.942	29.51
666.13	29.12
666.317	29.16
666.504	29.58
666.692	29.4
666.879	29.31
667.067	29.39
667.254	28.91
667.441	28.75
667.629	28.45
667.816	28.37
668.003	28.41
668.19	28.64
668.378	28.61
668.565	28.35
668.752	28.18
668.939	27.9
669.127	27.71
669.314	27.9
669.501	28.09
669.688	28.23
669.875	28.5
670.062	28.2
670.249	27.83
670.436	27.96
670.623	28.24
670.81	28.37
670.997	28.61
671.184	28.78
671.371	28.87
671.558	28.66
671.745	28.72
671.932	29.14
672.119	29.85
672.306	30.21
672.493	29.82
672.68	29.48
672.867	29.9
673.054	29.75
673.24	30.49
673.427	30.56
673.614	30.19
673.801	30.26
673.988	29.6
674.174	29.02
674.361	28.47
674.548	28.67
674.734	28.9
674.921	28.52
675.108	28.98
675.294	28.39
675.481	28.3
675.668	28.83
675.854	28.7
676.041	28.98
676.227	29.32
676.414	30.16
676.601	30.08
676.787	29.98
676.974	30.2
677.16	29.96
677.347	29.68
677.533	29.48
677.719	29.2
677.906	29.45
678.092	29.11
678.279	28.99
678.465	28.82
678.651	28.96
678.838	28.93
679.024	28.61
679.21	28.87
679.397	28.91
679.583	29.13
679.769	29.53
679.955	29.58
680.142	29.82
680.328	29.82
680.514	29.87
680.7	29.58
680.886	29.86
681.073	30.27
681.259	30.24
681.445	30.23
681.631	29.86
681.817	29.58
682.003	30.02
682.189	30.14
682.375	30.24
682.561	30.26
682.747	30.34
682.933	30.41
683.119	30.14
683.305	30.16
683.491	30.66
683.677	30.94
683.863	31.49
684.049	30.75
684.235	30.24
684.42	30.03
684.606	30.01
684.792	29.88
684.978	29.08
685.164	29.28
685.349	28.92
685.535	28.76
685.721	29.14
685.907	28.89
686.092	28.52
686.278	28.79
686.464	28.81
686.649	28.73
686.835	29.09
687.021	29.91
687.206	29.63
687.392	29.69
687.577	29.64
687.763	29.42
687.948	29.17
688.134	29.4
688.319	29.72
688.505	30.32
688.69	30.35
688.876	30.42
689.061	30.27
689.247	30.14
689.432	30.75
689.618	30.58
689.803	30.7
689.988	30.95
690.174	30.88
690.359	30.43
690.544	30.11
690.73	29.95
690.915	30.51
691.1	30.13
691.285	30
691.471	29.24
691.656	29.36
691.841	29.21
692.026	28.36
692.211	29.05
692.396	29.97
692.582	30.05
692.767	30.13
692.952	29.46
693.137	29.78
693.322	29.69
693.507	29.87
693.692	29.9
693.877	29.91
694.062	30.71
694.247	29.27
694.432	28.46
694.617	28.55
694.802	28.92
694.987	29.11
695.172	28.64
695.357	29.31
695.541	29.74
695.726	29.27
695.911	28.97
696.096	29.19
696.281	30.11
696.466	30.11
696.65	29.9
696.835	29.45
697.02	29.17
697.204	29.6
697.389	28.85
697.574	28.93
697.759	29.32
697.943	29.76
698.128	29.97
698.312	29.9
698.497	30.32
698.682	30.13
698.866	30.05
699.051	30.23
699.235	29.99
699.42	30.61
699.604	30.2
699.789	30.26
699.973	30.35
700.158	30.2
700.342	30.52
700.527	30.19
700.711	30.25
700.895	30.32
701.08	30.33
701.264	30.64
701.448	30.24
701.633	30.42
701.817	30.81
702.001	30.47
702.186	29.85
702.37	28.89
702.554	28.73
702.738	28.51
702.923	29.45
703.107	29.46
703.291	29.91
703.475	30.6
703.659	30.84
703.843	30.51
704.027	31.6
704.212	31.64
704.396	32.69
704.58	33.56
704.764	35.54
704.948	35.91
705.132	35.67
705.316	34.62
705.5	34.43
705.684	34.41
705.868	34.1
706.052	33.72
706.235	33.6
706.419	33.94
706.603	32.75
706.787	31.41
706.971	29.71
707.155	30.25
707.339	31.06
707.522	30.77
707.706	30.7
707.89	31.2
708.074	31.37
708.257	31.69
708.441	30.82
708.625	31.05
708.808	31.34
708.992	32.22
709.176	31.78
709.359	32.08
709.543	33.06
709.727	32.51
709.91	32.27
710.094	31.87
710.277	32.52
710.461	32.6
710.644	32.81
710.828	31.83
711.011	31.95
711.195	31.84
711.378	31.89
711.562	31.24
711.745	31.72
711.928	31.73
712.112	31.52
712.295	31.35
712.478	31.12
712.662	31.47
712.845	31.55
713.028	30.71
713.212	31.17
713.395	30.17
713.578	30.78
713.761	31.46
713.945	31.36
714.128	31.74
714.311	31.57
714.494	32.59
714.677	32.54
714.86	32.89
715.043	33.59
715.227	33.12
715.41	33.33
715.593	32.48
715.776	31.97
715.959	31.93
716.142	31.88
716.325	32.42
716.508	31.62
716.691	31.52
716.874	31.43
717.057	31.92
717.239	32.34
717.422	32.3
717.605	33.14
717.788	32.83
717.971	33.37
718.154	33.03
718.337	32.98
718.519	33.63
718.702	33.53
718.885	33.46
719.068	32.79
719.25	33.53
719.433	34.57
719.616	33.8
719.798	34.84
719.981	35.31
720.164	35.8
720.346	34.83
720.529	34.61
720.712	34.95
720.894	35.27
721.077	36.08
721.259	34.96
721.442	33.48
721.624	33.88
721.807	33.34
721.989	31.51
722.172	30.5
722.354	30.83
722.537	31.05
722.719	31.13
722.901	31.6
723.084	30.17
723.266	30.65
723.448	32.23
723.631	31.68
723.813	31.16
723.995	32.06
724.178	33.84
724.36	34.07
724.542	34.5
724.724	34.12
724.907	33.77
725.089	34.01
725.271	32.99
725.453	31.85
725.635	32.16
725.817	32.1
725.999	31.93
726.181	31.05
726.364	31.12
726.546	30.55
726.728	29.79
726.91	29.09
727.092	29.34
727.274	30
727.456	30.9
727.638	30.64
727.819	31.26
728.001	31.73
728.183	31.74
728.365	31.32
728.547	31.52
728.729	31.73
728.911	31.78
729.093	32.06
729.274	32.52
729.456	32.44
729.638	32.94
729.82	32.7
730.001	32.61
730.183	31.95
730.365	32.37
730.546	31.29
730.728	31.61
730.91	31.88
731.091	31.71
731.273	31.03
731.455	30.11
731.636	30.18
731.818	30.73
731.999	30.83
732.181	30.89
732.362	30.75
732.544	31.83
732.725	31.55
732.907	31.59
733.088	32.21
733.27	33.29
733.451	33.14
733.633	33.46
733.814	32.82
733.995	32.9
734.177	32.43
734.358	32.68
734.539	31.74
734.721	31.57
734.902	32.14
735.083	31.57
735.264	31.05
735.446	32.19
735.627	31.01
735.808	31.37
735.989	31.15
736.17	32.57
736.351	32.28
736.533	33.63
736.714	34.87
736.895	34.62
737.076	34.91
737.257	34.11
737.438	33.55
737.619	33.85
737.8	33.87
737.981	32.84
738.162	32.85
738.343	32.58
738.524	31.45
738.705	31.65
738.886	31.31
739.067	30.25
739.247	30.65
739.428	30.39
739.609	29.59
739.79	29.07
739.971	30.18
740.151	30.02
740.332	30.1
740.513	30.51
740.694	28.99
740.874	29.4
741.055	31.24
741.236	32.01
741.417	32.45
741.597	32.79
741.778	32.74
741.958	33.05
742.139	33.97
742.32	34.76
742.5	35.64
742.681	37.36
742.861	37.11
743.042	36.44
743.222	36.67
743.403	35.48
743.583	35.01
743.764	35.79
743.944	35.79
744.124	34.16
744.305	33.73
744.485	33.3
744.666	32.94
744.846	33.07
745.026	33.5
745.207	32.02
745.387	33.6
745.567	34.69
745.747	34.41
745.928	34.38
746.108	34.79
746.288	34.66
746.468	35.31
746.648	35.84
746.829	36.35
747.009	34.87
747.189	35.56
747.369	34.78
747.549	34.79
747.729	34.55
747.909	33.05
748.089	33.03
748.269	33.55
748.449	32.22
748.629	32.05
748.809	31.7
748.989	32.11
749.169	30.77
749.349	31.2
749.529	31.62
749.709	32.42
749.889	33.48
750.068	33.53
750.248	33.02
750.428	34.51
750.608	33.14
750.788	33.14
750.967	33.89
751.147	36
751.327	35.71
751.507	35.79
751.686	35.02
751.866	35.7
752.046	35.2
752.225	35.72
752.405	35.67
752.585	36.17
752.764	35.89
752.944	34.77
753.123	33.19
753.303	33.68
753.482	34.54
753.662	36.07
753.841	34.42
754.021	36.11
754.2	36.47
754.38	36.42
754.559	37.11
754.739	38.08
754.918	38.32
755.097	39.35
755.277	39.45
755.456	38.84
755.635	37.73
755.815	39.64
755.994	36.67
756.173	36.43
756.352	36.11
756.532	36.62
756.711	36.15
756.89	36.4
757.069	35.98
757.248	36.8
757.427	36.27
757.607	36.12
757.786	34.48
757.965	35.83
758.144	34.81
758.323	34.22
758.502	32.45
758.681	32.07
758.86	32.27
759.039	32.73
759.218	31.29
759.397	31.95
759.576	31.97
759.755	31.47
759.934	31.41
760.113	31.52
760.291	31.11
760.47	32.13
760.649	33.02
760.828	31.4
761.007	31.34
761.186	31.3
761.364	30.18
761.543	30.05
761.722	31.2
761.901	30.76
762.079	30.9
762.258	30.87
762.437	30.38
762.615	29.25
762.794	30.53
762.972	29.91
763.151	29.02
763.33	29.45
763.508	29.84
763.687	29.8
763.865	30.83
764.044	31.58
764.222	31.8
764.401	31.5
764.579	31.86
764.758	31.39
764.936	31.99
765.114	33.11
765.293	33.32
765.471	32.86
765.65	33.14
765.828	32.73
766.006	32.54
766.184	32.52
766.363	32.05
766.541	31.09
766.719	33.1
766.898	33.45
767.076	33.67
767.254	34.13
767.432	35.1
767.61	35.44
767.788	36
767.967	35.66
768.145	36.13
768.323	36.28
768.501	37.12
768.679	34.53
768.857	33.7
769.035	32.29
769.213	30.16
769.391	29.48
769.569	30.19
769.747	29.88
769.925	28.77
770.103	29.82
770.281	31.31
770.459	31.28
770.636	34.03
770.814	32.77
770.992	32.3
771.17	33.31
771.348	30.82
771.525	29.68
771.703	29.87
771.881	32.19
772.059	30.02
772.236	28.11
772.414	29.37
772.592	27.67
772.769	29.64
772.947	31.77
773.125	34.14
773.302	38.02
773.48	37.66
773.657	37.86
773.835	37.89
774.013	37.89
774.19	39
774.368	39.36
774.545	42.37
774.723	43.29
774.9	41.5
775.077	39.75
775.255	37.93
775.432	37.22
775.61	37.67
775.787	36.37
775.964	37.95
776.142	38.67
776.319	38.2
776.496	35.52
776.674	34.34
776.851	34.43
777.028	32.01
777.205	30.79
777.382	31.68
777.56	29.01
777.737	29.22
777.914	27.85
778.091	28.33
778.268	29.03
778.445	29.1
778.622	28.25
778.8	28
778.977	30.32
779.154	32.41
779.331	33.3
779.508	34.54
779.685	33.1
779.862	33.36
780.038	31.21
780.215	31.85
780.392	32.1
780.569	32.03
780.746	32.82
780.923	35.1
781.1	36.62
781.277	36.5
781.453	38.47
781.63	39.47
781.807	40.45
781.984	42.11
782.16	42.22
782.337	41.94
782.514	43.3
782.691	43.49
782.867	41.42
783.044	39.52
783.221	39.8
783.397	38.37
783.574	38.88
783.75	38.48
783.927	37.34
784.103	32.73
784.28	32.75
784.456	33.1
784.633	33.11
784.809	32
784.986	31.35
785.162	30.85
785.339	31.17
785.515	32.52
785.692	33
785.868	32.16
786.044	32.74
786.221	32.68
786.397	31.2
786.573	30.75
786.749	29.4
786.926	28.17
787.102	28.72
787.278	30.12
787.454	28.98
787.631	27.37
787.807	24.68
787.983	25.73
788.159	24.3
788.335	25.17
788.511	28.2
788.687	29.23
788.863	31.92
789.039	30.56
789.216	26.98
789.392	23.01
789.568	23.72
789.744	29.12
789.919	32.6
790.095	33.22
790.271	32.54
790.447	29.78
790.623	29.93
790.799	26.9
790.975	26.23
791.151	27.44
791.327	31.18
791.502	31.5
791.678	30.81
791.854	26.54
792.03	28.86
792.205	29.78
792.381	30.58
792.557	29.5
792.733	33.08
792.908	35.6
793.084	38.95
793.259	40.44
793.435	38.28
793.611	36.99
793.786	34.86
793.962	34.68
794.137	32.98
794.313	32.27
794.488	33.79
794.664	30.62
794.839	29.31
795.015	27.56
795.19	27.13
795.366	27.47
795.541	28.24
795.716	32.4
795.892	32.34
796.067	34.81
796.242	33.79
796.418	33.23
796.593	32.73
796.768	29.97
796.944	29.38
797.119	29.95
797.294	30.03
797.469	32.01
797.644	28.54
797.82	26.01
797.995	27.83
798.17	31.15
798.345	30.5
798.52	29.45
798.695	31.94
798.87	33.46
799.045	32.18
799.22	33.17
799.395	31.75
799.57	33.81
799.745	37
799.92	32.72
800.095	30.35
800.27	33.58
800.445	36.35
800.62	36.48
800.795	36.03
800.97	40.21
801.145	38.74
801.319	40.26
801.494	38.02
801.669	35.91
801.844	36.78
802.018	37.55
802.193	31.4
802.368	29.69
802.543	30.91
802.717	31.38
802.892	26.96
803.067	28.7
803.241	22.14
803.416	25.55
803.59	27.59
803.765	28.61
803.94	29.96
804.114	36.18
804.289	36.41
804.463	35.17
804.638	33.57
804.812	35.34
804.986	33.21
805.161	39.04
805.335	40.11
805.51	36.72
805.684	38.18
805.858	36.42
806.033	33.84
806.207	38.22
806.381	39.8
806.556	39.39
806.73	39.32
806.904	39.97
807.078	38.53
807.253	36.13
807.427	38.94
807.601	37.34
807.775	39.51
807.949	38.37
808.123	31.98
808.298	28.47
808.472	32.26
808.646	32.93
808.82	38.15
808.994	36.83
809.168	41.82
809.342	38.23
809.516	38.94
809.69	40.49
809.864	41.12
810.038	45.07
810.212	43.64
810.385	43.14
810.559	41.13
810.733	41.97
810.907	37.43
811.081	34.88
811.255	37.16
811.428	39.06
811.602	39.63
811.776	40.14
811.95	36.38
812.123	39.12
812.297	36.99
812.471	37.21
812.644	30.63
812.818	36.64
812.992	38.19
813.165	40.42
813.339	36.19
813.512	32.63
813.686	34.08
813.86	33.68
814.033	33.03
814.207	32.54
814.38	36.79
814.554	36.05
814.727	38.88
814.9	27.49
815.074	29.61
815.247	30.31
815.421	29.11
815.594	26.42
815.767	33.26
815.941	30.16
816.114	30.3
816.287	25.52
816.46	32.36
816.634	25.25
816.807	34.82
816.98	31.75
817.153	33.44
817.327	31.99
817.5	36.09
817.673	34.91
817.846	41.34
818.019	39.81
818.192	36.93
818.365	34.92
818.538	38.24
818.711	33.58
818.884	33.82
819.057	33.03
819.23	33.71
819.403	33.37
819.576	34.97
819.749	32.29
819.922	32.34
820.095	33.98
820.268	32.26
820.441	29.06
820.614	32.15
820.786	29.71
820.959	31.12
821.132	31.14
821.305	30.59
821.477	28.83
821.65	27.37
821.823	29.22
821.996	29.13
822.168	29.5
822.341	30.29
822.514	29.29
822.686	29.96
822.859	29.66
823.031	29.44
823.204	29.24
823.376	29.62
823.549	30.33
823.722	29.52
823.894	29.64
824.067	29.75
824.239	29.26
824.411	29.19
824.584	29.18
824.756	27.99
824.929	28.76
825.101	29.13
825.273	27.85
825.446	27.53
825.618	28.48
825.79	28.61
825.963	28.98
826.135	30.04
826.307	29.71
826.479	30.25
826.652	31.58
826.824	30.59
826.996	29.68
827.168	30.02
827.34	30.18
827.512	29.99
827.684	30.05
827.856	30.6
828.029	30.04
828.201	29.18
828.373	27.53
828.545	28.43
828.717	28.92
828.889	28.67
829.061	29.15
829.232	29.91
829.404	29.22
829.576	26.54
829.748	26.59
829.92	27.68
830.092	30.5
830.264	32.25
830.436	32.45
830.607	31.9
830.779	30.24
830.951	31.38
831.123	31.51
831.294	32.19
831.466	31.93
831.638	28.86
831.809	26.73
831.981	24.27
832.153	24.71
832.324	22.96
832.496	26.14
832.667	28.58
832.839	30.38
833.011	26.97
833.182	26.63
833.354	31.28
833.525	34.31
833.697	34.26
833.868	36.08
834.039	35.4
834.211	33.51
834.382	31.06
834.554	31.27
834.725	29.61
834.896	30.06
835.068	29.91
835.239	29.07
835.41	26.34
835.581	28.84
835.753	27.35
835.924	27.44
836.095	31.14
836.266	34.32
836.438	32.47
836.609	30.61
836.78	32.5
836.951	30.88
837.122	28.73
837.293	29.53
837.464	27.81
837.635	30.34
837.806	30.78
837.977	27.06
838.148	29.24
838.319	34.5
838.49	38.95
838.661	40.05
838.832	45.41
839.003	46.23
839.174	44.7
839.345	40.73
839.516	36.61
839.687	39.24
839.857	42.64
840.028	35.64
840.199	33.69
840.37	33.65
840.54	32.83
840.711	35
840.882	35.61
841.053	40.31
841.223	40.71
841.394	42.83
841.564	40.83
841.735	45.87
841.906	45.96
842.076	45.5
842.247	48.48
842.417	45.68
842.588	38.5
842.758	43.25
842.929	42.65
843.099	44.96
843.27	42.27
843.44	40.61
843.611	34.89
843.781	37.83
843.951	43.1
844.122	42.37
844.292	36.15
844.462	42.54
844.633	50.65
844.803	52.1
844.973	49.47
845.144	74.29
845.314	92.1
845.484	86.55
845.654	79.25
845.824	69.96
845.995	67.85
846.165	86.84
846.335	78.06
846.505	62.86
846.675	60.54
846.845	50.43
847.015	31.56
847.185	19.81
847.355	13.49
847.525	20.79
847.695	29.34
847.865	36.17
848.035	29.33
848.205	24.6
848.375	34.96
848.545	41.16
848.715	48.27
848.884	45.61
849.054	51.39
849.224	55
849.394	48.36
849.564	38.47
849.733	33.69
849.903	30.49
850.073	37.4
850.243	23.18
850.412	9.08
850.582	8.78
850.752	18.08
850.921	16.72
851.091	16.67
851.26	23.78
851.43	34.18
851.599	17.52
851.769	22.31
851.939	28.73
852.108	46.79
852.278	42.44
852.447	51.72
852.616	36.73
852.786	41.41
852.955	36.81
853.125	27.32
853.294	34.09
853.463	40.46
853.633	25.83
853.802	21.76
853.971	11.47
854.141	30.27
854.31	45.78
854.479	36.98
854.648	20.91
854.818	38.99
854.987	53.37
855.156	51.91
855.325	58.24
855.494	78.33
855.663	81.19
855.832	68.93
856.001	65.98
856.171	53.95
856.34	60.08
856.509	76.46
856.678	73.45
856.847	72.32
857.016	67.54
857.185	63.49
857.353	58.24
857.522	58.84
857.691	62.04
857.86	64.59
858.029	69.01
858.198	62.51
858.367	49.93
858.535	41.16
858.704	44.48
858.873	47.84
859.042	49.92
859.21	46.96
859.379	39.15
859.548	29.02
859.717	22.92
859.885	27.19
860.054	45.09
860.222	36.89
860.391	47.47
860.56	38.05
860.728	37.77
860.897	38.83
861.065	39.54
861.234	41.18
861.402	39.62
861.571	40.47
861.739	27.89
861.908	18.94
862.076	25.51
862.244	27.43
862.413	31.49
862.581	28.76
862.749	25.08
862.918	15.75
863.086	13.15
863.254	18.86
863.423	5.1
863.591	16.45
863.759	32.22
863.927	16.82
864.096	14.52
864.264	-21.71
864.432	-4.17
864.6	-20.15
864.768	-5.41
864.936	6.98
865.104	-19.3
865.272	10.16
865.44	-10.29
865.608	-19.76
865.776	10.03
865.944	14.55
866.112	19.12
866.28	-10.37
866.448	41.1
866.616	56.02
866.784	52.9
866.952	49.81
867.12	53.18
867.288	73.23
867.455	95.22
867.623	117.45
867.791	52.18
867.959	75.49
868.127	79.23
868.294	27.9
868.462	2.33
868.63	3.97
868.797	12.29
868.965	15.43
869.133	8.42
869.3	3.4
869.468	-7.77
869.636	-10.32
869.803	-7.61
869.971	-16.6
870.138	13.85
870.306	32.69
870.473	16.49
870.641	-14.55
870.808	-12.87
870.975	11.23
871.143	59.48
871.31	77.85
871.478	85.76
871.645	53.71
871.812	54.54
871.98	61.19
872.147	51.76
872.314	83.15
872.482	75.77
872.649	61.92
872.816	62.64
872.983	65.9
873.15	53.36
873.318	60.64
873.485	60.61
873.652	52.6
873.819	53.13
873.986	43.98
874.153	36.67
874.32	41.26
874.487	42.58
874.654	41.64
874.821	26.29
874.988	25.05
875.155	20.36
875.322	21.59
875.489	29.73
875.656	18.08
875.823	16.06
875.99	22.94
876.157	20.12
876.324	22.21
876.49	24.96
876.657	25.27
876.824	28.73
876.991	30.73
877.157	30.27
877.324	30.75
877.491	30.3
877.658	41.98
877.824	31.57
877.991	31.08
878.157	30.55
878.324	20.26
878.491	34.82
878.657	31
878.824	28.3
878.99	31.26
879.157	30.94
879.323	34.03
879.49	40.59
879.656	48.65
879.823	51.07
879.989	52.29
880.156	66.53
880.322	61.31
880.488	63.51
880.655	66.72
880.821	44.75
880.987	45.16
881.154	41.06
881.32	30.33
881.486	28.63
881.652	25.29
881.819	17.43
881.985	17.22
882.151	15.7
882.317	17.36
882.483	22.08
882.649	29.11
882.816	30.54
882.982	29.79
883.148	31.55
883.314	30.96
883.48	30.37
883.646	30.82
883.812	33.16
883.978	34.95
884.144	35.66
884.31	36.18
884.476	35.55
884.642	33.15
884.807	31.1
884.973	28.2
885.139	29.28
885.305	28.32
885.471	33.02
885.637	30.32
885.802	24.02
885.968	22.98
886.134	17.09
886.3	15.79
886.465	21.22
886.631	26.38
886.797	35.43
886.962	33.39
887.128	39.54
887.293	33.04
887.459	37.44
887.625	46.47
887.79	49.15
887.956	49.74
888.121	49.58
888.287	42.02
888.452	42.41
888.618	32.88
888.783	33.47
