Data from 2937822_Reflection_3.txt Node
Date: Wed Jul 15 17:16:36 EDT 2015
User: robert
Spectrometer: USB4E03001
Autoset integration time: false
Trigger mode: 4
Integration Time (sec): 1.000000E-1
Scans to average: 10
Electric dark correction enabled: true
Nonlinearity correction enabled: false
Boxcar width: 5
Stray light correction enabled: false
XAxis mode: Wavelengths
Stop averaging: false
Number of Pixels in Spectrum: 3648
>>>>>Begin Spectral Data<<<<<
177.566	-153.47
177.785	-23.7
178.005	15.23
178.225	-1312.5
178.445	179.07
178.665	160.85
178.885	-125.03
179.105	-106.31
179.324	-386.96
179.544	-898.54
179.764	24.68
179.984	44.58
180.204	62.99
180.423	112.85
180.643	619.37
180.863	162.94
181.083	79.76
181.302	127.43
181.522	242.65
181.742	179.05
181.961	-41.18
182.181	-531.04
182.401	5504.76
182.621	347.04
182.84	-290.86
183.06	-125.41
183.279	-115.88
183.499	-79.95
183.719	-237.89
183.938	-244.41
184.158	-193.41
184.377	-45.88
184.597	-18.98
184.816	11.65
185.036	-5.86
185.256	-82.18
185.475	-74.26
185.695	-129.74
185.914	-105.06
186.134	-47.55
186.353	-49.07
186.572	-18.08
186.792	-36.37
187.011	-166.02
187.231	-168.04
187.45	-207.18
187.67	-135.12
187.889	-189.32
188.108	-374.82
188.328	-699.93
188.547	-2029.22
188.766	611.52
188.986	818
189.205	895.28
189.424	-180.75
189.644	-393.16
189.863	-320.93
190.082	-212.94
190.302	-156.37
190.521	-42.74
190.74	-44.76
190.959	-37.93
191.178	-34.75
191.398	-13.68
191.617	-18.35
191.836	-14.27
192.055	16.09
192.274	25.18
192.494	16.38
192.713	34.11
192.932	19.38
193.151	35.72
193.37	14.85
193.589	25.51
193.808	0.18
194.027	29.03
194.246	25.02
194.465	28.25
194.685	43
194.904	32.02
195.123	31.6
195.342	-5.66
195.561	-36.39
195.78	5.83
195.999	-0.12
196.218	-32.9
196.436	-140.48
196.655	-156.87
196.874	-210.76
197.093	-263.91
197.312	-216.03
197.531	-405.48
197.75	-111.15
197.969	-170.46
198.188	-9049.41
198.407	393.38
198.625	360.36
198.844	485.16
199.063	408.51
199.282	731.12
199.501	376.61
199.719	352.36
199.938	308.25
200.157	464.23
200.376	465.98
200.594	424.36
200.813	1408.19
201.032	-536.22
201.251	-23185
201.469	-1218.04
201.688	-167.4
201.907	-168.19
202.125	-180.31
202.344	-49.25
202.563	-515.37
202.781	-190.65
203	-261.25
203.218	-102.61
203.437	-101.45
203.656	-107.86
203.874	-108.7
204.093	-106.92
204.311	-51.47
204.53	-38.28
204.748	-72.97
204.967	5.5
205.185	-13.42
205.404	-13.06
205.622	-28.31
205.841	-48.36
206.059	-12.74
206.278	-7.99
206.496	-4.99
206.715	-29.6
206.933	-66.08
207.151	-3.81
207.37	-70.34
207.588	20.86
207.806	42.38
208.025	239.53
208.243	201.12
208.461	-37.55
208.68	-375.2
208.898	-498.02
209.116	-53.95
209.335	-63.83
209.553	39.77
209.771	15.21
209.989	93.36
210.208	83.27
210.426	202.81
210.644	953.08
210.862	835.14
211.081	741.32
211.299	-109700
211.517	-154.19
211.735	-139.6
211.953	-36.25
212.171	-58.93
212.39	-168.36
212.608	-123.96
212.826	-116.16
213.044	-25.37
213.262	-28.94
213.48	-8.39
213.698	13.11
213.916	29
214.134	23.97
214.352	-14.16
214.57	-9.87
214.788	-2.71
215.006	18.13
215.224	29.74
215.442	5
215.66	-0.42
215.878	11.05
216.096	-8.25
216.314	-11.35
216.532	-25.85
216.75	-25.62
216.968	3.12
217.185	25.9
217.403	18.64
217.621	-16.36
217.839	-9.73
218.057	-28.38
218.275	-1.81
218.492	3.17
218.71	-155.42
218.928	-39.92
219.146	-43.65
219.363	47.59
219.581	78.42
219.799	114.78
220.017	124.58
220.234	160.24
220.452	596.03
220.67	898.98
220.887	241.05
221.105	198.13
221.323	254.27
221.54	169.07
221.758	160.81
221.976	135.37
222.193	254.82
222.411	253.22
222.629	67.18
222.846	12.34
223.064	37.92
223.281	56.89
223.499	73.37
223.716	53.54
223.934	89.47
224.151	49.89
224.369	35.77
224.586	5.77
224.804	38.36
225.021	31.25
225.239	30.82
225.456	25.97
225.674	-24.17
225.891	-68.31
226.108	2.85
226.326	2.94
226.543	28.13
226.76	26.18
226.978	35.77
227.195	27.04
227.413	31.9
227.63	31.62
227.847	26.39
228.064	25.68
228.282	24.21
228.499	13.48
228.716	8.18
228.934	8.05
229.151	10.93
229.368	7.65
229.585	9.19
229.802	10.43
230.02	10.91
230.237	12.22
230.454	13.97
230.671	17.23
230.888	24.87
231.105	28.04
231.323	28.22
231.54	29.34
231.757	25.28
231.974	26.39
232.191	24.16
232.408	28.94
232.625	35.54
232.842	44.06
233.059	42.73
233.276	42.6
233.493	46.61
233.71	38.52
233.927	45.54
234.144	56.7
234.361	54.62
234.578	55.27
234.795	48.16
235.012	39.53
235.229	24.24
235.446	18.08
235.663	8.43
235.879	4.17
236.096	7.3
236.313	4.22
236.53	-2.75
236.747	-9.29
236.964	-9.19
237.181	-5.44
237.397	-7.06
237.614	3.69
237.831	11.55
238.048	14.03
238.264	10.8
238.481	10.7
238.698	8.76
238.915	11.97
239.131	17.56
239.348	19.45
239.565	24.07
239.781	25.09
239.998	18.94
240.215	14.9
240.431	14.34
240.648	16.29
240.865	17.5
241.081	15.06
241.298	15.69
241.514	14.84
241.731	11.89
241.947	9.1
242.164	10.43
242.38	11.99
242.597	11.39
242.814	9.61
243.03	8.7
243.246	8.52
243.463	7.67
243.679	7.05
243.896	4.65
244.112	6.51
244.329	7.27
244.545	5.51
244.762	2.86
244.978	3.91
245.194	4.06
245.411	2.24
245.627	2.39
245.843	4.77
246.06	4.45
246.276	6.42
246.492	4.4
246.709	4.6
246.925	5.75
247.141	6.03
247.357	5.78
247.574	5.58
247.79	5.28
248.006	5.82
248.222	5.87
248.439	6.76
248.655	6.44
248.871	5.96
249.087	6.7
249.303	6.9
249.519	6.03
249.736	5.01
249.952	5.27
250.168	9.67
250.384	9.03
250.6	9.54
250.816	6.97
251.032	8.42
251.248	9.46
251.464	6.18
251.68	5.37
251.896	7
252.112	7.6
252.328	7.81
252.544	7.4
252.76	4.51
252.976	4.11
253.192	7.63
253.408	5.45
253.624	6.02
253.84	9.07
254.056	9.22
254.272	12.35
254.487	14.42
254.703	15.71
254.919	13.73
255.135	14.89
255.351	13.81
255.567	7.1
255.782	10.89
255.998	10.26
256.214	6.76
256.43	8.08
256.646	7.51
256.861	3.06
257.077	3.2
257.293	-0.18
257.508	3.15
257.724	3.96
257.94	4.02
258.155	3.36
258.371	3.01
258.587	3.1
258.802	2.8
259.018	2.52
259.234	4.88
259.449	3.65
259.665	4.7
259.88	5
260.096	5.39
260.312	5.99
260.527	5.95
260.743	6.4
260.958	6.7
261.174	6.76
261.389	6.46
261.605	5.72
261.82	8.01
262.036	7.84
262.251	8.29
262.466	7.8
262.682	7.02
262.897	7.05
263.113	6.77
263.328	5.72
263.543	3.25
263.759	3.66
263.974	2.34
264.189	1.77
264.405	1.44
264.62	1.94
264.835	1.7
265.051	2
265.266	1.58
265.481	1.72
265.696	2.38
265.912	4.84
266.127	3.35
266.342	4.85
266.557	4.98
266.773	6.54
266.988	3.87
267.203	3.44
267.418	3.82
267.633	4.61
267.848	3.6
268.064	3.51
268.279	2.42
268.494	3.56
268.709	3.48
268.924	0.02
269.139	0.65
269.354	-0.26
269.569	0.07
269.784	-0.85
269.999	-1.91
270.214	-1.92
270.429	-4.11
270.644	-3
270.859	-3.43
271.074	-3.11
271.289	-1.64
271.504	-3.72
271.719	-2.24
271.934	-2.28
272.149	-2.2
272.363	-2.31
272.578	-1.53
272.793	1.04
273.008	1.95
273.223	3.07
273.438	4.09
273.653	4.57
273.867	5.66
274.082	8.39
274.297	9.34
274.512	11.22
274.726	12.06
274.941	13.09
275.156	12.64
275.371	11.36
275.585	10.98
275.8	10.01
276.015	10.67
276.229	10.33
276.444	6.56
276.659	6.49
276.873	6.4
277.088	6.28
277.302	3.15
277.517	1.97
277.732	2.77
277.946	4.14
278.161	2.46
278.375	2.16
278.59	1.57
278.804	3.97
279.019	2.2
279.233	0.9
279.448	1.7
279.662	2.73
279.877	3.54
280.091	3.88
280.306	2.08
280.52	3.61
280.735	3.7
280.949	2.88
281.163	2.96
281.378	3.45
281.592	4.26
281.806	3.04
282.021	2.88
282.235	3.05
282.449	3.62
282.664	4.56
282.878	4.42
283.092	3.34
283.307	4.71
283.521	3.16
283.735	4.12
283.949	3.37
284.164	3.67
284.378	4.51
284.592	5.46
284.806	4.55
285.02	3.82
285.234	3.79
285.449	5.81
285.663	7.35
285.877	8.22
286.091	9.71
286.305	10
286.519	9.87
286.733	10.45
286.947	8.73
287.161	10.32
287.375	10.01
287.589	10.33
287.803	10.02
288.017	8.29
288.231	7.38
288.445	6.98
288.659	7.08
288.873	7.57
289.087	5.54
289.301	6.72
289.515	4.34
289.729	5.95
289.943	4.88
290.157	6.52
290.371	6.26
290.584	7.32
290.798	5.75
291.012	5.56
291.226	5.11
291.44	6.15
291.654	5.25
291.867	6.61
292.081	6.06
292.295	7.46
292.509	4.27
292.722	5.61
292.936	6.46
293.15	6.96
293.364	7.49
293.577	6
293.791	6.5
294.005	9.13
294.218	8.65
294.432	8.69
294.645	10.02
294.859	12.31
295.073	12.29
295.286	11.94
295.5	12.34
295.713	12.04
295.927	13.48
296.14	11.86
296.354	11.92
296.568	11.44
296.781	10.83
296.994	10.63
297.208	9.14
297.421	8.19
297.635	6.97
297.848	6.72
298.062	7.47
298.275	7.22
298.489	8.73
298.702	7.5
298.915	8.21
299.129	8.77
299.342	8.77
299.555	9.7
299.769	10.34
299.982	10.95
300.195	10.62
300.409	10.37
300.622	10.9
300.835	9.55
301.048	9.33
301.262	8.12
301.475	7.26
301.688	6.79
301.901	4.67
302.115	4.36
302.328	6.15
302.541	6.13
302.754	4.09
302.967	4.07
303.18	4.91
303.393	4.12
303.607	5.37
303.82	7.11
304.033	6.88
304.246	9.32
304.459	10
304.672	9.81
304.885	10.34
305.098	11.24
305.311	10.53
305.524	10.29
305.737	11.35
305.95	11.56
306.163	10.37
306.376	11.39
306.589	11.07
306.802	10.02
307.015	8.63
307.228	7.53
307.44	7.85
307.653	9.12
307.866	8.83
308.079	9.31
308.292	8.26
308.505	8.68
308.718	8.75
308.93	6.26
309.143	6.98
309.356	8.27
309.569	8.84
309.781	8.94
309.994	10.24
310.207	10.94
310.42	10.57
310.632	11.31
310.845	10.9
311.058	10.82
311.27	12.51
311.483	11.92
311.696	12.01
311.908	11.82
312.121	13.13
312.333	11.52
312.546	10.51
312.759	12.28
312.971	12.06
313.184	14.26
313.396	12.49
313.609	11.09
313.821	13.71
314.034	12.19
314.246	11.93
314.459	13.1
314.671	13.9
314.884	16.38
315.096	15.15
315.309	15.77
315.521	13.9
315.733	13.88
315.946	14.35
316.158	13.55
316.371	16.66
316.583	17.05
316.795	14.31
317.008	15.7
317.22	13.8
317.432	13.53
317.644	13.78
317.857	14.97
318.069	17.39
318.281	18.67
318.494	19.72
318.706	17.56
318.918	17.98
319.13	18.02
319.342	16.59
319.555	16.09
319.767	15.29
319.979	13.99
320.191	12.43
320.403	11.23
320.615	11.21
320.827	8.57
321.039	8.53
321.252	6.93
321.464	8.26
321.676	7.98
321.888	10.29
322.1	13
322.312	13.81
322.524	16.34
322.736	17.55
322.948	18.37
323.16	20.81
323.372	20.04
323.584	22.46
323.796	24.33
324.007	24.49
324.219	24.22
324.431	23.17
324.643	24.09
324.855	23.1
325.067	22.57
325.279	23.3
325.491	23.88
325.702	25.1
325.914	25.83
326.126	24.38
326.338	24.33
326.55	25.51
326.761	24.99
326.973	24.63
327.185	24.36
327.396	25.49
327.608	26.32
327.82	26.96
328.032	27.95
328.243	27.38
328.455	28.24
328.666	31.52
328.878	32.34
329.09	35.11
329.301	35.92
329.513	37.59
329.725	37.73
329.936	40.01
330.148	41.25
330.359	40.99
330.571	42.04
330.782	43.09
330.994	43.22
331.205	44.78
331.417	45.42
331.628	47.73
331.84	48.98
332.051	51.48
332.262	51.28
332.474	51.45
332.685	53.92
332.897	55.43
333.108	56.17
333.319	56.07
333.531	55.83
333.742	58.17
333.953	58.41
334.165	59.66
334.376	59.51
334.587	58.35
334.799	59.25
335.01	60.17
335.221	60.59
335.432	61.43
335.644	63.22
335.855	65.55
336.066	65.63
336.277	65.32
336.488	64.87
336.7	64.89
336.911	66.29
337.122	66.68
337.333	66.42
337.544	66.83
337.755	67.4
337.966	65.68
338.177	65.34
338.388	64.91
338.599	65.39
338.811	66.16
339.022	66.36
339.233	66.1
339.444	66.48
339.655	66.59
339.866	67.33
340.076	68.83
340.287	70.86
340.498	70.96
340.709	71.77
340.92	72.51
341.131	72.96
341.342	74.58
341.553	75.13
341.764	74.84
341.975	76.45
342.185	77.26
342.396	76.01
342.607	78.09
342.818	78.77
343.029	80.04
343.239	80.65
343.45	81.25
343.661	82.33
343.872	82.99
344.082	82.56
344.293	83.84
344.504	81.81
344.714	81.36
344.925	79.74
345.136	79.74
345.346	78.95
345.557	78.39
345.768	77.09
345.978	76.44
346.189	76.68
346.399	77.31
346.61	75.52
346.821	77.45
347.031	77.89
347.242	78.97
347.452	78.08
347.663	76.92
347.873	78.21
348.084	79.89
348.294	80.11
348.504	79.57
348.715	79.78
348.925	79.46
349.136	78.26
349.346	78.31
349.557	77.1
349.767	77.39
349.977	78.69
350.188	77.88
350.398	76.85
350.608	76.31
350.819	76.28
351.029	75.27
351.239	76.54
351.449	76.38
351.66	76.15
351.87	77.2
352.08	78.37
352.29	78.93
352.501	79.63
352.711	81.05
352.921	81.03
353.131	81.85
353.341	83.27
353.552	82.53
353.762	83.06
353.972	84.38
354.182	83.42
354.392	82.25
354.602	81.05
354.812	80.1
355.022	79.28
355.232	79.44
355.442	78.6
355.652	79.06
355.862	78.48
356.072	77.8
356.282	77.25
356.492	77.07
356.702	76.96
356.912	76.75
357.122	76.49
357.332	77.22
357.542	76.5
357.752	75.87
357.962	76.12
358.171	76.46
358.381	78.19
358.591	77.78
358.801	77.82
359.011	77.7
359.221	77.56
359.43	77.4
359.64	75.99
359.85	76
360.06	76.04
360.269	75.27
360.479	75.21
360.689	74.51
360.899	73.71
361.108	73.32
361.318	73.33
361.528	73.48
361.737	73.78
361.947	74.47
362.156	74.84
362.366	75.17
362.576	74.44
362.785	74.1
362.995	73.68
363.204	74.57
363.414	74.26
363.623	74.08
363.833	74.59
364.042	74.88
364.252	74.89
364.461	74.85
364.671	75.25
364.88	76.07
365.09	75.24
365.299	75.21
365.509	75.06
365.718	75.54
365.927	75.64
366.137	75.4
366.346	74.93
366.555	75.21
366.765	74.24
366.974	73.56
367.183	73.32
367.393	73.03
367.602	72.49
367.811	72.83
368.021	72.53
368.23	72.58
368.439	72.01
368.648	71.12
368.857	70.52
369.067	70.2
369.276	70.12
369.485	68.52
369.694	69.45
369.903	69.52
370.112	69.2
370.321	68.49
370.531	68.32
370.74	67.66
370.949	67.78
371.158	67.93
371.367	67.51
371.576	67.82
371.785	68.86
371.994	68.02
372.203	66.7
372.412	66.61
372.621	66.67
372.83	66.12
373.039	66.38
373.248	66.17
373.457	64.65
373.666	64.57
373.874	63.96
374.083	63.79
374.292	65.23
374.501	66.31
374.71	65.25
374.919	65.03
375.128	64.76
375.336	63.88
375.545	64.18
375.754	63.81
375.963	63.21
376.171	62.75
376.38	62.3
376.589	59.77
376.798	59.47
377.006	58.93
377.215	58.94
377.424	58.5
377.632	58.86
377.841	57.77
378.05	58.13
378.258	58.14
378.467	57.46
378.675	56.55
378.884	56.91
379.093	56.58
379.301	56.84
379.51	56.24
379.718	56.43
379.927	56.19
380.135	56.14
380.344	55.62
380.552	55.54
380.761	55.67
380.969	56.1
381.177	56.19
381.386	56.12
381.594	55.63
381.803	55.43
382.011	54.52
382.219	53.94
382.428	54.29
382.636	54.59
382.845	54.71
383.053	54.41
383.261	54.18
383.469	54.34
383.678	54.26
383.886	54.54
384.094	53.95
384.302	54
384.511	53.8
384.719	53.23
384.927	52.88
385.135	52.43
385.343	52.21
385.552	51.71
385.76	51.2
385.968	50.46
386.176	49.81
386.384	49.92
386.592	49.6
386.8	49.46
387.008	49.22
387.216	48.58
387.424	48.45
387.633	48.64
387.841	48.52
388.049	48.24
388.257	47.77
388.465	47.61
388.672	47.44
388.88	47.56
389.088	47.13
389.296	46.6
389.504	46.55
389.712	45.97
389.92	45.16
390.128	44.67
390.336	44.64
390.544	45.2
390.751	44.84
390.959	44.82
391.167	44.44
391.375	44.32
391.583	44.51
391.79	44.51
391.998	44.86
392.206	44.7
392.414	44.39
392.621	44.31
392.829	43.8
393.037	43.8
393.244	43.68
393.452	43.69
393.66	43.91
393.867	43.74
394.075	43.26
394.283	43.07
394.49	43.33
394.698	43.81
394.905	43.61
395.113	43.37
395.32	43.15
395.528	43.12
395.735	42.9
395.943	42.62
396.15	42.48
396.358	42.59
396.565	42.26
396.773	42.19
396.98	42.3
397.188	42.09
397.395	41.95
397.602	41.95
397.81	41.54
398.017	41.84
398.225	42.14
398.432	42.28
398.639	42.43
398.847	42.58
399.054	42.33
399.261	41.64
399.468	41.76
399.676	42.25
399.883	42.13
400.09	42.33
400.297	41.72
400.505	41.21
400.712	41.43
400.919	41.85
401.126	42.05
401.333	41.95
401.54	42.1
401.748	42.38
401.955	42.49
402.162	42.47
402.369	42.38
402.576	42.4
402.783	42.76
402.99	42.44
403.197	41.69
403.404	41.37
403.611	41.67
403.818	41.44
404.025	41.22
404.232	40.79
404.439	40.9
404.646	40.54
404.853	40.98
405.06	40.94
405.267	40.8
405.474	41.14
405.681	41.16
405.887	41.03
406.094	41.12
406.301	40.95
406.508	41.09
406.715	41.18
406.922	41.7
407.128	41.3
407.335	40.54
407.542	40.39
407.749	39.85
407.955	39.51
408.162	39.36
408.369	39.71
408.575	39.53
408.782	39.43
408.989	39.09
409.195	38.96
409.402	38.99
409.609	39.55
409.815	39.7
410.022	40.06
410.228	40.29
410.435	40.26
410.642	40.13
410.848	40.12
411.055	40.28
411.261	40.43
411.468	40.15
411.674	40.37
411.881	40.21
412.087	40.12
412.294	39.93
412.5	39.86
412.706	39.74
412.913	39.5
413.119	39.85
413.326	39.48
413.532	39.21
413.738	39.56
413.945	39.18
414.151	39.17
414.357	39.08
414.564	39.2
414.77	39.11
414.976	39.34
415.182	39.16
415.389	38.85
415.595	38.8
415.801	38.74
416.007	38.29
416.214	38.5
416.42	38.51
416.626	38.8
416.832	38.58
417.038	38.57
417.244	38.56
417.45	38.71
417.657	38.61
417.863	38.44
418.069	38.52
418.275	38.49
418.481	38.48
418.687	38.26
418.893	38.22
419.099	38.3
419.305	38.35
419.511	38.14
419.717	37.99
419.923	38.16
420.129	38.29
420.335	38.37
420.541	38.34
420.746	38.22
420.952	38.29
421.158	38.22
421.364	38.06
421.57	37.88
421.776	37.82
421.982	37.91
422.187	37.63
422.393	37.56
422.599	37.42
422.805	37.33
423.01	37.22
423.216	37.09
423.422	36.92
423.628	36.91
423.833	36.89
424.039	36.76
424.245	36.75
424.45	36.79
424.656	36.72
424.862	36.76
425.067	36.91
425.273	36.89
425.478	36.99
425.684	36.88
425.889	37.03
426.095	37
426.301	37.15
426.506	36.73
426.712	36.61
426.917	36.75
427.123	36.49
427.328	36.57
427.533	36.57
427.739	36.29
427.944	36.29
428.15	36.01
428.355	36.2
428.561	36.21
428.766	36.39
428.971	36.35
429.177	36.23
429.382	36.4
429.587	35.9
429.793	35.9
429.998	36.29
430.203	36.33
430.408	36.45
430.614	36.2
430.819	35.88
431.024	36.12
431.229	36.11
431.434	36
431.64	35.96
431.845	36.27
432.05	36.29
432.255	36.05
432.46	36.1
432.665	36.08
432.87	35.99
433.076	36.23
433.281	36.21
433.486	36.39
433.691	36.6
433.896	36.59
434.101	36.45
434.306	36.36
434.511	36.48
434.716	36.62
434.921	36.7
435.126	36.78
435.331	36.83
435.535	36.84
435.74	36.72
435.945	36.42
436.15	36.44
436.355	36.56
436.56	36.76
436.765	36.65
436.97	36.45
437.174	36.24
437.379	36.22
437.584	36.17
437.789	36.16
437.993	36.32
438.198	36.38
438.403	36.51
438.608	36.39
438.812	36.22
439.017	36.26
439.222	36.17
439.426	36.29
439.631	36.43
439.836	36.23
440.04	36.15
440.245	36
440.45	36.06
440.654	35.82
440.859	35.86
441.063	35.86
441.268	35.83
441.472	35.91
441.677	35.84
441.881	35.7
442.086	35.89
442.29	35.8
442.495	35.8
442.699	35.7
442.904	35.85
443.108	36
443.312	35.96
443.517	35.86
443.721	35.82
443.925	35.84
444.13	35.84
444.334	35.65
444.538	35.68
444.743	35.83
444.947	35.78
445.151	35.7
445.356	35.54
445.56	35.57
445.764	35.59
445.968	35.54
446.173	35.43
446.377	35.5
446.581	35.72
446.785	35.58
446.989	35.43
447.193	35.46
447.398	35.44
447.602	35.42
447.806	35.5
448.01	35.39
448.214	35.68
448.418	35.62
448.622	35.58
448.826	35.46
449.03	35.58
449.234	35.66
449.438	35.78
449.642	35.76
449.846	35.72
450.05	35.67
450.254	35.75
450.458	35.36
450.662	35.41
450.866	35.54
451.069	35.4
451.273	35.53
451.477	35.2
451.681	35.04
451.885	34.97
452.089	35.21
452.292	34.9
452.496	35.15
452.7	35.06
452.904	35.08
453.107	34.93
453.311	35.04
453.515	34.95
453.719	35.3
453.922	35.16
454.126	35.29
454.33	34.94
454.533	35.09
454.737	34.71
454.94	34.86
455.144	34.79
455.348	34.87
455.551	34.74
455.755	34.4
455.958	34.23
456.162	34.26
456.365	34.15
456.569	34.44
456.772	34.31
456.976	34.58
457.179	34.45
457.383	34.52
457.586	34.25
457.79	34.27
457.993	34.59
458.196	34.53
458.4	34.49
458.603	34.56
458.807	34.47
459.01	34.55
459.213	34.36
459.417	34.34
459.62	34.42
459.823	34.6
460.026	34.63
460.23	34.5
460.433	34.63
460.636	34.84
460.839	34.82
461.042	34.77
461.246	34.98
461.449	35.14
461.652	35.29
461.855	35.24
462.058	35.22
462.261	35.24
462.464	35.34
462.668	35.29
462.871	35.16
463.074	35.06
463.277	34.99
463.48	34.82
463.683	34.91
463.886	34.88
464.089	34.95
464.292	35.01
464.495	35.09
464.698	35.22
464.901	35.5
465.104	35.35
465.306	35.43
465.509	35.33
465.712	35.37
465.915	35.36
466.118	35.46
466.321	35.46
466.524	35.36
466.726	35.28
466.929	35.32
467.132	35.17
467.335	35.46
467.538	35.43
467.74	35.87
467.943	36.01
468.146	36.03
468.348	35.94
468.551	36
468.754	36.08
468.956	36.12
469.159	36.28
469.362	36.2
469.564	36.13
469.767	36.18
469.969	36.02
470.172	36.04
470.375	36.02
470.577	35.98
470.78	35.96
470.982	36.15
471.185	36.19
471.387	36.03
471.59	36.16
471.792	36.33
471.995	36.5
472.197	36.39
472.399	36.15
472.602	36.29
472.804	36.48
473.007	36.55
473.209	36.54
473.411	36.65
473.614	36.76
473.816	36.68
474.018	36.46
474.22	36.57
474.423	36.8
474.625	36.92
474.827	36.91
475.03	36.93
475.232	37
475.434	36.99
475.636	36.92
475.838	36.9
476.04	37.06
476.243	37.08
476.445	36.93
476.647	36.88
476.849	36.85
477.051	36.74
477.253	36.83
477.455	36.66
477.657	36.72
477.859	36.69
478.061	36.68
478.263	36.69
478.465	36.85
478.667	36.66
478.869	36.47
479.071	36.67
479.273	36.73
479.475	36.62
479.677	36.76
479.879	36.67
480.081	36.59
480.283	36.5
480.485	36.5
480.686	36.4
480.888	36.43
481.09	36.61
481.292	36.44
481.494	36.29
481.695	36.24
481.897	36.07
482.099	36
482.301	36.05
482.502	35.91
482.704	35.88
482.906	35.8
483.107	35.78
483.309	35.65
483.511	35.61
483.712	35.56
483.914	35.55
484.115	35.59
484.317	35.59
484.519	35.58
484.72	35.55
484.922	35.51
485.123	35.45
485.325	35.48
485.526	35.52
485.728	35.56
485.929	35.6
486.131	35.6
486.332	35.61
486.534	35.54
486.735	35.52
486.936	35.7
487.138	35.7
487.339	35.76
487.541	35.79
487.742	35.76
487.943	35.71
488.144	35.66
488.346	35.68
488.547	35.64
488.748	35.68
488.95	35.71
489.151	35.62
489.352	35.67
489.553	35.71
489.755	35.69
489.956	35.65
490.157	35.7
490.358	35.89
490.559	35.9
490.76	35.89
490.961	35.85
491.163	35.91
491.364	35.96
491.565	35.83
491.766	35.83
491.967	35.88
492.168	35.95
492.369	35.98
492.57	36.04
492.771	36.08
492.972	36.12
493.173	36.3
493.374	36.28
493.575	36.4
493.776	36.68
493.976	36.77
494.177	36.69
494.378	36.85
494.579	36.74
494.78	36.76
494.981	36.76
495.182	36.9
495.382	37.01
495.583	36.89
495.784	36.88
495.985	36.84
496.185	36.79
496.386	37.06
496.587	37.17
496.788	37.42
496.988	37.28
497.189	37.37
497.39	37.26
497.59	37.18
497.791	37.26
497.992	37.23
498.192	37.21
498.393	37.23
498.593	37.13
498.794	37.24
498.994	37.32
499.195	37.56
499.395	37.38
499.596	37.44
499.796	37.6
499.997	37.77
500.197	37.79
500.398	37.86
500.598	37.96
500.799	38.11
500.999	37.99
501.199	37.85
501.4	37.72
501.6	37.95
501.801	38.16
502.001	38.12
502.201	38.24
502.402	38.45
502.602	38.61
502.802	38.91
503.002	38.88
503.203	38.99
503.403	39.06
503.603	39.34
503.803	39.66
504.003	39.86
504.204	39.89
504.404	39.84
504.604	39.89
504.804	39.96
505.004	39.93
505.204	40.06
505.404	40.27
505.604	40.41
505.804	40.47
506.005	40.59
506.205	40.54
506.405	40.84
506.605	40.9
506.805	41.06
507.005	41.18
507.204	41.19
507.404	41.25
507.604	41.11
507.804	41.16
508.004	41.23
508.204	41.19
508.404	41.32
508.604	41.34
508.804	41.44
509.003	41.44
509.203	41.51
509.403	41.74
509.603	41.98
509.803	42.14
510.002	42.26
510.202	42.24
510.402	42.29
510.602	42.34
510.801	42.45
511.001	42.68
511.201	42.93
511.4	43.18
511.6	43.18
511.8	43.16
511.999	43.42
512.199	43.63
512.398	43.92
512.598	44.1
512.797	44.19
512.997	44.06
513.197	44.19
513.396	44.28
513.596	44.16
513.795	44.26
513.994	44.45
514.194	44.55
514.393	44.62
514.593	44.65
514.792	44.77
514.992	44.79
515.191	45.09
515.39	45.11
515.59	45.2
515.789	45.41
515.988	45.64
516.188	45.76
516.387	45.82
516.586	45.97
516.786	46.22
516.985	46.36
517.184	46.76
517.383	46.83
517.582	46.93
517.782	47.03
517.981	47.18
518.18	47.38
518.379	47.44
518.578	47.41
518.777	47.65
518.976	47.63
519.176	47.6
519.375	47.54
519.574	47.67
519.773	47.78
519.972	47.95
520.171	48.08
520.37	48.08
520.569	48.28
520.768	48.32
520.967	48.22
521.166	48.34
521.365	48.55
521.564	48.76
521.762	48.72
521.961	48.99
522.16	49.12
522.359	49.25
522.558	49.55
522.757	49.58
522.956	49.96
523.154	50.17
523.353	50.34
523.552	50.5
523.751	50.55
523.949	50.59
524.148	50.43
524.347	50.51
524.546	50.56
524.744	50.43
524.943	50.57
525.142	50.53
525.34	50.56
525.539	50.6
525.737	50.58
525.936	50.58
526.135	50.79
526.333	50.98
526.532	50.99
526.73	50.91
526.929	51.08
527.127	51.1
527.326	51.16
527.524	51.26
527.723	51.33
527.921	51.4
528.12	51.42
528.318	51.43
528.516	51.37
528.715	51.47
528.913	51.66
529.112	51.69
529.31	51.74
529.508	51.9
529.707	51.97
529.905	52.05
530.103	52.13
530.301	52.29
530.5	52.46
530.698	52.73
530.896	52.82
531.094	52.89
531.293	52.92
531.491	53.09
531.689	53.19
531.887	53.19
532.085	53.24
532.283	53.37
532.481	53.46
532.68	53.51
532.878	53.53
533.076	53.5
533.274	53.58
533.472	53.7
533.67	53.81
533.868	53.86
534.066	53.94
534.264	53.99
534.462	54.07
534.66	54.23
534.858	54.35
535.056	54.5
535.253	54.65
535.451	54.67
535.649	54.76
535.847	54.75
536.045	54.81
536.243	54.85
536.441	54.92
536.638	54.91
536.836	54.88
537.034	54.89
537.232	54.85
537.43	54.98
537.627	55
537.825	55.11
538.023	55.05
538.22	55.1
538.418	55.25
538.616	55.22
538.813	55.35
539.011	55.27
539.209	55.22
539.406	55.23
539.604	55.17
539.801	55.25
539.999	55.13
540.196	55.24
540.394	55.15
540.591	55.14
540.789	55.23
540.986	55.23
541.184	55.47
541.381	55.49
541.579	55.52
541.776	55.54
541.974	55.6
542.171	55.57
542.368	55.62
542.566	55.73
542.763	55.77
542.96	55.88
543.158	55.92
543.355	55.9
543.552	56.03
543.75	56.03
543.947	56.03
544.144	55.99
544.341	56.13
544.539	56.06
544.736	55.93
544.933	56.09
545.13	56.22
545.327	56.33
545.524	56.14
545.722	56.19
545.919	56.3
546.116	56.35
546.313	56.32
546.51	56.45
546.707	56.58
546.904	56.62
547.101	56.47
547.298	56.22
547.495	56.13
547.692	56.36
547.889	56.23
548.086	56.15
548.283	56.31
548.48	56.49
548.677	56.35
548.874	56.62
549.07	56.86
549.267	56.84
549.464	57.13
549.661	57.11
549.858	57.24
550.055	57.29
550.251	57.54
550.448	57.37
550.645	57.43
550.842	57.69
551.038	57.27
551.235	57.32
551.432	57.57
551.628	57.48
551.825	57.73
552.022	57.44
552.218	57.45
552.415	57.66
552.612	57.73
552.808	57.57
553.005	57.66
553.201	57.87
553.398	57.74
553.594	57.56
553.791	57.62
553.987	57.64
554.184	57.66
554.38	58
554.577	57.81
554.773	57.85
554.97	58.17
555.166	58.11
555.362	58.2
555.559	58.35
555.755	58.58
555.952	58.66
556.148	58.66
556.344	58.91
556.541	58.64
556.737	58.75
556.933	58.99
557.129	58.68
557.326	58.83
557.522	58.67
557.718	58.69
557.914	58.68
558.11	58.43
558.307	58.59
558.503	58.62
558.699	58.9
558.895	59
559.091	59.07
559.287	59.09
559.483	58.94
559.679	58.95
559.876	59.16
560.072	59
560.268	59.24
560.464	59.05
560.66	59
560.856	58.95
561.052	58.73
561.247	58.46
561.443	58.56
561.639	58.9
561.835	59
562.031	58.64
562.227	58.93
562.423	58.99
562.619	58.82
562.815	58.76
563.01	58.57
563.206	58.77
563.402	58.65
563.598	59.06
563.793	58.74
563.989	58.74
564.185	58.75
564.381	58.74
564.576	58.76
564.772	59.03
564.968	59.09
565.163	58.95
565.359	58.96
565.555	59.09
565.75	58.97
565.946	59.07
566.141	59.24
566.337	59.41
566.532	59.38
566.728	59.36
566.923	59.3
567.119	59.32
567.314	59.39
567.51	59.31
567.705	59.64
567.901	59.42
568.096	59.45
568.292	59.42
568.487	59.35
568.682	59.27
568.878	59.32
569.073	59.3
569.268	59.19
569.464	59.52
569.659	59.88
569.854	59.61
570.05	59.67
570.245	59.59
570.44	59.54
570.635	59.51
570.831	59.55
571.026	59.67
571.221	59.65
571.416	59.72
571.611	59.78
571.806	59.32
572.002	59.17
572.197	59.03
572.392	58.9
572.587	59.01
572.782	59.3
572.977	59.38
573.172	59.31
573.367	59.21
573.562	59.4
573.757	59.28
573.952	59.37
574.147	59.78
574.342	60.04
574.537	60.26
574.732	60.29
574.927	60.12
575.121	60.12
575.316	60.29
575.511	60.49
575.706	60.57
575.901	60.79
576.096	60.91
576.29	60.84
576.485	60.85
576.68	60.68
576.875	60.79
577.069	60.75
577.264	60.71
577.459	60.51
577.654	60.63
577.848	60.37
578.043	60.26
578.238	60.36
578.432	60.37
578.627	60.37
578.821	60.78
579.016	60.76
579.21	60.77
579.405	60.79
579.6	60.81
579.794	60.89
579.989	61.13
580.183	61.2
580.378	61.13
580.572	61.19
580.766	60.89
580.961	60.81
581.155	60.69
581.35	61.02
581.544	61.12
581.738	61.11
581.933	61.13
582.127	60.95
582.321	60.77
582.516	60.65
582.71	60.48
582.904	60.86
583.099	60.79
583.293	60.83
583.487	60.75
583.681	60.53
583.875	60.65
584.07	60.45
584.264	60.83
584.458	60.8
584.652	61.12
584.846	61.43
585.04	61.67
585.234	61.56
585.428	61.31
585.623	61.32
585.817	61.69
586.011	61.54
586.205	61.63
586.399	61.35
586.593	61.29
586.787	61.42
586.981	61.22
587.174	60.83
587.368	61.2
587.562	61.38
587.756	61.24
587.95	61.24
588.144	61.48
588.338	61.41
588.532	61.41
588.725	61.59
588.919	61.31
589.113	61.38
589.307	61.82
589.501	61.62
589.694	61.68
589.888	61.61
590.082	61.38
590.275	61.08
590.469	61.02
590.663	61.14
590.856	61.12
591.05	61.06
591.244	61.26
591.437	61.07
591.631	61.18
591.824	61.06
592.018	61.18
592.212	61.72
592.405	62.19
592.599	62.28
592.792	62.33
592.986	62.48
593.179	62.82
593.372	62.64
593.566	62.33
593.759	62.23
593.953	62.01
594.146	62.07
594.339	61.76
594.533	61.23
594.726	61.48
594.92	61.18
595.113	61.11
595.306	60.77
595.499	60.83
595.693	60.87
595.886	60.76
596.079	61.04
596.272	60.95
596.466	60.55
596.659	61.07
596.852	61.14
597.045	61.49
597.238	61.51
597.431	61.85
597.624	61.97
597.818	62.24
598.011	62.28
598.204	62.42
598.397	62.16
598.59	62.55
598.783	62.4
598.976	62.22
599.169	62.07
599.362	62.17
599.555	61.91
599.748	61.81
599.941	61.47
600.134	61.5
600.326	61.55
600.519	62.23
600.712	61.97
600.905	61.97
601.098	62.02
601.291	62.44
601.483	62.25
601.676	62.46
601.869	62.52
602.062	62.67
602.255	62.69
602.447	62.57
602.64	62.63
602.833	62.86
603.025	62.8
603.218	62.86
603.411	62.32
603.603	62.27
603.796	62.11
603.989	62.03
604.181	62.19
604.374	62.22
604.566	62.21
604.759	61.94
604.951	61.92
605.144	61.79
605.336	61.89
605.529	61.88
605.721	61.87
605.914	61.87
606.106	61.52
606.299	61.39
606.491	61.33
606.683	61.44
606.876	61.53
607.068	61.56
607.26	61.7
607.453	61.52
607.645	61.59
607.837	61.7
608.03	61.61
608.222	61.84
608.414	61.59
608.606	61.85
608.799	61.73
608.991	61.85
609.183	61.85
609.375	61.68
609.567	61.6
609.759	61.69
609.952	61.49
610.144	61.55
610.336	61.44
610.528	61.7
610.72	61.46
610.912	61.29
611.104	61.03
611.296	61.03
611.488	61.12
611.68	61.26
611.872	61.25
612.064	61.43
612.256	61.4
612.448	61.86
612.64	61.51
612.832	61.22
613.023	61.75
613.215	61.65
613.407	61.65
613.599	61.65
613.791	61.52
613.983	61.5
614.174	61.52
614.366	61.57
614.558	61.57
614.75	61.89
614.941	62.22
615.133	61.79
615.325	62.18
615.516	62.12
615.708	62.1
615.9	62.09
616.091	62.37
616.283	62.52
616.475	62.3
616.666	62.02
616.858	62.16
617.049	62.2
617.241	61.77
617.432	61.67
617.624	61.71
617.815	61.93
618.007	61.71
618.198	61.7
618.39	61.58
618.581	62.14
618.773	62.14
618.964	62.04
619.155	61.97
619.347	62.43
619.538	62.55
619.729	62.46
619.921	62.32
620.112	62.61
620.303	62.29
620.494	62.41
620.686	61.73
620.877	62.02
621.068	62.17
621.259	62.55
621.451	62.65
621.642	62.75
621.833	62.73
622.024	62.4
622.215	62.35
622.406	62.69
622.597	62.9
622.788	63.46
622.98	63.37
623.171	63.37
623.362	63.26
623.553	63.16
623.744	63.06
623.935	63.26
624.126	63.61
624.317	63.41
624.508	63.4
624.698	63.55
624.889	63.7
625.08	63.5
625.271	63.27
625.462	62.88
625.653	62.84
625.844	62.79
626.034	62.77
626.225	62.96
626.416	63.24
626.607	63.11
626.798	62.72
626.988	62.37
627.179	62.58
627.37	62.51
627.56	62.71
627.751	62.69
627.942	62.87
628.132	62.83
628.323	62.44
628.514	62.23
628.704	62.21
628.895	62.46
629.085	62.59
629.276	62.41
629.466	62.77
629.657	63.07
629.847	62.96
630.038	62.83
630.228	62.75
630.419	62.77
630.609	62.82
630.8	62.78
630.99	62.52
631.181	62.57
631.371	62.73
631.561	62.37
631.752	62.21
631.942	62.41
632.132	62.43
632.323	62.54
632.513	62.8
632.703	62.86
632.893	63.18
633.084	63.54
633.274	63.54
633.464	63.31
633.654	63.61
633.844	63.44
634.034	63.53
634.225	63.23
634.415	63.17
634.605	62.96
634.795	62.94
634.985	62.67
635.175	62.59
635.365	62.49
635.555	62.74
635.745	62.56
635.935	62.58
636.125	62.58
636.315	62.88
636.505	63.03
636.695	63.29
636.885	63.44
637.075	63.46
637.265	63.1
637.455	63.66
637.644	63.35
637.834	63.45
638.024	63.45
638.214	63.51
638.404	63.17
638.593	62.88
638.783	62.89
638.973	62.96
639.163	63.02
639.352	63.07
639.542	61.87
639.732	62.05
639.921	62.05
640.111	61.82
640.301	61.41
640.49	61.57
640.68	62.03
640.87	62.13
641.059	61.99
641.249	61.9
641.438	62.52
641.628	63.36
641.817	63.18
642.007	63.07
642.196	63.12
642.386	63.89
642.575	64.11
642.764	64.04
642.954	64.05
643.143	63.94
643.333	64.37
643.522	64.04
643.711	63.85
643.901	63.91
644.09	64.11
644.279	64.4
644.469	64.33
644.658	64
644.847	63.64
645.036	63.62
645.226	63.81
645.415	63.64
645.604	63.57
645.793	63.4
645.982	63.71
646.171	63.72
646.361	63.95
646.55	63.83
646.739	64.32
646.928	64.21
647.117	63.83
647.306	63.64
647.495	62.99
647.684	62.62
647.873	62.78
648.062	62.89
648.251	62.4
648.44	61.94
648.629	61.64
648.818	62.08
649.007	62.13
649.196	62.68
649.384	62.39
649.573	62.84
649.762	63.09
649.951	63.22
650.14	62.9
650.328	63
650.517	63.42
650.706	63.39
650.895	62.81
651.083	62.63
651.272	62.4
651.461	62.83
651.65	62.5
651.838	62.26
652.027	62.01
652.216	62.19
652.404	62.68
652.593	62.78
652.781	63.27
652.97	62.87
653.158	63.34
653.347	63.47
653.535	63.94
653.724	63.93
653.912	64.7
654.101	64.65
654.289	64.84
654.478	64.72
654.666	63.95
654.855	63.58
655.043	63.92
655.231	63.52
655.42	63.64
655.608	62.93
655.796	63.49
655.985	63.05
656.173	62.99
656.361	62.58
656.55	62.43
656.738	62.62
656.926	62.36
657.114	61.98
657.302	62.83
657.491	62.89
657.679	62.74
657.867	62.06
658.055	61.71
658.243	61.99
658.431	61.47
658.619	61.26
658.807	61.81
658.996	61.96
659.184	62.36
659.372	61.87
659.56	61.67
659.748	62.16
659.936	62.5
660.124	62.83
660.311	62.7
660.499	63.22
660.687	63.45
660.875	63.26
661.063	63.25
661.251	63.34
661.439	63.51
661.627	63.53
661.814	63.3
662.002	63.28
662.19	63.2
662.378	63.43
662.565	63.36
662.753	63.61
662.941	63.44
663.129	63.58
663.316	63.49
663.504	63.43
663.692	63.56
663.879	63.05
664.067	62.78
664.254	62.68
664.442	62.65
664.63	62.51
664.817	62.16
665.005	62.62
665.192	62.15
665.38	61.92
665.567	61.92
665.755	61.6
665.942	61.73
666.13	62.33
666.317	62.52
666.504	62.41
666.692	62.35
666.879	62.64
667.067	62.14
667.254	62.47
667.441	62.7
667.629	63.33
667.816	63.43
668.003	63.75
668.19	64.1
668.378	64.24
668.565	64.13
668.752	64.34
668.939	64.08
669.127	64.43
669.314	64.13
669.501	64.45
669.688	64.02
669.875	63.54
670.062	63.16
670.249	62.11
670.436	62.19
670.623	62.55
670.81	62.6
670.997	62.36
671.184	62.5
671.371	62.91
671.558	62.5
671.745	62.39
671.932	62.87
672.119	63.34
672.306	63.26
672.493	63
672.68	62.95
672.867	63.06
673.054	63.36
673.24	62.71
673.427	62.8
673.614	62.6
673.801	62.53
673.988	62.84
674.174	62.58
674.361	63.17
674.548	63.09
674.734	63.45
674.921	63.69
675.108	63.43
675.294	63.18
675.481	63.45
675.668	64.03
675.854	64.32
676.041	64.14
676.227	63.88
676.414	63.51
676.601	64
676.787	62.85
676.974	62.89
677.16	63.34
677.347	64.04
677.533	63.32
677.719	62.72
677.906	62.29
678.092	62.77
678.279	62.96
678.465	62.77
678.651	62.56
678.838	62.78
679.024	62.56
679.21	62.17
679.397	62.34
679.583	62.37
679.769	62.65
679.955	62.91
680.142	62.2
680.328	62.33
680.514	62.86
680.7	63.06
680.886	63.08
681.073	63.35
681.259	63.39
681.445	63.3
681.631	63.19
681.817	63.45
682.003	63.51
682.189	63.54
682.375	63.34
682.561	63.62
682.747	63.28
682.933	63.71
683.119	63.03
683.305	63.26
683.491	63.03
683.677	63.32
683.863	63.01
684.049	62.94
684.235	63.64
684.42	64.19
684.606	63.89
684.792	63.82
684.978	63.29
685.164	63.8
685.349	63.28
685.535	63.27
685.721	63.31
685.907	63.19
686.092	63.63
686.278	63.54
686.464	63.22
686.649	63.18
686.835	63.55
687.021	63.61
687.206	62.87
687.392	63.67
687.577	63.45
687.763	63.42
687.948	62.69
688.134	61.89
688.319	61.73
688.505	60.99
688.69	61.19
688.876	60.64
689.061	61.09
689.247	61.97
689.432	61.68
689.618	61.69
689.803	62.24
689.988	62.73
690.174	63.06
690.359	62.63
690.544	63.61
690.73	63.42
690.915	64.19
691.1	64.13
691.285	63.66
691.471	63.29
691.656	62.88
691.841	61.55
692.026	61.35
692.211	61.49
692.396	62.03
692.582	61.36
692.767	61.32
692.952	60.63
693.137	60.26
693.322	60.42
693.507	61.1
693.692	61.58
693.877	62.77
694.062	63.16
694.247	62.98
694.432	62.48
694.617	62.65
694.802	62.32
694.987	62.68
695.172	62.87
695.357	63.25
695.541	62.93
695.726	62.97
695.911	62.71
696.096	62.93
696.281	63.2
696.466	63.2
696.65	63.45
696.835	63.4
697.02	63.19
697.204	62.92
697.389	62.55
697.574	62.47
697.759	62.08
697.943	62.08
698.128	61.61
698.312	60.81
698.497	60.88
698.682	60.98
698.866	61.18
699.051	61.23
699.235	61.64
699.42	61.4
699.604	61.56
699.789	61.82
699.973	62.04
700.158	62.23
700.342	63.07
700.527	62.72
700.711	62.82
700.895	62.42
701.08	62.81
701.264	62.52
701.448	63.04
701.633	62.89
701.817	62.92
702.001	62.85
702.186	63.03
702.37	62.94
702.554	63.07
702.738	63.21
702.923	64.2
703.107	63.28
703.291	63.68
703.475	63.98
703.659	63.43
703.843	63.59
704.027	63.51
704.212	63.46
704.396	63.3
704.58	64.05
704.764	64.09
704.948	63.9
705.132	63.67
705.316	62.38
705.5	61.47
705.684	61.84
705.868	62.11
706.052	61.78
706.235	62.35
706.419	62.34
706.603	62.79
706.787	61.83
706.971	61.59
707.155	62.09
707.339	63.41
707.522	63.89
707.706	63.24
707.89	62.43
708.074	62.49
708.257	62.21
708.441	62.1
708.625	62.16
708.808	62.52
708.992	62.49
709.176	61.98
709.359	61.37
709.543	61.35
709.727	62.05
709.91	62.22
710.094	61.83
710.277	62.14
710.461	61.9
710.644	61.71
710.828	61.52
711.011	61.2
711.195	61.18
711.378	61.62
711.562	61.38
711.745	60.72
711.928	60.69
712.112	60.36
712.295	59.92
712.478	60.3
712.662	59.2
712.845	59.06
713.028	58.69
713.212	58.26
713.395	57.69
713.578	57.39
713.761	57.98
713.945	58.29
714.128	59.34
714.311	59.2
714.494	59.14
714.677	60.2
714.86	60.83
715.043	61.19
715.227	62.26
715.41	62.37
715.593	62.46
715.776	62.86
715.959	61.96
716.142	62.14
716.325	62.19
716.508	62.66
716.691	62.3
716.874	62.31
717.057	62.61
717.239	61.94
717.422	62.16
717.605	62.44
717.788	62.26
717.971	62.75
718.154	62.04
718.337	62.42
718.519	62.04
718.702	62.3
718.885	62.33
719.068	62.36
719.25	62.67
719.433	63.05
719.616	62.92
719.798	62.75
719.981	63.64
720.164	63.43
720.346	62.71
720.529	61.56
720.712	62.04
720.894	61.39
721.077	61
721.259	61.14
721.442	61.2
721.624	61.4
721.807	61.79
721.989	61.89
722.172	63.3
722.354	62.82
722.537	62.9
722.719	62.4
722.901	63.44
723.084	63.69
723.266	63
723.448	61.85
723.631	61.87
723.813	60.77
723.995	61.12
724.178	60.44
724.36	61.46
724.542	61.64
724.724	61.6
724.907	60.84
725.089	60.16
725.271	61.33
725.453	62.64
725.635	62.62
725.817	64.54
725.999	63.18
726.181	63.13
726.364	63.05
726.546	64
726.728	63.07
726.91	63.46
727.092	63.78
727.274	63.54
727.456	63.28
727.638	63.61
727.819	63.05
728.001	63.06
728.183	63.09
728.365	63.44
728.547	62.35
728.729	62.6
728.911	62.61
729.093	62.82
729.274	62.71
729.456	61.65
729.638	60.96
729.82	60.08
730.001	60.62
730.183	60.7
730.365	60.02
730.546	60.77
730.728	60.46
730.91	59.81
731.091	59.7
731.273	59.88
731.455	61.09
731.636	61.69
731.818	61.55
731.999	61.11
732.181	60.5
732.362	61.63
732.544	60.88
732.725	61.23
732.907	61.04
733.088	61.55
733.27	61.59
733.451	60.94
733.633	61.21
733.814	61.65
733.995	61.88
734.177	62.48
734.358	61.48
734.539	63.36
734.721	63.83
734.902	64.72
735.083	63.8
735.264	64.37
735.446	64.97
735.627	64.42
735.808	64.31
735.989	65.68
736.17	65.05
736.351	64.96
736.533	63.38
736.714	63.99
736.895	63.18
737.076	65.8
737.257	64.36
737.438	63.97
737.619	64.68
737.8	65.51
737.981	64.59
738.162	64.2
738.343	64.75
738.524	64.55
738.705	63.82
738.886	64.55
739.067	62.87
739.247	63.25
739.428	63.15
739.609	62.95
739.79	62.93
739.971	62.7
740.151	62.72
740.332	61.96
740.513	61.79
740.694	62.1
740.874	61.96
741.055	61.39
741.236	61.95
741.417	61.25
741.597	61.36
741.778	60.8
741.958	60.29
742.139	60.06
742.32	60.24
742.5	61.22
742.681	61.61
742.861	60.72
743.042	61.74
743.222	60.55
743.403	60.04
743.583	60.21
743.764	61.06
743.944	62.38
744.124	64.29
744.305	64.6
744.485	65.02
744.666	62.76
744.846	63.04
745.026	63.13
745.207	63.91
745.387	66.03
745.567	64.98
745.747	62.58
745.928	62.01
746.108	60.57
746.288	61.14
746.468	60.4
746.648	60.89
746.829	60.7
747.009	60.51
747.189	60.02
747.369	59.77
747.549	60.48
747.729	62.82
747.909	61.41
748.089	62.69
748.269	61.46
748.449	61.86
748.629	62.53
748.809	64.54
748.989	63.8
749.169	64.41
749.349	65.14
749.529	63.9
749.709	64.09
749.889	64.92
750.068	64.17
750.248	64.8
750.428	64.98
750.608	64.64
750.788	63.84
750.967	64.13
751.147	64.2
751.327	63.96
751.507	65.84
751.686	65.1
751.866	63.83
752.046	62.75
752.225	62.42
752.405	62.88
752.585	62.58
752.764	63.22
752.944	63.43
753.123	63.53
753.303	64.38
753.482	63.86
753.662	63.46
753.841	65.2
754.021	66.47
754.2	65.63
754.38	64.96
754.559	66.22
754.739	64.38
754.918	64.74
755.097	65.16
755.277	63.45
755.456	62.68
755.635	62.33
755.815	62.35
755.994	62.16
756.173	64.53
756.352	64.54
756.532	64.33
756.711	64.83
756.89	62.77
757.069	60
757.248	60.36
757.427	60.46
757.607	60.37
757.786	59.96
757.965	58.64
758.144	57.34
758.323	56.56
758.502	57.82
758.681	57.56
758.86	59.3
759.039	59.86
759.218	62.12
759.397	61.75
759.576	62.13
759.755	60.65
759.934	59.97
760.113	59.82
760.291	61.11
760.47	59.93
760.649	61.2
760.828	60.44
761.007	61.75
761.186	59.48
761.364	59.97
761.543	58.43
761.722	59.7
761.901	60.08
762.079	60.64
762.258	59.6
762.437	58.26
762.615	56.96
762.794	57.75
762.972	57.58
763.151	57.23
763.33	57.05
763.508	56.84
763.687	56.41
763.865	56.82
764.044	56.56
764.222	56.78
764.401	57.55
764.579	58.76
764.758	57.66
764.936	57.95
765.114	57.66
765.293	57.51
765.471	58.45
765.65	58.89
765.828	58.92
766.006	59.5
766.184	59.47
766.363	59.17
766.541	58.76
766.719	59.26
766.898	57.21
767.076	57.8
767.254	58.34
767.432	57.17
767.61	57.3
767.788	56.62
767.967	55.01
768.145	55.28
768.323	56.11
768.501	54.68
768.679	54.67
768.857	55.8
769.035	56.69
769.213	56.85
769.391	57.55
769.569	57.53
769.747	60.32
769.925	61.3
770.103	61.64
770.281	60.52
770.459	59.67
770.636	61.29
770.814	63.82
770.992	63.73
771.17	65.23
771.348	66.75
771.525	64.91
771.703	61.99
771.881	62.46
772.059	60.96
772.236	61.27
772.414	63.59
772.592	62
772.769	60.14
772.947	59.31
773.125	58.92
773.302	58.21
773.48	61.89
773.657	64.42
773.835	64.66
774.013	67.35
774.19	67.35
774.368	67.94
774.545	66.41
774.723	68.4
774.9	67.77
775.077	67.88
775.255	70.61
775.432	68.97
775.61	67.5
775.787	67
775.964	67.61
776.142	71
776.319	69.94
776.496	72.43
776.674	71.24
776.851	69.95
777.028	67.44
777.205	65.31
777.382	63.15
777.56	65.89
777.737	65.44
777.914	63.69
778.091	59.12
778.268	59.41
778.445	59.07
778.622	60.76
778.8	62.72
778.977	63.96
779.154	63.13
779.331	65.22
779.508	63.38
779.685	62.74
779.862	63.06
780.038	65.21
780.215	64.88
780.392	67.66
780.569	65.9
780.746	64.58
780.923	66.82
781.1	66.39
781.277	69.21
781.453	66.41
781.63	66.64
781.807	62.8
781.984	62.36
782.16	61.23
782.337	59.84
782.514	59.46
782.691	60.38
782.867	55.92
783.044	58.03
783.221	57.18
783.397	60.03
783.574	58.13
783.75	62.43
783.927	65.15
784.103	65.28
784.28	64.38
784.456	65.61
784.633	67.56
784.809	69.97
784.986	70.73
785.162	68.31
785.339	66.43
785.515	69.46
785.692	68.39
785.868	66.94
786.044	67.29
786.221	67.76
786.397	66.48
786.573	65.35
786.749	62.86
786.926	61.63
787.102	64.45
787.278	63.81
787.454	63.61
787.631	63.13
787.807	62.26
787.983	62.85
788.159	61.36
788.335	61.8
788.511	59.17
788.687	60.09
788.863	61.46
789.039	59.74
789.216	61.89
789.392	61.27
789.568	61.54
789.744	61.83
789.919	61.31
790.095	60.57
790.271	60.84
790.447	62.44
790.623	62.36
790.799	64.29
790.975	65.44
791.151	63.83
791.327	65.34
791.502	62.08
791.678	63.05
791.854	64.53
792.03	63.81
792.205	62.1
792.381	62.72
792.557	65.34
792.733	63.21
792.908	59.37
793.084	58.74
793.259	56.9
793.435	60.1
793.611	59.23
793.786	59.5
793.962	60.5
794.137	63.29
794.313	63.43
794.488	58.76
794.664	55.36
794.839	56.37
795.015	56.18
795.19	57.28
795.366	56.32
795.541	56.36
795.716	54.4
795.892	53.09
796.067	52.55
796.242	51.22
796.418	52.05
796.593	53.8
796.768	54.57
796.944	56.4
797.119	53.52
797.294	55.68
797.469	54.44
797.644	57.47
797.82	59.56
797.995	57.02
798.17	56.56
798.345	55.97
798.52	54.22
798.695	55.91
798.87	51.91
799.045	52.03
799.22	53.24
799.395	52.75
799.57	53.1
799.745	53.91
799.92	55.36
800.095	58.84
800.27	60.36
800.445	64.46
800.62	63.35
800.795	66.75
800.97	69.49
801.145	67
801.319	65.5
801.494	65.56
801.669	63.47
801.844	63.33
802.018	62.58
802.193	60.94
802.368	62.64
802.543	64.67
802.717	63.4
802.892	65.53
803.067	64.33
803.241	69.74
803.416	69.34
803.59	73.1
803.765	71.47
803.94	69.68
804.114	71.33
804.289	67.47
804.463	64.47
804.638	66.33
804.812	64.18
804.986	66.87
805.161	70.18
805.335	66.23
805.51	64.02
805.684	66.19
805.858	67.15
806.033	68.19
806.207	66.95
806.381	68.34
806.556	69.49
806.73	66.39
806.904	64.49
807.078	58.74
807.253	55
807.427	55.13
807.601	51.38
807.775	50.4
807.949	51.76
808.123	51.54
808.298	51.26
808.472	51.54
808.646	51.21
808.82	50.75
808.994	54
809.168	51.73
809.342	49.63
809.516	52.74
809.69	55.9
809.864	48.9
810.038	50.24
810.212	52.34
810.385	53.9
810.559	57.18
810.733	57.72
810.907	54.17
811.081	63.31
811.255	73.41
811.428	73.01
811.602	71.4
811.776	74.85
811.95	72.1
812.123	70.28
812.297	68.29
812.471	70.16
812.644	74.28
812.818	74.91
812.992	74.54
813.165	71.7
813.339	71.4
813.512	74.6
813.686	69.87
813.86	69.58
814.033	66.27
814.207	69.9
814.38	65.6
814.554	61.03
814.727	58.14
814.9	59.83
815.074	56.82
815.247	53.88
815.421	53.06
815.594	58.72
815.767	61.78
815.941	67.98
816.114	65.76
816.287	66.39
816.46	72.45
816.634	71.99
816.807	64.48
816.98	67.71
817.153	75.94
817.327	72.96
817.5	71.21
817.673	74.68
817.846	68.14
818.019	66.22
818.192	66.29
818.365	64.93
818.538	67.45
818.711	68.42
818.884	63.6
819.057	60.69
819.23	56.71
819.403	62.14
819.576	55.64
819.749	55.4
819.922	53.41
820.095	52.84
820.268	54.17
820.441	55.35
820.614	55.93
820.786	58.03
820.959	57.24
821.132	60.45
821.305	57.26
821.477	58.45
821.65	59.27
821.823	59.98
821.996	60.3
822.168	59.68
822.341	59.82
822.514	60.45
822.686	59.91
822.859	60.36
823.031	59.85
823.204	59.75
823.376	59.59
823.549	58.9
823.722	57.43
823.894	56.63
824.067	56.47
824.239	55.62
824.411	56.03
824.584	55.78
824.756	54.71
824.929	55.36
825.101	55.77
825.273	56.42
825.446	57.14
825.618	57.93
825.79	58.4
825.963	57.36
826.135	57.67
826.307	56.24
826.479	56.67
826.652	57.1
826.824	55.66
826.996	55.63
827.168	55.95
827.34	57.06
827.512	57.72
827.684	58.76
827.856	60.09
828.029	61.68
828.201	61.19
828.373	60.62
828.545	60.49
828.717	60.67
828.889	58.67
829.061	54.33
829.232	53.74
829.404	53.43
829.576	51.42
829.748	50
829.92	46.18
830.092	47.53
830.264	46.13
830.436	46.7
830.607	43.95
830.779	46.79
830.951	53.45
831.123	51.73
831.294	53.76
831.466	53.01
831.638	51.11
831.809	52.51
831.981	52.83
832.153	52.11
832.324	47.53
832.496	48.96
832.667	48.48
832.839	44.36
833.011	49.2
833.182	48.93
833.354	50.97
833.525	50.56
833.697	46.81
833.868	48.91
834.039	49.44
834.211	51.86
834.382	53.13
834.554	50.97
834.725	53.4
834.896	49.82
835.068	47.34
835.239	47.48
835.41	46.78
835.581	49.19
835.753	46.46
835.924	49.05
836.095	48.57
836.266	45.59
836.438	49.16
836.609	48.81
836.78	51.28
836.951	57.89
837.122	55.18
837.293	59.07
837.464	60.44
837.635	59.09
837.806	59.55
837.977	57.5
838.148	62.94
838.319	65.44
838.49	60.02
838.661	57.27
838.832	48.75
839.003	51.1
839.174	49.02
839.345	50.7
839.516	54.65
839.687	54.16
839.857	52.3
840.028	48.76
840.199	49.81
840.37	48.08
840.54	57.24
840.711	62.97
840.882	71.37
841.053	71.79
841.223	68.22
841.394	64.7
841.564	67.76
841.735	68.89
841.906	76.4
842.076	71.72
842.247	83.4
842.417	85.54
842.588	92.93
842.758	79.38
842.929	92.7
843.099	84.86
843.27	92.32
843.44	77.02
843.611	89.39
843.781	83.44
843.951	85.17
844.122	76.36
844.292	65.37
844.462	63.38
844.633	74.76
844.803	66.72
844.973	66.9
845.144	62.06
845.314	72.98
845.484	92.01
845.654	98.07
845.824	86.71
845.995	93.88
846.165	110.05
846.335	103.91
846.505	76.89
846.675	91.17
846.845	104.72
847.015	98.68
847.185	85.73
847.355	74.05
847.525	67.26
847.695	75.8
847.865	73.03
848.035	79.6
848.205	76.81
848.375	88.69
848.545	73.38
848.715	66.27
848.884	74.15
849.054	74.8
849.224	64.07
849.394	67.35
849.564	48.27
849.733	52.29
849.903	46.21
850.073	43.44
850.243	89.1
850.412	110.89
850.582	126.69
850.752	125.09
850.921	133.64
851.091	137.35
851.26	136.64
851.43	144.56
851.599	146.01
851.769	128.25
851.939	119.57
852.108	122.16
852.278	143.4
852.447	135.17
852.616	119.65
852.786	143.22
852.955	136.02
853.125	171.52
853.294	153.64
853.463	124.39
853.633	105
853.802	196.14
853.971	122.8
854.141	97.67
854.31	106.99
854.479	117.78
854.648	101.08
854.818	76.35
854.987	59.49
855.156	56.59
855.325	64.27
855.494	71.92
855.663	51.64
855.832	71.78
856.001	68.29
856.171	75.68
856.34	61.14
856.509	63.44
856.678	41.92
856.847	169.73
857.016	-262.75
857.185	134.3
857.353	135.17
857.522	113.58
857.691	43.96
857.86	11.87
858.029	-45.58
858.198	-41.16
858.367	8.09
858.535	29.22
858.704	8.09
858.873	8.71
859.042	28.28
859.21	55.35
859.379	-31.81
859.548	101.05
859.717	133.71
859.885	160.38
860.054	163.44
860.222	251.51
860.391	236.74
860.56	160.18
860.728	156.34
860.897	135.73
861.065	103.66
861.234	151.9
861.402	174.8
861.571	184.21
861.739	180.68
861.908	206.45
862.076	172.36
862.244	123.07
862.413	137.75
862.581	118.42
862.749	94.01
862.918	116.29
863.086	121.93
863.254	131.08
863.423	132.2
863.591	109.86
863.759	89.07
863.927	80.54
864.096	105.66
864.264	114.99
864.432	100.17
864.6	111.17
864.768	112.34
864.936	91.55
865.104	83.68
865.272	76.77
865.44	125.03
865.608	275.52
865.776	256.38
865.944	108.52
866.112	129.69
866.28	233.59
866.448	267.18
866.616	567.42
866.784	270.33
866.952	175.2
867.12	157.1
867.288	131.83
867.455	145.03
867.623	144.43
867.791	156.99
867.959	167.11
868.127	147.12
868.294	157.79
868.462	126.21
868.63	147.71
868.797	226.34
868.965	267.77
869.133	222.58
869.3	207.24
869.468	104.25
869.636	62.22
869.803	56.48
869.971	45.15
870.138	15.27
870.306	51.47
870.473	48.35
870.641	3.98
870.808	33.95
870.975	60.9
871.143	66.81
871.31	97.49
871.478	127
871.645	134.07
871.812	165.84
871.98	130.57
872.147	103.61
872.314	108.47
872.482	130.04
872.649	123.61
872.816	125.72
872.983	131.4
873.15	123.64
873.318	87.96
873.485	184.86
873.652	175.76
873.819	183.46
873.986	145.94
874.153	138.79
874.32	117.45
874.487	120.46
874.654	102.92
874.821	99.58
874.988	89.62
875.155	124.35
875.322	136.98
875.489	72.06
875.656	76.44
875.823	115.09
875.99	91.62
876.157	82.09
876.324	111.91
876.49	140.29
876.657	150.66
876.824	197.38
876.991	247.65
877.157	143.01
877.324	221.29
877.491	189.14
877.658	233.69
877.824	375.6
877.991	228.54
878.157	316.98
878.324	525.02
878.491	1261.38
878.657	350.58
878.824	729.31
878.99	141.32
879.157	112.24
879.323	186.19
879.49	474.62
879.656	209.82
879.823	356.43
879.989	197.91
880.156	98.58
880.322	110.56
880.488	122.1
880.655	113.59
880.821	108.01
880.987	113.06
881.154	93.92
881.32	96.05
881.486	91.37
881.652	78.36
881.819	68.32
881.985	67.81
882.151	64.14
882.317	62.01
882.483	58.11
882.649	65.26
882.816	60.56
882.982	60.09
883.148	53.19
883.314	53.66
883.48	53.47
883.646	57.81
883.812	60.07
883.978	59.15
884.144	59.47
884.31	59.3
884.476	53.19
884.642	53.49
884.807	51.07
884.973	51.76
885.139	51.7
885.305	54.02
885.471	50.01
885.637	51.55
885.802	51.3
885.968	53.14
886.134	49.96
886.3	50.68
886.465	50.48
886.631	55.91
886.797	56.21
886.962	47
887.128	41.71
887.293	50.16
887.459	49.94
887.625	48.22
887.79	46.47
887.956	61.78
888.121	65.77
888.287	66.55
888.452	66.46
888.618	70.52
888.783	90.73
