Data from 2937867_Reflection_3.txt Node
Date: Wed Jul 15 15:07:52 EDT 2015
User: robert
Spectrometer: USB4E03001
Autoset integration time: false
Trigger mode: 4
Integration Time (sec): 1.000000E-1
Scans to average: 10
Electric dark correction enabled: true
Nonlinearity correction enabled: false
Boxcar width: 5
Stray light correction enabled: false
XAxis mode: Wavelengths
Stop averaging: false
Number of Pixels in Spectrum: 3648
>>>>>Begin Spectral Data<<<<<
177.566	-909.3
177.785	-255.43
178.005	459.31
178.225	157.92
178.445	196.13
178.665	225.13
178.885	73.11
179.105	229.09
179.324	-29.02
179.544	-19.18
179.764	-57.1
179.984	-21.25
180.204	-18.59
180.423	-9.24
180.643	14.9
180.863	-55.51
181.083	-91.02
181.302	-61.86
181.522	14.2
181.742	114.21
181.961	322.81
182.181	694.76
182.401	-249.9
182.621	-38.22
182.84	-45.38
183.06	-19.21
183.279	-56.95
183.499	-117.87
183.719	-88.36
183.938	-55.09
184.158	-33.22
184.377	-23.92
184.597	-26.72
184.816	-18.79
185.036	-128.39
185.256	-98.24
185.475	-45.71
185.695	825.32
185.914	214.1
186.134	90.77
186.353	101.74
186.572	110.37
186.792	79.4
187.011	87.87
187.231	144.37
187.45	163.11
187.67	108.18
187.889	72.64
188.108	140.48
188.328	121.93
188.547	168.52
188.766	178.08
188.986	108.57
189.205	44.76
189.424	91.7
189.644	198.73
189.863	279.78
190.082	157.01
190.302	-8614.29
190.521	-191.51
190.74	40.37
190.959	106.68
191.178	54.21
191.398	40.42
191.617	57.15
191.836	55.11
192.055	47.91
192.274	13.4
192.494	-2.48
192.713	-83.27
192.932	-55.23
193.151	-59.54
193.37	-8.7
193.589	-299.16
193.808	-1104.18
194.027	130.26
194.246	74.16
194.465	68.23
194.685	69.27
194.904	114.41
195.123	58.8
195.342	67.3
195.561	59.88
195.78	82.49
195.999	68.81
196.218	44.94
196.436	56.31
196.655	61.4
196.874	14.12
197.093	10
197.312	-17.22
197.531	3.58
197.75	-11.57
197.969	27.51
198.188	25.79
198.407	28.62
198.625	28.67
198.844	23.05
199.063	56.17
199.282	377.86
199.501	68.51
199.719	98.07
199.938	81.83
200.157	330.05
200.376	75.47
200.594	103.46
200.813	262.28
201.032	743.62
201.251	1404.25
201.469	-281.69
201.688	137.69
201.907	179.96
202.125	88.97
202.344	236.92
202.563	132.32
202.781	144.73
203	124.64
203.218	193.36
203.437	151.91
203.656	683.25
203.874	-416.87
204.093	-73.16
204.311	7.05
204.53	16.64
204.748	74.17
204.967	39.87
205.185	49.23
205.404	21.33
205.622	48.97
205.841	69.65
206.059	123.25
206.278	-512.5
206.496	149.59
206.715	638.04
206.933	3202.91
207.151	1054.7
207.37	185.53
207.588	267.26
207.806	165.24
208.025	158.56
208.243	-726.32
208.461	-182.1
208.68	4.75
208.898	198.12
209.116	283.35
209.335	6.09
209.553	9.45
209.771	-235.62
209.989	73.19
210.208	-67.64
210.426	-1288.89
210.644	337.44
210.862	-571.28
211.081	-209.62
211.299	1737.65
211.517	170.78
211.735	83.97
211.953	131.53
212.171	76.09
212.39	110.27
212.608	260.02
212.826	385.26
213.044	2078.47
213.262	-355.46
213.48	1058.85
213.698	-116.07
213.916	-63.09
214.134	-53.05
214.352	75.05
214.57	68.77
214.788	77.5
215.006	175.6
215.224	166.12
215.442	162.55
215.66	368.16
215.878	187.91
216.096	279.99
216.314	221.12
216.532	216.64
216.75	96.8
216.968	123.31
217.185	109.44
217.403	140.77
217.621	303.54
217.839	248.89
218.057	105.45
218.275	44.02
218.492	-16.16
218.71	53.13
218.928	44.63
219.146	46.67
219.363	57.67
219.581	94.01
219.799	126.05
220.017	131.85
220.234	128.34
220.452	181.44
220.67	176.02
220.887	189.05
221.105	186.28
221.323	432.92
221.54	-408.98
221.758	-53.8
221.976	3.76
222.193	22.4
222.411	21.16
222.629	-8.64
222.846	9.63
223.064	11.73
223.281	28.25
223.499	54.75
223.716	70.59
223.934	101.37
224.151	228.3
224.369	184.44
224.586	224.97
224.804	273.15
225.021	779.94
225.239	399
225.456	188.82
225.674	150.33
225.891	103.96
226.108	116.35
226.326	11.58
226.543	-355.93
226.76	-499.58
226.978	-234.91
227.195	-130.29
227.413	-66.12
227.63	-49.11
227.847	-73.33
228.064	-23.39
228.282	-12.12
228.499	-10.71
228.716	-4.13
228.934	1.05
229.151	9.09
229.368	9.68
229.585	12.06
229.802	9.13
230.02	8.41
230.237	7.62
230.454	-0.37
230.671	-0.08
230.888	0.75
231.105	-0.69
231.323	-4.6
231.54	-13.41
231.757	-8.5
231.974	-14.94
232.191	-5.51
232.408	-4.7
232.625	-10.74
232.842	-4.37
233.059	3.51
233.276	-3.63
233.493	-8.99
233.71	3.8
233.927	18.37
234.144	18.05
234.361	26.21
234.578	24.69
234.795	29.37
235.012	32.06
235.229	38.22
235.446	35.43
235.663	33.17
235.879	33.28
236.096	26.87
236.313	22.88
236.53	25.15
236.747	28.52
236.964	27.77
237.181	26.25
237.397	25.1
237.614	17.6
237.831	-1.55
238.048	8.24
238.264	11.64
238.481	0.61
238.698	-1.74
238.915	-6.16
239.131	-6.78
239.348	-6.98
239.565	-2.5
239.781	-0.41
239.998	0.93
240.215	6.42
240.431	2.58
240.648	6.25
240.865	15.24
241.081	13.01
241.298	12.27
241.514	11.99
241.731	11.88
241.947	13.41
242.164	13.71
242.38	13.63
242.597	16.07
242.814	16.8
243.03	16.52
243.246	15.05
243.463	16.45
243.679	16.6
243.896	15.06
244.112	14.98
244.329	15.41
244.545	14.17
244.762	14.74
244.978	10.47
245.194	9.44
245.411	9.31
245.627	11.9
245.843	13.85
246.06	14.18
246.276	15.46
246.492	16.18
246.709	15.03
246.925	15.92
247.141	16.64
247.357	17.85
247.574	18.45
247.79	17.98
248.006	18.11
248.222	17.5
248.439	16.79
248.655	15.29
248.871	15.07
249.087	14.96
249.303	13.35
249.519	12.53
249.736	11.99
249.952	10.05
250.168	10.05
250.384	8.95
250.6	9.97
250.816	11.47
251.032	14.1
251.248	12.34
251.464	13.97
251.68	17.44
251.896	13.49
252.112	12.62
252.328	12.36
252.544	12.92
252.76	12.82
252.976	10.6
253.192	10.4
253.408	12.25
253.624	16.23
253.84	15.1
254.056	12.32
254.272	14.38
254.487	14.53
254.703	18.25
254.919	18.32
255.135	18.65
255.351	19.67
255.567	20.79
255.782	15.77
255.998	10.42
256.214	11.25
256.43	10.49
256.646	10.52
256.861	6.72
257.077	-0.96
257.293	-2.42
257.508	-2.78
257.724	-7.85
257.94	-6.57
258.155	-3.88
258.371	-1.83
258.587	1.15
258.802	6.06
259.018	7.34
259.234	9.47
259.449	12.75
259.665	13
259.88	12.93
260.096	14.44
260.312	14.26
260.527	14.58
260.743	15.34
260.958	14.15
261.174	12.01
261.389	12.58
261.605	12.33
261.82	10.36
262.036	11.17
262.251	11.87
262.466	11.61
262.682	10.85
262.897	10.84
263.113	9.85
263.328	12.25
263.543	15.92
263.759	14.8
263.974	14.77
264.189	15.73
264.405	12.03
264.62	9
264.835	7.3
265.051	6.95
265.266	4.71
265.481	3.59
265.696	-0.02
265.912	-2.97
266.127	-0.5
266.342	2.34
266.557	4.4
266.773	5.62
266.988	8.06
267.203	8.31
267.418	9.78
267.633	11.9
267.848	13.32
268.064	14.44
268.279	13.76
268.494	14.1
268.709	12.76
268.924	11.59
269.139	12.34
269.354	10.47
269.569	11.03
269.784	10.17
269.999	9.42
270.214	9.55
270.429	9.35
270.644	11.07
270.859	8.49
271.074	9.35
271.289	10.59
271.504	10.42
271.719	11.08
271.934	12.06
272.149	11.33
272.363	10.9
272.578	10.81
272.793	10.73
273.008	9.41
273.223	10.47
273.438	9.69
273.653	9.77
273.867	10.51
274.082	10.59
274.297	9.38
274.512	8.81
274.726	7.9
274.941	8.11
275.156	8.43
275.371	7.8
275.585	8.54
275.8	10.66
276.015	8.57
276.229	6.8
276.444	6.91
276.659	5.85
276.873	7.16
277.088	8.87
277.302	7.56
277.517	5.79
277.732	11.42
277.946	10.68
278.161	7.41
278.375	10.16
278.59	12.31
278.804	10.35
279.019	11.98
279.233	11.68
279.448	10.18
279.662	10.32
279.877	12.17
280.091	10.58
280.306	10.54
280.52	9.85
280.735	8.02
280.949	7.38
281.163	10.62
281.378	11.4
281.592	11.42
281.806	12.41
282.021	11.87
282.235	11.42
282.449	10.39
282.664	12.19
282.878	14.02
283.092	14.63
283.307	14.77
283.521	13.4
283.735	13.54
283.949	14.36
284.164	12.75
284.378	12.81
284.592	14.04
284.806	12.11
285.02	10.61
285.234	10.86
285.449	9.47
285.663	9.73
285.877	9.55
286.091	8.48
286.305	9.64
286.519	9.59
286.733	9.68
286.947	8.17
287.161	10.06
287.375	10.06
287.589	10.74
287.803	13.43
288.017	12.52
288.231	11.05
288.445	11.26
288.659	10.63
288.873	11.92
289.087	12.52
289.301	14.06
289.515	13.59
289.729	13.36
289.943	13.51
290.157	11.48
290.371	13.87
290.584	15.36
290.798	14.76
291.012	14.3
291.226	14.92
291.44	15.13
291.654	12.47
291.867	13.87
292.081	15.34
292.295	14.09
292.509	15.2
292.722	12.86
292.936	13.45
293.15	12.25
293.364	11.77
293.577	11.26
293.791	11.76
294.005	15.14
294.218	13.23
294.432	14.09
294.645	14.11
294.859	14
295.073	14.05
295.286	14.2
295.5	15.82
295.713	15.36
295.927	15.29
296.14	14.42
296.354	14.16
296.568	15.49
296.781	15.13
296.994	15.03
297.208	15.36
297.421	16.03
297.635	15.49
297.848	15.77
298.062	15.31
298.275	17.05
298.489	16.67
298.702	16.57
298.915	16.69
299.129	15.82
299.342	15.91
299.555	15.73
299.769	14.32
299.982	15.25
300.195	14.43
300.409	16.17
300.622	14.92
300.835	13.91
301.048	13.17
301.262	11.87
301.475	12.86
301.688	12.8
301.901	12.94
302.115	13.05
302.328	13.83
302.541	14.79
302.754	14.04
302.967	13.76
303.18	15.99
303.393	18.38
303.607	17.63
303.82	17.28
304.033	19.8
304.246	20.13
304.459	21.08
304.672	19
304.885	20.25
305.098	21.52
305.311	20.97
305.524	20.54
305.737	18.5
305.95	20.06
306.163	21.91
306.376	19.1
306.589	19.11
306.802	18.62
307.015	20.92
307.228	18.84
307.44	18.59
307.653	21.91
307.866	22.46
308.079	21.71
308.292	22.4
308.505	20.74
308.718	21.64
308.93	20.68
309.143	21.4
309.356	20.49
309.569	19.57
309.781	19.69
309.994	17.35
310.207	18.24
310.42	19.61
310.632	19.91
310.845	19.69
311.058	20.1
311.27	20.82
311.483	18.71
311.696	17.91
311.908	19.12
312.121	18.25
312.333	17.97
312.546	18.3
312.759	18.77
312.971	18.52
313.184	16.75
313.396	16.96
313.609	17.17
313.821	17.96
314.034	19.06
314.246	18.63
314.459	18.54
314.671	17.39
314.884	15.83
315.096	14.29
315.309	12.75
315.521	15
315.733	12.95
315.946	12.55
316.158	15.04
316.371	14.57
316.583	13.85
316.795	14.51
317.008	16.07
317.22	15.84
317.432	17.67
317.644	20.45
317.857	18.77
318.069	18.74
318.281	17.78
318.494	18.67
318.706	20.14
318.918	22.95
319.13	22.56
319.342	23.49
319.555	22.29
319.767	21.07
319.979	18.15
320.191	20.24
320.403	22.35
320.615	20.33
320.827	21.26
321.039	19.97
321.252	18.03
321.464	19.37
321.676	20.46
321.888	21.28
322.1	23.53
322.312	24.87
322.524	25.8
322.736	24.55
322.948	29.38
323.16	27.05
323.372	28.2
323.584	28.19
323.796	30.27
324.007	30.35
324.219	32.09
324.431	30.84
324.643	31.96
324.855	31.9
325.067	32.78
325.279	31.22
325.491	33.57
325.702	32.2
325.914	33.35
326.126	31.89
326.338	30.17
326.55	30.92
326.761	32.27
326.973	31.11
327.185	31.58
327.396	32.5
327.608	32.38
327.82	31.85
328.032	33.51
328.243	35.33
328.455	37.29
328.666	39.82
328.878	41.9
329.09	42.27
329.301	44.71
329.513	46.07
329.725	46.19
329.936	48
330.148	48.2
330.359	50.47
330.571	50.59
330.782	50.69
330.994	52.33
331.205	51.86
331.417	51.45
331.628	52
331.84	53.8
332.051	55.56
332.262	55.17
332.474	56.84
332.685	57.69
332.897	59.82
333.108	61.96
333.319	62.16
333.531	63.55
333.742	66.88
333.953	66.37
334.165	66.26
334.376	66.6
334.587	69.94
334.799	69.5
335.01	69.3
335.221	70.08
335.432	71
335.644	71.45
335.855	72.08
336.066	72.67
336.277	75.11
336.488	76.18
336.7	78.19
336.911	77.81
337.122	79.44
337.333	80.14
337.544	80.59
337.755	79.35
337.966	80.42
338.177	80.65
338.388	80.87
338.599	82.62
338.811	82.66
339.022	83.17
339.233	85.87
339.444	86.75
339.655	87.33
339.866	87.08
340.076	87.51
340.287	87.62
340.498	87.96
340.709	87.84
340.92	85.07
341.131	84.47
341.342	82.73
341.553	82.08
341.764	81.69
341.975	82.5
342.185	83.07
342.396	84.38
342.607	85.03
342.818	85.1
343.029	86.24
343.239	87.69
343.45	87.23
343.661	88.83
343.872	87.46
344.082	87.74
344.293	87.83
344.504	88.95
344.714	89.19
344.925	88.34
345.136	88.4
345.346	88.17
345.557	87.15
345.768	88.58
345.978	87.66
346.189	90.29
346.399	89.58
346.61	89.52
346.821	88.47
347.031	89.01
347.242	90.32
347.452	89.57
347.663	89.65
347.873	91.82
348.084	93.34
348.294	94.61
348.504	93.13
348.715	95.01
348.925	95.9
349.136	97.19
349.346	96.4
349.557	95.3
349.767	95.85
349.977	95.17
350.188	94.76
350.398	92.57
350.608	91.8
350.819	90.94
351.029	90.47
351.239	90.23
351.449	88.25
351.66	87.82
351.87	87.7
352.08	88.96
352.29	88.96
352.501	88.12
352.711	89.74
352.921	90.01
353.131	90.41
353.341	88.58
353.552	86.72
353.762	88.1
353.972	88.31
354.182	89.73
354.392	87.66
354.602	88.21
354.812	87.97
355.022	87.57
355.232	87.72
355.442	87.46
355.652	87.75
355.862	88.56
356.072	87.65
356.282	88.05
356.492	87.19
356.702	87.61
356.912	87.15
357.122	85.09
357.332	84.58
357.542	85.46
357.752	85.3
357.962	86.08
358.171	86.26
358.381	85.75
358.591	84.9
358.801	84.77
359.011	84.57
359.221	84.59
359.43	86.93
359.64	85.43
359.85	84.48
360.06	84.36
360.269	85.15
360.479	85.34
360.689	85.48
360.899	86.38
361.108	86.93
361.318	87.01
361.528	87.92
361.737	86.8
361.947	86.47
362.156	85.97
362.366	86.29
362.576	85.95
362.785	86.55
362.995	86.78
363.204	85.81
363.414	83.92
363.623	84.09
363.833	82.46
364.042	82.98
364.252	84.52
364.461	84.95
364.671	84.35
364.88	83.38
365.09	82.15
365.299	82.02
365.509	80.83
365.718	82.17
365.927	81.53
366.137	81.09
366.346	81.42
366.555	80.92
366.765	80.69
366.974	81.2
367.183	81.02
367.393	80.66
367.602	80.63
367.811	81.61
368.021	81.14
368.23	81.21
368.439	81.37
368.648	80.04
368.857	80.09
369.067	79.47
369.276	77.37
369.485	76.6
369.694	75.72
369.903	74.46
370.112	74.19
370.321	74.22
370.531	74.01
370.74	73.85
370.949	73.91
371.158	72.83
371.367	72.35
371.576	72.79
371.785	73.59
371.994	74.4
372.203	74.43
372.412	73.88
372.621	72.8
372.83	72
373.039	71.51
373.248	70.25
373.457	69.92
373.666	70.32
373.874	70.6
374.083	69.62
374.292	69.13
374.501	69.2
374.71	69.19
374.919	68.54
375.128	67.96
375.336	67.36
375.545	67.6
375.754	67.88
375.963	66.97
376.171	66.79
376.38	66.42
376.589	65.13
376.798	64.87
377.006	64.39
377.215	64.38
377.424	65.08
377.632	65.23
377.841	65.83
378.05	65.63
378.258	65.29
378.467	64.47
378.675	63.83
378.884	64.33
379.093	64.16
379.301	64.6
379.51	63.92
379.718	62.84
379.927	62.9
380.135	62.04
380.344	61.38
380.552	60.19
380.761	59.76
380.969	59.71
381.177	59.34
381.386	59.03
381.594	57.89
381.803	58.04
382.011	58.31
382.219	57.82
382.428	57.11
382.636	57.04
382.845	57.91
383.053	57.96
383.261	57.12
383.469	56.1
383.678	55.21
383.886	55.17
384.094	54.96
384.302	54.09
384.511	53.85
384.719	53.79
384.927	52.97
385.135	52.61
385.343	52.3
385.552	51.99
385.76	51.94
385.968	51.57
386.176	51.19
386.384	51.17
386.592	50.82
386.8	50.42
387.008	50.05
387.216	50.26
387.424	49.38
387.633	48.6
387.841	48.27
388.049	48.15
388.257	47.65
388.465	47.56
388.672	46.52
388.88	46.06
389.088	45.25
389.296	44.73
389.504	44.26
389.712	44.47
389.92	44.41
390.128	44.44
390.336	44.13
390.544	44.31
390.751	43.64
390.959	43.53
391.167	43.88
391.375	43.66
391.583	43.58
391.79	43.44
391.998	43.21
392.206	43.17
392.414	42.9
392.621	42.28
392.829	41.99
393.037	41.89
393.244	42
393.452	41.26
393.66	41.43
393.867	41.42
394.075	40.91
394.283	40.34
394.49	40.15
394.698	39.99
394.905	39.73
395.113	39.63
395.32	39.68
395.528	39.4
395.735	39.11
395.943	38.74
396.15	38.99
396.358	39.32
396.565	39.19
396.773	39.05
396.98	38.97
397.188	39.18
397.395	38.86
397.602	38.64
397.81	38.21
398.017	38.8
398.225	38.66
398.432	37.78
398.639	37.17
398.847	37.12
399.054	36.65
399.261	36.42
399.468	36.22
399.676	36.01
399.883	35.93
400.09	36.08
400.297	36.08
400.505	35.98
400.712	36.36
400.919	36.99
401.126	37.05
401.333	37.47
401.54	37.81
401.748	38.05
401.955	38.08
402.162	38.05
402.369	37.97
402.576	37.49
402.783	37.45
402.99	37.01
403.197	36.79
403.404	36.94
403.611	36.52
403.818	36.38
404.025	35.87
404.232	36.09
404.439	36.21
404.646	36.31
404.853	36.31
405.06	36.27
405.267	36.2
405.474	36.06
405.681	35.83
405.887	36.13
406.094	36.12
406.301	36.57
406.508	36.6
406.715	36.26
406.922	36.07
407.128	35.79
407.335	35.83
407.542	36.1
407.749	35.87
407.955	35.61
408.162	35.33
408.369	35.18
408.575	35.33
408.782	35.07
408.989	35.19
409.195	35.09
409.402	35.19
409.609	35.04
409.815	34.76
410.022	34.86
410.228	35.18
410.435	34.91
410.642	34.94
410.848	34.52
411.055	34.46
411.261	34.57
411.468	34.66
411.674	34.52
411.881	34.26
412.087	34.49
412.294	34.36
412.5	33.92
412.706	34.45
412.913	34.12
413.119	34.38
413.326	33.99
413.532	33.6
413.738	33.39
413.945	33.85
414.151	33.95
414.357	33.69
414.564	33.53
414.77	34
414.976	33.6
415.182	33.87
415.389	33.61
415.595	33.78
415.801	33.77
416.007	33.76
416.214	33.36
416.42	33.13
416.626	33.41
416.832	33.69
417.038	33.69
417.244	33.49
417.45	33.32
417.657	33.15
417.863	33.38
418.069	33.28
418.275	33.29
418.481	33.25
418.687	33.5
418.893	33.43
419.099	33.23
419.305	32.89
419.511	32.97
419.717	32.87
419.923	32.93
420.129	32.92
420.335	32.98
420.541	32.86
420.746	32.77
420.952	32.53
421.158	32.47
421.364	32.45
421.57	32.44
421.776	32.52
421.982	32.43
422.187	32.29
422.393	32.1
422.599	32.04
422.805	32.18
423.01	32.23
423.216	32.22
423.422	32.05
423.628	32.03
423.833	32.17
424.039	32.16
424.245	32.31
424.45	32.4
424.656	32.2
424.862	32.07
425.067	31.89
425.273	31.97
425.478	32.01
425.684	31.98
425.889	31.99
426.095	31.83
426.301	31.69
426.506	31.73
426.712	31.6
426.917	31.86
427.123	31.96
427.328	31.75
427.533	31.45
427.739	31.52
427.944	31.46
428.15	31.35
428.355	31.31
428.561	31.42
428.766	31.18
428.971	31.19
429.177	30.98
429.382	30.66
429.587	30.94
429.793	31.11
429.998	31.04
430.203	31.08
430.408	30.95
430.614	30.9
430.819	30.92
431.024	30.99
431.229	31.03
431.434	31.21
431.64	31.53
431.845	31.67
432.05	31.66
432.255	31.73
432.46	31.53
432.665	31.49
432.87	31.71
433.076	31.52
433.281	31.58
433.486	31.58
433.691	31.64
433.896	31.45
434.101	31.36
434.306	31.27
434.511	31.21
434.716	31.34
434.921	31.43
435.126	31.35
435.331	31.34
435.535	31.23
435.74	31.03
435.945	30.86
436.15	30.81
436.355	30.6
436.56	30.75
436.765	30.88
436.97	31.28
437.174	31.35
437.379	31.31
437.584	31.13
437.789	31.05
437.993	31.31
438.198	31.37
438.403	31.52
438.608	31.8
438.812	31.8
439.017	31.65
439.222	31.36
439.426	31.44
439.631	31.38
439.836	31.29
440.04	31.4
440.245	31.32
440.45	31.21
440.654	31.25
440.859	31.15
441.063	31.01
441.268	31.04
441.472	30.97
441.677	30.71
441.881	30.65
442.086	30.84
442.29	30.84
442.495	30.63
442.699	30.7
442.904	30.68
443.108	30.58
443.312	30.57
443.517	30.49
443.721	30.58
443.925	30.8
444.13	30.96
444.334	30.97
444.538	30.91
444.743	31.03
444.947	31.07
445.151	30.89
445.356	31
445.56	31
445.764	30.9
445.968	30.83
446.173	30.76
446.377	30.67
446.581	30.62
446.785	30.53
446.989	30.49
447.193	30.35
447.398	30.4
447.602	30.19
447.806	30.26
448.01	30.19
448.214	30.01
448.418	30.04
448.622	29.91
448.826	29.66
449.03	29.43
449.234	29.45
449.438	29.43
449.642	29.29
449.846	29.14
450.05	28.95
450.254	29.01
450.458	29.16
450.662	28.91
450.866	28.95
451.069	29.35
451.273	29.88
451.477	29.95
451.681	30.07
451.885	30.15
452.089	30.11
452.292	29.76
452.496	29.77
452.7	29.62
452.904	29.88
453.107	29.78
453.311	29.68
453.515	29.32
453.719	29.31
453.922	29.04
454.126	28.9
454.33	29.24
454.533	29.52
454.737	29.59
454.94	29.84
455.144	29.47
455.348	29.31
455.551	28.95
455.755	29.17
455.958	29.12
456.162	29.56
456.365	29.72
456.569	29.61
456.772	29.62
456.976	29.75
457.179	29.68
457.383	29.77
457.586	29.92
457.79	30.11
457.993	29.83
458.196	29.78
458.4	29.57
458.603	29.38
458.807	29.25
459.01	29.28
459.213	29.16
459.417	29.21
459.62	29.1
459.823	28.98
460.026	28.96
460.23	28.97
460.433	28.93
460.636	28.89
460.839	29.02
461.042	28.95
461.246	28.95
461.449	28.83
461.652	28.69
461.855	28.68
462.058	28.86
462.261	29.06
462.464	29.11
462.668	29.03
462.871	29.11
463.074	29.13
463.277	29.37
463.48	29.37
463.683	29.53
463.886	29.72
464.089	30.03
464.292	30.01
464.495	29.67
464.698	29.89
464.901	30.16
465.104	30.02
465.306	30.05
465.509	29.93
465.712	30.09
465.915	30.04
466.118	29.95
466.321	29.6
466.524	29.66
466.726	29.9
466.929	29.76
467.132	29.47
467.335	29.45
467.538	29.34
467.74	29.49
467.943	29.37
468.146	29.26
468.348	29.12
468.551	29.47
468.754	29.42
468.956	29.3
469.159	29.29
469.362	29.43
469.564	29.52
469.767	29.55
469.969	29.47
470.172	29.4
470.375	29.56
470.577	29.62
470.78	29.49
470.982	29.57
471.185	29.58
471.387	29.82
471.59	29.82
471.792	29.81
471.995	29.85
472.197	29.86
472.399	30.02
472.602	30.06
472.804	30.18
473.007	30.18
473.209	30.27
473.411	30.51
473.614	30.33
473.816	30.24
474.018	30.43
474.22	30.51
474.423	30.44
474.625	30.26
474.827	30.08
475.03	30.06
475.232	30.01
475.434	29.93
475.636	29.77
475.838	29.87
476.04	30
476.243	29.92
476.445	29.89
476.647	29.99
476.849	30.19
477.051	30.16
477.253	30.13
477.455	30.16
477.657	30.12
477.859	30.24
478.061	30.18
478.263	30.29
478.465	30.11
478.667	30.09
478.869	30.04
479.071	29.97
479.273	30.17
479.475	30.06
479.677	30.2
479.879	30.27
480.081	30.19
480.283	30.16
480.485	29.92
480.686	30.12
480.888	30.22
481.09	30.22
481.292	30.16
481.494	30
481.695	30.26
481.897	30.17
482.099	30.28
482.301	30.41
482.502	30.51
482.704	30.64
482.906	30.63
483.107	30.62
483.309	30.59
483.511	30.58
483.712	30.64
483.914	30.63
484.115	30.62
484.317	30.56
484.519	30.49
484.72	30.47
484.922	30.47
485.123	30.45
485.325	30.42
485.526	30.47
485.728	30.55
485.929	30.58
486.131	30.54
486.332	30.58
486.534	30.61
486.735	30.69
486.936	30.66
487.138	30.66
487.339	30.65
487.541	30.7
487.742	30.76
487.943	30.75
488.144	30.67
488.346	30.59
488.547	30.56
488.748	30.65
488.95	30.62
489.151	30.63
489.352	30.67
489.553	30.58
489.755	30.55
489.956	30.48
490.157	30.56
490.358	30.7
490.559	30.77
490.76	30.8
490.961	30.7
491.163	30.77
491.364	30.81
491.565	30.73
491.766	30.82
491.967	30.82
492.168	30.8
492.369	30.68
492.57	30.65
492.771	30.63
492.972	30.65
493.173	30.56
493.374	30.43
493.575	30.35
493.776	30.37
493.976	30.43
494.177	30.44
494.378	30.55
494.579	30.67
494.78	30.7
494.981	30.78
495.182	30.77
495.382	30.85
495.583	30.93
495.784	30.94
495.985	31.03
496.185	31.15
496.386	31.34
496.587	31.16
496.788	31.16
496.988	31.17
497.189	31.04
497.39	31.07
497.59	31.19
497.791	31.27
497.992	31.36
498.192	31.24
498.393	31.15
498.593	31.03
498.794	31.14
498.994	31.08
499.195	31.11
499.395	31.33
499.596	31.47
499.796	31.51
499.997	31.48
500.197	31.52
500.398	31.82
500.598	31.69
500.799	31.64
500.999	31.68
501.199	31.7
501.4	31.85
501.6	32.08
501.801	31.84
502.001	32.01
502.201	32.09
502.402	32.14
502.602	32.16
502.802	32.46
503.002	32.47
503.203	32.51
503.403	32.49
503.603	32.53
503.803	32.47
504.003	32.86
504.204	32.62
504.404	32.9
504.604	32.81
504.804	32.84
505.004	32.76
505.204	32.87
505.404	33.01
505.604	33.16
505.804	33.22
506.005	33.22
506.205	33.23
506.405	33.5
506.605	33.46
506.805	33.66
507.005	33.74
507.204	34.11
507.404	34.16
507.604	34.08
507.804	34.33
508.004	34.36
508.204	34.57
508.404	34.46
508.604	34.38
508.804	34.32
509.003	34.39
509.203	34.39
509.403	34.34
509.603	34.43
509.803	34.62
510.002	34.53
510.202	34.56
510.402	34.5
510.602	34.61
510.801	34.91
511.001	34.9
511.201	34.98
511.4	35.12
511.6	35.13
511.8	35.23
511.999	35.36
512.199	35.56
512.398	35.72
512.598	35.91
512.797	36.16
512.997	36.33
513.197	36.4
513.396	36.44
513.596	36.57
513.795	36.82
513.994	36.93
514.194	37.16
514.393	37.33
514.593	37.42
514.792	37.32
514.992	37.18
515.191	36.93
515.39	37.15
515.59	37.21
515.789	37.16
515.988	37.26
516.188	37.36
516.387	37.4
516.586	37.36
516.786	37.47
516.985	37.74
517.184	37.95
517.383	38.18
517.582	38.35
517.782	38.48
517.981	38.62
518.18	38.46
518.379	38.38
518.578	38.45
518.777	38.58
518.976	38.61
519.176	38.54
519.375	38.69
519.574	38.81
519.773	38.8
519.972	38.94
520.171	38.97
520.37	39.18
520.569	39.33
520.768	39.41
520.967	39.5
521.166	39.57
521.365	39.76
521.564	39.91
521.762	39.82
521.961	39.93
522.16	40.05
522.359	40.12
522.558	40.18
522.757	40.57
522.956	40.68
523.154	40.61
523.353	40.75
523.552	40.72
523.751	40.81
523.949	40.91
524.148	41.27
524.347	41.32
524.546	41.53
524.744	41.62
524.943	41.72
525.142	41.99
525.34	42.2
525.539	42.31
525.737	42.43
525.936	42.58
526.135	42.89
526.333	42.78
526.532	43.05
526.73	43.11
526.929	43.27
527.127	43.27
527.326	43.39
527.524	43.52
527.723	43.64
527.921	43.78
528.12	43.83
528.318	43.86
528.516	44
528.715	43.99
528.913	44.05
529.112	43.99
529.31	44.02
529.508	43.89
529.707	43.86
529.905	43.87
530.103	43.98
530.301	43.9
530.5	43.88
530.698	43.85
530.896	43.83
531.094	43.88
531.293	44.11
531.491	44.18
531.689	44.44
531.887	44.62
532.085	44.75
532.283	44.79
532.481	44.88
532.68	44.88
532.878	45.06
533.076	45.13
533.274	45.21
533.472	45.25
533.67	45.35
533.868	45.41
534.066	45.44
534.264	45.64
534.462	45.54
534.66	45.59
534.858	45.76
535.056	45.68
535.253	45.74
535.451	45.61
535.649	45.71
535.847	45.67
536.045	45.66
536.243	45.62
536.441	45.43
536.638	45.56
536.836	45.68
537.034	45.58
537.232	45.58
537.43	45.58
537.627	45.93
537.825	45.7
538.023	45.82
538.22	45.8
538.418	45.76
538.616	45.8
538.813	45.8
539.011	45.9
539.209	45.94
539.406	46.3
539.604	46.33
539.801	46.47
539.999	46.7
540.196	46.9
540.394	46.98
540.591	47.17
540.789	47.35
540.986	47.48
541.184	47.52
541.381	47.59
541.579	47.41
541.776	47.36
541.974	47.2
542.171	47.19
542.368	47.12
542.566	47.12
542.763	47.06
542.96	46.91
543.158	46.89
543.355	46.89
543.552	46.88
543.75	46.93
543.947	47.15
544.144	47.22
544.341	47.33
544.539	47.22
544.736	47.38
544.933	47.53
545.13	47.74
545.327	47.71
545.524	47.71
545.722	47.87
545.919	48.02
546.116	47.94
546.313	48
546.51	48.07
546.707	48.2
546.904	48.07
547.101	48.05
547.298	48.02
547.495	48.06
547.692	48.13
547.889	48.06
548.086	48.05
548.283	48.18
548.48	48.35
548.677	48.36
548.874	48.37
549.07	48.34
549.267	48.4
549.464	48.36
549.661	48.59
549.858	48.55
550.055	48.76
550.251	48.49
550.448	48.47
550.645	48.19
550.842	48.22
551.038	48.47
551.235	48.76
551.432	48.68
551.628	48.81
551.825	48.78
552.022	48.94
552.218	48.94
552.415	49.38
552.612	49.47
552.808	49.71
553.005	49.84
553.201	49.83
553.398	49.79
553.594	49.97
553.791	50.08
553.987	50.11
554.184	50.22
554.38	50.04
554.577	49.97
554.773	49.89
554.97	49.82
555.166	49.67
555.362	49.81
555.559	49.66
555.755	49.68
555.952	49.71
556.148	49.79
556.344	49.81
556.541	50.03
556.737	50.18
556.933	50.43
557.129	50.54
557.326	50.69
557.522	50.68
557.718	51.01
557.914	51.15
558.11	51.06
558.307	51.27
558.503	51.23
558.699	51.38
558.895	51.49
559.091	51.67
559.287	51.67
559.483	51.87
559.679	51.86
559.876	51.85
560.072	51.81
560.268	51.72
560.464	51.64
560.66	51.83
560.856	51.86
561.052	51.87
561.247	51.83
561.443	52.07
561.639	52.04
561.835	52.19
562.031	52.35
562.227	52.44
562.423	52.7
562.619	52.72
562.815	52.67
563.01	52.59
563.206	52.7
563.402	52.63
563.598	52.45
563.793	52.51
563.989	52.59
564.185	52.59
564.381	52.68
564.576	52.65
564.772	52.71
564.968	52.83
565.163	52.95
565.359	52.57
565.555	52.82
565.75	52.88
565.946	52.89
566.141	52.82
566.337	52.8
566.532	52.95
566.728	53.08
566.923	53.08
567.119	53.26
567.314	53.38
567.51	53.76
567.705	53.72
567.901	53.81
568.096	53.69
568.292	53.83
568.487	54.03
568.682	53.74
568.878	53.84
569.073	53.85
569.268	53.67
569.464	53.89
569.659	53.83
569.854	53.86
570.05	53.87
570.245	54.11
570.44	54.09
570.635	54.27
570.831	54.67
571.026	54.53
571.221	54.69
571.416	54.86
571.611	54.63
571.806	54.76
572.002	54.76
572.197	54.81
572.392	54.83
572.587	54.84
572.782	54.6
572.977	54.67
573.172	54.94
573.367	55.12
573.562	55.01
573.757	54.96
573.952	54.85
574.147	54.93
574.342	55.17
574.537	55.37
574.732	55.49
574.927	55.57
575.121	55.69
575.316	55.4
575.511	55.35
575.706	55.39
575.901	55.53
576.096	55.75
576.29	55.85
576.485	55.73
576.68	55.54
576.875	55.46
577.069	55.55
577.264	55.26
577.459	55.4
577.654	55.24
577.848	55.26
578.043	55.28
578.238	55.33
578.432	55.18
578.627	55.16
578.821	55.18
579.016	55.28
579.21	55.37
579.405	55.42
579.6	55.22
579.794	55.45
579.989	55.28
580.183	55.06
580.378	54.9
580.572	54.96
580.766	54.97
580.961	55
581.155	55.05
581.35	54.81
581.544	54.88
581.738	55.13
581.933	55.02
582.127	55.2
582.321	55.7
582.516	55.62
582.71	55.54
582.904	55.57
583.099	55.64
583.293	55.51
583.487	55.69
583.681	55.44
583.875	55.85
584.07	55.95
584.264	56.25
584.458	56.1
584.652	56.34
584.846	56.57
585.04	56.51
585.234	56.52
585.428	56.75
585.623	56.73
585.817	56.73
586.011	56.44
586.205	56.29
586.399	56.17
586.593	55.88
586.787	55.91
586.981	55.78
587.174	56.11
587.368	56.07
587.562	56.16
587.756	56.09
587.95	56.69
588.144	56.86
588.338	56.78
588.532	56.65
588.725	57.43
588.919	57.73
589.113	58.09
589.307	57.89
589.501	58.15
589.694	57.97
589.888	57.95
590.082	57.72
590.275	57.58
590.469	57.71
590.663	57.77
590.856	57.48
591.05	57.13
591.244	56.86
591.437	56.91
591.631	56.8
591.824	56.94
592.018	56.8
592.212	56.94
592.405	56.9
592.599	57.12
592.792	57.19
592.986	57.22
593.179	57.29
593.372	57.49
593.566	57.58
593.759	57.59
593.953	57.45
594.146	57.63
594.339	57.46
594.533	57.67
594.726	57.38
594.92	57.29
595.113	57.15
595.306	57.23
595.499	57.14
595.693	57.21
595.886	57.21
596.079	57.46
596.272	57.59
596.466	57.73
596.659	57.76
596.852	57.94
597.045	58.03
597.238	58.03
597.431	58.11
597.624	58.1
597.818	58.11
598.011	58.38
598.204	58.17
598.397	58.34
598.59	58.45
598.783	58.28
598.976	58.32
599.169	58.59
599.362	58.6
599.555	58.5
599.748	58.26
599.941	58.3
600.134	58.11
600.326	58.3
600.519	58.41
600.712	58.32
600.905	58.58
601.098	58.59
601.291	58.55
601.483	58.88
601.676	58.98
601.869	59.38
602.062	59.26
602.255	59.06
602.447	58.99
602.64	58.72
602.833	58.72
603.025	58.61
603.218	58.54
603.411	58.44
603.603	58.41
603.796	58.57
603.989	58.41
604.181	58.61
604.374	58.68
604.566	58.57
604.759	58.62
604.951	58.45
605.144	58.29
605.336	58.14
605.529	58
605.721	57.99
605.914	57.51
606.106	57.5
606.299	57.37
606.491	57.48
606.683	57.82
606.876	57.97
607.068	58.06
607.26	58.18
607.453	58.41
607.645	58.6
607.837	58.54
608.03	58.92
608.222	58.94
608.414	58.68
608.606	58.38
608.799	58.19
608.991	58.02
609.183	57.98
609.375	58.08
609.567	57.75
609.759	57.62
609.952	57.42
610.144	57.03
610.336	56.83
610.528	56.89
610.72	57.1
610.912	56.82
611.104	56.66
611.296	56.58
611.488	56.27
611.68	56.46
611.872	56.6
612.064	56.54
612.256	56.91
612.448	56.87
612.64	57.05
612.832	56.83
613.023	56.87
613.215	56.82
613.407	56.95
613.599	57.4
613.791	57.11
613.983	56.98
614.174	57.15
614.366	56.94
614.558	57.32
614.75	57.19
614.941	57.06
615.133	57.13
615.325	57.3
615.516	57.31
615.708	57.24
615.9	57.38
616.091	57.58
616.283	57.96
616.475	58.34
616.666	58.36
616.858	58.1
617.049	58.35
617.241	58.53
617.432	58.52
617.624	58.32
617.815	58.28
618.007	58.68
618.198	58.76
618.39	58.5
618.581	58.29
618.773	58.52
618.964	58.74
619.155	58.78
619.347	58.72
619.538	58.65
619.729	58.41
619.921	58.45
620.112	58.53
620.303	58.41
620.494	58.26
620.686	58.48
620.877	58.53
621.068	58.56
621.259	58.6
621.451	58.58
621.642	58.82
621.833	59.02
622.024	59.09
622.215	59.03
622.406	58.91
622.597	58.76
622.788	58.75
622.98	58.37
623.171	58.47
623.362	58.01
623.553	58.19
623.744	57.85
623.935	57.89
624.126	57.78
624.317	57.76
624.508	57.76
624.698	57.67
624.889	57.51
625.08	57.55
625.271	57.7
625.462	57.92
625.653	58.07
625.844	58.04
626.034	58.39
626.225	58.38
626.416	58.42
626.607	58.33
626.798	58.76
626.988	59.11
627.179	58.84
627.37	58.51
627.56	58.59
627.751	58.51
627.942	58.8
628.132	58.87
628.323	58.94
628.514	58.88
628.704	59.11
628.895	58.85
629.085	58.42
629.276	58.64
629.466	58.78
629.657	58.86
629.847	58.9
630.038	58.75
630.228	58.38
630.419	58.12
630.609	58.21
630.8	58.04
630.99	58.01
631.181	58.03
631.371	58.21
631.561	58.07
631.752	58.03
631.942	57.79
632.132	58.23
632.323	58.52
632.513	58.91
632.703	58.73
632.893	58.46
633.084	58.35
633.274	58.65
633.464	58.28
633.654	58.32
633.844	58.32
634.034	58.65
634.225	58.43
634.415	58.28
634.605	57.88
634.795	58.15
634.985	58.43
635.175	58.54
635.365	58.62
635.555	58.77
635.745	58.85
635.935	59.42
636.125	59.26
636.315	58.99
636.505	59.27
636.695	59.75
636.885	59.58
637.075	59.49
637.265	59.63
637.455	59.22
637.644	59.22
637.834	59.29
638.024	59.03
638.214	59.1
638.404	59.28
638.593	58.99
638.783	58.7
638.973	58.77
639.163	58.83
639.352	59.02
639.542	59.09
639.732	59.11
639.921	59.08
640.111	58.81
640.301	59.05
640.49	59.02
640.68	59
640.87	59.25
641.059	59.28
641.249	59.89
641.438	59.53
641.628	59.8
641.817	59.95
642.007	59.85
642.196	59.86
642.386	59.17
642.575	59.35
642.764	59.5
642.954	59.23
643.143	59.39
643.333	58.93
643.522	59.62
643.711	59.09
643.901	58.82
644.09	58.83
644.279	59.07
644.469	58.98
644.658	58.81
644.847	58.59
645.036	58.25
645.226	57.85
645.415	57.98
645.604	57.64
645.793	58.05
645.982	58.31
646.171	58.2
646.361	57.66
646.55	58.38
646.739	58.1
646.928	58.58
647.117	58.54
647.306	58.8
647.495	58.61
647.684	58.4
647.873	58.14
648.062	58.12
648.251	57.98
648.44	57.89
648.629	57.54
648.818	57.72
649.007	57.59
649.196	57.77
649.384	57.69
649.573	57.64
649.762	57.53
649.951	58.04
650.14	58.19
650.328	58.27
650.517	58.83
650.706	59.12
650.895	59.48
651.083	59.56
651.272	59.77
651.461	59.45
651.65	59.81
651.838	60.42
652.027	59.66
652.216	59.48
652.404	59.26
652.593	58.89
652.781	58.61
652.97	58.27
653.158	57.76
653.347	57.76
653.535	57.77
653.724	57.67
653.912	57.52
654.101	58.15
654.289	58.45
654.478	59.21
654.666	59.21
654.855	59.27
655.043	58.91
655.231	59.1
655.42	58.96
655.608	58.93
655.796	58.39
655.985	58.08
656.173	57.97
656.361	57.64
656.55	57.47
656.738	57.67
656.926	57.72
657.114	57.99
657.302	58.32
657.491	58.35
657.679	58.78
657.867	59.04
658.055	59.07
658.243	59.1
658.431	59.15
658.619	59.27
658.807	59.14
658.996	59.59
659.184	59.78
659.372	59.98
659.56	59.97
659.748	59.8
659.936	59.74
660.124	59.67
660.311	59.39
660.499	60.06
660.687	60.06
660.875	60.1
661.063	59.85
661.251	59.75
661.439	59.34
661.627	59.1
661.814	58.6
662.002	58.41
662.19	58.66
662.378	58.52
662.565	57.54
662.753	57.1
662.941	57.08
663.129	56.72
663.316	56.14
663.504	55.91
663.692	56.86
663.879	57.72
664.067	57.68
664.254	57.66
664.442	58.22
664.63	58.4
664.817	58.26
665.005	58.31
665.192	57.89
665.38	58.47
665.567	58.85
665.755	58.53
665.942	57.7
666.13	58.26
666.317	58.34
666.504	57.93
666.692	57.71
666.879	58.12
667.067	57.65
667.254	58.11
667.441	58.3
667.629	57.96
667.816	58.17
668.003	58.68
668.19	58.11
668.378	58.02
668.565	58.32
668.752	58.66
668.939	58.76
669.127	59.03
669.314	58.57
669.501	58.41
669.688	58.73
669.875	58.27
670.062	58.45
670.249	58.76
670.436	58.2
670.623	58.1
670.81	58.05
670.997	58.3
671.184	58.87
671.371	59.53
671.558	59.4
671.745	59.36
671.932	58.96
672.119	58.71
672.306	58.81
672.493	59.45
672.68	59.5
672.867	59.34
673.054	59.08
673.24	58.59
673.427	58.22
673.614	57.6
673.801	57.43
673.988	58.17
674.174	58.61
674.361	58.09
674.548	58.15
674.734	58.47
674.921	58.72
675.108	59.4
675.294	59.22
675.481	59.06
675.668	59.62
675.854	59.58
676.041	59.19
676.227	58.62
676.414	58.78
676.601	58.72
676.787	58.12
676.974	58.11
677.16	57.22
677.347	58.14
677.533	58.19
677.719	57.72
677.906	57.93
678.092	58.01
678.279	58.36
678.465	58.34
678.651	58.02
678.838	58.35
679.024	58.17
679.21	58.64
679.397	58.25
679.583	58.56
679.769	58.83
679.955	58.44
680.142	58.8
680.328	58.73
680.514	59.17
680.7	59.55
680.886	59.67
681.073	59.72
681.259	59.28
681.445	59.51
681.631	58.9
681.817	59.28
682.003	59.89
682.189	59.07
682.375	59.02
682.561	58.98
682.747	59.06
682.933	58.7
683.119	58.48
683.305	58.93
683.491	58.85
683.677	59.22
683.863	59.82
684.049	59.73
684.235	59.92
684.42	59.87
684.606	59.02
684.792	59.4
684.978	59.79
685.164	59.87
685.349	59.46
685.535	58.64
685.721	58.86
685.907	58.3
686.092	58.47
686.278	58.64
686.464	58.55
686.649	58.9
686.835	57.93
687.021	57.72
687.206	57.6
687.392	57.01
687.577	57.4
687.763	57.24
687.948	56.94
688.134	56.58
688.319	57.31
688.505	57.1
688.69	57.27
688.876	57.44
689.061	57.5
689.247	57.76
689.432	58.45
689.618	58.37
689.803	58.93
689.988	59.01
690.174	59.42
690.359	58.42
690.544	58.51
690.73	58.56
690.915	58.23
691.1	58.31
691.285	58.24
691.471	58.19
691.656	58
691.841	57.27
692.026	57.74
692.211	57.53
692.396	57.83
692.582	57.86
692.767	57.67
692.952	57.62
693.137	57.57
693.322	57.28
693.507	57.13
693.692	57.89
693.877	57.28
694.062	56.82
694.247	56.63
694.432	56.75
694.617	57.44
694.802	57.63
694.987	57.89
695.172	57.19
695.357	57.61
695.541	58.25
695.726	58.05
695.911	58.73
696.096	58.53
696.281	58.79
696.466	58.57
696.65	59.06
696.835	59.23
697.02	59.52
697.204	59.74
697.389	60.29
697.574	59.77
697.759	59.46
697.943	59.64
698.128	59.53
698.312	59.5
698.497	59.7
698.682	59.15
698.866	58.61
699.051	58.59
699.235	58.54
699.42	57.8
699.604	58.4
699.789	58.56
699.973	58.47
700.158	58.56
700.342	58.16
700.527	57.62
700.711	57.53
700.895	58.13
701.08	58.13
701.264	58.38
701.448	59.07
701.633	58.08
701.817	57.79
702.001	57.55
702.186	57.38
702.37	57.45
702.554	58.58
702.738	58.4
702.923	58.12
703.107	57.9
703.291	57.82
703.475	57.45
703.659	57.26
703.843	57.64
704.027	57.56
704.212	57.22
704.396	58.14
704.58	57.91
704.764	57.61
704.948	57.88
705.132	57.98
705.316	58.08
705.5	58.14
705.684	58.52
705.868	57.56
706.052	57.99
706.235	58.13
706.419	57.29
706.603	57.59
706.787	57.47
706.971	58.22
707.155	57.28
707.339	57.45
707.522	56.92
707.706	57.24
707.89	57.7
708.074	57.91
708.257	58.9
708.441	59.29
708.625	59.06
708.808	58.84
708.992	57.11
709.176	57.49
709.359	56.86
709.543	57.25
709.727	57.65
709.91	57.35
710.094	57.14
710.277	56.23
710.461	55.25
710.644	54.41
710.828	54.59
711.011	54.89
711.195	55.34
711.378	55.8
711.562	55.99
711.745	55.37
711.928	55.83
712.112	55.78
712.295	56.79
712.478	57.66
712.662	58.9
712.845	59.81
713.028	60.73
713.212	61.4
713.395	60.54
713.578	60.61
713.761	61.28
713.945	61.56
714.128	61.1
714.311	59.96
714.494	59.46
714.677	58.45
714.86	57.58
715.043	57.51
715.227	56.9
715.41	58.21
715.593	58.55
715.776	57.64
715.959	57.24
716.142	57.84
716.325	58.26
716.508	58.94
716.691	59.67
716.874	59.77
717.057	59.54
717.239	59.75
717.422	59.27
717.605	58.56
717.788	58.59
717.971	58.48
718.154	58.13
718.337	57.36
718.519	56.81
718.702	56.14
718.885	56.25
719.068	55.53
719.25	54.47
719.433	54.7
719.616	55.46
719.798	55.85
719.981	57.18
720.164	57.54
720.346	58.59
720.529	57.62
720.712	57.87
720.894	58.25
721.077	58.19
721.259	58.78
721.442	58.06
721.624	57.63
721.807	57.16
721.989	55.54
722.172	56.07
722.354	56.63
722.537	57.79
722.719	57.87
722.901	58.14
723.084	58.64
723.266	59.03
723.448	58.96
723.631	59.07
723.813	59.17
723.995	59.41
724.178	58.28
724.36	57.93
724.542	57.92
724.724	58.32
724.907	57.31
725.089	58.6
725.271	59.2
725.453	59.19
725.635	58.19
725.817	58.11
725.999	58.45
726.181	58.88
726.364	59.45
726.546	58.22
726.728	58.62
726.91	59.56
727.092	59.31
727.274	57.71
727.456	57.42
727.638	57.72
727.819	57.87
728.001	57.31
728.183	57.26
728.365	55.82
728.547	56.45
728.729	56.72
728.911	56.19
729.093	55.68
729.274	56.73
729.456	58.18
729.638	57.76
729.82	58.99
730.001	60.08
730.183	59.63
730.365	60.78
730.546	61.18
730.728	60.54
730.91	60.56
731.091	60.2
731.273	60.02
731.455	60.25
731.636	61.1
731.818	59.85
731.999	58.73
732.181	60.34
732.362	60.03
732.544	59.55
732.725	59.03
732.907	59.61
733.088	59.17
733.27	58.22
733.451	57.71
733.633	58.71
733.814	59.4
733.995	59.92
734.177	58.83
734.358	59.43
734.539	60.58
734.721	60.67
734.902	60.24
735.083	61.15
735.264	62.02
735.446	61.43
735.627	60.34
735.808	60.37
735.989	59.86
736.17	59.79
736.351	58.45
736.533	57.77
736.714	58
736.895	58.07
737.076	56.97
737.257	56.76
737.438	56.14
737.619	55.95
737.8	55.67
737.981	57.54
738.162	57.35
738.343	56.16
738.524	55.75
738.705	55.2
738.886	56.01
739.067	57
739.247	56.8
739.428	57.62
739.609	58.47
739.79	57.92
739.971	55.78
740.151	55.13
740.332	57.16
740.513	56.38
740.694	57.2
740.874	56.07
741.055	55.83
741.236	56.69
741.417	57.41
741.597	55.97
741.778	56.65
741.958	56.62
742.139	57.24
742.32	55.81
742.5	56.53
742.681	54.95
742.861	55.28
743.042	54.98
743.222	53.67
743.403	51.17
743.583	51.07
743.764	52.07
743.944	53
744.124	54.28
744.305	55.87
744.485	56.88
744.666	57.47
744.846	56.03
745.026	55.83
745.207	56.08
745.387	57.26
745.567	58.27
745.747	56.46
745.928	55.47
746.108	53.19
746.288	53.04
746.468	51.63
746.648	49.31
746.829	50.31
747.009	50.35
747.189	50.76
747.369	51.43
747.549	50.79
747.729	49.31
747.909	48.85
748.089	50.21
748.269	51.07
748.449	52.26
748.629	53.63
748.809	53.87
748.989	53.49
749.169	52.72
749.349	53.08
749.529	53.26
749.709	54.82
749.889	54.67
750.068	54.58
750.248	53.93
750.428	53.51
750.608	54.69
750.788	54.64
750.967	55.07
751.147	55.52
751.327	54.82
751.507	56.12
751.686	57.28
751.866	58.91
752.046	58.87
752.225	60.18
752.405	60.64
752.585	61.16
752.764	61.91
752.944	61.93
753.123	61.97
753.303	61.96
753.482	61.34
753.662	60.41
753.841	60.3
754.021	61.17
754.2	59.32
754.38	58.32
754.559	58.78
754.739	59
754.918	58.14
755.097	58.25
755.277	58.15
755.456	57.07
755.635	56.94
755.815	56.99
755.994	55.12
756.173	55.47
756.352	54.85
756.532	54.28
756.711	53.4
756.89	55.79
757.069	55.4
757.248	54.75
757.427	55.52
757.607	55.94
757.786	55.14
757.965	55.51
758.144	54.9
758.323	56.25
758.502	55.42
758.681	56.44
758.86	53.82
759.039	55.95
759.218	55.58
759.397	54.96
759.576	54.59
759.755	54.75
759.934	54.94
760.113	56.62
760.291	56.17
760.47	57.34
760.649	57.11
760.828	58.12
761.007	56.17
761.186	57.77
761.364	58.26
761.543	57.5
761.722	57.71
761.901	57.27
762.079	55.78
762.258	55.54
762.437	54.99
762.615	53.66
762.794	54.02
762.972	54.69
763.151	53.68
763.33	53.46
763.508	53.9
763.687	54.17
763.865	55.19
764.044	54.53
764.222	54.11
764.401	54.95
764.579	55.98
764.758	56.17
764.936	56.13
765.114	57.79
765.293	57.01
765.471	55.96
765.65	56.06
765.828	55.75
766.006	58.15
766.184	59.08
766.363	58.54
766.541	57.53
766.719	57.79
766.898	58.93
767.076	57.22
767.254	59.35
767.432	61.04
767.61	60.91
767.788	61.54
767.967	59.15
768.145	59.44
768.323	57.43
768.501	59.14
768.679	58.65
768.857	57.18
769.035	57.28
769.213	56.28
769.391	57.06
769.569	55.26
769.747	54.91
769.925	54.19
770.103	52.97
770.281	54.56
770.459	55.22
770.636	56.73
770.814	57.26
770.992	57.39
771.17	57.65
771.348	56.53
771.525	59.65
771.703	58.56
771.881	60.98
772.059	61.23
772.236	60.45
772.414	57.64
772.592	57.26
772.769	55.6
772.947	55.26
773.125	55.68
773.302	55.99
773.48	57.15
773.657	57.58
773.835	55.35
774.013	55.83
774.19	54.83
774.368	55.89
774.545	56.81
774.723	55.84
774.9	57.16
775.077	57.15
775.255	58.25
775.432	56.19
775.61	55.08
775.787	53.89
775.964	52.6
776.142	54.31
776.319	50.86
776.496	49.34
776.674	50.16
776.851	50.99
777.028	51.33
777.205	48.63
777.382	47.93
777.56	47.65
777.737	50.94
777.914	51.42
778.091	51.45
778.268	55.68
778.445	57.06
778.622	58.89
778.8	56.6
778.977	55.43
779.154	55.75
779.331	55.9
779.508	54.51
779.685	54.28
779.862	54.8
780.038	55.93
780.215	55.34
780.392	47.9
780.569	48.18
780.746	47.35
780.923	48.62
781.1	49.05
781.277	47.87
781.453	51.1
781.63	48.3
781.807	44.95
781.984	42.06
782.16	44.69
782.337	52.5
782.514	53.78
782.691	55.77
782.867	57.57
783.044	58.1
783.221	59.47
783.397	58.37
783.574	59.7
783.75	60.63
783.927	62.58
784.103	58.43
784.28	54.94
784.456	52.04
784.633	50.03
784.809	46.12
784.986	45.07
785.162	44.87
785.339	44.94
785.515	48.97
785.692	51.63
785.868	49.81
786.044	52.65
786.221	54.76
786.397	55.2
786.573	58.66
786.749	59.2
786.926	60.53
787.102	61.73
787.278	64.14
787.454	60.86
787.631	59.57
787.807	58.55
787.983	56.22
788.159	53.9
788.335	55.98
788.511	54.02
788.687	56.02
788.863	56.86
789.039	53.9
789.216	52.64
789.392	51.97
789.568	53.93
789.744	59.12
789.919	61.74
790.095	62.52
790.271	63.47
790.447	62.5
790.623	62.94
790.799	61.88
790.975	62.49
791.151	63.77
791.327	66.37
791.502	67.58
791.678	63.42
791.854	61.61
792.03	60.23
792.205	56.2
792.381	57.97
792.557	56.16
792.733	53.88
792.908	56.82
793.084	54.37
793.259	54.19
793.435	54.36
793.611	54.79
793.786	55.1
793.962	55.4
794.137	57.59
794.313	53.1
794.488	56.43
794.664	61.62
794.839	60.61
795.015	62.69
795.19	60.65
795.366	56.9
795.541	54.03
795.716	55.7
795.892	57.85
796.067	54.77
796.242	60.28
796.418	60.8
796.593	58.67
796.768	57.23
796.944	55.57
797.119	56.29
797.294	57.31
797.469	59.96
797.644	61.05
797.82	59.53
797.995	60.03
798.17	57.64
798.345	54.79
798.52	53.91
798.695	53.43
798.87	52.28
799.045	51.37
799.22	52.54
799.395	51.82
799.57	49.74
799.745	51.1
799.92	52.67
800.095	53.12
800.27	50.63
800.445	51.63
800.62	51.7
800.795	53.94
800.97	56.53
801.145	58.42
801.319	56.56
801.494	59.27
801.669	55.81
801.844	57.05
802.018	55.37
802.193	54.42
802.368	49.54
802.543	48.4
802.717	48.18
802.892	44.05
803.067	43.42
803.241	47.79
803.416	44.89
803.59	45.55
803.765	45.09
803.94	49.35
804.114	48.49
804.289	50.49
804.463	54.26
804.638	55.57
804.812	63.95
804.986	61.49
805.161	59.76
805.335	60.5
805.51	63.73
805.684	61.22
805.858	59.47
806.033	59.28
806.207	60.73
806.381	62.76
806.556	59.15
806.73	51.24
806.904	51.69
807.078	53.01
807.253	54.68
807.427	48.4
807.601	52.95
807.775	47.6
807.949	51.46
808.123	50.48
808.298	47.96
808.472	44.36
808.646	44.96
808.82	41.29
808.994	42.15
809.168	38.04
809.342	39.44
809.516	40.09
809.69	45.53
809.864	44.6
810.038	50.49
810.212	51.36
810.385	53.93
810.559	54.36
810.733	57.44
810.907	55.41
811.081	56.31
811.255	61.54
811.428	62.45
811.602	58.06
811.776	56.86
811.95	47.39
812.123	40.14
812.297	41.74
812.471	43.69
812.644	48
812.818	52.66
812.992	55.11
813.165	51.35
813.339	50.03
813.512	59.56
813.686	63.77
813.86	68.2
814.033	75.37
814.207	70.16
814.38	71.73
814.554	62.09
814.727	54.55
814.9	54.34
815.074	58.54
815.247	57.21
815.421	53.06
815.594	48.6
815.767	51.37
815.941	49.75
816.114	51.4
816.287	49.73
816.46	50.39
816.634	55.68
816.807	54.88
816.98	51.37
817.153	56.02
817.327	52.13
817.5	60.5
817.673	59.95
817.846	59.71
818.019	62.76
818.192	60.69
818.365	65.88
818.538	59.82
818.711	56.56
818.884	63
819.057	56.7
819.23	61.31
819.403	55.67
819.576	55.57
819.749	55.13
819.922	53.73
820.095	59.56
820.268	60.44
820.441	65.18
820.614	67.33
820.786	61.15
820.959	60.05
821.132	60.73
821.305	60.79
821.477	60.23
821.65	60.37
821.823	58.94
821.996	57.18
822.168	56.86
822.341	56.45
822.514	56.12
822.686	56.21
822.859	55.78
823.031	56.52
823.204	56.42
823.376	57.3
823.549	57.2
823.722	57.41
823.894	57.2
824.067	56.88
824.239	57.26
824.411	56.92
824.584	57.08
824.756	57.86
824.929	56.88
825.101	57.74
825.273	56.51
825.446	56.28
825.618	57.94
825.79	59.13
825.963	59.78
826.135	58.93
826.307	59.82
826.479	60.86
826.652	60.7
826.824	61.71
826.996	61.23
827.168	60.93
827.34	60.7
827.512	58.66
827.684	57.14
827.856	56.79
828.029	56.76
828.201	55.81
828.373	53.06
828.545	52.07
828.717	48.31
828.889	46.4
829.061	46.71
829.232	46.42
829.404	46.53
829.576	45.32
829.748	43.61
829.92	43.55
830.092	42.01
830.264	44.4
830.436	45.32
830.607	46.69
830.779	45.71
830.951	47.07
831.123	43.01
831.294	44.45
831.466	48.08
831.638	48.54
831.809	51.73
831.981	48.46
832.153	50.11
832.324	47.85
832.496	52.34
832.667	49
832.839	45.25
833.011	50.61
833.182	50.1
833.354	48.08
833.525	49.05
833.697	48.6
833.868	51.56
834.039	47.52
834.211	51.43
834.382	49.84
834.554	53.96
834.725	55.31
834.896	55.2
835.068	55.3
835.239	56.6
835.41	57.49
835.581	57
835.753	58.68
835.924	62.74
836.095	60.55
836.266	64.33
836.438	65.49
836.609	64.32
836.78	66.2
836.951	62.46
837.122	63.4
837.293	60.37
837.464	60.17
837.635	59.75
837.806	60.59
837.977	56.54
838.148	51.97
838.319	48.08
838.49	45.84
838.661	48.45
838.832	56.09
839.003	55.26
839.174	59.17
839.345	56.94
839.516	51.4
839.687	49.64
839.857	52.32
840.028	58.13
840.199	60.22
840.37	62.23
840.54	52.73
840.711	45.53
840.882	47.06
841.053	43.16
841.223	47.08
841.394	50.52
841.564	49.95
841.735	62.37
841.906	63.77
842.076	67.8
842.247	58.74
842.417	66.68
842.588	72.58
842.758	71.49
842.929	67.65
843.099	68.66
843.27	75.23
843.44	78.25
843.611	61.62
843.781	50.58
843.951	36.08
844.122	47.68
844.292	30.94
844.462	24.33
844.633	7.95
844.803	5.41
844.973	-15.38
845.144	-15.31
845.314	-28.84
845.484	-12.12
845.654	-6.03
845.824	10.17
845.995	1.59
846.165	15.13
846.335	13.73
846.505	17.13
846.675	11.65
846.845	18.96
847.015	27.52
847.185	39.54
847.355	42.43
847.525	42.52
847.695	27.68
847.865	18.21
848.035	16.72
848.205	18.12
848.375	20.2
848.545	19.3
848.715	17.08
848.884	-6.73
849.054	0.43
849.224	-10.26
849.394	-25.26
849.564	1.15
849.733	-8.4
849.903	-16.42
850.073	-6.48
850.243	9.18
850.412	2.33
850.582	29.33
850.752	46.17
850.921	51.65
851.091	73.16
851.26	74.82
851.43	60.58
851.599	88.22
851.769	100.29
851.939	70.65
852.108	74.84
852.278	80.2
852.447	63.4
852.616	79.96
852.786	86.84
852.955	71.91
853.125	72.88
853.294	74.46
853.463	79.39
853.633	86.06
853.802	115.61
853.971	107.32
854.141	109.36
854.31	107.05
854.479	77
854.648	92.94
854.818	116.23
854.987	142.5
855.156	144.38
855.325	133.76
855.494	120.47
855.663	98.46
855.832	108.39
856.001	117.2
856.171	141.4
856.34	176.73
856.509	145.7
856.678	102.46
856.847	98.46
857.016	67.01
857.185	83.68
857.353	82.24
857.522	91.55
857.691	89.38
857.86	80.8
858.029	81.13
858.198	83.73
858.367	62.7
858.535	48.68
858.704	61.38
858.873	83.69
859.042	67.62
859.21	71.87
859.379	86.05
859.548	64.81
859.717	35.53
859.885	23.61
860.054	45.3
860.222	61.51
860.391	52.23
860.56	9.7
860.728	-22.09
860.897	16.44
861.065	-13.72
861.234	29.18
861.402	41.55
861.571	88.37
861.739	47.5
861.908	41.39
862.076	44.59
862.244	51.29
862.413	55.15
862.581	62.14
862.749	63.09
862.918	50.42
863.086	40.87
863.254	19.45
863.423	15.62
863.591	66.07
863.759	58.86
863.927	76.36
864.096	113.66
864.264	98.58
864.432	98.02
864.6	104.14
864.768	101.93
864.936	103.13
865.104	124.27
865.272	73.03
865.44	61.4
865.608	85.39
865.776	65.32
865.944	41.84
866.112	37.88
866.28	36.18
866.448	57.37
866.616	53.91
866.784	49.5
866.952	58.43
867.12	81.61
867.288	79
867.455	58.48
867.623	59.45
867.791	53.93
867.959	49.36
868.127	70.59
868.294	28.28
868.462	10.7
868.63	-10.85
868.797	-53.99
868.965	44.84
869.133	61.36
869.3	98.87
869.468	121.12
869.636	119
869.803	98.57
869.971	83.7
870.138	100.85
870.306	118.28
870.473	130.51
870.641	116.34
870.808	96.28
870.975	84.03
871.143	24.67
871.31	7.73
871.478	-15.82
871.645	14.77
871.812	7.1
871.98	-40.97
872.147	-58.94
872.314	-3.67
872.482	-0.24
872.649	-16.43
872.816	4.63
872.983	21.12
873.15	24.22
873.318	16.73
873.485	-11.82
873.652	-18.39
873.819	-23.39
873.986	-5.25
874.153	-88.75
874.32	-107.35
874.487	-75.45
874.654	-126.62
874.821	-131.32
874.988	-206.66
875.155	-83.99
875.322	22.45
875.489	48.3
875.656	76.03
875.823	97.2
875.99	128.52
876.157	133.24
876.324	134.41
876.49	117.92
876.657	105.95
876.824	129.77
876.991	106.28
877.157	121
877.324	114.39
877.491	136.11
877.658	134.33
877.824	99.04
877.991	109.76
878.157	123.19
878.324	122.38
878.491	117.92
878.657	65.43
878.824	68.9
878.99	51.84
879.157	44.52
879.323	28.48
879.49	1.64
879.656	5.94
879.823	-7.54
879.989	8.39
880.156	1.51
880.322	-40.24
880.488	-33.08
880.655	-21.53
880.821	-22.92
880.987	-48.53
881.154	-2.83
881.32	4.86
881.486	30.39
881.652	31.96
881.819	25.32
881.985	36.88
882.151	40.83
882.317	45.22
882.483	50.63
882.649	52.4
882.816	56.65
882.982	56.63
883.148	54.86
883.314	54.72
883.48	55.59
883.646	54.69
883.812	50.91
883.978	53.89
884.144	55.11
884.31	53.74
884.476	54.86
884.642	55.79
884.807	57.04
884.973	59.15
885.139	60.73
885.305	60.72
885.471	60.31
885.637	57.15
885.802	60.49
885.968	62.51
886.134	67.57
886.3	63.59
886.465	58.67
886.631	53.26
886.797	54.21
886.962	47.82
887.128	50.77
887.293	51.9
887.459	57.95
887.625	45.87
887.79	33.79
887.956	33.42
888.121	37.5
888.287	41.61
888.452	40.86
888.618	36.33
888.783	41.56
