Data from 2937840_Reflection_3.txt Node
Date: Wed Jul 15 16:20:09 EDT 2015
User: robert
Spectrometer: USB4E03001
Autoset integration time: false
Trigger mode: 4
Integration Time (sec): 1.000000E-1
Scans to average: 10
Electric dark correction enabled: true
Nonlinearity correction enabled: false
Boxcar width: 5
Stray light correction enabled: false
XAxis mode: Wavelengths
Stop averaging: false
Number of Pixels in Spectrum: 3648
>>>>>Begin Spectral Data<<<<<
177.566	4.52
177.785	-26.52
178.005	-118.59
178.225	-689.04
178.445	-40.31
178.665	178.63
178.885	233.23
179.105	73.75
179.324	76.44
179.544	2975
179.764	17.92
179.984	35.09
180.204	-24.1
180.423	-63.21
180.643	-100.8
180.863	-70.83
181.083	-138.65
181.302	-76.65
181.522	-108.31
181.742	-93.76
181.961	-59.55
182.181	-12251.85
182.401	-322.05
182.621	-78.22
182.84	38.98
183.06	58.22
183.279	12.51
183.499	-4.77
183.719	-19.87
183.938	3.62
184.158	-47.78
184.377	-54.64
184.597	-29.72
184.816	-49.54
185.036	-88
185.256	-94.2
185.475	-214.04
185.695	-268.01
185.914	-151.33
186.134	-335.24
186.353	-10341.77
186.572	-600
186.792	-157.04
187.011	-183.5
187.231	-553.06
187.45	-309.28
187.67	-168.8
187.889	-70.13
188.108	-63.62
188.328	-68.7
188.547	-123.66
188.766	-235.74
188.986	-314.71
189.205	588.43
189.424	402.46
189.644	606.79
189.863	660.49
190.082	457.81
190.302	280.67
190.521	318.13
190.74	299.87
190.959	296.5
191.178	535.49
191.398	169.94
191.617	-2254.55
191.836	389.68
192.055	166.31
192.274	556.56
192.494	597.64
192.713	-42.86
192.932	118.7
193.151	55.29
193.37	57.3
193.589	37.18
193.808	-505.51
194.027	2.24
194.246	20.19
194.465	-20.69
194.685	4795
194.904	202.88
195.123	-490.72
195.342	1819.62
195.561	154.05
195.78	147.34
195.999	77.23
196.218	6926.32
196.436	-28.58
196.655	5.34
196.874	-316.51
197.093	-18607.41
197.312	661.94
197.531	-148.7
197.75	-50.86
197.969	-87.94
198.188	-33.73
198.407	24.31
198.625	26.71
198.844	46.02
199.063	30.97
199.282	25
199.501	37.28
199.719	19.54
199.938	22.6
200.157	-2.46
200.376	24.33
200.594	41.34
200.813	233.28
201.032	45.28
201.251	94.74
201.469	-99.29
201.688	11.76
201.907	-0.68
202.125	213.26
202.344	13.58
202.563	-62.72
202.781	-652
203	108.81
203.218	206.18
203.437	385.76
203.656	210.5
203.874	177.87
204.093	173.52
204.311	221.95
204.53	159
204.748	405.21
204.967	5614.84
205.185	-513.22
205.404	-214.6
205.622	-92.17
205.841	-48.28
206.059	-49.03
206.278	-17.63
206.496	-54.82
206.715	-34.79
206.933	-52.03
207.151	-8.74
207.37	13.83
207.588	26.53
207.806	18.76
208.025	3.85
208.243	-16.5
208.461	-10.78
208.68	-4.1
208.898	24.43
209.116	43.4
209.335	27.27
209.553	19.36
209.771	32.15
209.989	-2.22
210.208	-19.69
210.426	-50.43
210.644	-109.16
210.862	-84
211.081	-160.48
211.299	-187.65
211.517	-226.56
211.735	-1965
211.953	-3528.82
212.171	301.41
212.39	341.08
212.608	-3541.53
212.826	-2110.21
213.044	-97.64
213.262	-128.48
213.48	-262.41
213.698	2241.24
213.916	-213.1
214.134	-108.92
214.352	-216.64
214.57	-576.27
214.788	529.28
215.006	336.83
215.224	-733.99
215.442	-1006.03
215.66	313.17
215.878	221.7
216.096	1594.96
216.314	295.85
216.532	167.24
216.75	319.73
216.968	-1577.93
217.185	-83.08
217.403	-206.25
217.621	1242.58
217.839	867.59
218.057	597.81
218.275	-1372.62
218.492	-1324.12
218.71	-967.48
218.928	-608.85
219.146	-107.47
219.363	-49.06
219.581	-68.4
219.799	11.87
220.017	28.91
220.234	47.15
220.452	44.45
220.67	22.38
220.887	22.51
221.105	4.47
221.323	-6.42
221.54	-26.53
221.758	-62.32
221.976	-56.26
222.193	-80.4
222.411	-18.02
222.629	-32.46
222.846	-25.17
223.064	25.79
223.281	11.88
223.499	39.39
223.716	38.05
223.934	31.56
224.151	23.74
224.369	5.46
224.586	13.07
224.804	13.2
225.021	-4.23
225.239	-5.7
225.456	-27.92
225.674	-8.63
225.891	-38.72
226.108	-18.77
226.326	-5.4
226.543	15.56
226.76	10.52
226.978	3.26
227.195	-0.97
227.413	12.8
227.63	8.74
227.847	16.32
228.064	11.68
228.282	16.04
228.499	13.85
228.716	10.18
228.934	5.5
229.151	7.57
229.368	2.99
229.585	4.14
229.802	3.64
230.02	7.14
230.237	2.73
230.454	4.89
230.671	5.12
230.888	4.22
231.105	8.23
231.323	10.01
231.54	7.47
231.757	10.8
231.974	9.23
232.191	9.49
232.408	4.59
232.625	7.33
232.842	2.57
233.059	-3.01
233.276	-6.93
233.493	-13.8
233.71	-9.31
233.927	-10.59
234.144	-2.21
234.361	-2.86
234.578	-8.67
234.795	-8.16
235.012	-14.72
235.229	-10.44
235.446	-11.2
235.663	-10.18
235.879	-2.67
236.096	-2.46
236.313	-2.24
236.53	-5.71
236.747	-8.37
236.964	-2.32
237.181	-3.33
237.397	8.5
237.614	4.9
237.831	15.97
238.048	10.85
238.264	2.05
238.481	-1.84
238.698	1.78
238.915	7.12
239.131	12.93
239.348	10.97
239.565	14.56
239.781	10.23
239.998	11.04
240.215	3.77
240.431	8.06
240.648	7.14
240.865	6.39
241.081	7.56
241.298	6.12
241.514	3.6
241.731	4.77
241.947	3.05
242.164	3.83
242.38	1.94
242.597	2.76
242.814	2.53
243.03	4.43
243.246	5.74
243.463	5.06
243.679	3.18
243.896	4.54
244.112	4.62
244.329	4.25
244.545	3.3
244.762	4.73
244.978	4.41
245.194	2.5
245.411	2.12
245.627	2.82
245.843	3.41
246.06	5.89
246.276	7
246.492	5.92
246.709	7.01
246.925	6.35
247.141	7.17
247.357	7.92
247.574	8.36
247.79	8.05
248.006	7.46
248.222	7.49
248.439	7.47
248.655	6.09
248.871	5.96
249.087	5.4
249.303	6.21
249.519	5.14
249.736	4.13
249.952	3.85
250.168	3.17
250.384	1.11
250.6	1.19
250.816	1.16
251.032	1.52
251.248	2.39
251.464	4.38
251.68	5.07
251.896	5.45
252.112	3.53
252.328	2.42
252.544	2.65
252.76	4.21
252.976	5.02
253.192	4.32
253.408	3.64
253.624	2.63
253.84	0.82
254.056	1.39
254.272	2.96
254.487	4.9
254.703	7.89
254.919	10.11
255.135	12.92
255.351	9.42
255.567	12.64
255.782	16.3
255.998	15.33
256.214	11.12
256.43	7.81
256.646	2.2
256.861	2.97
257.077	1.32
257.293	0.03
257.508	-0.01
257.724	1.04
257.94	0.06
258.155	0.49
258.371	1.43
258.587	2.45
258.802	2.95
259.018	4.84
259.234	5.38
259.449	6.04
259.665	6.44
259.88	5.97
260.096	6.81
260.312	6
260.527	5.88
260.743	6.64
260.958	7.13
261.174	7.24
261.389	6.71
261.605	6.16
261.82	6.09
262.036	7.03
262.251	6
262.466	6.47
262.682	7.32
262.897	6.82
263.113	5
263.328	5.45
263.543	6.79
263.759	8.56
263.974	8.86
264.189	10.13
264.405	9.36
264.62	11.25
264.835	9.32
265.051	8.48
265.266	6.6
265.481	7.76
265.696	6.73
265.912	4.06
266.127	2.88
266.342	3.1
266.557	1.47
266.773	-1.28
266.988	-2.75
267.203	-2.04
267.418	-0.82
267.633	-0.82
267.848	-0.57
268.064	-0.58
268.279	-0.79
268.494	1.59
268.709	1.85
268.924	3.3
269.139	4.1
269.354	5.07
269.569	2.95
269.784	3.27
269.999	3.93
270.214	3.52
270.429	4.78
270.644	5.6
270.859	4.17
271.074	5.81
271.289	6.18
271.504	5.46
271.719	6.19
271.934	6.38
272.149	5.14
272.363	4.95
272.578	3.39
272.793	3.51
273.008	3.9
273.223	4.53
273.438	2.56
273.653	2.18
273.867	2.13
274.082	1.16
274.297	2.34
274.512	1.78
274.726	3.54
274.941	3.03
275.156	2.43
275.371	2.47
275.585	0.35
275.8	1.5
276.015	1.56
276.229	3.05
276.444	3.04
276.659	3.02
276.873	4.12
277.088	3.13
277.302	5.99
277.517	6.61
277.732	6.14
277.946	6.83
278.161	8.18
278.375	9.55
278.59	9
278.804	8.36
279.019	5.49
279.233	4.11
279.448	5.25
279.662	5.61
279.877	6.05
280.091	3.36
280.306	3.92
280.52	2.73
280.735	0.55
280.949	1.99
281.163	2.59
281.378	3.55
281.592	4.26
281.806	3.92
282.021	1.94
282.235	2.23
282.449	3.83
282.664	3.49
282.878	2.78
283.092	3.1
283.307	2.06
283.521	2.31
283.735	2.53
283.949	3.3
284.164	2.95
284.378	3.42
284.592	2.48
284.806	2.83
285.02	3.76
285.234	4.57
285.449	4.41
285.663	6.3
285.877	5.65
286.091	5.3
286.305	4.89
286.519	4.48
286.733	5.84
286.947	4.6
287.161	5.23
287.375	3.51
287.589	2.68
287.803	3.09
288.017	1.58
288.231	2.46
288.445	3.89
288.659	3.72
288.873	2.42
289.087	1.52
289.301	2.62
289.515	2.91
289.729	2.62
289.943	2.49
290.157	2.15
290.371	3.57
290.584	4.11
290.798	3.66
291.012	2.67
291.226	4.28
291.44	5.04
291.654	5.67
291.867	5.45
292.081	6.08
292.295	8.63
292.509	8.91
292.722	6.64
292.936	6.47
293.15	6.83
293.364	7.4
293.577	7.45
293.791	6.45
294.005	7.78
294.218	6.06
294.432	5.37
294.645	2.76
294.859	2.79
295.073	2.2
295.286	1.25
295.5	0.02
295.713	1.01
295.927	1.25
296.14	1.19
296.354	0.24
296.568	2.06
296.781	2.62
296.994	3.01
297.208	3.47
297.421	4.02
297.635	5.57
297.848	6.17
298.062	6.76
298.275	7.11
298.489	7.89
298.702	7.81
298.915	7.63
299.129	9.52
299.342	9.45
299.555	9.96
299.769	9.43
299.982	8.25
300.195	9.47
300.409	8.52
300.622	7.41
300.835	6.55
301.048	6.72
301.262	5.74
301.475	3.42
301.688	3.68
301.901	2.28
302.115	4.26
302.328	4.96
302.541	2.74
302.754	4.19
302.967	5.02
303.18	4.95
303.393	4.35
303.607	4.76
303.82	5.99
304.033	5.74
304.246	5.82
304.459	5.48
304.672	4.11
304.885	5.2
305.098	3.59
305.311	4.02
305.524	5.77
305.737	6.83
305.95	7.09
306.163	7.12
306.376	8.19
306.589	10.25
306.802	10.41
307.015	12.4
307.228	13.19
307.44	13.67
307.653	13.42
307.866	12.93
308.079	12.75
308.292	13.49
308.505	12.83
308.718	11.75
308.93	10.62
309.143	9.69
309.356	9.48
309.569	7.66
309.781	6.01
309.994	5.83
310.207	6.94
310.42	8.02
310.632	8.76
310.845	9.93
311.058	9.42
311.27	9.46
311.483	10.01
311.696	8.71
311.908	10.1
312.121	11.35
312.333	11.22
312.546	10.89
312.759	10.85
312.971	9.97
313.184	8.69
313.396	10.25
313.609	9.83
313.821	9.76
314.034	9.94
314.246	9.21
314.459	10.51
314.671	12.3
314.884	11.43
315.096	12.85
315.309	13.34
315.521	14.05
315.733	12.85
315.946	13.31
316.158	12.41
316.371	13.88
316.583	14.37
316.795	14.23
317.008	13.67
317.22	13.65
317.432	12.23
317.644	10.35
317.857	9.5
318.069	9.47
318.281	9.23
318.494	11.2
318.706	10.96
318.918	10.5
319.13	8.32
319.342	8.47
319.555	8.17
319.767	5.6
319.979	8.35
320.191	9.98
320.403	10.52
320.615	10.18
320.827	9.39
321.039	9.98
321.252	9.93
321.464	11.96
321.676	10.32
321.888	12.79
322.1	12.29
322.312	11.28
322.524	9.94
322.736	12.32
322.948	12.43
323.16	11.97
323.372	9.97
323.584	11.16
323.796	12.14
324.007	13.81
324.219	11.64
324.431	13.84
324.643	14.26
324.855	16.31
325.067	14.98
325.279	16.87
325.491	19.42
325.702	21.17
325.914	21.82
326.126	21.64
326.338	22.4
326.55	25.14
326.761	26.33
326.973	27.54
327.185	27
327.396	29.08
327.608	28.67
327.82	30.05
328.032	30.31
328.243	31.36
328.455	32.37
328.666	33.85
328.878	34.3
329.09	34.23
329.301	34.45
329.513	37.58
329.725	38.28
329.936	39.71
330.148	38.98
330.359	42.86
330.571	44.64
330.782	46.66
330.994	46.5
331.205	47.22
331.417	50.11
331.628	51.2
331.84	50.64
332.051	50.18
332.262	51.24
332.474	52.87
332.685	51.13
332.897	52.02
333.108	54.56
333.319	55.85
333.531	56.84
333.742	57.6
333.953	58.94
334.165	60.26
334.376	61.95
334.587	62.98
334.799	64.14
335.01	65.87
335.221	67.11
335.432	66.82
335.644	68.79
335.855	69.67
336.066	68.96
336.277	69.01
336.488	70.68
336.7	71.73
336.911	74.01
337.122	73.23
337.333	73.63
337.544	73.7
337.755	74.51
337.966	73.4
338.177	74.31
338.388	74.77
338.599	76
338.811	75.55
339.022	76.92
339.233	75.8
339.444	78.16
339.655	79.94
339.866	80.82
340.076	81.19
340.287	81.67
340.498	81.7
340.709	82.83
340.92	84.74
341.131	85.22
341.342	85.84
341.553	86.39
341.764	85.63
341.975	85.93
342.185	86.68
342.396	86.87
342.607	86.38
342.818	87.35
343.029	88.11
343.239	87.78
343.45	88.56
343.661	86.12
343.872	87.56
344.082	88.57
344.293	88.44
344.504	88.31
344.714	86.9
344.925	89.1
345.136	89.62
345.346	89.25
345.557	89.16
345.768	89.33
345.978	90.99
346.189	89.5
346.399	88.62
346.61	87.93
346.821	88.51
347.031	90.93
347.242	90.81
347.452	90.21
347.663	91.77
347.873	91.01
348.084	90.79
348.294	91.36
348.504	92.2
348.715	92.37
348.925	93.98
349.136	94.68
349.346	94.45
349.557	94.55
349.767	94.49
349.977	93.24
350.188	92.81
350.398	93.14
350.608	93.41
350.819	94.5
351.029	94.53
351.239	93.15
351.449	92.06
351.66	90.81
351.87	90.69
352.08	91.98
352.29	91.71
352.501	92.96
352.711	92.95
352.921	92.27
353.131	90.57
353.341	90.87
353.552	90.98
353.762	90.63
353.972	91.22
354.182	90.13
354.392	88.31
354.602	89.21
354.812	89.43
355.022	88.13
355.232	87.78
355.442	87.41
355.652	88.09
355.862	88.03
356.072	88.12
356.282	88.13
356.492	88.12
356.702	89.77
356.912	89.41
357.122	88.98
357.332	90.83
357.542	91.61
357.752	92.49
357.962	91.74
358.171	91.92
358.381	91
358.591	90.61
358.801	90.89
359.011	90.96
359.221	89.88
359.43	90
359.64	89.32
359.85	88.94
360.06	88.95
360.269	89.33
360.479	89.46
360.689	90.11
360.899	89.9
361.108	89.73
361.318	89.05
361.528	89.67
361.737	89.15
361.947	88.49
362.156	88.7
362.366	88.25
362.576	87.42
362.785	87.02
362.995	86.6
363.204	86.53
363.414	86.81
363.623	86.5
363.833	85.98
364.042	86.3
364.252	86.26
364.461	86
364.671	86.81
364.88	86.67
365.09	86.99
365.299	86.79
365.509	86.42
365.718	86.32
365.927	86.12
366.137	85.83
366.346	85.13
366.555	85.25
366.765	85.01
366.974	83.72
367.183	83.71
367.393	83.4
367.602	83.3
367.811	82.75
368.021	82.35
368.23	81.8
368.439	82.06
368.648	82.01
368.857	82.5
369.067	82.41
369.276	81.91
369.485	81.03
369.694	79.95
369.903	80.43
370.112	80.35
370.321	79.9
370.531	79.4
370.74	79.77
370.949	79.8
371.158	78.59
371.367	78.96
371.576	79.71
371.785	80.81
371.994	80.48
372.203	79.82
372.412	80
372.621	80.66
372.83	80.98
373.039	79.55
373.248	78.91
373.457	78.46
373.666	77.86
373.874	76.96
374.083	76.02
374.292	76.04
374.501	76.08
374.71	75.74
374.919	74.74
375.128	74.44
375.336	75.77
375.545	76
375.754	75.89
375.963	75.25
376.171	75.6
376.38	76.83
376.589	76.42
376.798	75.93
377.006	76.21
377.215	76.6
377.424	77.14
377.632	75.85
377.841	75.13
378.05	76.09
378.258	75.82
378.467	75.76
378.675	74.37
378.884	74.95
379.093	75.08
379.301	74.36
379.51	73.98
379.718	72.94
379.927	72.95
380.135	72.97
380.344	71.55
380.552	71.88
380.761	71.52
380.969	71.52
381.177	70.53
381.386	70.55
381.594	70.36
381.803	69.29
382.011	69.24
382.219	68.76
382.428	68.71
382.636	69.05
382.845	68.43
383.053	67.78
383.261	67.44
383.469	67.98
383.678	66.95
383.886	66.66
384.094	66.72
384.302	66.93
384.511	66.73
384.719	66.29
384.927	65.41
385.135	65.14
385.343	65.05
385.552	64.63
385.76	64.09
385.968	64.03
386.176	63.96
386.384	63.93
386.592	63.15
386.8	63.15
387.008	62.6
387.216	62.62
387.424	62.49
387.633	61.87
387.841	61.76
388.049	61.76
388.257	61.27
388.465	60.88
388.672	60.39
388.88	59.95
389.088	59.23
389.296	59.03
389.504	58.52
389.712	57.84
389.92	57.84
390.128	57.54
390.336	56.66
390.544	56.21
390.751	55.99
390.959	55.91
391.167	55.52
391.375	55.16
391.583	55.05
391.79	54.81
391.998	54.96
392.206	54.77
392.414	54.41
392.621	54.22
392.829	54.44
393.037	53.99
393.244	53.72
393.452	53.81
393.66	54.03
393.867	54.02
394.075	54.23
394.283	53.8
394.49	53.73
394.698	53.75
394.905	53.86
395.113	53.52
395.32	53.53
395.528	53.58
395.735	53.87
395.943	53.85
396.15	54.12
396.358	53.95
396.565	54.13
396.773	54.09
396.98	53.69
397.188	53.64
397.395	53.78
397.602	53.84
397.81	53.56
398.017	53.15
398.225	53.03
398.432	52.67
398.639	52.52
398.847	52.37
399.054	51.8
399.261	51.87
399.468	51.97
399.676	51.8
399.883	51.62
400.09	51.32
400.297	51.25
400.505	51.17
400.712	51.11
400.919	51.26
401.126	51.05
401.333	51.14
401.54	51
401.748	50.86
401.955	51.01
402.162	51.26
402.369	51.48
402.576	51.8
402.783	51.43
402.99	51.21
403.197	50.66
403.404	50.71
403.611	51.03
403.818	51.21
404.025	51.22
404.232	50.95
404.439	50.86
404.646	50.52
404.853	50.18
405.06	50.21
405.267	50.14
405.474	50.24
405.681	50.17
405.887	49.73
406.094	49.53
406.301	49.23
406.508	49.1
406.715	48.81
406.922	49.08
407.128	48.85
407.335	49.08
407.542	49.14
407.749	49.34
407.955	49.09
408.162	49.17
408.369	49.27
408.575	49.41
408.782	49.52
408.989	49.35
409.195	48.87
409.402	48.97
409.609	48.69
409.815	48.76
410.022	48.66
410.228	48.7
410.435	48.63
410.642	48.48
410.848	48.66
411.055	48.47
411.261	48.62
411.468	48.86
411.674	48.79
411.881	48.78
412.087	48.61
412.294	48.6
412.5	48.5
412.706	48.46
412.913	48.21
413.119	47.78
413.326	47.42
413.532	47.38
413.738	47.36
413.945	47.25
414.151	47.53
414.357	47.37
414.564	47.36
414.77	47.49
414.976	47.44
415.182	47.54
415.389	47.37
415.595	47.73
415.801	47.56
416.007	47.53
416.214	47.5
416.42	47
416.626	47.13
416.832	46.71
417.038	46.48
417.244	46.69
417.45	46.8
417.657	46.85
417.863	46.71
418.069	46.85
418.275	46.72
418.481	46.68
418.687	46.68
418.893	46.62
419.099	46.83
419.305	46.95
419.511	46.65
419.717	46.57
419.923	46.46
420.129	46.58
420.335	46.39
420.541	46.53
420.746	46.55
420.952	46.72
421.158	46.77
421.364	46.64
421.57	46.72
421.776	46.85
421.982	46.88
422.187	47.06
422.393	47
422.599	47.06
422.805	46.97
423.01	46.89
423.216	46.76
423.422	46.61
423.628	46.67
423.833	46.54
424.039	46.51
424.245	46.51
424.45	46.3
424.656	46.28
424.862	46.21
425.067	46.11
425.273	46.08
425.478	45.98
425.684	45.99
425.889	45.77
426.095	45.73
426.301	45.7
426.506	45.63
426.712	45.82
426.917	45.68
427.123	45.73
427.328	45.8
427.533	45.96
427.739	46.15
427.944	46.19
428.15	46.44
428.355	46.5
428.561	46.61
428.766	46.5
428.971	46.52
429.177	46.59
429.382	46.49
429.587	46.73
429.793	46.62
429.998	46.71
430.203	46.42
430.408	46.52
430.614	46.4
430.819	46.03
431.024	46.15
431.229	45.64
431.434	45.79
431.64	45.77
431.845	45.68
432.05	45.62
432.255	45.54
432.46	45.81
432.665	45.75
432.87	45.74
433.076	45.85
433.281	45.73
433.486	45.93
433.691	45.64
433.896	45.53
434.101	45.34
434.306	45.47
434.511	45.4
434.716	45.2
434.921	45.39
435.126	45.5
435.331	45.47
435.535	45.5
435.74	45.72
435.945	45.86
436.15	46.11
436.355	46.3
436.56	46
436.765	46.01
436.97	46.07
437.174	45.86
437.379	45.76
437.584	45.79
437.789	45.88
437.993	45.81
438.198	45.87
438.403	45.89
438.608	45.88
438.812	46.01
439.017	46.06
439.222	46.13
439.426	46
439.631	46.01
439.836	46.24
440.04	46.13
440.245	46.05
440.45	46.03
440.654	45.9
440.859	45.76
441.063	45.84
441.268	45.88
441.472	45.76
441.677	45.94
441.881	45.87
442.086	45.75
442.29	45.79
442.495	45.76
442.699	45.67
442.904	45.64
443.108	45.7
443.312	45.61
443.517	45.67
443.721	45.68
443.925	45.45
444.13	45.53
444.334	45.26
444.538	45.48
444.743	45.37
444.947	45.43
445.151	45.42
445.356	45.35
445.56	45.25
445.764	45.19
445.968	45.22
446.173	45.17
446.377	45.27
446.581	45.51
446.785	45.29
446.989	45.35
447.193	45.36
447.398	45.44
447.602	45.61
447.806	45.75
448.01	45.69
448.214	45.61
448.418	45.81
448.622	45.52
448.826	45.4
449.03	45.43
449.234	45.52
449.438	45.72
449.642	45.81
449.846	45.6
450.05	45.55
450.254	45.49
450.458	45.59
450.662	45.56
450.866	45.92
451.069	45.77
451.273	45.73
451.477	45.63
451.681	45.41
451.885	45.11
452.089	45.2
452.292	45.1
452.496	44.9
452.7	44.84
452.904	44.63
453.107	44.3
453.311	44.31
453.515	44.38
453.719	44.5
453.922	44.32
454.126	44.45
454.33	44.32
454.533	44.39
454.737	44.53
454.94	44.57
455.144	44.52
455.348	44.7
455.551	44.79
455.755	44.61
455.958	44.42
456.162	44.75
456.365	44.68
456.569	44.81
456.772	44.76
456.976	44.89
457.179	44.59
457.383	44.78
457.586	44.54
457.79	44.66
457.993	44.63
458.196	44.66
458.4	44.33
458.603	44.64
458.807	44.7
459.01	44.8
459.213	44.72
459.417	45.01
459.62	44.96
459.823	45.15
460.026	45.11
460.23	45.21
460.433	45.35
460.636	45.45
460.839	45.16
461.042	45.04
461.246	45.19
461.449	45.33
461.652	45.29
461.855	45.48
462.058	45.5
462.261	45.49
462.464	45.54
462.668	45.41
462.871	45.52
463.074	45.85
463.277	46.01
463.48	45.72
463.683	45.75
463.886	45.85
464.089	45.62
464.292	45.62
464.495	45.56
464.698	45.47
464.901	45.56
465.104	45.66
465.306	45.55
465.509	45.55
465.712	45.42
465.915	45.41
466.118	45.42
466.321	45.37
466.524	45.42
466.726	45.54
466.929	45.62
467.132	45.55
467.335	45.4
467.538	45.36
467.74	45.41
467.943	45.58
468.146	45.6
468.348	45.39
468.551	45.58
468.754	45.55
468.956	45.57
469.159	45.72
469.362	45.77
469.564	45.78
469.767	45.87
469.969	45.7
470.172	45.53
470.375	45.52
470.577	45.65
470.78	45.72
470.982	45.68
471.185	45.71
471.387	45.51
471.59	45.43
471.792	45.41
471.995	45.32
472.197	45.43
472.399	45.56
472.602	45.51
472.804	45.43
473.007	45.44
473.209	45.38
473.411	45.4
473.614	45.47
473.816	45.59
474.018	45.53
474.22	45.48
474.423	45.54
474.625	45.37
474.827	45.34
475.03	45.51
475.232	45.55
475.434	45.79
475.636	45.68
475.838	45.74
476.04	45.75
476.243	45.79
476.445	45.7
476.647	45.5
476.849	45.76
477.051	45.66
477.253	45.69
477.455	45.47
477.657	45.35
477.859	45.41
478.061	45.42
478.263	45.4
478.465	45.54
478.667	45.55
478.869	45.74
479.071	45.74
479.273	45.76
479.475	45.74
479.677	45.75
479.879	45.63
480.081	45.53
480.283	45.39
480.485	45.39
480.686	45.34
480.888	45.55
481.09	45.47
481.292	45.43
481.494	45.65
481.695	45.54
481.897	45.54
482.099	45.57
482.301	45.5
482.502	45.48
482.704	45.43
482.906	45.35
483.107	45.31
483.309	45.38
483.511	45.36
483.712	45.32
483.914	45.43
484.115	45.47
484.317	45.5
484.519	45.54
484.72	45.52
484.922	45.52
485.123	45.51
485.325	45.56
485.526	45.52
485.728	45.59
485.929	45.56
486.131	45.51
486.332	45.45
486.534	45.4
486.735	45.38
486.936	45.43
487.138	45.45
487.339	45.49
487.541	45.43
487.742	45.42
487.943	45.31
488.144	45.31
488.346	45.25
488.547	45.28
488.748	45.23
488.95	45.28
489.151	45.23
489.352	45.23
489.553	45.22
489.755	45.24
489.956	45.22
490.157	45.25
490.358	45.24
490.559	45.33
490.76	45.41
490.961	45.51
491.163	45.54
491.364	45.57
491.565	45.7
491.766	45.75
491.967	45.8
492.168	45.81
492.369	45.83
492.57	45.81
492.771	45.8
492.972	45.77
493.173	45.78
493.374	45.69
493.575	45.73
493.776	45.61
493.976	45.59
494.177	45.45
494.378	45.48
494.579	45.5
494.78	45.59
494.981	45.55
495.182	45.48
495.382	45.54
495.583	45.73
495.784	45.88
495.985	46.07
496.185	46.01
496.386	46.2
496.587	46.33
496.788	46.52
496.988	46.53
497.189	46.45
497.39	46.52
497.59	46.58
497.791	46.51
497.992	46.39
498.192	46.42
498.393	46.51
498.593	46.55
498.794	46.45
498.994	46.45
499.195	46.69
499.395	46.87
499.596	46.82
499.796	46.81
499.997	46.73
500.197	46.98
500.398	46.91
500.598	47.02
500.799	46.91
500.999	47.02
501.199	47.06
501.4	46.81
501.6	46.92
501.801	47.06
502.001	47.08
502.201	47.3
502.402	47.09
502.602	47.12
502.802	47.11
503.002	47.22
503.203	47.24
503.403	47.3
503.603	47.49
503.803	47.41
504.003	47.56
504.204	47.6
504.404	47.68
504.604	47.83
504.804	47.8
505.004	47.79
505.204	47.95
505.404	47.99
505.604	47.97
505.804	47.98
506.005	48
506.205	47.92
506.405	47.86
506.605	47.87
506.805	48.09
507.005	48.15
507.204	48.22
507.404	48.19
507.604	48.24
507.804	48.38
508.004	48.55
508.204	48.62
508.404	48.7
508.604	48.89
508.804	48.89
509.003	48.83
509.203	48.97
509.403	49.02
509.603	49.26
509.803	49.43
510.002	49.45
510.202	49.35
510.402	49.46
510.602	49.41
510.801	49.47
511.001	49.57
511.201	49.63
511.4	49.68
511.6	49.89
511.8	49.93
511.999	50.02
512.199	49.95
512.398	50.01
512.598	50.05
512.797	50.18
512.997	50.22
513.197	50.46
513.396	50.47
513.596	50.54
513.795	50.64
513.994	50.61
514.194	50.69
514.393	50.92
514.593	51.18
514.792	51.06
514.992	51.19
515.191	51.36
515.39	51.19
515.59	51.24
515.789	51.43
515.988	51.5
516.188	51.72
516.387	51.54
516.586	51.53
516.786	51.41
516.985	51.65
517.184	51.87
517.383	51.96
517.582	52.19
517.782	52.47
517.981	52.37
518.18	52.47
518.379	52.46
518.578	52.66
518.777	52.62
518.976	52.74
519.176	52.97
519.375	52.89
519.574	52.94
519.773	52.95
519.972	52.77
520.171	53.03
520.37	53.02
520.569	53.11
520.768	53.23
520.967	53.47
521.166	53.58
521.365	53.55
521.564	53.68
521.762	53.55
521.961	53.61
522.16	53.83
522.359	53.65
522.558	53.63
522.757	53.86
522.956	53.86
523.154	53.8
523.353	53.96
523.552	53.87
523.751	53.9
523.949	54.02
524.148	54.04
524.347	54.16
524.546	54.3
524.744	54.38
524.943	54.32
525.142	54.3
525.34	54.29
525.539	54.19
525.737	54.5
525.936	54.62
526.135	54.86
526.333	55.02
526.532	54.93
526.73	55.09
526.929	55.21
527.127	55.3
527.326	55.36
527.524	55.53
527.723	55.68
527.921	55.66
528.12	55.76
528.318	55.77
528.516	55.9
528.715	56.04
528.913	56
529.112	56.03
529.31	56.02
529.508	56.08
529.707	56.12
529.905	56.14
530.103	56.24
530.301	56.32
530.5	56.37
530.698	56.12
530.896	56.23
531.094	56.29
531.293	56.27
531.491	56.42
531.689	56.51
531.887	56.68
532.085	56.79
532.283	56.85
532.481	56.84
532.68	56.83
532.878	57.09
533.076	57.09
533.274	57.25
533.472	57.37
533.67	57.32
533.868	57.36
534.066	57.39
534.264	57.37
534.462	57.36
534.66	57.32
534.858	57.41
535.056	57.55
535.253	57.57
535.451	57.58
535.649	57.65
535.847	57.67
536.045	57.9
536.243	58.01
536.441	58.16
536.638	58.3
536.836	58.55
537.034	58.54
537.232	58.34
537.43	58.45
537.627	58.44
537.825	58.41
538.023	58.55
538.22	58.46
538.418	58.44
538.616	58.38
538.813	58.35
539.011	58.27
539.209	58.34
539.406	58.39
539.604	58.28
539.801	58.32
539.999	58.24
540.196	58.22
540.394	58.32
540.591	58.22
540.789	58.22
540.986	58.14
541.184	58.18
541.381	58.34
541.579	58.48
541.776	58.56
541.974	58.64
542.171	58.84
542.368	58.99
542.566	58.97
542.763	59
542.96	59.03
543.158	59.1
543.355	59.11
543.552	58.99
543.75	59.07
543.947	59.11
544.144	59.17
544.341	59.11
544.539	59.06
544.736	59.05
544.933	59.08
545.13	59.18
545.327	59.39
545.524	59.46
545.722	59.56
545.919	59.61
546.116	59.69
546.313	59.6
546.51	59.64
546.707	59.75
546.904	59.79
547.101	60
547.298	60.06
547.495	60.08
547.692	60.15
547.889	60.33
548.086	60.21
548.283	60.13
548.48	60.06
548.677	60.11
548.874	60.03
549.07	60.09
549.267	60.07
549.464	60.06
549.661	59.98
549.858	59.83
550.055	59.58
550.251	59.47
550.448	59.68
550.645	59.87
550.842	59.8
551.038	59.91
551.235	59.96
551.432	59.89
551.628	60.03
551.825	60.11
552.022	60.41
552.218	60.52
552.415	60.66
552.612	60.74
552.808	60.66
553.005	60.65
553.201	60.67
553.398	60.62
553.594	60.55
553.791	60.56
553.987	60.53
554.184	60.59
554.38	60.82
554.577	61.15
554.773	61
554.97	61.14
555.166	61.6
555.362	61.5
555.559	61.61
555.755	61.78
555.952	61.87
556.148	61.88
556.344	61.67
556.541	61.53
556.737	61.31
556.933	61.24
557.129	61.08
557.326	60.66
557.522	60.56
557.718	60.79
557.914	60.89
558.11	60.82
558.307	61.07
558.503	61.47
558.699	61.67
558.895	61.88
559.091	62.18
559.287	62.49
559.483	62.79
559.679	62.88
559.876	62.98
560.072	63.03
560.268	63.24
560.464	63.28
560.66	62.91
560.856	62.65
561.052	62.55
561.247	62.51
561.443	62.49
561.639	62.28
561.835	62.23
562.031	61.95
562.227	62.02
562.423	61.96
562.619	61.81
562.815	61.83
563.01	62.04
563.206	62.15
563.402	62.32
563.598	62.58
563.793	62.83
563.989	62.97
564.185	63.13
564.381	62.98
564.576	62.85
564.772	63
564.968	63
565.163	63.17
565.359	63.17
565.555	63.25
565.75	63.04
565.946	63.4
566.141	63.48
566.337	63.57
566.532	63.62
566.728	63.79
566.923	63.9
567.119	64.06
567.314	63.82
567.51	63.81
567.705	63.56
567.901	63.56
568.096	63.29
568.292	63.44
568.487	63.59
568.682	63.91
568.878	64.05
569.073	64.03
569.268	64.29
569.464	64.48
569.659	64.64
569.854	64.78
570.05	64.96
570.245	65.08
570.44	65.07
570.635	64.89
570.831	64.67
571.026	64.67
571.221	64.78
571.416	64.5
571.611	64.64
571.806	64.61
572.002	64.58
572.197	64.71
572.392	64.89
572.587	64.95
572.782	65.06
572.977	65.04
573.172	65.04
573.367	64.74
573.562	64.9
573.757	64.92
573.952	64.9
574.147	64.99
574.342	64.93
574.537	64.75
574.732	64.77
574.927	64.75
575.121	64.8
575.316	64.91
575.511	65.13
575.706	65.09
575.901	64.94
576.096	65.17
576.29	65.37
576.485	65.61
576.68	65.58
576.875	65.64
577.069	65.57
577.264	65.57
577.459	65.54
577.654	65.67
577.848	65.82
578.043	65.79
578.238	65.57
578.432	65.71
578.627	65.41
578.821	65.54
579.016	65.39
579.21	65.59
579.405	65.82
579.6	65.55
579.794	65.53
579.989	65.25
580.183	65.34
580.378	65.55
580.572	65.37
580.766	65.52
580.961	65.48
581.155	65.65
581.35	65.6
581.544	65.65
581.738	65.95
581.933	65.97
582.127	66.57
582.321	66.6
582.516	66.42
582.71	66.4
582.904	66.47
583.099	66.31
583.293	66.01
583.487	65.96
583.681	66
583.875	65.83
584.07	65.63
584.264	65.23
584.458	65.26
584.652	65.41
584.846	65.36
585.04	65.2
585.234	65.55
585.428	65.74
585.623	66.06
585.817	65.88
586.011	65.95
586.205	65.93
586.399	66.06
586.593	66.54
586.787	66.18
586.981	66.38
587.174	66.67
587.368	66.34
587.562	66.52
587.756	66.72
587.95	66.96
588.144	66.82
588.338	67.12
588.532	66.94
588.725	66.49
588.919	66.68
589.113	66.63
589.307	66.73
589.501	67.13
589.694	67.07
589.888	66.9
590.082	66.81
590.275	67.01
590.469	66.84
590.663	66.95
590.856	67.34
591.05	67.41
591.244	67.59
591.437	67.37
591.631	67.18
591.824	67.49
592.018	67.37
592.212	67.44
592.405	67.58
592.599	68.01
592.792	68.13
592.986	68.06
593.179	68.05
593.372	68.01
593.566	68.06
593.759	67.91
593.953	67.73
594.146	67.7
594.339	67.64
594.533	67.74
594.726	67.4
594.92	67.43
595.113	67.45
595.306	67.43
595.499	67.29
595.693	67.51
595.886	67.4
596.079	67.4
596.272	67.49
596.466	67.47
596.659	67.23
596.852	67.34
597.045	67.29
597.238	67.5
597.431	67.83
597.624	67.87
597.818	67.62
598.011	67.91
598.204	68.04
598.397	68.19
598.59	68.31
598.783	68.53
598.976	68.6
599.169	68.65
599.362	68.46
599.555	68.2
599.748	68.27
599.941	68.48
600.134	68.45
600.326	68.37
600.519	68.29
600.712	68.4
600.905	68.66
601.098	68.48
601.291	68.82
601.483	68.9
601.676	68.77
601.869	68.81
602.062	68.58
602.255	68.52
602.447	68.77
602.64	68.7
602.833	68.31
603.025	67.9
603.218	68.06
603.411	67.91
603.603	67.81
603.796	68.03
603.989	68.03
604.181	68.29
604.374	68.4
604.566	68.32
604.759	68.24
604.951	68.55
605.144	68.72
605.336	68.8
605.529	68.71
605.721	68.99
605.914	69.14
606.106	69.26
606.299	69.05
606.491	69.01
606.683	68.87
606.876	68.99
607.068	69.05
607.26	68.81
607.453	68.7
607.645	68.82
607.837	68.53
608.03	68.31
608.222	68.05
608.414	68.35
608.606	68.24
608.799	68.49
608.991	68.52
609.183	68.42
609.375	68.54
609.567	68.62
609.759	68.51
609.952	68.43
610.144	68.32
610.336	68.22
610.528	67.87
610.72	67.79
610.912	67.43
611.104	67.31
611.296	67.39
611.488	67.49
611.68	67.58
611.872	67.72
612.064	67.56
612.256	67.53
612.448	67.8
612.64	68.13
612.832	68.33
613.023	68.13
613.215	68.2
613.407	67.81
613.599	67.72
613.791	67.56
613.983	67.46
614.174	67.48
614.366	67.3
614.558	67.4
614.75	67.45
614.941	67.53
615.133	67.99
615.325	67.81
615.516	67.95
615.708	67.8
615.9	67.98
616.091	67.88
616.283	68.16
616.475	68.58
616.666	68.42
616.858	68.24
617.049	68.72
617.241	68.63
617.432	68.77
617.624	69.01
617.815	69.43
618.007	69.37
618.198	69.58
618.39	69.69
618.581	69.95
618.773	69.79
618.964	69.86
619.155	69.07
619.347	69.33
619.538	69.47
619.729	69.45
619.921	69.39
620.112	69.26
620.303	69.33
620.494	69.19
620.686	68.96
620.877	69
621.068	68.72
621.259	68.89
621.451	68.55
621.642	68.24
621.833	68.18
622.024	68.05
622.215	68.1
622.406	68.28
622.597	68.48
622.788	68.51
622.98	68.88
623.171	69.13
623.362	69.22
623.553	69.38
623.744	69.59
623.935	69.82
624.126	69.92
624.317	69.99
624.508	69.75
624.698	69.59
624.889	69.27
625.08	68.85
625.271	68.85
625.462	69.01
625.653	68.86
625.844	68.82
626.034	68.57
626.225	68.48
626.416	68.54
626.607	68.65
626.798	68.49
626.988	68.61
627.179	68.92
627.37	69.1
627.56	68.86
627.751	69.23
627.942	69.5
628.132	69.67
628.323	69.79
628.514	69.71
628.704	69.53
628.895	69.69
629.085	70.09
629.276	70.11
629.466	69.97
629.657	70.27
629.847	70.12
630.038	70.32
630.228	70.36
630.419	70.31
630.609	70.51
630.8	70.82
630.99	70.66
631.181	70.52
631.371	70.82
631.561	70.51
631.752	70.42
631.942	70.19
632.132	69.74
632.323	69.45
632.513	69.42
632.703	69.4
632.893	69.29
633.084	69.19
633.274	69.22
633.464	69.06
633.654	69.33
633.844	68.98
634.034	69.35
634.225	69.54
634.415	69.66
634.605	69.33
634.795	69.16
634.985	69.35
635.175	69.78
635.365	69.47
635.555	69.47
635.745	69.32
635.935	69.64
636.125	69.59
636.315	69.46
636.505	69.41
636.695	69.93
636.885	69.97
637.075	69.69
637.265	69.76
637.455	69.95
637.644	69.56
637.834	69.93
638.024	70.11
638.214	69.84
638.404	69.91
638.593	69.9
638.783	69.82
638.973	69.76
639.163	69.9
639.352	69.52
639.542	69.27
639.732	69.52
639.921	69.5
640.111	69.43
640.301	69.59
640.49	69.44
640.68	69.49
640.87	69.2
641.059	69.1
641.249	69.27
641.438	69.34
641.628	69.32
641.817	69.02
642.007	68.97
642.196	69.03
642.386	69.18
642.575	69.39
642.764	69.5
642.954	69.89
643.143	69.36
643.333	68.92
643.522	69.22
643.711	69.27
643.901	69.55
644.09	69.49
644.279	69.63
644.469	69.94
644.658	70.24
644.847	70.42
645.036	70.12
645.226	70.5
645.415	70.42
645.604	70.39
645.793	70.47
645.982	70.23
646.171	70.31
646.361	70.12
646.55	69.14
646.739	69.12
646.928	69.09
647.117	69.39
647.306	69.59
647.495	69.6
647.684	69.28
647.873	69.5
648.062	69.71
648.251	69.82
648.44	69.72
648.629	70.53
648.818	70.16
649.007	70.45
649.196	69.78
649.384	69.95
649.573	69.73
649.762	69.26
649.951	69.37
650.14	69.51
650.328	69.4
650.517	69.17
650.706	68.42
650.895	68.74
651.083	68.76
651.272	69.22
651.461	69.22
651.65	69.39
651.838	70.15
652.027	70.06
652.216	69.86
652.404	69.71
652.593	69.8
652.781	70.06
652.97	69.65
653.158	68.91
653.347	68.93
653.535	68.71
653.724	69.46
653.912	68.86
654.101	68.83
654.289	68.92
654.478	69.23
654.666	69.48
654.855	69.65
655.043	70.04
655.231	70.66
655.42	71.06
655.608	71.69
655.796	71.6
655.985	72.19
656.173	72.14
656.361	72.06
656.55	71.26
656.738	70.8
656.926	71.36
657.114	71.36
657.302	71.18
657.491	70.81
657.679	71.03
657.867	70.95
658.055	70.8
658.243	70.81
658.431	71
658.619	72.03
658.807	72.44
658.996	72.18
659.184	71.92
659.372	72.05
659.56	72.2
659.748	71.88
659.936	71.72
660.124	71.71
660.311	72.06
660.499	71.81
660.687	71.21
660.875	71.57
661.063	71.38
661.251	71.43
661.439	71.05
661.627	70.94
661.814	70.87
662.002	70.6
662.19	70.28
662.378	69.64
662.565	69.65
662.753	69.07
662.941	67.9
663.129	67.81
663.316	67.72
663.504	67.84
663.692	67.7
663.879	68.08
664.067	68.55
664.254	68.99
664.442	69.36
664.63	69.7
664.817	70.69
665.005	71.59
665.192	71.6
665.38	72.01
665.567	72.26
665.755	71.79
665.942	71.04
666.13	70.65
666.317	70.98
666.504	71.04
666.692	70.65
666.879	70.03
667.067	69.68
667.254	69.8
667.441	69.12
667.629	69.07
667.816	69.59
668.003	69.29
668.19	69.26
668.378	68.92
668.565	68.69
668.752	68.56
668.939	68.71
669.127	68.43
669.314	68.3
669.501	69.3
669.688	69.16
669.875	69.29
670.062	69.89
670.249	70.4
670.436	70.44
670.623	70.78
670.81	70.68
670.997	70.98
671.184	71.11
671.371	71.11
671.558	71.17
671.745	70.99
671.932	71
672.119	70.85
672.306	70.22
672.493	70.14
672.68	70.33
672.867	71.04
673.054	70.54
673.24	70.8
673.427	70.87
673.614	69.73
673.801	69.93
673.988	70.55
674.174	70.88
674.361	71.68
674.548	71.8
674.734	70.83
674.921	70.4
675.108	71.15
675.294	71.37
675.481	71.4
675.668	72.03
675.854	72.35
676.041	71.91
676.227	71.63
676.414	71
676.601	71.05
676.787	71.1
676.974	71.69
677.16	70.97
677.347	71.05
677.533	70.94
677.719	71.16
677.906	70.97
678.092	70.26
678.279	70.18
678.465	69.59
678.651	69.53
678.838	70.31
679.024	69.75
679.21	70.2
679.397	70.1
679.583	69.98
679.769	69.54
679.955	69.23
680.142	69.65
680.328	69.6
680.514	70.21
680.7	70.47
680.886	69.78
681.073	70
681.259	69.96
681.445	70.01
681.631	70.34
681.817	70.09
682.003	70.16
682.189	70.45
682.375	70.67
682.561	70.67
682.747	70.28
682.933	70.35
683.119	70.31
683.305	69.53
683.491	69.4
683.677	69.48
683.863	69.87
684.049	70.4
684.235	70.19
684.42	70.22
684.606	70.32
684.792	70.33
684.978	70.98
685.164	70.89
685.349	71.56
685.535	71.32
685.721	71.84
685.907	71.73
686.092	71.21
686.278	70.5
686.464	70.2
686.649	70.01
686.835	70.73
687.021	70.19
687.206	70.33
687.392	69.63
687.577	69.77
687.763	69.07
687.948	69.27
688.134	70.1
688.319	71.14
688.505	71.26
688.69	71.27
688.876	70.92
689.061	71.24
689.247	71.5
689.432	72.36
689.618	72.17
689.803	72.51
689.988	72.41
690.174	71.64
690.359	71.58
690.544	71.79
690.73	72.11
690.915	71.78
691.1	72.06
691.285	71.51
691.471	71.11
691.656	70.95
691.841	70.71
692.026	70.55
692.211	70.48
692.396	70.48
692.582	70.39
692.767	69.75
692.952	70.09
693.137	70.14
693.322	69.92
693.507	70.37
693.692	70.43
693.877	69.99
694.062	70.02
694.247	70.01
694.432	69.71
694.617	69.71
694.802	70.35
694.987	69.39
695.172	69.21
695.357	70.13
695.541	70.17
695.726	70.26
695.911	70.36
696.096	70.13
696.281	70.12
696.466	70.14
696.65	70.23
696.835	69.89
697.02	69.94
697.204	69.8
697.389	70.05
697.574	70.51
697.759	70.68
697.943	71.22
698.128	71.39
698.312	71.66
698.497	71.38
698.682	71.23
698.866	71.06
699.051	71.65
699.235	71.61
699.42	71.17
699.604	70.9
699.789	71.01
699.973	70.91
700.158	70.8
700.342	70.94
700.527	70.87
700.711	70.8
700.895	71.06
701.08	71.1
701.264	71.35
701.448	71.45
701.633	71.02
701.817	70.96
702.001	70.22
702.186	70.72
702.37	70.42
702.554	70.77
702.738	70.98
702.923	70.88
703.107	71.14
703.291	70.2
703.475	69.65
703.659	69.85
703.843	69.64
704.027	70.45
704.212	70.25
704.396	70.23
704.58	70.05
704.764	69.94
704.948	70.6
705.132	69.82
705.316	70.78
705.5	71.53
705.684	71.26
705.868	70.81
706.052	69.79
706.235	69.19
706.419	68.78
706.603	68.73
706.787	68.29
706.971	67.76
707.155	67.84
707.339	67.79
707.522	67.11
707.706	67.22
707.89	67.59
708.074	68.1
708.257	68.83
708.441	69.06
708.625	68.86
708.808	68.95
708.992	69.23
709.176	69.16
709.359	69
709.543	69.85
709.727	69.92
709.91	70.44
710.094	70.38
710.277	70.22
710.461	69.67
710.644	69.7
710.828	70.02
711.011	70.63
711.195	70.75
711.378	70.07
711.562	69.68
711.745	70.83
711.928	70.26
712.112	70.04
712.295	69.67
712.478	70.39
712.662	70.33
712.845	70.28
713.028	69.03
713.212	68.49
713.395	69.74
713.578	70.18
713.761	69.39
713.945	69.77
714.128	69.83
714.311	70.09
714.494	70.07
714.677	70.14
714.86	69.39
715.043	70.15
715.227	70.9
715.41	70.28
715.593	69.93
715.776	69.76
715.959	70.17
716.142	71.13
716.325	70.84
716.508	70.87
716.691	70.81
716.874	71.63
717.057	71.06
717.239	70.8
717.422	70.56
717.605	70.47
717.788	69.86
717.971	69.3
718.154	68.36
718.337	68.78
718.519	68.36
718.702	68.31
718.885	68.52
719.068	68.84
719.25	68.88
719.433	68.3
719.616	67.14
719.798	68.19
719.981	68.16
720.164	68.39
720.346	67.9
720.529	68.3
720.712	69.06
720.894	68.28
721.077	68.17
721.259	68.26
721.442	68.81
721.624	69.83
721.807	69.77
721.989	69.73
722.172	70.12
722.354	69.91
722.537	69.67
722.719	69.96
722.901	68.9
723.084	69.54
723.266	69.3
723.448	69.59
723.631	69.25
723.813	69.35
723.995	70.61
724.178	69.94
724.36	70.68
724.542	70.78
724.724	70.19
724.907	71.45
725.089	70.5
725.271	70.89
725.453	70.61
725.635	71.59
725.817	70.99
725.999	69.23
726.181	68.88
726.364	68.2
726.546	67.9
726.728	66.99
726.91	69.06
727.092	68.68
727.274	68.1
727.456	68.03
727.638	66.99
727.819	67.81
728.001	68.38
728.183	68.55
728.365	69.56
728.547	70.52
728.729	71.83
728.911	70.47
729.093	71.04
729.274	71.51
729.456	71.71
729.638	72.86
729.82	72.64
730.001	72.56
730.183	71.57
730.365	71.61
730.546	70.55
730.728	69.95
730.91	69.23
731.091	70.58
731.273	70.43
731.455	70.73
731.636	70.4
731.818	70.14
731.999	71.13
732.181	72.43
732.362	72.22
732.544	72.82
732.725	72.56
732.907	73.14
733.088	70.77
733.27	70.43
733.451	69.69
733.633	70.01
733.814	69.46
733.995	68.92
734.177	68.53
734.358	68.26
734.539	67.92
734.721	69.64
734.902	70.08
735.083	71.85
735.264	71.47
735.446	71.53
735.627	70.97
735.808	71.21
735.989	71.21
736.17	71.75
736.351	72.68
736.533	72.72
736.714	72.49
736.895	72.13
737.076	71.65
737.257	72.8
737.438	73.47
737.619	72.49
737.8	72.44
737.981	71.37
738.162	71.02
738.343	69.31
738.524	68.19
738.705	65.81
738.886	65.23
739.067	65.36
739.247	64.03
739.428	64.74
739.609	65.02
739.79	65.73
739.971	66.03
740.151	66.28
740.332	66.5
740.513	68.16
740.694	69.57
740.874	69.65
741.055	69.63
741.236	69.91
741.417	70.1
741.597	70.33
741.778	69.25
741.958	69.2
742.139	70.01
742.32	70.57
742.5	70.66
742.681	70.44
742.861	70.72
743.042	70.96
743.222	71.3
743.403	70.96
743.583	71.15
743.764	70.21
743.944	70.51
744.124	68.92
744.305	68.2
744.485	68.24
744.666	68.26
744.846	68.98
745.026	68.15
745.207	68.96
745.387	67.99
745.567	67.58
745.747	69.1
745.928	68.86
746.108	69.72
746.288	69.78
746.468	69.52
746.648	69.01
746.829	68.57
747.009	69.74
747.189	68.78
747.369	69.26
747.549	70.39
747.729	70.62
747.909	70.43
748.089	70.26
748.269	69.73
748.449	67.58
748.629	67.54
748.809	67.09
748.989	65
749.169	64.64
749.349	63.69
749.529	63.01
749.709	61.73
749.889	62.02
750.068	61.79
750.248	60.89
750.428	61.85
750.608	62.02
750.788	63.51
750.967	63.96
751.147	64.71
751.327	65.99
751.507	65.85
751.686	67.18
751.866	67.58
752.046	67.84
752.225	68.34
752.405	68.7
752.585	69.19
752.764	66.51
752.944	67.2
753.123	67.66
753.303	66.31
753.482	67.32
753.662	67.56
753.841	66.98
754.021	67.17
754.2	68.04
754.38	67.53
754.559	68.06
754.739	68.29
754.918	67.5
755.097	66.4
755.277	67.55
755.456	67.33
755.635	66.34
755.815	64.46
755.994	63.95
756.173	64.21
756.352	65.13
756.532	63.45
756.711	63.91
756.89	66.08
757.069	66.42
757.248	65.29
757.427	65.94
757.607	67.45
757.786	67.64
757.965	66.96
758.144	66.12
758.323	65.58
758.502	66.78
758.681	67.07
758.86	67.14
759.039	67.42
759.218	68.23
759.397	65.51
759.576	65.26
759.755	67.67
759.934	69.86
760.113	71.02
760.291	71.76
760.47	70.42
760.649	70.27
760.828	68.33
761.007	69.1
761.186	68.61
761.364	68.73
761.543	68.16
761.722	67.17
761.901	66.22
762.079	65.52
762.258	66.3
762.437	67.12
762.615	67.91
762.794	68.97
762.972	68.97
763.151	70.01
763.33	71.65
763.508	71.33
763.687	71.8
763.865	70.84
764.044	70.81
764.222	69.21
764.401	68.9
764.579	68.08
764.758	68.42
764.936	68.31
765.114	68.52
765.293	67.95
765.471	67.61
765.65	66.97
765.828	67.63
766.006	68.05
766.184	69.04
766.363	68.34
766.541	68.74
766.719	68.62
766.898	66.48
767.076	64.99
767.254	64.4
767.432	64.24
767.61	63.27
767.788	62.19
767.967	62.88
768.145	62.03
768.323	63.51
768.501	62.63
768.679	60.68
768.857	62.84
769.035	62.89
769.213	61.82
769.391	61.84
769.569	61.75
769.747	61.54
769.925	60.65
770.103	60.48
770.281	59.58
770.459	61.15
770.636	61.27
770.814	59.63
770.992	60.59
771.17	63.82
771.348	65.06
771.525	66.8
771.703	69.39
771.881	70.04
772.059	71.89
772.236	74.49
772.414	73.8
772.592	73.08
772.769	75.43
772.947	73.46
773.125	69.23
773.302	69.4
773.48	68.89
773.657	66.13
773.835	65.1
774.013	65.01
774.19	63.56
774.368	65.98
774.545	66.32
774.723	64.44
774.9	65.49
775.077	68.56
775.255	66.99
775.432	66.97
775.61	69.98
775.787	69.49
775.964	67.28
776.142	65.61
776.319	64.58
776.496	65.17
776.674	65.71
776.851	65.07
777.028	63.19
777.205	60.97
777.382	59.96
777.56	59.61
777.737	60.35
777.914	60.83
778.091	62.18
778.268	61.34
778.445	61.42
778.622	61.4
778.8	61.12
778.977	62.89
779.154	66.11
779.331	66.08
779.508	65.54
779.685	63.26
779.862	63.75
780.038	63.02
780.215	61.41
780.392	62.75
780.569	63.16
780.746	63.51
780.923	61.48
781.1	60.02
781.277	61.06
781.453	60.7
781.63	61.37
781.807	59.79
781.984	62.9
782.16	63.68
782.337	62.05
782.514	59.57
782.691	58.9
782.867	58.58
783.044	56.91
783.221	58.44
783.397	58.09
783.574	58.28
783.75	58.07
783.927	58.58
784.103	56.94
784.28	56.74
784.456	59.87
784.633	61.74
784.809	62.03
784.986	63.67
785.162	61.22
785.339	60.95
785.515	62.21
785.692	64.47
785.868	60.94
786.044	63.07
786.221	64.82
786.397	63.63
786.573	61.54
786.749	62.24
786.926	60.37
787.102	60.49
787.278	60.51
787.454	57.77
787.631	55.74
787.807	57.08
787.983	56.71
788.159	55.2
788.335	55.77
788.511	57.32
788.687	58.36
788.863	61.51
789.039	61.31
789.216	60.83
789.392	63.11
789.568	64.87
789.744	63.17
789.919	62.07
790.095	61.38
790.271	60.22
790.447	60.4
790.623	58.33
790.799	58.23
790.975	58.92
791.151	61.96
791.327	65.83
791.502	64.78
791.678	65.02
791.854	67.74
792.03	67.35
792.205	71.09
792.381	69.24
792.557	71.49
792.733	70.04
792.908	71.55
793.084	66.7
793.259	62.14
793.435	63.32
793.611	68.61
793.786	68.15
793.962	67.54
794.137	62.63
794.313	64.2
794.488	62.65
794.664	66.1
794.839	63.6
795.015	66.57
795.19	65.48
795.366	65.45
795.541	60.59
795.716	57.62
795.892	62.22
796.067	63.92
796.242	65.69
796.418	66.88
796.593	64.63
796.768	68.87
796.944	68.32
797.119	70.55
797.294	67.69
797.469	66.76
797.644	70.6
797.82	68.2
797.995	70.02
798.17	69
798.345	69.58
798.52	68.39
798.695	65.48
798.87	64.3
799.045	61.04
799.22	62.29
799.395	64.06
799.57	63.53
799.745	61.08
799.92	58.38
800.095	56.63
800.27	51.28
800.445	51.63
800.62	52.49
800.795	54.63
800.97	55.07
801.145	56.9
801.319	57.82
801.494	55.63
801.669	60.29
801.844	62.56
802.018	66.43
802.193	72.42
802.368	72.45
802.543	75.81
802.717	71.4
802.892	71.87
803.067	74.78
803.241	70.56
803.416	69.13
803.59	65.38
803.765	63.19
803.94	59.09
804.114	57.58
804.289	57.59
804.463	53.89
804.638	56.04
804.812	54.52
804.986	49.99
805.161	53.71
805.335	54.44
805.51	57.24
805.684	56.97
805.858	56.79
806.033	54.49
806.207	52.15
806.381	51.27
806.556	52.22
806.73	57.36
806.904	55.62
807.078	52.04
807.253	53.04
807.427	49.71
807.601	48.94
807.775	48.75
807.949	51.15
808.123	54.63
808.298	54.81
808.472	53.22
808.646	49.01
808.82	54.58
808.994	55.86
809.168	53.52
809.342	56.29
809.516	57.51
809.69	58
809.864	55.6
810.038	54.18
810.212	54.2
810.385	55.43
810.559	55.86
810.733	53.62
810.907	54.56
811.081	57.29
811.255	57.51
811.428	61.02
811.602	61.73
811.776	66.13
811.95	66.19
812.123	65.86
812.297	61.42
812.471	58.98
812.644	59.09
812.818	59.63
812.992	60
813.165	61.4
813.339	57.22
813.512	59.87
813.686	58.62
813.86	58.26
814.033	62.58
814.207	64.99
814.38	65.84
814.554	69.9
814.727	68.64
814.9	69.47
815.074	64.16
815.247	64.74
815.421	60.38
815.594	58.74
815.767	60.69
815.941	58.07
816.114	59.48
816.287	57.84
816.46	47.45
816.634	43.92
816.807	45.27
816.98	50.8
817.153	51.92
817.327	53.18
817.5	60.83
817.673	50.45
817.846	47.72
818.019	49.22
818.192	56
818.365	66.05
818.538	67.58
818.711	66.73
818.884	63.83
819.057	67.28
819.23	66.12
819.403	63.69
819.576	68.9
819.749	70.54
819.922	69.83
820.095	67.43
820.268	63.45
820.441	66
820.614	65
820.786	67.23
820.959	66.54
821.132	69.56
821.305	69.2
821.477	69.97
821.65	71.54
821.823	71.45
821.996	71.49
822.168	71.38
822.341	71.35
822.514	71.1
822.686	69.96
822.859	70.09
823.031	68.9
823.204	69.63
823.376	69.04
823.549	67.8
823.722	67.85
823.894	67.58
824.067	67.24
824.239	66.08
824.411	65.49
824.584	65.69
824.756	64.14
824.929	63.08
825.101	62.28
825.273	61.87
825.446	61.08
825.618	59.82
825.79	60.17
825.963	60.92
826.135	60.13
826.307	61.19
826.479	60.42
826.652	60.47
826.824	61.39
826.996	61.53
827.168	63
827.34	64.46
827.512	65.46
827.684	63.67
827.856	62.68
828.029	62.45
828.201	60.55
828.373	60
828.545	60.44
828.717	60.91
828.889	58.63
829.061	56.63
829.232	56.77
829.404	54.07
829.576	53.95
829.748	53.75
829.92	55.86
830.092	56.29
830.264	56.22
830.436	56.99
830.607	56.58
830.779	58.39
830.951	59.08
831.123	55.48
831.294	54.24
831.466	53.55
831.638	49.16
831.809	48.72
831.981	47.59
832.153	50.46
832.324	50.22
832.496	53.61
832.667	52.78
832.839	53.73
833.011	55.57
833.182	58.84
833.354	59.47
833.525	61.11
833.697	61.46
833.868	61.57
834.039	62.43
834.211	62.49
834.382	60.62
834.554	62.44
834.725	62.62
834.896	60.53
835.068	62.2
835.239	64.91
835.41	65.37
835.581	64.22
835.753	67.21
835.924	65.11
836.095	64.63
836.266	63.68
836.438	60.03
836.609	60.24
836.78	65.9
836.951	63.91
837.122	61.97
837.293	61.03
837.464	62.02
837.635	60.71
837.806	60.81
837.977	59.41
838.148	62.47
838.319	65.67
838.49	59.41
838.661	57.33
838.832	56.27
839.003	57.87
839.174	59.42
839.345	51.99
839.516	48.77
839.687	53.19
839.857	56.6
840.028	51.7
840.199	51.95
840.37	60.19
840.54	60.9
840.711	59.8
840.882	58.45
841.053	50.66
841.223	51.79
841.394	49.21
841.564	45.09
841.735	45.96
841.906	47.9
842.076	44.8
842.247	39.44
842.417	37.61
842.588	43.43
842.758	40.73
842.929	52.49
843.099	53.9
843.27	59.15
843.44	47.89
843.611	54.44
843.781	42.18
843.951	37.39
844.122	39.47
844.292	45.72
844.462	39.27
844.633	41.23
844.803	42.43
844.973	51.23
845.144	46.19
845.314	70.99
845.484	49.66
845.654	60.22
845.824	67.05
845.995	72.58
846.165	53.25
846.335	57.61
846.505	63.64
846.675	60.65
846.845	58.1
847.015	56.16
847.185	63.2
847.355	59.51
847.525	59.67
847.695	71.42
847.865	68.17
848.035	67.95
848.205	63.97
848.375	54.55
848.545	61.25
848.715	75.86
848.884	72.33
849.054	62.81
849.224	60.88
849.394	65.22
849.564	50.85
849.733	68.29
849.903	58.33
850.073	65.47
850.243	67.42
850.412	52.63
850.582	49.3
850.752	45.66
850.921	46.63
851.091	50.31
851.26	50.85
851.43	42.28
851.599	29.71
851.769	36.08
851.939	35.74
852.108	33.79
852.278	34.41
852.447	25.31
852.616	29.41
852.786	23.2
852.955	20.98
853.125	9.5
853.294	13.5
853.463	5.47
853.633	-0.37
853.802	-14.34
853.971	-18.45
854.141	-23.59
854.31	-9.71
854.479	-0.05
854.648	1.01
854.818	18.58
854.987	31.34
855.156	31.49
855.325	42.84
855.494	36.46
855.663	33.03
855.832	32.98
856.001	37.74
856.171	40.62
856.34	29.78
856.509	30.49
856.678	11.35
856.847	21.81
857.016	28.85
857.185	38.16
857.353	51.76
857.522	68.86
857.691	67.56
857.86	58.65
858.029	52.3
858.198	93.64
858.367	70.81
858.535	74.31
858.704	66.04
858.873	47.68
859.042	37.83
859.21	24.24
859.379	25.21
859.548	34.2
859.717	42.78
859.885	45.05
860.054	40.18
860.222	46.82
860.391	46.1
860.56	42.29
860.728	53.68
860.897	56.03
861.065	70.15
861.234	56.49
861.402	52.13
861.571	41.7
861.739	40.63
861.908	31.68
862.076	33.22
862.244	24.89
862.413	35.86
862.581	20.79
862.749	26.16
862.918	16.97
863.086	15.53
863.254	10.87
863.423	31.84
863.591	21.27
863.759	30.05
863.927	46.6
864.096	41.17
864.264	44.82
864.432	49.32
864.6	43.4
864.768	42.15
864.936	51.95
865.104	57.06
865.272	19.43
865.44	40.86
865.608	32.91
865.776	18.03
865.944	25.15
866.112	11.95
866.28	14.26
866.448	13.1
866.616	-2.33
866.784	-8.98
866.952	-19.11
867.12	6.56
867.288	-1.62
867.455	-0.92
867.623	-20.04
867.791	-13.69
867.959	-3.53
868.127	1.24
868.294	-0.15
868.462	22.54
868.63	14.26
868.797	9.17
868.965	17.89
869.133	18.55
869.3	19.88
869.468	20.73
869.636	16.09
869.803	10.8
869.971	-3.57
870.138	8.05
870.306	-16.9
870.473	8.34
870.641	52.54
870.808	67.32
870.975	35.07
871.143	47.28
871.31	69.19
871.478	74.64
871.645	80.01
871.812	81.91
871.98	72.35
872.147	70.73
872.314	63.48
872.482	54.49
872.649	55.6
872.816	69.13
872.983	64.07
873.15	50.7
873.318	47.39
873.485	32.28
873.652	39.8
873.819	39.05
873.986	38.24
874.153	40.84
874.32	27.23
874.487	18.86
874.654	-6.58
874.821	-2.87
874.988	-12.28
875.155	-9.01
875.322	10.75
875.489	-0.49
875.656	-5.92
875.823	-4.71
875.99	-0.67
876.157	16.67
876.324	1.03
876.49	24.26
876.657	-5.43
876.824	-13.74
876.991	-3.52
877.157	0.98
877.324	-15.72
877.491	-11.06
877.658	-8.71
877.824	-15.96
877.991	-8.26
878.157	14.71
878.324	8.48
878.491	14.72
878.657	25.46
878.824	29.01
878.99	20.05
879.157	18.21
879.323	21.26
879.49	9.24
879.656	13.15
879.823	8.37
879.989	-27.3
880.156	-36.33
880.322	-11.31
880.488	-0.27
880.655	-9.94
880.821	20.98
880.987	47.4
881.154	42.26
881.32	49.4
881.486	51.29
881.652	52.83
881.819	52.72
881.985	54.87
882.151	48.23
882.317	53.11
882.483	53.34
882.649	52.88
882.816	49.85
882.982	46.81
883.148	50.75
883.314	51.55
883.48	50.55
883.646	49.18
883.812	50.82
883.978	52.19
884.144	51.92
884.31	52.87
884.476	52.67
884.642	54.58
884.807	59.56
884.973	54.39
885.139	55.25
885.305	53.97
885.471	55.61
885.637	51.57
885.802	57.97
885.968	56.72
886.134	57.01
886.3	54.35
886.465	53.21
886.631	49.24
886.797	50.4
886.962	41.87
887.128	42.89
887.293	34.38
887.459	42.26
887.625	38.69
887.79	35.79
887.956	33.76
888.121	35.65
888.287	34.89
888.452	33.67
888.618	38.68
888.783	45.42
