Data from 2937841_Reflection_3.txt Node
Date: Wed Jul 15 16:17:24 EDT 2015
User: robert
Spectrometer: USB4E03001
Autoset integration time: false
Trigger mode: 4
Integration Time (sec): 1.000000E-1
Scans to average: 10
Electric dark correction enabled: true
Nonlinearity correction enabled: false
Boxcar width: 5
Stray light correction enabled: false
XAxis mode: Wavelengths
Stop averaging: false
Number of Pixels in Spectrum: 3648
>>>>>Begin Spectral Data<<<<<
177.566	117.22
177.785	493.19
178.005	-577.66
178.225	-1373.06
178.445	-250.53
178.665	-50.44
178.885	257.86
179.105	107.86
179.324	134.69
179.544	6273.44
179.764	-227.79
179.984	-59.4
180.204	-20.31
180.423	-43.72
180.643	-68.39
180.863	-61.38
181.083	2.09
181.302	101.61
181.522	88.87
181.742	107.1
181.961	99.29
182.181	-4374.07
182.401	-164.81
182.621	-217.42
182.84	-505.08
183.06	157.26
183.279	72.01
183.499	78.06
183.719	29.32
183.938	53.46
184.158	42.56
184.377	41.17
184.597	45.44
184.816	25.65
185.036	19.63
185.256	-3.21
185.475	-123.26
185.695	-92.83
185.914	-129.37
186.134	-216.48
186.353	-10282.28
186.572	-704.59
186.792	-115
187.011	-64.48
187.231	-144.26
187.45	-81.64
187.67	-37.06
187.889	34.92
188.108	-9.15
188.328	-20.19
188.547	-111.68
188.766	-105.27
188.986	-137.7
189.205	397.95
189.424	346.86
189.644	526.86
189.863	483.58
190.082	340.24
190.302	228.83
190.521	224.53
190.74	171.6
190.959	172.72
191.178	464.65
191.398	198.24
191.617	-1434.85
191.836	250.32
192.055	156.99
192.274	325.28
192.494	84.84
192.713	-231.12
192.932	134.47
193.151	94.13
193.37	64.89
193.589	12.4
193.808	-547.36
194.027	67.99
194.246	50.94
194.465	128.54
194.685	-4382.5
194.904	-43.36
195.123	118.04
195.342	-98.56
195.561	65.35
195.78	72.3
195.999	-2.46
196.218	1807.89
196.436	122.48
196.655	82.16
196.874	268.85
197.093	2800
197.312	-270.72
197.531	83.87
197.75	73.44
197.969	79.82
198.188	66.7
198.407	76.39
198.625	57.07
198.844	34.64
199.063	48.59
199.282	44.08
199.501	48.48
199.719	40.74
199.938	43.89
200.157	32.42
200.376	10.92
200.594	34.25
200.813	290.14
201.032	227.23
201.251	162.72
201.469	561.63
201.688	290.37
201.907	55.06
202.125	-341.16
202.344	126.12
202.563	107.29
202.781	10184
203	296.24
203.218	432.06
203.437	266.05
203.656	220.4
203.874	179.38
204.093	212.96
204.311	267.85
204.53	174.7
204.748	373.18
204.967	3714.19
205.185	-262.85
205.404	-48.16
205.622	4.94
205.841	-38.24
206.059	3.6
206.278	31.18
206.496	14
206.715	28.05
206.933	-2.01
207.151	30.9
207.37	14.29
207.588	49.75
207.806	7.75
208.025	-0.95
208.243	37.97
208.461	67.3
208.68	63.36
208.898	55.43
209.116	38.4
209.335	36.88
209.553	39.82
209.771	36.28
209.989	8.24
210.208	16.21
210.426	-2.07
210.644	-60
210.862	-88.84
211.081	-154.5
211.299	-152.19
211.517	-90.65
211.735	-1680.67
211.953	-4472.35
212.171	350.32
212.39	443.45
212.608	-6134.75
212.826	-3080.43
213.044	-317.39
213.262	-243.68
213.48	-486.2
213.698	4790.21
213.916	-504.89
214.134	-193.11
214.352	-313.3
214.57	-740.35
214.788	679.77
215.006	356.39
215.224	-1419.3
215.442	-1463.29
215.66	451.54
215.878	301.34
216.096	1696.74
216.314	354
216.532	220.37
216.75	451.99
216.968	-2277.03
217.185	-111.98
217.403	-170.18
217.621	891.88
217.839	615.49
218.057	489.71
218.275	-978.46
218.492	-991.67
218.71	-738.89
218.928	-367.8
219.146	-14.57
219.363	18.88
219.581	-80.81
219.799	-43.42
220.017	-26.55
220.234	-44.97
220.452	-25.23
220.67	-30.59
220.887	-5.03
221.105	5.13
221.323	-29.89
221.54	-52.66
221.758	-108.25
221.976	-46.32
222.193	-88.84
222.411	-17.42
222.629	-38.39
222.846	-44.82
223.064	-12.18
223.281	-62.2
223.499	-31.45
223.716	-6.33
223.934	-16.45
224.151	-14.33
224.369	-24.37
224.586	0.19
224.804	-15.77
225.021	12.12
225.239	-2.78
225.456	-34.44
225.674	-17.25
225.891	-11.04
226.108	-7.78
226.326	1.16
226.543	18.89
226.76	12.39
226.978	14.28
227.195	21.84
227.413	18.86
227.63	14.2
227.847	18.37
228.064	18.77
228.282	13.84
228.499	16.59
228.716	16.41
228.934	12.38
229.151	15.49
229.368	11.76
229.585	7.97
229.802	9.31
230.02	16.96
230.237	14.43
230.454	12.42
230.671	12.79
230.888	10.03
231.105	13.41
231.323	12.63
231.54	8.54
231.757	6.49
231.974	10.29
232.191	15.97
232.408	14.82
232.625	16.47
232.842	16.45
233.059	15.85
233.276	18.74
233.493	16.15
233.71	26.53
233.927	32.87
234.144	35.28
234.361	27.04
234.578	19.14
234.795	10.02
235.012	8.04
235.229	12.83
235.446	10.15
235.663	5.48
235.879	2.82
236.096	3.1
236.313	-4.97
236.53	-5.01
236.747	1.13
236.964	7.47
237.181	12.35
237.397	17.51
237.614	11.22
237.831	18.25
238.048	21.9
238.264	19.28
238.481	16.11
238.698	22.26
238.915	25.34
239.131	27.33
239.348	23.68
239.565	24.65
239.781	17.44
239.998	17.19
240.215	16.25
240.431	18.2
240.648	18.58
240.865	16.21
241.081	12.54
241.298	10.44
241.514	8.29
241.731	9.5
241.947	9.26
242.164	11.54
242.38	10.96
242.597	9.29
242.814	6.8
243.03	7.68
243.246	8.52
243.463	10.07
243.679	9.68
243.896	10.27
244.112	9.03
244.329	8.22
244.545	8.4
244.762	11.19
244.978	10.72
245.194	12.94
245.411	14.23
245.627	14.66
245.843	14.8
246.06	15.52
246.276	15.99
246.492	14.94
246.709	15.38
246.925	14.6
247.141	13.18
247.357	13.98
247.574	13.4
247.79	11.65
248.006	11.17
248.222	11.17
248.439	12.5
248.655	11.49
248.871	11.59
249.087	10.7
249.303	11.15
249.519	11.08
249.736	11.28
249.952	10.54
250.168	11.94
250.384	11.14
250.6	9.71
250.816	4.59
251.032	6.05
251.248	7.21
251.464	7.27
251.68	6.47
251.896	8.17
252.112	5.32
252.328	7.37
252.544	6.14
252.76	7.47
252.976	7.8
253.192	8.55
253.408	6.27
253.624	2.4
253.84	4.53
254.056	6.31
254.272	5.12
254.487	7.87
254.703	10.01
254.919	13.82
255.135	13.51
255.351	11.05
255.567	13.84
255.782	16.84
255.998	20.13
256.214	17.29
256.43	13.7
256.646	12.11
256.861	10.43
257.077	8.12
257.293	8.05
257.508	8.16
257.724	10.72
257.94	12
258.155	11.14
258.371	13.02
258.587	10.9
258.802	12.33
259.018	12.65
259.234	12.42
259.449	12.18
259.665	11.98
259.88	11.94
260.096	11.11
260.312	9.73
260.527	9.39
260.743	9.1
260.958	9.58
261.174	8.98
261.389	8.91
261.605	9.27
261.82	8.66
262.036	9.02
262.251	9.65
262.466	11.29
262.682	11.81
262.897	13.66
263.113	13.98
263.328	14.44
263.543	15.1
263.759	15.67
263.974	16.25
264.189	16.7
264.405	15.4
264.62	13.51
264.835	12.8
265.051	10.5
265.266	8.2
265.481	8.12
265.696	8.23
265.912	7.87
266.127	6.47
266.342	6.05
266.557	5.42
266.773	4.54
266.988	6.26
267.203	6.1
267.418	8.79
267.633	7.87
267.848	7.96
268.064	8.45
268.279	7.46
268.494	8.99
268.709	7.5
268.924	8.01
269.139	8.48
269.354	7.45
269.569	7.18
269.784	7.75
269.999	8.41
270.214	7.45
270.429	7.02
270.644	5.77
270.859	7.35
271.074	8.37
271.289	9.09
271.504	9.57
271.719	11.37
271.934	11.2
272.149	9.94
272.363	9.74
272.578	9.99
272.793	9.18
273.008	11.87
273.223	10.18
273.438	9.12
273.653	7.37
273.867	6.39
274.082	4.36
274.297	5.09
274.512	3.77
274.726	4.41
274.941	4.24
275.156	5.9
275.371	3.99
275.585	2.49
275.8	2.3
276.015	5.2
276.229	7.29
276.444	6.36
276.659	5.97
276.873	5.74
277.088	5.44
277.302	4.28
277.517	3.58
277.732	3.73
277.946	4.65
278.161	6.64
278.375	5.12
278.59	3.72
278.804	2.19
279.019	1.41
279.233	3.39
279.448	2.97
279.662	4.86
279.877	6.93
280.091	6.43
280.306	6.78
280.52	6.15
280.735	5.62
280.949	7.03
281.163	8.97
281.378	9.45
281.592	9.24
281.806	10.5
282.021	8.54
282.235	7.16
282.449	6.86
282.664	8.14
282.878	7.3
283.092	9.11
283.307	7.74
283.521	6.65
283.735	6.17
283.949	6.7
284.164	6.19
284.378	7.16
284.592	6.27
284.806	6.36
285.02	6.99
285.234	8.34
285.449	8.14
285.663	9.71
285.877	10.11
286.091	9.76
286.305	9.63
286.519	8.89
286.733	10.38
286.947	10.09
287.161	11.25
287.375	9.19
287.589	8.92
287.803	6.57
288.017	4.5
288.231	4.45
288.445	6.59
288.659	6.68
288.873	7.25
289.087	6.23
289.301	7.28
289.515	7.74
289.729	7.61
289.943	8.06
290.157	10.45
290.371	11.83
290.584	13.48
290.798	12.18
291.012	10.82
291.226	11.38
291.44	11.76
291.654	13.28
291.867	12.8
292.081	15.18
292.295	16.71
292.509	17.07
292.722	16.85
292.936	15.68
293.15	16.32
293.364	18.82
293.577	18.17
293.791	17.05
294.005	15.37
294.218	14.47
294.432	13.22
294.645	11.48
294.859	11.24
295.073	11.7
295.286	10.87
295.5	9.68
295.713	9.8
295.927	10.24
296.14	10.67
296.354	11.49
296.568	12.72
296.781	12.74
296.994	13.31
297.208	13.74
297.421	12.99
297.635	14.12
297.848	14.81
298.062	14.38
298.275	15.44
298.489	16.47
298.702	16.78
298.915	15.74
299.129	17.34
299.342	17.37
299.555	17.67
299.769	18.46
299.982	18.71
300.195	19.55
300.409	19.6
300.622	19.78
300.835	19.52
301.048	19.96
301.262	20.17
301.475	17.79
301.688	17.6
301.901	16.97
302.115	18.32
302.328	18.04
302.541	16.29
302.754	16.25
302.967	16.32
303.18	16.58
303.393	15.9
303.607	16.9
303.82	17.92
304.033	18.39
304.246	18.84
304.459	18.06
304.672	19.46
304.885	20.78
305.098	20.82
305.311	21.04
305.524	19.79
305.737	20.84
305.95	20.11
306.163	20.15
306.376	20.71
306.589	20.85
306.802	19.98
307.015	19.11
307.228	17.57
307.44	18.18
307.653	17.78
307.866	18.97
308.079	18.81
308.292	20.54
308.505	21.31
308.718	20.01
308.93	18.15
309.143	18.75
309.356	19.14
309.569	20.38
309.781	19.43
309.994	19.72
310.207	20.28
310.42	20.44
310.632	20.74
310.845	20.46
311.058	20.24
311.27	22.33
311.483	21.98
311.696	21.94
311.908	21.69
312.121	23.02
312.333	22.6
312.546	22.39
312.759	24.15
312.971	24.43
313.184	23.36
313.396	25.13
313.609	23.77
313.821	24.45
314.034	23.63
314.246	23.42
314.459	23.77
314.671	23.73
314.884	23.57
315.096	22.1
315.309	21.17
315.521	20.86
315.733	20.47
315.946	21.07
316.158	20.85
316.371	21.54
316.583	21.61
316.795	21.74
317.008	22.88
317.22	22.67
317.432	22.33
317.644	22.65
317.857	24.22
318.069	23.52
318.281	23.39
318.494	25.23
318.706	25.58
318.918	27.58
319.13	25.33
319.342	25.68
319.555	26.93
319.767	24.69
319.979	25.87
320.191	26.43
320.403	25.25
320.615	26.91
320.827	25.46
321.039	26.69
321.252	25.21
321.464	27.61
321.676	26.2
321.888	26.92
322.1	27.67
322.312	26.95
322.524	27.14
322.736	28.48
322.948	26.14
323.16	26.88
323.372	26.47
323.584	27.08
323.796	27.11
324.007	27.61
324.219	26.15
324.431	27.72
324.643	27.53
324.855	27.34
325.067	29.53
325.279	30.97
325.491	31.75
325.702	31.59
325.914	32.36
326.126	32
326.338	32.57
326.55	34.69
326.761	34.59
326.973	34.58
327.185	35.98
327.396	36.1
327.608	35.92
327.82	36.44
328.032	36.22
328.243	37.24
328.455	38.28
328.666	38.58
328.878	38.24
329.09	38.87
329.301	41.5
329.513	41.92
329.725	41.82
329.936	43.4
330.148	44.21
330.359	46.98
330.571	47.26
330.782	49.24
330.994	49.06
331.205	50.08
331.417	50.58
331.628	49.43
331.84	51.07
332.051	50.54
332.262	49.87
332.474	50.7
332.685	49.62
332.897	49.75
333.108	49.56
333.319	51.7
333.531	52.44
333.742	51.75
333.953	53.17
334.165	52.22
334.376	54.06
334.587	56.63
334.799	56.59
335.01	57.79
335.221	58.99
335.432	58.64
335.644	59.01
335.855	59.27
336.066	60.46
336.277	60.28
336.488	62.16
336.7	61.58
336.911	62.23
337.122	62.86
337.333	62.98
337.544	64.13
337.755	66.3
337.966	66.28
338.177	66.63
338.388	67.6
338.599	68.02
338.811	67.59
339.022	69.44
339.233	68.65
339.444	69.58
339.655	69.62
339.866	69.79
340.076	69.22
340.287	69.4
340.498	69.58
340.709	70.36
340.92	71.78
341.131	72.34
341.342	72.31
341.553	73.63
341.764	73.65
341.975	74.12
342.185	73.48
342.396	72.43
342.607	73.83
342.818	74.5
343.029	73.94
343.239	73.58
343.45	73.62
343.661	72.75
343.872	72.2
344.082	72.12
344.293	73.7
344.504	73.97
344.714	73.82
344.925	73.31
345.136	73.36
345.346	72.44
345.557	72.32
345.768	72.62
345.978	73.03
346.189	72.91
346.399	72.33
346.61	70.55
346.821	70.68
347.031	72.19
347.242	72.4
347.452	72.09
347.663	75
347.873	75.37
348.084	75.59
348.294	76.12
348.504	77.38
348.715	78.17
348.925	78.16
349.136	77.27
349.346	76.1
349.557	75.68
349.767	75.87
349.977	74.35
350.188	74.03
350.398	74.37
350.608	74.4
350.819	73.09
351.029	72.93
351.239	74.4
351.449	76.13
351.66	76.62
351.87	76.68
352.08	77.31
352.29	78.25
352.501	80.04
352.711	79.56
352.921	79.42
353.131	79.31
353.341	78.67
353.552	78.28
353.762	77.16
353.972	77.1
354.182	77.02
354.392	76.66
354.602	75.67
354.812	74.92
355.022	74.51
355.232	74.21
355.442	73.48
355.652	73.84
355.862	73.05
356.072	73.01
356.282	73.27
356.492	73.12
356.702	73.27
356.912	74.14
357.122	74.22
357.332	75.11
357.542	75.3
357.752	75.86
357.962	76.22
358.171	77.15
358.381	77.13
358.591	76.46
358.801	77.16
359.011	77.45
359.221	75.53
359.43	74.41
359.64	73.68
359.85	73.9
360.06	73.95
360.269	73.44
360.479	73.51
360.689	73.36
360.899	74.22
361.108	73.88
361.318	73.31
361.528	74.57
361.737	75.03
361.947	74.93
362.156	74.53
362.366	74.37
362.576	73.96
362.785	73.75
362.995	73.4
363.204	72.24
363.414	71.76
363.623	70.98
363.833	70.84
364.042	70.76
364.252	70.21
364.461	70.5
364.671	71.15
364.88	71.21
365.09	70.25
365.299	70.54
365.509	71.09
365.718	71.26
365.927	71.92
366.137	71.11
366.346	70.13
366.555	70.2
366.765	69.52
366.974	69.14
367.183	68.71
367.393	69.14
367.602	69.1
367.811	68.4
368.021	67.73
368.23	66.84
368.439	66.95
368.648	67.89
368.857	67.09
369.067	66.2
369.276	65.23
369.485	65.17
369.694	64.37
369.903	64.29
370.112	64.07
370.321	64.59
370.531	64.58
370.74	64.56
370.949	64.02
371.158	63.87
371.367	64.29
371.576	64.27
371.785	64.7
371.994	64.74
372.203	64.65
372.412	64.09
372.621	63.33
372.83	63.28
373.039	62.26
373.248	61.51
373.457	61.12
373.666	60.26
373.874	60.03
374.083	59.34
374.292	59.31
374.501	58.17
374.71	58.42
374.919	58.09
375.128	58.12
375.336	58.75
375.545	57.98
375.754	58.24
375.963	58.43
376.171	58.4
376.38	58.52
376.589	57.13
376.798	57.19
377.006	56.82
377.215	57.31
377.424	57.26
377.632	56.01
377.841	56.02
378.05	56.08
378.258	55.68
378.467	55.64
378.675	55.71
378.884	56.51
379.093	56.53
379.301	56.57
379.51	56.23
379.718	55.47
379.927	55.61
380.135	55.65
380.344	55.08
380.552	55.23
380.761	55.04
380.969	53.93
381.177	53.79
381.386	53.65
381.594	53.5
381.803	52.69
382.011	52.08
382.219	52.04
382.428	51.87
382.636	51.91
382.845	51.67
383.053	51.47
383.261	51.35
383.469	51.45
383.678	51.68
383.886	51.1
384.094	51.15
384.302	51.77
384.511	51.66
384.719	50.99
384.927	50.37
385.135	49.85
385.343	49.44
385.552	48.81
385.76	47.96
385.968	47.23
386.176	47.16
386.384	46.68
386.592	45.74
386.8	45.67
387.008	45.73
387.216	45.32
387.424	45.59
387.633	44.51
387.841	44.82
388.049	44.55
388.257	44.31
388.465	43.9
388.672	43.59
388.88	43.42
389.088	42.91
389.296	42.48
389.504	42.31
389.712	41.96
389.92	42.14
390.128	41.82
390.336	41.65
390.544	40.87
390.751	41.08
390.959	41
391.167	40.91
391.375	40.65
391.583	40.5
391.79	40.57
391.998	40.19
392.206	40.06
392.414	39.66
392.621	39.63
392.829	39.68
393.037	39.03
393.244	39.08
393.452	39.05
393.66	38.91
393.867	38.77
394.075	38.41
394.283	38.17
394.49	37.97
394.698	38.12
394.905	37.67
395.113	37.9
395.32	37.94
395.528	37.4
395.735	37.41
395.943	37.26
396.15	37.16
396.358	36.89
396.565	36.91
396.773	37.13
396.98	36.93
397.188	37.24
397.395	36.88
397.602	36.65
397.81	36.54
398.017	36.33
398.225	35.86
398.432	35.93
398.639	36.01
398.847	36.05
399.054	35.42
399.261	35.25
399.468	35.03
399.676	34.66
399.883	34.67
400.09	34.89
400.297	35.07
400.505	35.24
400.712	35.09
400.919	35.45
401.126	35.1
401.333	35.41
401.54	35.3
401.748	35.12
401.955	35.35
402.162	35.56
402.369	35.51
402.576	34.98
402.783	34.97
402.99	35.02
403.197	34.47
403.404	34.42
403.611	34.5
403.818	34.72
404.025	34.85
404.232	35
404.439	34.81
404.646	34.47
404.853	34.33
405.06	34.46
405.267	34.39
405.474	34.19
405.681	34.29
405.887	33.78
406.094	33.43
406.301	33.15
406.508	33.01
406.715	32.79
406.922	33.31
407.128	33.61
407.335	33.43
407.542	33.37
407.749	33.66
407.955	33.87
408.162	34.02
408.369	34.29
408.575	34.46
408.782	34.37
408.989	34.49
409.195	33.9
409.402	33.49
409.609	33.21
409.815	32.96
410.022	32.85
410.228	32.2
410.435	32.5
410.642	32.37
410.848	32.42
411.055	32.22
411.261	32.02
411.468	31.99
411.674	32.03
411.881	31.91
412.087	32.03
412.294	32.12
412.5	32.15
412.706	31.78
412.913	31.75
413.119	31.34
413.326	31.38
413.532	31.03
413.738	31.18
413.945	31.3
414.151	31.56
414.357	31.57
414.564	31.47
414.77	31.7
414.976	31.73
415.182	31.55
415.389	31.75
415.595	31.84
415.801	32.07
416.007	31.91
416.214	31.62
416.42	31.43
416.626	31.2
416.832	31.02
417.038	30.79
417.244	30.83
417.45	30.67
417.657	30.68
417.863	30.42
418.069	30.49
418.275	30.4
418.481	30.4
418.687	30.31
418.893	30.33
419.099	30.28
419.305	30.43
419.511	30.33
419.717	30.21
419.923	30
420.129	29.88
420.335	29.84
420.541	29.86
420.746	29.91
420.952	29.96
421.158	30.11
421.364	30.04
421.57	30.01
421.776	29.99
421.982	30.13
422.187	30.02
422.393	30.1
422.599	30.04
422.805	29.99
423.01	29.87
423.216	29.79
423.422	29.65
423.628	29.73
423.833	29.7
424.039	29.72
424.245	29.67
424.45	29.78
424.656	29.84
424.862	29.76
425.067	29.71
425.273	29.83
425.478	29.82
425.684	29.63
425.889	29.46
426.095	29.3
426.301	29.29
426.506	29.33
426.712	29.19
426.917	29.1
427.123	29.02
427.328	29.33
427.533	29.29
427.739	29.31
427.944	29.44
428.15	29.61
428.355	29.6
428.561	29.28
428.766	29.17
428.971	29.26
429.177	29.36
429.382	29.7
429.587	29.31
429.793	29.2
429.998	29.39
430.203	29.37
430.408	29.32
430.614	29.39
430.819	29.65
431.024	29.66
431.229	29.59
431.434	29.64
431.64	29.48
431.845	29.69
432.05	29.69
432.255	29.67
432.46	29.79
432.665	29.79
432.87	29.9
433.076	29.94
433.281	29.97
433.486	30.1
433.691	29.84
433.896	29.69
434.101	29.65
434.306	29.7
434.511	29.71
434.716	29.6
434.921	29.78
435.126	29.73
435.331	29.75
435.535	29.78
435.74	29.81
435.945	30
436.15	30.33
436.355	30.31
436.56	30.3
436.765	30.24
436.97	30.28
437.174	30.18
437.379	30.28
437.584	30.11
437.789	30.05
437.993	30.16
438.198	30.23
438.403	30.24
438.608	30.44
438.812	30.34
439.017	30.43
439.222	30.56
439.426	30.51
439.631	30.5
439.836	30.68
440.04	30.85
440.245	30.73
440.45	30.68
440.654	30.71
440.859	30.59
441.063	30.74
441.268	30.73
441.472	30.72
441.677	30.67
441.881	30.63
442.086	30.49
442.29	30.62
442.495	30.7
442.699	30.54
442.904	30.3
443.108	30.2
443.312	30.1
443.517	30.08
443.721	30.22
443.925	30.34
444.13	30.36
444.334	30.32
444.538	30.11
444.743	30.03
444.947	30.18
445.151	30.23
445.356	30.29
445.56	30.35
445.764	30.41
445.968	30.09
446.173	30.05
446.377	30.01
446.581	30.17
446.785	30.12
446.989	30.07
447.193	30.14
447.398	30.06
447.602	30.05
447.806	30.05
448.01	29.9
448.214	30.01
448.418	30.03
448.622	29.97
448.826	29.82
449.03	29.82
449.234	29.77
449.438	29.76
449.642	29.92
449.846	29.77
450.05	29.69
450.254	29.61
450.458	29.54
450.662	29.41
450.866	29.44
451.069	29.56
451.273	29.52
451.477	29.65
451.681	29.52
451.885	29.52
452.089	29.64
452.292	29.39
452.496	29.51
452.7	29.51
452.904	29.63
453.107	29.51
453.311	29.28
453.515	29.37
453.719	29.48
453.922	29.31
454.126	29.1
454.33	29.13
454.533	29.36
454.737	29.34
454.94	29.35
455.144	29.27
455.348	29.37
455.551	29.49
455.755	29.4
455.958	29.16
456.162	29.1
456.365	29.21
456.569	29.23
456.772	29.31
456.976	29.32
457.179	29.27
457.383	29.32
457.586	29.23
457.79	29.27
457.993	29.16
458.196	29.31
458.4	29.57
458.603	29.72
458.807	29.61
459.01	29.78
459.213	29.69
459.417	29.9
459.62	29.96
459.823	30.14
460.026	30.33
460.23	30.37
460.433	30.33
460.636	30.16
460.839	30.01
461.042	30.08
461.246	29.93
461.449	30.09
461.652	30.04
461.855	30.17
462.058	30.04
462.261	29.82
462.464	29.8
462.668	29.84
462.871	29.97
463.074	30.06
463.277	30.11
463.48	29.93
463.683	30.11
463.886	30
464.089	29.86
464.292	29.87
464.495	29.88
464.698	29.89
464.901	29.87
465.104	30.02
465.306	30.02
465.509	30.06
465.712	30.26
465.915	29.99
466.118	30.07
466.321	30.08
466.524	30.17
466.726	30.27
466.929	30.51
467.132	30.58
467.335	30.41
467.538	30.4
467.74	30.47
467.943	30.37
468.146	30.51
468.348	30.39
468.551	30.38
468.754	30.54
468.956	30.44
469.159	30.24
469.362	30.05
469.564	30.27
469.767	30.31
469.969	30.21
470.172	30.32
470.375	30.23
470.577	30.4
470.78	30.55
470.982	30.29
471.185	30.46
471.387	30.59
471.59	30.7
471.792	30.72
471.995	30.79
472.197	30.81
472.399	30.75
472.602	30.78
472.804	30.77
473.007	30.57
473.209	30.68
473.411	30.45
473.614	30.36
473.816	30.45
474.018	30.32
474.22	30.28
474.423	30.22
474.625	30.19
474.827	30.21
475.03	30.24
475.232	30.5
475.434	30.47
475.636	30.67
475.838	30.83
476.04	31
476.243	31.04
476.445	30.98
476.647	30.93
476.849	30.99
477.051	30.95
477.253	31.05
477.455	30.93
477.657	30.84
477.859	30.98
478.061	30.91
478.263	30.93
478.465	30.95
478.667	30.94
478.869	31
479.071	31.24
479.273	31.16
479.475	31.11
479.677	31.06
479.879	31.15
480.081	30.91
480.283	30.78
480.485	30.55
480.686	30.5
480.888	30.5
481.09	30.64
481.292	30.57
481.494	30.8
481.695	30.68
481.897	30.71
482.099	30.76
482.301	30.78
482.502	30.82
482.704	30.84
482.906	30.9
483.107	30.88
483.309	30.89
483.511	30.81
483.712	30.73
483.914	30.73
484.115	30.7
484.317	30.67
484.519	30.7
484.72	30.68
484.922	30.67
485.123	30.57
485.325	30.57
485.526	30.46
485.728	30.49
485.929	30.51
486.131	30.54
486.332	30.57
486.534	30.56
486.735	30.47
486.936	30.5
487.138	30.47
487.339	30.5
487.541	30.5
487.742	30.5
487.943	30.47
488.144	30.42
488.346	30.43
488.547	30.41
488.748	30.37
488.95	30.39
489.151	30.38
489.352	30.44
489.553	30.45
489.755	30.47
489.956	30.54
490.157	30.57
490.358	30.69
490.559	30.69
490.76	30.73
490.961	30.73
491.163	30.83
491.364	30.95
491.565	30.92
491.766	31.07
491.967	31.13
492.168	31.06
492.369	31.08
492.57	31.05
492.771	30.95
492.972	30.94
493.173	30.93
493.374	30.83
493.575	30.61
493.776	30.74
493.976	30.55
494.177	30.27
494.378	30.45
494.579	30.41
494.78	30.36
494.981	30.62
495.182	30.69
495.382	30.83
495.583	30.99
495.784	31.16
495.985	31.04
496.185	31.08
496.386	31.28
496.587	31.16
496.788	31.24
496.988	31.33
497.189	31.17
497.39	31.12
497.59	31.16
497.791	31.11
497.992	31.23
498.192	31.3
498.393	31.31
498.593	31.41
498.794	31.4
498.994	31.49
499.195	31.54
499.395	31.58
499.596	31.65
499.796	31.77
499.997	31.99
500.197	32.14
500.398	32.27
500.598	32.46
500.799	32.44
500.999	32.51
501.199	32.43
501.4	32.45
501.6	32.62
501.801	32.72
502.001	32.8
502.201	32.64
502.402	32.32
502.602	32.39
502.802	32.33
503.002	32.58
503.203	32.79
503.403	33.12
503.603	33.14
503.803	33.31
504.003	33.37
504.204	33.43
504.404	33.65
504.604	33.99
504.804	33.9
505.004	34.01
505.204	33.99
505.404	34.02
505.604	33.73
505.804	34.12
506.005	34.09
506.205	34.14
506.405	34.11
506.605	34.14
506.805	34.13
507.005	34.17
507.204	34.38
507.404	34.59
507.604	34.76
507.804	34.99
508.004	34.94
508.204	34.94
508.404	35
508.604	35.21
508.804	35.35
509.003	35.46
509.203	35.7
509.403	35.73
509.603	35.76
509.803	35.9
510.002	35.98
510.202	35.98
510.402	36.15
510.602	36.12
510.801	36.04
511.001	36.15
511.201	36.21
511.4	36.27
511.6	36.35
511.8	36.46
511.999	36.5
512.199	36.55
512.398	36.62
512.598	36.84
512.797	37.24
512.997	37.48
513.197	37.6
513.396	37.75
513.596	37.78
513.795	38.05
513.994	38.02
514.194	38.2
514.393	38.41
514.593	38.62
514.792	38.53
514.992	38.42
515.191	38.59
515.39	38.74
515.59	38.75
515.789	38.94
515.988	38.98
516.188	39.4
516.387	39.49
516.586	39.75
516.786	39.82
516.985	40.04
517.184	40.31
517.383	40.43
517.582	40.51
517.782	40.89
517.981	40.99
518.18	41.14
518.379	41.08
518.578	41.18
518.777	41.25
518.976	41.45
519.176	41.66
519.375	41.63
519.574	41.82
519.773	41.92
519.972	41.92
520.171	42.1
520.37	42.1
520.569	42.3
520.768	42.43
520.967	42.57
521.166	42.55
521.365	42.66
521.564	43.01
521.762	43
521.961	43.26
522.16	43.35
522.359	43.5
522.558	43.72
522.757	43.95
522.956	43.99
523.154	44.05
523.353	44.37
523.552	44.44
523.751	44.72
523.949	45.05
524.148	45.22
524.347	45.46
524.546	45.72
524.744	45.86
524.943	45.87
525.142	46.13
525.34	46.23
525.539	46.24
525.737	46.58
525.936	46.63
526.135	46.77
526.333	46.85
526.532	46.92
526.73	46.97
526.929	47.16
527.127	47.43
527.326	47.61
527.524	47.78
527.723	47.9
527.921	47.94
528.12	48.1
528.318	48.19
528.516	48.33
528.715	48.46
528.913	48.51
529.112	48.57
529.31	48.58
529.508	48.66
529.707	48.73
529.905	48.88
530.103	48.97
530.301	49.03
530.5	49.11
530.698	49.04
530.896	49.18
531.094	49.34
531.293	49.43
531.491	49.62
531.689	49.65
531.887	49.9
532.085	50.07
532.283	50.24
532.481	50.31
532.68	50.4
532.878	50.75
533.076	50.85
533.274	51.1
533.472	51.24
533.67	51.3
533.868	51.39
534.066	51.44
534.264	51.43
534.462	51.41
534.66	51.48
534.858	51.53
535.056	51.62
535.253	51.62
535.451	51.62
535.649	51.71
535.847	51.8
536.045	52.04
536.243	52.12
536.441	52.26
536.638	52.44
536.836	52.52
537.034	52.59
537.232	52.57
537.43	52.75
537.627	52.77
537.825	52.74
538.023	52.8
538.22	52.71
538.418	52.7
538.616	52.68
538.813	52.67
539.011	52.72
539.209	52.69
539.406	52.6
539.604	52.64
539.801	52.8
539.999	52.84
540.196	52.99
540.394	52.94
540.591	53.04
540.789	53.08
540.986	53.12
541.184	53.17
541.381	53.43
541.579	53.47
541.776	53.46
541.974	53.42
542.171	53.42
542.368	53.41
542.566	53.62
542.763	53.59
542.96	53.68
543.158	53.7
543.355	53.82
543.552	53.68
543.75	53.77
543.947	53.71
544.144	53.69
544.341	53.74
544.539	53.76
544.736	53.67
544.933	53.75
545.13	53.74
545.327	53.89
545.524	53.84
545.722	53.86
545.919	54.17
546.116	54.35
546.313	54.45
546.51	54.59
546.707	54.61
546.904	54.67
547.101	54.63
547.298	54.81
547.495	54.66
547.692	54.84
547.889	54.97
548.086	54.78
548.283	54.74
548.48	54.72
548.677	54.67
548.874	54.8
549.07	54.68
549.267	54.85
549.464	54.78
549.661	55.13
549.858	54.88
550.055	54.71
550.251	54.58
550.448	54.6
550.645	54.89
550.842	55.02
551.038	54.86
551.235	54.87
551.432	54.88
551.628	54.85
551.825	54.78
552.022	55.06
552.218	55.12
552.415	55.03
552.612	55.14
552.808	55.09
553.005	54.87
553.201	54.8
553.398	54.88
553.594	54.82
553.791	54.61
553.987	54.3
554.184	54.34
554.38	54.64
554.577	54.85
554.773	54.82
554.97	54.74
555.166	55.08
555.362	55.18
555.559	55.27
555.755	55.29
555.952	55.61
556.148	55.96
556.344	55.76
556.541	55.69
556.737	55.69
556.933	55.64
557.129	55.53
557.326	55.37
557.522	55.65
557.718	55.63
557.914	55.78
558.11	55.9
558.307	55.84
558.503	55.98
558.699	55.8
558.895	55.76
559.091	55.94
559.287	56
559.483	55.84
559.679	55.7
559.876	55.91
560.072	55.86
560.268	55.82
560.464	55.76
560.66	55.57
560.856	55.39
561.052	55.54
561.247	55.51
561.443	55.48
561.639	55.63
561.835	55.49
562.031	55.56
562.227	55.57
562.423	55.61
562.619	55.63
562.815	55.76
563.01	55.98
563.206	55.89
563.402	55.98
563.598	56.25
563.793	56.34
563.989	56.45
564.185	56.27
564.381	56.31
564.576	56.3
564.772	56.5
564.968	56.54
565.163	56.79
565.359	56.82
565.555	56.85
565.75	56.92
565.946	57.17
566.141	57.36
566.337	57.6
566.532	57.69
566.728	57.64
566.923	57.46
567.119	57.5
567.314	57.17
567.51	57.36
567.705	57.22
567.901	57.21
568.096	56.92
568.292	56.85
568.487	56.73
568.682	56.85
568.878	56.93
569.073	57.15
569.268	57.25
569.464	57.55
569.659	57.52
569.854	57.64
570.05	57.59
570.245	57.63
570.44	57.72
570.635	57.77
570.831	57.61
571.026	57.8
571.221	57.72
571.416	57.64
571.611	57.57
571.806	57.65
572.002	57.51
572.197	57.62
572.392	57.86
572.587	57.91
572.782	57.79
572.977	57.8
573.172	57.66
573.367	57.67
573.562	57.68
573.757	57.71
573.952	57.53
574.147	57.54
574.342	57.51
574.537	57.5
574.732	57.39
574.927	57.44
575.121	57.51
575.316	57.56
575.511	57.47
575.706	57.5
575.901	57.78
576.096	57.9
576.29	58.21
576.485	58.2
576.68	58.11
576.875	58.19
577.069	58.28
577.264	58.3
577.459	58.26
577.654	58.22
577.848	58.46
578.043	58.03
578.238	57.98
578.432	57.93
578.627	57.93
578.821	57.99
579.016	57.85
579.21	57.75
579.405	57.62
579.6	57.45
579.794	57.91
579.989	57.38
580.183	57.05
580.378	57.07
580.572	57.18
580.766	57.2
580.961	57.17
581.155	57.09
581.35	57.28
581.544	57.41
581.738	57.67
581.933	57.57
582.127	57.92
582.321	58.66
582.516	58.98
582.71	58.87
582.904	58.91
583.099	58.84
583.293	58.91
583.487	58.88
583.681	58.98
583.875	58.9
584.07	58.84
584.264	58.67
584.458	58.31
584.652	57.83
584.846	57.97
585.04	57.83
585.234	58.08
585.428	58.31
585.623	58.49
585.817	58.44
586.011	58.42
586.205	58.46
586.399	58.85
586.593	59.34
586.787	59.44
586.981	59.18
587.174	59.26
587.368	59
587.562	59.38
587.756	59.38
587.95	59.24
588.144	59.31
588.338	59.37
588.532	58.95
588.725	58.65
588.919	58.71
589.113	58.99
589.307	58.98
589.501	59.17
589.694	58.92
589.888	58.85
590.082	59.3
590.275	59.38
590.469	59.43
590.663	59.69
590.856	59.66
591.05	59.72
591.244	59.62
591.437	59.74
591.631	59.64
591.824	59.65
592.018	59.88
592.212	59.52
592.405	59.7
592.599	59.6
592.792	59.5
592.986	59.72
593.179	59.86
593.372	59.89
593.566	59.82
593.759	59.82
593.953	59.87
594.146	59.6
594.339	59.74
594.533	59.5
594.726	59.54
594.92	59.74
595.113	59.82
595.306	59.63
595.499	59.62
595.693	59.9
595.886	60.06
596.079	60.02
596.272	60.13
596.466	60.04
596.659	59.92
596.852	60.04
597.045	59.91
597.238	60.05
597.431	60.14
597.624	60.16
597.818	59.89
598.011	59.87
598.204	59.72
598.397	59.8
598.59	60.04
598.783	60.29
598.976	60.26
599.169	60.54
599.362	60.42
599.555	60.45
599.748	60.59
599.941	60.73
600.134	60.63
600.326	60.67
600.519	60.67
600.712	60.22
600.905	60.32
601.098	60.19
601.291	60.34
601.483	60.29
601.676	60.36
601.869	60.33
602.062	60.41
602.255	60.57
602.447	60.87
602.64	60.91
602.833	61.05
603.025	61.09
603.218	61.25
603.411	61.07
603.603	60.9
603.796	60.98
603.989	61.04
604.181	61.18
604.374	61.07
604.566	60.98
604.759	61.13
604.951	61.16
605.144	61.31
605.336	61.26
605.529	61.26
605.721	61.36
605.914	61.59
606.106	61.63
606.299	61.46
606.491	61.46
606.683	61.46
606.876	61.17
607.068	61.14
607.26	60.95
607.453	60.94
607.645	61.16
607.837	61.32
608.03	60.95
608.222	60.78
608.414	60.85
608.606	60.96
608.799	61.02
608.991	61.21
609.183	61.3
609.375	61.15
609.567	61.24
609.759	61.09
609.952	60.8
610.144	60.61
610.336	60.57
610.528	60.52
610.72	60.66
610.912	60.59
611.104	60.24
611.296	60.31
611.488	60.26
611.68	60.17
611.872	60.1
612.064	60.34
612.256	60.41
612.448	60.34
612.64	60.43
612.832	60.45
613.023	60.35
613.215	60.47
613.407	60.43
613.599	60.82
613.791	60.77
613.983	60.41
614.174	60.39
614.366	60.31
614.558	60.64
614.75	60.76
614.941	60.56
615.133	60.67
615.325	60.71
615.516	60.76
615.708	60.63
615.9	60.75
616.091	61.42
616.283	61.62
616.475	61.71
616.666	61.84
616.858	61.68
617.049	61.96
617.241	61.81
617.432	62.15
617.624	62.45
617.815	62.51
618.007	62.22
618.198	61.88
618.39	61.64
618.581	61.86
618.773	61.38
618.964	61.6
619.155	61.57
619.347	61.69
619.538	61.54
619.729	61.23
619.921	60.99
620.112	61.13
620.303	61.03
620.494	61.32
620.686	61.23
620.877	61.43
621.068	61.13
621.259	60.99
621.451	61.01
621.642	60.71
621.833	60.8
622.024	60.87
622.215	61.16
622.406	61.66
622.597	61.4
622.788	61.97
622.98	62.09
623.171	61.92
623.362	61.87
623.553	61.91
623.744	62.48
623.935	62.53
624.126	62.49
624.317	62.25
624.508	61.72
624.698	61.75
624.889	61.25
625.08	61.13
625.271	61.47
625.462	61.51
625.653	61.31
625.844	61.11
626.034	60.83
626.225	60.83
626.416	61.14
626.607	61.41
626.798	61.29
626.988	61.35
627.179	61.62
627.37	61.77
627.56	61.65
627.751	62.17
627.942	62.25
628.132	62.54
628.323	62.74
628.514	62.44
628.704	62.38
628.895	62.53
629.085	62.89
629.276	62.46
629.466	62.4
629.657	62.53
629.847	61.96
630.038	61.75
630.228	61.62
630.419	61.17
630.609	61.51
630.8	61.14
630.99	61.31
631.181	60.95
631.371	61.25
631.561	60.87
631.752	60.83
631.942	61.12
632.132	61.14
632.323	61.28
632.513	61.5
632.703	61.35
632.893	61.69
633.084	61.53
633.274	61.62
633.464	61.48
633.654	61.55
633.844	61.43
634.034	61.38
634.225	61.47
634.415	61.06
634.605	60.99
634.795	60.95
634.985	61.14
635.175	61.17
635.365	60.96
635.555	61.24
635.745	61.18
635.935	61.24
636.125	61.52
636.315	61.28
636.505	61.62
636.695	61.93
636.885	61.57
637.075	61.48
637.265	61.86
637.455	62.07
637.644	61.77
637.834	62.28
638.024	62.42
638.214	62
638.404	62.02
638.593	61.97
638.783	61.84
638.973	62.39
639.163	62.5
639.352	61.93
639.542	61.67
639.732	62.01
639.921	61.83
640.111	61.87
640.301	61.49
640.49	61.47
640.68	61.3
640.87	61.29
641.059	61.2
641.249	60.81
641.438	61.04
641.628	61.38
641.817	60.85
642.007	60.84
642.196	60.8
642.386	61.45
642.575	61.86
642.764	61.77
642.954	61.78
643.143	61.18
643.333	60.91
643.522	60.77
643.711	60.44
643.901	60.95
644.09	60.94
644.279	61.08
644.469	60.96
644.658	60.83
644.847	61.39
645.036	61.31
645.226	61.51
645.415	61.47
645.604	61.58
645.793	61.76
645.982	61.37
646.171	61.68
646.361	61.56
646.55	61.57
646.739	61.72
646.928	61.55
647.117	61.62
647.306	61.81
647.495	62.04
647.684	62.04
647.873	62.35
648.062	62.8
648.251	62.51
648.44	62.4
648.629	62.53
648.818	62.61
649.007	62.91
649.196	63.09
649.384	63.42
649.573	63.35
649.762	63.61
649.951	63.15
650.14	62.75
650.328	62.63
650.517	62.64
650.706	62.17
650.895	62.18
651.083	62.31
651.272	61.79
651.461	61.71
651.65	62.26
651.838	61.92
652.027	61.74
652.216	62.19
652.404	62.2
652.593	62.24
652.781	62.68
652.97	62.54
653.158	62
653.347	62.2
653.535	62.13
653.724	61.97
653.912	62.21
654.101	62.33
654.289	62.41
654.478	62.72
654.666	63.12
654.855	62.61
655.043	62.49
655.231	62.72
655.42	62.68
655.608	62.74
655.796	62.76
655.985	62.56
656.173	62.85
656.361	61.88
656.55	61.35
656.738	61.05
656.926	61.65
657.114	61.58
657.302	61.36
657.491	61.6
657.679	61.71
657.867	62.14
658.055	62.41
658.243	62.13
658.431	62.84
658.619	63.48
658.807	63.34
658.996	63.53
659.184	63.59
659.372	63.72
659.56	63.53
659.748	63.22
659.936	63.03
660.124	62.58
660.311	62.84
660.499	62.8
660.687	62.24
660.875	62.69
661.063	62.34
661.251	61.99
661.439	62.23
661.627	62.16
661.814	62.4
662.002	62.23
662.19	62.29
662.378	61.87
662.565	61.1
662.753	60.79
662.941	60.24
663.129	60.01
663.316	60.47
663.504	59.92
663.692	60.19
663.879	60.62
664.067	60.68
664.254	60.9
664.442	61.04
664.63	61.66
664.817	61.92
665.005	62.09
665.192	62
665.38	61.57
665.567	62.13
665.755	62.23
665.942	61.41
666.13	61.05
666.317	61.17
666.504	61.38
666.692	61.52
666.879	61.76
667.067	61.25
667.254	61.75
667.441	62.09
667.629	61.49
667.816	61.56
668.003	61.88
668.19	61.72
668.378	61.02
668.565	61.09
668.752	60.92
668.939	60.31
669.127	60.5
669.314	60.06
669.501	60.01
669.688	60.12
669.875	59.75
670.062	59.79
670.249	60.08
670.436	60.89
670.623	60.77
670.81	60.34
670.997	61.32
671.184	61.34
671.371	61.19
671.558	61.63
671.745	61.68
671.932	61.86
672.119	61.49
672.306	61.46
672.493	61.05
672.68	61.38
672.867	62.2
673.054	62.06
673.24	61.64
673.427	61.78
673.614	61.12
673.801	61.47
673.988	62.04
674.174	62.67
674.361	62.83
674.548	62.96
674.734	62.33
674.921	61.7
675.108	61.97
675.294	63.03
675.481	63.3
675.668	63.73
675.854	63.66
676.041	62.98
676.227	62.44
676.414	62.39
676.601	62.61
676.787	62.86
676.974	63.1
677.16	62.14
677.347	61.8
677.533	61.68
677.719	61.8
677.906	61.54
678.092	61.7
678.279	61.87
678.465	60.99
678.651	61.06
678.838	61.53
679.024	61.82
679.21	62.37
679.397	62.3
679.583	61.7
679.769	61.4
679.955	61.24
680.142	61.44
680.328	61.21
680.514	61.76
680.7	61.56
680.886	61.08
681.073	60.66
681.259	60.37
681.445	60.24
681.631	60.91
681.817	61.01
682.003	61.03
682.189	61.17
682.375	61.65
682.561	61.94
682.747	62.07
682.933	62.14
683.119	62.59
683.305	62.54
683.491	62.92
683.677	63.1
683.863	62.61
684.049	63.25
684.235	62.7
684.42	62.56
684.606	62.55
684.792	62.42
684.978	62.93
685.164	62.74
685.349	63.4
685.535	62.89
685.721	62.73
685.907	63.14
686.092	62.74
686.278	62.84
686.464	62.66
686.649	62.2
686.835	62.52
687.021	61.9
687.206	62.11
687.392	61.07
687.577	61.2
687.763	60.59
687.948	60.88
688.134	60.64
688.319	60.51
688.505	60.37
688.69	60.66
688.876	60.28
689.061	60.49
689.247	60.76
689.432	61.2
689.618	60.92
689.803	62.16
689.988	61.38
690.174	62.19
690.359	62.38
690.544	62.76
690.73	63.13
690.915	63.13
691.1	63.27
691.285	62.69
691.471	63.02
691.656	63.45
691.841	62.48
692.026	62.61
692.211	62.29
692.396	62.4
692.582	62.17
692.767	61.45
692.952	61.78
693.137	61.81
693.322	60.83
693.507	60.95
693.692	60.69
693.877	61.01
694.062	61.31
694.247	60.67
694.432	60.98
694.617	60.93
694.802	61.87
694.987	60.84
695.172	60.42
695.357	61.91
695.541	61.61
695.726	62.45
695.911	62.54
696.096	62.13
696.281	61.95
696.466	61.32
696.65	61.34
696.835	60.9
697.02	61.47
697.204	61.8
697.389	61.21
697.574	61.24
697.759	60.35
697.943	60.04
698.128	60.14
698.312	60.24
698.497	60.52
698.682	60.43
698.866	60.5
699.051	60.44
699.235	60.41
699.42	60.36
699.604	60.54
699.789	60.72
699.973	60.91
700.158	61.13
700.342	61.56
700.527	61.38
700.711	61.33
700.895	61.21
701.08	61.47
701.264	61.95
701.448	62.3
701.633	61.69
701.817	61.69
702.001	61.4
702.186	61.84
702.37	61.54
702.554	61.7
702.738	61.96
702.923	62.17
703.107	62.5
703.291	61.52
703.475	61.02
703.659	61.04
703.843	61.38
704.027	61.68
704.212	61.6
704.396	61.52
704.58	61.75
704.764	61.93
704.948	61.35
705.132	60.12
705.316	60.07
705.5	61.24
705.684	60.75
705.868	60.42
706.052	60.12
706.235	59.9
706.419	60.09
706.603	59.1
706.787	58.56
706.971	58.54
707.155	59.38
707.339	59.8
707.522	58.8
707.706	59.71
707.89	59.88
708.074	59.79
708.257	60.61
708.441	60.33
708.625	60.61
708.808	60.69
708.992	61.28
709.176	61.42
709.359	61.61
709.543	61.56
709.727	61.66
709.91	61.67
710.094	61.62
710.277	60.33
710.461	60.52
710.644	60.79
710.828	60.71
711.011	60.75
711.195	60.65
711.378	60.48
711.562	60.65
711.745	61.09
711.928	61.1
712.112	60.88
712.295	61.48
712.478	61.02
712.662	61.11
712.845	61.34
713.028	60.2
713.212	59.06
713.395	59.44
713.578	59.24
713.761	58.61
713.945	58.25
714.128	58.7
714.311	58.45
714.494	58.7
714.677	58.6
714.86	57.73
715.043	58.82
715.227	59.97
715.41	59.95
715.593	59.86
715.776	60.23
715.959	61.04
716.142	61.36
716.325	61.44
716.508	61.06
716.691	61.53
716.874	62.23
717.057	61.71
717.239	62.12
717.422	61.67
717.605	62.03
717.788	61.08
717.971	60.02
718.154	59.85
718.337	59.67
718.519	59.99
718.702	60.01
718.885	60.01
719.068	59.12
719.25	58.68
719.433	58.02
719.616	57.7
719.798	58.53
719.981	59.21
720.164	59.28
720.346	59.15
720.529	59.37
720.712	59.52
720.894	59.72
721.077	61.15
721.259	61.29
721.442	60.44
721.624	60.78
721.807	60.84
721.989	60.22
722.172	59.8
722.354	59.16
722.537	58.79
722.719	58.19
722.901	57.26
723.084	56.37
723.266	55.27
723.448	56.29
723.631	55.79
723.813	55.24
723.995	56.13
724.178	56.15
724.36	55.65
724.542	55.04
724.724	55.08
724.907	55.85
725.089	55.66
725.271	57.22
725.453	57.37
725.635	57.89
725.817	59.23
725.999	58.52
726.181	58.24
726.364	60.72
726.546	61.5
726.728	60.44
726.91	61.37
727.092	63.03
727.274	62.09
727.456	61.3
727.638	62.01
727.819	61.48
728.001	61.74
728.183	62.69
728.365	60.85
728.547	61.36
728.729	62.14
728.911	61.74
729.093	60.42
729.274	60.84
729.456	61.26
729.638	60.06
729.82	59.68
730.001	59.72
730.183	59.13
730.365	60.02
730.546	60.13
730.728	60.15
730.91	59.93
731.091	60.5
731.273	60.47
731.455	60.74
731.636	60.71
731.818	61.55
731.999	62.11
732.181	62.92
732.362	63.2
732.544	63.06
732.725	62.47
732.907	62.29
733.088	62.14
733.27	62.04
733.451	61.99
733.633	62.87
733.814	61.46
733.995	60.41
734.177	59.26
734.358	58.35
734.539	57.72
734.721	58.13
734.902	59.08
735.083	59.64
735.264	58.58
735.446	58.83
735.627	58.77
735.808	59
735.989	59.84
736.17	60.44
736.351	61.17
736.533	62.11
736.714	61.89
736.895	60.03
737.076	59.35
737.257	60.35
737.438	60.02
737.619	59.47
737.8	59.76
737.981	59.42
738.162	59.72
738.343	58.49
738.524	58.83
738.705	59.63
738.886	61.13
739.067	60.75
739.247	59.79
739.428	59.79
739.609	60.01
739.79	60.43
739.971	60.35
740.151	59.54
740.332	59.61
740.513	58.34
740.694	56.77
740.874	56.29
741.055	57.16
741.236	57.9
741.417	58.06
741.597	58.59
741.778	56.88
741.958	56.9
742.139	57.42
742.32	58.39
742.5	58.77
742.681	60.14
742.861	60.42
743.042	58.92
743.222	57.96
743.403	58.16
743.583	56.73
743.764	57.03
743.944	58.33
744.124	59.46
744.305	58.79
744.485	58.51
744.666	58.3
744.846	58.27
745.026	60.04
745.207	62.7
745.387	60.89
745.567	60.35
745.747	62.1
745.928	60.65
746.108	60.16
746.288	60.11
746.468	60.03
746.648	58.96
746.829	57.15
747.009	57.71
747.189	55.59
747.369	56.55
747.549	56.76
747.729	56.36
747.909	56.53
748.089	54.65
748.269	54.66
748.449	53.92
748.629	53.96
748.809	54.81
748.989	52.85
749.169	52.38
749.349	53.01
749.529	53.71
749.709	53.93
749.889	53.53
750.068	54.91
750.248	55.19
750.428	56.14
750.608	56.86
750.788	58.32
750.967	59.8
751.147	60.23
751.327	59.99
751.507	60.49
751.686	61.06
751.866	61.98
752.046	61.61
752.225	61.55
752.405	61.51
752.585	62.29
752.764	61.05
752.944	61.02
753.123	61.73
753.303	61.91
753.482	62.5
753.662	61.52
753.841	61.29
754.021	61.66
754.2	61.56
754.38	61.48
754.559	60.9
754.739	60.1
754.918	59.21
755.097	58.82
755.277	59.76
755.456	58.55
755.635	59.11
755.815	56.49
755.994	56.21
756.173	57.05
756.352	57.15
756.532	56.39
756.711	57.07
756.89	58.26
757.069	58.33
757.248	57.39
757.427	56.94
757.607	57.2
757.786	59.34
757.965	58.79
758.144	57.91
758.323	57.68
758.502	58.98
758.681	59.13
758.86	59.73
759.039	60.39
759.218	60.96
759.397	61.34
759.576	60.49
759.755	61.24
759.934	62.33
760.113	62.1
760.291	61.97
760.47	61.04
760.649	61.24
760.828	58.96
761.007	59.14
761.186	58.91
761.364	59.3
761.543	59.19
761.722	58.45
761.901	57.29
762.079	57.73
762.258	58.87
762.437	59.98
762.615	59.86
762.794	61.22
762.972	61.85
763.151	62.06
763.33	61.64
763.508	61.22
763.687	61.55
763.865	62.06
764.044	61.94
764.222	60.72
764.401	60.58
764.579	59.92
764.758	59.8
764.936	59.62
765.114	59.74
765.293	60.48
765.471	61.07
765.65	60.36
765.828	60.6
766.006	60.62
766.184	61.12
766.363	59.4
766.541	59.12
766.719	58.2
766.898	56.02
767.076	54.8
767.254	54.54
767.432	53.86
767.61	53.15
767.788	51.8
767.967	51.95
768.145	52.46
768.323	53.77
768.501	55.65
768.679	55.65
768.857	57.21
769.035	58.29
769.213	57.12
769.391	58.16
769.569	58.81
769.747	60.73
769.925	60.06
770.103	60.27
770.281	60.48
770.459	58.95
770.636	59.39
770.814	58.56
770.992	57.35
771.17	58.9
771.348	57.89
771.525	57.32
771.703	55.71
771.881	55.13
772.059	55.29
772.236	54.53
772.414	56.23
772.592	55.04
772.769	56.97
772.947	58.13
773.125	56.78
773.302	58.35
773.48	58.24
773.657	58.54
773.835	58.58
774.013	57.75
774.19	58.05
774.368	59.13
774.545	58.6
774.723	57.63
774.9	58.41
775.077	57.91
775.255	55.76
775.432	58.09
775.61	57.9
775.787	60.55
775.964	59.4
776.142	56.45
776.319	55.2
776.496	56.39
776.674	53.91
776.851	51.83
777.028	50.16
777.205	49.82
777.382	47.74
777.56	49.56
777.737	48.2
777.914	49.46
778.091	52.8
778.268	53.02
778.445	53.05
778.622	53.57
778.8	53.32
778.977	56.47
779.154	58.8
779.331	60.38
779.508	58.22
779.685	56.8
779.862	57.18
780.038	56.32
780.215	54.78
780.392	54.02
780.569	56.27
780.746	56.6
780.923	55.08
781.1	52.69
781.277	51.51
781.453	53.34
781.63	53.53
781.807	52.48
781.984	53.73
782.16	54.08
782.337	53.77
782.514	53.49
782.691	54.38
782.867	54.79
783.044	55.21
783.221	57.1
783.397	56.94
783.574	58.39
783.75	57.12
783.927	55.16
784.103	56.43
784.28	54.74
784.456	54.28
784.633	54.96
784.809	53.78
784.986	54.02
785.162	52.17
785.339	51.63
785.515	50.36
785.692	52.6
785.868	52.48
786.044	51.24
786.221	52.88
786.397	50.55
786.573	47.27
786.749	48.11
786.926	47.04
787.102	48.32
787.278	45.86
787.454	47.33
787.631	46.54
787.807	47.34
787.983	49.33
788.159	51.37
788.335	54.54
788.511	55.71
788.687	55.79
788.863	56.63
789.039	55.62
789.216	55.81
789.392	56.94
789.568	55.49
789.744	54.13
789.919	52.51
790.095	50.89
790.271	50.53
790.447	52.55
790.623	50.78
790.799	51.9
790.975	52.4
791.151	54.99
791.327	55.93
791.502	56.49
791.678	59.86
791.854	58.25
792.03	58.2
792.205	57.45
792.381	54.48
792.557	60.56
792.733	58.78
792.908	57.08
793.084	56.37
793.259	52.98
793.435	53.83
793.611	56.49
793.786	56.55
793.962	56.27
794.137	56.15
794.313	58.71
794.488	53.66
794.664	57.88
794.839	58.54
795.015	58.81
795.19	57.26
795.366	59.34
795.541	53.59
795.716	58.35
795.892	59.56
796.067	58.15
796.242	57.03
796.418	59.8
796.593	55.66
796.768	54.98
796.944	54.2
797.119	58.17
797.294	57.83
797.469	59.56
797.644	58.1
797.82	56.4
797.995	60.2
798.17	60.87
798.345	58.92
798.52	58.34
798.695	60.61
798.87	60.87
799.045	57.52
799.22	57.42
799.395	58.08
799.57	58.23
799.745	57.95
799.92	52.65
800.095	51.46
800.27	51.88
800.445	52.81
800.62	50.19
800.795	48.77
800.97	48.44
801.145	47.09
801.319	46.82
801.494	45.63
801.669	48.85
801.844	50.61
802.018	50.98
802.193	49.11
802.368	50.28
802.543	53.26
802.717	54.06
802.892	55.69
803.067	57.95
803.241	56.71
803.416	55.77
803.59	51.79
803.765	53.43
803.94	56.4
804.114	57.37
804.289	58.01
804.463	55.54
804.638	56.88
804.812	53.04
804.986	50.16
805.161	50.31
805.335	50.81
805.51	53.43
805.684	53.04
805.858	49.56
806.033	49.18
806.207	49.32
806.381	50.46
806.556	50.07
806.73	50.75
806.904	50.68
807.078	50.68
807.253	49.42
807.427	48.53
807.601	46.94
807.775	47.39
807.949	47.76
808.123	48.2
808.298	45.59
808.472	47.58
808.646	45.66
808.82	46.14
808.994	48.91
809.168	49.13
809.342	51.36
809.516	50.21
809.69	52.74
809.864	51.04
810.038	49.42
810.212	51.29
810.385	45.94
810.559	48.46
810.733	48.99
810.907	46.68
811.081	47.87
811.255	47.05
811.428	47.76
811.602	47.21
811.776	49.29
811.95	52.21
812.123	50.96
812.297	49.61
812.471	53.8
812.644	54.22
812.818	51.77
812.992	51.91
813.165	52.63
813.339	52.73
813.512	55.32
813.686	56.84
813.86	56.06
814.033	58.49
814.207	60.47
814.38	54.01
814.554	54.21
814.727	58.96
814.9	61.22
815.074	54.95
815.247	55.56
815.421	50.21
815.594	48.8
815.767	48.79
815.941	49.76
816.114	51.46
816.287	56.54
816.46	53.81
816.634	47.07
816.807	42.99
816.98	51.12
817.153	49.05
817.327	51.03
817.5	56.94
817.673	54.6
817.846	51.71
818.019	55.28
818.192	53.44
818.365	52.55
818.538	55.21
818.711	58.22
818.884	59.08
819.057	56.16
819.23	57.55
819.403	52.68
819.576	51.99
819.749	53.01
819.922	51.25
820.095	54.08
820.268	54.79
820.441	56.05
820.614	56.78
820.786	55.36
820.959	59.02
821.132	59.48
821.305	61.27
821.477	62.36
821.65	61.73
821.823	61.11
821.996	59.23
822.168	59.38
822.341	58.2
822.514	57
822.686	57.27
822.859	57.24
823.031	56.9
823.204	56.4
823.376	55.31
823.549	54.95
823.722	55.17
823.894	55.11
824.067	54.8
824.239	55.14
824.411	56.09
824.584	56.22
824.756	55.66
824.929	54.78
825.101	53.8
825.273	55.03
825.446	54.64
825.618	53.79
825.79	54.87
825.963	56.04
826.135	55.51
826.307	54.81
826.479	54.16
826.652	53.02
826.824	54.96
826.996	55.89
827.168	55.7
827.34	57.11
827.512	58.7
827.684	57.34
827.856	56.22
828.029	57.18
828.201	55.83
828.373	55.78
828.545	57.67
828.717	54.36
828.889	54.35
829.061	55.5
829.232	54.9
829.404	52.03
829.576	52.19
829.748	53.12
829.92	50.87
830.092	51.83
830.264	51.66
830.436	50.2
830.607	51.99
830.779	51.33
830.951	50.47
831.123	49.03
831.294	50.82
831.466	52.86
831.638	51.38
831.809	54.5
831.981	57.6
832.153	56.93
832.324	56.1
832.496	60.36
832.667	59.56
832.839	55.51
833.011	54.53
833.182	50.29
833.354	50.78
833.525	48.99
833.697	48.57
833.868	48.28
834.039	48.69
834.211	49.48
834.382	47.05
834.554	47.34
834.725	48.84
834.896	49.58
835.068	52.48
835.239	52.99
835.41	51
835.581	51.45
835.753	49.89
835.924	47.71
836.095	49.69
836.266	48.86
836.438	49.71
836.609	49.93
836.78	50.86
836.951	49.16
837.122	46.79
837.293	54.28
837.464	52.56
837.635	54.44
837.806	58.83
837.977	56.13
838.148	63.14
838.319	61.74
838.49	61.76
838.661	62.89
838.832	65.58
839.003	67.81
839.174	65.44
839.345	66.04
839.516	59.58
839.687	54.56
839.857	57.4
840.028	54.29
840.199	58.2
840.37	55.8
840.54	50.46
840.711	44.56
840.882	40.59
841.053	32.85
841.223	32.93
841.394	35.97
841.564	37.84
841.735	35.01
841.906	35.21
842.076	39.04
842.247	39.22
842.417	49.89
842.588	53.91
842.758	63.32
842.929	64.28
843.099	67.53
843.27	74.81
843.44	78.07
843.611	90.83
843.781	76.55
843.951	61.79
844.122	63.47
844.292	53.94
844.462	59.41
844.633	42.9
844.803	51.04
844.973	42.35
845.144	18.11
845.314	32.31
845.484	13.14
845.654	12.05
845.824	15.87
845.995	13.81
846.165	18.09
846.335	26.67
846.505	34.16
846.675	37.5
846.845	48.49
847.015	63.65
847.185	61.88
847.355	67.71
847.525	75.34
847.695	81.62
847.865	78.73
848.035	70.62
848.205	68
848.375	65.78
848.545	63.04
848.715	64.72
848.884	47.02
849.054	42.21
849.224	22.68
849.394	15.46
849.564	4
849.733	13.44
849.903	32.94
850.073	38.74
850.243	44.27
850.412	55.23
850.582	48.99
850.752	46.64
850.921	45.9
851.091	55.71
851.26	62.19
851.43	67.03
851.599	52.19
851.769	53.81
851.939	41.79
852.108	44.12
852.278	31.63
852.447	32.87
852.616	51.83
852.786	43.81
852.955	43.81
853.125	38.25
853.294	29.08
853.463	23.38
853.633	13.8
853.802	-1.58
853.971	-32.54
854.141	-36.81
854.31	-31.54
854.479	-33.31
854.648	-29.97
854.818	-41.07
854.987	-25.99
855.156	-10.56
855.325	4.82
855.494	8.85
855.663	33.51
855.832	45.11
856.001	47.82
856.171	48.44
856.34	42.19
856.509	51.73
856.678	38.39
856.847	43.55
857.016	36.6
857.185	37.95
857.353	52.09
857.522	48.07
857.691	35.58
857.86	37.9
858.029	28.62
858.198	45.13
858.367	30.17
858.535	43.64
858.704	36.83
858.873	37.55
859.042	31.77
859.21	17.68
859.379	16.16
859.548	18.53
859.717	27.65
859.885	41.94
860.054	37.3
860.222	40.64
860.391	49.55
860.56	40.33
860.728	56.21
860.897	67.56
861.065	84.6
861.234	83.29
861.402	91.39
861.571	81.81
861.739	78.55
861.908	59.65
862.076	71.13
862.244	61.65
862.413	80.84
862.581	61.11
862.749	44.8
862.918	48.91
863.086	52.43
863.254	33
863.423	39.74
863.591	25.72
863.759	36.61
863.927	32.53
864.096	38.23
864.264	43.53
864.432	54.97
864.6	57.81
864.768	47.22
864.936	49.52
865.104	51.6
865.272	37.78
865.44	53.17
865.608	50.67
865.776	49.29
865.944	63.75
866.112	44.73
866.28	23.5
866.448	22.94
866.616	-3.17
866.784	-38.17
866.952	-31.06
867.12	-0.22
867.288	-8.02
867.455	7.67
867.623	-18.32
867.791	-4.77
867.959	11.12
868.127	39.81
868.294	25.77
868.462	41.01
868.63	49.37
868.797	44.02
868.965	34.99
869.133	28.26
869.3	24.97
869.468	28.65
869.636	15.18
869.803	4.59
869.971	-6.11
870.138	7.05
870.306	5.47
870.473	29.46
870.641	56.73
870.808	61.18
870.975	46.23
871.143	61.89
871.31	59.25
871.478	59.86
871.645	57.74
871.812	53.16
871.98	48.53
872.147	44.3
872.314	34.15
872.482	32.37
872.649	43.39
872.816	53.19
872.983	44.29
873.15	37.63
873.318	36
873.485	40.84
873.652	42.57
873.819	58.04
873.986	65.21
874.153	67
874.32	50.21
874.487	49.74
874.654	40.96
874.821	51.6
874.988	39.01
875.155	39
875.322	37.55
875.489	49.1
875.656	28.86
875.823	27.67
875.99	23.3
876.157	34.57
876.324	8.03
876.49	12.85
876.657	-5.32
876.824	21.21
876.991	22.75
877.157	16.34
877.324	-24.49
877.491	-1.48
877.658	0.62
877.824	21.49
877.991	38.33
878.157	49.11
878.324	64.13
878.491	62.26
878.657	69.65
878.824	66.4
878.99	78.98
879.157	93.24
879.323	95.41
879.49	93.99
879.656	73.39
879.823	43.25
879.989	32.17
880.156	16.84
880.322	45.29
880.488	38.62
880.655	36.42
880.821	38.32
880.987	36.26
881.154	21.97
881.32	34.02
881.486	37.69
881.652	45.95
881.819	47.01
881.985	45.89
882.151	40.56
882.317	46.39
882.483	48.08
882.649	46.58
882.816	44.87
882.982	45.52
883.148	46.2
883.314	48.07
883.48	49.4
883.646	48.03
883.812	47.58
883.978	46.6
884.144	42.8
884.31	44.15
884.476	44.47
884.642	45.98
884.807	47.2
884.973	46.61
885.139	50.37
885.305	47.34
885.471	51.13
885.637	50.46
885.802	52.94
885.968	56.03
886.134	54.26
886.3	57
886.465	60.83
886.631	57.82
886.797	58.09
886.962	45.52
887.128	49.56
887.293	47.74
887.459	56.5
887.625	54.5
887.79	49.93
887.956	48.8
888.121	45.4
888.287	40.66
888.452	40.99
888.618	43.05
888.783	52.74
