Data from 2937821_Reflection_1.txt Node
Date: Wed Jul 15 17:18:04 EDT 2015
User: robert
Spectrometer: USB4E03001
Autoset integration time: false
Trigger mode: 4
Integration Time (sec): 1.000000E-1
Scans to average: 10
Electric dark correction enabled: true
Nonlinearity correction enabled: false
Boxcar width: 5
Stray light correction enabled: false
XAxis mode: Wavelengths
Stop averaging: false
Number of Pixels in Spectrum: 3648
>>>>>Begin Spectral Data<<<<<
177.566	52.7
177.785	53.64
178.005	133.16
178.225	159.16
178.445	849.76
178.665	-52.72
178.885	392.42
179.105	130.61
179.324	186.51
179.544	87.95
179.764	85.17
179.984	85.92
180.204	86.99
180.423	420.58
180.643	246
180.863	222.61
181.083	699.6
181.302	177.5
181.522	182.15
181.742	156.24
181.961	146.68
182.181	276.1
182.401	169.03
182.621	113.04
182.84	63.05
183.06	28.46
183.279	1.76
183.499	13.22
183.719	-2.74
183.938	-39.31
184.158	-13.45
184.377	-53.77
184.597	-65.38
184.816	-175.21
185.036	937.22
185.256	159.26
185.475	88.74
185.695	61.8
185.914	51.8
186.134	15.36
186.353	-20.42
186.572	-87.97
186.792	-66.07
187.011	-90.16
187.231	-169.85
187.45	-1390.25
187.67	2509.52
187.889	181.83
188.108	150.95
188.328	92.08
188.547	56.91
188.766	54.35
188.986	35.86
189.205	18.45
189.424	11.68
189.644	-6.75
189.863	-41.12
190.082	-111.11
190.302	1345.21
190.521	76.67
190.74	86.62
190.959	88.5
191.178	103.03
191.398	192.76
191.617	68.15
191.836	77.4
192.055	76.76
192.274	-100.56
192.494	1.09
192.713	-84.78
192.932	141.85
193.151	69.96
193.37	-118.07
193.589	-2558.93
193.808	3063.11
194.027	199.74
194.246	183.29
194.465	1695.39
194.685	251.7
194.904	1890.94
195.123	-1740.63
195.342	-1087.19
195.561	580.93
195.78	47.24
195.999	109.67
196.218	839.81
196.436	-695.45
196.655	-2322.92
196.874	-79.56
197.093	-664.65
197.312	-857.03
197.531	-80.7
197.75	-103.08
197.969	-85.69
198.188	-178.7
198.407	-137.56
198.625	-210.37
198.844	-92.03
199.063	12.24
199.282	-63.29
199.501	15.71
199.719	4.18
199.938	-10.86
200.157	121.23
200.376	232.3
200.594	109.32
200.813	181.9
201.032	231.21
201.251	1497.7
201.469	-58.86
201.688	835.4
201.907	-198.51
202.125	-22.58
202.344	11.08
202.563	26.05
202.781	56.57
203	66.94
203.218	131.04
203.437	109.71
203.656	128.46
203.874	148.81
204.093	130.9
204.311	153.09
204.53	334.89
204.748	141.67
204.967	212.6
205.185	1.53
205.404	179.35
205.622	-1.6
205.841	-26.87
206.059	-3065.66
206.278	328.14
206.496	452.44
206.715	-816.57
206.933	-6383.56
207.151	237.56
207.37	-1140.86
207.588	-144.87
207.806	-464.62
208.025	-632.95
208.243	47.42
208.461	71.67
208.68	260.7
208.898	212.62
209.116	2590.64
209.335	569.16
209.553	251.51
209.771	591.46
209.989	-231.19
210.208	-81.49
210.426	28.74
210.644	-934.25
210.862	-160.19
211.081	-74.58
211.299	-307.33
211.517	207
211.735	889.01
211.953	831.45
212.171	0.35
212.39	42.02
212.608	-29.1
212.826	-111.43
213.044	39.89
213.262	32.97
213.48	-13.94
213.698	9.44
213.916	-131.97
214.134	-106.44
214.352	-95.8
214.57	5.45
214.788	35.36
215.006	11.25
215.224	-4.48
215.442	40.39
215.66	42.99
215.878	26.72
216.096	9.81
216.314	2.36
216.532	8.64
216.75	2.71
216.968	-66.16
217.185	-87.14
217.403	-50.95
217.621	-95.51
217.839	-489.01
218.057	-953.05
218.275	2026.67
218.492	340.37
218.71	309.26
218.928	419.52
219.146	-587.7
219.363	-73.5
219.581	-236.76
219.799	-173.07
220.017	-182.54
220.234	-233.12
220.452	-523.06
220.67	-200.41
220.887	-108.45
221.105	-107.54
221.323	-342.94
221.54	4963.58
221.758	470.78
221.976	965.77
222.193	155.42
222.411	213.19
222.629	310.51
222.846	-408.2
223.064	-23.49
223.281	-49.83
223.499	40.34
223.716	7.13
223.934	32.89
224.151	32.29
224.369	39.28
224.586	15.66
224.804	-0.07
225.021	3
225.239	20.12
225.456	6.47
225.674	29.69
225.891	31.86
226.108	37.23
226.326	33.06
226.543	41.88
226.76	38.46
226.978	47
227.195	44.68
227.413	36.84
227.63	26.6
227.847	28.06
228.064	23.41
228.282	17.46
228.499	22.13
228.716	22.14
228.934	17.28
229.151	16.06
229.368	14.84
229.585	16.74
229.802	19.37
230.02	19.59
230.237	18.06
230.454	12.74
230.671	16.13
230.888	12.83
231.105	15.09
231.323	19.34
231.54	20.28
231.757	21.36
231.974	19.42
232.191	11.68
232.408	12.94
232.625	17.72
232.842	24.37
233.059	20.78
233.276	24.7
233.493	21.57
233.71	15.6
233.927	11.02
234.144	7.26
234.361	10.12
234.578	19.49
234.795	17.78
235.012	5.28
235.229	7.45
235.446	13.98
235.663	8.21
235.879	13.31
236.096	21.28
236.313	27.8
236.53	28.08
236.747	25.98
236.964	20.84
237.181	29.67
237.397	27.77
237.614	28.26
237.831	22.69
238.048	18.79
238.264	18.65
238.481	16.92
238.698	17.1
238.915	14.89
239.131	12.96
239.348	18.72
239.565	13.92
239.781	19.58
239.998	20.65
240.215	25.52
240.431	28.51
240.648	21.85
240.865	20.89
241.081	16.1
241.298	16.31
241.514	19.37
241.731	18.93
241.947	17.86
242.164	19.49
242.38	19
242.597	19.18
242.814	17.69
243.03	18.47
243.246	18.52
243.463	19.77
243.679	20.19
243.896	21.04
244.112	20.61
244.329	19.4
244.545	17.5
244.762	17.76
244.978	14.81
245.194	17.74
245.411	18.22
245.627	17.16
245.843	16.07
246.06	16.47
246.276	17.03
246.492	17.38
246.709	18.85
246.925	18.34
247.141	18.53
247.357	18.25
247.574	17.45
247.79	17.79
248.006	16.97
248.222	17.76
248.439	17.71
248.655	16.02
248.871	14.26
249.087	14.17
249.303	13.57
249.519	13.69
249.736	14.32
249.952	14.24
250.168	15.32
250.384	16.1
250.6	12.48
250.816	10.08
251.032	11.94
251.248	11.86
251.464	9.82
251.68	11.17
251.896	8.88
252.112	8.6
252.328	7.2
252.544	4.86
252.76	8.62
252.976	11.36
253.192	11.97
253.408	11.67
253.624	12.99
253.84	13.15
254.056	11.89
254.272	13.19
254.487	14.39
254.703	17.01
254.919	19.81
255.135	14.13
255.351	12.25
255.567	14.03
255.782	13.85
255.998	15.87
256.214	15.79
256.43	16.55
256.646	12.28
256.861	11.02
257.077	10.88
257.293	7.51
257.508	10.5
257.724	10.58
257.94	9.06
258.155	9.12
258.371	8.8
258.587	10.28
258.802	11.73
259.018	12.69
259.234	12.43
259.449	12.81
259.665	13.69
259.88	13.25
260.096	14.29
260.312	15.34
260.527	14.83
260.743	14.64
260.958	13.89
261.174	12.85
261.389	13.22
261.605	13.12
261.82	11.76
262.036	11.03
262.251	11.19
262.466	9.54
262.682	7.61
262.897	7.17
263.113	6.69
263.328	7.94
263.543	8.08
263.759	8.3
263.974	8.68
264.189	11.2
264.405	13.7
264.62	13.65
264.835	13.45
265.051	12.07
265.266	13.24
265.481	13.39
265.696	12.33
265.912	13
266.127	11.31
266.342	8.52
266.557	7.52
266.773	4.52
266.988	3.84
267.203	1.85
267.418	2.53
267.633	0.9
267.848	-0.02
268.064	1.2
268.279	2.22
268.494	2.48
268.709	4.84
268.924	4.38
269.139	6.81
269.354	5.82
269.569	8.87
269.784	11.06
269.999	14.41
270.214	16.12
270.429	14.26
270.644	13.7
270.859	14.36
271.074	14.46
271.289	15.24
271.504	14.32
271.719	15.08
271.934	14.62
272.149	13.03
272.363	10.49
272.578	10.12
272.793	10.89
273.008	11.01
273.223	11.18
273.438	10.78
273.653	12.27
273.867	11.47
274.082	11.49
274.297	9.78
274.512	9.75
274.726	12.78
274.941	12.02
275.156	11.81
275.371	10.2
275.585	9.33
275.8	9.25
276.015	6.27
276.229	9.01
276.444	9.65
276.659	12.3
276.873	11.56
277.088	9.2
277.302	9.97
277.517	9.8
277.732	10.29
277.946	7.19
278.161	6.32
278.375	7.36
278.59	7.28
278.804	4.86
279.019	3.86
279.233	4.52
279.448	5.75
279.662	5.25
279.877	4.92
280.091	6.05
280.306	9.21
280.52	11.84
280.735	12.14
280.949	11.04
281.163	12.08
281.378	12.73
281.592	14.39
281.806	14.04
282.021	14.88
282.235	15.99
282.449	15.84
282.664	16.46
282.878	16.52
283.092	17.18
283.307	17.65
283.521	19.84
283.735	19.19
283.949	19.26
284.164	18.92
284.378	17.75
284.592	16.86
284.806	16.22
285.02	15.55
285.234	14.35
285.449	13.1
285.663	12.47
285.877	12.16
286.091	12.19
286.305	11.64
286.519	11.28
286.733	10.3
286.947	9.41
287.161	9.76
287.375	9.6
287.589	9.4
287.803	9.84
288.017	10.81
288.231	8.93
288.445	10.2
288.659	10.25
288.873	9.6
289.087	11.01
289.301	12.44
289.515	11.36
289.729	11.76
289.943	11.73
290.157	13.17
290.371	10.8
290.584	11.5
290.798	9.72
291.012	11.05
291.226	12.42
291.44	11.9
291.654	11.2
291.867	12.1
292.081	11.25
292.295	11.76
292.509	10.54
292.722	13.58
292.936	12.88
293.15	16.29
293.364	14.57
293.577	14.63
293.791	16.86
294.005	17.23
294.218	16.59
294.432	16.62
294.645	15.7
294.859	16.09
295.073	13.66
295.286	15.65
295.5	14.49
295.713	15.24
295.927	15.41
296.14	14.28
296.354	14.49
296.568	15.97
296.781	16.99
296.994	17.18
297.208	17.83
297.421	18.79
297.635	18.2
297.848	17.69
298.062	17.02
298.275	16.91
298.489	16.79
298.702	16.52
298.915	15.59
299.129	14.39
299.342	15.66
299.555	15.88
299.769	15.53
299.982	14.73
300.195	13.85
300.409	15.09
300.622	15.7
300.835	15.69
301.048	16.57
301.262	16.82
301.475	18.46
301.688	17.74
301.901	15.24
302.115	14.39
302.328	13.84
302.541	14.75
302.754	14.89
302.967	14.31
303.18	15.4
303.393	15.7
303.607	16.08
303.82	15.27
304.033	16.2
304.246	16.8
304.459	18.58
304.672	19.29
304.885	18.99
305.098	18.99
305.311	19.39
305.524	19.71
305.737	18.81
305.95	18.5
306.163	19.7
306.376	18.09
306.589	16.78
306.802	15.97
307.015	15.87
307.228	15.54
307.44	15
307.653	15.38
307.866	16.28
308.079	14.94
308.292	14.56
308.505	16.07
308.718	17.23
308.93	19.1
309.143	19.59
309.356	19.94
309.569	20.82
309.781	20.83
309.994	20.69
310.207	19.41
310.42	20.7
310.632	20.45
310.845	17.53
311.058	17.03
311.27	15.96
311.483	14.87
311.696	14.8
311.908	14.57
312.121	13.61
312.333	13.49
312.546	12.29
312.759	10.02
312.971	9.16
313.184	9.71
313.396	9.74
313.609	10.68
313.821	12.63
314.034	12.4
314.246	12.22
314.459	13.18
314.671	12.97
314.884	13.16
315.096	14.79
315.309	16.65
315.521	16.82
315.733	17.39
315.946	16.54
316.158	16.49
316.371	15.39
316.583	15.85
316.795	13.93
317.008	13.69
317.22	14.64
317.432	14.89
317.644	14.61
317.857	14.71
318.069	12.47
318.281	13.27
318.494	14.26
318.706	13.93
318.918	13.27
319.13	14.22
319.342	12.79
319.555	13.6
319.767	13.96
319.979	13.08
320.191	13.05
320.403	13.2
320.615	13.31
320.827	10.85
321.039	11.01
321.252	12.66
321.464	13.99
321.676	15.67
321.888	13.68
322.1	12.95
322.312	12.37
322.524	12.08
322.736	12.88
322.948	12.65
323.16	13.49
323.372	13.7
323.584	12.56
323.796	11.42
324.007	12.42
324.219	13.65
324.431	14.23
324.643	15.18
324.855	15.06
325.067	15.45
325.279	15.05
325.491	14.15
325.702	13.98
325.914	15.49
326.126	15.62
326.338	12.75
326.55	13.55
326.761	12.64
326.973	12.97
327.185	14.18
327.396	14.82
327.608	14.42
327.82	13.94
328.032	15.53
328.243	13.66
328.455	12.99
328.666	14.57
328.878	14.74
329.09	15.66
329.301	15.77
329.513	15.34
329.725	13.53
329.936	14.91
330.148	16.16
330.359	14.47
330.571	15.11
330.782	15.8
330.994	15.56
331.205	13.23
331.417	13.83
331.628	14.3
331.84	13.54
332.051	14.73
332.262	13.4
332.474	13.45
332.685	14.95
332.897	13.95
333.108	15.18
333.319	16.14
333.531	17.45
333.742	16.81
333.953	15.74
334.165	18.04
334.376	17.01
334.587	18.54
334.799	17.98
335.01	17.12
335.221	18.24
335.432	15.97
335.644	14.98
335.855	14.74
336.066	15.01
336.277	14.91
336.488	13.03
336.7	13.13
336.911	12.67
337.122	13.36
337.333	13.72
337.544	12.92
337.755	13.54
337.966	13.77
338.177	13.26
338.388	12.2
338.599	12.29
338.811	11.68
339.022	13.19
339.233	12.68
339.444	12.27
339.655	12.49
339.866	13.31
340.076	13.94
340.287	14.2
340.498	14.17
340.709	14.79
340.92	14.66
341.131	15.27
341.342	14.47
341.553	15.59
341.764	15.97
341.975	15.24
342.185	15.09
342.396	14.71
342.607	14.42
342.818	15.4
343.029	15.32
343.239	15.34
343.45	14.29
343.661	14.36
343.872	13.8
344.082	12.32
344.293	11.48
344.504	10.91
344.714	10.21
344.925	10.7
345.136	10.35
345.346	10.69
345.557	10.97
345.768	11.93
345.978	11.3
346.189	11.11
346.399	11.84
346.61	12.92
346.821	14.14
347.031	15.28
347.242	15.16
347.452	15.24
347.663	15.73
347.873	15.87
348.084	15.3
348.294	15.61
348.504	14.99
348.715	15.37
348.925	16.14
349.136	15.27
349.346	15.29
349.557	14.63
349.767	13.72
349.977	12.84
350.188	12.71
350.398	13.2
350.608	13.36
350.819	13.32
351.029	14.19
351.239	13.82
351.449	14.83
351.66	14.04
351.87	13.97
352.08	13.93
352.29	13.88
352.501	12.98
352.711	13.67
352.921	12.63
353.131	12.54
353.341	11.93
353.552	11.11
353.762	10.42
353.972	10.44
354.182	11.27
354.392	12.4
354.602	12.41
354.812	13.77
355.022	13.7
355.232	13.53
355.442	14.46
355.652	13.43
355.862	13.6
356.072	12.85
356.282	14.2
356.492	13.51
356.702	12.83
356.912	12.86
357.122	11.89
357.332	11.48
357.542	12.63
357.752	12.26
357.962	13.63
358.171	13.58
358.381	13.71
358.591	13.17
358.801	12.63
359.011	11.97
359.221	11.56
359.43	12.08
359.64	12.09
359.85	12.24
360.06	13.14
360.269	11.88
360.479	11.52
360.689	11.58
360.899	11.77
361.108	12.79
361.318	13.45
361.528	13.82
361.737	13.55
361.947	12.94
362.156	13.06
362.366	12.21
362.576	12.54
362.785	12.42
362.995	13.21
363.204	13.07
363.414	12.7
363.623	12.92
363.833	13.2
364.042	13.42
364.252	14.35
364.461	13.31
364.671	12.96
364.88	11.97
365.09	12.6
365.299	11.74
365.509	11.03
365.718	11.72
365.927	11.14
366.137	11.79
366.346	12.02
366.555	11.88
366.765	12.1
366.974	12.92
367.183	14.73
367.393	14.62
367.602	14.74
367.811	14.93
368.021	15.26
368.23	14.57
368.439	12.21
368.648	11.77
368.857	10.72
369.067	10.87
369.276	10.34
369.485	8.76
369.694	9.15
369.903	9.51
370.112	9.63
370.321	8.12
370.531	8.26
370.74	9.98
370.949	10.07
371.158	10.49
371.367	10.66
371.576	10.74
371.785	10.88
371.994	10.01
372.203	9.7
372.412	9.67
372.621	9.47
372.83	10.54
373.039	10.04
373.248	9.54
373.457	9.62
373.666	9.61
373.874	9.26
374.083	9.68
374.292	10.19
374.501	9.95
374.71	9.95
374.919	10.03
375.128	9.83
375.336	10.28
375.545	10.09
375.754	10.14
375.963	9.81
376.171	10.43
376.38	10.73
376.589	10.75
376.798	10.62
377.006	10.9
377.215	11.24
377.424	10.45
377.632	10.14
377.841	10.44
378.05	10.06
378.258	10.3
378.467	9.72
378.675	9.64
378.884	10.08
379.093	10.45
379.301	10.08
379.51	10.04
379.718	10.38
379.927	10.37
380.135	10.11
380.344	10.36
380.552	10.02
380.761	9.63
380.969	8.9
381.177	8.58
381.386	8.03
381.594	7.72
381.803	8.04
382.011	8.6
382.219	7.91
382.428	7.92
382.636	8.05
382.845	8.03
383.053	8.14
383.261	8.6
383.469	8.37
383.678	8.65
383.886	8.99
384.094	8.47
384.302	7.43
384.511	7.5
384.719	7.42
384.927	7.56
385.135	7.04
385.343	7.15
385.552	6.48
385.76	6.34
385.968	6.11
386.176	5.92
386.384	5.82
386.592	6.16
386.8	6.81
387.008	6.89
387.216	6.74
387.424	6.69
387.633	6.7
387.841	7.14
388.049	7.09
388.257	6.95
388.465	7.09
388.672	7.64
388.88	7.79
389.088	7.02
389.296	7.05
389.504	6.54
389.712	7.07
389.92	6.93
390.128	7.09
390.336	7.19
390.544	7
390.751	6.79
390.959	6.76
391.167	6.72
391.375	6.85
391.583	6.43
391.79	6.71
391.998	6.4
392.206	6.34
392.414	5.87
392.621	5.75
392.829	5.9
393.037	6.2
393.244	5.51
393.452	5.45
393.66	5.34
393.867	5.72
394.075	5.58
394.283	5.63
394.49	5.64
394.698	5.67
394.905	5.22
395.113	5.36
395.32	5.13
395.528	5.42
395.735	5.66
395.943	6.07
396.15	6.03
396.358	6.04
396.565	6.27
396.773	6.17
396.98	6.13
397.188	6.74
397.395	6.54
397.602	6.77
397.81	6.98
398.017	6.62
398.225	6.44
398.432	6.63
398.639	6.59
398.847	6.6
399.054	6.87
399.261	6.79
399.468	6.42
399.676	6.26
399.883	5.92
400.09	5.7
400.297	6.07
400.505	5.98
400.712	5.9
400.919	5.86
401.126	5.59
401.333	5.3
401.54	5.36
401.748	5.39
401.955	5.25
402.162	5.07
402.369	5.19
402.576	5.03
402.783	5.21
402.99	4.98
403.197	4.85
403.404	4.94
403.611	5.08
403.818	5.17
404.025	5.08
404.232	5.22
404.439	5.55
404.646	5.45
404.853	5.37
405.06	5.08
405.267	5.12
405.474	5.31
405.681	5.13
405.887	5.32
406.094	5.42
406.301	5.38
406.508	5.52
406.715	5.5
406.922	5.58
407.128	5.61
407.335	5.83
407.542	5.82
407.749	6.19
407.955	6.66
408.162	6.31
408.369	6.42
408.575	6.73
408.782	6.84
408.989	6.75
409.195	6.87
409.402	6.69
409.609	6.42
409.815	6.25
410.022	6.05
410.228	5.76
410.435	5.85
410.642	5.89
410.848	5.95
411.055	5.83
411.261	5.69
411.468	5.29
411.674	5.24
411.881	5.21
412.087	5.47
412.294	5.17
412.5	4.84
412.706	5
412.913	4.77
413.119	4.51
413.326	4.64
413.532	4.91
413.738	5.2
413.945	5.34
414.151	5.51
414.357	5.3
414.564	5.44
414.77	5.81
414.976	5.56
415.182	5.53
415.389	5.61
415.595	5.48
415.801	5.24
416.007	5.03
416.214	5.01
416.42	5.07
416.626	5.3
416.832	5.22
417.038	5.13
417.244	5.24
417.45	5.35
417.657	5.24
417.863	5.4
418.069	5.39
418.275	5.4
418.481	5.43
418.687	5.33
418.893	5.17
419.099	5.12
419.305	5.15
419.511	5.19
419.717	5.15
419.923	5.25
420.129	5.07
420.335	5.13
420.541	5.12
420.746	4.98
420.952	4.97
421.158	5.09
421.364	5.26
421.57	5.16
421.776	5.14
421.982	5.16
422.187	5.16
422.393	5.22
422.599	5.16
422.805	5.19
423.01	5.24
423.216	5.37
423.422	5.16
423.628	4.98
423.833	5
424.039	4.76
424.245	4.72
424.45	4.62
424.656	4.55
424.862	4.55
425.067	4.61
425.273	4.67
425.478	4.53
425.684	4.58
425.889	4.75
426.095	4.68
426.301	4.97
426.506	4.9
426.712	4.95
426.917	4.98
427.123	5.04
427.328	5
427.533	4.9
427.739	4.8
427.944	5.02
428.15	4.96
428.355	5.09
428.561	4.93
428.766	4.71
428.971	4.79
429.177	4.89
429.382	4.77
429.587	4.73
429.793	4.94
429.998	4.98
430.203	4.71
430.408	4.64
430.614	4.75
430.819	4.64
431.024	4.99
431.229	5.16
431.434	4.97
431.64	5
431.845	5.07
432.05	4.87
432.255	5.03
432.46	5.1
432.665	4.94
432.87	4.69
433.076	4.98
433.281	5.04
433.486	5.02
433.691	5.16
433.896	5.15
434.101	5.03
434.306	5.05
434.511	4.89
434.716	5.01
434.921	5.07
435.126	5.21
435.331	5.08
435.535	4.96
435.74	4.77
435.945	4.67
436.15	4.61
436.355	4.77
436.56	4.73
436.765	4.83
436.97	4.75
437.174	4.76
437.379	4.73
437.584	4.72
437.789	4.7
437.993	4.68
438.198	4.63
438.403	4.64
438.608	4.43
438.812	4.53
439.017	4.65
439.222	4.55
439.426	4.56
439.631	4.46
439.836	4.5
440.04	4.46
440.245	4.48
440.45	4.66
440.654	4.72
440.859	4.81
441.063	4.97
441.268	4.92
441.472	5.08
441.677	5.09
441.881	5.23
442.086	5.2
442.29	5.37
442.495	5.49
442.699	5.4
442.904	5.2
443.108	5.2
443.312	4.93
443.517	4.85
443.721	4.57
443.925	4.53
444.13	4.52
444.334	4.47
444.538	4.49
444.743	4.41
444.947	4.45
445.151	4.57
445.356	4.61
445.56	4.55
445.764	4.52
445.968	4.7
446.173	4.68
446.377	4.57
446.581	4.67
446.785	4.56
446.989	4.48
447.193	4.41
447.398	4.36
447.602	4.34
447.806	4.42
448.01	4.58
448.214	4.44
448.418	4.68
448.622	4.77
448.826	4.8
449.03	4.95
449.234	4.91
449.438	4.88
449.642	5.08
449.846	5.16
450.05	5.14
450.254	5
450.458	5.07
450.662	4.85
450.866	4.8
451.069	4.75
451.273	4.56
451.477	4.72
451.681	4.82
451.885	4.62
452.089	4.41
452.292	4.34
452.496	4.24
452.7	4.3
452.904	4.03
453.107	4.29
453.311	4.16
453.515	4.13
453.719	4.03
453.922	3.82
454.126	3.78
454.33	3.81
454.533	3.79
454.737	3.9
454.94	3.81
455.144	4.16
455.348	3.93
455.551	4.09
455.755	4.11
455.958	4.06
456.162	4.28
456.365	4.28
456.569	4.28
456.772	4.53
456.976	4.42
457.179	4.4
457.383	3.92
457.586	3.87
457.79	3.85
457.993	3.83
458.196	3.88
458.4	3.79
458.603	3.96
458.807	4.01
459.01	3.98
459.213	4.04
459.417	3.94
459.62	4.14
459.823	4.06
460.026	4
460.23	4.12
460.433	4.4
460.636	4.48
460.839	4.52
461.042	4.58
461.246	4.5
461.449	4.59
461.652	4.8
461.855	4.97
462.058	5.09
462.261	5.27
462.464	5.17
462.668	4.99
462.871	4.98
463.074	4.84
463.277	4.83
463.48	4.93
463.683	4.79
463.886	4.91
464.089	4.65
464.292	4.83
464.495	4.61
464.698	4.65
464.901	4.48
465.104	4.42
465.306	4.34
465.509	4.32
465.712	4.34
465.915	4.39
466.118	4.14
466.321	4.18
466.524	3.99
466.726	4.22
466.929	4.29
467.132	4.3
467.335	4.3
467.538	4.5
467.74	4.56
467.943	4.44
468.146	4.41
468.348	4.53
468.551	4.64
468.754	4.65
468.956	4.42
469.159	4.36
469.362	4.38
469.564	4.43
469.767	4.21
469.969	4.1
470.172	4.1
470.375	4.17
470.577	4.12
470.78	4.26
470.982	4.27
471.185	4.47
471.387	4.38
471.59	4.32
471.792	4.27
471.995	4.55
472.197	4.54
472.399	4.59
472.602	4.6
472.804	4.63
473.007	4.59
473.209	4.64
473.411	4.55
473.614	4.46
473.816	4.73
474.018	4.76
474.22	4.57
474.423	4.49
474.625	4.72
474.827	4.68
475.03	4.66
475.232	4.54
475.434	4.37
475.636	4.59
475.838	4.78
476.04	4.58
476.243	4.58
476.445	4.45
476.647	4.45
476.849	4.28
477.051	4.17
477.253	4.34
477.455	4.36
477.657	4.55
477.859	4.31
478.061	4.25
478.263	4.25
478.465	4.3
478.667	4.21
478.869	4.43
479.071	4.44
479.273	4.57
479.475	4.38
479.677	4.32
479.879	4.18
480.081	4.2
480.283	4.26
480.485	4.37
480.686	4.35
480.888	4.48
481.09	4.34
481.292	4.25
481.494	4.3
481.695	4.37
481.897	4.48
482.099	4.5
482.301	4.39
482.502	4.38
482.704	4.26
482.906	4.21
483.107	4.24
483.309	4.22
483.511	4.26
483.712	4.26
483.914	4.22
484.115	4.18
484.317	4.21
484.519	4.3
484.72	4.3
484.922	4.37
485.123	4.39
485.325	4.4
485.526	4.44
485.728	4.45
485.929	4.39
486.131	4.39
486.332	4.39
486.534	4.33
486.735	4.25
486.936	4.2
487.138	4.18
487.339	4.17
487.541	4.15
487.742	4.12
487.943	4.08
488.144	4.11
488.346	4.1
488.547	4.15
488.748	4.18
488.95	4.16
489.151	4.16
489.352	4.18
489.553	4.21
489.755	4.21
489.956	4.29
490.157	4.28
490.358	4.27
490.559	4.27
490.76	4.23
490.961	4.22
491.163	4.3
491.364	4.28
491.565	4.28
491.766	4.28
491.967	4.29
492.168	4.19
492.369	4.19
492.57	4.23
492.771	4.26
492.972	4.23
493.173	4.27
493.374	4.31
493.575	4.34
493.776	4.37
493.976	4.29
494.177	4.33
494.378	4.53
494.579	4.53
494.78	4.62
494.981	4.68
495.182	4.87
495.382	4.97
495.583	4.89
495.784	4.89
495.985	4.72
496.185	4.87
496.386	4.77
496.587	4.67
496.788	4.76
496.988	4.77
497.189	4.75
497.39	4.57
497.59	4.56
497.791	4.49
497.992	4.55
498.192	4.69
498.393	4.66
498.593	4.76
498.794	4.77
498.994	4.72
499.195	4.6
499.395	4.59
499.596	4.69
499.796	4.49
499.997	4.67
500.197	4.7
500.398	4.55
500.598	4.42
500.799	4.26
500.999	4.37
501.199	4.45
501.4	4.4
501.6	4.4
501.801	4.25
502.001	4.38
502.201	4.35
502.402	4.22
502.602	4.24
502.802	4.31
503.002	4.38
503.203	4.25
503.403	4.15
503.603	4.09
503.803	4.02
504.003	4.22
504.204	4.11
504.404	3.94
504.604	4.06
504.804	4.13
505.004	4.32
505.204	4.32
505.404	4.43
505.604	4.51
505.804	4.64
506.005	4.75
506.205	4.72
506.405	4.83
506.605	4.87
506.805	4.8
507.005	4.74
507.204	4.72
507.404	4.74
507.604	4.75
507.804	4.72
508.004	4.58
508.204	4.47
508.404	4.42
508.604	4.47
508.804	4.48
509.003	4.58
509.203	4.77
509.403	4.77
509.603	4.78
509.803	4.64
510.002	4.65
510.202	4.82
510.402	4.8
510.602	4.78
510.801	4.8
511.001	4.83
511.201	4.93
511.4	4.8
511.6	4.66
511.8	4.68
511.999	4.69
512.199	4.7
512.398	4.69
512.598	4.89
512.797	4.89
512.997	4.81
513.197	4.77
513.396	4.64
513.596	4.7
513.795	4.67
513.994	4.76
514.194	4.8
514.393	4.68
514.593	4.58
514.792	4.49
514.992	4.54
515.191	4.44
515.39	4.44
515.59	4.6
515.789	4.53
515.988	4.65
516.188	4.65
516.387	4.7
516.586	4.8
516.786	4.9
516.985	4.81
517.184	4.78
517.383	4.83
517.582	4.92
517.782	4.69
517.981	4.62
518.18	4.58
518.379	4.51
518.578	4.5
518.777	4.48
518.976	4.39
519.176	4.35
519.375	4.4
519.574	4.4
519.773	4.38
519.972	4.5
520.171	4.61
520.37	4.63
520.569	4.51
520.768	4.55
520.967	4.46
521.166	4.51
521.365	4.69
521.564	4.54
521.762	4.63
521.961	4.58
522.16	4.54
522.359	4.59
522.558	4.7
522.757	5.01
522.956	4.94
523.154	5.11
523.353	5.14
523.552	4.98
523.751	5.19
523.949	5.11
524.148	5.19
524.347	5.15
524.546	5.09
524.744	5.02
524.943	4.95
525.142	4.99
525.34	5.04
525.539	5.01
525.737	5.22
525.936	5.15
526.135	5.18
526.333	5.2
526.532	5.25
526.73	5.27
526.929	5.3
527.127	5.33
527.326	5.43
527.524	5.46
527.723	5.46
527.921	5.41
528.12	5.49
528.318	5.47
528.516	5.46
528.715	5.5
528.913	5.51
529.112	5.53
529.31	5.57
529.508	5.53
529.707	5.51
529.905	5.57
530.103	5.55
530.301	5.54
530.5	5.61
530.698	5.72
530.896	5.68
531.094	5.66
531.293	5.68
531.491	5.61
531.689	5.65
531.887	5.75
532.085	5.63
532.283	5.7
532.481	5.62
532.68	5.6
532.878	5.57
533.076	5.64
533.274	5.72
533.472	5.79
533.67	5.75
533.868	5.75
534.066	5.68
534.264	5.78
534.462	5.85
534.66	5.9
534.858	5.9
535.056	5.95
535.253	5.92
535.451	5.95
535.649	5.92
535.847	6.13
536.045	6.2
536.243	6.33
536.441	6.38
536.638	6.32
536.836	6.34
537.034	6.48
537.232	6.44
537.43	6.48
537.627	6.54
537.825	6.51
538.023	6.36
538.22	6.42
538.418	6.37
538.616	6.35
538.813	6.34
539.011	6.42
539.209	6.38
539.406	6.47
539.604	6.5
539.801	6.47
539.999	6.55
540.196	6.71
540.394	6.68
540.591	6.8
540.789	6.76
540.986	6.81
541.184	6.82
541.381	6.92
541.579	6.92
541.776	6.93
541.974	6.85
542.171	6.9
542.368	6.86
542.566	6.86
542.763	6.8
542.96	6.94
543.158	6.98
543.355	6.98
543.552	6.91
543.75	6.88
543.947	6.88
544.144	7.01
544.341	7.01
544.539	7.08
544.736	7.18
544.933	7.18
545.13	7.15
545.327	7.16
545.524	7.19
545.722	7.13
545.919	7.18
546.116	7.39
546.313	7.37
546.51	7.38
546.707	7.28
546.904	7.4
547.101	7.47
547.298	7.43
547.495	7.37
547.692	7.42
547.889	7.46
548.086	7.59
548.283	7.55
548.48	7.61
548.677	7.67
548.874	7.8
549.07	7.68
549.267	7.68
549.464	7.69
549.661	7.9
549.858	7.92
550.055	8.19
550.251	8.14
550.448	8.25
550.645	8.38
550.842	8.27
551.038	8.23
551.235	8.41
551.432	8.16
551.628	8.32
551.825	8.31
552.022	8.5
552.218	8.41
552.415	8.42
552.612	8.44
552.808	8.55
553.005	8.64
553.201	8.76
553.398	8.6
553.594	8.84
553.791	8.79
553.987	8.82
554.184	8.69
554.38	8.6
554.577	8.64
554.773	8.63
554.97	8.56
555.166	8.76
555.362	8.82
555.559	9.03
555.755	9.23
555.952	9.32
556.148	9.53
556.344	9.48
556.541	9.84
556.737	10.16
556.933	10.13
557.129	10.34
557.326	10.4
557.522	10.66
557.718	10.42
557.914	10.25
558.11	10.35
558.307	10.32
558.503	10.5
558.699	10.55
558.895	10.39
559.091	10.66
559.287	10.61
559.483	10.55
559.679	10.38
559.876	10.48
560.072	10.56
560.268	10.53
560.464	10.51
560.66	10.89
560.856	10.89
561.052	10.95
561.247	10.78
561.443	10.65
561.639	10.59
561.835	10.71
562.031	11
562.227	11.22
562.423	11.39
562.619	11.62
562.815	11.37
563.01	11.42
563.206	11.49
563.402	11.41
563.598	11.68
563.793	11.84
563.989	11.79
564.185	11.83
564.381	12.06
564.576	11.92
564.772	11.8
564.968	12.02
565.163	12.09
565.359	12.26
565.555	12.54
565.75	12.44
565.946	12.42
566.141	12.52
566.337	12.49
566.532	12.4
566.728	12.55
566.923	12.63
567.119	12.53
567.314	12.56
567.51	12.57
567.705	12.63
567.901	12.68
568.096	12.67
568.292	12.59
568.487	12.52
568.682	12.57
568.878	12.54
569.073	12.62
569.268	12.64
569.464	12.56
569.659	12.43
569.854	12.51
570.05	12.58
570.245	12.82
570.44	13.05
570.635	13.29
570.831	13.38
571.026	13.62
571.221	13.73
571.416	13.86
571.611	14.12
571.806	14.23
572.002	14.18
572.197	14.27
572.392	14.25
572.587	14.27
572.782	14.22
572.977	14.26
573.172	14.27
573.367	14.17
573.562	14.19
573.757	14.1
573.952	14.15
574.147	14.1
574.342	14.16
574.537	14.03
574.732	14.2
574.927	14.24
575.121	14.26
575.316	14.25
575.511	14.43
575.706	14.62
575.901	14.52
576.096	14.44
576.29	14.53
576.485	14.63
576.68	14.93
576.875	14.94
577.069	15.07
577.264	14.98
577.459	15.06
577.654	14.96
577.848	14.87
578.043	15.01
578.238	14.83
578.432	14.94
578.627	14.89
578.821	14.8
579.016	14.73
579.21	14.6
579.405	14.76
579.6	14.98
579.794	15.04
579.989	15.03
580.183	15.23
580.378	15.69
580.572	15.53
580.766	15.65
580.961	15.53
581.155	15.56
581.35	15.84
581.544	15.86
581.738	15.59
581.933	15.65
582.127	15.7
582.321	15.7
582.516	15.76
582.71	16.09
582.904	15.98
583.099	16.39
583.293	16.47
583.487	16.5
583.681	16.53
583.875	16.56
584.07	16.8
584.264	16.88
584.458	16.91
584.652	16.68
584.846	16.66
585.04	16.72
585.234	16.51
585.428	16.48
585.623	16.29
585.817	16.4
586.011	16.43
586.205	16.15
586.399	16.23
586.593	16.12
586.787	16.22
586.981	16.08
587.174	16.32
587.368	16.46
587.562	16.33
587.756	16.34
587.95	16.31
588.144	16.19
588.338	16.53
588.532	16.44
588.725	16.51
588.919	16.53
589.113	16.72
589.307	16.41
589.501	16.29
589.694	16.4
589.888	16.48
590.082	16.48
590.275	16.74
590.469	16.78
590.663	16.96
590.856	16.83
591.05	16.9
591.244	16.84
591.437	16.99
591.631	17.12
591.824	17.37
592.018	17.32
592.212	17.48
592.405	17.51
592.599	17.12
592.792	16.93
592.986	17.28
593.179	17.19
593.372	17.07
593.566	17.06
593.759	17.01
593.953	16.86
594.146	16.82
594.339	16.64
594.533	16.41
594.726	16.56
594.92	16.53
595.113	16.48
595.306	16.57
595.499	16.78
595.693	16.72
595.886	16.98
596.079	17.04
596.272	17.15
596.466	17.06
596.659	17.16
596.852	17.16
597.045	17.15
597.238	17.22
597.431	17.19
597.624	17.13
597.818	17.18
598.011	16.92
598.204	16.88
598.397	16.96
598.59	17
598.783	17.12
598.976	16.96
599.169	16.96
599.362	16.8
599.555	16.91
599.748	16.93
599.941	17.15
600.134	17.12
600.326	17.12
600.519	17.21
600.712	17.34
600.905	17.19
601.098	17.34
601.291	17.54
601.483	17.56
601.676	17.58
601.869	17.5
602.062	17.4
602.255	17.51
602.447	17.52
602.64	17.46
602.833	17.51
603.025	17.61
603.218	17.83
603.411	18.07
603.603	18.04
603.796	18.14
603.989	18.34
604.181	18.24
604.374	17.97
604.566	18.27
604.759	18.3
604.951	18.39
605.144	18.55
605.336	18.52
605.529	18.3
605.721	18.55
605.914	18.49
606.106	18.35
606.299	18.38
606.491	18.66
606.683	18.28
606.876	18.15
607.068	17.93
607.26	17.76
607.453	17.83
607.645	17.77
607.837	17.4
608.03	17.49
608.222	17.66
608.414	17.7
608.606	17.74
608.799	17.6
608.991	17.52
609.183	17.63
609.375	17.58
609.567	17.44
609.759	17.39
609.952	17.58
610.144	17.65
610.336	17.44
610.528	17.23
610.72	17.26
610.912	17.39
611.104	17.62
611.296	17.67
611.488	17.74
611.68	17.81
611.872	18.13
612.064	17.99
612.256	17.82
612.448	17.88
612.64	18.13
612.832	18.06
613.023	18.16
613.215	18.19
613.407	18.02
613.599	18.15
613.791	18.2
613.983	18.12
614.174	18.17
614.366	18.3
614.558	18.42
614.75	18.14
614.941	18.26
615.133	18.27
615.325	18.24
615.516	18.39
615.708	18.57
615.9	18.53
616.091	18.43
616.283	18.7
616.475	18.63
616.666	18.98
616.858	19.26
617.049	19.28
617.241	19.17
617.432	19.07
617.624	19.21
617.815	18.99
618.007	18.95
618.198	18.86
618.39	18.54
618.581	18.45
618.773	18.1
618.964	18.03
619.155	18.07
619.347	18.11
619.538	18.07
619.729	17.94
619.921	17.93
620.112	17.99
620.303	18.29
620.494	18.14
620.686	18.27
620.877	18.34
621.068	18.7
621.259	18.74
621.451	18.89
621.642	18.83
621.833	18.97
622.024	19.05
622.215	18.97
622.406	18.7
622.597	18.93
622.788	18.48
622.98	18.53
623.171	18.58
623.362	18.69
623.553	18.59
623.744	18.68
623.935	18.24
624.126	18.04
624.317	18.42
624.508	18.58
624.698	18.89
624.889	19.07
625.08	19.28
625.271	19.09
625.462	19.01
625.653	18.96
625.844	19.09
626.034	19.3
626.225	19.48
626.416	19.35
626.607	19.51
626.798	19.48
626.988	19.91
627.179	19.58
627.37	19.75
627.56	19.82
627.751	19.84
627.942	19.62
628.132	19.89
628.323	19.84
628.514	19.76
628.704	19.46
628.895	19.13
629.085	18.75
629.276	18.74
629.466	18.59
629.657	18.57
629.847	18.6
630.038	18.69
630.228	18.71
630.419	18.6
630.609	18.75
630.8	18.57
630.99	18.81
631.181	18.83
631.371	19.15
631.561	18.91
631.752	18.82
631.942	18.78
632.132	18.71
632.323	18.27
632.513	18.22
632.703	17.96
632.893	18.16
633.084	18.03
633.274	18.11
633.464	18
633.654	18.5
633.844	18.36
634.034	18.58
634.225	18.97
634.415	19
634.605	19.28
634.795	19.52
634.985	19.58
635.175	19.6
635.365	19.43
635.555	19.54
635.745	19.23
635.935	19.32
636.125	19.47
636.315	19.28
636.505	19.37
636.695	19.27
636.885	19.14
637.075	19.06
637.265	19.04
637.455	18.94
637.644	18.78
637.834	18.9
638.024	19.05
638.214	18.62
638.404	18.81
638.593	18.85
638.783	19.13
638.973	18.89
639.163	19.26
639.352	19.28
639.542	19.5
639.732	19.69
639.921	19.43
640.111	18.87
640.301	18.9
640.49	18.28
640.68	18.36
640.87	17.93
641.059	18.29
641.249	18.23
641.438	18.39
641.628	18.51
641.817	18.25
642.007	18.72
642.196	19.28
642.386	19.73
642.575	20.42
642.764	20.6
642.954	20.63
643.143	20.84
643.333	20.29
643.522	20.28
643.711	20.29
643.901	20.45
644.09	20.57
644.279	20.4
644.469	19.79
644.658	19.59
644.847	19.44
645.036	19.42
645.226	19.2
645.415	19.64
645.604	19.38
645.793	19.41
645.982	19.46
646.171	19.42
646.361	19.56
646.55	19.82
646.739	19.51
646.928	19.69
647.117	19.88
647.306	19.8
647.495	19.73
647.684	19.86
647.873	19.86
648.062	19.85
648.251	19.48
648.44	19.5
648.629	19.64
648.818	19.95
649.007	19.82
649.196	19.94
649.384	19.79
649.573	19.95
649.762	20.05
649.951	20.09
650.14	19.89
650.328	20.18
650.517	20.09
650.706	20.13
650.895	19.97
651.083	19.82
651.272	20.16
651.461	20.13
651.65	20.01
651.838	19.92
652.027	19.8
652.216	20.09
652.404	20.09
652.593	20.47
652.781	20.21
652.97	20.44
653.158	20.83
653.347	20.87
653.535	21.08
653.724	21.11
653.912	21.31
654.101	21.56
654.289	21.2
654.478	21.16
654.666	20.68
654.855	20.97
655.043	20.56
655.231	19.99
655.42	19.74
655.608	19.46
655.796	19.65
655.985	19.99
656.173	20.29
656.361	20.53
656.55	20.4
656.738	20.61
656.926	20.9
657.114	21.33
657.302	21.54
657.491	21.39
657.679	21.79
657.867	21.87
658.055	21.45
658.243	21.07
658.431	20.87
658.619	21.15
658.807	21.35
658.996	20.88
659.184	20.88
659.372	20.59
659.56	20.29
659.748	20.31
659.936	20.41
660.124	20.32
660.311	20.17
660.499	20.64
660.687	20.19
660.875	20.17
661.063	20.25
661.251	19.96
661.439	19.9
661.627	20.05
661.814	20.06
662.002	19.76
662.19	20.42
662.378	20.86
662.565	20.94
662.753	20.81
662.941	20.67
663.129	20.92
663.316	21.47
663.504	21.95
663.692	21.88
663.879	21.8
664.067	22.09
664.254	21.65
664.442	20.89
664.63	20.34
664.817	20.91
665.005	20.68
665.192	21.06
665.38	20.87
665.567	20.62
665.755	21.22
665.942	21.18
666.13	20.51
666.317	20.52
666.504	20.69
666.692	20.92
666.879	20.87
667.067	21.07
667.254	20.71
667.441	20.68
667.629	21.17
667.816	20.68
668.003	20.82
668.19	21.47
668.378	20.9
668.565	21.37
668.752	21.27
668.939	21.03
669.127	21.1
669.314	21.34
669.501	21.16
669.688	21.06
669.875	21.41
670.062	21.28
670.249	21.04
670.436	21.36
670.623	21.56
670.81	21.58
670.997	21.47
671.184	21.18
671.371	20.56
671.558	20.93
671.745	21.22
671.932	20.96
672.119	20.66
672.306	20.22
672.493	20
672.68	19.31
672.867	19.45
673.054	19.36
673.24	19.42
673.427	19.35
673.614	19.05
673.801	18.82
673.988	18.72
674.174	19.06
674.361	19.91
674.548	20.53
674.734	20.78
674.921	20.79
675.108	20.73
675.294	20.53
675.481	21.01
675.668	21.25
675.854	21.25
676.041	21.33
676.227	21.47
676.414	20.53
676.601	20.37
676.787	20.53
676.974	20.01
677.16	20.65
677.347	21.03
677.533	21.24
677.719	21.37
677.906	21.24
678.092	21.39
678.279	21.08
678.465	21.58
678.651	21.57
678.838	21.31
679.024	21.81
679.21	21.62
679.397	21.49
679.583	21.39
679.769	20.98
679.955	20.87
680.142	20.92
680.328	21.04
680.514	21.3
680.7	21.21
680.886	21.24
681.073	20.88
681.259	20.77
681.445	20.88
681.631	20.73
681.817	20.95
682.003	20.71
682.189	20.69
682.375	20.54
682.561	20.28
682.747	20.55
682.933	20.69
683.119	20.69
683.305	20.79
683.491	20.27
683.677	20.13
683.863	20.11
684.049	20.28
684.235	20.4
684.42	20.41
684.606	20.34
684.792	19.73
684.978	20.05
685.164	20.15
685.349	20.13
685.535	20.92
685.721	21.2
685.907	20.86
686.092	21.33
686.278	21.13
686.464	21.31
686.649	21.29
686.835	21.61
687.021	21.28
687.206	22.06
687.392	22.07
687.577	21.75
687.763	21.6
687.948	22.26
688.134	21.91
688.319	21.49
688.505	21.67
688.69	21.55
688.876	21.57
689.061	21.82
689.247	20.78
689.432	20.76
689.618	20.68
689.803	20.58
689.988	20.32
690.174	20.31
690.359	20.24
690.544	20.11
690.73	20.12
690.915	20.54
691.1	20.04
691.285	20.38
691.471	20.22
691.656	20.14
691.841	20.33
692.026	20.05
692.211	20.61
692.396	20.49
692.582	19.97
692.767	20.34
692.952	20.18
693.137	19.8
693.322	19.86
693.507	20.39
693.692	21.09
693.877	20.88
694.062	20.72
694.247	20.81
694.432	21.47
694.617	21.88
694.802	21.3
694.987	20.75
695.172	21.56
695.357	21.86
695.541	21.65
695.726	21.31
695.911	21.88
696.096	21.81
696.281	21.59
696.466	20.97
696.65	21.35
696.835	21.45
697.02	21.44
697.204	21.33
697.389	21.26
697.574	21.32
697.759	21.28
697.943	21.31
698.128	21.59
698.312	21.08
698.497	21.41
698.682	21.03
698.866	21.37
699.051	21.6
699.235	21.52
699.42	21.22
699.604	21.41
699.789	21.27
699.973	20.97
700.158	20.61
700.342	20.88
700.527	21.02
700.711	21.2
700.895	20.76
701.08	20.67
701.264	20.62
701.448	20.96
701.633	20.69
701.817	20.71
702.001	20.58
702.186	20.97
702.37	21.23
702.554	21.3
702.738	21.68
702.923	22.37
703.107	22.71
703.291	23.54
703.475	23.16
703.659	23.03
703.843	23.14
704.027	23.7
704.212	23.7
704.396	23.48
704.58	23.58
704.764	23.35
704.948	22.77
705.132	22.19
705.316	21.5
705.5	21.58
705.684	20.52
705.868	20.26
706.052	19.61
706.235	19.87
706.419	19.4
706.603	18.86
706.787	18.38
706.971	18.15
707.155	18.57
707.339	19.12
707.522	19.68
707.706	20.62
707.89	21.22
708.074	22.06
708.257	21.3
708.441	21.72
708.625	22.32
708.808	22.49
708.992	23.2
709.176	23.21
709.359	22.93
709.543	22.38
709.727	22.69
709.91	22.63
710.094	22.22
710.277	22.91
710.461	23.19
710.644	23.36
710.828	23.63
711.011	22.64
711.195	22.32
711.378	22.06
711.562	22.36
711.745	22.06
711.928	21.71
712.112	22
712.295	22.06
712.478	21.71
712.662	21.28
712.845	20.78
713.028	21.61
713.212	21.09
713.395	21.19
713.578	20.97
713.761	21.64
713.945	21.25
714.128	21.2
714.311	21.38
714.494	21.46
714.677	21.43
714.86	21.52
715.043	21.8
715.227	23.03
715.41	22.53
715.593	22.97
715.776	22.34
715.959	22.9
716.142	22.31
716.325	22.09
716.508	22.26
716.691	21.94
716.874	22.73
717.057	22.05
717.239	22.06
717.422	22.73
717.605	22.64
717.788	22.42
717.971	21.67
718.154	22.29
718.337	21.88
718.519	21.74
718.702	22.55
718.885	22.22
719.068	22.94
719.25	22.08
719.433	21.96
719.616	21.73
719.798	22.49
719.981	23.05
720.164	22.58
720.346	23.47
720.529	23.22
720.712	22.65
720.894	22.12
721.077	22.03
721.259	22.64
721.442	22.36
721.624	22.51
721.807	22.54
721.989	23.46
722.172	23.21
722.354	23.46
722.537	23.8
722.719	23.84
722.901	24.31
723.084	23.37
723.266	22.91
723.448	23.38
723.631	23.21
723.813	22.66
723.995	21.91
724.178	21.93
724.36	21.12
724.542	20.76
724.724	20.85
724.907	20.43
725.089	20.53
725.271	20.72
725.453	20.53
725.635	20.76
725.817	20.7
725.999	20.91
726.181	20.6
726.364	19.74
726.546	20.43
726.728	19.98
726.91	20.62
727.092	21.01
727.274	21.04
727.456	21.42
727.638	21.6
727.819	22.49
728.001	21.99
728.183	22.26
728.365	22.8
728.547	22.2
728.729	22.32
728.911	22.14
729.093	22.04
729.274	21.67
729.456	21.1
729.638	20.74
729.82	20.43
730.001	20.89
730.183	21.17
730.365	21.43
730.546	22.32
730.728	23.1
730.91	23.24
731.091	23.78
731.273	23.55
731.455	24.35
731.636	24.47
731.818	23.76
731.999	23.88
732.181	23.81
732.362	23.52
732.544	22.51
732.725	21.81
732.907	21.45
733.088	20.36
733.27	20.16
733.451	19.98
733.633	19.99
733.814	20.38
733.995	19.74
734.177	19.39
734.358	19.49
734.539	20.6
734.721	21.49
734.902	22.09
735.083	24.01
735.264	25.3
735.446	24.85
735.627	24.75
735.808	24.53
735.989	25.07
736.17	25.96
736.351	27.1
736.533	25.92
736.714	24.49
736.895	23.32
737.076	22.32
737.257	22.07
737.438	23.3
737.619	24.4
737.8	24.52
737.981	24.43
738.162	23.97
738.343	23.44
738.524	24.28
738.705	24.79
738.886	24.67
739.067	24.83
739.247	24.71
739.428	23.54
739.609	22.41
739.79	23.72
739.971	24.3
740.151	23.57
740.332	23.41
740.513	23.5
740.694	23.44
740.874	24.23
741.055	23.11
741.236	22.82
741.417	23.51
741.597	23.03
741.778	22.34
741.958	22.92
742.139	22.77
742.32	22.83
742.5	23.01
742.681	21.61
742.861	21.81
743.042	22.62
743.222	22.62
743.403	21.56
743.583	22.92
743.764	22.77
743.944	22.37
744.124	24.01
744.305	23.65
744.485	22.24
744.666	24.03
744.846	24.08
745.026	23.76
745.207	24.03
745.387	22.61
745.567	22.33
745.747	21.34
745.928	20.64
746.108	19.73
746.288	19.31
746.468	21.56
746.648	23.16
746.829	22.52
747.009	23.1
747.189	21.96
747.369	24.25
747.549	22.61
747.729	22.8
747.909	22.52
748.089	22.51
748.269	23.17
748.449	22.32
748.629	21.13
748.809	21.24
748.989	20.7
749.169	20.71
749.349	19.73
749.529	19.57
749.709	18.87
749.889	18.81
750.068	19.87
750.248	19.43
750.428	19.19
750.608	18.54
750.788	18.64
750.967	18.54
751.147	19.6
751.327	20.6
751.507	21.44
751.686	21.62
751.866	22.36
752.046	22.08
752.225	22.87
752.405	22.41
752.585	23.72
752.764	24.18
752.944	24.74
753.123	25.1
753.303	23.32
753.482	24.61
753.662	24.75
753.841	24.88
754.021	23.92
754.2	23.48
754.38	24.83
754.559	23.32
754.739	21.97
754.918	21.97
755.097	22.55
755.277	23.2
755.456	21.7
755.635	22.08
755.815	20.64
755.994	20.24
756.173	18.84
756.352	17.49
756.532	18.43
756.711	19.59
756.89	18.23
757.069	16.64
757.248	16.98
757.427	18.63
757.607	20.13
757.786	21.43
757.965	22.37
758.144	23.8
758.323	22.71
758.502	22.96
758.681	22.74
758.86	24.18
759.039	25.36
759.218	25.38
759.397	24.83
759.576	23.65
759.755	23.37
759.934	22.71
760.113	22.59
760.291	23.69
760.47	24.43
760.649	24.5
760.828	24.97
761.007	25.08
761.186	24.81
761.364	24.63
761.543	24.59
761.722	24.81
761.901	25.53
762.079	24.38
762.258	24.31
762.437	23.71
762.615	23.82
762.794	23.94
762.972	23.79
763.151	24.21
763.33	24.21
763.508	24
763.687	24.2
763.865	24.1
764.044	24.67
764.222	24.48
764.401	24.03
764.579	24.08
764.758	22.85
764.936	21.97
765.114	21.4
765.293	21.11
765.471	21.4
765.65	21.44
765.828	21.22
766.006	22.14
766.184	22.11
766.363	21.52
766.541	20.84
766.719	21.33
766.898	21.5
767.076	23.21
767.254	24.37
767.432	23.73
767.61	23.31
767.788	23.63
767.967	22.32
768.145	21.25
768.323	21.92
768.501	21.92
768.679	20.46
768.857	20.76
769.035	19.51
769.213	17.49
769.391	17.38
769.569	16.88
769.747	15.99
769.925	17.03
770.103	17.67
770.281	16.05
770.459	18.61
770.636	18.87
770.814	17.76
770.992	16.53
771.17	17.35
771.348	15.89
771.525	16.89
771.703	20.09
771.881	19.89
772.059	21.27
772.236	23.24
772.414	22.4
772.592	23.35
772.769	25.4
772.947	26.25
773.125	26
773.302	26.05
773.48	25.95
773.657	23.09
773.835	22.1
774.013	21.81
774.19	20.92
774.368	21.03
774.545	21.68
774.723	20.92
774.9	20.48
775.077	21.93
775.255	22.16
775.432	21.3
775.61	22.71
775.787	23.88
775.964	24.55
776.142	24.96
776.319	25.01
776.496	27.83
776.674	29.66
776.851	28.69
777.028	29.79
777.205	33.64
777.382	32.81
777.56	31.44
777.737	28.53
777.914	27.57
778.091	27.2
778.268	26.47
778.445	26.31
778.622	24.14
778.8	27.46
778.977	25.3
779.154	21.12
779.331	23.29
779.508	24.64
779.685	26.42
779.862	25.69
780.038	26.92
780.215	25.6
780.392	22.54
780.569	21.34
780.746	19.35
780.923	19.17
781.1	20.14
781.277	20.26
781.453	20.45
781.63	19.43
781.807	23.39
781.984	23.12
782.16	23.08
782.337	25.08
782.514	28.03
782.691	28.52
782.867	28.01
783.044	28.41
783.221	25.89
783.397	25.73
783.574	25.77
783.75	23.06
783.927	22.59
784.103	24.97
784.28	26.45
784.456	25.21
784.633	26.57
784.809	24.96
784.986	24.97
785.162	27.77
785.339	25.94
785.515	28.87
785.692	28.03
785.868	29.07
786.044	25.57
786.221	20.36
786.397	17.97
786.573	19.39
786.749	23.53
786.926	25.28
787.102	22.81
787.278	23.76
787.454	22.57
787.631	23.4
787.807	24.16
787.983	25.67
788.159	28.13
788.335	30.13
788.511	28.54
788.687	26.14
788.863	25.2
789.039	25.66
789.216	26.13
789.392	26.42
789.568	24.83
789.744	24.43
789.919	25.4
790.095	26.21
790.271	25.26
790.447	24.2
790.623	26.22
790.799	26.74
790.975	27
791.151	25.1
791.327	23.66
791.502	27.41
791.678	25.09
791.854	24.07
792.03	23.19
792.205	24.66
792.381	24.14
792.557	20.93
792.733	20.3
792.908	19.72
793.084	20.23
793.259	22.62
793.435	18.41
793.611	21.28
793.786	26.2
793.962	28.32
794.137	29.67
794.313	31.41
794.488	30.92
794.664	33.27
794.839	31.15
795.015	30.55
795.19	31.22
795.366	32.91
795.541	30.92
795.716	24.44
795.892	22.55
796.067	22.1
796.242	19.69
796.418	20.84
796.593	17.9
796.768	21.26
796.944	24.06
797.119	20.87
797.294	22.57
797.469	24.8
797.644	26.33
797.82	26.65
797.995	23
798.17	24.01
798.345	24.11
798.52	24.51
798.695	25.4
798.87	25.61
799.045	27.81
799.22	26.08
799.395	22.01
799.57	23.27
799.745	20.09
799.92	21.7
800.095	25.59
800.27	26.08
800.445	24.48
800.62	23.25
800.795	22.26
800.97	20.65
801.145	21.1
801.319	28.06
801.494	28.33
801.669	33.24
801.844	32.9
802.018	29.32
802.193	28
802.368	28.4
802.543	25.77
802.717	25.63
802.892	25.82
803.067	26.4
803.241	21.56
803.416	16.01
803.59	14.03
803.765	15.31
803.94	15.32
804.114	18.21
804.289	17.54
804.463	24.99
804.638	24.93
804.812	25.32
804.986	27.8
805.161	27.73
805.335	31.76
805.51	25.62
805.684	25.17
805.858	20.81
806.033	17.64
806.207	20.23
806.381	16.97
806.556	16.6
806.73	16.99
806.904	14.46
807.078	14.74
807.253	14.17
807.427	18.06
807.601	16.2
807.775	21.2
807.949	21.51
808.123	21.34
808.298	23.41
808.472	24.02
808.646	27.41
808.82	26.16
808.994	28.28
809.168	27.26
809.342	24.22
809.516	24.34
809.69	23.54
809.864	26.18
810.038	23.66
810.212	22.76
810.385	27.38
810.559	25.83
810.733	30.75
810.907	29.88
811.081	30.21
811.255	34.43
811.428	36.74
811.602	39.13
811.776	37.19
811.95	39.32
812.123	39.92
812.297	31.44
812.471	30.22
812.644	27.81
812.818	30.2
812.992	31.85
813.165	29.64
813.339	34.27
813.512	26.74
813.686	26.36
813.86	26.47
814.033	22.32
814.207	28.62
814.38	28.63
814.554	29.59
814.727	25.28
814.9	30.06
815.074	31.85
815.247	24.59
815.421	26.82
815.594	26.98
815.767	29.58
815.941	30.67
816.114	29.52
816.287	29.26
816.46	24.94
816.634	22.52
816.807	16.27
816.98	14.15
817.153	17.18
817.327	13.29
817.5	17.36
817.673	13.66
817.846	15.25
818.019	14.53
818.192	12.96
818.365	15.65
818.538	18.07
818.711	14.34
818.884	15.56
819.057	16.13
819.23	23.23
819.403	20.76
819.576	21.39
819.749	19.66
819.922	19.09
820.095	21.14
820.268	21.87
820.441	18.51
820.614	21.46
820.786	22.33
820.959	21.7
821.132	22.09
821.305	21.9
821.477	21.3
821.65	24.49
821.823	24.63
821.996	24.82
822.168	25.52
822.341	26.51
822.514	27.54
822.686	26.75
822.859	27.18
823.031	26.98
823.204	27.51
823.376	28.43
823.549	27.67
823.722	27.4
823.894	27.66
824.067	27.3
824.239	27.61
824.411	26.68
824.584	27.58
824.756	27.19
824.929	26.96
825.101	28.1
825.273	26.48
825.446	26.47
825.618	25.87
825.79	26.27
825.963	25.39
826.135	24.8
826.307	23.92
826.479	23.1
826.652	22.69
826.824	20.75
826.996	19.04
827.168	20.28
827.34	19.13
827.512	20.54
827.684	18.91
827.856	20.23
828.029	20.67
828.201	21.81
828.373	21.25
828.545	22.8
828.717	25.14
828.889	25.73
829.061	26.49
829.232	28.44
829.404	28.18
829.576	28.52
829.748	25.7
829.92	22.77
830.092	22.98
830.264	24.85
830.436	20.88
830.607	19.34
830.779	16.98
830.951	14.72
831.123	14.07
831.294	13.45
831.466	15.49
831.638	14.82
831.809	17.71
831.981	16.06
832.153	11.37
832.324	14.39
832.496	16.88
832.667	16.65
832.839	17.69
833.011	19.18
833.182	18.88
833.354	16.89
833.525	19.81
833.697	22.52
833.868	22.74
834.039	23.52
834.211	23.46
834.382	22.65
834.554	22.33
834.725	22.1
834.896	18.4
835.068	18.56
835.239	18.87
835.41	18.26
835.581	19.83
835.753	21.47
835.924	24.17
836.095	23.3
836.266	22.85
836.438	23.93
836.609	25.65
836.78	27.62
836.951	28.08
837.122	25.95
837.293	26.89
837.464	23.68
837.635	27.09
837.806	28.53
837.977	26.29
838.148	27.14
838.319	27.75
838.49	25.45
838.661	25.76
838.832	30.79
839.003	35.98
839.174	37.61
839.345	39
839.516	27.09
839.687	23.47
839.857	31.85
840.028	31.75
840.199	29.94
840.37	29.42
840.54	32.22
840.711	27.82
840.882	24.95
841.053	25.77
841.223	23.52
841.394	27.84
841.564	25.28
841.735	24.97
841.906	21.43
842.076	24.78
842.247	23.49
842.417	15.28
842.588	16.83
842.758	9.93
842.929	-4.29
843.099	-1.05
843.27	-1.23
843.44	7.09
843.611	6.8
843.781	15.76
843.951	26.72
844.122	27.47
844.292	34.05
844.462	33.1
844.633	34.67
844.803	44.31
844.973	48.14
845.144	53.24
845.314	54.24
845.484	47.91
845.654	35.83
845.824	21.92
845.995	28.32
846.165	25.81
846.335	29.29
846.505	40.17
846.675	40.86
846.845	37.06
847.015	36.23
847.185	34.44
847.355	33.78
847.525	44.24
847.695	42.48
847.865	30.59
848.035	26.69
848.205	14.88
848.375	-3.07
848.545	-11
848.715	-6.6
848.884	-22.93
849.054	-11.95
849.224	-10.01
849.394	2.27
849.564	5.56
849.733	29.27
849.903	29.17
850.073	35.7
850.243	38.58
850.412	38.95
850.582	38.05
850.752	42.83
850.921	35.1
851.091	46.4
851.26	23.28
851.43	44.82
851.599	15.22
851.769	6.79
851.939	4.13
852.108	12.21
852.278	13.92
852.447	20.25
852.616	19.89
852.786	30.97
852.955	29.82
853.125	35.51
853.294	29.43
853.463	38.87
853.633	42.66
853.802	43.82
853.971	51.8
854.141	59.99
854.31	48.47
854.479	58.79
854.648	44.23
854.818	37.56
854.987	45.34
855.156	50.56
855.325	46.47
855.494	54.9
855.663	39.03
855.832	26.26
856.001	17.26
856.171	24.69
856.34	11.39
856.509	14.49
856.678	23.21
856.847	12.7
857.016	6.2
857.185	2.36
857.353	1.03
857.522	3.59
857.691	2.02
857.86	5.06
858.029	3.54
858.198	9.78
858.367	18.7
858.535	18.15
858.704	15.68
858.873	8.92
859.042	6.92
859.21	-12.44
859.379	-9.46
859.548	-7.66
859.717	-19.02
859.885	-23.53
860.054	-42.87
860.222	-51.17
860.391	-80.2
860.56	-62.15
860.728	-60.69
860.897	-73.17
861.065	-23.78
861.234	-21.06
861.402	-15.8
861.571	-15.48
861.739	-0.05
861.908	15.02
862.076	24.61
862.244	40.9
862.413	43.77
862.581	30.49
862.749	26.43
862.918	32.17
863.086	37.46
863.254	49.62
863.423	69.92
863.591	73.62
863.759	64.06
863.927	58.15
864.096	39.31
864.264	48.93
864.432	58.93
864.6	72.67
864.768	58.35
864.936	51.47
865.104	54.38
865.272	52.14
865.44	59.77
865.608	52.49
865.776	53.51
865.944	55.8
866.112	51.71
866.28	46.58
866.448	34.99
866.616	37.72
866.784	33.28
866.952	27.33
867.12	13.41
867.288	8.47
867.455	9.63
867.623	3
867.791	-4.28
867.959	-12.59
868.127	-9.16
868.294	-39.64
868.462	-37.87
868.63	-48.51
868.797	-104.19
868.965	15.34
869.133	5.68
869.3	-20.73
869.468	-11.43
869.636	25.24
869.803	22.19
869.971	18.94
870.138	26.41
870.306	20.58
870.473	40.21
870.641	40.92
870.808	26.64
870.975	17.01
871.143	14.9
871.31	34.51
871.478	41.55
871.645	62.72
871.812	47.48
871.98	46.12
872.147	46.04
872.314	41.04
872.482	50.77
872.649	64.4
872.816	63.4
872.983	86.55
873.15	80.66
873.318	74.59
873.485	54.03
873.652	49.36
873.819	61.26
873.986	41.72
874.153	23.89
874.32	32.78
874.487	28.83
874.654	29.67
874.821	12.96
874.988	16.64
875.155	23.07
875.322	29.73
875.489	45.6
875.656	23.28
875.823	52.92
875.99	76.39
876.157	68.31
876.324	77.45
876.49	69.42
876.657	83.38
876.824	61.4
876.991	71.02
877.157	64.97
877.324	58.22
877.491	54.84
877.658	60.49
877.824	35.11
877.991	30.87
878.157	15.55
878.324	9.82
878.491	4.31
878.657	18.12
878.824	-4.22
878.99	-15.26
879.157	-29.92
879.323	-23.21
879.49	-37.88
879.656	-18.13
879.823	-16.04
879.989	-20.71
880.156	-4.08
880.322	-16.02
880.488	-11.24
880.655	-2.86
880.821	3.13
880.987	14.54
881.154	23.14
881.32	30.32
881.486	27.23
881.652	33.33
881.819	38.4
881.985	33.16
882.151	29.55
882.317	24.55
882.483	28.81
882.649	28.05
882.816	29.37
882.982	32.37
883.148	33.37
883.314	34.14
883.48	29.02
883.646	29.72
883.812	31.23
883.978	35.69
884.144	34.89
884.31	32.63
884.476	32.85
884.642	31.15
884.807	29.31
884.973	26.85
885.139	28.09
885.305	31.32
885.471	29.76
885.637	29.9
885.802	30.21
885.968	30.73
886.134	31.29
886.3	29.03
886.465	28.25
886.631	25.34
886.797	27.7
886.962	23.51
887.128	20.86
887.293	13.62
887.459	-9.81
887.625	-25.78
887.79	-37.7
887.956	-62.67
888.121	-58.57
888.287	-133.6
888.452	-215.52
888.618	-414.71
888.783	-392.42
