Data from 2937839_Reflection_2.txt Node
Date: Wed Jul 15 16:22:42 EDT 2015
User: robert
Spectrometer: USB4E03001
Autoset integration time: false
Trigger mode: 4
Integration Time (sec): 1.000000E-1
Scans to average: 10
Electric dark correction enabled: true
Nonlinearity correction enabled: false
Boxcar width: 5
Stray light correction enabled: false
XAxis mode: Wavelengths
Stop averaging: false
Number of Pixels in Spectrum: 3648
>>>>>Begin Spectral Data<<<<<
177.566	-283.52
177.785	-185.49
178.005	-172.09
178.225	-224.4
178.445	-141.57
178.665	-142.87
178.885	-95.29
179.105	-136.14
179.324	-248.61
179.544	-234.84
179.764	-153.33
179.984	-143.7
180.204	-126.58
180.423	-62.92
180.643	-122.12
180.863	-61.44
181.083	-26.15
181.302	-26.43
181.522	-48.29
181.742	-104.65
181.961	-349.88
182.181	100.88
182.401	67.06
182.621	118.88
182.84	100.44
183.06	122.93
183.279	126.95
183.499	141.04
183.719	178.61
183.938	217.01
184.158	300.71
184.377	1032.78
184.597	-3170.73
184.816	-906.5
185.036	-1166.85
185.256	-212.48
185.475	-221.75
185.695	-255.71
185.914	-210.87
186.134	-9169.64
186.353	270.5
186.572	566.78
186.792	263.83
187.011	1291.19
187.231	111.23
187.45	6.7
187.67	52.88
187.889	17.08
188.108	-53.86
188.328	-194.91
188.547	568.02
188.766	811.46
188.986	-2899.59
189.205	-236.27
189.424	-137.27
189.644	106.06
189.863	161.11
190.082	130.28
190.302	140.96
190.521	101.83
190.74	99.34
190.959	85.17
191.178	47.98
191.398	5.06
191.617	27.34
191.836	67.38
192.055	80.63
192.274	-4.41
192.494	43.82
192.713	20.12
192.932	-16.97
193.151	-24.93
193.37	108.33
193.589	96.94
193.808	102.44
194.027	60.62
194.246	85.2
194.465	62.52
194.685	84.53
194.904	88.48
195.123	74.89
195.342	50.26
195.561	80.35
195.78	-202.15
195.999	-9.46
196.218	54.46
196.436	14.75
196.655	23.41
196.874	50.95
197.093	-35.06
197.312	-27.75
197.531	211.08
197.75	-3.02
197.969	242.54
198.188	44.01
198.407	27.18
198.625	47.14
198.844	46.92
199.063	67.76
199.282	181.96
199.501	-894.62
199.719	-51.97
199.938	-120.41
200.157	1053.88
200.376	-352.98
200.594	0.85
200.813	-21.99
201.032	-81.83
201.251	-33.39
201.469	-62.64
201.688	-69.47
201.907	-124.21
202.125	-1371.19
202.344	1552.78
202.563	2389.82
202.781	-2792.42
203	1494.66
203.218	1107.95
203.437	1426.64
203.656	9675.41
203.874	-1345.57
204.093	1150.14
204.311	-4511.76
204.53	-102.14
204.748	62.29
204.967	126.44
205.185	144.44
205.404	161.52
205.622	131.95
205.841	88.65
206.059	111.36
206.278	161.66
206.496	141.46
206.715	121.3
206.933	86.03
207.151	93.56
207.37	51.77
207.588	29.64
207.806	-151.18
208.025	7.33
208.243	-0
208.461	-318.07
208.68	1101.25
208.898	13.43
209.116	-76.47
209.335	-109.33
209.553	3309.87
209.771	-228.41
209.989	26.92
210.208	109.67
210.426	103.65
210.644	-193.44
210.862	229.89
211.081	1764.85
211.299	-8320
211.517	-52.73
211.735	-563.94
211.953	47.54
212.171	97.97
212.39	-941.04
212.608	-1708.26
212.826	824.21
213.044	391.4
213.262	-417.67
213.48	122.6
213.698	310.11
213.916	134.6
214.134	-167.42
214.352	-3.83
214.57	80.67
214.788	5.26
215.006	29.07
215.224	-1.27
215.442	38.38
215.66	-26.76
215.878	-62.66
216.096	-151.09
216.314	634.08
216.532	670.31
216.75	179.61
216.968	216.52
217.185	149.99
217.403	160.25
217.621	107.94
217.839	95.02
218.057	238.97
218.275	276.38
218.492	-7.19
218.71	-76.61
218.928	9.08
219.146	5.67
219.363	-211.82
219.581	-111.79
219.799	-123.54
220.017	-50.04
220.234	12.79
220.452	54.89
220.67	85.05
220.887	107.91
221.105	130.28
221.323	204.83
221.54	136.66
221.758	133.62
221.976	151.22
222.193	172.42
222.411	127.47
222.629	114.62
222.846	93.35
223.064	76.36
223.281	86.25
223.499	95.75
223.716	74.45
223.934	91.95
224.151	74.49
224.369	70.16
224.586	63.56
224.804	85.94
225.021	76.93
225.239	79.71
225.456	68.34
225.674	62.68
225.891	61.63
226.108	48.71
226.326	29.74
226.543	31.67
226.76	38.53
226.978	26.86
227.195	13.64
227.413	21.38
227.63	14.56
227.847	19.75
228.064	13.92
228.282	13.72
228.499	14.6
228.716	12.73
228.934	13.93
229.151	10.1
229.368	13.1
229.585	14.47
229.802	11.14
230.02	9.13
230.237	7.99
230.454	10.45
230.671	12.63
230.888	13.72
231.105	13.77
231.323	12.71
231.54	11.47
231.757	8.98
231.974	11.54
232.191	14.09
232.408	18.21
232.625	15.41
232.842	17.5
233.059	12.9
233.276	16.28
233.493	16.8
233.71	22
233.927	29.43
234.144	27.54
234.361	19.77
234.578	20.4
234.795	20.13
235.012	26.73
235.229	25.14
235.446	28.07
235.663	28.58
235.879	32
236.096	21.62
236.313	14.54
236.53	23.26
236.747	28.63
236.964	24.36
237.181	20.85
237.397	7.69
237.614	1.47
237.831	-1.98
238.048	-8.81
238.264	1.38
238.481	5.41
238.698	9.74
238.915	5.3
239.131	5.84
239.348	8.16
239.565	8.32
239.781	12.28
239.998	15.25
240.215	18.26
240.431	20.44
240.648	14.62
240.865	15.68
241.081	17.36
241.298	19.9
241.514	18.03
241.731	16.57
241.947	16.05
242.164	17.1
242.38	16.55
242.597	15.06
242.814	13.5
243.03	12.81
243.246	11.79
243.463	8.84
243.679	6.85
243.896	6.56
244.112	9.22
244.329	9.21
244.545	8.44
244.762	6.94
244.978	9.64
245.194	12.97
245.411	12.35
245.627	15.57
245.843	17.24
246.06	15.7
246.276	15.96
246.492	15.1
246.709	14.52
246.925	14.22
247.141	15.43
247.357	13.69
247.574	13.71
247.79	14.61
248.006	14.27
248.222	14.01
248.439	13.89
248.655	12.98
248.871	12.82
249.087	13.31
249.303	14.21
249.519	13.73
249.736	16.27
249.952	16.48
250.168	17.93
250.384	16.98
250.6	18.52
250.816	20.39
251.032	23.25
251.248	22.26
251.464	22.45
251.68	21.31
251.896	20.5
252.112	19.1
252.328	17.94
252.544	17.55
252.76	18.88
252.976	18.31
253.192	18.67
253.408	16.36
253.624	18.34
253.84	15.97
254.056	15.02
254.272	14.5
254.487	13.93
254.703	13.42
254.919	8.34
255.135	3.46
255.351	5.27
255.567	1.18
255.782	5.73
255.998	4.39
256.214	9.83
256.43	10.53
256.646	11.58
256.861	11.09
257.077	11.59
257.293	19.27
257.508	18.58
257.724	17.98
257.94	18.46
258.155	15.22
258.371	15.66
258.587	14.32
258.802	12.91
259.018	12.07
259.234	12.71
259.449	12.88
259.665	10.55
259.88	11.55
260.096	11.05
260.312	10.33
260.527	10.58
260.743	10.21
260.958	10.22
261.174	11.47
261.389	11.97
261.605	11.48
261.82	10.9
262.036	10.29
262.251	8.84
262.466	9
262.682	8.52
262.897	7.62
263.113	7.04
263.328	5.27
263.543	1.31
263.759	2.47
263.974	-0.01
264.189	-1.05
264.405	-1.72
264.62	2.18
264.835	1.21
265.051	1.29
265.266	5.46
265.481	5.87
265.696	6.92
265.912	8.34
266.127	5.81
266.342	8.21
266.557	8.42
266.773	10.44
266.988	7.25
267.203	6.68
267.418	7.59
267.633	6.15
267.848	6.56
268.064	6.8
268.279	7.15
268.494	8.92
268.709	8.02
268.924	8.58
269.139	9.58
269.354	12.37
269.569	12.45
269.784	12.61
269.999	12.41
270.214	11.44
270.429	13.68
270.644	14.13
270.859	14.07
271.074	14.25
271.289	14.29
271.504	12.88
271.719	10.71
271.934	10.91
272.149	10.18
272.363	9.56
272.578	8.64
272.793	6.81
273.008	6.6
273.223	5.56
273.438	5.38
273.653	5.84
273.867	5.61
274.082	6.66
274.297	6.49
274.512	7.61
274.726	7.62
274.941	9.27
275.156	9.31
275.371	9.47
275.585	9.83
275.8	10.33
276.015	10.08
276.229	10.09
276.444	9.95
276.659	11.53
276.873	11.33
277.088	12.4
277.302	11.91
277.517	11.86
277.732	11.84
277.946	12.17
278.161	11.37
278.375	9
278.59	8.44
278.804	7.07
279.019	5.41
279.233	5.65
279.448	4.39
279.662	5.64
279.877	6.11
280.091	6.16
280.306	6.67
280.52	8.52
280.735	9.58
280.949	10.15
281.163	11.36
281.378	11.43
281.592	10.08
281.806	10.34
282.021	10.1
282.235	9.98
282.449	10.04
282.664	9.37
282.878	8.43
283.092	9.84
283.307	10.24
283.521	11.08
283.735	11.21
283.949	11.11
284.164	11.56
284.378	11.31
284.592	11.6
284.806	11.44
285.02	11.55
285.234	11.62
285.449	10.59
285.663	9.46
285.877	8.29
286.091	7.95
286.305	9.52
286.519	10.35
286.733	10.19
286.947	9.46
287.161	9.57
287.375	8.88
287.589	8.57
287.803	8.77
288.017	9.18
288.231	9.2
288.445	8.94
288.659	7.17
288.873	5.89
289.087	6.16
289.301	6.84
289.515	7.7
289.729	8.22
289.943	8.3
290.157	10.02
290.371	12.05
290.584	11.79
290.798	12.25
291.012	12.93
291.226	12.37
291.44	11.5
291.654	10.43
291.867	9.17
292.081	9.6
292.295	10.74
292.509	9.39
292.722	9.29
292.936	9.96
293.15	10.82
293.364	10.35
293.577	10.05
293.791	13
294.005	14.73
294.218	15.83
294.432	16.78
294.645	16.65
294.859	15.85
295.073	15.76
295.286	16.11
295.5	14.13
295.713	13.71
295.927	14.26
296.14	12.33
296.354	11.38
296.568	10.19
296.781	9.27
296.994	8.67
297.208	8.83
297.421	7.64
297.635	7.66
297.848	8.78
298.062	9.44
298.275	8.81
298.489	9.12
298.702	9.81
298.915	9.69
299.129	10.49
299.342	10.57
299.555	10.32
299.769	10.71
299.982	9.43
300.195	9.59
300.409	8.86
300.622	9.49
300.835	9.09
301.048	9.61
301.262	12.03
301.475	10.19
301.688	7.81
301.901	8.68
302.115	10.06
302.328	11.16
302.541	10.42
302.754	11.17
302.967	11.71
303.18	12.59
303.393	11.16
303.607	9.8
303.82	9.14
304.033	10.81
304.246	10.21
304.459	8.38
304.672	8.73
304.885	9.03
305.098	9.06
305.311	8.68
305.524	7.44
305.737	7.07
305.95	5.96
306.163	8.21
306.376	8.38
306.589	8.53
306.802	7.56
307.015	6.12
307.228	7.75
307.44	8.39
307.653	10.15
307.866	10.65
308.079	10.47
308.292	11.11
308.505	10.54
308.718	12.44
308.93	14.35
309.143	14.8
309.356	14.44
309.569	13.36
309.781	13.28
309.994	12.03
310.207	11.95
310.42	12.71
310.632	11.94
310.845	11.77
311.058	10.31
311.27	9.21
311.483	10.01
311.696	11.15
311.908	11.66
312.121	9.99
312.333	9.16
312.546	8.45
312.759	8.97
312.971	9.69
313.184	9.98
313.396	9.78
313.609	8.73
313.821	7.55
314.034	9.32
314.246	8.75
314.459	10.67
314.671	11.68
314.884	12.42
315.096	11.89
315.309	12.74
315.521	12.12
315.733	10.7
315.946	11.24
316.158	12.99
316.371	10.87
316.583	10.57
316.795	9.34
317.008	10.1
317.22	10.19
317.432	10.8
317.644	9.65
317.857	10.77
318.069	12.36
318.281	11.79
318.494	10.15
318.706	10.23
318.918	7.94
319.13	9.44
319.342	9.13
319.555	8.74
319.767	8.65
319.979	8.43
320.191	7.09
320.403	5.59
320.615	4.51
320.827	5.13
321.039	4.19
321.252	6.67
321.464	6.38
321.676	7.06
321.888	6.79
322.1	4.88
322.312	6.82
322.524	7.8
322.736	9.07
322.948	11.29
323.16	11.82
323.372	12.54
323.584	11.91
323.796	12.07
324.007	12.07
324.219	13.69
324.431	13.8
324.643	12.9
324.855	12.94
325.067	12.21
325.279	12.09
325.491	12.25
325.702	11.73
325.914	12.68
326.126	12.39
326.338	11.53
326.55	10.85
326.761	12.17
326.973	13.56
327.185	12.91
327.396	15.31
327.608	14.71
327.82	13.61
328.032	13.89
328.243	13.36
328.455	13.8
328.666	15.37
328.878	14.78
329.09	14.9
329.301	13.41
329.513	15.42
329.725	12.48
329.936	12.68
330.148	13.02
330.359	13.04
330.571	13.71
330.782	13.13
330.994	11.92
331.205	13.88
331.417	13.18
331.628	12.69
331.84	10.16
332.051	12.35
332.262	13.39
332.474	13.41
332.685	13.69
332.897	13.56
333.108	15.82
333.319	15.98
333.531	15.01
333.742	15.04
333.953	15.64
334.165	17.61
334.376	18.55
334.587	18.09
334.799	18.49
335.01	18.8
335.221	20.11
335.432	19.02
335.644	19
335.855	19.48
336.066	19.56
336.277	18.98
336.488	17.77
336.7	16.81
336.911	16.13
337.122	16.17
337.333	16.38
337.544	14.93
337.755	14.58
337.966	14.19
338.177	14.01
338.388	14.17
338.599	14.56
338.811	15.56
339.022	15.38
339.233	15.42
339.444	15.88
339.655	15.25
339.866	16.04
340.076	16.55
340.287	16.27
340.498	16.76
340.709	15.4
340.92	15.69
341.131	13.82
341.342	14.06
341.553	13.19
341.764	12.42
341.975	13.04
342.185	13.04
342.396	13.3
342.607	14.78
342.818	14.27
343.029	14.63
343.239	14.92
343.45	16.45
343.661	16.01
343.872	17.8
344.082	18.89
344.293	19.24
344.504	19.44
344.714	18.42
344.925	17.85
345.136	17.63
345.346	18.15
345.557	17.42
345.768	16.9
345.978	16.64
346.189	16.19
346.399	16.17
346.61	15.48
346.821	15.8
347.031	15.88
347.242	15.05
347.452	15.63
347.663	15.11
347.873	15.65
348.084	16.41
348.294	16.71
348.504	17
348.715	17.76
348.925	17.61
349.136	17.2
349.346	18.11
349.557	18.75
349.767	17.83
349.977	18.49
350.188	18.28
350.398	17.73
350.608	18.42
350.819	18.56
351.029	18.34
351.239	18.83
351.449	18.83
351.66	17.79
351.87	18.25
352.08	18.48
352.29	19.01
352.501	18.44
352.711	18.67
352.921	18.32
353.131	18.07
353.341	17.29
353.552	17.33
353.762	17.45
353.972	18.1
354.182	17.29
354.392	17.21
354.602	16.73
354.812	17.26
355.022	16.74
355.232	16.59
355.442	16.46
355.652	15.41
355.862	15.55
356.072	14.1
356.282	14.24
356.492	14.56
356.702	14.36
356.912	14.92
357.122	15.26
357.332	15.5
357.542	15.27
357.752	15.05
357.962	16.77
358.171	15.86
358.381	16.4
358.591	15.61
358.801	16.13
359.011	16.86
359.221	17.01
359.43	16.45
359.64	16.51
359.85	16.77
360.06	17.33
360.269	16.81
360.479	17.77
360.689	17.65
360.899	17.85
361.108	18.14
361.318	18.06
361.528	17.64
361.737	17.95
361.947	17.53
362.156	17.8
362.366	16.98
362.576	16
362.785	16.01
362.995	16.33
363.204	16.52
363.414	15.9
363.623	15.69
363.833	15.47
364.042	15.44
364.252	16.36
364.461	15.98
364.671	16.45
364.88	18.08
365.09	17.13
365.299	18.42
365.509	18.2
365.718	18.64
365.927	18.75
366.137	19.19
366.346	19.1
366.555	18.1
366.765	18.05
366.974	18.38
367.183	18.15
367.393	17.98
367.602	16.32
367.811	16.54
368.021	14.62
368.23	14.78
368.439	14.53
368.648	14.45
368.857	15.08
369.067	14.83
369.276	13.58
369.485	12.37
369.694	12.84
369.903	12.48
370.112	12.11
370.321	13.05
370.531	12.78
370.74	12.46
370.949	12.22
371.158	11.83
371.367	12.44
371.576	13.7
371.785	14.09
371.994	14.3
372.203	15.37
372.412	15.58
372.621	15.2
372.83	15.13
373.039	15.3
373.248	14.97
373.457	16.01
373.666	15.31
373.874	14.3
374.083	14.31
374.292	13.18
374.501	12
374.71	11.1
374.919	11.68
375.128	11.23
375.336	10.42
375.545	11.31
375.754	10.75
375.963	11.02
376.171	11.23
376.38	10.95
376.589	11.73
376.798	12.27
377.006	12.65
377.215	13.08
377.424	13.38
377.632	13.71
377.841	13.48
378.05	12.95
378.258	13.05
378.467	13.17
378.675	12.95
378.884	12.81
379.093	12.07
379.301	11.99
379.51	11.47
379.718	11.12
379.927	10.62
380.135	10.31
380.344	10.91
380.552	10.31
380.761	10.45
380.969	10.45
381.177	10.53
381.386	11.4
381.594	11.8
381.803	11.95
382.011	11.51
382.219	12.3
382.428	11.92
382.636	11.34
382.845	12.07
383.053	11.79
383.261	12.19
383.469	12.3
383.678	11.64
383.886	11.43
384.094	11.78
384.302	12.49
384.511	11.97
384.719	12.32
384.927	12.32
385.135	11.88
385.343	11.63
385.552	11.9
385.76	11.56
385.968	11.35
386.176	11.22
386.384	10.89
386.592	10.66
386.8	10.76
387.008	10.6
387.216	10.53
387.424	10.73
387.633	11.04
387.841	10.63
388.049	10.54
388.257	11.07
388.465	11.2
388.672	10.74
388.88	10.38
389.088	10.3
389.296	10.4
389.504	10.27
389.712	10.18
389.92	9.73
390.128	9.01
390.336	9.05
390.544	8.78
390.751	8.52
390.959	8.52
391.167	8.85
391.375	8.88
391.583	8.81
391.79	9.04
391.998	9.08
392.206	8.93
392.414	9.33
392.621	9.25
392.829	9.16
393.037	9.34
393.244	9.19
393.452	8.93
393.66	8.82
393.867	8.92
394.075	8.8
394.283	8.53
394.49	8.82
394.698	9
394.905	9.2
395.113	9.36
395.32	8.93
395.528	9.31
395.735	9.4
395.943	9.7
396.15	9.38
396.358	9.49
396.565	9.69
396.773	9.7
396.98	9.87
397.188	9.67
397.395	9.5
397.602	9.91
397.81	9.61
398.017	9.34
398.225	9.26
398.432	9.63
398.639	9.35
398.847	9.09
399.054	9.27
399.261	8.98
399.468	8.97
399.676	9.03
399.883	8.79
400.09	8.7
400.297	9.01
400.505	9.01
400.712	8.97
400.919	8.94
401.126	9.08
401.333	8.85
401.54	8.85
401.748	8.87
401.955	8.96
402.162	8.9
402.369	9.21
402.576	9.16
402.783	8.92
402.99	8.91
403.197	9.16
403.404	8.84
403.611	8.63
403.818	8.87
404.025	9
404.232	8.84
404.439	8.88
404.646	9.03
404.853	9.29
405.06	9.21
405.267	8.99
405.474	8.71
405.681	8.53
405.887	8.74
406.094	8.41
406.301	8.21
406.508	8.49
406.715	8.48
406.922	8.41
407.128	8.26
407.335	8.17
407.542	8.07
407.749	8.22
407.955	8.77
408.162	8.76
408.369	9
408.575	8.76
408.782	8.62
408.989	8.63
409.195	8.25
409.402	8.29
409.609	8.41
409.815	8.71
410.022	8.74
410.228	8.61
410.435	8.55
410.642	8.1
410.848	8.63
411.055	8.49
411.261	8.57
411.468	8.49
411.674	8.59
411.881	8.9
412.087	8.58
412.294	8.46
412.5	8.47
412.706	8.43
412.913	8.92
413.119	8.75
413.326	9
413.532	8.78
413.738	8.95
413.945	8.62
414.151	8.49
414.357	8.59
414.564	8.5
414.77	8.47
414.976	8.73
415.182	8.46
415.389	8.51
415.595	8.29
415.801	8.23
416.007	8.21
416.214	8.27
416.42	8.28
416.626	8.54
416.832	8.46
417.038	8.19
417.244	8.37
417.45	8.53
417.657	8.25
417.863	8.3
418.069	8.5
418.275	8.42
418.481	8.27
418.687	8.07
418.893	7.92
419.099	7.99
419.305	8.13
419.511	7.78
419.717	7.68
419.923	7.68
420.129	7.63
420.335	7.72
420.541	7.71
420.746	7.71
420.952	7.73
421.158	7.71
421.364	7.68
421.57	7.64
421.776	7.76
421.982	7.68
422.187	7.86
422.393	7.85
422.599	7.66
422.805	7.71
423.01	7.79
423.216	7.7
423.422	7.61
423.628	7.74
423.833	7.9
424.039	7.82
424.245	7.78
424.45	7.73
424.656	7.64
424.862	7.72
425.067	7.68
425.273	7.53
425.478	7.72
425.684	7.68
425.889	7.46
426.095	7.37
426.301	7.46
426.506	7.51
426.712	7.42
426.917	7.51
427.123	7.4
427.328	7.34
427.533	7.45
427.739	7.38
427.944	7.31
428.15	7.44
428.355	7.26
428.561	7.22
428.766	7.37
428.971	7.59
429.177	7.67
429.382	7.58
429.587	7.62
429.793	7.7
429.998	7.52
430.203	7.68
430.408	7.68
430.614	7.7
430.819	7.6
431.024	7.34
431.229	7.12
431.434	6.91
431.64	6.94
431.845	6.9
432.05	6.91
432.255	6.95
432.46	6.98
432.665	6.8
432.87	6.76
433.076	6.77
433.281	6.92
433.486	6.98
433.691	7.01
433.896	6.99
434.101	7.14
434.306	7.16
434.511	7.23
434.716	7.34
434.921	7.65
435.126	7.89
435.331	7.89
435.535	7.79
435.74	7.78
435.945	8.02
436.15	8.16
436.355	8.3
436.56	8.35
436.765	8.32
436.97	8.19
437.174	7.89
437.379	7.69
437.584	7.66
437.789	7.59
437.993	7.37
438.198	7.14
438.403	7.07
438.608	6.79
438.812	6.41
439.017	6.55
439.222	6.67
439.426	6.8
439.631	6.81
439.836	6.9
440.04	7.11
440.245	7.02
440.45	7.01
440.654	7.02
440.859	7.06
441.063	7.26
441.268	7.18
441.472	7.21
441.677	7.16
441.881	7.22
442.086	7.08
442.29	6.94
442.495	7.05
442.699	7.32
442.904	7.45
443.108	7.41
443.312	7.58
443.517	7.54
443.721	7.59
443.925	7.74
444.13	7.56
444.334	7.56
444.538	7.54
444.743	7.63
444.947	7.38
445.151	7.27
445.356	7.37
445.56	7.21
445.764	7.24
445.968	7.14
446.173	7.05
446.377	7.04
446.581	7.07
446.785	7.18
446.989	7.07
447.193	7.06
447.398	7.1
447.602	7.01
447.806	7.06
448.01	7.05
448.214	7.03
448.418	7.02
448.622	7.23
448.826	7.21
449.03	7.1
449.234	7.09
449.438	7.12
449.642	7.11
449.846	7.06
450.05	7.03
450.254	7.12
450.458	7.1
450.662	7.03
450.866	6.87
451.069	7.01
451.273	7.12
451.477	7.33
451.681	7.39
451.885	7.42
452.089	7.6
452.292	7.66
452.496	7.47
452.7	7.4
452.904	7.48
453.107	7.48
453.311	7.24
453.515	7.19
453.719	7.1
453.922	7.11
454.126	7.11
454.33	7.08
454.533	6.91
454.737	6.96
454.94	7.1
455.144	7.14
455.348	7.24
455.551	7.32
455.755	7.23
455.958	7.45
456.162	7.31
456.365	7.2
456.569	7.25
456.772	7.4
456.976	7.4
457.179	7.25
457.383	7.22
457.586	7.08
457.79	7.07
457.993	7.17
458.196	7.09
458.4	7.07
458.603	7.23
458.807	7.12
459.01	6.92
459.213	7
459.417	6.94
459.62	6.87
459.823	6.94
460.026	6.87
460.23	6.91
460.433	6.82
460.636	6.78
460.839	6.61
461.042	6.56
461.246	6.64
461.449	6.43
461.652	6.67
461.855	6.73
462.058	6.56
462.261	6.65
462.464	6.55
462.668	6.57
462.871	6.68
463.074	6.72
463.277	6.75
463.48	6.88
463.683	7.11
463.886	6.86
464.089	6.63
464.292	6.73
464.495	6.68
464.698	6.66
464.901	6.75
465.104	6.92
465.306	7
465.509	6.83
465.712	6.82
465.915	6.73
466.118	6.78
466.321	7.08
466.524	7.14
466.726	7.19
466.929	7.26
467.132	7.1
467.335	7.03
467.538	7
467.74	7.35
467.943	7.18
468.146	7.19
468.348	7.03
468.551	6.99
468.754	7.05
468.956	7.24
469.159	7.28
469.362	7.43
469.564	7.27
469.767	7.45
469.969	7.27
470.172	7.52
470.375	7.52
470.577	7.65
470.78	7.55
470.982	7.57
471.185	7.18
471.387	7.14
471.59	7.05
471.792	6.97
471.995	6.85
472.197	6.9
472.399	6.69
472.602	6.95
472.804	7.01
473.007	6.96
473.209	7.04
473.411	7.14
473.614	7.17
473.816	7.29
474.018	7.49
474.22	7.45
474.423	7.26
474.625	7.27
474.827	6.95
475.03	6.87
475.232	6.99
475.434	6.91
475.636	7.13
475.838	7.01
476.04	6.8
476.243	6.94
476.445	6.87
476.647	6.93
476.849	7.19
477.051	7.1
477.253	7.11
477.455	7.21
477.657	7.11
477.859	6.94
478.061	6.92
478.263	7
478.465	6.77
478.667	6.57
478.869	6.66
479.071	6.48
479.273	6.58
479.475	6.56
479.677	6.53
479.879	6.59
480.081	6.71
480.283	6.62
480.485	6.7
480.686	6.71
480.888	7.06
481.09	7.05
481.292	7.12
481.494	7.13
481.695	7.1
481.897	7
482.099	6.85
482.301	6.85
482.502	6.89
482.704	6.86
482.906	6.88
483.107	6.78
483.309	6.79
483.511	6.78
483.712	6.78
483.914	6.79
484.115	6.78
484.317	6.82
484.519	6.76
484.72	6.81
484.922	6.78
485.123	6.74
485.325	6.75
485.526	6.72
485.728	6.69
485.929	6.7
486.131	6.63
486.332	6.56
486.534	6.52
486.735	6.56
486.936	6.49
487.138	6.47
487.339	6.56
487.541	6.55
487.742	6.58
487.943	6.58
488.144	6.55
488.346	6.6
488.547	6.71
488.748	6.79
488.95	6.76
489.151	6.78
489.352	6.83
489.553	6.84
489.755	6.85
489.956	6.83
490.157	6.79
490.358	6.82
490.559	6.85
490.76	6.77
490.961	6.77
491.163	6.87
491.364	6.92
491.565	6.95
491.766	6.93
491.967	6.9
492.168	6.85
492.369	6.95
492.57	6.92
492.771	6.96
492.972	6.98
493.173	7
493.374	6.97
493.575	6.92
493.776	6.9
493.976	6.9
494.177	6.93
494.378	7.06
494.579	6.91
494.78	7.02
494.981	7.05
495.182	7.04
495.382	6.96
495.583	6.87
495.784	6.78
495.985	6.79
496.185	6.74
496.386	6.79
496.587	6.83
496.788	6.89
496.988	6.64
497.189	6.62
497.39	6.76
497.59	6.75
497.791	6.79
497.992	6.93
498.192	6.96
498.393	6.91
498.593	6.93
498.794	6.9
498.994	6.94
499.195	7.05
499.395	7.09
499.596	6.99
499.796	7
499.997	7.04
500.197	7
500.398	6.95
500.598	6.92
500.799	6.98
500.999	6.93
501.199	7
501.4	7.1
501.6	7.06
501.801	7.04
502.001	7.08
502.201	6.94
502.402	6.89
502.602	6.91
502.802	7
503.002	6.89
503.203	6.75
503.403	6.71
503.603	6.68
503.803	6.72
504.003	6.9
504.204	7.05
504.404	7.04
504.604	7.07
504.804	7.12
505.004	7.27
505.204	7.44
505.404	7.62
505.604	7.63
505.804	7.65
506.005	7.55
506.205	7.48
506.405	7.33
506.605	7.44
506.805	7.38
507.005	7.3
507.204	7.32
507.404	7.2
507.604	7.08
507.804	7.16
508.004	7.25
508.204	7.31
508.404	7.27
508.604	7.24
508.804	7.19
509.003	7.21
509.203	7.11
509.403	7.03
509.603	7.06
509.803	7.35
510.002	7.41
510.202	7.3
510.402	7.31
510.602	7.26
510.801	7.32
511.001	7.56
511.201	7.7
511.4	7.87
511.6	7.86
511.8	7.77
511.999	7.63
512.199	7.45
512.398	7.55
512.598	7.58
512.797	7.69
512.997	7.81
513.197	7.74
513.396	7.71
513.596	7.76
513.795	7.82
513.994	8
514.194	8.09
514.393	8.13
514.593	8.13
514.792	8.13
514.992	8.06
515.191	8.14
515.39	8.17
515.59	8.12
515.789	7.97
515.988	7.96
516.188	7.9
516.387	7.8
516.586	7.83
516.786	7.76
516.985	7.66
517.184	7.64
517.383	7.5
517.582	7.54
517.782	7.64
517.981	7.62
518.18	7.58
518.379	7.62
518.578	7.82
518.777	7.89
518.976	7.95
519.176	8.08
519.375	8.25
519.574	8.29
519.773	8.28
519.972	8.23
520.171	8.41
520.37	8.55
520.569	8.63
520.768	8.44
520.967	8.51
521.166	8.48
521.365	8.43
521.564	8.28
521.762	8.33
521.961	8.32
522.16	8.51
522.359	8.49
522.558	8.54
522.757	8.35
522.956	8.4
523.154	8.26
523.353	8.19
523.552	8.18
523.751	8.14
523.949	8.17
524.148	8.17
524.347	8.13
524.546	8.14
524.744	8.16
524.943	8.23
525.142	8.24
525.34	8.26
525.539	8.49
525.737	8.48
525.936	8.58
526.135	8.52
526.333	8.6
526.532	8.65
526.73	8.72
526.929	8.65
527.127	8.74
527.326	8.8
527.524	8.82
527.723	8.77
527.921	8.91
528.12	8.99
528.318	9.06
528.516	9.02
528.715	9.02
528.913	9.03
529.112	9.05
529.31	9.03
529.508	9.03
529.707	9.11
529.905	9.21
530.103	9.19
530.301	9.2
530.5	9.1
530.698	9.12
530.896	9.08
531.094	9.03
531.293	9.13
531.491	9.19
531.689	9.23
531.887	9.21
532.085	9.18
532.283	9.2
532.481	9.26
532.68	9.43
532.878	9.51
533.076	9.54
533.274	9.68
533.472	9.66
533.67	9.63
533.868	9.58
534.066	9.56
534.264	9.57
534.462	9.59
534.66	9.51
534.858	9.5
535.056	9.48
535.253	9.53
535.451	9.39
535.649	9.38
535.847	9.46
536.045	9.51
536.243	9.55
536.441	9.57
536.638	9.62
536.836	9.65
537.034	9.61
537.232	9.58
537.43	9.61
537.627	9.72
537.825	9.69
538.023	9.71
538.22	9.86
538.418	9.86
538.616	9.87
538.813	9.84
539.011	9.92
539.209	10.1
539.406	10.3
539.604	10.49
539.801	10.37
539.999	10.42
540.196	10.46
540.394	10.4
540.591	10.46
540.789	10.45
540.986	10.46
541.184	10.4
541.381	10.32
541.579	10.27
541.776	10.33
541.974	10.44
542.171	10.46
542.368	10.47
542.566	10.57
542.763	10.61
542.96	10.67
543.158	10.7
543.355	10.8
543.552	10.83
543.75	10.84
543.947	10.81
544.144	10.89
544.341	10.97
544.539	10.97
544.736	10.93
544.933	10.99
545.13	10.92
545.327	10.99
545.524	11.08
545.722	11.2
545.919	11.24
546.116	11.21
546.313	11.15
546.51	11.15
546.707	11.25
546.904	11.41
547.101	11.28
547.298	11.33
547.495	11.28
547.692	11.11
547.889	11.05
548.086	11.18
548.283	11.31
548.48	11.43
548.677	11.62
548.874	11.7
549.07	11.61
549.267	11.8
549.464	11.86
549.661	11.85
549.858	11.98
550.055	12.27
550.251	12.37
550.448	12.3
550.645	12.21
550.842	11.98
551.038	12.02
551.235	12.07
551.432	12.12
551.628	12.28
551.825	12.39
552.022	12.38
552.218	12.36
552.415	12.27
552.612	12.27
552.808	12.32
553.005	12.73
553.201	12.54
553.398	12.61
553.594	12.77
553.791	12.86
553.987	13.1
554.184	13.24
554.38	13.29
554.577	13.43
554.773	13.4
554.97	13.44
555.166	13.26
555.362	13.49
555.559	13.74
555.755	13.59
555.952	13.55
556.148	13.57
556.344	13.64
556.541	13.77
556.737	13.87
556.933	13.92
557.129	14.18
557.326	13.88
557.522	14.03
557.718	13.74
557.914	14.05
558.11	14.05
558.307	14.05
558.503	14.14
558.699	13.98
558.895	14.07
559.091	14.09
559.287	14.01
559.483	14.34
559.679	14.44
559.876	14.52
560.072	14.32
560.268	14.42
560.464	14.45
560.66	14.48
560.856	14.64
561.052	14.58
561.247	14.91
561.443	14.78
561.639	15
561.835	14.93
562.031	15.09
562.227	15.29
562.423	15.17
562.619	15.25
562.815	15.21
563.01	15.16
563.206	15.34
563.402	15.34
563.598	15.48
563.793	15.34
563.989	15.14
564.185	15.2
564.381	15.41
564.576	15.79
564.772	15.77
564.968	15.9
565.163	16.2
565.359	16.12
565.555	16.12
565.75	16.14
565.946	16.24
566.141	16.52
566.337	16.53
566.532	16.47
566.728	16.48
566.923	16.28
567.119	16.36
567.314	16.31
567.51	16.35
567.705	16.44
567.901	16.58
568.096	16.53
568.292	16.49
568.487	16.72
568.682	16.87
568.878	16.77
569.073	17.18
569.268	17.24
569.464	17.16
569.659	17.3
569.854	17.21
570.05	17.11
570.245	17.46
570.44	17.65
570.635	17.45
570.831	17.4
571.026	17.61
571.221	17.57
571.416	17.61
571.611	17.74
571.806	17.67
572.002	17.75
572.197	17.92
572.392	17.72
572.587	17.61
572.782	17.86
572.977	17.86
573.172	17.81
573.367	17.91
573.562	17.94
573.757	17.94
573.952	18.03
574.147	18.08
574.342	18.21
574.537	18.25
574.732	18.27
574.927	18.08
575.121	17.96
575.316	17.95
575.511	17.9
575.706	17.93
575.901	18.14
576.096	18.34
576.29	18.34
576.485	18.26
576.68	18.49
576.875	18.87
577.069	18.95
577.264	19.17
577.459	19.27
577.654	19.29
577.848	19.35
578.043	19.34
578.238	19.21
578.432	19.37
578.627	19.34
578.821	19.26
579.016	19.03
579.21	19.14
579.405	19.06
579.6	19.11
579.794	19.54
579.989	19.74
580.183	19.75
580.378	19.83
580.572	19.81
580.766	19.86
580.961	19.68
581.155	19.89
581.35	19.86
581.544	19.9
581.738	20.07
581.933	20.12
582.127	20.27
582.321	19.97
582.516	20.06
582.71	19.96
582.904	20.14
583.099	20.31
583.293	20.17
583.487	20.53
583.681	20.66
583.875	20.41
584.07	20.15
584.264	19.76
584.458	19.99
584.652	19.8
584.846	19.92
585.04	19.96
585.234	19.76
585.428	19.63
585.623	19.52
585.817	19.56
586.011	19.66
586.205	19.51
586.399	19.67
586.593	19.76
586.787	19.77
586.981	19.69
587.174	19.91
587.368	20.37
587.562	20.6
587.756	20.8
587.95	20.95
588.144	21
588.338	21.25
588.532	21.3
588.725	21.18
588.919	21.37
589.113	21.76
589.307	21.46
589.501	21.41
589.694	21.3
589.888	21.03
590.082	20.89
590.275	20.94
590.469	20.88
590.663	21.08
590.856	21.29
591.05	21.14
591.244	20.77
591.437	20.65
591.631	20.36
591.824	20.53
592.018	20.72
592.212	20.8
592.405	20.81
592.599	20.59
592.792	20.58
592.986	20.46
593.179	20.54
593.372	20.78
593.566	21.05
593.759	21.16
593.953	21.23
594.146	21.12
594.339	21.23
594.533	21.16
594.726	21.55
594.92	21.41
595.113	21.55
595.306	21.52
595.499	21.55
595.693	21.54
595.886	21.69
596.079	21.67
596.272	21.63
596.466	21.46
596.659	21.66
596.852	21.36
597.045	21.47
597.238	21.32
597.431	21.39
597.624	21.3
597.818	21.57
598.011	21.49
598.204	21.6
598.397	21.75
598.59	21.81
598.783	21.87
598.976	22.05
599.169	22.09
599.362	22.27
599.555	22.19
599.748	22.35
599.941	22
600.134	22.23
600.326	22.24
600.519	22.01
600.712	22.25
600.905	22.34
601.098	22.34
601.291	22.24
601.483	22.2
601.676	22.43
601.869	22.29
602.062	22.28
602.255	22.28
602.447	22.11
602.64	22.23
602.833	21.97
603.025	21.79
603.218	22.12
603.411	22.09
603.603	22.18
603.796	22.26
603.989	22.51
604.181	22.66
604.374	22.63
604.566	22.5
604.759	22.58
604.951	22.52
605.144	22.65
605.336	22.57
605.529	22.64
605.721	22.47
605.914	22.43
606.106	22.48
606.299	22.49
606.491	22.53
606.683	22.93
606.876	23.06
607.068	23.27
607.26	23.12
607.453	23.15
607.645	23.42
607.837	23.48
608.03	23.57
608.222	23.43
608.414	23.18
608.606	23.08
608.799	22.77
608.991	22.58
609.183	22.58
609.375	22.7
609.567	22.9
609.759	22.85
609.952	22.96
610.144	22.88
610.336	22.59
610.528	22.91
610.72	22.98
610.912	23.08
611.104	22.99
611.296	22.99
611.488	22.7
611.68	22.25
611.872	22.09
612.064	22.18
612.256	22.1
612.448	22.2
612.64	21.97
612.832	22.16
613.023	22.16
613.215	22.27
613.407	22.25
613.599	22.7
613.791	23.07
613.983	23.34
614.174	23.15
614.366	23.08
614.558	23.37
614.75	23.11
614.941	23.07
615.133	23.27
615.325	23.47
615.516	23.32
615.708	23.25
615.9	23.13
616.091	22.62
616.283	22.64
616.475	22.78
616.666	22.95
616.858	23.09
617.049	22.72
617.241	22.58
617.432	22.47
617.624	23.02
617.815	22.97
618.007	22.81
618.198	22.84
618.39	23.02
618.581	23.16
618.773	22.81
618.964	22.82
619.155	23.09
619.347	23.02
619.538	22.92
619.729	22.78
619.921	22.47
620.112	22.44
620.303	22.58
620.494	22.32
620.686	22.74
620.877	22.78
621.068	22.95
621.259	22.84
621.451	22.98
621.642	23.04
621.833	23.42
622.024	23.67
622.215	23.85
622.406	24.01
622.597	24.37
622.788	23.96
622.98	23.91
623.171	24.27
623.362	24.42
623.553	24.47
623.744	24.56
623.935	24.24
624.126	24.57
624.317	24.49
624.508	24.71
624.698	24.51
624.889	24.3
625.08	24.27
625.271	23.95
625.462	23.82
625.653	23.64
625.844	23.66
626.034	23.77
626.225	23.54
626.416	23.75
626.607	23.44
626.798	23.6
626.988	23.67
627.179	23.83
627.37	23.7
627.56	23.85
627.751	24.13
627.942	24.37
628.132	24.21
628.323	24.33
628.514	24.4
628.704	24.57
628.895	24.56
629.085	24.82
629.276	24.47
629.466	24.84
629.657	24.81
629.847	24.7
630.038	24.63
630.228	24.42
630.419	24.5
630.609	24.17
630.8	24.19
630.99	24.12
631.181	24
631.371	24.58
631.561	24.47
631.752	24.28
631.942	24.02
632.132	24.14
632.323	24.52
632.513	24.35
632.703	24.81
632.893	24.83
633.084	24.68
633.274	24.58
633.464	24.41
633.654	24.47
633.844	24.65
634.034	24.63
634.225	24.24
634.415	24.18
634.605	24.16
634.795	23.78
634.985	23.81
635.175	24.07
635.365	24.16
635.555	24.2
635.745	24.21
635.935	23.95
636.125	24.17
636.315	24.42
636.505	24.42
636.695	24.6
636.885	24.94
637.075	24.48
637.265	24.58
637.455	24.55
637.644	24.26
637.834	24.16
638.024	24.42
638.214	24.77
638.404	24.88
638.593	25.04
638.783	25.07
638.973	24.76
639.163	25.14
639.352	25.3
639.542	25.35
639.732	25.59
639.921	25.32
640.111	25.52
640.301	25.6
640.49	25.39
640.68	25.22
640.87	24.94
641.059	25.13
641.249	25.21
641.438	24.79
641.628	25.08
641.817	25.41
642.007	25.78
642.196	25.54
642.386	25.13
642.575	25.05
642.764	24.95
642.954	25.36
643.143	25.15
643.333	24.94
643.522	25.13
643.711	24.79
643.901	24.39
644.09	24.37
644.279	24.63
644.469	24.63
644.658	24.5
644.847	24.88
645.036	24.92
645.226	25.18
645.415	25.2
645.604	25.01
645.793	24.97
645.982	25.5
646.171	25.31
646.361	25.19
646.55	25.21
646.739	25.46
646.928	25.24
647.117	24.82
647.306	24.57
647.495	24.8
647.684	25.33
647.873	24.78
648.062	24.49
648.251	24.67
648.44	24.45
648.629	24.35
648.818	24.4
649.007	24.59
649.196	24.92
649.384	24.94
649.573	25.15
649.762	24.86
649.951	25.82
650.14	25.85
650.328	25.71
650.517	26.19
650.706	26.38
650.895	26.57
651.083	26.31
651.272	26.16
651.461	26.41
651.65	26.27
651.838	25.4
652.027	25.29
652.216	25.29
652.404	25.59
652.593	25.33
652.781	25.22
652.97	25.05
653.158	25.08
653.347	25.03
653.535	24.98
653.724	24.71
653.912	25.59
654.101	25.68
654.289	26.3
654.478	26.25
654.666	26.04
654.855	26.32
655.043	26.31
655.231	26.52
655.42	26.69
655.608	26.84
655.796	27.31
655.985	27.45
656.173	27.03
656.361	26.33
656.55	26.31
656.738	26.63
656.926	26.08
657.114	26.05
657.302	26.22
657.491	26
657.679	25.77
657.867	25.65
658.055	25.54
658.243	25.97
658.431	26.04
658.619	25.9
658.807	25.89
658.996	26.11
659.184	26.23
659.372	26.06
659.56	26.51
659.748	26.79
659.936	26.66
660.124	26.61
660.311	26.3
660.499	26.1
660.687	26.19
660.875	26.17
661.063	26.4
661.251	26.22
661.439	25.93
661.627	25.49
661.814	24.93
662.002	24.99
662.19	25.16
662.378	25.16
662.565	25.16
662.753	25.22
662.941	25.19
663.129	25.04
663.316	25.35
663.504	25.37
663.692	25.45
663.879	25.7
664.067	25.76
664.254	25.85
664.442	26.24
664.63	27.08
664.817	27.16
665.005	27.6
665.192	27.15
665.38	27.18
665.567	26.99
665.755	27.06
665.942	27.19
666.13	27.66
666.317	27.48
666.504	27.43
666.692	26.83
666.879	26.78
667.067	25.75
667.254	26.52
667.441	26.15
667.629	26.89
667.816	26.91
668.003	26.49
668.19	26.46
668.378	26.51
668.565	26.47
668.752	26.52
668.939	26.83
669.127	27.96
669.314	27.49
669.501	27.31
669.688	26.83
669.875	26.93
670.062	27.31
670.249	27.13
670.436	27.2
670.623	27.35
670.81	27.39
670.997	27.02
671.184	26.82
671.371	27.49
671.558	27.87
671.745	28.41
671.932	28.4
672.119	28.74
672.306	28.48
672.493	28.32
672.68	28.37
672.867	28.34
673.054	28.38
673.24	28.46
673.427	28.17
673.614	27.87
673.801	27.79
673.988	27.77
674.174	27.91
674.361	28.11
674.548	27.75
674.734	27.75
674.921	27.97
675.108	28.07
675.294	27.81
675.481	27.71
675.668	27.98
675.854	27.82
676.041	27.92
676.227	27.57
676.414	27.58
676.601	27.8
676.787	28
676.974	27.53
677.16	27.49
677.347	27.52
677.533	27.99
677.719	27.99
677.906	28
678.092	28.19
678.279	28.33
678.465	28.59
678.651	28.94
678.838	28.51
679.024	28.96
679.21	29.18
679.397	28.63
679.583	28.55
679.769	28.76
679.955	28.86
680.142	28.8
680.328	28.8
680.514	28.82
680.7	28.68
680.886	28.8
681.073	28.3
681.259	28.04
681.445	28.64
681.631	28.45
681.817	28.3
682.003	28.05
682.189	28.15
682.375	28.18
682.561	27.62
682.747	27.89
682.933	27.55
683.119	28.09
683.305	27.91
683.491	28.13
683.677	28.11
683.863	27.89
684.049	28.09
684.235	28.07
684.42	27.76
684.606	27.95
684.792	27.48
684.978	28
685.164	27.82
685.349	27.81
685.535	27.56
685.721	27.56
685.907	27.93
686.092	27.99
686.278	27.61
686.464	27.68
686.649	27.71
686.835	27.78
687.021	27.44
687.206	27.85
687.392	27.7
687.577	27.58
687.763	27.27
687.948	27.16
688.134	27.01
688.319	27.43
688.505	28.11
688.69	28.11
688.876	28.28
689.061	27.97
689.247	28.07
689.432	28.88
689.618	28.84
689.803	29.32
689.988	28.95
690.174	29.13
690.359	29.08
690.544	28.04
690.73	28
690.915	28.08
691.1	28.55
691.285	28.29
691.471	27.41
691.656	27.41
691.841	26.64
692.026	26.94
692.211	26.62
692.396	26.09
692.582	26.55
692.767	26.24
692.952	25.83
693.137	25.62
693.322	26.04
693.507	26.89
693.692	27.04
693.877	27.42
694.062	27.66
694.247	27.99
694.432	28.33
694.617	28.63
694.802	29.09
694.987	29.61
695.172	30.08
695.357	29.89
695.541	29.68
695.726	28.98
695.911	28.81
696.096	28.94
696.281	29.61
696.466	29.21
696.65	28.92
696.835	29.18
697.02	28.84
697.204	28.87
697.389	28.72
697.574	28.86
697.759	29.25
697.943	29.67
698.128	29.64
698.312	29.27
698.497	29.49
698.682	29.76
698.866	29.3
699.051	28.84
699.235	28.62
699.42	28.76
699.604	28.76
699.789	28.74
699.973	28.19
700.158	28.11
700.342	28.08
700.527	28.54
700.711	28.2
700.895	28.46
701.08	29.21
701.264	29.26
701.448	28.46
701.633	28.37
701.817	28.68
702.001	29.15
702.186	28.43
702.37	28.25
702.554	27.79
702.738	28.1
702.923	27.85
703.107	27.93
703.291	27.76
703.475	28.44
703.659	27.49
703.843	27.12
704.027	27.42
704.212	28.03
704.396	28.06
704.58	27.88
704.764	27.71
704.948	27.04
705.132	27.24
705.316	27.11
705.5	27.23
705.684	27.5
705.868	27.67
706.052	26.83
706.235	26.38
706.419	26.02
706.603	26.2
706.787	27.17
706.971	28.01
707.155	27.77
707.339	28.61
707.522	28.77
707.706	29.61
707.89	29.39
708.074	29.69
708.257	31.11
708.441	31.11
708.625	30.83
708.808	29.66
708.992	29.73
709.176	29.75
709.359	28.97
709.543	28.84
709.727	27.84
709.91	28.83
710.094	29.59
710.277	29.17
710.461	29.78
710.644	30.2
710.828	30.11
711.011	29.81
711.195	30.41
711.378	30.44
711.562	30.46
711.745	30.7
711.928	29.84
712.112	29.87
712.295	28.92
712.478	28.51
712.662	28.68
712.845	28.92
713.028	29.42
713.212	28.53
713.395	28.76
713.578	28.79
713.761	29.22
713.945	29.82
714.128	29.47
714.311	29.55
714.494	29.39
714.677	28.41
714.86	29.01
715.043	30.26
715.227	30.73
715.41	30.51
715.593	30.74
715.776	30.44
715.959	30.16
716.142	30.17
716.325	30.15
716.508	30.44
716.691	31.22
716.874	31.24
717.057	30.26
717.239	29.99
717.422	30.27
717.605	30.27
717.788	30.03
717.971	30.22
718.154	30.15
718.337	31.1
718.519	31.37
718.702	30.72
718.885	30.22
719.068	29.76
719.25	28.64
719.433	29.01
719.616	28.81
719.798	29.16
719.981	28.53
720.164	29.24
720.346	29.05
720.529	29.81
720.712	30.27
720.894	29.91
721.077	29.36
721.259	30.09
721.442	30.59
721.624	29.61
721.807	29.62
721.989	29
722.172	28.31
722.354	27.1
722.537	25.67
722.719	26.57
722.901	26.1
723.084	26.53
723.266	27.93
723.448	26.94
723.631	28.19
723.813	28.6
723.995	30.08
724.178	30.21
724.36	31.29
724.542	31.02
724.724	29.77
724.907	30.88
725.089	31.13
725.271	29.96
725.453	30.24
725.635	30.19
725.817	30.2
725.999	30.43
726.181	29.42
726.364	30.16
726.546	30.37
726.728	30.69
726.91	30.21
727.092	31.18
727.274	31.97
727.456	31.91
727.638	31.8
727.819	32.86
728.001	32.33
728.183	33.61
728.365	33.49
728.547	34.18
728.729	34.14
728.911	34.56
729.093	34.11
729.274	34
729.456	33.56
729.638	33.05
729.82	32.3
730.001	31.75
730.183	31.5
730.365	30.74
730.546	30.36
730.728	30.42
730.91	31.15
731.091	30.16
731.273	29.15
731.455	29.28
731.636	29.29
731.818	28.81
731.999	29.53
732.181	29.18
732.362	29.61
732.544	29.86
732.725	29.31
732.907	29.73
733.088	30.2
733.27	30.73
733.451	31.55
733.633	32.86
733.814	33.74
733.995	33.55
734.177	34.57
734.358	35.15
734.539	35.28
734.721	35.98
734.902	34
735.083	33.23
735.264	33.48
735.446	33.56
735.627	33.12
735.808	32.58
735.989	32.85
736.17	32.58
736.351	31.94
736.533	32.09
736.714	32.61
736.895	33.34
737.076	34.6
737.257	33.59
737.438	33.05
737.619	32.37
737.8	32.12
737.981	31.85
738.162	30.23
738.343	29.99
738.524	29.94
738.705	28.89
738.886	28.46
739.067	27.95
739.247	29
739.428	29.11
739.609	28.22
739.79	27.75
739.971	27.9
740.151	28.71
740.332	28.29
740.513	28.24
740.694	28.93
740.874	29.03
741.055	29.27
741.236	29.51
741.417	30.32
741.597	31.62
741.778	31.34
741.958	30.29
742.139	30.59
742.32	30.7
742.5	30.6
742.681	30.56
742.861	30.71
743.042	30.03
743.222	30.35
743.403	30.28
743.583	30.08
743.764	31.53
743.944	31.74
744.124	30.7
744.305	31.73
744.485	32.27
744.666	33.44
744.846	33.31
745.026	35.31
745.207	34.07
745.387	32.64
745.567	32.69
745.747	32.08
745.928	31.94
746.108	32.94
746.288	32.76
746.468	31.42
746.648	30.11
746.829	29.79
747.009	27.46
747.189	27.99
747.369	28
747.549	29.56
747.729	30.33
747.909	30.72
748.089	30.45
748.269	32.08
748.449	32.76
748.629	33.43
748.809	34.23
748.989	35.54
749.169	34.9
749.349	35.07
749.529	33.14
749.709	32.89
749.889	32.89
750.068	32.79
750.248	31.48
750.428	31.16
750.608	30.73
750.788	30.84
750.967	30.3
751.147	30.91
751.327	30.9
751.507	32.02
751.686	32.33
751.866	31.79
752.046	32.3
752.225	31.69
752.405	32.25
752.585	32.06
752.764	32.36
752.944	33.49
753.123	33.58
753.303	33.99
753.482	33.08
753.662	32.56
753.841	33.61
754.021	32.96
754.2	34.31
754.38	33.39
754.559	33.75
754.739	34.69
754.918	32.14
755.097	32.2
755.277	30.71
755.456	31.81
755.635	32.12
755.815	31
755.994	30.77
756.173	30.39
756.352	30.9
756.532	30.49
756.711	29.22
756.89	30.54
757.069	31.15
757.248	31.56
757.427	30.81
757.607	31.69
757.786	33.43
757.965	34.63
758.144	34.47
758.323	34.52
758.502	35.11
758.681	34.42
758.86	34.46
759.039	34.77
759.218	35.71
759.397	35.48
759.576	34.65
759.755	33.43
759.934	32.2
760.113	31.37
760.291	33.05
760.47	31.62
760.649	32.2
760.828	33.51
761.007	32.47
761.186	32.19
761.364	31.55
761.543	30.67
761.722	30.57
761.901	31.28
762.079	31.92
762.258	29.67
762.437	32.25
762.615	32.33
762.794	31.71
762.972	32.55
763.151	32.89
763.33	33.64
763.508	33.96
763.687	34.64
763.865	33.63
764.044	33.21
764.222	33.66
764.401	32.38
764.579	32.66
764.758	32.68
764.936	32.3
765.114	32.4
765.293	32.66
765.471	32.54
765.65	31.64
765.828	33.26
766.006	33.78
766.184	33.52
766.363	32.22
766.541	32.26
766.719	31.07
766.898	30.14
767.076	29.88
767.254	28.2
767.432	27.91
767.61	28.31
767.788	27.88
767.967	27.53
768.145	28.69
768.323	30.23
768.501	29.15
768.679	30.73
768.857	31.05
769.035	30.32
769.213	30.41
769.391	32.27
769.569	32.92
769.747	33.15
769.925	33.74
770.103	33.98
770.281	34.83
770.459	35.07
770.636	35.26
770.814	33.82
770.992	34.41
771.17	35.38
771.348	35.06
771.525	34.1
771.703	34.47
771.881	31.87
772.059	31.84
772.236	31.44
772.414	32.01
772.592	31.74
772.769	33.86
772.947	34.99
773.125	34.06
773.302	35.42
773.48	34.27
773.657	33.57
773.835	36.26
774.013	35.14
774.19	34.6
774.368	34.98
774.545	33.65
774.723	30.93
774.9	28.44
775.077	28.92
775.255	25.06
775.432	27
775.61	28.21
775.787	25.84
775.964	26.63
776.142	24.06
776.319	23.95
776.496	25.8
776.674	27.71
776.851	30.98
777.028	30.99
777.205	32.63
777.382	34.05
777.56	31.27
777.737	32.69
777.914	34.84
778.091	37.2
778.268	36.37
778.445	34.46
778.622	34.6
778.8	33.29
778.977	33.13
779.154	32.24
779.331	32.22
779.508	33.41
779.685	34.01
779.862	31.12
780.038	33.53
780.215	33.66
780.392	36.11
780.569	37.74
780.746	36.07
780.923	37.59
781.1	36.35
781.277	34.39
781.453	33.62
781.63	36.09
781.807	35.92
781.984	34.12
782.16	35.89
782.337	36.76
782.514	35.75
782.691	38.43
782.867	38.58
783.044	40.76
783.221	41.35
783.397	43.61
783.574	39.79
783.75	40.22
783.927	39.7
784.103	37.4
784.28	36.46
784.456	36.35
784.633	34.55
784.809	34.2
784.986	33.71
785.162	34.25
785.339	34.47
785.515	34.71
785.692	35.6
785.868	36.17
786.044	38.23
786.221	36.43
786.397	37.13
786.573	38.16
786.749	36.54
786.926	38.12
787.102	37.16
787.278	36.91
787.454	39.58
787.631	39.61
787.807	40.06
787.983	39.44
788.159	36.43
788.335	33.53
788.511	32.87
788.687	34.65
788.863	33.43
789.039	34.88
789.216	33.5
789.392	28.4
789.568	25.93
789.744	24.98
789.919	25.32
790.095	29.86
790.271	33.2
790.447	35.12
790.623	32.34
790.799	33.48
790.975	29.7
791.151	29.98
791.327	35.97
791.502	37.8
791.678	37.69
791.854	37.41
792.03	33.28
792.205	28.54
792.381	26.87
792.557	28.81
792.733	26.27
792.908	27.42
793.084	24.29
793.259	18.14
793.435	18.17
793.611	21.14
793.786	20.44
793.962	22.24
794.137	25.56
794.313	22.65
794.488	25.11
794.664	26.62
794.839	30.91
795.015	33.11
795.19	36.61
795.366	35.34
795.541	31.45
795.716	30.41
795.892	31.09
796.067	36.94
796.242	38.96
796.418	37.43
796.593	33.42
796.768	30.02
796.944	31.11
797.119	30.8
797.294	32.27
797.469	34.5
797.644	32.7
797.82	35.65
797.995	30.16
798.17	29.33
798.345	30.22
798.52	33.9
798.695	35.97
798.87	37.81
799.045	36.01
799.22	35.07
799.395	35.63
799.57	38.2
799.745	35.86
799.92	37.37
800.095	37.92
800.27	35.75
800.445	34.7
800.62	32.82
800.795	33.4
800.97	32.97
801.145	34.28
801.319	34.74
801.494	32.74
801.669	33.56
801.844	33.58
802.018	37.12
802.193	37.05
802.368	35.82
802.543	35.83
802.717	34.61
802.892	34.92
803.067	32.66
803.241	29.8
803.416	35.41
803.59	30.51
803.765	31.36
803.94	26.16
804.114	25.44
804.289	28.25
804.463	28.71
804.638	25.6
804.812	27.38
804.986	24.78
805.161	25.86
805.335	23.15
805.51	28.01
805.684	25.58
805.858	25.44
806.033	26.96
806.207	25.16
806.381	27.66
806.556	28.42
806.73	32.65
806.904	34.79
807.078	33.83
807.253	32.48
807.427	27.16
807.601	29.3
807.775	26.35
807.949	28.63
808.123	34.1
808.298	30.37
808.472	32.66
808.646	25.88
808.82	26.53
808.994	26.03
809.168	26.81
809.342	30.32
809.516	27.19
809.69	31.4
809.864	32.86
810.038	28.47
810.212	27.84
810.385	24.81
810.559	26.54
810.733	23.63
810.907	24.05
811.081	27.84
811.255	28.77
811.428	34.92
811.602	37.89
811.776	40.18
811.95	42
812.123	45.88
812.297	44.92
812.471	40.73
812.644	40.4
812.818	39.97
812.992	33.45
813.165	35.93
813.339	35.51
813.512	35.19
813.686	29.13
813.86	31.76
814.033	32.79
814.207	31.58
814.38	31.09
814.554	32.66
814.727	26.4
814.9	31.69
815.074	28.87
815.247	26.97
815.421	23.58
815.594	23.37
815.767	19.06
815.941	16.87
816.114	22.78
816.287	28.12
816.46	22.47
816.634	33.51
816.807	30.88
816.98	29.68
817.153	29
817.327	31.63
817.5	29.21
817.673	31.17
817.846	27.88
818.019	23.58
818.192	28.62
818.365	41.99
818.538	40.49
818.711	40.57
818.884	41.51
819.057	41.57
819.23	42.24
819.403	44.46
819.576	42.69
819.749	48.4
819.922	49.56
820.095	46.29
820.268	43.63
820.441	41.62
820.614	42.91
820.786	43.06
820.959	43.71
821.132	41.66
821.305	40.8
821.477	39.69
821.65	37.69
821.823	37.08
821.996	37.08
822.168	35.38
822.341	35.87
822.514	36.13
822.686	36.12
822.859	34.84
823.031	34.49
823.204	34.86
823.376	35.73
823.549	35.53
823.722	36.11
823.894	35.75
824.067	35.76
824.239	35.79
824.411	34.86
824.584	34.35
824.756	34.24
824.929	34.82
825.101	34.08
825.273	31.55
825.446	30.7
825.618	30.27
825.79	30.97
825.963	32
826.135	32.17
826.307	33.43
826.479	33.41
826.652	35.28
826.824	36.34
826.996	37.33
827.168	39.87
827.34	40
827.512	39.76
827.684	40.46
827.856	39.93
828.029	38.62
828.201	38.63
828.373	38.81
828.545	39.12
828.717	39.07
828.889	37.66
829.061	35.99
829.232	36.8
829.404	36.79
829.576	34.48
829.748	35.14
829.92	36.27
830.092	35.38
830.264	36.96
830.436	35.2
830.607	35.12
830.779	35.27
830.951	36.53
831.123	34.19
831.294	32.52
831.466	35.86
831.638	37.94
831.809	38.44
831.981	39.39
832.153	37.42
832.324	40.58
832.496	39.55
832.667	40.11
832.839	40.85
833.011	44.04
833.182	44.27
833.354	40.45
833.525	37.3
833.697	37.35
833.868	37.22
834.039	38.63
834.211	38.14
834.382	37.48
834.554	36.13
834.725	36.66
834.896	38.5
835.068	39.17
835.239	38.95
835.41	38.92
835.581	39.62
835.753	41.07
835.924	40.83
836.095	36.56
836.266	35.66
836.438	38.69
836.609	38.03
836.78	34.38
836.951	35.96
837.122	36.36
837.293	34.87
837.464	35.83
837.635	35.37
837.806	31.25
837.977	38.42
838.148	39.34
838.319	39.82
838.49	39.34
838.661	39.52
838.832	33.49
839.003	40.13
839.174	43.05
839.345	38.14
839.516	37.24
839.687	39.54
839.857	36.81
840.028	34.94
840.199	37.3
840.37	34.78
840.54	37.2
840.711	35.83
840.882	32.39
841.053	28.4
841.223	38.49
841.394	33.11
841.564	34.74
841.735	31.72
841.906	30.66
842.076	28.75
842.247	28.23
842.417	15.06
842.588	19.69
842.758	29.56
842.929	27.21
843.099	20.17
843.27	30.89
843.44	37.95
843.611	48.21
843.781	58.86
843.951	58.48
844.122	74.31
844.292	90.36
844.462	71.09
844.633	49.25
844.803	60.55
844.973	65.21
845.144	67.72
845.314	54.25
845.484	49.16
845.654	49.96
845.824	49.35
845.995	48.39
846.165	48.18
846.335	69.13
846.505	84.19
846.675	86.98
846.845	68.04
847.015	78.31
847.185	67.3
847.355	76.56
847.525	74.97
847.695	90.65
847.865	66.57
848.035	40.37
848.205	26.27
848.375	33.38
848.545	22.65
848.715	45.82
848.884	29.76
849.054	27.6
849.224	17.71
849.394	26.29
849.564	20.93
849.733	38.17
849.903	48.17
850.073	55.09
850.243	55.85
850.412	60.73
850.582	58.58
850.752	50.8
850.921	63.31
851.091	74.3
851.26	65.11
851.43	67.1
851.599	50.77
851.769	69.89
851.939	66.54
852.108	62.69
852.278	61.87
852.447	62.22
852.616	71.65
852.786	71.76
852.955	64.5
853.125	56.53
853.294	58.14
853.463	52.33
853.633	35.4
853.802	29.37
853.971	31.13
854.141	29.38
854.31	28.47
854.479	25.37
854.648	11.36
854.818	25.84
854.987	40.9
855.156	38.36
855.325	53.09
855.494	46.15
855.663	54.31
855.832	58.41
856.001	59.3
856.171	50.44
856.34	55.41
856.509	70.15
856.678	61.46
856.847	39.18
857.016	40.36
857.185	40.2
857.353	66.65
857.522	45.83
857.691	34.59
857.86	16.67
858.029	20.36
858.198	31.49
858.367	41.71
858.535	50.9
858.704	53.16
858.873	48.92
859.042	45.77
859.21	53.98
859.379	58.63
859.548	71.92
859.717	90.39
859.885	88.08
860.054	89.07
860.222	111.03
860.391	99.5
860.56	124.06
860.728	99.82
860.897	92.96
861.065	91.1
861.234	89.85
861.402	79.33
861.571	94.89
861.739	98.19
861.908	88.32
862.076	72.83
862.244	82.58
862.413	77.47
862.581	94.34
862.749	99.26
862.918	79.3
863.086	78.3
863.254	87.56
863.423	76.66
863.591	69.77
863.759	54.79
863.927	34.23
864.096	25.67
864.264	24.48
864.432	22.79
864.6	12.53
864.768	13.17
864.936	8.64
865.104	1.36
865.272	-11.41
865.44	-7.88
865.608	-5.88
865.776	11.45
865.944	15.26
866.112	-7.93
866.28	6.05
866.448	33.79
866.616	48.08
866.784	67.89
866.952	108.32
867.12	87.76
867.288	87.48
867.455	109.65
867.623	101.88
867.791	88.39
867.959	101.5
868.127	140.88
868.294	177.18
868.462	77.59
868.63	113.53
868.797	56.53
868.965	876.4
869.133	164.11
869.3	147.18
869.468	134.42
869.636	127.26
869.803	104.57
869.971	98.66
870.138	108.18
870.306	168.62
870.473	121.47
870.641	137.45
870.808	143.09
870.975	179.02
871.143	142.59
871.31	146.74
871.478	139.3
871.645	190.49
871.812	331.8
871.98	184.7
872.147	141.42
872.314	160.14
872.482	81.95
872.649	68.08
872.816	69.92
872.983	65.32
873.15	79.39
873.318	78.16
873.485	96.32
873.652	82.41
873.819	93.63
873.986	98.85
874.153	104.2
874.32	119.94
874.487	121.89
874.654	138.68
874.821	122.84
874.988	115.47
875.155	150.24
875.322	127.1
875.489	101.49
875.656	83.15
875.823	82.55
875.99	93.63
876.157	133.66
876.324	146.34
876.49	87.33
876.657	96.81
876.824	86.16
876.991	93.39
877.157	112.7
877.324	144.59
877.491	156.66
877.658	28.8
877.824	50.28
877.991	45.17
878.157	67.34
878.324	85
878.491	127.26
878.657	199.02
878.824	115.7
878.99	149.31
879.157	116.44
879.323	124.25
879.49	172.38
879.656	133.6
879.823	133.22
879.989	116.91
880.156	107.21
880.322	92.12
880.488	108.04
880.655	99.11
880.821	77.64
880.987	77.42
881.154	73.71
881.32	55.64
881.486	67.48
881.652	60.38
881.819	63.12
881.985	55.17
882.151	46.18
882.317	37.7
882.483	37.32
882.649	37.45
882.816	40.58
882.982	40.09
883.148	40.44
883.314	36.95
883.48	35.37
883.646	32.5
883.812	32.87
883.978	36.07
884.144	38.09
884.31	35.82
884.476	33.91
884.642	32.42
884.807	31.84
884.973	29.45
885.139	28.07
885.305	33.79
885.471	31.67
885.637	37.8
885.802	35.3
885.968	33.9
886.134	35.26
886.3	37.8
886.465	38.61
886.631	39.61
886.797	43.85
886.962	50.31
887.128	38.49
887.293	39.13
887.459	30.55
887.625	32.38
887.79	33.5
887.956	40.47
888.121	42.02
888.287	40.92
888.452	38.59
888.618	28.83
888.783	16.51
