Data from 2937840_Reflection_2.txt Node
Date: Wed Jul 15 16:19:57 EDT 2015
User: robert
Spectrometer: USB4E03001
Autoset integration time: false
Trigger mode: 4
Integration Time (sec): 1.000000E-1
Scans to average: 10
Electric dark correction enabled: true
Nonlinearity correction enabled: false
Boxcar width: 5
Stray light correction enabled: false
XAxis mode: Wavelengths
Stop averaging: false
Number of Pixels in Spectrum: 3648
>>>>>Begin Spectral Data<<<<<
177.566	-3.92
177.785	53.76
178.005	-100.3
178.225	-176.71
178.445	-21.98
178.665	142.56
178.885	-70.92
179.105	40.75
179.324	66.15
179.544	-109.37
179.764	319.38
179.984	213.76
180.204	87.72
180.423	41.06
180.643	44.41
180.863	46.03
181.083	36.66
181.302	94.93
181.522	113.23
181.742	170.74
181.961	184.8
182.181	3774.07
182.401	96.1
182.621	8.2
182.84	257.63
183.06	119.93
183.279	47.35
183.499	75.54
183.719	55.8
183.938	58.71
184.158	43.71
184.377	38.35
184.597	47.06
184.816	39.39
185.036	40.66
185.256	48.14
185.475	9.54
185.695	59.83
185.914	35.39
186.134	0.23
186.353	-1013.92
186.572	76.84
186.792	46.38
187.011	43.93
187.231	97.96
187.45	-22.81
187.67	1.53
187.889	9.4
188.108	-13.54
188.328	-27.37
188.547	-65.65
188.766	-186
188.986	-292.1
189.205	452.49
189.424	305.89
189.644	363.29
189.863	268.68
190.082	197.97
190.302	71.06
190.521	-0.67
190.74	-29.41
190.959	2.21
191.178	-785.69
191.398	-142.98
191.617	5759.09
191.836	-2225.81
192.055	214.68
192.274	616.2
192.494	461.61
192.713	539.8
192.932	129.38
193.151	109.74
193.37	85.17
193.589	80.83
193.808	-341.85
194.027	0.25
194.246	-42.12
194.465	-62.98
194.685	3685
194.904	252.48
195.123	-39.58
195.342	344.5
195.561	117.26
195.78	101.21
195.999	76.49
196.218	1081.58
196.436	39.56
196.655	48.23
196.874	3.22
197.093	2859.26
197.312	-339.29
197.531	196.19
197.75	199.02
197.969	189.63
198.188	175.35
198.407	113.39
198.625	104.93
198.844	110.12
199.063	125.68
199.282	112.51
199.501	94.16
199.719	87.62
199.938	79.85
200.157	91.39
200.376	110.97
200.594	129.56
200.813	-327.27
201.032	-33.01
201.251	1.63
201.469	-17.4
201.688	-131.23
201.907	-33.96
202.125	623.95
202.344	-100.24
202.563	-205.83
202.781	-11304
203	-162.22
203.218	-395.26
203.437	-186.53
203.656	-110.42
203.874	-46.88
204.093	-65.76
204.311	-28.06
204.53	11.65
204.748	85.14
204.967	122.58
205.185	2.09
205.404	38.75
205.622	-10.58
205.841	50.29
206.059	40.23
206.278	57.89
206.496	55.37
206.715	55.68
206.933	87.78
207.151	115.22
207.37	67.05
207.588	84.53
207.806	114.71
208.025	155.51
208.243	134.96
208.461	123.7
208.68	143.17
208.898	123.97
209.116	149.17
209.335	118.76
209.553	134.34
209.771	165.03
209.989	179.87
210.208	163.38
210.426	184.92
210.644	154.61
210.862	276.24
211.081	204.76
211.299	114.49
211.517	104.98
211.735	32
211.953	-104.12
212.171	107.7
212.39	33.31
212.608	202.54
212.826	-362.98
213.044	81.91
213.262	-77.88
213.48	-69.73
213.698	587.11
213.916	-89.05
214.134	34.8
214.352	19.04
214.57	-48.22
214.788	211.55
215.006	105.7
215.224	-335.31
215.442	-386.85
215.66	149.11
215.878	172.1
216.096	966.77
216.314	141.19
216.532	99.41
216.75	114.28
216.968	-296.4
217.185	33.48
217.403	-68.37
217.621	689.36
217.839	523.28
218.057	300.89
218.275	-615.53
218.492	-674.56
218.71	-570.59
218.928	-394.07
219.146	-95.34
219.363	-53.82
219.581	-97.8
219.799	10.95
220.017	70.51
220.234	77.87
220.452	54.67
220.67	40.82
220.887	38.2
221.105	31.82
221.323	13.39
221.54	-3.84
221.758	-10.23
221.976	12.4
222.193	-14.47
222.411	-16.24
222.629	-16.32
222.846	-12.79
223.064	40.07
223.281	37.84
223.499	55.71
223.716	76.75
223.934	70.31
224.151	65.51
224.369	66.24
224.586	64.47
224.804	65.96
225.021	43.02
225.239	55.6
225.456	46.09
225.674	60.09
225.891	69
226.108	63.63
226.326	69.38
226.543	61.24
226.76	47.64
226.978	43.03
227.195	35.92
227.413	46.29
227.63	43.03
227.847	41.81
228.064	36.5
228.282	33.68
228.499	29.36
228.716	25.39
228.934	23.3
229.151	23.77
229.368	22.99
229.585	25.14
229.802	21.58
230.02	24.37
230.237	23.33
230.454	24.5
230.671	24.33
230.888	24.78
231.105	23.54
231.323	24.76
231.54	28.59
231.757	28.47
231.974	28.68
232.191	31.87
232.408	26.75
232.625	27.76
232.842	26.3
233.059	24.69
233.276	24.42
233.493	27.01
233.71	36.4
233.927	32.32
234.144	31.26
234.361	26.06
234.578	21.45
234.795	24.47
235.012	26.11
235.229	36.63
235.446	34.47
235.663	35.14
235.879	39.06
236.096	32.22
236.313	31.65
236.53	34.8
236.747	35.98
236.964	41.4
237.181	46.4
237.397	41.75
237.614	31.14
237.831	37.24
238.048	37.39
238.264	34.56
238.481	31.43
238.698	35.29
238.915	34.79
239.131	36.61
239.348	35.82
239.565	30.82
239.781	29.99
239.998	29.61
240.215	27.18
240.431	25.98
240.648	24.86
240.865	24.15
241.081	23.51
241.298	21.79
241.514	21.95
241.731	20.87
241.947	19.93
242.164	19.92
242.38	16.72
242.597	17.1
242.814	17.75
243.03	17.28
243.246	18.99
243.463	17.12
243.679	17.29
243.896	17.65
244.112	16.7
244.329	17.01
244.545	16.78
244.762	19.16
244.978	16.27
245.194	15.03
245.411	14.7
245.627	16.25
245.843	18.5
246.06	18.69
246.276	19.72
246.492	18.74
246.709	18.78
246.925	19.64
247.141	20
247.357	21.23
247.574	21.45
247.79	21.9
248.006	21.29
248.222	21.6
248.439	21.54
248.655	20.16
248.871	21.1
249.087	20.64
249.303	19.87
249.519	20.78
249.736	20.5
249.952	19.97
250.168	18.96
250.384	16.85
250.6	16.37
250.816	15.05
251.032	14.77
251.248	14.01
251.464	13.94
251.68	14.79
251.896	16.63
252.112	12.51
252.328	13.96
252.544	14.65
252.76	16.78
252.976	17.27
253.192	19.47
253.408	20.52
253.624	20.09
253.84	22.72
254.056	23.9
254.272	20.13
254.487	24.93
254.703	25.73
254.919	28.73
255.135	25.92
255.351	24.88
255.567	21.73
255.782	21.53
255.998	23.51
256.214	20.61
256.43	15.16
256.646	14.15
256.861	13.03
257.077	11.4
257.293	10.74
257.508	12.22
257.724	11.37
257.94	13.44
258.155	15.64
258.371	15.32
258.587	14.72
258.802	16.75
259.018	16.96
259.234	17.37
259.449	17.67
259.665	17.94
259.88	18.77
260.096	18.72
260.312	17.7
260.527	16.77
260.743	17.77
260.958	18.25
261.174	18.11
261.389	18.07
261.605	17.78
261.82	17.29
262.036	15.92
262.251	14.87
262.466	15.67
262.682	15.86
262.897	16.88
263.113	14.85
263.328	14.54
263.543	16.18
263.759	17.91
263.974	18.07
264.189	19.01
264.405	20.29
264.62	21.95
264.835	20.53
265.051	20.61
265.266	16.94
265.481	17.17
265.696	16.19
265.912	13.9
266.127	12
266.342	13.57
266.557	11.75
266.773	11.23
266.988	9.64
267.203	8.94
267.418	8.85
267.633	8.2
267.848	8.69
268.064	10.41
268.279	9.73
268.494	12.29
268.709	10.26
268.924	12.45
269.139	13.74
269.354	14.67
269.569	13.25
269.784	14.41
269.999	16.75
270.214	15.74
270.429	15.4
270.644	15.57
270.859	15.4
271.074	14.5
271.289	14.76
271.504	12.66
271.719	12.76
271.934	14.78
272.149	14.4
272.363	13.5
272.578	13.44
272.793	12.58
273.008	13.29
273.223	12.34
273.438	13.25
273.653	12.87
273.867	13.73
274.082	13.25
274.297	13.49
274.512	12.98
274.726	15.63
274.941	15.95
275.156	17.42
275.371	16.78
275.585	16.12
275.8	16.67
276.015	16.67
276.229	17.09
276.444	16.5
276.659	16.08
276.873	16.43
277.088	14.56
277.302	13.26
277.517	13.7
277.732	13.99
277.946	13.66
278.161	13.93
278.375	14.05
278.59	14.59
278.804	15.31
279.019	13.22
279.233	13.41
279.448	13.83
279.662	15.47
279.877	14.63
280.091	14.44
280.306	16.13
280.52	15.16
280.735	14.86
280.949	14.51
281.163	14.04
281.378	16.18
281.592	16.15
281.806	16.23
282.021	15.05
282.235	15.57
282.449	14.67
282.664	13.44
282.878	12.94
283.092	12.31
283.307	11.83
283.521	10.85
283.735	9.57
283.949	9.8
284.164	9.73
284.378	10.9
284.592	8.89
284.806	8.82
285.02	8.98
285.234	9.78
285.449	10.79
285.663	11.38
285.877	11.41
286.091	10.47
286.305	10.28
286.519	10.23
286.733	10.93
286.947	10.78
287.161	11.65
287.375	12.12
287.589	11.5
287.803	9.64
288.017	9.7
288.231	10.64
288.445	12.24
288.659	12.37
288.873	11.7
289.087	11.6
289.301	13.03
289.515	13.63
289.729	13.27
289.943	13.69
290.157	14.22
290.371	14.75
290.584	15.04
290.798	14.38
291.012	14.25
291.226	15.11
291.44	14.21
291.654	14.41
291.867	13.96
292.081	15.02
292.295	16.51
292.509	17.15
292.722	16.34
292.936	16.03
293.15	17.67
293.364	18.71
293.577	17.62
293.791	17.94
294.005	17.75
294.218	16.34
294.432	15.22
294.645	13.85
294.859	14.06
295.073	13.22
295.286	12.38
295.5	10.47
295.713	10.12
295.927	10.9
296.14	11.03
296.354	11.65
296.568	13.26
296.781	13.95
296.994	14.07
297.208	13.93
297.421	14.18
297.635	15.57
297.848	16.35
298.062	16.41
298.275	16.7
298.489	17.44
298.702	16.5
298.915	15.94
299.129	16.48
299.342	16.73
299.555	17.51
299.769	16.97
299.982	16.6
300.195	17.27
300.409	16.53
300.622	16.1
300.835	16.18
301.048	17.18
301.262	16.32
301.475	14.78
301.688	14.53
301.901	12.71
302.115	14.55
302.328	14.18
302.541	12.44
302.754	12.4
302.967	12.02
303.18	11.05
303.393	9.32
303.607	10.43
303.82	11.29
304.033	12.14
304.246	13.09
304.459	12.14
304.672	11.81
304.885	13.54
305.098	13.67
305.311	14.35
305.524	14.18
305.737	16.58
305.95	14.92
306.163	14.87
306.376	13.78
306.589	14.71
306.802	14.11
307.015	15.7
307.228	14.81
307.44	15.93
307.653	15.43
307.866	16.04
308.079	14
308.292	15.87
308.505	15.44
308.718	15.27
308.93	15.16
309.143	15.38
309.356	13.97
309.569	13.53
309.781	11.86
309.994	11.51
310.207	10.51
310.42	12.67
310.632	13.11
310.845	13.9
311.058	13.73
311.27	13.63
311.483	14.3
311.696	15.68
311.908	15.43
312.121	17.26
312.333	16.23
312.546	17.2
312.759	16.86
312.971	15.91
313.184	15.07
313.396	15.09
313.609	14.42
313.821	13.79
314.034	11.63
314.246	12.88
314.459	12.3
314.671	14.85
314.884	14.33
315.096	16.05
315.309	17.38
315.521	16.81
315.733	17.76
315.946	17.69
316.158	16.58
316.371	17.41
316.583	17.4
316.795	16.03
317.008	16.92
317.22	16.56
317.432	14.89
317.644	13.83
317.857	13.41
318.069	11.91
318.281	14.94
318.494	17.88
318.706	18.22
318.918	17.21
319.13	17.62
319.342	18.63
319.555	19.84
319.767	17.39
319.979	19.16
320.191	20.42
320.403	22.17
320.615	19.48
320.827	18.71
321.039	18.25
321.252	18.66
321.464	20.63
321.676	18.08
321.888	18.08
322.1	18.2
322.312	16.73
322.524	16.28
322.736	15.39
322.948	15.29
323.16	14.24
323.372	13.78
323.584	14.74
323.796	12.48
324.007	12.06
324.219	10.32
324.431	10.91
324.643	9.53
324.855	10.17
325.067	11.49
325.279	11.49
325.491	12.97
325.702	12.13
325.914	11.43
326.126	11.1
326.338	11.99
326.55	13.7
326.761	14.76
326.973	16.22
327.185	15.51
327.396	15.15
327.608	15.45
327.82	14.3
328.032	14.11
328.243	14.77
328.455	15.94
328.666	15.01
328.878	15.8
329.09	15.21
329.301	14.17
329.513	14.84
329.725	14.91
329.936	15.64
330.148	16.52
330.359	17.8
330.571	18.57
330.782	19.63
330.994	19.55
331.205	17.13
331.417	16.83
331.628	17.98
331.84	17.51
332.051	16.11
332.262	15.36
332.474	14.83
332.685	15.23
332.897	11.93
333.108	12.39
333.319	12.87
333.531	14.11
333.742	13.58
333.953	14.06
334.165	13.38
334.376	14.83
334.587	15.87
334.799	15.71
335.01	15.55
335.221	17.29
335.432	14.7
335.644	14.31
335.855	12.96
336.066	14.26
336.277	12.47
336.488	14.98
336.7	14.33
336.911	14.02
337.122	15.24
337.333	15.01
337.544	13.44
337.755	15.28
337.966	15.7
338.177	17.7
338.388	17.56
338.599	19.28
338.811	18.66
339.022	17.8
339.233	17.39
339.444	15.19
339.655	16.13
339.866	18.29
340.076	17.64
340.287	18.07
340.498	16.79
340.709	15.17
340.92	13.8
341.131	12.92
341.342	14.45
341.553	14.31
341.764	15.27
341.975	15.13
342.185	14.73
342.396	14.39
342.607	14.88
342.818	15.39
343.029	16.51
343.239	17.52
343.45	17.29
343.661	16.6
343.872	17.29
344.082	17.54
344.293	17.36
344.504	18.11
344.714	18.28
344.925	18.01
345.136	18.07
345.346	18.09
345.557	17.28
345.768	18.45
345.978	17.46
346.189	16.53
346.399	15.64
346.61	15.42
346.821	14.5
347.031	15.46
347.242	15.01
347.452	14.45
347.663	13.37
347.873	13.91
348.084	13.18
348.294	14.48
348.504	15.98
348.715	15.7
348.925	16.4
349.136	15.19
349.346	14.06
349.557	15.24
349.767	14.93
349.977	14.88
350.188	14.12
350.398	13.32
350.608	14.25
350.819	12.53
351.029	13.5
351.239	13.31
351.449	16.13
351.66	16.34
351.87	14.19
352.08	14.52
352.29	14.61
352.501	15.22
352.711	15.8
352.921	14.54
353.131	15.7
353.341	16.2
353.552	15.79
353.762	14.43
353.972	14.22
354.182	14.93
354.392	15.15
354.602	15.56
354.812	16.44
355.022	15.9
355.232	16.29
355.442	15.57
355.652	15.15
355.862	15.13
356.072	14.18
356.282	14.08
356.492	14.34
356.702	15.39
356.912	15.76
357.122	16
357.332	15.44
357.542	14.97
357.752	14.33
357.962	14.05
358.171	14.34
358.381	14.54
358.591	15.58
358.801	15.84
359.011	15.5
359.221	15.69
359.43	13.91
359.64	15.96
359.85	16.04
360.06	16.74
360.269	16.82
360.479	17.07
360.689	17.39
360.899	16.23
361.108	16.53
361.318	15.3
361.528	14.82
361.737	14.52
361.947	13.11
362.156	13.05
362.366	12.85
362.576	13.13
362.785	12.25
362.995	12.03
363.204	11.93
363.414	11.44
363.623	11.39
363.833	11.38
364.042	12.53
364.252	12.05
364.461	11.02
364.671	10.85
364.88	10.41
365.09	11.02
365.299	11.4
365.509	11.92
365.718	11.5
365.927	11.1
366.137	11.16
366.346	9.95
366.555	10.76
366.765	12.6
366.974	12.58
367.183	12.48
367.393	12.78
367.602	12.95
367.811	11.87
368.021	11.94
368.23	12.32
368.439	12.08
368.648	12.55
368.857	11.99
369.067	11.63
369.276	11.35
369.485	11.59
369.694	10.64
369.903	11.47
370.112	13.01
370.321	13.8
370.531	14.48
370.74	14.07
370.949	14.98
371.158	14.72
371.367	14.83
371.576	14.7
371.785	14.59
371.994	14.79
372.203	14.05
372.412	13.61
372.621	12.82
372.83	13.11
373.039	13.21
373.248	12.62
373.457	13.13
373.666	12.39
373.874	12.98
374.083	13.42
374.292	13.3
374.501	12.17
374.71	12.98
374.919	13.01
375.128	12.12
375.336	12.53
375.545	12.29
375.754	12.12
375.963	11.54
376.171	11
376.38	10.53
376.589	10.27
376.798	10.63
377.006	9.33
377.215	9.5
377.424	9.64
377.632	9.37
377.841	8.53
378.05	8.91
378.258	9.44
378.467	9.9
378.675	9.98
378.884	10.49
379.093	10.67
379.301	11.45
379.51	11.03
379.718	11.29
379.927	11.83
380.135	12.15
380.344	11.93
380.552	11.65
380.761	10.93
380.969	10.94
381.177	10.5
381.386	10.7
381.594	10.04
381.803	9.67
382.011	8.88
382.219	8.52
382.428	9.07
382.636	8.83
382.845	9.17
383.053	9.65
383.261	9.69
383.469	10.42
383.678	10.24
383.886	10.57
384.094	11.16
384.302	11.63
384.511	11.19
384.719	10.73
384.927	10.98
385.135	10.52
385.343	10.55
385.552	9.98
385.76	9.06
385.968	8.8
386.176	8.65
386.384	8.7
386.592	8.49
386.8	8.29
387.008	8.33
387.216	8.09
387.424	8.14
387.633	7.46
387.841	7.86
388.049	8.49
388.257	8.11
388.465	8.27
388.672	7.98
388.88	8.2
389.088	8.45
389.296	8.61
389.504	8.68
389.712	8.54
389.92	8.83
390.128	8.81
390.336	8.59
390.544	8.7
390.751	8.82
390.959	8.81
391.167	8.78
391.375	8.96
391.583	8.51
391.79	8.33
391.998	8.58
392.206	8.59
392.414	8.58
392.621	8.3
392.829	8.71
393.037	8.15
393.244	8.49
393.452	8.37
393.66	7.93
393.867	8.45
394.075	8.5
394.283	8.27
394.49	8.42
394.698	8.31
394.905	8.33
395.113	8.25
395.32	8.63
395.528	7.98
395.735	7.72
395.943	7.66
396.15	7.32
396.358	7.37
396.565	7.68
396.773	7.7
396.98	7.4
397.188	7.55
397.395	7.32
397.602	7.52
397.81	7.58
398.017	8.05
398.225	8.38
398.432	8.45
398.639	8.61
398.847	8.31
399.054	7.46
399.261	7.47
399.468	7
399.676	6.87
399.883	6.33
400.09	6.38
400.297	6.02
400.505	5.85
400.712	6.08
400.919	5.66
401.126	5.79
401.333	6.52
401.54	6.61
401.748	6.75
401.955	6.73
402.162	6.69
402.369	6.59
402.576	6.6
402.783	6.54
402.99	6.56
403.197	6.29
403.404	5.98
403.611	6.01
403.818	6.09
404.025	6.28
404.232	6.5
404.439	6.71
404.646	6.65
404.853	6.57
405.06	6.83
405.267	6.53
405.474	6.46
405.681	6.91
405.887	6.5
406.094	6.62
406.301	6.64
406.508	6.74
406.715	6.65
406.922	7.04
407.128	7.06
407.335	6.89
407.542	6.99
407.749	7.26
407.955	6.86
408.162	7.1
408.369	6.89
408.575	6.89
408.782	6.57
408.989	6.64
409.195	6.44
409.402	6.62
409.609	6.36
409.815	6
410.022	6.21
410.228	6.41
410.435	6.4
410.642	6.69
410.848	6.68
411.055	6.43
411.261	6.37
411.468	6.33
411.674	6.07
411.881	6.19
412.087	6.96
412.294	6.72
412.5	6.71
412.706	7.07
412.913	6.77
413.119	6.67
413.326	6.59
413.532	6.58
413.738	6.73
413.945	6.81
414.151	7.03
414.357	6.57
414.564	6.58
414.77	6.37
414.976	5.98
415.182	5.82
415.389	6.14
415.595	6.61
415.801	6.6
416.007	6.55
416.214	6.61
416.42	6.6
416.626	6.79
416.832	6.66
417.038	6.78
417.244	6.9
417.45	7.03
417.657	6.74
417.863	6.53
418.069	6.47
418.275	6.42
418.481	6.33
418.687	6.28
418.893	6.01
419.099	6.21
419.305	6.3
419.511	6.19
419.717	6.11
419.923	6.18
420.129	6.27
420.335	6.34
420.541	6.38
420.746	6.37
420.952	6.46
421.158	6.58
421.364	6.41
421.57	6.36
421.776	6.51
421.982	6.6
422.187	6.59
422.393	6.54
422.599	6.4
422.805	6.34
423.01	6.36
423.216	6.16
423.422	6.05
423.628	6.27
423.833	6.3
424.039	6.14
424.245	6.16
424.45	6.18
424.656	6.2
424.862	6.24
425.067	6.27
425.273	6.26
425.478	6.26
425.684	6.32
425.889	6.25
426.095	6.11
426.301	6.16
426.506	6.11
426.712	6.03
426.917	5.94
427.123	5.92
427.328	5.91
427.533	5.88
427.739	5.91
427.944	6.12
428.15	6.1
428.355	6.28
428.561	6.47
428.766	6.28
428.971	6.55
429.177	6.53
429.382	6.82
429.587	6.66
429.793	6.88
429.998	7.01
430.203	6.51
430.408	6.42
430.614	6.06
430.819	5.96
431.024	6.26
431.229	5.9
431.434	6.06
431.64	5.77
431.845	5.88
432.05	5.54
432.255	5.51
432.46	5.78
432.665	5.74
432.87	5.87
433.076	5.72
433.281	5.63
433.486	5.65
433.691	5.42
433.896	5.48
434.101	5.41
434.306	5.6
434.511	5.48
434.716	5.52
434.921	5.66
435.126	5.8
435.331	5.95
435.535	6.01
435.74	6.24
435.945	6.46
436.15	6.49
436.355	6.42
436.56	6.31
436.765	6.51
436.97	6.3
437.174	6.42
437.379	6.21
437.584	6.1
437.789	5.91
437.993	5.81
438.198	5.7
438.403	5.79
438.608	5.91
438.812	5.81
439.017	5.93
439.222	6.07
439.426	5.79
439.631	5.94
439.836	5.97
440.04	6.04
440.245	5.9
440.45	6.02
440.654	6.07
440.859	6.01
441.063	6.15
441.268	6.07
441.472	6
441.677	6.05
441.881	6.06
442.086	6.06
442.29	6.08
442.495	6.21
442.699	6.04
442.904	5.85
443.108	5.75
443.312	5.8
443.517	5.83
443.721	5.8
443.925	5.76
444.13	5.64
444.334	5.57
444.538	5.54
444.743	5.61
444.947	5.62
445.151	5.71
445.356	5.82
445.56	5.74
445.764	5.63
445.968	5.6
446.173	5.71
446.377	5.83
446.581	5.79
446.785	5.84
446.989	5.79
447.193	5.84
447.398	5.65
447.602	5.82
447.806	5.7
448.01	5.74
448.214	5.82
448.418	5.83
448.622	5.72
448.826	5.84
449.03	5.87
449.234	6
449.438	6.17
449.642	6.39
449.846	6.21
450.05	6.3
450.254	6.22
450.458	6.21
450.662	6.12
450.866	6.17
451.069	6.15
451.273	5.92
451.477	5.84
451.681	5.71
451.885	5.62
452.089	5.58
452.292	5.64
452.496	5.65
452.7	5.74
452.904	5.81
453.107	5.68
453.311	5.68
453.515	5.65
453.719	5.77
453.922	5.77
454.126	5.73
454.33	5.73
454.533	5.87
454.737	5.79
454.94	5.6
455.144	5.52
455.348	5.68
455.551	5.55
455.755	5.61
455.958	5.47
456.162	5.37
456.365	5.45
456.569	5.53
456.772	5.48
456.976	5.66
457.179	5.61
457.383	5.5
457.586	5.33
457.79	5.45
457.993	5.56
458.196	5.25
458.4	5.25
458.603	5.26
458.807	5.15
459.01	5.24
459.213	5.18
459.417	5.35
459.62	5.52
459.823	5.54
460.026	5.69
460.23	5.66
460.433	5.89
460.636	5.9
460.839	5.84
461.042	5.91
461.246	6
461.449	6.06
461.652	5.95
461.855	6.05
462.058	6.21
462.261	5.89
462.464	5.93
462.668	5.88
462.871	5.97
463.074	6.05
463.277	6.19
463.48	5.83
463.683	5.87
463.886	5.92
464.089	5.81
464.292	5.72
464.495	5.7
464.698	5.63
464.901	5.55
465.104	5.7
465.306	5.79
465.509	5.73
465.712	5.76
465.915	5.71
466.118	5.9
466.321	5.66
466.524	5.73
466.726	5.9
466.929	5.88
467.132	5.82
467.335	5.55
467.538	5.51
467.74	5.46
467.943	5.55
468.146	5.61
468.348	5.36
468.551	5.7
468.754	5.67
468.956	5.65
469.159	5.59
469.362	5.7
469.564	5.9
469.767	5.88
469.969	5.66
470.172	5.54
470.375	5.54
470.577	5.67
470.78	5.46
470.982	5.37
471.185	5.55
471.387	5.69
471.59	5.62
471.792	5.42
471.995	5.47
472.197	5.7
472.399	5.79
472.602	5.73
472.804	5.66
473.007	5.82
473.209	5.87
473.411	5.69
473.614	5.52
473.816	5.54
474.018	5.6
474.22	5.65
474.423	5.65
474.625	5.47
474.827	5.5
475.03	5.49
475.232	5.49
475.434	5.52
475.636	5.51
475.838	5.8
476.04	5.65
476.243	5.56
476.445	5.52
476.647	5.44
476.849	5.62
477.051	5.47
477.253	5.63
477.455	5.57
477.657	5.48
477.859	5.47
478.061	5.29
478.263	5.53
478.465	5.61
478.667	5.6
478.869	5.64
479.071	5.82
479.273	5.82
479.475	5.49
479.677	5.37
479.879	5.3
480.081	5.28
480.283	5.38
480.485	5.31
480.686	5.37
480.888	5.32
481.09	5.46
481.292	5.27
481.494	5.35
481.695	5.62
481.897	5.7
482.099	5.63
482.301	5.62
482.502	5.53
482.704	5.57
482.906	5.52
483.107	5.54
483.309	5.53
483.511	5.54
483.712	5.55
483.914	5.52
484.115	5.47
484.317	5.57
484.519	5.63
484.72	5.63
484.922	5.53
485.123	5.51
485.325	5.48
485.526	5.42
485.728	5.47
485.929	5.44
486.131	5.39
486.332	5.42
486.534	5.39
486.735	5.35
486.936	5.43
487.138	5.52
487.339	5.52
487.541	5.56
487.742	5.63
487.943	5.54
488.144	5.52
488.346	5.55
488.547	5.58
488.748	5.47
488.95	5.48
489.151	5.44
489.352	5.39
489.553	5.45
489.755	5.43
489.956	5.32
490.157	5.43
490.358	5.43
490.559	5.43
490.76	5.44
490.961	5.56
491.163	5.66
491.364	5.71
491.565	5.77
491.766	5.83
491.967	5.89
492.168	5.9
492.369	5.8
492.57	5.81
492.771	5.79
492.972	5.84
493.173	5.76
493.374	5.68
493.575	5.56
493.776	5.59
493.976	5.58
494.177	5.39
494.378	5.43
494.579	5.41
494.78	5.54
494.981	5.61
495.182	5.52
495.382	5.71
495.583	5.63
495.784	5.8
495.985	5.71
496.185	5.68
496.386	5.68
496.587	5.67
496.788	5.75
496.988	5.66
497.189	5.58
497.39	5.49
497.59	5.42
497.791	5.51
497.992	5.4
498.192	5.39
498.393	5.33
498.593	5.46
498.794	5.5
498.994	5.63
499.195	5.48
499.395	5.53
499.596	5.58
499.796	5.54
499.997	5.5
500.197	5.62
500.398	5.74
500.598	5.71
500.799	5.67
500.999	5.59
501.199	5.5
501.4	5.57
501.6	5.72
501.801	5.78
502.001	5.84
502.201	5.79
502.402	5.78
502.602	5.74
502.802	5.74
503.002	5.84
503.203	5.94
503.403	6.01
503.603	5.95
503.803	5.95
504.003	5.99
504.204	6.09
504.404	6.11
504.604	6.09
504.804	6.13
505.004	6.24
505.204	6.01
505.404	5.9
505.604	5.98
505.804	6.28
506.005	6.19
506.205	6.21
506.405	6.15
506.605	6.23
506.805	6.18
507.005	6.08
507.204	6.12
507.404	6.36
507.604	6.52
507.804	6.3
508.004	6.17
508.204	6.09
508.404	5.94
508.604	5.87
508.804	5.78
509.003	5.88
509.203	5.97
509.403	5.9
509.603	5.87
509.803	5.91
510.002	5.84
510.202	5.83
510.402	5.85
510.602	5.81
510.801	5.82
511.001	5.93
511.201	5.84
511.4	5.78
511.6	5.81
511.8	5.82
511.999	5.73
512.199	5.95
512.398	5.92
512.598	6.04
512.797	6.19
512.997	6.09
513.197	6.07
513.396	6.21
513.596	6.24
513.795	6.17
513.994	6.12
514.194	6.03
514.393	5.98
514.593	6.09
514.792	6.05
514.992	5.95
515.191	6.17
515.39	6.1
515.59	6
515.789	6.03
515.988	5.99
516.188	6.07
516.387	6.21
516.586	6.22
516.786	6.29
516.985	6.24
517.184	6.3
517.383	6.44
517.582	6.56
517.782	6.58
517.981	6.5
518.18	6.56
518.379	6.44
518.578	6.42
518.777	6.37
518.976	6.34
519.176	6.5
519.375	6.48
519.574	6.32
519.773	6.31
519.972	6.31
520.171	6.43
520.37	6.4
520.569	6.48
520.768	6.49
520.967	6.68
521.166	6.5
521.365	6.43
521.564	6.43
521.762	6.31
521.961	6.29
522.16	6.37
522.359	6.38
522.558	6.39
522.757	6.44
522.956	6.44
523.154	6.19
523.353	6.32
523.552	6.33
523.751	6.31
523.949	6.57
524.148	6.49
524.347	6.29
524.546	6.3
524.744	6.35
524.943	6.32
525.142	6.41
525.34	6.58
525.539	6.59
525.737	6.59
525.936	6.7
526.135	6.65
526.333	6.72
526.532	6.77
526.73	6.96
526.929	6.92
527.127	7
527.326	6.87
527.524	6.91
527.723	6.98
527.921	6.98
528.12	6.93
528.318	6.98
528.516	6.97
528.715	7.02
528.913	6.9
529.112	7
529.31	6.98
529.508	7.03
529.707	6.95
529.905	6.91
530.103	6.9
530.301	6.97
530.5	7.02
530.698	7.01
530.896	7.09
531.094	7.15
531.293	7.04
531.491	7.03
531.689	7.11
531.887	7.23
532.085	7.3
532.283	7.41
532.481	7.45
532.68	7.43
532.878	7.41
533.076	7.29
533.274	7.32
533.472	7.49
533.67	7.6
533.868	7.6
534.066	7.55
534.264	7.61
534.462	7.6
534.66	7.66
534.858	7.69
535.056	7.83
535.253	7.95
535.451	7.89
535.649	7.75
535.847	7.67
536.045	7.71
536.243	7.92
536.441	7.91
536.638	8
536.836	7.9
537.034	7.94
537.232	7.85
537.43	7.98
537.627	8.03
537.825	8.2
538.023	8.21
538.22	8.25
538.418	8.16
538.616	8.12
538.813	7.94
539.011	8.17
539.209	8.12
539.406	8.23
539.604	8.14
539.801	8.15
539.999	8.14
540.196	8.27
540.394	8.2
540.591	8.23
540.789	8.25
540.986	8.33
541.184	8.22
541.381	8.3
541.579	8.37
541.776	8.35
541.974	8.29
542.171	8.31
542.368	8.31
542.566	8.4
542.763	8.46
542.96	8.48
543.158	8.5
543.355	8.6
543.552	8.44
543.75	8.34
543.947	8.39
544.144	8.64
544.341	8.71
544.539	8.81
544.736	8.85
544.933	8.82
545.13	8.85
545.327	8.94
545.524	8.91
545.722	9.14
545.919	9.38
546.116	9.47
546.313	9.35
546.51	9.41
546.707	9.46
546.904	9.43
547.101	9.53
547.298	9.66
547.495	9.67
547.692	9.73
547.889	9.81
548.086	9.74
548.283	9.83
548.48	9.93
548.677	10.04
548.874	9.94
549.07	10.1
549.267	10.09
549.464	10.21
549.661	10.24
549.858	10.31
550.055	10.3
550.251	10.29
550.448	10.32
550.645	10.54
550.842	10.32
551.038	10.43
551.235	10.73
551.432	10.77
551.628	10.68
551.825	10.62
552.022	10.82
552.218	10.81
552.415	10.74
552.612	10.88
552.808	10.82
553.005	10.92
553.201	11.01
553.398	10.91
553.594	10.86
553.791	10.95
553.987	11.17
554.184	11.32
554.38	11.67
554.577	12.14
554.773	12.1
554.97	12.17
555.166	12.22
555.362	12.17
555.559	12.14
555.755	12.35
555.952	12.61
556.148	12.62
556.344	12.25
556.541	11.98
556.737	11.84
556.933	11.79
557.129	11.74
557.326	11.87
557.522	12.23
557.718	12.28
557.914	12.26
558.11	12.03
558.307	12.04
558.503	12.27
558.699	12.59
558.895	12.66
559.091	12.9
559.287	13.14
559.483	13.09
559.679	13.09
559.876	13.17
560.072	13.27
560.268	13.5
560.464	13.47
560.66	13.57
560.856	13.46
561.052	13.38
561.247	13.54
561.443	13.49
561.639	13.64
561.835	13.6
562.031	13.45
562.227	13.44
562.423	13.59
562.619	13.74
562.815	13.77
563.01	13.93
563.206	14.25
563.402	14.28
563.598	14.54
563.793	14.52
563.989	14.62
564.185	14.87
564.381	15.15
564.576	15.07
564.772	15.2
564.968	15.21
565.163	15.29
565.359	15.14
565.555	15.3
565.75	15.25
565.946	15.6
566.141	15.57
566.337	15.58
566.532	15.53
566.728	15.74
566.923	15.79
567.119	16.07
567.314	16.07
567.51	16.3
567.705	16.16
567.901	16.28
568.096	16.1
568.292	16.16
568.487	16.3
568.682	16.46
568.878	16.61
569.073	16.7
569.268	16.83
569.464	16.99
569.659	17.14
569.854	17.19
570.05	17.35
570.245	17.4
570.44	17.57
570.635	17.6
570.831	17.73
571.026	17.7
571.221	17.68
571.416	17.53
571.611	17.65
571.806	17.56
572.002	17.63
572.197	17.64
572.392	17.74
572.587	17.79
572.782	17.83
572.977	17.83
573.172	17.6
573.367	17.58
573.562	17.61
573.757	17.68
573.952	17.81
574.147	17.83
574.342	17.84
574.537	17.83
574.732	17.87
574.927	17.77
575.121	17.67
575.316	18.11
575.511	18.37
575.706	18.65
575.901	18.57
576.096	18.55
576.29	18.76
576.485	18.81
576.68	18.98
576.875	19.31
577.069	19.56
577.264	19.65
577.459	19.44
577.654	19.3
577.848	19.34
578.043	19.18
578.238	19.22
578.432	19.18
578.627	19.16
578.821	19.15
579.016	18.79
579.21	18.87
579.405	18.86
579.6	18.97
579.794	18.98
579.989	18.98
580.183	19.18
580.378	19.41
580.572	19.59
580.766	19.71
580.961	19.89
581.155	19.98
581.35	20.23
581.544	20.53
581.738	20.67
581.933	21.03
582.127	21.03
582.321	21.04
582.516	21
582.71	20.8
582.904	20.81
583.099	20.83
583.293	20.89
583.487	20.62
583.681	20.69
583.875	20.64
584.07	20.41
584.264	20.32
584.458	20.36
584.652	20.37
584.846	20.46
585.04	20.41
585.234	20.4
585.428	20.66
585.623	20.9
585.817	20.62
586.011	20.59
586.205	20.75
586.399	21.08
586.593	21.34
586.787	21.09
586.981	21.29
587.174	21.54
587.368	21.45
587.562	21.45
587.756	21.57
587.95	21.47
588.144	21.71
588.338	21.84
588.532	21.7
588.725	21.66
588.919	21.76
589.113	21.76
589.307	21.82
589.501	21.99
589.694	21.93
589.888	21.89
590.082	22.42
590.275	22.42
590.469	22.31
590.663	22.43
590.856	22.33
591.05	22.36
591.244	22.18
591.437	22.24
591.631	22.09
591.824	22.23
592.018	22.07
592.212	21.99
592.405	21.93
592.599	22.1
592.792	21.88
592.986	21.78
593.179	21.95
593.372	22.19
593.566	22.18
593.759	22.42
593.953	22.34
594.146	22.43
594.339	22.45
594.533	22.59
594.726	22.55
594.92	22.73
595.113	23.22
595.306	23.24
595.499	23.21
595.693	23.27
595.886	23.11
596.079	23.16
596.272	23.17
596.466	23.19
596.659	23.19
596.852	23.15
597.045	22.9
597.238	22.69
597.431	23
597.624	22.94
597.818	22.79
598.011	23.03
598.204	22.92
598.397	22.95
598.59	22.9
598.783	23.27
598.976	23.39
599.169	23.56
599.362	23.65
599.555	23.35
599.748	23.51
599.941	23.82
600.134	24.08
600.326	24.44
600.519	24.58
600.712	24.64
600.905	24.3
601.098	24.32
601.291	24.46
601.483	24.43
601.676	24.66
601.869	24.81
602.062	24.62
602.255	23.99
602.447	23.79
602.64	23.74
602.833	23.74
603.025	23.76
603.218	23.67
603.411	23.77
603.603	24.01
603.796	23.87
603.989	23.44
604.181	23.56
604.374	23.69
604.566	23.73
604.759	23.94
604.951	24.06
605.144	24.18
605.336	24.35
605.529	24.46
605.721	24.54
605.914	24.82
606.106	25.38
606.299	25.15
606.491	25.43
606.683	25.57
606.876	25.52
607.068	25.33
607.26	24.88
607.453	25.11
607.645	25.06
607.837	24.79
608.03	24.77
608.222	24.58
608.414	24.74
608.606	24.47
608.799	24.55
608.991	24.37
609.183	24.4
609.375	24.82
609.567	24.77
609.759	24.67
609.952	24.85
610.144	24.8
610.336	24.91
610.528	24.83
610.72	25.06
610.912	25.03
611.104	25.14
611.296	25.37
611.488	25.37
611.68	25.33
611.872	25.59
612.064	25.47
612.256	25.18
612.448	25.08
612.64	25.47
612.832	25.58
613.023	25.69
613.215	25.75
613.407	25.69
613.599	25.61
613.791	25.4
613.983	25.2
614.174	25.17
614.366	25.46
614.558	25.22
614.75	25.26
614.941	25.16
615.133	24.84
615.325	24.96
615.516	25.26
615.708	25.39
615.9	25.8
616.091	26.12
616.283	26.11
616.475	25.95
616.666	26.18
616.858	26.02
617.049	26.31
617.241	26.48
617.432	26.22
617.624	26
617.815	25.76
618.007	25.64
618.198	25.24
618.39	25.58
618.581	25.99
618.773	25.97
618.964	26.08
619.155	25.77
619.347	25.55
619.538	25.99
619.729	26
619.921	26.11
620.112	25.81
620.303	25.94
620.494	25.72
620.686	25.61
620.877	25.75
621.068	25.52
621.259	25.37
621.451	25.42
621.642	25.24
621.833	25.27
622.024	25.33
622.215	25.66
622.406	25.89
622.597	26.18
622.788	25.98
622.98	25.86
623.171	25.68
623.362	25.87
623.553	26.16
623.744	26.03
623.935	25.87
624.126	25.96
624.317	26.08
624.508	25.87
624.698	25.59
624.889	25.54
625.08	25.44
625.271	25.72
625.462	25.66
625.653	25.8
625.844	25.92
626.034	26.05
626.225	26.12
626.416	25.93
626.607	25.64
626.798	25.77
626.988	25.99
627.179	26.45
627.37	26.49
627.56	26.69
627.751	26.74
627.942	26.84
628.132	26.81
628.323	26.58
628.514	26.72
628.704	27.07
628.895	27.07
629.085	27.06
629.276	26.96
629.466	27.08
629.657	27.3
629.847	27.07
630.038	27.11
630.228	26.73
630.419	26.71
630.609	26.7
630.8	27.02
630.99	26.89
631.181	26.96
631.371	26.74
631.561	26.85
631.752	26.37
631.942	26.88
632.132	26.68
632.323	27.02
632.513	27.18
632.703	27.18
632.893	26.94
633.084	27.12
633.274	27.09
633.464	27.12
633.654	26.98
633.844	27.1
634.034	26.59
634.225	26.88
634.415	27
634.605	26.82
634.795	26.86
634.985	26.98
635.175	26.83
635.365	27.03
635.555	27.16
635.745	27.14
635.935	27.22
636.125	27.35
636.315	26.85
636.505	26.77
636.695	27.01
636.885	27.09
637.075	26.91
637.265	27.05
637.455	26.85
637.644	26.68
637.834	26.76
638.024	26.68
638.214	26.73
638.404	27.23
638.593	27.58
638.783	27.66
638.973	27.94
639.163	28.05
639.352	28.22
639.542	28.08
639.732	28.39
639.921	28.31
640.111	28.77
640.301	28.8
640.49	28.39
640.68	28.03
640.87	27.84
641.059	27.69
641.249	27.91
641.438	27.71
641.628	28.06
641.817	27.9
642.007	27.78
642.196	27.44
642.386	27.48
642.575	28.21
642.764	28.49
642.954	28.64
643.143	28.03
643.333	27.7
643.522	27.76
643.711	27.59
643.901	27.62
644.09	27.88
644.279	28.03
644.469	28.25
644.658	27.5
644.847	27.39
645.036	27.5
645.226	27.74
645.415	27.82
645.604	27.67
645.793	27.8
645.982	27.56
646.171	27.75
646.361	27.75
646.55	27.56
646.739	28.37
646.928	28.77
647.117	28.67
647.306	28.76
647.495	29
647.684	29.36
647.873	29.17
648.062	29.64
648.251	29.69
648.44	29.41
648.629	29.72
648.818	29.26
649.007	29.36
649.196	29.25
649.384	29.69
649.573	29.5
649.762	29.41
649.951	29.71
650.14	29.36
650.328	28.97
650.517	29.32
650.706	28.68
650.895	28.85
651.083	28.82
651.272	29.23
651.461	28.87
651.65	28.76
651.838	28.99
652.027	28.92
652.216	29.06
652.404	29.53
652.593	29.77
652.781	30.07
652.97	30.05
653.158	30
653.347	29.75
653.535	29.66
653.724	30.14
653.912	29.8
654.101	29.6
654.289	29.69
654.478	29.7
654.666	29.21
654.855	29.55
655.043	29.32
655.231	29.11
655.42	29.26
655.608	29.44
655.796	29.03
655.985	29.08
656.173	29.29
656.361	29.15
656.55	28.81
656.738	28.8
656.926	28.94
657.114	28.82
657.302	29.15
657.491	29.11
657.679	29.4
657.867	29.6
658.055	29.57
658.243	29.57
658.431	29.84
658.619	30.2
658.807	30.52
658.996	30.38
659.184	30.68
659.372	30.18
659.56	30.32
659.748	30.14
659.936	29.89
660.124	29.9
660.311	29.7
660.499	29.58
660.687	29.52
660.875	29.53
661.063	29.38
661.251	29.3
661.439	29.73
661.627	29.45
661.814	29.47
662.002	29.84
662.19	29.66
662.378	29.84
662.565	29.5
662.753	28.77
662.941	28.34
663.129	28.52
663.316	28.48
663.504	28.09
663.692	28.55
663.879	28.82
664.067	28.87
664.254	29.22
664.442	29.42
664.63	30.07
664.817	31
665.005	31.44
665.192	31.57
665.38	31.35
665.567	31.35
665.755	30.91
665.942	30.35
666.13	30.19
666.317	30.35
666.504	30.2
666.692	29.98
666.879	29.63
667.067	28.95
667.254	29.16
667.441	29.72
667.629	30.23
667.816	30.75
668.003	30.97
668.19	31.38
668.378	31.18
668.565	31.06
668.752	30.86
668.939	30.65
669.127	30.96
669.314	30.55
669.501	30.17
669.688	30.05
669.875	30.03
670.062	30.64
670.249	30.43
670.436	30.4
670.623	30.71
670.81	30.58
670.997	30.86
671.184	31.03
671.371	30.87
671.558	31.39
671.745	31.37
671.932	31.37
672.119	31.09
672.306	31.47
672.493	31.75
672.68	32.14
672.867	32.48
673.054	32.33
673.24	32.27
673.427	32.24
673.614	31.79
673.801	32.4
673.988	32.33
674.174	32.23
674.361	32
674.548	31.83
674.734	31.18
674.921	31.27
675.108	31.44
675.294	31.7
675.481	32.31
675.668	32.98
675.854	32.3
676.041	32.29
676.227	32.09
676.414	32.04
676.601	32.36
676.787	32.54
676.974	32.39
677.16	32.3
677.347	32.52
677.533	32.28
677.719	31.89
677.906	31.76
678.092	31.55
678.279	31.8
678.465	31.64
678.651	31.72
678.838	31.92
679.024	32.37
679.21	32.78
679.397	32.13
679.583	32.07
679.769	31.84
679.955	31.63
680.142	31.22
680.328	30.72
680.514	30.5
680.7	29.97
680.886	29.95
681.073	29.83
681.259	29.49
681.445	29.64
681.631	29.61
681.817	29.84
682.003	30.1
682.189	30.81
682.375	30.99
682.561	31.27
682.747	31.92
682.933	31.75
683.119	31.62
683.305	31.79
683.491	31.62
683.677	31.51
683.863	31.26
684.049	31.24
684.235	31.2
684.42	30.92
684.606	31.2
684.792	30.68
684.978	30.74
685.164	30.91
685.349	30.87
685.535	31.36
685.721	31.23
685.907	31.28
686.092	31.28
686.278	31.14
686.464	31.3
686.649	31.06
686.835	31.5
687.021	31.23
687.206	31.09
687.392	30.98
687.577	31.08
687.763	31.01
687.948	31.26
688.134	31.29
688.319	31.21
688.505	31.45
688.69	31.45
688.876	31.07
689.061	31.47
689.247	31.88
689.432	31.75
689.618	31.59
689.803	32.09
689.988	32.02
690.174	32.17
690.359	32.38
690.544	32.7
690.73	32.92
690.915	32.97
691.1	33.12
691.285	32.97
691.471	32.64
691.656	32.35
691.841	32.12
692.026	31.82
692.211	31.6
692.396	31.71
692.582	31.02
692.767	30.39
692.952	30.71
693.137	30.76
693.322	29.92
693.507	30.64
693.692	31.03
693.877	31.11
694.062	30.96
694.247	31.11
694.432	31.13
694.617	31.2
694.802	31.96
694.987	31.55
695.172	31.35
695.357	32.14
695.541	32.49
695.726	32.77
695.911	33.36
696.096	34.46
696.281	34.18
696.466	33.63
696.65	34.05
696.835	33.04
697.02	33.33
697.204	33.16
697.389	33.39
697.574	32.88
697.759	32.65
697.943	32.09
698.128	31.88
698.312	32.19
698.497	32.42
698.682	32.5
698.866	33.26
699.051	32.78
699.235	32.48
699.42	32.18
699.604	32.81
699.789	32.71
699.973	32.93
700.158	32.75
700.342	32.26
700.527	31.87
700.711	31.53
700.895	31.01
701.08	31.15
701.264	31.79
701.448	31.81
701.633	30.7
701.817	30.48
702.001	29.61
702.186	29.91
702.37	30.12
702.554	30.47
702.738	30.97
702.923	31.78
703.107	32.19
703.291	32.01
703.475	31.54
703.659	31.6
703.843	31.93
704.027	32.52
704.212	31.69
704.396	32.14
704.58	32.38
704.764	32.38
704.948	31.6
705.132	31.2
705.316	31.06
705.5	31.55
705.684	32.15
705.868	32.16
706.052	32.07
706.235	31.9
706.419	32.51
706.603	32.29
706.787	31.27
706.971	31.71
707.155	32.05
707.339	31.64
707.522	31.02
707.706	30.17
707.89	30.24
708.074	30.36
708.257	31.58
708.441	30.59
708.625	30.81
708.808	31.8
708.992	31.63
709.176	32.15
709.359	32.07
709.543	32.66
709.727	33.28
709.91	33.65
710.094	33.98
710.277	32.55
710.461	32.89
710.644	32.75
710.828	32.26
711.011	32.77
711.195	32.26
711.378	32.42
711.562	32.74
711.745	33.64
711.928	33.09
712.112	32.58
712.295	33.93
712.478	34.52
712.662	34.14
712.845	34.5
713.028	33.36
713.212	33.01
713.395	33.68
713.578	33.59
713.761	33.17
713.945	33.84
714.128	34.02
714.311	33.85
714.494	33.28
714.677	33.45
714.86	32.88
715.043	33.55
715.227	34.52
715.41	34.62
715.593	34.12
715.776	33.82
715.959	32.91
716.142	33.19
716.325	32.97
716.508	32.95
716.691	33.04
716.874	32.95
717.057	32.75
717.239	33.31
717.422	33.16
717.605	33.97
717.788	33.99
717.971	35.12
718.154	35.33
718.337	35.58
718.519	35.6
718.702	35.48
718.885	36.39
719.068	36.06
719.25	35.15
719.433	34.29
719.616	33.51
719.798	33.1
719.981	32.62
720.164	32.93
720.346	32.82
720.529	33.25
720.712	33.98
720.894	33.67
721.077	34.15
721.259	33.87
721.442	34.99
721.624	35.17
721.807	34.98
721.989	34.48
722.172	33.58
722.354	32.53
722.537	32.22
722.719	33.59
722.901	33.59
723.084	34.26
723.266	33.91
723.448	33.44
723.631	32.33
723.813	33.6
723.995	34.22
724.178	34.72
724.36	35.22
724.542	34.56
724.724	32.6
724.907	32.28
725.089	31.43
725.271	32.72
725.453	33.03
725.635	34.42
725.817	33.5
725.999	33.86
726.181	34.02
726.364	34.73
726.546	34.61
726.728	33.45
726.91	34.9
727.092	35.5
727.274	35.93
727.456	35.5
727.638	35.76
727.819	37.32
728.001	36.77
728.183	35.87
728.365	35.76
728.547	35.95
728.729	37.59
728.911	35.91
729.093	35.73
729.274	34.32
729.456	34.39
729.638	33.64
729.82	32.59
730.001	32.78
730.183	33.62
730.365	33.08
730.546	33.45
730.728	33.05
730.91	34.09
731.091	34
731.273	34.35
731.455	34.38
731.636	33.52
731.818	34.34
731.999	34.9
732.181	34.59
732.362	35.16
732.544	35.31
732.725	35.24
732.907	34.63
733.088	34.65
733.27	34.97
733.451	34.99
733.633	36.7
733.814	35.49
733.995	34.99
734.177	35.4
734.358	35.1
734.539	35.04
734.721	36.44
734.902	37.26
735.083	37.81
735.264	37.73
735.446	37.27
735.627	36.73
735.808	37.58
735.989	37.63
736.17	37.54
736.351	37.39
736.533	37.92
736.714	36.68
736.895	36.43
737.076	35.43
737.257	35.84
737.438	36.7
737.619	36.24
737.8	35.51
737.981	34.99
738.162	35.44
738.343	35.81
738.524	35.96
738.705	35.13
738.886	34.47
739.067	35.25
739.247	34.29
739.428	34.45
739.609	35.47
739.79	34.79
739.971	33.92
740.151	33.37
740.332	32.82
740.513	32.87
740.694	33.1
740.874	34.56
741.055	33.76
741.236	32.82
741.417	33.15
741.597	33.4
741.778	33.86
741.958	35.4
742.139	35.7
742.32	36.35
742.5	36.64
742.681	37.09
742.861	35.75
743.042	36.4
743.222	37.04
743.403	36.49
743.583	35.12
743.764	35.36
743.944	35.92
744.124	36.01
744.305	36.09
744.485	35.88
744.666	35.86
744.846	36.38
745.026	35.27
745.207	36.75
745.387	35.49
745.567	35.77
745.747	35.94
745.928	35.18
746.108	34.8
746.288	33.42
746.468	32.38
746.648	32.52
746.829	32.32
747.009	33.79
747.189	33.24
747.369	33.94
747.549	34.24
747.729	34.92
747.909	33.35
748.089	33.65
748.269	35.47
748.449	35.81
748.629	36.7
748.809	36.94
748.989	35.46
749.169	34.81
749.349	35.95
749.529	36.5
749.709	35.97
749.889	37.48
750.068	37.08
750.248	36.29
750.428	35.53
750.608	34.81
750.788	35.89
750.967	36.8
751.147	36.9
751.327	35.79
751.507	36.61
751.686	37.29
751.866	37.84
752.046	39.76
752.225	39.41
752.405	39.53
752.585	39.57
752.764	37.51
752.944	37.52
753.123	37.46
753.303	36.27
753.482	35.05
753.662	34.72
753.841	34.34
754.021	32.16
754.2	31.6
754.38	32.74
754.559	33.32
754.739	33.13
754.918	32.93
755.097	32.98
755.277	33.85
755.456	32.94
755.635	33.03
755.815	31.27
755.994	31.25
756.173	31.61
756.352	32.23
756.532	32.18
756.711	32.61
756.89	33.9
757.069	33.54
757.248	34.53
757.427	35.3
757.607	35.38
757.786	36.6
757.965	36.92
758.144	37.56
758.323	36.59
758.502	36.6
758.681	37.89
758.86	37.07
759.039	38.43
759.218	38.14
759.397	37.02
759.576	37.71
759.755	38.69
759.934	40.23
760.113	39.19
760.291	38.81
760.47	38.67
760.649	37.94
760.828	38.24
761.007	38.46
761.186	38.19
761.364	38.43
761.543	37.78
761.722	36.89
761.901	35.9
762.079	36.25
762.258	36.99
762.437	37.62
762.615	37.82
762.794	37.79
762.972	37.67
763.151	37.47
763.33	38.03
763.508	38.21
763.687	38.3
763.865	37.43
764.044	37.15
764.222	37.34
764.401	36.29
764.579	35.44
764.758	34.89
764.936	34.74
765.114	35.39
765.293	35.7
765.471	35.42
765.65	34.57
765.828	35.48
766.006	35.37
766.184	34.59
766.363	34.24
766.541	34.83
766.719	34.88
766.898	33.11
767.076	31.64
767.254	31.62
767.432	31.8
767.61	31.13
767.788	30.05
767.967	31.16
768.145	31.07
768.323	32.41
768.501	32.48
768.679	32.93
768.857	36.22
769.035	37.29
769.213	35.06
769.391	33.68
769.569	34.93
769.747	36.71
769.925	36.1
770.103	37.01
770.281	36.54
770.459	36.84
770.636	36.46
770.814	34.03
770.992	34.78
771.17	38.28
771.348	39.96
771.525	39.07
771.703	35.95
771.881	35.81
772.059	35.81
772.236	34.98
772.414	35.88
772.592	36.51
772.769	38.17
772.947	37.31
773.125	34.65
773.302	35.63
773.48	37.13
773.657	39.04
773.835	38.82
774.013	36.76
774.19	36.4
774.368	36.68
774.545	35.56
774.723	34.52
774.9	35.21
775.077	35.13
775.255	32.19
775.432	30.65
775.61	32.88
775.787	33.55
775.964	35.38
776.142	34.22
776.319	34.01
776.496	32.76
776.674	34.5
776.851	34.19
777.028	35.5
777.205	34.52
777.382	38.47
777.56	36.97
777.737	35.63
777.914	35.55
778.091	38.09
778.268	36.44
778.445	38.36
778.622	36.81
778.8	36.66
778.977	36.71
779.154	39.38
779.331	38.42
779.508	38.74
779.685	41.1
779.862	40.07
780.038	39.48
780.215	39.96
780.392	40.89
780.569	42.86
780.746	42.9
780.923	42.54
781.1	39.39
781.277	38.06
781.453	35.27
781.63	33.77
781.807	35.63
781.984	37.49
782.16	39.59
782.337	37.23
782.514	32.78
782.691	32.85
782.867	31.56
783.044	34.75
783.221	38.09
783.397	40.84
783.574	43.44
783.75	39.85
783.927	40.09
784.103	38.87
784.28	40.4
784.456	43.26
784.633	43.72
784.809	42.99
784.986	42.09
785.162	39.8
785.339	39.4
785.515	40.48
785.692	41.43
785.868	40.61
786.044	40.46
786.221	39.85
786.397	39.2
786.573	37.64
786.749	38.35
786.926	37.43
787.102	35.84
787.278	34.6
787.454	33.62
787.631	34.27
787.807	34.42
787.983	34.04
788.159	34.14
788.335	34.02
788.511	35.15
788.687	34.06
788.863	34.48
789.039	35.18
789.216	35.51
789.392	35.69
789.568	33.73
789.744	33.3
789.919	33.15
790.095	32.84
790.271	34.82
790.447	34.2
790.623	34.44
790.799	35.01
790.975	35.19
791.151	37.7
791.327	36.12
791.502	37.93
791.678	35.63
791.854	34.78
792.03	36.06
792.205	33.62
792.381	34.82
792.557	34.84
792.733	33.51
792.908	34.24
793.084	32.84
793.259	35.81
793.435	35.75
793.611	43.94
793.786	44.5
793.962	41.71
794.137	42.85
794.313	42.93
794.488	45.23
794.664	46.79
794.839	46.1
795.015	48.96
795.19	42.52
795.366	47.2
795.541	40.93
795.716	39.61
795.892	42.5
796.067	40.16
796.242	36.99
796.418	35.44
796.593	35.83
796.768	35.79
796.944	34.82
797.119	38.89
797.294	34.09
797.469	35.96
797.644	38.71
797.82	36.54
797.995	40.89
798.17	41.64
798.345	43.53
798.52	43.72
798.695	43.55
798.87	39.4
799.045	39.95
799.22	40.06
799.395	35.94
799.57	34.21
799.745	34.81
799.92	28.76
800.095	30.25
800.27	28.6
800.445	27.19
800.62	27.72
800.795	29.56
800.97	30.12
801.145	32.28
801.319	33.28
801.494	33.42
801.669	37.01
801.844	36.42
802.018	38.04
802.193	34.86
802.368	33.22
802.543	33.22
802.717	35.18
802.892	34.88
803.067	36.54
803.241	39.49
803.416	38.71
803.59	34.46
803.765	41.34
803.94	38.53
804.114	43.09
804.289	48.51
804.463	48.71
804.638	48.27
804.812	41.55
804.986	36.13
805.161	33.51
805.335	34.29
805.51	35.43
805.684	36.67
805.858	37.83
806.033	36.01
806.207	35.39
806.381	34.99
806.556	32.47
806.73	35.75
806.904	37.23
807.078	38.41
807.253	36.88
807.427	36.54
807.601	31.58
807.775	33.86
807.949	35.77
808.123	35.93
808.298	33.91
808.472	37.19
808.646	39.11
808.82	39.55
808.994	41.54
809.168	44.51
809.342	45.69
809.516	49.39
809.69	46.43
809.864	46.31
810.038	45.05
810.212	44.71
810.385	44.78
810.559	46.85
810.733	51.96
810.907	51.49
811.081	51.1
811.255	50.47
811.428	52.03
811.602	52
811.776	48.63
811.95	49.12
812.123	49.54
812.297	45.78
812.471	42.39
812.644	38.54
812.818	38.46
812.992	39.29
813.165	40.79
813.339	39.84
813.512	41.55
813.686	42.74
813.86	39.78
814.033	42.2
814.207	44.25
814.38	45.36
814.554	44.37
814.727	48.97
814.9	49.57
815.074	47.22
815.247	43.76
815.421	44.94
815.594	46.53
815.767	48.4
815.941	49.79
816.114	49.81
816.287	52.98
816.46	55.52
816.634	49.01
816.807	44.15
816.98	45.77
817.153	48.53
817.327	40.07
817.5	40.76
817.673	39.3
817.846	38.9
818.019	47.94
818.192	42.41
818.365	44.58
818.538	42.12
818.711	46.61
818.884	44.19
819.057	42.06
819.23	41.94
819.403	45.76
819.576	47.68
819.749	43.04
819.922	35.35
820.095	37.44
820.268	34.08
820.441	36.77
820.614	35.04
820.786	38.38
820.959	40.11
821.132	43.91
821.305	41.56
821.477	42.17
821.65	43.25
821.823	42.66
821.996	42.01
822.168	43.3
822.341	43.47
822.514	42.9
822.686	41.5
822.859	41.93
823.031	41.63
823.204	41.11
823.376	40.27
823.549	39.8
823.722	40.5
823.894	40.26
824.067	39.51
824.239	39.5
824.411	38.9
824.584	39.88
824.756	38.39
824.929	36.63
825.101	36.72
825.273	37.23
825.446	36.98
825.618	35.59
825.79	35.05
825.963	34.81
826.135	34.07
826.307	34.51
826.479	34.17
826.652	33.9
826.824	35.63
826.996	36.05
827.168	34.91
827.34	35.71
827.512	37.91
827.684	38.6
827.856	39.32
828.029	38.05
828.201	38.4
828.373	38.94
828.545	39.75
828.717	39.29
828.889	39.26
829.061	41.71
829.232	42.26
829.404	41.27
829.576	41.82
829.748	42.96
829.92	44.17
830.092	45.83
830.264	43.07
830.436	42.97
830.607	42.71
830.779	44.06
830.951	41.4
831.123	40.46
831.294	37.05
831.466	38.92
831.638	36.16
831.809	40.07
831.981	35.56
832.153	38.33
832.324	40.32
832.496	37.21
832.667	33.89
832.839	34.84
833.011	33.38
833.182	35.95
833.354	34.85
833.525	36.27
833.697	35
833.868	38.37
834.039	40.39
834.211	41.38
834.382	44.02
834.554	44.78
834.725	44.68
834.896	44.65
835.068	45.41
835.239	46.76
835.41	45.25
835.581	42.99
835.753	41.98
835.924	37.98
836.095	35.42
836.266	32.87
836.438	32.65
836.609	31.92
836.78	34.2
836.951	35.74
837.122	32.47
837.293	36.83
837.464	38.91
837.635	38.43
837.806	41.23
837.977	43.68
838.148	48.04
838.319	49.2
838.49	48.59
838.661	47.65
838.832	45.25
839.003	44.17
839.174	43.6
839.345	40.36
839.516	37.24
839.687	37.65
839.857	36.11
840.028	35.73
840.199	33.56
840.37	32.49
840.54	35.35
840.711	28.21
840.882	27.75
841.053	17.72
841.223	18.29
841.394	21.59
841.564	18.81
841.735	19.83
841.906	16.63
842.076	21.96
842.247	22.41
842.417	22.99
842.588	26.58
842.758	36.51
842.929	38.25
843.099	39.73
843.27	55.22
843.44	55.38
843.611	61.24
843.781	61.28
843.951	50.39
844.122	47.96
844.292	59.22
844.462	59.52
844.633	58.05
844.803	74.87
844.973	81.14
845.144	39.37
845.314	51.48
845.484	44.86
845.654	44.26
845.824	49.87
845.995	57.23
846.165	36.63
846.335	40.2
846.505	33.57
846.675	30.9
846.845	43.61
847.015	53.1
847.185	54.32
847.355	58.79
847.525	66.31
847.695	71.41
847.865	67.95
848.035	62.45
848.205	67.44
848.375	68.68
848.545	71.01
848.715	61.85
848.884	59.43
849.054	56.98
849.224	35.46
849.394	24.57
849.564	30.34
849.733	40.17
849.903	48.6
850.073	45.28
850.243	49.45
850.412	54.4
850.582	49.85
850.752	45.53
850.921	40.36
851.091	47.14
851.26	50.03
851.43	41.8
851.599	33.36
851.769	32.41
851.939	35.88
852.108	44.69
852.278	34.48
852.447	44.32
852.616	60.85
852.786	63.02
852.955	46.83
853.125	38.35
853.294	48.58
853.463	49.19
853.633	55.27
853.802	55.09
853.971	15.99
854.141	15.6
854.31	25.17
854.479	15.04
854.648	9.23
854.818	22.61
854.987	26.15
855.156	18.59
855.325	28.02
855.494	39.47
855.663	33.24
855.832	44.3
856.001	49.83
856.171	51.79
856.34	45.08
856.509	52.3
856.678	55.82
856.847	57.71
857.016	61.29
857.185	62.62
857.353	62.94
857.522	81.45
857.691	80.83
857.86	87.41
858.029	83.44
858.198	95.49
858.367	73.54
858.535	68.39
858.704	68.12
858.873	61.59
859.042	62.77
859.21	49.92
859.379	42.76
859.548	47.71
859.717	46.38
859.885	47.87
860.054	46.27
860.222	51.78
860.391	49.95
860.56	51.84
860.728	65.99
860.897	64.52
861.065	84.06
861.234	86.66
861.402	83.54
861.571	78.53
861.739	75.31
861.908	71.18
862.076	80.23
862.244	80.68
862.413	82.34
862.581	66.17
862.749	60.77
862.918	55.7
863.086	58.36
863.254	46.71
863.423	52.25
863.591	51.55
863.759	57.89
863.927	59.28
864.096	49.07
864.264	45.88
864.432	47.02
864.6	43.29
864.768	37.44
864.936	40
865.104	50.03
865.272	33.91
865.44	50.92
865.608	53.24
865.776	43.71
865.944	59.52
866.112	57.61
866.28	53.15
866.448	52.75
866.616	49.53
866.784	34.47
866.952	30.34
867.12	54.79
867.288	61.26
867.455	66.83
867.623	58.33
867.791	56.35
867.959	49.28
868.127	59.93
868.294	62.97
868.462	59.03
868.63	59.69
868.797	58.78
868.965	58.73
869.133	42.98
869.3	46.31
869.468	62.76
869.636	77.5
869.803	95.12
869.971	93.68
870.138	109.93
870.306	146.2
870.473	160.01
870.641	172.82
870.808	192.71
870.975	218.37
871.143	127.73
871.31	122.02
871.478	92.87
871.645	78.3
871.812	76.08
871.98	56.28
872.147	51.26
872.314	47.85
872.482	48.98
872.649	50.4
872.816	49.12
872.983	47.02
873.15	41.75
873.318	37.67
873.485	34.44
873.652	22.1
873.819	27.79
873.986	25.86
874.153	34.2
874.32	34.32
874.487	29
874.654	32.77
874.821	32.68
874.988	18.55
875.155	19.36
875.322	29.18
875.489	45.77
875.656	38.7
875.823	52.24
875.99	49.06
876.157	58.21
876.324	73.68
876.49	85.41
876.657	72.02
876.824	99.04
876.991	76.85
877.157	62.74
877.324	51.31
877.491	62.55
877.658	56.53
877.824	17.03
877.991	36.19
878.157	32.77
878.324	16.01
878.491	15.4
878.657	18.86
878.824	31.09
878.99	30.46
879.157	27.54
879.323	34.95
879.49	32.03
879.656	53.18
879.823	33.63
879.989	28.82
880.156	25.06
880.322	28.01
880.488	33.45
880.655	18.99
880.821	44.35
880.987	57.63
881.154	48.49
881.32	45.52
881.486	41.87
881.652	44.52
881.819	43.87
881.985	43.97
882.151	46.18
882.317	49.56
882.483	47.79
882.649	45.08
882.816	43.44
882.982	40.12
883.148	41.13
883.314	42.43
883.48	42.82
883.646	43.58
883.812	43.09
883.978	42.29
884.144	40.61
884.31	43.14
884.476	42.91
884.642	41.64
884.807	44.53
884.973	44.51
885.139	44.32
885.305	40.98
885.471	36.88
885.637	33.34
885.802	36.08
885.968	37.59
886.134	34.52
886.3	30.4
886.465	33.93
886.631	31.72
886.797	31.99
886.962	28.55
887.128	36.37
887.293	41.91
887.459	56.92
887.625	57.79
887.79	52.92
887.956	59.36
888.121	62.46
888.287	63.4
888.452	67.19
888.618	65.52
888.783	72.61
