Data from 2937809_Reflection_3.txt Node
Date: Wed Jul 15 17:51:21 EDT 2015
User: robert
Spectrometer: USB4E03001
Autoset integration time: false
Trigger mode: 4
Integration Time (sec): 1.000000E-1
Scans to average: 10
Electric dark correction enabled: true
Nonlinearity correction enabled: false
Boxcar width: 5
Stray light correction enabled: false
XAxis mode: Wavelengths
Stop averaging: false
Number of Pixels in Spectrum: 3648
>>>>>Begin Spectral Data<<<<<
177.566	49.56
177.785	150.1
178.005	55.62
178.225	-260
178.445	354.08
178.665	220.63
178.885	364.49
179.105	105.41
179.324	114.37
179.544	89.74
179.764	78.12
179.984	70.02
180.204	48.3
180.423	22.33
180.643	3.12
180.863	3.37
181.083	27.17
181.302	48.91
181.522	63.42
181.742	43.57
181.961	9295
182.181	176.89
182.401	177.06
182.621	-6.13
182.84	-7.03
183.06	28.3
183.279	31.91
183.499	24.12
183.719	58.64
183.938	74.29
184.158	88.34
184.377	110.65
184.597	204.93
184.816	-180.37
185.036	-404.68
185.256	-54.86
185.475	-12.94
185.695	6.27
185.914	-25.04
186.134	11.77
186.353	50.79
186.572	46.41
186.792	61.35
187.011	61.93
187.231	67.5
187.45	86.19
187.67	184.79
187.889	386.14
188.108	141.02
188.328	123.89
188.547	121.06
188.766	74.36
188.986	66.8
189.205	90.14
189.424	91.14
189.644	111.94
189.863	146.69
190.082	105.96
190.302	72.59
190.521	34.72
190.74	-38.56
190.959	-12.92
191.178	-265.39
191.398	-247.92
191.617	-62.99
191.836	-35.63
192.055	-45.05
192.274	-59.15
192.494	-96.75
192.713	-106.97
192.932	-60.41
193.151	9.05
193.37	-11.1
193.589	18.52
193.808	-40.93
194.027	-100.23
194.246	-79.55
194.465	-72.39
194.685	-75.76
194.904	-15.2
195.123	-9.7
195.342	-46.22
195.561	-21.68
195.78	376.32
195.999	-185.71
196.218	113.18
196.436	218.04
196.655	208
196.874	116.32
197.093	56.92
197.312	-233.46
197.531	-280.17
197.75	87.54
197.969	95.39
198.188	55.82
198.407	39.57
198.625	52.03
198.844	74.84
199.063	85.33
199.282	64.12
199.501	51.3
199.719	48.3
199.938	40.64
200.157	31.17
200.376	-2.79
200.594	-24.29
200.813	-69.22
201.032	8.14
201.251	247.49
201.469	110.01
201.688	77.2
201.907	68.37
202.125	95.98
202.344	310.31
202.563	59.57
202.781	-18.18
203	-162.87
203.218	-155.27
203.437	-669.12
203.656	-16.58
203.874	-35.81
204.093	13.16
204.311	78.29
204.53	68.9
204.748	65.39
204.967	53.73
205.185	54.81
205.404	49.69
205.622	41.37
205.841	30.31
206.059	9.21
206.278	-435.87
206.496	-1772.14
206.715	-214.62
206.933	-234.74
207.151	-1771.14
207.37	263.43
207.588	781.35
207.806	-240.36
208.025	-85.6
208.243	-76.22
208.461	30.53
208.68	90.39
208.898	164.48
209.116	82.75
209.335	257.48
209.553	196.33
209.771	73.24
209.989	375.08
210.208	-118.3
210.426	-66.45
210.644	2517.27
210.862	822.16
211.081	184.88
211.299	27.08
211.517	-7.26
211.735	-446.87
211.953	88.54
212.171	41.56
212.39	-44.75
212.608	-238.09
212.826	-346.85
213.044	335.45
213.262	1315.37
213.48	2447.75
213.698	389.32
213.916	-38.51
214.134	77.39
214.352	74.68
214.57	1207.14
214.788	453.49
215.006	-227.84
215.224	459.4
215.442	188.74
215.66	254.47
215.878	105.76
216.096	98.73
216.314	-13.07
216.532	43.71
216.75	27.68
216.968	-58.09
217.185	9.54
217.403	1.08
217.621	8.06
217.839	70.71
218.057	42.65
218.275	11.55
218.492	-260
218.71	349.81
218.928	133.14
219.146	22.41
219.363	-56.33
219.581	31.11
219.799	-103.04
220.017	-942.6
220.234	378.1
220.452	122.28
220.67	-416.98
220.887	119.49
221.105	158.28
221.323	74.03
221.54	17.38
221.758	8.86
221.976	-219.63
222.193	94.16
222.411	77.06
222.629	97
222.846	68.9
223.064	94.71
223.281	87.82
223.499	121.08
223.716	82.33
223.934	62.19
224.151	64.15
224.369	61
224.586	82.23
224.804	122.92
225.021	88.58
225.239	65.33
225.456	62.49
225.674	87.28
225.891	50.95
226.108	89.82
226.326	78.6
226.543	1385.05
226.76	-43.76
226.978	21.1
227.195	-2.82
227.413	-10.47
227.63	6.44
227.847	15.81
228.064	22.45
228.282	24.92
228.499	28.41
228.716	21.89
228.934	18
229.151	16.73
229.368	7.59
229.585	10.51
229.802	7.95
230.02	3.72
230.237	3.69
230.454	4.9
230.671	4.78
230.888	-20.25
231.105	-13.96
231.323	-24.54
231.54	-17.21
231.757	-10.23
231.974	-10.14
232.191	-15.65
232.408	-14.24
232.625	-13.69
232.842	-13.82
233.059	-52.82
233.276	-15.84
233.493	-29.73
233.71	7.77
233.927	-3.93
234.144	18.95
234.361	-1.69
234.578	15.75
234.795	2.44
235.012	11.23
235.229	0.09
235.446	14.93
235.663	16.16
235.879	21.66
236.096	16.03
236.313	12.35
236.53	1.76
236.747	21.82
236.964	10.18
237.181	19.03
237.397	8.2
237.614	2.56
237.831	12.7
238.048	0.28
238.264	-0.11
238.481	1.98
238.698	17.59
238.915	15.61
239.131	9.12
239.348	19.6
239.565	20.21
239.781	23.93
239.998	19.38
240.215	14.4
240.431	16.91
240.648	16.84
240.865	15.99
241.081	7.94
241.298	11.88
241.514	15.7
241.731	12.09
241.947	12.61
242.164	14.41
242.38	20.37
242.597	22.38
242.814	23.59
243.03	22.47
243.246	23.89
243.463	28.8
243.679	30.3
243.896	26.75
244.112	28.03
244.329	28.98
244.545	28.73
244.762	30.03
244.978	27.8
245.194	29.11
245.411	27.96
245.627	22.09
245.843	19.72
246.06	16.73
246.276	18.26
246.492	16.44
246.709	16.08
246.925	15.51
247.141	15.55
247.357	15.23
247.574	15.46
247.79	15.85
248.006	18.55
248.222	19.04
248.439	19.69
248.655	18.63
248.871	19.76
249.087	18.88
249.303	21.05
249.519	21.41
249.736	22.35
249.952	21.31
250.168	21.4
250.384	17.46
250.6	16.38
250.816	12.78
251.032	16.23
251.248	16.31
251.464	14.76
251.68	7.67
251.896	7.24
252.112	6.73
252.328	4.95
252.544	3.49
252.76	5.44
252.976	2.44
253.192	2.95
253.408	1.77
253.624	2.76
253.84	4.53
254.056	4.73
254.272	3.55
254.487	2.43
254.703	8.75
254.919	10.18
255.135	14.35
255.351	20.3
255.567	20.28
255.782	24.43
255.998	23.36
256.214	27.39
256.43	28.52
256.646	27.47
256.861	25.15
257.077	20.25
257.293	20.62
257.508	19.3
257.724	15.56
257.94	15.91
258.155	10.97
258.371	9.33
258.587	7.75
258.802	8.65
259.018	9.87
259.234	11.2
259.449	11.26
259.665	10.29
259.88	10.71
260.096	11.9
260.312	12.45
260.527	12.79
260.743	13.44
260.958	12.95
261.174	12.52
261.389	11.79
261.605	12.59
261.82	12.43
262.036	13.91
262.251	10.34
262.466	6.93
262.682	6.31
262.897	3.84
263.113	2.98
263.328	4.21
263.543	9.78
263.759	8.74
263.974	7.84
264.189	10.33
264.405	12.41
264.62	17.13
264.835	21.53
265.051	19.87
265.266	26.99
265.481	28.4
265.696	28
265.912	25.64
266.127	25.66
266.342	24.54
266.557	22.15
266.773	18.23
266.988	18.49
267.203	16.8
267.418	19.45
267.633	16.04
267.848	15.28
268.064	14.04
268.279	15.33
268.494	16.21
268.709	16.8
268.924	16.78
269.139	18.64
269.354	14.17
269.569	14.6
269.784	11.14
269.999	9.34
270.214	7.82
270.429	10.39
270.644	5.24
270.859	6.11
271.074	5.51
271.289	5.54
271.504	4.88
271.719	7.87
271.934	9.65
272.149	10.79
272.363	12.68
272.578	12.57
272.793	11.48
273.008	12.74
273.223	11.34
273.438	13.3
273.653	14.88
273.867	17.77
274.082	15.74
274.297	16.12
274.512	15.81
274.726	16.34
274.941	19.5
275.156	20.13
275.371	21.82
275.585	23.29
275.8	21.84
276.015	19.39
276.229	15.9
276.444	16.73
276.659	14.42
276.873	14.24
277.088	14.46
277.302	12.04
277.517	11.47
277.732	8.6
277.946	7.99
278.161	5.58
278.375	6.58
278.59	6.89
278.804	8.6
279.019	8.5
279.233	9.85
279.448	7.44
279.662	7.54
279.877	9.52
280.091	11.7
280.306	12.55
280.52	14.35
280.735	16.45
280.949	14.96
281.163	15.27
281.378	14.72
281.592	13.48
281.806	15.75
282.021	17.36
282.235	12.7
282.449	12.16
282.664	10.73
282.878	15.19
283.092	14.49
283.307	14.83
283.521	13.46
283.735	14.6
283.949	17.55
284.164	18.03
284.378	17.19
284.592	18.31
284.806	18.41
285.02	17.7
285.234	12.66
285.449	11.77
285.663	10.92
285.877	12.33
286.091	12.8
286.305	13.47
286.519	12.44
286.733	11.95
286.947	10.88
287.161	11.21
287.375	12.56
287.589	14.6
287.803	16.35
288.017	17.62
288.231	18.54
288.445	17.49
288.659	14.58
288.873	13.7
289.087	13.66
289.301	16.36
289.515	15.81
289.729	15.58
289.943	16.66
290.157	16.89
290.371	16.4
290.584	15.05
290.798	15.91
291.012	16.93
291.226	18.25
291.44	18.75
291.654	19.46
291.867	19.34
292.081	20.45
292.295	19.4
292.509	19.07
292.722	17.91
292.936	16.02
293.15	15.88
293.364	14.56
293.577	12.07
293.791	12.6
294.005	10.01
294.218	13.93
294.432	16.4
294.645	16.77
294.859	17.73
295.073	18.98
295.286	22.75
295.5	22.11
295.713	22.85
295.927	24.79
296.14	25.25
296.354	25.27
296.568	21.75
296.781	18.02
296.994	18.55
297.208	17.52
297.421	17.75
297.635	17.59
297.848	16.57
298.062	16.56
298.275	16.78
298.489	18.04
298.702	19.73
298.915	22.38
299.129	24.7
299.342	22.27
299.555	21.55
299.769	20.71
299.982	19.84
300.195	21.24
300.409	20.09
300.622	18.91
300.835	17.68
301.048	14.55
301.262	12.67
301.475	11.95
301.688	14.09
301.901	15.07
302.115	17.93
302.328	18.76
302.541	17.69
302.754	16.38
302.967	17.54
303.18	15.69
303.393	18.89
303.607	21.55
303.82	23.78
304.033	23.68
304.246	24.65
304.459	23.06
304.672	20.29
304.885	23.19
305.098	27.59
305.311	25.57
305.524	24.83
305.737	23.88
305.95	23.41
306.163	22.73
306.376	22.35
306.589	19.73
306.802	20.9
307.015	23.48
307.228	21.05
307.44	20.27
307.653	23.31
307.866	23.84
308.079	24.13
308.292	22.66
308.505	21.79
308.718	20.68
308.93	22.93
309.143	22.93
309.356	25.53
309.569	26.93
309.781	24.21
309.994	21.86
310.207	22.35
310.42	23.92
310.632	22.25
310.845	22.29
311.058	23.91
311.27	22.66
311.483	19.83
311.696	17.69
311.908	15.62
312.121	15.5
312.333	13.87
312.546	15.61
312.759	11.88
312.971	13.66
313.184	12.18
313.396	10.6
313.609	10.23
313.821	14.42
314.034	14.14
314.246	15.85
314.459	18.56
314.671	19.5
314.884	18.73
315.096	21.94
315.309	23.19
315.521	27.85
315.733	26.17
315.946	27.68
316.158	25.48
316.371	23.31
316.583	25.05
316.795	23.91
317.008	26.58
317.22	23.91
317.432	24
317.644	22.44
317.857	20.04
318.069	19.73
318.281	20.82
318.494	23.26
318.706	24.88
318.918	24.1
319.13	24.83
319.342	24.86
319.555	26.43
319.767	26.45
319.979	28.02
320.191	27.73
320.403	31.24
320.615	31.53
320.827	29.52
321.039	27.37
321.252	25.06
321.464	23.39
321.676	26.61
321.888	25.35
322.1	24.16
322.312	21.35
322.524	21.37
322.736	18.67
322.948	18.25
323.16	19.37
323.372	22.19
323.584	22.2
323.796	23.79
324.007	21.11
324.219	22.67
324.431	24.21
324.643	24.89
324.855	23.77
325.067	25.9
325.279	26.14
325.491	26.64
325.702	25.89
325.914	27.82
326.126	27.51
326.338	27.07
326.55	27.59
326.761	26.81
326.973	28.15
327.185	30.51
327.396	28.19
327.608	28.47
327.82	27.12
328.032	29.85
328.243	31.41
328.455	31.55
328.666	33.54
328.878	35.08
329.09	36.43
329.301	35.16
329.513	34.71
329.725	36.92
329.936	35.22
330.148	34.88
330.359	32.65
330.571	32.05
330.782	31.56
330.994	33.13
331.205	34.16
331.417	34.55
331.628	36.93
331.84	36.73
332.051	37.51
332.262	39.5
332.474	42.47
332.685	43.18
332.897	42.72
333.108	43.38
333.319	43.52
333.531	42.26
333.742	43.26
333.953	43.1
334.165	45.13
334.376	46.78
334.587	49.29
334.799	49.62
335.01	51.01
335.221	52.19
335.432	54.63
335.644	52.06
335.855	50.95
336.066	49.12
336.277	48.33
336.488	47.04
336.7	47.23
336.911	45.4
337.122	45.82
337.333	45.42
337.544	45.67
337.755	45.01
337.966	45.8
338.177	48.18
338.388	49.38
338.599	52.09
338.811	53.7
339.022	52.75
339.233	53.92
339.444	55.57
339.655	55.99
339.866	54.51
340.076	54.54
340.287	56.44
340.498	55.83
340.709	55.75
340.92	54.39
341.131	54.18
341.342	54.98
341.553	55.29
341.764	53.52
341.975	54.69
342.185	56.34
342.396	56.9
342.607	56.44
342.818	55.82
343.029	57.56
343.239	58.99
343.45	58.73
343.661	59.63
343.872	58.89
344.082	59.48
344.293	58.36
344.504	59.51
344.714	58.27
344.925	59.09
345.136	60.84
345.346	60.79
345.557	60.01
345.768	61.65
345.978	61.72
346.189	60.72
346.399	61.21
346.61	61.38
346.821	61.53
347.031	61.58
347.242	61.06
347.452	58.38
347.663	57.52
347.873	55.25
348.084	52.92
348.294	52.23
348.504	52.91
348.715	52.92
348.925	52.56
349.136	53.53
349.346	53.8
349.557	52.91
349.767	54.98
349.977	55.29
350.188	56.61
350.398	57.43
350.608	56.77
350.819	58.64
351.029	55.66
351.239	57.25
351.449	55.49
351.66	55.05
351.87	54.64
352.08	54.79
352.29	54.04
352.501	53.83
352.711	53.55
352.921	57.44
353.131	56.11
353.341	58.46
353.552	58.56
353.762	57.77
353.972	57.47
354.182	57.85
354.392	58.32
354.602	60.71
354.812	61.71
355.022	62.53
355.232	59.26
355.442	59.76
355.652	57.67
355.862	56.58
356.072	57.97
356.282	58.42
356.492	58.87
356.702	58.21
356.912	56.17
357.122	55.22
357.332	53.3
357.542	53.85
357.752	53.8
357.962	55.82
358.171	55.94
358.381	54
358.591	54.81
358.801	54.42
359.011	54.13
359.221	54.66
359.43	54.58
359.64	54.62
359.85	53.72
360.06	52.77
360.269	52.34
360.479	52.22
360.689	52.32
360.899	51.88
361.108	52.03
361.318	52.06
361.528	51.17
361.737	51.53
361.947	51.96
362.156	51.35
362.366	51.84
362.576	51.96
362.785	51.79
362.995	52.29
363.204	52.65
363.414	52.6
363.623	52.25
363.833	52.45
364.042	52.49
364.252	53.13
364.461	54.29
364.671	53.96
364.88	52.8
365.09	52.17
365.299	51.61
365.509	50.61
365.718	49.5
365.927	49.94
366.137	49.1
366.346	49.91
366.555	49.32
366.765	47.75
366.974	48.75
367.183	48.64
367.393	49.35
367.602	49.13
367.811	49.62
368.021	50.58
368.23	49.48
368.439	50.28
368.648	48.92
368.857	48.2
369.067	48.74
369.276	48.04
369.485	48.93
369.694	49.06
369.903	49.03
370.112	48.16
370.321	46.82
370.531	48.12
370.74	47.11
370.949	47.07
371.158	47.44
371.367	47.11
371.576	46.47
371.785	46.11
371.994	45.41
372.203	46.55
372.412	46.11
372.621	46.45
372.83	44.9
373.039	44.84
373.248	45.38
373.457	44.32
373.666	44.2
373.874	44.66
374.083	44.7
374.292	44.82
374.501	43.23
374.71	43.54
374.919	43.28
375.128	43.2
375.336	43.22
375.545	42.7
375.754	43.13
375.963	42.89
376.171	42.67
376.38	42.53
376.589	42.41
376.798	42.87
377.006	42.98
377.215	43.26
377.424	43.86
377.632	43.61
377.841	43.37
378.05	42.92
378.258	42.18
378.467	41.93
378.675	41.51
378.884	40.6
379.093	40.23
379.301	39.97
379.51	38.94
379.718	38.25
379.927	38.72
380.135	38.51
380.344	38.63
380.552	38.49
380.761	37.87
380.969	37.67
381.177	38.22
381.386	38.11
381.594	38.65
381.803	39.1
382.011	39.33
382.219	38.42
382.428	38.73
382.636	38.56
382.845	38.8
383.053	38.68
383.261	38.18
383.469	37.71
383.678	37.85
383.886	37.66
384.094	37.49
384.302	37.08
384.511	36.93
384.719	36.41
384.927	35.89
385.135	35.92
385.343	35.52
385.552	35.64
385.76	35.59
385.968	35.39
386.176	34.01
386.384	34.16
386.592	33.58
386.8	33.59
387.008	33.33
387.216	33.85
387.424	33.22
387.633	33.28
387.841	33.02
388.049	32.73
388.257	32.64
388.465	32.96
388.672	32.34
388.88	32.37
389.088	32.68
389.296	32.5
389.504	31.83
389.712	31.81
389.92	31.73
390.128	31.84
390.336	31.27
390.544	30.64
390.751	30.54
390.959	30.14
391.167	29.78
391.375	28.76
391.583	29.07
391.79	29.09
391.998	29.2
392.206	29.36
392.414	28.67
392.621	29.13
392.829	29.64
393.037	29.4
393.244	29.68
393.452	29.94
393.66	30.5
393.867	29.74
394.075	29.34
394.283	29.18
394.49	28.68
394.698	28.78
394.905	28.23
395.113	27.89
395.32	27.45
395.528	27.25
395.735	27.11
395.943	26.64
396.15	26.91
396.358	26.9
396.565	27.11
396.773	27.13
396.98	27.55
397.188	27.9
397.395	27.71
397.602	28.15
397.81	28.25
398.017	28.68
398.225	29.09
398.432	29.01
398.639	29.28
398.847	28.87
399.054	28.84
399.261	28.33
399.468	27.99
399.676	27.78
399.883	27.58
400.09	27.54
400.297	27.06
400.505	26.98
400.712	27.3
400.919	27.44
401.126	27.72
401.333	27.62
401.54	27.61
401.748	27.72
401.955	27.71
402.162	27.88
402.369	27.92
402.576	27.61
402.783	27.45
402.99	27.12
403.197	27.07
403.404	26.88
403.611	27.04
403.818	27.24
404.025	27.26
404.232	27.21
404.439	27.3
404.646	27.22
404.853	27.57
405.06	28.04
405.267	28.1
405.474	27.73
405.681	27.51
405.887	27.67
406.094	27.6
406.301	27.11
406.508	27.48
406.715	27.13
406.922	26.82
407.128	26.55
407.335	25.88
407.542	25.75
407.749	25.9
407.955	26.13
408.162	25.98
408.369	26.17
408.575	26.56
408.782	26.2
408.989	26.18
409.195	26.29
409.402	26.32
409.609	26.4
409.815	26.59
410.022	26.62
410.228	26.71
410.435	26.71
410.642	27.14
410.848	27.3
411.055	27.64
411.261	27.69
411.468	27.63
411.674	27.52
411.881	27.42
412.087	27.38
412.294	27.26
412.5	27.13
412.706	27.08
412.913	26.2
413.119	26.17
413.326	25.63
413.532	26.23
413.738	26.38
413.945	26.47
414.151	26.53
414.357	26.46
414.564	26.72
414.77	26.7
414.976	26.54
415.182	26.92
415.389	26.78
415.595	26.66
415.801	26.4
416.007	26.35
416.214	26.57
416.42	26.66
416.626	26.54
416.832	26.43
417.038	26.29
417.244	26.17
417.45	25.93
417.657	25.83
417.863	26.05
418.069	26.05
418.275	26.2
418.481	26.13
418.687	25.92
418.893	25.72
419.099	25.8
419.305	25.79
419.511	25.79
419.717	25.67
419.923	25.74
420.129	25.6
420.335	25.45
420.541	25.36
420.746	25.23
420.952	25.2
421.158	25.37
421.364	25.24
421.57	25.16
421.776	25.11
421.982	25.08
422.187	25.07
422.393	25.12
422.599	25.1
422.805	24.94
423.01	25.05
423.216	25.06
423.422	24.99
423.628	24.9
423.833	25.02
424.039	24.88
424.245	24.94
424.45	24.8
424.656	24.65
424.862	24.68
425.067	24.71
425.273	24.54
425.478	24.52
425.684	24.67
425.889	24.77
426.095	24.63
426.301	24.66
426.506	24.76
426.712	24.76
426.917	24.96
427.123	24.78
427.328	24.76
427.533	24.76
427.739	24.7
427.944	24.29
428.15	24.27
428.355	24.5
428.561	24.59
428.766	24.23
428.971	24.34
429.177	24.25
429.382	24.32
429.587	24.38
429.793	24.47
429.998	24.45
430.203	24.51
430.408	24.31
430.614	24.4
430.819	24.22
431.024	24.58
431.229	24.38
431.434	24.17
431.64	24.21
431.845	24.03
432.05	24.3
432.255	24.27
432.46	24.37
432.665	24.53
432.87	24.35
433.076	24.48
433.281	24.37
433.486	24.52
433.691	24.65
433.896	24.39
434.101	24.41
434.306	24.11
434.511	24.26
434.716	24.17
434.921	24.03
435.126	24.03
435.331	24.07
435.535	24.16
435.74	24.01
435.945	23.87
436.15	24.05
436.355	23.97
436.56	23.74
436.765	23.67
436.97	23.68
437.174	23.68
437.379	23.51
437.584	23.53
437.789	23.26
437.993	23.37
438.198	23.42
438.403	23.33
438.608	23.28
438.812	23.54
439.017	23.62
439.222	23.51
439.426	23.49
439.631	23.6
439.836	23.71
440.04	23.89
440.245	23.82
440.45	23.97
440.654	24.04
440.859	24.14
441.063	24.08
441.268	24.1
441.472	24.32
441.677	24.5
441.881	24.45
442.086	24.35
442.29	24.41
442.495	24.63
442.699	24.34
442.904	24.42
443.108	24.4
443.312	24.44
443.517	24.39
443.721	24.27
443.925	24.13
444.13	24.1
444.334	24.19
444.538	24.1
444.743	23.9
444.947	24.11
445.151	24.12
445.356	24.16
445.56	24.04
445.764	23.98
445.968	23.9
446.173	23.9
446.377	23.83
446.581	23.77
446.785	23.82
446.989	23.7
447.193	23.61
447.398	23.53
447.602	23.45
447.806	23.42
448.01	23.4
448.214	23.42
448.418	23.27
448.622	23.27
448.826	23.09
449.03	22.95
449.234	22.89
449.438	23.05
449.642	22.97
449.846	23.01
450.05	23.15
450.254	23.27
450.458	23.07
450.662	23.07
450.866	23.06
451.069	23.12
451.273	23.09
451.477	23.14
451.681	23.11
451.885	23.29
452.089	23.31
452.292	23.06
452.496	22.96
452.7	23.34
452.904	23.47
453.107	23.43
453.311	23.57
453.515	23.61
453.719	23.72
453.922	23.62
454.126	23.45
454.33	23.32
454.533	23.3
454.737	23.37
454.94	23.1
455.144	22.85
455.348	22.88
455.551	22.9
455.755	23.07
455.958	23.06
456.162	23.14
456.365	23.09
456.569	23.19
456.772	23.16
456.976	22.99
457.179	22.99
457.383	23.1
457.586	23.06
457.79	22.68
457.993	22.49
458.196	22.46
458.4	22.34
458.603	22.38
458.807	22.33
459.01	22.59
459.213	22.61
459.417	22.66
459.62	22.67
459.823	22.78
460.026	23.02
460.23	23.08
460.433	23.23
460.636	23.41
460.839	23.46
461.042	23.54
461.246	23.5
461.449	23.55
461.652	23.52
461.855	23.43
462.058	23.42
462.261	23.29
462.464	23.2
462.668	23.17
462.871	23.05
463.074	23.01
463.277	22.75
463.48	22.69
463.683	22.6
463.886	22.68
464.089	22.76
464.292	22.7
464.495	22.92
464.698	23.13
464.901	22.94
465.104	22.81
465.306	22.69
465.509	23
465.712	22.97
465.915	22.86
466.118	22.78
466.321	22.9
466.524	22.82
466.726	22.71
466.929	22.58
467.132	22.63
467.335	22.73
467.538	22.65
467.74	22.73
467.943	22.96
468.146	23.1
468.348	22.91
468.551	22.92
468.754	23.14
468.956	23.3
469.159	23.23
469.362	23.37
469.564	23.36
469.767	23.49
469.969	23.59
470.172	23
470.375	23.24
470.577	23.58
470.78	23.45
470.982	23.51
471.185	23.47
471.387	23.47
471.59	23.29
471.792	23.42
471.995	23.45
472.197	23.33
472.399	23.79
472.602	23.53
472.804	23.57
473.007	23.8
473.209	23.67
473.411	23.63
473.614	23.65
473.816	23.82
474.018	23.72
474.22	23.93
474.423	23.85
474.625	23.96
474.827	24.33
475.03	24.22
475.232	23.98
475.434	23.96
475.636	23.93
475.838	24.03
476.04	23.94
476.243	24.04
476.445	23.95
476.647	23.94
476.849	23.64
477.051	23.24
477.253	23.26
477.455	23.4
477.657	23.47
477.859	23.6
478.061	23.61
478.263	23.55
478.465	23.4
478.667	23.45
478.869	23.49
479.071	23.49
479.273	23.71
479.475	23.65
479.677	23.62
479.879	23.52
480.081	23.46
480.283	23.41
480.485	23.61
480.686	23.61
480.888	23.52
481.09	23.62
481.292	23.67
481.494	23.51
481.695	23.55
481.897	23.54
482.099	23.54
482.301	23.44
482.502	23.47
482.704	23.4
482.906	23.36
483.107	23.3
483.309	23.18
483.511	23.14
483.712	23.11
483.914	23.13
484.115	23.21
484.317	23.18
484.519	23.26
484.72	23.25
484.922	23.23
485.123	23.27
485.325	23.35
485.526	23.42
485.728	23.48
485.929	23.56
486.131	23.51
486.332	23.42
486.534	23.44
486.735	23.33
486.936	23.35
487.138	23.39
487.339	23.31
487.541	23.27
487.742	23.25
487.943	23.23
488.144	23.2
488.346	23.31
488.547	23.34
488.748	23.32
488.95	23.35
489.151	23.31
489.352	23.28
489.553	23.34
489.755	23.43
489.956	23.4
490.157	23.45
490.358	23.45
490.559	23.29
490.76	23.29
490.961	23.41
491.163	23.32
491.364	23.35
491.565	23.35
491.766	23.37
491.967	23.23
492.168	23.34
492.369	23.37
492.57	23.4
492.771	23.46
492.972	23.38
493.173	23.39
493.374	23.5
493.575	23.45
493.776	23.4
493.976	23.39
494.177	23.56
494.378	23.53
494.579	23.51
494.78	23.58
494.981	23.59
495.182	23.76
495.382	23.82
495.583	23.82
495.784	23.97
495.985	24.02
496.185	24.05
496.386	23.86
496.587	23.89
496.788	23.88
496.988	23.95
497.189	23.97
497.39	24.01
497.59	23.84
497.791	23.84
497.992	23.88
498.192	23.86
498.393	23.88
498.593	23.99
498.794	24.06
498.994	24.12
499.195	24.15
499.395	24.11
499.596	24.06
499.796	24.17
499.997	24.21
500.197	24.05
500.398	24.15
500.598	24.09
500.799	24.21
500.999	24.33
501.199	24.3
501.4	24.23
501.6	24.29
501.801	24.46
502.001	24.29
502.201	24.39
502.402	24.49
502.602	24.57
502.802	24.72
503.002	24.8
503.203	24.64
503.403	24.78
503.603	24.89
503.803	25.14
504.003	25.15
504.204	25.55
504.404	25.61
504.604	25.54
504.804	25.56
505.004	25.57
505.204	25.53
505.404	25.7
505.604	25.65
505.804	25.7
506.005	25.65
506.205	25.77
506.405	25.75
506.605	25.68
506.805	25.81
507.005	25.92
507.204	26.05
507.404	26.2
507.604	26.31
507.804	26.43
508.004	26.35
508.204	26.5
508.404	26.46
508.604	26.51
508.804	26.53
509.003	26.57
509.203	26.64
509.403	26.68
509.603	26.79
509.803	26.58
510.002	26.62
510.202	26.89
510.402	26.9
510.602	26.92
510.801	26.83
511.001	26.98
511.201	27.01
511.4	27.05
511.6	27.07
511.8	26.95
511.999	27.12
512.199	27.05
512.398	27
512.598	26.97
512.797	26.84
512.997	26.96
513.197	27.07
513.396	27.07
513.596	27.06
513.795	27.06
513.994	27.3
514.194	27.36
514.393	27.57
514.593	27.65
514.792	27.68
514.992	27.78
515.191	28
515.39	27.93
515.59	28.12
515.789	28.19
515.988	28.19
516.188	28.09
516.387	28.04
516.586	28.12
516.786	28.16
516.985	28.28
517.184	28.37
517.383	28.21
517.582	28.15
517.782	28.1
517.981	27.99
518.18	28.16
518.379	28.28
518.578	28.34
518.777	28.35
518.976	28.47
519.176	28.43
519.375	28.58
519.574	28.65
519.773	28.76
519.972	28.79
520.171	29.02
520.37	28.95
520.569	28.86
520.768	28.88
520.967	29.17
521.166	29.21
521.365	29.3
521.564	29.24
521.762	29.29
521.961	29.27
522.16	29.37
522.359	29.25
522.558	29.4
522.757	29.61
522.956	29.68
523.154	29.47
523.353	29.44
523.552	29.49
523.751	29.66
523.949	29.74
524.148	29.93
524.347	30.03
524.546	30.13
524.744	30.15
524.943	30.07
525.142	30.15
525.34	30.22
525.539	30.27
525.737	30.26
525.936	30.22
526.135	30.22
526.333	30.29
526.532	30.31
526.73	30.45
526.929	30.51
527.127	30.65
527.326	30.7
527.524	30.69
527.723	30.81
527.921	30.87
528.12	30.78
528.318	30.8
528.516	30.77
528.715	30.83
528.913	30.84
529.112	30.83
529.31	30.86
529.508	30.86
529.707	30.96
529.905	30.83
530.103	30.8
530.301	30.95
530.5	31.01
530.698	31
530.896	31.12
531.094	31.07
531.293	31.08
531.491	31.03
531.689	31.02
531.887	30.86
532.085	30.86
532.283	30.96
532.481	30.97
532.68	31.04
532.878	31.12
533.076	31.06
533.274	31.12
533.472	31.12
533.67	31.09
533.868	31.2
534.066	31.33
534.264	31.41
534.462	31.47
534.66	31.53
534.858	31.61
535.056	31.64
535.253	31.65
535.451	31.78
535.649	31.87
535.847	31.83
536.045	31.89
536.243	31.94
536.441	32.01
536.638	32.01
536.836	32.04
537.034	31.95
537.232	32.03
537.43	32.02
537.627	31.99
537.825	32.06
538.023	32.26
538.22	32.32
538.418	32.3
538.616	32.43
538.813	32.4
539.011	32.48
539.209	32.51
539.406	32.27
539.604	32.23
539.801	32.14
539.999	32.1
540.196	32.12
540.394	31.99
540.591	32.11
540.789	32.17
540.986	32.18
541.184	32.08
541.381	32.15
541.579	32.31
541.776	32.4
541.974	32.53
542.171	32.56
542.368	32.6
542.566	32.7
542.763	32.58
542.96	32.52
543.158	32.63
543.355	32.66
543.552	32.53
543.75	32.59
543.947	32.57
544.144	32.65
544.341	32.64
544.539	32.77
544.736	32.68
544.933	32.9
545.13	32.89
545.327	32.83
545.524	33.01
545.722	33.17
545.919	33.29
546.116	33.44
546.313	33.41
546.51	33.59
546.707	33.52
546.904	33.63
547.101	33.7
547.298	33.78
547.495	33.88
547.692	33.79
547.889	33.88
548.086	33.74
548.283	33.66
548.48	33.52
548.677	33.31
548.874	33.31
549.07	33.31
549.267	33.21
549.464	33.11
549.661	33.1
549.858	33.08
550.055	33.11
550.251	33.13
550.448	33.15
550.645	33.49
550.842	33.8
551.038	33.77
551.235	33.81
551.432	33.73
551.628	33.82
551.825	33.95
552.022	34.24
552.218	34.12
552.415	34.18
552.612	34.12
552.808	34.21
553.005	34.2
553.201	34.23
553.398	34.26
553.594	34.42
553.791	34.43
553.987	34.35
554.184	34.12
554.38	34.27
554.577	34.48
554.773	34.7
554.97	34.55
555.166	34.4
555.362	34.57
555.559	34.61
555.755	34.59
555.952	34.67
556.148	34.79
556.344	34.97
556.541	35.04
556.737	35.04
556.933	35.06
557.129	35.07
557.326	35.17
557.522	35.03
557.718	34.97
557.914	34.95
558.11	34.92
558.307	34.78
558.503	34.88
558.699	35.05
558.895	34.81
559.091	34.53
559.287	34.52
559.483	34.73
559.679	34.88
559.876	35.1
560.072	34.92
560.268	35.17
560.464	35.29
560.66	34.96
560.856	34.75
561.052	34.88
561.247	35.07
561.443	35.2
561.639	35.21
561.835	35.34
562.031	35.36
562.227	35.64
562.423	35.81
562.619	35.7
562.815	36.12
563.01	36.19
563.206	36.46
563.402	36.61
563.598	36.66
563.793	36.56
563.989	36.39
564.185	36.3
564.381	36.32
564.576	36.11
564.772	36.27
564.968	36.09
565.163	36.17
565.359	36.1
565.555	36.2
565.75	36.41
565.946	36.59
566.141	36.82
566.337	37.02
566.532	37.27
566.728	37.29
566.923	37.37
567.119	37.3
567.314	37.31
567.51	37.14
567.705	37.13
567.901	36.88
568.096	36.86
568.292	36.74
568.487	36.69
568.682	36.41
568.878	36.51
569.073	36.51
569.268	36.84
569.464	36.69
569.659	36.84
569.854	37.05
570.05	37.22
570.245	37.15
570.44	37.38
570.635	37.5
570.831	37.8
571.026	37.79
571.221	37.72
571.416	37.64
571.611	38.02
571.806	38.12
572.002	38.06
572.197	38.2
572.392	38.33
572.587	38.23
572.782	38.27
572.977	38.25
573.172	38.24
573.367	38.33
573.562	38.39
573.757	38.18
573.952	38.27
574.147	38.38
574.342	38.18
574.537	38.27
574.732	38.31
574.927	38.31
575.121	38.33
575.316	38.43
575.511	38.46
575.706	38.65
575.901	38.81
576.096	38.61
576.29	38.26
576.485	38.2
576.68	37.97
576.875	38.1
577.069	38.07
577.264	38.11
577.459	38.12
577.654	38.24
577.848	38.17
578.043	38.27
578.238	38.81
578.432	39.13
578.627	39.46
578.821	39.43
579.016	39.41
579.21	39.31
579.405	39.06
579.6	39.29
579.794	39.19
579.989	38.9
580.183	38.66
580.378	38.48
580.572	38.66
580.766	38.56
580.961	38.92
581.155	39.03
581.35	39.14
581.544	39.29
581.738	39.21
581.933	39.16
582.127	39.52
582.321	39.84
582.516	39.6
582.71	39.55
582.904	39.53
583.099	39.38
583.293	39.22
583.487	39.44
583.681	39.74
583.875	39.63
584.07	39.87
584.264	39.82
584.458	39.82
584.652	40.03
584.846	40.04
585.04	40.07
585.234	40.22
585.428	40.07
585.623	39.95
585.817	39.66
586.011	39.83
586.205	39.93
586.399	39.79
586.593	39.68
586.787	39.88
586.981	39.62
587.174	39.61
587.368	39.69
587.562	39.87
587.756	39.79
587.95	39.69
588.144	39.59
588.338	39.33
588.532	39.71
588.725	39.85
588.919	39.61
589.113	39.81
589.307	39.89
589.501	39.87
589.694	39.86
589.888	40.08
590.082	40.19
590.275	40.07
590.469	40.19
590.663	39.97
590.856	39.9
591.05	39.79
591.244	39.91
591.437	39.82
591.631	39.74
591.824	39.61
592.018	39.36
592.212	39.16
592.405	39.46
592.599	39.58
592.792	39.75
592.986	39.89
593.179	39.87
593.372	39.72
593.566	39.48
593.759	39.28
593.953	39.63
594.146	39.75
594.339	40.13
594.533	39.98
594.726	39.86
594.92	39.7
595.113	39.77
595.306	40.03
595.499	40.15
595.693	40.73
595.886	41.14
596.079	41.05
596.272	41.11
596.466	40.95
596.659	40.92
596.852	41.02
597.045	41.17
597.238	40.96
597.431	40.95
597.624	40.97
597.818	40.86
598.011	40.8
598.204	40.69
598.397	40.52
598.59	40.45
598.783	40.83
598.976	40.65
599.169	40.58
599.362	40.39
599.555	40.31
599.748	40.22
599.941	40.11
600.134	40.22
600.326	40.51
600.519	40.78
600.712	40.88
600.905	40.5
601.098	40.62
601.291	40.56
601.483	41.1
601.676	41.44
601.869	41.49
602.062	41.64
602.255	41.53
602.447	41.39
602.64	41.22
602.833	41.27
603.025	41.59
603.218	41.71
603.411	41.88
603.603	41.99
603.796	41.63
603.989	41.68
604.181	41.66
604.374	41.57
604.566	41.73
604.759	41.9
604.951	42.1
605.144	42.02
605.336	42.33
605.529	42.25
605.721	42.23
605.914	42.44
606.106	42.65
606.299	42.8
606.491	42.95
606.683	42.8
606.876	42.67
607.068	42.47
607.26	42.47
607.453	41.91
607.645	41.89
607.837	41.64
608.03	41.82
608.222	41.58
608.414	41.4
608.606	41.48
608.799	41.64
608.991	41.76
609.183	41.89
609.375	41.74
609.567	42.12
609.759	42.31
609.952	42.55
610.144	42.47
610.336	42.53
610.528	42.43
610.72	42.15
610.912	42
611.104	41.91
611.296	41.93
611.488	41.98
611.68	41.7
611.872	41.53
612.064	41.38
612.256	41.11
612.448	41.09
612.64	41.26
612.832	41.27
613.023	41.36
613.215	41.37
613.407	41.44
613.599	41.59
613.791	41.54
613.983	41.64
614.174	41.75
614.366	41.77
614.558	41.75
614.75	41.78
614.941	41.98
615.133	42.25
615.325	42.5
615.516	42.24
615.708	42.14
615.9	42.26
616.091	42.03
616.283	41.96
616.475	42.43
616.666	42.38
616.858	42.46
617.049	42.63
617.241	42.46
617.432	42.56
617.624	42.8
617.815	42.74
618.007	42.76
618.198	42.88
618.39	42.79
618.581	42.66
618.773	42.83
618.964	42.54
619.155	42.45
619.347	42.37
619.538	42.52
619.729	42.12
619.921	42.4
620.112	42.52
620.303	42.95
620.494	42.88
620.686	42.65
620.877	42.68
621.068	42.84
621.259	42.77
621.451	42.56
621.642	41.92
621.833	42
622.024	41.93
622.215	41.78
622.406	41.17
622.597	41.35
622.788	41.75
622.98	41.87
623.171	41.88
623.362	42.01
623.553	42.23
623.744	42.58
623.935	43.06
624.126	42.75
624.317	43.07
624.508	43.36
624.698	43.53
624.889	43.4
625.08	43.21
625.271	43.28
625.462	43.54
625.653	43.48
625.844	43.32
626.034	42.89
626.225	43.18
626.416	42.53
626.607	42.54
626.798	42.26
626.988	42.58
627.179	42.49
627.37	42.77
627.56	42.64
627.751	42.71
627.942	42.78
628.132	43.3
628.323	43.11
628.514	43.66
628.704	43.28
628.895	43.42
629.085	42.91
629.276	42.89
629.466	42.86
629.657	42.6
629.847	42.48
630.038	42.59
630.228	42.27
630.419	42.38
630.609	42.32
630.8	42.94
630.99	42.81
631.181	42.83
631.371	42.69
631.561	42.66
631.752	42.74
631.942	42.86
632.132	42.93
632.323	43.24
632.513	43.21
632.703	43.25
632.893	43.3
633.084	43.56
633.274	43.73
633.464	43.89
633.654	43.43
633.844	43.35
634.034	43.74
634.225	43.55
634.415	43.21
634.605	42.92
634.795	42.82
634.985	42.86
635.175	42.72
635.365	42.48
635.555	42.86
635.745	42.93
635.935	43.12
636.125	42.75
636.315	42.7
636.505	42.82
636.695	43.32
636.885	43.2
637.075	43.13
637.265	43.43
637.455	43.97
637.644	43.52
637.834	43.78
638.024	44.02
638.214	43.95
638.404	44.22
638.593	44.06
638.783	43.83
638.973	43.61
639.163	43.78
639.352	43.73
639.542	43.41
639.732	43.41
639.921	43.41
640.111	43.4
640.301	43.28
640.49	43.02
640.68	43.19
640.87	43.28
641.059	43.75
641.249	43
641.438	43.24
641.628	42.88
641.817	42.94
642.007	42.71
642.196	42.36
642.386	42.83
642.575	42.96
642.764	42.8
642.954	43.09
643.143	43.22
643.333	43.42
643.522	43.01
643.711	43.39
643.901	43.56
644.09	43.83
644.279	43.8
644.469	43.85
644.658	43.73
644.847	43.65
645.036	43.71
645.226	43.7
645.415	43.72
645.604	43.43
645.793	43.02
645.982	42.85
646.171	42.78
646.361	43.25
646.55	43.03
646.739	43.15
646.928	43.31
647.117	42.73
647.306	42.34
647.495	42.79
647.684	43.26
647.873	43.76
648.062	44.04
648.251	44.05
648.44	44.04
648.629	43.93
648.818	44.24
649.007	44.37
649.196	44.41
649.384	44.82
649.573	44.63
649.762	44.1
649.951	44.24
650.14	43.99
650.328	44.25
650.517	44.37
650.706	44.18
650.895	44.27
651.083	44.01
651.272	44.35
651.461	44.1
651.65	43.94
651.838	44.43
652.027	44.36
652.216	44.55
652.404	44.19
652.593	43.83
652.781	44.58
652.97	44.26
653.158	44.35
653.347	44.84
653.535	44.82
653.724	44.94
653.912	44.47
654.101	44.67
654.289	44.56
654.478	44.81
654.666	44.81
654.855	44.24
655.043	44.45
655.231	44.7
655.42	44.34
655.608	43.85
655.796	43.36
655.985	43.82
656.173	43.04
656.361	42.75
656.55	42.54
656.738	42.42
656.926	42.5
657.114	42.17
657.302	42.14
657.491	42.19
657.679	42.96
657.867	43.28
658.055	43.36
658.243	43.52
658.431	43.65
658.619	43.54
658.807	43.67
658.996	43.88
659.184	43.74
659.372	43.91
659.56	43.66
659.748	43.68
659.936	43.79
660.124	43.73
660.311	43.9
660.499	44.11
660.687	44.59
660.875	44.68
661.063	44.59
661.251	45.05
661.439	44.95
661.627	44.97
661.814	44.94
662.002	44.82
662.19	44.97
662.378	45.26
662.565	45.26
662.753	45.05
662.941	44.91
663.129	44.91
663.316	44.58
663.504	44.31
663.692	44.66
663.879	44.56
664.067	44.77
664.254	44.27
664.442	43.69
664.63	43.56
664.817	43.37
665.005	43.36
665.192	43.12
665.38	43.41
665.567	43.25
665.755	42.81
665.942	42.9
666.13	42.71
666.317	43.04
666.504	43.45
666.692	42.86
666.879	42.75
667.067	43.52
667.254	43.48
667.441	43.09
667.629	43.23
667.816	43.21
668.003	43.1
668.19	43.01
668.378	43.1
668.565	43.63
668.752	44.12
668.939	44.29
669.127	44.28
669.314	44.76
669.501	44.54
669.688	44.67
669.875	44.87
670.062	44.41
670.249	44.71
670.436	44.67
670.623	44.56
670.81	44.67
670.997	44.83
671.184	43.59
671.371	43.28
671.558	43.56
671.745	43.81
671.932	43.83
672.119	43.96
672.306	44.04
672.493	44.31
672.68	43.47
672.867	43.69
673.054	43.22
673.24	43.87
673.427	43.69
673.614	44.07
673.801	44.56
673.988	44.33
674.174	44.69
674.361	44.55
674.548	44.27
674.734	44.66
674.921	44.19
675.108	45.25
675.294	45.79
675.481	46.12
675.668	46.07
675.854	45.3
676.041	45.97
676.227	46.31
676.414	46.15
676.601	46.11
676.787	46.26
676.974	46.76
677.16	45.6
677.347	45.16
677.533	45.03
677.719	44.39
677.906	44.16
678.092	43.82
678.279	43.49
678.465	43.15
678.651	43.3
678.838	43.23
679.024	43.23
679.21	43.19
679.397	43.22
679.583	43.33
679.769	43.95
679.955	44.16
680.142	44.09
680.328	43.72
680.514	44.07
680.7	44.16
680.886	44.16
681.073	43.85
681.259	44.05
681.445	44.17
681.631	44.08
681.817	43.64
682.003	43.66
682.189	44.14
682.375	45.03
682.561	44.91
682.747	44.26
682.933	44.07
683.119	44.42
683.305	44.22
683.491	44.3
683.677	44.09
683.863	44.79
684.049	45.2
684.235	44.72
684.42	44.29
684.606	44.56
684.792	45.03
684.978	45.1
685.164	44.95
685.349	45.66
685.535	45.19
685.721	46.11
685.907	46
686.092	46.22
686.278	46.53
686.464	46.61
686.649	46.84
686.835	46.52
687.021	46.61
687.206	46.73
687.392	46.34
687.577	46.38
687.763	45.52
687.948	45.38
688.134	44.79
688.319	44.4
688.505	44.37
688.69	44.43
688.876	44.35
689.061	44.46
689.247	44.21
689.432	44.53
689.618	44.8
689.803	45.26
689.988	45.29
690.174	45.34
690.359	45.22
690.544	45.13
690.73	45.33
690.915	45.68
691.1	45.27
691.285	45.7
691.471	45.7
691.656	45.69
691.841	45.74
692.026	45.94
692.211	46.09
692.396	46.2
692.582	45.65
692.767	45.72
692.952	46.17
693.137	46.79
693.322	46.55
693.507	46.42
693.692	46.47
693.877	46.22
694.062	46.31
694.247	45.8
694.432	46.17
694.617	47
694.802	45.49
694.987	45.2
695.172	44.82
695.357	44.82
695.541	44.98
695.726	44.79
695.911	44.89
696.096	44.69
696.281	45.25
696.466	44.85
696.65	44.68
696.835	45.56
697.02	45.48
697.204	44.96
697.389	45.3
697.574	44.82
697.759	44.91
697.943	44.81
698.128	44.86
698.312	44.48
698.497	44.62
698.682	44.84
698.866	44.8
699.051	45.07
699.235	45.52
699.42	45.43
699.604	45.63
699.789	45.6
699.973	45.53
700.158	44.7
700.342	45.19
700.527	45.23
700.711	44.67
700.895	44.36
701.08	44.21
701.264	44.35
701.448	44.23
701.633	44.09
701.817	44.53
702.001	44.85
702.186	45.74
702.37	46.06
702.554	45.58
702.738	46.18
702.923	46.24
703.107	46.57
703.291	46.63
703.475	46.42
703.659	46.83
703.843	46.2
704.027	46.42
704.212	46.88
704.396	46.74
704.58	47.5
704.764	48.09
704.948	48.24
705.132	47.86
705.316	47.14
705.5	47.35
705.684	47.59
705.868	46.54
706.052	46.45
706.235	46.2
706.419	46
706.603	45.15
706.787	44.21
706.971	43.94
707.155	43.52
707.339	44.23
707.522	44.43
707.706	44.22
707.89	45.4
708.074	44.6
708.257	44.03
708.441	44.63
708.625	45.65
708.808	45.6
708.992	45.36
709.176	45.27
709.359	45.22
709.543	44.9
709.727	44.54
709.91	44.86
710.094	45.68
710.277	46.08
710.461	45.81
710.644	45.68
710.828	46.09
711.011	46.04
711.195	46.11
711.378	46.17
711.562	45.88
711.745	46.01
711.928	44.98
712.112	44.62
712.295	44.3
712.478	44.32
712.662	44.12
712.845	44.72
713.028	45.21
713.212	44.89
713.395	44.96
713.578	45.53
713.761	45.12
713.945	45.67
714.128	45.69
714.311	45.36
714.494	45.38
714.677	44.93
714.86	44.1
715.043	44.26
715.227	44.95
715.41	43.95
715.593	43.48
715.776	43.32
715.959	44.24
716.142	43.87
716.325	43.86
716.508	42.62
716.691	42.74
716.874	42.84
717.057	42.84
717.239	42.24
717.422	42.69
717.605	42.23
717.788	42.55
717.971	41.44
718.154	42.33
718.337	43.49
718.519	44.11
718.702	44.03
718.885	43.8
719.068	44.2
719.25	44.57
719.433	44.34
719.616	45.37
719.798	45.69
719.981	45.77
720.164	44.96
720.346	43.89
720.529	42.33
720.712	42.88
720.894	43.4
721.077	42.73
721.259	42.5
721.442	42.89
721.624	42.1
721.807	41.47
721.989	41.03
722.172	40.81
722.354	41.55
722.537	42.53
722.719	42.02
722.901	42.05
723.084	41.96
723.266	40.92
723.448	41.59
723.631	41.82
723.813	42.2
723.995	43.2
724.178	43.75
724.36	43.82
724.542	44.4
724.724	45.03
724.907	43.69
725.089	44.56
725.271	44.84
725.453	44.09
725.635	44.55
725.817	44.02
725.999	45.07
726.181	44.57
726.364	44.37
726.546	45.81
726.728	44.86
726.91	45.68
727.092	44.44
727.274	44.95
727.456	45.34
727.638	44.74
727.819	46.71
728.001	45
728.183	45.9
728.365	46.3
728.547	45.53
728.729	45.85
728.911	45.48
729.093	45.49
729.274	45.43
729.456	45.22
729.638	44.78
729.82	43.28
730.001	42.74
730.183	42.66
730.365	42.82
730.546	42.13
730.728	42.64
730.91	43.29
731.091	44.45
731.273	44.17
731.455	43.77
731.636	44.32
731.818	45.06
731.999	45.9
732.181	45
732.362	43.87
732.544	44.27
732.725	43.71
732.907	43.85
733.088	42.84
733.27	43.97
733.451	44.11
733.633	44
733.814	43.5
733.995	42.34
734.177	42.78
734.358	43.59
734.539	43.5
734.721	43.88
734.902	42.95
735.083	44.04
735.264	43.32
735.446	42.73
735.627	43.66
735.808	43.86
735.989	45.93
736.17	45.74
736.351	45.35
736.533	45
736.714	45.66
736.895	47.39
737.076	45.97
737.257	46.46
737.438	47.36
737.619	46.61
737.8	46.1
737.981	44.34
738.162	45.39
738.343	45.79
738.524	45.64
738.705	45.45
738.886	43.85
739.067	43.36
739.247	42.52
739.428	42.01
739.609	42.59
739.79	44.15
739.971	44.69
740.151	43.91
740.332	42.92
740.513	42.39
740.694	40.99
740.874	42.52
741.055	43.79
741.236	45.41
741.417	47.19
741.597	47.83
741.778	46.71
741.958	47.09
742.139	47.64
742.32	47.86
742.5	49.15
742.681	50.75
742.861	50.19
743.042	50.4
743.222	49.26
743.403	47.64
743.583	46.23
743.764	45.98
743.944	46.25
744.124	46.27
744.305	45.92
744.485	44.48
744.666	44.78
744.846	43.02
745.026	42.01
745.207	43.58
745.387	44.19
745.567	44.32
745.747	43.89
745.928	42.93
746.108	43.9
746.288	44.76
746.468	45.6
746.648	44.93
746.829	46.6
747.009	47.35
747.189	47.18
747.369	47.01
747.549	46.28
747.729	46.25
747.909	46.03
748.089	44.79
748.269	44.68
748.449	45.28
748.629	45.14
748.809	44.83
748.989	45.08
749.169	43.78
749.349	41.84
749.529	42.84
749.709	43.34
749.889	44.33
750.068	45.41
750.248	46.13
750.428	46.02
750.608	45.76
750.788	47.18
750.967	47.64
751.147	48.57
751.327	50.45
751.507	50.12
751.686	50.17
751.866	49.99
752.046	48.7
752.225	48.94
752.405	48.9
752.585	49.32
752.764	48.02
752.944	47.98
753.123	47.37
753.303	46.44
753.482	46.37
753.662	46.72
753.841	46.73
754.021	47.12
754.2	47.53
754.38	47.32
754.559	45.96
754.739	45.15
754.918	44.74
755.097	43.82
755.277	45.02
755.456	44.64
755.635	44.51
755.815	46.14
755.994	45.78
756.173	43.46
756.352	44.35
756.532	45.07
756.711	45.91
756.89	45.4
757.069	46.68
757.248	45.66
757.427	46.95
757.607	45.4
757.786	43.43
757.965	41.74
758.144	42.93
758.323	42.4
758.502	42.73
758.681	42.88
758.86	43.25
759.039	41.65
759.218	43.52
759.397	41.71
759.576	41.59
759.755	41.18
759.934	42.52
760.113	42.18
760.291	41.82
760.47	41.39
760.649	40.93
760.828	41.32
761.007	41.56
761.186	41.01
761.364	41.32
761.543	41.79
761.722	41.93
761.901	41.96
762.079	42.43
762.258	42.66
762.437	43.43
762.615	43.93
762.794	44
762.972	44.62
763.151	44.27
763.33	44.49
763.508	45.59
763.687	45.91
763.865	46.57
764.044	46.66
764.222	46.63
764.401	45.65
764.579	45.7
764.758	45.48
764.936	45.96
765.114	46.4
765.293	46.89
765.471	45.17
765.65	46.05
765.828	46.06
766.006	45.25
766.184	44.77
766.363	45.87
766.541	45.87
766.719	46.92
766.898	46.11
767.076	44.9
767.254	43.86
767.432	44.96
767.61	43.83
767.788	43.48
767.967	44.78
768.145	45.32
768.323	45.11
768.501	44.93
768.679	43.1
768.857	42.89
769.035	43.39
769.213	46.3
769.391	46.54
769.569	46.83
769.747	47.55
769.925	45.19
770.103	44.45
770.281	44.59
770.459	44.16
770.636	45.55
770.814	47.66
770.992	48.95
771.17	46.38
771.348	46.98
771.525	47.54
771.703	45.86
771.881	49.99
772.059	51.24
772.236	50.02
772.414	48.16
772.592	47.74
772.769	46.89
772.947	46.34
773.125	47.9
773.302	47.74
773.48	45.28
773.657	45.39
773.835	45.19
774.013	44.03
774.19	43.48
774.368	43.44
774.545	42.91
774.723	42.15
774.9	39.62
775.077	39.32
775.255	39.11
775.432	40.48
775.61	41.39
775.787	39.67
775.964	39.41
776.142	39.41
776.319	39.85
776.496	39.38
776.674	39.22
776.851	40.17
777.028	40.1
777.205	41.56
777.382	42.68
777.56	42.15
777.737	40.64
777.914	37.59
778.091	38.87
778.268	40.27
778.445	40.84
778.622	40.15
778.8	41.78
778.977	40.61
779.154	38.49
779.331	34.66
779.508	34.77
779.685	37.1
779.862	39.11
780.038	38.44
780.215	38.66
780.392	39.99
780.569	40.08
780.746	39.1
780.923	40.09
781.1	44.27
781.277	46.13
781.453	45.74
781.63	43.77
781.807	48.25
781.984	51.66
782.16	52.23
782.337	49.66
782.514	49.49
782.691	48.63
782.867	47.91
783.044	44.88
783.221	44.91
783.397	45.68
783.574	45.31
783.75	44.91
783.927	42.93
784.103	43.75
784.28	45.35
784.456	46.38
784.633	46.2
784.809	50.68
784.986	51.93
785.162	52.45
785.339	52.67
785.515	53.18
785.692	51.32
785.868	48.8
786.044	46.05
786.221	44.01
786.397	45.16
786.573	47.47
786.749	43.77
786.926	41.11
787.102	42.88
787.278	44.34
787.454	42.79
787.631	42.64
787.807	42.64
787.983	43.67
788.159	45.32
788.335	40.91
788.511	39.34
788.687	36.97
788.863	40.49
789.039	38.78
789.216	39.2
789.392	40.53
789.568	41.15
789.744	43.76
789.919	44.34
790.095	43.79
790.271	47.53
790.447	49.38
790.623	51
790.799	48.37
790.975	50.69
791.151	46.37
791.327	49.96
791.502	47.16
791.678	45.22
791.854	44.48
792.03	46.21
792.205	45.82
792.381	42.98
792.557	43.11
792.733	42.59
792.908	40.66
793.084	44.51
793.259	40.09
793.435	42.02
793.611	44.69
793.786	46.56
793.962	44.24
794.137	43.77
794.313	42.51
794.488	44.19
794.664	45.99
794.839	44.83
795.015	40.59
795.19	40.61
795.366	40.9
795.541	40.47
795.716	38.39
795.892	37.52
796.067	36.99
796.242	38.68
796.418	40.45
796.593	39.54
796.768	41.74
796.944	41.36
797.119	42.64
797.294	42.03
797.469	39.01
797.644	37.39
797.82	39.42
797.995	40.02
798.17	42.94
798.345	36.9
798.52	35.68
798.695	33.37
798.87	36.94
799.045	37.46
799.22	31.06
799.395	32.26
799.57	34.79
799.745	30.83
799.92	28.38
800.095	24.54
800.27	26.86
800.445	32.2
800.62	35.52
800.795	34.15
800.97	33.28
801.145	39.11
801.319	38.14
801.494	36.23
801.669	39.91
801.844	38.56
802.018	41.7
802.193	45.6
802.368	39.52
802.543	40.77
802.717	38.51
802.892	41.89
803.067	40.7
803.241	43.87
803.416	46.49
803.59	48.06
803.765	51.04
803.94	48.58
804.114	46.63
804.289	48.93
804.463	46.55
804.638	50.56
804.812	44.7
804.986	50.19
805.161	48.23
805.335	50.13
805.51	43.51
805.684	44.58
805.858	45.31
806.033	43.11
806.207	40.41
806.381	42.06
806.556	39.31
806.73	42.89
806.904	38.39
807.078	39.74
807.253	33.52
807.427	38.1
807.601	37.17
807.775	38.64
807.949	39.81
808.123	41.94
808.298	38.18
808.472	39.98
808.646	40.1
808.82	40.65
808.994	37.9
809.168	45.16
809.342	45.33
809.516	45.32
809.69	44.58
809.864	44.95
810.038	46.38
810.212	48.78
810.385	48.88
810.559	46
810.733	50.64
810.907	52.56
811.081	46.28
811.255	44.25
811.428	42.83
811.602	39.12
811.776	36.75
811.95	39.12
812.123	37.68
812.297	33.82
812.471	31.97
812.644	24.81
812.818	24.7
812.992	25.78
813.165	24.1
813.339	22.89
813.512	31.65
813.686	34.58
813.86	33.75
814.033	31.34
814.207	31.35
814.38	34.94
814.554	43.29
814.727	42.06
814.9	39.47
815.074	45
815.247	50.93
815.421	40.19
815.594	36.92
815.767	36.34
815.941	41.47
816.114	43.41
816.287	45.52
816.46	40.05
816.634	36.41
816.807	42.17
816.98	39.4
817.153	38.3
817.327	41.79
817.5	43.97
817.673	42.51
817.846	43.82
818.019	44.3
818.192	42.69
818.365	46.41
818.538	49.97
818.711	45.83
818.884	44.25
819.057	45.27
819.23	42.3
819.403	39.25
819.576	44.15
819.749	44.62
819.922	45.69
820.095	46.01
820.268	44.76
820.441	45.16
820.614	47.66
820.786	49.45
820.959	48.25
821.132	49.49
821.305	48.72
821.477	48.02
821.65	48.41
821.823	48.2
821.996	46.52
822.168	45.71
822.341	44.98
822.514	44.18
822.686	43.63
822.859	44.12
823.031	44.48
823.204	45.04
823.376	45.25
823.549	44.23
823.722	43.19
823.894	44.11
824.067	45.07
824.239	45.46
824.411	45.74
824.584	45.25
824.756	44.78
824.929	43.45
825.101	41.92
825.273	40.49
825.446	40.51
825.618	41.46
825.79	40.08
825.963	40.63
826.135	41.48
826.307	42.11
826.479	41.96
826.652	41.96
826.824	43.35
826.996	45.2
827.168	46.62
827.34	46.25
827.512	46.39
827.684	48.62
827.856	46.16
828.029	45.22
828.201	43.27
828.373	44.8
828.545	44.06
828.717	43.47
828.889	41.68
829.061	41.12
829.232	40.01
829.404	38.47
829.576	35.96
829.748	37.23
829.92	37.34
830.092	40.72
830.264	37.92
830.436	38.59
830.607	39.44
830.779	39.63
830.951	34.75
831.123	41.58
831.294	47.5
831.466	49.27
831.638	46.06
831.809	46.91
831.981	39.17
832.153	44.43
832.324	44.25
832.496	45.19
832.667	49.24
832.839	52.06
833.011	43.09
833.182	39.67
833.354	37.42
833.525	41.68
833.697	41.11
833.868	49.05
834.039	43.76
834.211	44.16
834.382	42.07
834.554	42.43
834.725	40.63
834.896	44.09
835.068	43.35
835.239	42.27
835.41	40.23
835.581	35.85
835.753	31.8
835.924	36
836.095	34.28
836.266	35.57
836.438	29.44
836.609	32.08
836.78	31.97
836.951	32.65
837.122	38.45
837.293	33.34
837.464	41.06
837.635	39.13
837.806	39.56
837.977	42.83
838.148	40.45
838.319	49.09
838.49	49.98
838.661	40.7
838.832	39.03
839.003	30.5
839.174	43.72
839.345	32.73
839.516	32.97
839.687	32.3
839.857	35.65
840.028	35.97
840.199	40.02
840.37	37.66
840.54	47.41
840.711	43.83
840.882	43.64
841.053	42.74
841.223	50.29
841.394	53.32
841.564	53.91
841.735	45.01
841.906	46.17
842.076	40.44
842.247	45.58
842.417	44.81
842.588	49.48
842.758	53.44
842.929	53.77
843.099	54.16
843.27	48.55
843.44	47.23
843.611	52.32
843.781	47.72
843.951	20.86
844.122	19.15
844.292	21.32
844.462	28.9
844.633	28.07
844.803	10.06
844.973	16.5
845.144	18.14
845.314	29.76
845.484	45.58
845.654	44.56
845.824	72.71
845.995	70.63
846.165	62.96
846.335	60.84
846.505	69.3
846.675	77.16
846.845	72.26
847.015	64.53
847.185	55.1
847.355	60.46
847.525	68.05
847.695	74.11
847.865	62.83
848.035	71.06
848.205	69.18
848.375	65.13
848.545	67.33
848.715	70.94
848.884	61.84
849.054	58.33
849.224	60.52
849.394	55.78
849.564	49.12
849.733	62.12
849.903	54
850.073	53.8
850.243	51.18
850.412	51.82
850.582	47.78
850.752	56.13
850.921	56.96
851.091	47.12
851.26	45.63
851.43	41.3
851.599	35.43
851.769	44.42
851.939	35.01
852.108	36.31
852.278	43.11
852.447	37.13
852.616	30.68
852.786	37.05
852.955	36.33
853.125	45.45
853.294	64.09
853.463	80.23
853.633	71.05
853.802	95.25
853.971	70.29
854.141	52.79
854.31	71.34
854.479	68.38
854.648	79.43
854.818	69.1
854.987	67.45
855.156	57.29
855.325	52.78
855.494	8.91
855.663	-217.08
855.832	20.28
856.001	60.38
856.171	61.71
856.34	144.1
856.509	33.41
856.678	174.37
856.847	33.17
857.016	40.91
857.185	35.61
857.353	58.28
857.522	90.26
857.691	102.41
857.86	116.87
858.029	70.46
858.198	15.35
858.367	76.06
858.535	48.3
858.704	-2.92
858.873	246.19
859.042	93.68
859.21	67.42
859.379	80.95
859.548	-385.38
859.717	61.32
859.885	56.68
860.054	52.59
860.222	52.66
860.391	52.85
860.56	73.16
860.728	64.11
860.897	54.06
861.065	30.6
861.234	19.06
861.402	11.94
861.571	34.14
861.739	25.14
861.908	12.21
862.076	27.04
862.244	47.73
862.413	66.02
862.581	71.05
862.749	78.55
862.918	72.25
863.086	53.72
863.254	56.72
863.423	48.7
863.591	79.99
863.759	80.2
863.927	124.92
864.096	22.78
864.264	0
864.432	39.5
864.6	56.96
864.768	59.96
864.936	205.56
865.104	-379.17
865.272	-123.71
865.44	401.45
865.608	301.03
865.776	242.42
865.944	384.07
866.112	251.07
866.28	274.4
866.448	424.51
866.616	1221.91
866.784	432.56
866.952	137.07
867.12	123.66
867.288	194.72
867.455	165.58
867.623	168.71
867.791	161.77
867.959	159.5
868.127	205.64
868.294	151.52
868.462	154.15
868.63	118.63
868.797	339.13
868.965	362.33
869.133	127.61
869.3	126.32
869.468	71.93
869.636	42.41
869.803	29.73
869.971	-40.83
870.138	5.02
870.306	17.41
870.473	58.2
870.641	44.79
870.808	12.13
870.975	16.99
871.143	20.43
871.31	9.75
871.478	17.26
871.645	-10.64
871.812	-27.11
871.98	-22.37
872.147	-11.1
872.314	-15.28
872.482	4.68
872.649	8.69
872.816	5.97
872.983	17.87
873.15	-12.7
873.318	-44.76
873.485	-21.24
873.652	16.68
873.819	10.5
873.986	29
874.153	31.16
874.32	25.98
874.487	26.02
874.654	110.3
874.821	75.61
874.988	170.95
875.155	124.88
875.322	222.87
875.489	133.19
875.656	305.2
875.823	65.5
875.99	112.71
876.157	120.06
876.324	83.52
876.49	183.36
876.657	175.98
876.824	345.54
876.991	102.81
877.157	66.8
877.324	82.54
877.491	76.38
877.658	67.88
877.824	49.7
877.991	45.42
878.157	27.53
878.324	-2.9
878.491	-5.8
878.657	-26.83
878.824	-93.18
878.99	-69.36
879.157	-57.85
879.323	-74.43
879.49	-105.35
879.656	-229.21
879.823	-143.86
879.989	-133.84
880.156	-11.53
880.322	-5.06
880.488	25.7
880.655	54.2
880.821	20.86
880.987	-0
881.154	14.53
881.32	34.66
881.486	44.89
881.652	39.32
881.819	43.25
881.985	40.37
882.151	46.11
882.317	40.66
882.483	35.93
882.649	36.5
882.816	36.56
882.982	34.52
883.148	29.25
883.314	27.14
883.48	32.7
883.646	32.7
883.812	31.69
883.978	33.82
884.144	38.14
884.31	38.47
884.476	37.9
884.642	35.9
884.807	37.08
884.973	36.51
885.139	35.87
885.305	32.32
885.471	32.52
885.637	34.01
885.802	30.6
885.968	31.14
886.134	34.11
886.3	35.99
886.465	39.69
886.631	38.88
886.797	48.74
886.962	56.3
887.128	53.93
887.293	52.51
887.459	55.66
887.625	49.62
887.79	44.53
887.956	51.61
888.121	54.28
888.287	57.57
888.452	64.04
888.618	51.3
888.783	32.67
