Data from 2937884_Reflection_2.txt Node
Date: Wed Jul 15 14:36:49 EDT 2015
User: robert
Spectrometer: USB4E03001
Autoset integration time: false
Trigger mode: 4
Integration Time (sec): 1.000000E-1
Scans to average: 10
Electric dark correction enabled: true
Nonlinearity correction enabled: false
Boxcar width: 5
Stray light correction enabled: false
XAxis mode: Wavelengths
Stop averaging: false
Number of Pixels in Spectrum: 3648
>>>>>Begin Spectral Data<<<<<
177.566	64.2
177.785	122.58
178.005	115.11
178.225	139.97
178.445	584.37
178.665	-191.93
178.885	-114.46
179.105	46.83
179.324	49.27
179.544	49.73
179.764	100.85
179.984	80.38
180.204	134.16
180.423	62.25
180.643	132.42
180.863	-305.23
181.083	100.66
181.302	361.61
181.522	187.7
181.742	223.31
181.961	172.59
182.181	171.41
182.401	137.2
182.621	128.37
182.84	56.54
183.06	114.59
183.279	144.09
183.499	79.48
183.719	81.47
183.938	135.39
184.158	136.09
184.377	34933.33
184.597	45.01
184.816	74.44
185.036	105.06
185.256	128.32
185.475	108.34
185.695	68.49
185.914	1838.94
186.134	-76.75
186.353	71.5
186.572	52.68
186.792	261.25
187.011	87.22
187.231	66.78
187.45	92.22
187.67	79.66
187.889	217
188.108	84.51
188.328	-170.42
188.547	-490.73
188.766	-19.72
188.986	145.74
189.205	92.86
189.424	58.85
189.644	39.73
189.863	-111.46
190.082	-3.87
190.302	-11.93
190.521	-64.36
190.74	-355.67
190.959	32766.67
191.178	-852.68
191.398	238.4
191.617	244.64
191.836	196.94
192.055	179.5
192.274	359.76
192.494	637.71
192.713	1662.38
192.932	-568.26
193.151	-699.36
193.37	279.59
193.589	240.49
193.808	201.03
194.027	223.82
194.246	111.25
194.465	178.03
194.685	43.14
194.904	979.57
195.123	220.5
195.342	343.69
195.561	102.22
195.78	74.81
195.999	87.58
196.218	59.3
196.436	101.91
196.655	7.04
196.874	-12.53
197.093	-97.86
197.312	118.66
197.531	182.39
197.75	214.89
197.969	16.83
198.188	-49.5
198.407	-17.63
198.625	48.69
198.844	53.38
199.063	62.85
199.282	69.63
199.501	107.25
199.719	188.59
199.938	72.8
200.157	82.58
200.376	253.35
200.594	432.67
200.813	257.54
201.032	21.66
201.251	61.82
201.469	74.76
201.688	81.04
201.907	64.74
202.125	122.65
202.344	112.63
202.563	209.38
202.781	39.5
203	7.55
203.218	-81.97
203.437	-116.55
203.656	-84.65
203.874	-126.47
204.093	-79.59
204.311	-270.08
204.53	-279.01
204.748	-367.22
204.967	-107
205.185	-37.84
205.404	-66.64
205.622	73.63
205.841	101.5
206.059	46.6
206.278	70.34
206.496	52.67
206.715	57.53
206.933	61.59
207.151	98.19
207.37	176.12
207.588	222.45
207.806	199.17
208.025	98.94
208.243	236.02
208.461	52.79
208.68	40.67
208.898	51.59
209.116	55.56
209.335	74.19
209.553	-600
209.771	-237.08
209.989	423.58
210.208	581.82
210.426	-34.07
210.644	-92.76
210.862	218.71
211.081	279.11
211.299	-107.67
211.517	-45.53
211.735	-105.15
211.953	154
212.171	-97.35
212.39	-1974.29
212.608	33.3
212.826	47.41
213.044	37.61
213.262	-28.37
213.48	7.86
213.698	38.32
213.916	8.35
214.134	32.7
214.352	-221.36
214.57	70.63
214.788	55.89
215.006	79.19
215.224	64.84
215.442	168.23
215.66	-192.7
215.878	-467.77
216.096	1023.32
216.314	-229.04
216.532	-248.8
216.75	-171.07
216.968	-152.63
217.185	-114.47
217.403	-82.41
217.621	-61.76
217.839	-136.07
218.057	-131.19
218.275	-154.48
218.492	-215.66
218.71	-417.34
218.928	-1591.97
219.146	796.49
219.363	-1886.8
219.581	4910.62
219.799	636.68
220.017	-600
220.234	-43.17
220.452	6.51
220.67	34.46
220.887	56.75
221.105	62.79
221.323	34.8
221.54	28.35
221.758	24.73
221.976	9.72
222.193	-4.44
222.411	-54.67
222.629	-34.59
222.846	-33.76
223.064	-26.98
223.281	-46.12
223.499	-46.52
223.716	-43.03
223.934	-50.22
224.151	-90.49
224.369	-52.08
224.586	-10.9
224.804	47.33
225.021	63.4
225.239	29.14
225.456	16.87
225.674	14.35
225.891	-6.46
226.108	15.23
226.326	14.85
226.543	25.6
226.76	4.98
226.978	-1.25
227.195	5.53
227.413	-14.02
227.63	-1.15
227.847	8.89
228.064	9.44
228.282	14.23
228.499	13.72
228.716	15.68
228.934	14.17
229.151	20.95
229.368	18.5
229.585	17.47
229.802	21.9
230.02	23.29
230.237	16.93
230.454	16.29
230.671	13.67
230.888	13.6
231.105	12.17
231.323	14.06
231.54	11.99
231.757	21.61
231.974	22.51
232.191	15.42
232.408	14.07
232.625	22.08
232.842	27.47
233.059	28.07
233.276	26.55
233.493	23.66
233.71	23.56
233.927	28.54
234.144	19.18
234.361	19.92
234.578	19.13
234.795	10.18
235.012	8.76
235.229	7.84
235.446	13.2
235.663	15.81
235.879	14.57
236.096	18.61
236.313	10.63
236.53	12.14
236.747	10.03
236.964	15.28
237.181	19.86
237.397	23.52
237.614	15.21
237.831	15.43
238.048	13.68
238.264	14.79
238.481	14.42
238.698	9.08
238.915	5.81
239.131	8.57
239.348	8.81
239.565	11.33
239.781	11.46
239.998	16.48
240.215	15.65
240.431	12.55
240.648	14.28
240.865	13.44
241.081	19.06
241.298	18.89
241.514	19.28
241.731	18.52
241.947	15.5
242.164	13.21
242.38	10.84
242.597	8.33
242.814	9.57
243.03	10.36
243.246	12.26
243.463	6.67
243.679	4.99
243.896	1.92
244.112	0.77
244.329	3.21
244.545	5.8
244.762	6.87
244.978	9.86
245.194	8.8
245.411	9.98
245.627	5.49
245.843	12.83
246.06	14.88
246.276	16.08
246.492	16.12
246.709	15.87
246.925	15.75
247.141	16.17
247.357	16.24
247.574	16.56
247.79	14.96
248.006	15.94
248.222	14.8
248.439	14.78
248.655	14.03
248.871	13.4
249.087	12.57
249.303	10.73
249.519	8.62
249.736	7.99
249.952	6.97
250.168	9.64
250.384	7.57
250.6	9.55
250.816	10.36
251.032	11.26
251.248	10.19
251.464	9.91
251.68	13.45
251.896	15.6
252.112	15.04
252.328	12.96
252.544	8.47
252.76	8.74
252.976	5.1
253.192	1.51
253.408	-0.48
253.624	1.3
253.84	3.91
254.056	-0.11
254.272	-3.12
254.487	-1.95
254.703	-5.4
254.919	-2.09
255.135	-2.2
255.351	-1.1
255.567	3.93
255.782	8.17
255.998	6.64
256.214	3.73
256.43	2.82
256.646	4.89
256.861	1.29
257.077	2.84
257.293	4.02
257.508	5.18
257.724	6.88
257.94	5.33
258.155	4.12
258.371	5.78
258.587	7.45
258.802	8.93
259.018	9.2
259.234	10.42
259.449	11.78
259.665	11.93
259.88	12.65
260.096	13.07
260.312	13.3
260.527	13.8
260.743	14.5
260.958	13.65
261.174	13.4
261.389	13.39
261.605	12.02
261.82	11.92
262.036	11.67
262.251	11.22
262.466	10.42
262.682	10.19
262.897	10.8
263.113	5.58
263.328	6.49
263.543	6.21
263.759	3.34
263.974	3.76
264.189	6
264.405	4.92
264.62	4.24
264.835	2.01
265.051	2.33
265.266	1.63
265.481	5.58
265.696	7.04
265.912	8.77
266.127	11.53
266.342	12.85
266.557	9.11
266.773	9.35
266.988	10.92
267.203	9.69
267.418	9.71
267.633	9.18
267.848	9.44
268.064	7.66
268.279	7.79
268.494	7.21
268.709	3.42
268.924	5.21
269.139	5.6
269.354	3.69
269.569	5.01
269.784	4.59
269.999	4.02
270.214	2.79
270.429	3.89
270.644	2.74
270.859	3.96
271.074	6.44
271.289	3.33
271.504	5.28
271.719	5.04
271.934	5.29
272.149	4.21
272.363	5.12
272.578	5.13
272.793	4.54
273.008	4.61
273.223	4.81
273.438	6.03
273.653	9.04
273.867	6.69
274.082	8.51
274.297	7.98
274.512	11.52
274.726	10.85
274.941	12.8
275.156	13.39
275.371	13.51
275.585	11.26
275.8	9.17
276.015	9.3
276.229	9.9
276.444	9.1
276.659	11.36
276.873	7.61
277.088	7.62
277.302	6.24
277.517	8.05
277.732	7.23
277.946	7.48
278.161	8.51
278.375	8.96
278.59	9.18
278.804	8.44
279.019	7.9
279.233	11.45
279.448	11.11
279.662	12.3
279.877	9.45
280.091	9.01
280.306	11.2
280.52	11.85
280.735	11.17
280.949	9.97
281.163	11.18
281.378	10.85
281.592	8.7
281.806	9.52
282.021	8.1
282.235	9.46
282.449	10.09
282.664	8.82
282.878	8.54
283.092	7.91
283.307	10.06
283.521	7.98
283.735	9.04
283.949	8.37
284.164	9.54
284.378	9.56
284.592	9.54
284.806	9.34
285.02	11.19
285.234	12.37
285.449	11.98
285.663	10.88
285.877	11.58
286.091	10.45
286.305	10.53
286.519	9.11
286.733	8.47
286.947	7.55
287.161	8.8
287.375	8.04
287.589	7.16
287.803	7.09
288.017	6.09
288.231	5.28
288.445	5.02
288.659	5.02
288.873	4.98
289.087	8.15
289.301	8.55
289.515	7.44
289.729	6.82
289.943	5.73
290.157	5.85
290.371	8.48
290.584	9.2
290.798	10.3
291.012	11.67
291.226	12.88
291.44	11.56
291.654	11.1
291.867	11.93
292.081	10.6
292.295	12.2
292.509	12.07
292.722	9.19
292.936	10.38
293.15	9.48
293.364	7.72
293.577	6.71
293.791	5.55
294.005	5.17
294.218	5.02
294.432	7.46
294.645	6.14
294.859	7.44
295.073	7.44
295.286	7.3
295.5	7.76
295.713	9.82
295.927	9.63
296.14	10.09
296.354	11.44
296.568	11.88
296.781	11.39
296.994	11.49
297.208	11.06
297.421	11.54
297.635	10.83
297.848	11.02
298.062	10.38
298.275	10.39
298.489	11.8
298.702	10.85
298.915	9.19
299.129	9.56
299.342	10.02
299.555	11.01
299.769	11.62
299.982	13.06
300.195	12.05
300.409	10.41
300.622	12.24
300.835	11.83
301.048	13.12
301.262	15.83
301.475	15.71
301.688	15.55
301.901	14.64
302.115	14.26
302.328	13.28
302.541	11.67
302.754	13.01
302.967	10.8
303.18	9.47
303.393	9.29
303.607	7.09
303.82	7.55
304.033	7.37
304.246	8.2
304.459	10
304.672	9.02
304.885	10.67
305.098	11.32
305.311	11.76
305.524	11.54
305.737	10.92
305.95	14.01
306.163	13.8
306.376	15.6
306.589	14.9
306.802	13.59
307.015	13.78
307.228	14.47
307.44	14.82
307.653	15.68
307.866	15.86
308.079	15.72
308.292	12.51
308.505	12.72
308.718	11.06
308.93	11.02
309.143	11.61
309.356	12.48
309.569	13.02
309.781	10.93
309.994	9.8
310.207	12.36
310.42	12.74
310.632	14.25
310.845	14.3
311.058	14.32
311.27	12.6
311.483	11.55
311.696	11.46
311.908	10.9
312.121	11.92
312.333	12.43
312.546	9.95
312.759	8.03
312.971	6.57
313.184	5.91
313.396	5.13
313.609	8.25
313.821	7.57
314.034	6.86
314.246	6.87
314.459	8.24
314.671	8.78
314.884	9.29
315.096	12.94
315.309	13
315.521	12.52
315.733	12.15
315.946	10.15
316.158	10.18
316.371	11.48
316.583	10.48
316.795	8.96
317.008	9.61
317.22	9.35
317.432	4.7
317.644	3.12
317.857	3.48
318.069	5.47
318.281	5.66
318.494	9.29
318.706	10.26
318.918	11.58
319.13	11.03
319.342	9.69
319.555	10.15
319.767	11.58
319.979	13.09
320.191	13.14
320.403	13.5
320.615	13.42
320.827	10.52
321.039	10.31
321.252	10.68
321.464	10.23
321.676	12.29
321.888	10.69
322.1	11.07
322.312	11.42
322.524	11.51
322.736	11.9
322.948	11.54
323.16	10.15
323.372	10.03
323.584	8.72
323.796	10.1
324.007	10.17
324.219	9.9
324.431	11.27
324.643	11.3
324.855	9.43
325.067	10.89
325.279	11.66
325.491	13.17
325.702	10.86
325.914	12.63
326.126	11.27
326.338	10.5
326.55	12.21
326.761	11.72
326.973	11.45
327.185	13.83
327.396	10.72
327.608	9.17
327.82	10.45
328.032	12.68
328.243	11.84
328.455	10.66
328.666	9.41
328.878	8.85
329.09	8.85
329.301	9.54
329.513	9.7
329.725	10.36
329.936	10.89
330.148	9.28
330.359	9.78
330.571	10.18
330.782	12.92
330.994	14.57
331.205	14.21
331.417	13.06
331.628	12.99
331.84	12.2
332.051	12.22
332.262	14.08
332.474	13.91
332.685	12.63
332.897	12.16
333.108	11.88
333.319	11.28
333.531	14.16
333.742	13.98
333.953	14.52
334.165	15.53
334.376	16.43
334.587	16.17
334.799	16.3
335.01	16.16
335.221	17.21
335.432	17.06
335.644	18.36
335.855	17.03
336.066	17.49
336.277	16.98
336.488	15.89
336.7	15.08
336.911	16.32
337.122	17.73
337.333	18.77
337.544	17.86
337.755	18.59
337.966	16.89
338.177	16.34
338.388	15.82
338.599	16.15
338.811	17.23
339.022	17.72
339.233	15.25
339.444	14.3
339.655	13.08
339.866	13.69
340.076	13.8
340.287	14.72
340.498	16.24
340.709	16.64
340.92	17.57
341.131	18.11
341.342	16.71
341.553	19.78
341.764	19.32
341.975	19.26
342.185	18.22
342.396	16.78
342.607	16.96
342.818	15.29
343.029	14.86
343.239	13.47
343.45	11.68
343.661	11.89
343.872	10.28
344.082	10.99
344.293	10.66
344.504	10.43
344.714	13.21
344.925	12.14
345.136	12.11
345.346	13.95
345.557	12.99
345.768	14.01
345.978	15.02
346.189	14.39
346.399	14.93
346.61	15.23
346.821	16.49
347.031	14.27
347.242	14.24
347.452	14.59
347.663	13.83
347.873	15
348.084	14.54
348.294	14.13
348.504	14.71
348.715	11.84
348.925	11.5
349.136	10.34
349.346	9.22
349.557	8.47
349.767	8.81
349.977	8.52
350.188	8.68
350.398	8.14
350.608	8.8
350.819	8.4
351.029	11.02
351.239	12.26
351.449	12.09
351.66	13.11
351.87	14.71
352.08	13.81
352.29	13.78
352.501	13.7
352.711	12.88
352.921	12.06
353.131	11.88
353.341	12.04
353.552	10.42
353.762	10.04
353.972	11.48
354.182	10.76
354.392	12.34
354.602	12.43
354.812	12.72
355.022	13.65
355.232	14.24
355.442	15.17
355.652	13.98
355.862	14.2
356.072	14.5
356.282	13.14
356.492	14.11
356.702	12.76
356.912	12.46
357.122	12.58
357.332	11.83
357.542	11.78
357.752	10.51
357.962	10.8
358.171	11.09
358.381	11.13
358.591	11.79
358.801	11.59
359.011	12.69
359.221	13.29
359.43	12.57
359.64	12.09
359.85	11.48
360.06	12.19
360.269	12.78
360.479	13.41
360.689	14.09
360.899	14.27
361.108	13.82
361.318	13.92
361.528	13.64
361.737	13.69
361.947	14.78
362.156	15.08
362.366	14.85
362.576	14.81
362.785	14.31
362.995	14.17
363.204	14.06
363.414	14.11
363.623	13.83
363.833	13.92
364.042	13.99
364.252	14.73
364.461	15.6
364.671	16.88
364.88	16.75
365.09	16.09
365.299	15.7
365.509	14.13
365.718	13.77
365.927	13.88
366.137	13.74
366.346	13.49
366.555	13.46
366.765	12.42
366.974	10.74
367.183	10.61
367.393	10.89
367.602	10.47
367.811	10.66
368.021	10.65
368.23	9.88
368.439	11.31
368.648	11.94
368.857	10.78
369.067	11.66
369.276	11.56
369.485	11.06
369.694	11.93
369.903	12.8
370.112	12.99
370.321	13.37
370.531	12.5
370.74	11.01
370.949	10.81
371.158	11.6
371.367	11.66
371.576	11.48
371.785	11.57
371.994	11.23
372.203	11.42
372.412	11.63
372.621	10.83
372.83	11.72
373.039	11.43
373.248	11.37
373.457	10.71
373.666	10.13
373.874	11.66
374.083	10.4
374.292	10.18
374.501	8.89
374.71	10.13
374.919	11.06
375.128	10.91
375.336	10.99
375.545	10.33
375.754	9.99
375.963	9.95
376.171	9.46
376.38	10.95
376.589	10.33
376.798	10.42
377.006	9.52
377.215	9.04
377.424	9.04
377.632	9.48
377.841	10.06
378.05	10.11
378.258	9.72
378.467	8.67
378.675	8.03
378.884	8.35
379.093	8.75
379.301	9.18
379.51	9.8
379.718	10.17
379.927	10.19
380.135	10.06
380.344	10.52
380.552	10.67
380.761	11.2
380.969	11.53
381.177	11.44
381.386	11.66
381.594	11.5
381.803	10.92
382.011	10.35
382.219	10.13
382.428	10.28
382.636	10.52
382.845	10.51
383.053	10.24
383.261	10.52
383.469	10.79
383.678	10.28
383.886	10.62
384.094	10.85
384.302	10.52
384.511	9.55
384.719	9.03
384.927	8.66
385.135	9
385.343	9.19
385.552	9.07
385.76	9.06
385.968	9.35
386.176	9.17
386.384	8.8
386.592	9.33
386.8	9.9
387.008	9.56
387.216	9.78
387.424	9.69
387.633	10.05
387.841	10
388.049	9.99
388.257	9.97
388.465	9.86
388.672	9.9
388.88	9.61
389.088	9.62
389.296	10.05
389.504	9.91
389.712	9.02
389.92	8.55
390.128	8.32
390.336	7.6
390.544	7.35
390.751	7.52
390.959	7.71
391.167	7.56
391.375	7.82
391.583	8.13
391.79	7.81
391.998	8.32
392.206	8.32
392.414	8.4
392.621	8.78
392.829	8.71
393.037	8.62
393.244	8.57
393.452	8.81
393.66	8.47
393.867	8.06
394.075	8.35
394.283	8.77
394.49	8.58
394.698	8.34
394.905	8.52
395.113	8.57
395.32	8.27
395.528	7.65
395.735	7.72
395.943	8.13
396.15	8.44
396.358	8.04
396.565	7.64
396.773	8
396.98	8.33
397.188	7.93
397.395	8.15
397.602	8.03
397.81	8.55
398.017	7.94
398.225	7.93
398.432	7.53
398.639	7.52
398.847	7.89
399.054	7.66
399.261	7.36
399.468	7.57
399.676	7.32
399.883	7.59
400.09	7.58
400.297	7.93
400.505	7.56
400.712	7.72
400.919	7.5
401.126	6.95
401.333	6.99
401.54	6.74
401.748	6.35
401.955	5.87
402.162	5.52
402.369	5.41
402.576	5.38
402.783	4.89
402.99	4.89
403.197	5.17
403.404	5.41
403.611	5.35
403.818	5.91
404.025	5.95
404.232	6.34
404.439	6.34
404.646	6.1
404.853	5.95
405.06	6.49
405.267	6.57
405.474	6.41
405.681	6.33
405.887	6.25
406.094	5.89
406.301	6.08
406.508	6.19
406.715	6.25
406.922	6.62
407.128	6.88
407.335	6.68
407.542	6.84
407.749	6.74
407.955	6.53
408.162	6.66
408.369	6.8
408.575	6.96
408.782	6.93
408.989	6.76
409.195	6.59
409.402	6.41
409.609	6.82
409.815	6.76
410.022	7.24
410.228	7.23
410.435	7.18
410.642	7.08
410.848	7.01
411.055	6.77
411.261	7.37
411.468	7.46
411.674	7.37
411.881	6.76
412.087	6.5
412.294	6.41
412.5	6.7
412.706	6.79
412.913	6.59
413.119	6.51
413.326	6.93
413.532	6.46
413.738	6.58
413.945	6.86
414.151	7.29
414.357	7.22
414.564	7.02
414.77	6.91
414.976	6.89
415.182	7.22
415.389	7.16
415.595	6.84
415.801	7.31
416.007	7.24
416.214	7.15
416.42	7.14
416.626	7.23
416.832	7.36
417.038	7.21
417.244	7.21
417.45	7.09
417.657	6.95
417.863	6.93
418.069	6.65
418.275	6.56
418.481	6.73
418.687	6.54
418.893	6.56
419.099	6.48
419.305	6.37
419.511	6.31
419.717	6.2
419.923	6.25
420.129	6.16
420.335	6.15
420.541	6.04
420.746	5.79
420.952	5.91
421.158	5.92
421.364	5.9
421.57	5.91
421.776	5.96
421.982	6.07
422.187	6.1
422.393	6.21
422.599	6.14
422.805	6.19
423.01	6.39
423.216	6.26
423.422	6.06
423.628	6.09
423.833	6.05
424.039	5.86
424.245	5.85
424.45	6.01
424.656	6.1
424.862	6.14
425.067	6.3
425.273	6.19
425.478	6.19
425.684	6.31
425.889	6.17
426.095	6.28
426.301	6.41
426.506	6.32
426.712	6.32
426.917	6.21
427.123	6.13
427.328	5.92
427.533	5.83
427.739	5.94
427.944	5.72
428.15	5.89
428.355	5.95
428.561	5.9
428.766	5.86
428.971	5.61
429.177	5.38
429.382	5.45
429.587	5.42
429.793	5.48
429.998	5.57
430.203	5.94
430.408	5.73
430.614	5.61
430.819	5.63
431.024	5.9
431.229	5.8
431.434	5.61
431.64	5.69
431.845	6.14
432.05	5.98
432.255	5.85
432.46	5.94
432.665	6.05
432.87	5.83
433.076	6.02
433.281	6.04
433.486	6
433.691	6.49
433.896	6.59
434.101	6.24
434.306	6.37
434.511	6.4
434.716	6.27
434.921	6.2
435.126	6.47
435.331	6.4
435.535	6.21
435.74	6.34
435.945	6.05
436.15	5.73
436.355	6.07
436.56	5.92
436.765	5.9
436.97	6.14
437.174	6.05
437.379	6.04
437.584	5.86
437.789	5.87
437.993	5.82
438.198	6.03
438.403	6.23
438.608	5.91
438.812	6.16
439.017	6.22
439.222	5.93
439.426	6.13
439.631	6.21
439.836	6.26
440.04	6.31
440.245	6.39
440.45	6.33
440.654	6.43
440.859	6.41
441.063	6.39
441.268	6.47
441.472	6.45
441.677	6.47
441.881	6.38
442.086	6.36
442.29	6.44
442.495	6.44
442.699	6.42
442.904	6.09
443.108	6.12
443.312	6.04
443.517	6.07
443.721	6.05
443.925	5.82
444.13	5.88
444.334	5.99
444.538	5.97
444.743	5.73
444.947	5.63
445.151	6
445.356	6.18
445.56	6.03
445.764	5.86
445.968	5.79
446.173	5.86
446.377	5.69
446.581	5.49
446.785	5.3
446.989	5.43
447.193	5.53
447.398	5.44
447.602	5.24
447.806	5.35
448.01	5.39
448.214	5.44
448.418	5.34
448.622	5.42
448.826	5.63
449.03	5.84
449.234	5.75
449.438	5.7
449.642	5.56
449.846	5.51
450.05	5.66
450.254	5.72
450.458	5.87
450.662	5.92
450.866	6.05
451.069	6.2
451.273	6
451.477	6.21
451.681	6.25
451.885	6.27
452.089	6.32
452.292	6.12
452.496	5.92
452.7	5.84
452.904	5.84
453.107	5.64
453.311	5.43
453.515	5.5
453.719	5.24
453.922	5.3
454.126	5.49
454.33	5.37
454.533	5.49
454.737	5.5
454.94	5.53
455.144	5.46
455.348	5.72
455.551	5.72
455.755	5.75
455.958	5.92
456.162	5.77
456.365	5.68
456.569	5.79
456.772	5.5
456.976	5.56
457.179	5.43
457.383	5.64
457.586	5.78
457.79	5.78
457.993	5.53
458.196	5.6
458.4	5.53
458.603	5.35
458.807	5.2
459.01	5.16
459.213	5.15
459.417	5.25
459.62	5.25
459.823	5.06
460.026	5.08
460.23	5.29
460.433	5.13
460.636	5.24
460.839	5.33
461.042	5.51
461.246	5.62
461.449	5.63
461.652	5.43
461.855	5.36
462.058	5.22
462.261	5.05
462.464	4.79
462.668	4.87
462.871	4.71
463.074	4.81
463.277	4.82
463.48	5.12
463.683	5.14
463.886	5.58
464.089	5.72
464.292	5.87
464.495	6.14
464.698	6.45
464.901	6.51
465.104	6.62
465.306	6.29
465.509	6.12
465.712	5.78
465.915	5.74
466.118	5.63
466.321	5.52
466.524	5.59
466.726	5.35
466.929	5.14
467.132	4.84
467.335	4.93
467.538	5.01
467.74	5.07
467.943	5.07
468.146	5.11
468.348	5
468.551	5.12
468.754	5.17
468.956	5.05
469.159	5.04
469.362	5.62
469.564	5.37
469.767	5.42
469.969	5.19
470.172	5.17
470.375	5.14
470.577	5.22
470.78	5.18
470.982	5.04
471.185	5.29
471.387	5.26
471.59	4.91
471.792	4.88
471.995	4.94
472.197	5.06
472.399	5.23
472.602	5.27
472.804	5.1
473.007	5.02
473.209	5.04
473.411	5.06
473.614	5.07
473.816	5.31
474.018	5.35
474.22	5.47
474.423	5.55
474.625	5.77
474.827	5.72
475.03	6.01
475.232	6.08
475.434	6.23
475.636	6.14
475.838	6.42
476.04	6.16
476.243	6.34
476.445	6.22
476.647	6.39
476.849	6.06
477.051	5.97
477.253	5.73
477.455	5.73
477.657	5.69
477.859	5.88
478.061	5.71
478.263	5.73
478.465	5.65
478.667	5.65
478.869	5.48
479.071	5.5
479.273	5.41
479.475	5.52
479.677	5.43
479.879	5.26
480.081	5.03
480.283	5.11
480.485	5.05
480.686	5.01
480.888	5.02
481.09	5.1
481.292	5.2
481.494	5.3
481.695	5.31
481.897	5.36
482.099	5.43
482.301	5.61
482.502	5.47
482.704	5.47
482.906	5.4
483.107	5.54
483.309	5.48
483.511	5.41
483.712	5.41
483.914	5.39
484.115	5.35
484.317	5.38
484.519	5.28
484.72	5.3
484.922	5.36
485.123	5.4
485.325	5.26
485.526	5.25
485.728	5.28
485.929	5.29
486.131	5.27
486.332	5.26
486.534	5.21
486.735	5.18
486.936	5.22
487.138	5.15
487.339	5.06
487.541	5.08
487.742	5.14
487.943	5.04
488.144	5.04
488.346	5.03
488.547	5.06
488.748	5.07
488.95	5.14
489.151	5.12
489.352	5.06
489.553	5.3
489.755	5.27
489.956	5.23
490.157	5.3
490.358	5.31
490.559	5.29
490.76	5.44
490.961	5.48
491.163	5.53
491.364	5.4
491.565	5.47
491.766	5.34
491.967	5.34
492.168	5.37
492.369	5.32
492.57	5.3
492.771	5.38
492.972	5.2
493.173	5.12
493.374	5.07
493.575	5.29
493.776	5.3
493.976	5.33
494.177	5.36
494.378	5.42
494.579	5.71
494.78	5.75
494.981	5.88
495.182	5.99
495.382	6
495.583	5.97
495.784	5.84
495.985	5.87
496.185	5.68
496.386	5.74
496.587	5.71
496.788	5.46
496.988	5.54
497.189	5.35
497.39	5.42
497.59	5.53
497.791	5.66
497.992	5.76
498.192	5.85
498.393	5.88
498.593	5.81
498.794	5.62
498.994	5.81
499.195	5.62
499.395	5.84
499.596	5.65
499.796	5.52
499.997	5.31
500.197	5.23
500.398	4.85
500.598	4.95
500.799	5.05
500.999	5.2
501.199	5.31
501.4	5.56
501.6	5.32
501.801	5.58
502.001	5.81
502.201	5.85
502.402	5.95
502.602	6.41
502.802	6.44
503.002	6.41
503.203	6.4
503.403	6.34
503.603	6.27
503.803	6.25
504.003	6.31
504.204	6.13
504.404	6.3
504.604	6.2
504.804	6.18
505.004	6.25
505.204	6.25
505.404	6.29
505.604	6.4
505.804	6.33
506.005	6.43
506.205	6.27
506.405	6.24
506.605	5.99
506.805	6.17
507.005	6.24
507.204	6.15
507.404	6.16
507.604	6.25
507.804	6.1
508.004	6.24
508.204	6.18
508.404	6.19
508.604	6.22
508.804	6.2
509.003	5.94
509.203	5.72
509.403	5.71
509.603	5.6
509.803	5.48
510.002	5.49
510.202	5.53
510.402	5.68
510.602	5.69
510.801	5.86
511.001	6.08
511.201	6.14
511.4	6.2
511.6	6.29
511.8	6.55
511.999	6.61
512.199	6.68
512.398	6.4
512.598	6.49
512.797	6.57
512.997	6.36
513.197	6.39
513.396	6.54
513.596	6.75
513.795	6.99
513.994	6.95
514.194	7
514.393	6.95
514.593	7.17
514.792	7.01
514.992	6.91
515.191	7.14
515.39	6.96
515.59	7.03
515.789	7
515.988	6.79
516.188	6.72
516.387	6.87
516.586	6.98
516.786	7.08
516.985	7.14
517.184	7.24
517.383	7.2
517.582	7.4
517.782	7.39
517.981	7.19
518.18	7.24
518.379	7.33
518.578	7.25
518.777	7.19
518.976	7.31
519.176	7.4
519.375	7.37
519.574	7.37
519.773	7.3
519.972	7.23
520.171	7.26
520.37	7.26
520.569	7.23
520.768	7.23
520.967	7.47
521.166	7.36
521.365	7.34
521.564	7.36
521.762	7.48
521.961	7.51
522.16	7.49
522.359	7.73
522.558	7.73
522.757	7.73
522.956	7.82
523.154	7.63
523.353	7.73
523.552	7.64
523.751	7.69
523.949	7.59
524.148	7.73
524.347	7.72
524.546	7.6
524.744	7.8
524.943	7.86
525.142	7.81
525.34	7.81
525.539	7.82
525.737	8.04
525.936	8.13
526.135	8.15
526.333	8.31
526.532	8.49
526.73	8.55
526.929	8.55
527.127	8.56
527.326	8.57
527.524	8.67
527.723	8.64
527.921	8.58
528.12	8.57
528.318	8.68
528.516	8.58
528.715	8.56
528.913	8.54
529.112	8.5
529.31	8.5
529.508	8.49
529.707	8.49
529.905	8.45
530.103	8.41
530.301	8.42
530.5	8.3
530.698	8.25
530.896	8.3
531.094	8.36
531.293	8.33
531.491	8.35
531.689	8.52
531.887	8.65
532.085	8.8
532.283	8.83
532.481	8.85
532.68	8.99
532.878	9.08
533.076	9.02
533.274	9.11
533.472	9.25
533.67	9.32
533.868	9.33
534.066	9.23
534.264	9.18
534.462	9.16
534.66	9.15
534.858	9.22
535.056	9.26
535.253	9.4
535.451	9.31
535.649	9.27
535.847	9.26
536.045	9.33
536.243	9.41
536.441	9.45
536.638	9.62
536.836	9.65
537.034	9.57
537.232	9.57
537.43	9.48
537.627	9.5
537.825	9.47
538.023	9.48
538.22	9.46
538.418	9.38
538.616	9.41
538.813	9.49
539.011	9.48
539.209	9.51
539.406	9.6
539.604	9.61
539.801	9.71
539.999	9.96
540.196	10.08
540.394	10.05
540.591	10.19
540.789	10.3
540.986	10.33
541.184	10.4
541.381	10.56
541.579	10.53
541.776	10.63
541.974	10.74
542.171	10.67
542.368	10.63
542.566	10.65
542.763	10.7
542.96	10.68
543.158	10.75
543.355	10.82
543.552	10.77
543.75	10.87
543.947	10.89
544.144	10.79
544.341	10.74
544.539	10.7
544.736	10.75
544.933	10.74
545.13	10.83
545.327	10.88
545.524	10.87
545.722	10.83
545.919	10.86
546.116	10.83
546.313	10.96
546.51	11.14
546.707	11.35
546.904	11.52
547.101	11.54
547.298	11.77
547.495	11.77
547.692	11.78
547.889	11.93
548.086	12.1
548.283	12.1
548.48	12.15
548.677	12.1
548.874	12.2
549.07	12.2
549.267	12.25
549.464	12.15
549.661	12.12
549.858	12.35
550.055	12.35
550.251	12.49
550.448	12.43
550.645	12.64
550.842	13
551.038	13.29
551.235	13.35
551.432	13.32
551.628	13.33
551.825	13.29
552.022	13.29
552.218	13.15
552.415	13.25
552.612	13.7
552.808	13.68
553.005	13.61
553.201	13.52
553.398	13.66
553.594	13.78
553.791	14.01
553.987	14.32
554.184	14.48
554.38	14.76
554.577	14.52
554.773	14.42
554.97	14.42
555.166	14.53
555.362	14.55
555.559	14.7
555.755	14.97
555.952	14.73
556.148	14.82
556.344	14.83
556.541	14.82
556.737	14.88
556.933	14.85
557.129	15.02
557.326	15.01
557.522	15.06
557.718	15.04
557.914	15.03
558.11	15.37
558.307	15.32
558.503	15.1
558.699	15.12
558.895	15.57
559.091	15.84
559.287	15.64
559.483	15.69
559.679	15.51
559.876	15.46
560.072	15.58
560.268	15.58
560.464	15.82
560.66	16.13
560.856	16.25
561.052	16.05
561.247	16.18
561.443	16.52
561.639	16.54
561.835	17
562.031	17.04
562.227	17.06
562.423	17.16
562.619	16.96
562.815	17.31
563.01	17.27
563.206	17.44
563.402	17.62
563.598	17.66
563.793	17.77
563.989	17.77
564.185	17.69
564.381	17.78
564.576	17.76
564.772	17.93
564.968	17.78
565.163	18.11
565.359	18.15
565.555	18.07
565.75	18.15
565.946	18.33
566.141	18.16
566.337	18.49
566.532	18.78
566.728	18.66
566.923	18.85
567.119	19.11
567.314	19.24
567.51	19.25
567.705	19.16
567.901	19.2
568.096	19.1
568.292	19.24
568.487	19.05
568.682	18.86
568.878	19.28
569.073	19.27
569.268	18.93
569.464	18.81
569.659	18.92
569.854	19.26
570.05	19.36
570.245	19.55
570.44	19.83
570.635	20.37
570.831	20.32
571.026	20.38
571.221	20.28
571.416	20.35
571.611	20.39
571.806	20.47
572.002	20.41
572.197	20.44
572.392	20.65
572.587	20.74
572.782	20.69
572.977	20.79
573.172	20.68
573.367	20.85
573.562	21.16
573.757	21.34
573.952	21.65
574.147	21.89
574.342	21.89
574.537	21.94
574.732	21.96
574.927	21.9
575.121	22.18
575.316	22.24
575.511	22.17
575.706	22.18
575.901	22.36
576.096	22.15
576.29	22.07
576.485	22.17
576.68	22.13
576.875	22.04
577.069	21.96
577.264	21.88
577.459	21.92
577.654	21.92
577.848	21.92
578.043	21.65
578.238	21.83
578.432	21.91
578.627	22
578.821	22.04
579.016	22.17
579.21	22.36
579.405	22.57
579.6	22.66
579.794	22.86
579.989	22.72
580.183	22.88
580.378	22.85
580.572	23.27
580.766	23.27
580.961	23.21
581.155	23.27
581.35	23.16
581.544	23.18
581.738	23.12
581.933	23.26
582.127	23.12
582.321	23.13
582.516	22.99
582.71	22.53
582.904	22.52
583.099	22.75
583.293	22.65
583.487	22.66
583.681	22.37
583.875	22.38
584.07	22.72
584.264	22.9
584.458	22.75
584.652	23.36
584.846	23.36
585.04	23.53
585.234	23.48
585.428	23.71
585.623	23.74
585.817	23.91
586.011	24.18
586.205	23.63
586.399	24.14
586.593	24.42
586.787	24.18
586.981	24.17
587.174	24.16
587.368	24.26
587.562	24.34
587.756	24.47
587.95	24.53
588.144	24.68
588.338	24.74
588.532	24.25
588.725	24.51
588.919	24.62
589.113	24.68
589.307	24.7
589.501	24.86
589.694	24.88
589.888	24.91
590.082	24.83
590.275	24.58
590.469	24.99
590.663	25.23
590.856	24.94
591.05	24.66
591.244	24.73
591.437	24.57
591.631	24.36
591.824	24.16
592.018	24.52
592.212	24.52
592.405	24.66
592.599	24.45
592.792	24.59
592.986	24.98
593.179	25.21
593.372	25.43
593.566	25.8
593.759	25.61
593.953	25.8
594.146	25.32
594.339	25.24
594.533	25.23
594.726	25.13
594.92	24.91
595.113	24.77
595.306	24.71
595.499	24.75
595.693	24.63
595.886	24.88
596.079	24.96
596.272	25.34
596.466	25.83
596.659	25.95
596.852	26.11
597.045	26.29
597.238	26.35
597.431	26.33
597.624	26.4
597.818	26.64
598.011	26.84
598.204	26.63
598.397	26.55
598.59	26.29
598.783	26.28
598.976	26.34
599.169	26.54
599.362	26.52
599.555	26.66
599.748	26.71
599.941	26.65
600.134	26.5
600.326	27.16
600.519	26.93
600.712	26.82
600.905	26.79
601.098	27.08
601.291	27.07
601.483	27.28
601.676	27.47
601.869	27.23
602.062	27.18
602.255	27.15
602.447	26.76
602.64	27.25
602.833	27.61
603.025	27.65
603.218	27.71
603.411	27.35
603.603	27.33
603.796	27.18
603.989	27.39
604.181	27.43
604.374	27.53
604.566	27.69
604.759	27.56
604.951	27.4
605.144	27.48
605.336	27.27
605.529	27.46
605.721	27.41
605.914	27.73
606.106	27.71
606.299	27.74
606.491	27.53
606.683	27.48
606.876	27.54
607.068	27.56
607.26	27.39
607.453	27.49
607.645	27.39
607.837	27.3
608.03	26.83
608.222	26.83
608.414	26.93
608.606	26.98
608.799	27.2
608.991	26.97
609.183	26.83
609.375	26.94
609.567	26.61
609.759	26.67
609.952	26.74
610.144	26.85
610.336	26.62
610.528	26.35
610.72	26.36
610.912	26.27
611.104	26.18
611.296	26.13
611.488	26.12
611.68	26.36
611.872	26.57
612.064	26.51
612.256	26.48
612.448	26.7
612.64	27.08
612.832	27.1
613.023	27.01
613.215	27.19
613.407	27.79
613.599	27.88
613.791	28.02
613.983	27.98
614.174	28.17
614.366	28.31
614.558	28.59
614.75	28.23
614.941	28.25
615.133	28.28
615.325	28.45
615.516	27.96
615.708	27.76
615.9	27.68
616.091	27.84
616.283	28.01
616.475	27.72
616.666	27.93
616.858	27.93
617.049	27.92
617.241	28.2
617.432	28.33
617.624	28.86
617.815	28.85
618.007	29.05
618.198	29.05
618.39	28.95
618.581	28.97
618.773	28.53
618.964	28.65
619.155	28.7
619.347	28.61
619.538	28.54
619.729	28.26
619.921	28.3
620.112	27.98
620.303	28.03
620.494	27.85
620.686	27.95
620.877	28.13
621.068	28.29
621.259	28.61
621.451	28.04
621.642	27.88
621.833	27.79
622.024	28.04
622.215	28.43
622.406	28.23
622.597	28.07
622.788	28.18
622.98	27.99
623.171	27.91
623.362	27.94
623.553	28.19
623.744	28.78
623.935	28.86
624.126	28.82
624.317	28.7
624.508	28.87
624.698	29.18
624.889	29.18
625.08	29.31
625.271	29.36
625.462	29.37
625.653	29.62
625.844	29.1
626.034	29.16
626.225	29.14
626.416	29.4
626.607	29.47
626.798	29.54
626.988	30
627.179	29.84
627.37	29.87
627.56	29.63
627.751	29.86
627.942	30.07
628.132	30.16
628.323	30.1
628.514	29.92
628.704	30.18
628.895	30.06
629.085	29.77
629.276	29.93
629.466	30.22
629.657	30.32
629.847	30.12
630.038	30.34
630.228	30.2
630.419	30.58
630.609	30.46
630.8	30.31
630.99	30.22
631.181	29.79
631.371	30.11
631.561	29.89
631.752	30.07
631.942	30.38
632.132	30.1
632.323	30.2
632.513	30
632.703	30.16
632.893	29.83
633.084	29.98
633.274	30.43
633.464	30.04
633.654	30.15
633.844	30.12
634.034	30
634.225	30.19
634.415	30.28
634.605	29.97
634.795	29.93
634.985	30.19
635.175	30.42
635.365	30.68
635.555	30.6
635.745	30.61
635.935	30.59
636.125	30.11
636.315	29.98
636.505	30.04
636.695	30.21
636.885	30.33
637.075	30.28
637.265	30.34
637.455	29.9
637.644	30.28
637.834	29.99
638.024	29.97
638.214	30.12
638.404	30.29
638.593	29.94
638.783	30.67
638.973	30.67
639.163	30.98
639.352	30.55
639.542	30.95
639.732	30.95
639.921	31.27
640.111	31.58
640.301	31.94
640.49	31.62
640.68	31.58
640.87	31.23
641.059	30.86
641.249	30.66
641.438	30.9
641.628	30.47
641.817	30.37
642.007	30.27
642.196	30.22
642.386	30.1
642.575	30.45
642.764	30.69
642.954	30.4
643.143	30.74
643.333	30.54
643.522	30.68
643.711	30.96
643.901	30.77
644.09	30.96
644.279	30.45
644.469	30.42
644.658	30.46
644.847	30.52
645.036	31.1
645.226	31.34
645.415	31.07
645.604	31.25
645.793	31.23
645.982	31.43
646.171	31.34
646.361	31.55
646.55	31.55
646.739	31.28
646.928	31.23
647.117	30.72
647.306	30.71
647.495	31.2
647.684	30.89
647.873	31.09
648.062	31.14
648.251	31.46
648.44	31.6
648.629	32.02
648.818	32.1
649.007	32.46
649.196	32.82
649.384	32.69
649.573	32.66
649.762	32.36
649.951	32.41
650.14	32.74
650.328	32.39
650.517	32.4
650.706	31.83
650.895	31.97
651.083	31.68
651.272	31.56
651.461	31.95
651.65	31.57
651.838	31.74
652.027	31.63
652.216	31.4
652.404	31.44
652.593	31.65
652.781	32.26
652.97	32.64
653.158	33.02
653.347	33.18
653.535	32.98
653.724	33.56
653.912	33.79
654.101	33.77
654.289	33.39
654.478	33.55
654.666	33.42
654.855	32.99
655.043	32.38
655.231	31.86
655.42	31.68
655.608	31.65
655.796	31.51
655.985	31.4
656.173	31.4
656.361	31.92
656.55	32.2
656.738	32.26
656.926	32.06
657.114	32.46
657.302	32.98
657.491	33.28
657.679	33.18
657.867	33.29
658.055	33.24
658.243	33.12
658.431	33.06
658.619	32.76
658.807	32.65
658.996	32.97
659.184	32.98
659.372	32.59
659.56	32.39
659.748	32.55
659.936	32.46
660.124	32.8
660.311	32.59
660.499	32.75
660.687	32.8
660.875	32.81
661.063	32.63
661.251	32.8
661.439	33.2
661.627	33.64
661.814	33.78
662.002	33.67
662.19	33.44
662.378	33.66
662.565	33.32
662.753	33.43
662.941	33.57
663.129	33.41
663.316	33.02
663.504	32.95
663.692	33.16
663.879	32.61
664.067	33.09
664.254	33.17
664.442	33.53
664.63	33.3
664.817	33
665.005	32.54
665.192	33.21
665.38	33.1
665.567	32.95
665.755	32.46
665.942	32.34
666.13	32.2
666.317	32.53
666.504	32.66
666.692	33.1
666.879	33.4
667.067	33.82
667.254	33.34
667.441	33.66
667.629	33.72
667.816	33.3
668.003	33.52
668.19	33.65
668.378	33.5
668.565	33.19
668.752	33.02
668.939	33.2
669.127	33.24
669.314	33.85
669.501	33.4
669.688	33.41
669.875	33.75
670.062	34.09
670.249	33.65
670.436	33.07
670.623	33.44
670.81	33.61
670.997	32.95
671.184	33.1
671.371	32.86
671.558	32.86
671.745	32.91
671.932	33.09
672.119	33.28
672.306	33.3
672.493	34.03
672.68	33.41
672.867	33.78
673.054	34.55
673.24	34
673.427	33.63
673.614	33.94
673.801	34.33
673.988	34.29
674.174	34.17
674.361	34.33
674.548	33.8
674.734	34.18
674.921	34.19
675.108	34.14
675.294	34.84
675.481	35.02
675.668	34.85
675.854	34.84
676.041	34.68
676.227	34.29
676.414	34.33
676.601	34.69
676.787	34.53
676.974	34.85
677.16	34.32
677.347	33.95
677.533	34.15
677.719	33.73
677.906	33.41
678.092	33.63
678.279	33.97
678.465	33.94
678.651	33.8
678.838	33.97
679.024	33.3
679.21	33.68
679.397	33.85
679.583	33.91
679.769	34.28
679.955	33.83
680.142	33.38
680.328	33.18
680.514	33.35
680.7	33.08
680.886	33.3
681.073	33.42
681.259	33.29
681.445	33.75
681.631	33.95
681.817	34.18
682.003	35.32
682.189	35.57
682.375	35.8
682.561	36.06
682.747	36.28
682.933	35.9
683.119	36.27
683.305	36.87
683.491	36.43
683.677	35.44
683.863	35.45
684.049	34.26
684.235	34.15
684.42	34.16
684.606	33.68
684.792	33.96
684.978	33.75
685.164	33.23
685.349	32.01
685.535	32.17
685.721	32.57
685.907	32.18
686.092	33.19
686.278	32.98
686.464	32.8
686.649	32.93
686.835	33.01
687.021	33.44
687.206	33.43
687.392	33.81
687.577	33.56
687.763	34.39
687.948	34.66
688.134	34.51
688.319	35.22
688.505	34.89
688.69	34.91
688.876	34.74
689.061	34.54
689.247	34.88
689.432	35.02
689.618	34.8
689.803	34.36
689.988	34.39
690.174	34.06
690.359	33.81
690.544	34.28
690.73	34.16
690.915	34.34
691.1	34.84
691.285	34.47
691.471	34.72
691.656	35.6
691.841	35.4
692.026	35.39
692.211	35.04
692.396	35
692.582	34.48
692.767	34.56
692.952	34.36
693.137	34.24
693.322	34.76
693.507	34.47
693.692	33.9
693.877	33.88
694.062	33.8
694.247	34.2
694.432	34.51
694.617	35.02
694.802	34.9
694.987	34.87
695.172	35.15
695.357	34.86
695.541	34.49
695.726	34.3
695.911	34.7
696.096	35.13
696.281	35.28
696.466	34.95
696.65	34.51
696.835	34.09
697.02	34.11
697.204	34.04
697.389	34.22
697.574	35.2
697.759	35.53
697.943	34.78
698.128	34.79
698.312	34.84
698.497	34.62
698.682	34.71
698.866	34.86
699.051	35.28
699.235	35.52
699.42	35.41
699.604	35.05
699.789	34.46
699.973	35.34
700.158	35.17
700.342	34.94
700.527	35.48
700.711	35.55
700.895	35.6
701.08	35.04
701.264	34.36
701.448	34
701.633	34.03
701.817	34.49
702.001	33.95
702.186	33.68
702.37	33.63
702.554	33.57
702.738	33.94
702.923	34.68
703.107	35.26
703.291	35.43
703.475	36.93
703.659	37.06
703.843	36.46
704.027	36.62
704.212	36.85
704.396	36.91
704.58	36.78
704.764	36.51
704.948	36.19
705.132	35.69
705.316	35.15
705.5	34.27
705.684	33.99
705.868	33.76
706.052	33.72
706.235	34.35
706.419	34.86
706.603	34.69
706.787	34.08
706.971	34.28
707.155	35.34
707.339	35.44
707.522	35.44
707.706	34.97
707.89	35.62
708.074	35.5
708.257	35.18
708.441	34.51
708.625	35.22
708.808	35.46
708.992	35.46
709.176	35.1
709.359	36.28
709.543	35.91
709.727	36.49
709.91	36.78
710.094	36.35
710.277	36.01
710.461	36.24
710.644	35.46
710.828	36.67
711.011	36.02
711.195	35.53
711.378	34.6
711.562	35.21
711.745	34.69
711.928	34.59
712.112	35.53
712.295	35.85
712.478	35.94
712.662	36.2
712.845	35.78
713.028	36.64
713.212	37.28
713.395	37.24
713.578	37.52
713.761	37.76
713.945	37.5
714.128	36.34
714.311	36.56
714.494	36.84
714.677	36.11
714.86	35.99
715.043	35.03
715.227	34.72
715.41	35.15
715.593	34.8
715.776	35.94
715.959	36.39
716.142	37.97
716.325	38.56
716.508	38.74
716.691	39.77
716.874	39.71
717.057	40.34
717.239	40.05
717.422	39.77
717.605	39.68
717.788	38.08
717.971	37.33
718.154	37.23
718.337	35.85
718.519	35.6
718.702	35.82
718.885	35.83
719.068	35.88
719.25	35.53
719.433	36.24
719.616	36.19
719.798	37.86
719.981	39.61
720.164	38.47
720.346	39.56
720.529	39.31
720.712	38.23
720.894	37.32
721.077	37.04
721.259	37.02
721.442	36.24
721.624	36.4
721.807	35.55
721.989	35.37
722.172	35.9
722.354	36.11
722.537	36.41
722.719	37.21
722.901	37.9
723.084	38.87
723.266	39.69
723.448	40.18
723.631	40.08
723.813	40.13
723.995	39.9
724.178	39.01
724.36	38.24
724.542	37.95
724.724	38.03
724.907	38.74
725.089	38.04
725.271	37.27
725.453	37.24
725.635	38.35
725.817	37.98
725.999	36.9
726.181	37.63
726.364	38.52
726.546	38.17
726.728	37.39
726.91	37.33
727.092	37.21
727.274	38.32
727.456	37.94
727.638	36.27
727.819	37.14
728.001	37.35
728.183	37.47
728.365	36.9
728.547	37.72
728.729	37.92
728.911	38.04
729.093	38.5
729.274	38.11
729.456	37.96
729.638	38.53
729.82	37.86
730.001	38.1
730.183	37.07
730.365	36.15
730.546	35.44
730.728	35.94
730.91	36.03
731.091	35.54
731.273	34.83
731.455	34.57
731.636	34.66
731.818	35.16
731.999	35.01
732.181	36.17
732.362	36.08
732.544	36.8
732.725	37.11
732.907	35.76
733.088	35.55
733.27	35.15
733.451	35.03
733.633	35.84
733.814	36.16
733.995	35.3
734.177	35.18
734.358	35.66
734.539	35.34
734.721	34.56
734.902	35.24
735.083	36.13
735.264	36.64
735.446	37.82
735.627	36.71
735.808	34.65
735.989	36.31
736.17	37.5
736.351	37.03
736.533	36.31
736.714	36.83
736.895	36.01
737.076	35.47
737.257	34.79
737.438	33.41
737.619	32.63
737.8	33.36
737.981	33.36
738.162	31.83
738.343	31.54
738.524	32.46
738.705	32.32
738.886	33.42
739.067	32.27
739.247	33.3
739.428	33.83
739.609	34.98
739.79	36.1
739.971	35.51
740.151	35.01
740.332	36.84
740.513	36.01
740.694	35.93
740.874	35.32
741.055	36.46
741.236	36.37
741.417	37.35
741.597	36.59
741.778	36.07
741.958	36.16
742.139	36.75
742.32	35.88
742.5	36.78
742.681	36.12
742.861	35.96
743.042	36.99
743.222	37.86
743.403	36.78
743.583	37.28
743.764	37.01
743.944	39
744.124	38.76
744.305	39.19
744.485	38.97
744.666	38.68
744.846	38.94
745.026	38.25
745.207	37.8
745.387	38.69
745.567	39.56
745.747	41.62
745.928	40.2
746.108	40.73
746.288	39.02
746.468	38.5
746.648	39.8
746.829	39.24
747.009	37.9
747.189	37.89
747.369	37.47
747.549	37.21
747.729	34.99
747.909	35.37
748.089	35.14
748.269	36.24
748.449	37.8
748.629	35.86
748.809	38.17
748.989	38.9
749.169	39.13
749.349	39.29
749.529	38.58
749.709	39.16
749.889	38.28
750.068	37.74
750.248	38.08
750.428	37.27
750.608	38.58
750.788	36.54
750.967	37.48
751.147	37.2
751.327	35.37
751.507	35.52
751.686	35.06
751.866	35.54
752.046	35.43
752.225	35.04
752.405	35.21
752.585	36.42
752.764	37.62
752.944	36.73
753.123	35.79
753.303	37.52
753.482	36.04
753.662	36.47
753.841	37.3
754.021	38.29
754.2	37.81
754.38	37.42
754.559	36.15
754.739	35.38
754.918	33.69
755.097	34.63
755.277	34.98
755.456	35.98
755.635	35.68
755.815	35.69
755.994	36.26
756.173	36.17
756.352	36.73
756.532	36.81
756.711	37.28
756.89	39.86
757.069	40.57
757.248	40.71
757.427	40.08
757.607	40.83
757.786	39.91
757.965	39.76
758.144	41.08
758.323	39.49
758.502	40.41
758.681	40.53
758.86	40.72
759.039	40.48
759.218	38.86
759.397	40.74
759.576	37.75
759.755	37.18
759.934	35.36
760.113	35.91
760.291	36.89
760.47	37.15
760.649	37.4
760.828	36.33
761.007	35.57
761.186	36.79
761.364	35.83
761.543	38.92
761.722	37.64
761.901	38.43
762.079	36.6
762.258	36.12
762.437	34.8
762.615	35.9
762.794	37.18
762.972	37.38
763.151	37.51
763.33	37.85
763.508	37.65
763.687	37.77
763.865	37.61
764.044	38.65
764.222	39.07
764.401	38.74
764.579	37.4
764.758	36.15
764.936	35.85
765.114	36.69
765.293	36.98
765.471	36.19
765.65	36.74
765.828	35.27
766.006	35.1
766.184	34.22
766.363	34.49
766.541	33.43
766.719	34.58
766.898	34.39
767.076	33.75
767.254	31.66
767.432	33.39
767.61	33.66
767.788	35.21
767.967	35.08
768.145	35.59
768.323	37.44
768.501	40.28
768.679	39.62
768.857	40.03
769.035	37.9
769.213	39.81
769.391	38
769.569	38.16
769.747	40.2
769.925	39.44
770.103	41.88
770.281	39.75
770.459	36.83
770.636	35.84
770.814	34.57
770.992	35.82
771.17	35.09
771.348	35
771.525	34.12
771.703	32.28
771.881	32.91
772.059	31.33
772.236	32.95
772.414	33.47
772.592	35.14
772.769	36.56
772.947	37.39
773.125	38.69
773.302	41.08
773.48	43.91
773.657	46.03
773.835	48.43
774.013	49.03
774.19	46.63
774.368	49.04
774.545	49.26
774.723	48.4
774.9	46.01
775.077	45.74
775.255	42.01
775.432	41
775.61	38.41
775.787	37.39
775.964	36.41
776.142	37.59
776.319	35.05
776.496	31.78
776.674	33.85
776.851	37.51
777.028	37.05
777.205	39.66
777.382	39.6
777.56	40.55
777.737	40.56
777.914	40
778.091	38.7
778.268	41.26
778.445	42.46
778.622	42.02
778.8	39.95
778.977	38.91
779.154	38.44
779.331	37.41
779.508	38.36
779.685	38.63
779.862	38.62
780.038	39.59
780.215	40.41
780.392	43.51
780.569	39.07
780.746	39.44
780.923	41.28
781.1	40.27
781.277	40.95
781.453	38.61
781.63	37.01
781.807	38.75
781.984	40.31
782.16	38.5
782.337	35.17
782.514	41.07
782.691	41.33
782.867	39.03
783.044	39.74
783.221	40.04
783.397	39.6
783.574	37.34
783.75	36.73
783.927	35.92
784.103	37.68
784.28	39.02
784.456	35.03
784.633	35.23
784.809	37.78
784.986	38.42
785.162	39.21
785.339	41.3
785.515	42.2
785.692	41.66
785.868	42.36
786.044	39.35
786.221	38.53
786.397	42.11
786.573	40.53
786.749	41.04
786.926	41.31
787.102	38.13
787.278	37.25
787.454	36.83
787.631	37.43
787.807	36.63
787.983	38.4
788.159	38.21
788.335	34.95
788.511	36.48
788.687	36.21
788.863	33.56
789.039	35.77
789.216	37.49
789.392	39.03
789.568	38.94
789.744	39.44
789.919	39.67
790.095	40.28
790.271	41.5
790.447	38.99
790.623	38.72
790.799	38.49
790.975	41.37
791.151	39.96
791.327	38.57
791.502	39.28
791.678	37.36
791.854	36.44
792.03	37.31
792.205	36.99
792.381	39.43
792.557	37.54
792.733	38.58
792.908	34.37
793.084	36.69
793.259	39.23
793.435	36.18
793.611	36.22
793.786	37.8
793.962	37.03
794.137	38.21
794.313	38.29
794.488	40.35
794.664	45.1
794.839	47.95
795.015	44.89
795.19	41.65
795.366	44.39
795.541	42.44
795.716	38.81
795.892	36.17
796.067	36.8
796.242	36.63
796.418	37.86
796.593	35.15
796.768	35.73
796.944	35.68
797.119	38.53
797.294	37.02
797.469	41.68
797.644	42.04
797.82	41.47
797.995	40.59
798.17	40.63
798.345	37.72
798.52	35.34
798.695	33.04
798.87	33.39
799.045	33.47
799.22	31.82
799.395	29.17
799.57	33.72
799.745	37.5
799.92	38.47
800.095	33.51
800.27	36.61
800.445	36.37
800.62	37
800.795	35.45
800.97	34.25
801.145	34.24
801.319	37.76
801.494	32.34
801.669	28.48
801.844	29.26
802.018	36.7
802.193	37.14
802.368	41.89
802.543	40.81
802.717	43.96
802.892	43.6
803.067	50.49
803.241	46.75
803.416	47.28
803.59	53.36
803.765	53.36
803.94	49.77
804.114	46.6
804.289	46.34
804.463	42.88
804.638	41.75
804.812	44.04
804.986	38.7
805.161	37.62
805.335	38.81
805.51	33.84
805.684	28.94
805.858	29.95
806.033	29.16
806.207	25.21
806.381	27.65
806.556	33.35
806.73	32.64
806.904	38.87
807.078	37.77
807.253	35.59
807.427	40.46
807.601	43.66
807.775	42.53
807.949	43.76
808.123	39.87
808.298	41.64
808.472	34.69
808.646	33.35
808.82	36.06
808.994	38.76
809.168	42.32
809.342	43.27
809.516	42.32
809.69	46.1
809.864	42.68
810.038	46.23
810.212	42.62
810.385	41.66
810.559	41.14
810.733	36.1
810.907	34.39
811.081	27.48
811.255	26.85
811.428	29.2
811.602	24.54
811.776	31.7
811.95	36.38
812.123	38.95
812.297	42.18
812.471	41.91
812.644	41.64
812.818	46
812.992	52.97
813.165	56.5
813.339	54.66
813.512	55.74
813.686	52.99
813.86	50.98
814.033	54.88
814.207	51.73
814.38	51.46
814.554	50.03
814.727	55.06
814.9	52.82
815.074	43.73
815.247	40.92
815.421	35.23
815.594	37.94
815.767	36.93
815.941	32.59
816.114	31.61
816.287	36.02
816.46	38.28
816.634	32.09
816.807	31.98
816.98	34.16
817.153	38.68
817.327	43.84
817.5	40.81
817.673	39
817.846	37.11
818.019	37.47
818.192	34.39
818.365	30.15
818.538	25
818.711	24.52
818.884	26.79
819.057	28.66
819.23	30.34
819.403	28.35
819.576	33.27
819.749	32.66
819.922	35.62
820.095	33.46
820.268	36.84
820.441	39.66
820.614	40.21
820.786	38.17
820.959	38.6
821.132	35.59
821.305	37.67
821.477	35.57
821.65	36.14
821.823	36.64
821.996	38.49
822.168	38.22
822.341	39.49
822.514	39.57
822.686	39.48
822.859	38.42
823.031	39.23
823.204	38.85
823.376	38.68
823.549	38.38
823.722	37.49
823.894	37.09
824.067	37.64
824.239	37.49
824.411	37.01
824.584	37.25
824.756	37.24
824.929	37.34
825.101	36.12
825.273	36.2
825.446	37.04
825.618	37.09
825.79	36.33
825.963	34.78
826.135	33.15
826.307	33.33
826.479	32.94
826.652	32.3
826.824	32.14
826.996	36.14
827.168	38.12
827.34	35.81
827.512	35.28
827.684	36.79
827.856	37.58
828.029	38.07
828.201	39.2
828.373	39.91
828.545	40.93
828.717	40.19
828.889	35.8
829.061	32.54
829.232	34.26
829.404	34.05
829.576	35.45
829.748	35.55
829.92	34.66
830.092	31.87
830.264	32.05
830.436	29.17
830.607	27.9
830.779	30.14
830.951	33.14
831.123	34.88
831.294	35.95
831.466	30.37
831.638	27.09
831.809	29.33
831.981	31.98
832.153	30.97
832.324	34.66
832.496	35.81
832.667	34.74
832.839	34.89
833.011	36.81
833.182	37.66
833.354	35.2
833.525	38.26
833.697	35.28
833.868	31.84
834.039	33.71
834.211	33.92
834.382	35.17
834.554	37.03
834.725	37.08
834.896	31.56
835.068	32.33
835.239	33.21
835.41	31.06
835.581	31.3
835.753	33.47
835.924	30.9
836.095	27.24
836.266	25.36
836.438	28.7
836.609	29.84
836.78	33.47
836.951	32.35
837.122	35.83
837.293	40.67
837.464	41.11
837.635	40.41
837.806	40.69
837.977	51.31
838.148	50.06
838.319	40.67
838.49	35.97
838.661	39.17
838.832	47.87
839.003	48.77
839.174	47.01
839.345	47.69
839.516	47.31
839.687	46.28
839.857	46.11
840.028	55.09
840.199	55.03
840.37	52.29
840.54	53.33
840.711	47.32
840.882	45.48
841.053	39.09
841.223	35.87
841.394	39.34
841.564	45.75
841.735	39.53
841.906	34.94
842.076	34.22
842.247	31.77
842.417	24.69
842.588	17.95
842.758	11.57
842.929	16.24
843.099	23.5
843.27	15.62
843.44	15.71
843.611	26.1
843.781	27.61
843.951	28.69
844.122	37.74
844.292	46.88
844.462	47.24
844.633	51.77
844.803	57.25
844.973	58.67
845.144	68.79
845.314	59.8
845.484	60.43
845.654	57.87
845.824	59.06
845.995	64.42
846.165	57.68
846.335	55.79
846.505	61.38
846.675	53.36
846.845	55.66
847.015	49.46
847.185	40.29
847.355	41.52
847.525	35.42
847.695	45.17
847.865	45.31
848.035	56.12
848.205	82.9
848.375	55.97
848.545	59.63
848.715	40.68
848.884	45.95
849.054	52.45
849.224	43.49
849.394	38.58
849.564	35.12
849.733	35.55
849.903	14.74
850.073	2.34
850.243	21.27
850.412	19.79
850.582	38.22
850.752	32.66
850.921	40.43
851.091	45.86
851.26	57.18
851.43	53.96
851.599	47.78
851.769	52.6
851.939	62.51
852.108	61.94
852.278	67.79
852.447	62.65
852.616	67.47
852.786	50.44
852.955	41.81
853.125	36.49
853.294	41.7
853.463	29.16
853.633	23.28
853.802	8.07
853.971	17.09
854.141	-1.16
854.31	14.24
854.479	14.93
854.648	25.89
854.818	21.56
854.987	6.4
855.156	8.08
855.325	37.41
855.494	39.76
855.663	44.99
855.832	31.32
856.001	36.42
856.171	21.2
856.34	13.56
856.509	20.75
856.678	32.05
856.847	23.83
857.016	22.92
857.185	10.25
857.353	14.23
857.522	16.57
857.691	26.09
857.86	53.51
858.029	41.15
858.198	42.28
858.367	46.58
858.535	31.74
858.704	40.49
858.873	40.35
859.042	44.12
859.21	48.91
859.379	28.23
859.548	21.88
859.717	6.86
859.885	28.83
860.054	33.54
860.222	30.2
860.391	29.66
860.56	34.7
860.728	16.73
860.897	19.83
861.065	0.89
861.234	34.49
861.402	34.92
861.571	19.57
861.739	-13.36
861.908	-56.53
862.076	-79.73
862.244	-11.59
862.413	-15.53
862.581	4.81
862.749	-67.15
862.918	-124.22
863.086	-231.82
863.254	-341.76
863.423	-302.18
863.591	-183.19
863.759	-30.01
863.927	-6.1
864.096	-28.58
864.264	-103.01
864.432	-108.96
864.6	-22.6
864.768	-2.26
864.936	-11.42
865.104	-13.65
865.272	-35.06
865.44	-58.12
865.608	-90.37
865.776	-124.77
865.944	-96.61
866.112	-9.49
866.28	-5.54
866.448	-2.33
866.616	14.85
866.784	12.48
866.952	24.1
867.12	35.74
867.288	32.1
867.455	33.2
867.623	45.58
867.791	31.19
867.959	22.28
868.127	35.15
868.294	18.18
868.462	19.75
868.63	36.94
868.797	41.27
868.965	41.26
869.133	23.07
869.3	7.07
869.468	5.89
869.636	34.84
869.803	43.39
869.971	52.81
870.138	49.42
870.306	62.76
870.473	41.03
870.641	25.95
870.808	28.74
870.975	64.37
871.143	86
871.31	95.71
871.478	72.73
871.645	50.22
871.812	22.02
871.98	41.89
872.147	2.75
872.314	45.43
872.482	38.76
872.649	50.63
872.816	20.17
872.983	15.39
873.15	23.91
873.318	15.67
873.485	15.42
873.652	-2.07
873.819	2.44
873.986	28.12
874.153	15.4
874.32	14.21
874.487	-54.08
874.654	-29.12
874.821	-39.36
874.988	-10.95
875.155	6.16
875.322	19.47
875.489	41.26
875.656	16.66
875.823	16.74
875.99	17.97
876.157	23.86
876.324	19.09
876.49	30.44
876.657	48.79
876.824	28.04
876.991	27.82
877.157	29.14
877.324	37.92
877.491	48.59
877.658	35.85
877.824	29.75
877.991	43.54
878.157	53.77
878.324	31.42
878.491	-7.71
878.657	13.75
878.824	41.62
878.99	52.82
879.157	43.43
879.323	37.37
879.49	28.48
879.656	43.42
879.823	18.58
879.989	25.36
880.156	39.38
880.322	41
880.488	43.64
880.655	26.38
880.821	19.37
880.987	23.77
881.154	21.11
881.32	25.6
881.486	27.58
881.652	35.05
881.819	32.96
881.985	28.25
882.151	26.45
882.317	29.46
882.483	33.55
882.649	36.01
882.816	36.78
882.982	36.68
883.148	37.47
883.314	36.32
883.48	33.19
883.646	37.19
883.812	39.67
883.978	40.86
884.144	39.96
884.31	38.87
884.476	39.25
884.642	39.38
884.807	41.55
884.973	39.55
885.139	40.84
885.305	41.56
885.471	39.35
885.637	36.57
885.802	35.44
885.968	34.69
886.134	35.21
886.3	28.59
886.465	26.39
886.631	24.93
886.797	28.24
886.962	23.45
887.128	20.42
887.293	17.23
887.459	16.32
887.625	17.37
887.79	31.45
887.956	15.58
888.121	19.31
888.287	16.65
888.452	19.04
888.618	6.76
888.783	2.99
