Data from 2937839_Reflection_1.txt Node
Date: Wed Jul 15 16:22:31 EDT 2015
User: robert
Spectrometer: USB4E03001
Autoset integration time: false
Trigger mode: 4
Integration Time (sec): 1.000000E-1
Scans to average: 10
Electric dark correction enabled: true
Nonlinearity correction enabled: false
Boxcar width: 5
Stray light correction enabled: false
XAxis mode: Wavelengths
Stop averaging: false
Number of Pixels in Spectrum: 3648
>>>>>Begin Spectral Data<<<<<
177.566	-159.35
177.785	-85.12
178.005	-20.4
178.225	9.38
178.445	-52.83
178.665	-72.46
178.885	107.85
179.105	-19.03
179.324	-170.68
179.544	-190.9
179.764	-184.84
179.984	-167.78
180.204	-167.29
180.423	-78.27
180.643	-140.79
180.863	-118.35
181.083	-116.9
181.302	-125.86
181.522	-194.35
181.742	-163.4
181.961	-432.06
182.181	195.6
182.401	209.92
182.621	306.29
182.84	106.48
183.06	64.72
183.279	87.32
183.499	113.87
183.719	128.14
183.938	182.5
184.158	321.41
184.377	1165.83
184.597	-1947.56
184.816	-212.33
185.036	-350.65
185.256	-119.9
185.475	-252.11
185.695	-342.76
185.914	-120.81
186.134	-5567.86
186.353	194
186.572	367.11
186.792	184.74
187.011	783.73
187.231	66.33
187.45	25.56
187.67	19.15
187.889	15.28
188.108	-74.7
188.328	-151.53
188.547	417.45
188.766	648.25
188.986	-2295.88
189.205	-288.22
189.424	-245.87
189.644	98.78
189.863	159.54
190.082	208.69
190.302	273.81
190.521	174.07
190.74	124.01
190.959	134.78
191.178	76.87
191.398	69.05
191.617	42.72
191.836	83.19
192.055	254.48
192.274	109.16
192.494	73.44
192.713	49.09
192.932	53.99
193.151	144.58
193.37	13.31
193.589	-14.86
193.808	6.71
194.027	-25.32
194.246	0.72
194.465	14.43
194.685	2.49
194.904	-3.32
195.123	-67.63
195.342	-57.56
195.561	-70.52
195.78	362.56
195.999	89.99
196.218	66.76
196.436	73.47
196.655	77.86
196.874	55.27
197.093	8.63
197.312	-5.07
197.531	83.51
197.75	3.18
197.969	-958.96
198.188	156.3
198.407	52.26
198.625	27.4
198.844	32.28
199.063	44.21
199.282	-21.43
199.501	1189.25
199.719	168.6
199.938	65.78
200.157	-514.81
200.376	310.12
200.594	174.73
200.813	142.07
201.032	78.68
201.251	72.35
201.469	87.75
201.688	47.65
201.907	30.35
202.125	-185.24
202.344	-166.67
202.563	501.5
202.781	-1308.66
203	444.92
203.218	382.39
203.437	376.94
203.656	3086.89
203.874	-570.52
204.093	696.25
204.311	-13600
204.53	-290.48
204.748	32.74
204.967	45.32
205.185	46.37
205.404	-28.52
205.622	-85.39
205.841	-3.04
206.059	24.96
206.278	30.47
206.496	30.09
206.715	29.27
206.933	21.84
207.151	-28.18
207.37	-40.82
207.588	-42.75
207.806	-210.15
208.025	-21.92
208.243	-2377.55
208.461	-681.56
208.68	1543.86
208.898	-118.99
209.116	-263.99
209.335	-193.8
209.553	3402.63
209.771	-392.24
209.989	-152.88
210.208	-46.73
210.426	-384.05
210.644	-150.55
210.862	101.35
211.081	-40.61
211.299	-1683.33
211.517	66.63
211.735	-94.65
211.953	-2.11
212.171	31.54
212.39	864.93
212.608	-138.02
212.826	235.45
213.044	168.82
213.262	-70.08
213.48	63.68
213.698	-63.98
213.916	-74.57
214.134	862.5
214.352	424.85
214.57	345.4
214.788	188.56
215.006	203.19
215.224	231.25
215.442	256.94
215.66	1155
215.878	279.94
216.096	234.14
216.314	-167.55
216.532	-620.31
216.75	159.42
216.968	188.64
217.185	149.09
217.403	143.02
217.621	166.79
217.839	171.8
218.057	456.25
218.275	-971.92
218.492	78.51
218.71	65.92
218.928	57.08
219.146	6.56
219.363	-155.73
219.581	-122.64
219.799	-127.85
220.017	-25.33
220.234	34.74
220.452	22.26
220.67	41.73
220.887	84.88
221.105	88.42
221.323	155.43
221.54	105.79
221.758	70.92
221.976	79.36
222.193	89.67
222.411	49.34
222.629	7.74
222.846	39.1
223.064	14.86
223.281	10
223.499	-12.52
223.716	-26.73
223.934	17.24
224.151	39.09
224.369	20.55
224.586	28.58
224.804	26.05
225.021	38.45
225.239	20.46
225.456	24.3
225.674	11.72
225.891	33.13
226.108	28.04
226.326	16.25
226.543	2.5
226.76	31.32
226.978	33.63
227.195	29.15
227.413	30.99
227.63	28.54
227.847	25.22
228.064	21.26
228.282	16.19
228.499	19.21
228.716	19.81
228.934	20.73
229.151	15.98
229.368	17.2
229.585	17.23
229.802	14.24
230.02	11.01
230.237	10.83
230.454	11.42
230.671	12.55
230.888	10.87
231.105	11.29
231.323	11.18
231.54	10.56
231.757	10.38
231.974	10.22
232.191	14.45
232.408	19.51
232.625	17.66
232.842	15.73
233.059	10.75
233.276	11.4
233.493	5.62
233.71	6.96
233.927	14.27
234.144	10.06
234.361	5.42
234.578	9.55
234.795	17.03
235.012	17.26
235.229	14.52
235.446	18.78
235.663	19.3
235.879	22.71
236.096	17.12
236.313	8.46
236.53	17.54
236.747	19.98
236.964	6.43
237.181	-8.42
237.397	-7.8
237.614	1.62
237.831	3.17
238.048	7.44
238.264	9.4
238.481	12.59
238.698	18.61
238.915	13.09
239.131	11.8
239.348	19.47
239.565	19.7
239.781	18.64
239.998	15.08
240.215	13.59
240.431	13.41
240.648	10.5
240.865	9.32
241.081	10.49
241.298	12.2
241.514	11.75
241.731	10.63
241.947	11.34
242.164	12.51
242.38	13.72
242.597	13.51
242.814	11.93
243.03	10.69
243.246	10.17
243.463	8.45
243.679	6.07
243.896	4.98
244.112	5.95
244.329	5.45
244.545	3.78
244.762	1.12
244.978	0.75
245.194	2.27
245.411	2.91
245.627	6.52
245.843	8.86
246.06	10.19
246.276	12.12
246.492	12.55
246.709	12.47
246.925	12.67
247.141	13.44
247.357	12.89
247.574	12.47
247.79	12.97
248.006	12.86
248.222	12.18
248.439	11.72
248.655	11.13
248.871	10.2
249.087	10.07
249.303	9.38
249.519	8.39
249.736	9.84
249.952	9.02
250.168	10.47
250.384	11.19
250.6	12.63
250.816	13.34
251.032	15.67
251.248	14.63
251.464	14.06
251.68	13.42
251.896	14.96
252.112	12.03
252.328	12.22
252.544	13.95
252.76	12.2
252.976	12.29
253.192	10.83
253.408	9.99
253.624	13.47
253.84	13.02
254.056	12.63
254.272	12.75
254.487	14.48
254.703	13.99
254.919	7.92
255.135	5.66
255.351	5.41
255.567	4.69
255.782	4.43
255.998	-1
256.214	-0.55
256.43	2.75
256.646	2.76
256.861	0.43
257.077	0.05
257.293	6.33
257.508	7.12
257.724	8.47
257.94	8.42
258.155	5.53
258.371	6.63
258.587	8.87
258.802	9.34
259.018	7.7
259.234	8.22
259.449	9.87
259.665	7.66
259.88	8.06
260.096	7.82
260.312	7.92
260.527	8.23
260.743	8.58
260.958	8.31
261.174	8.23
261.389	8.24
261.605	8.83
261.82	7.78
262.036	7.66
262.251	8.37
262.466	7.72
262.682	7.97
262.897	8.94
263.113	8.87
263.328	6.01
263.543	3.81
263.759	6.41
263.974	5.5
264.189	5.43
264.405	3.93
264.62	3.99
264.835	2.08
265.051	0.04
265.266	2.78
265.481	3.44
265.696	5.3
265.912	6.87
266.127	5.86
266.342	7.05
266.557	6.87
266.773	10.07
266.988	8.15
267.203	8.77
267.418	10.8
267.633	10.22
267.848	8.63
268.064	9.47
268.279	8.6
268.494	7.86
268.709	7.87
268.924	7.42
269.139	6.54
269.354	6.55
269.569	6.34
269.784	6.14
269.999	5.69
270.214	7.2
270.429	7.67
270.644	9.17
270.859	9.54
271.074	9.94
271.289	10.72
271.504	10.65
271.719	9.77
271.934	10.39
272.149	9.64
272.363	7.71
272.578	8.33
272.793	7.24
273.008	6.83
273.223	7.17
273.438	6.44
273.653	6.31
273.867	5.14
274.082	6.54
274.297	6.13
274.512	7.04
274.726	8
274.941	6.97
275.156	7.83
275.371	8.3
275.585	6.7
275.8	6.75
276.015	7.56
276.229	8.44
276.444	9.61
276.659	10.86
276.873	10.9
277.088	11.98
277.302	11.41
277.517	9.99
277.732	9.3
277.946	12.8
278.161	12.61
278.375	11.88
278.59	11.28
278.804	9.48
279.019	7.63
279.233	5.86
279.448	3.65
279.662	4.69
279.877	6.13
280.091	6.86
280.306	5.13
280.52	6.9
280.735	6.74
280.949	7.95
281.163	9.48
281.378	10.06
281.592	11.33
281.806	12.59
282.021	12.82
282.235	12.24
282.449	11.76
282.664	11.02
282.878	11.37
283.092	11.88
283.307	11.46
283.521	10.77
283.735	11.88
283.949	10.48
284.164	10.65
284.378	10.1
284.592	10.02
284.806	10.61
285.02	11.45
285.234	9.55
285.449	9.11
285.663	8.91
285.877	7.76
286.091	6.56
286.305	7.93
286.519	9.2
286.733	9.52
286.947	9.31
287.161	8.21
287.375	7.28
287.589	7.65
287.803	8.05
288.017	7.87
288.231	8.61
288.445	8.08
288.659	7.09
288.873	6.43
289.087	6.15
289.301	7.66
289.515	8.64
289.729	8.09
289.943	7.55
290.157	8.05
290.371	7.23
290.584	6.7
290.798	8.36
291.012	8.47
291.226	7.23
291.44	5.39
291.654	4.92
291.867	4.71
292.081	5.46
292.295	5.47
292.509	4.82
292.722	6.98
292.936	8.39
293.15	7.35
293.364	8.05
293.577	8.16
293.791	9.8
294.005	9.12
294.218	9.02
294.432	9.23
294.645	9.38
294.859	9.77
295.073	9.78
295.286	8.92
295.5	8.16
295.713	7.82
295.927	8.95
296.14	8.82
296.354	9.11
296.568	9.17
296.781	9.17
296.994	8.37
297.208	7.56
297.421	6.33
297.635	6.59
297.848	7.11
298.062	7.44
298.275	6.55
298.489	6.99
298.702	6.31
298.915	6.12
299.129	5.24
299.342	6.18
299.555	6.52
299.769	7.39
299.982	6.67
300.195	5.85
300.409	5.41
300.622	5.21
300.835	4.3
301.048	4.39
301.262	5.41
301.475	6.36
301.688	6.6
301.901	6.88
302.115	8
302.328	9.86
302.541	11.8
302.754	12.09
302.967	12.58
303.18	14
303.393	13.94
303.607	13.15
303.82	12.57
304.033	11.29
304.246	11.31
304.459	9.69
304.672	9.21
304.885	8.08
305.098	6.67
305.311	6.55
305.524	6.22
305.737	5.55
305.95	5.04
306.163	5.78
306.376	6.78
306.589	7.22
306.802	7.44
307.015	7.07
307.228	9.18
307.44	11.7
307.653	11.79
307.866	11.66
308.079	12.45
308.292	12.8
308.505	12.72
308.718	13.5
308.93	13.1
309.143	12.59
309.356	12.02
309.569	9.72
309.781	7.47
309.994	7.57
310.207	6.8
310.42	7.39
310.632	7.84
310.845	7.62
311.058	7.34
311.27	5.9
311.483	6.33
311.696	7.06
311.908	7.9
312.121	9
312.333	8.77
312.546	9.09
312.759	8.48
312.971	7.99
313.184	8.57
313.396	7.44
313.609	7.61
313.821	7.24
314.034	8.88
314.246	8.99
314.459	9.37
314.671	9.21
314.884	8.44
315.096	9.65
315.309	9.71
315.521	8.53
315.733	8.76
315.946	10.76
316.158	12.15
316.371	8.43
316.583	8.83
316.795	8.11
317.008	8.43
317.22	8.82
317.432	8.49
317.644	8.63
317.857	9.5
318.069	10.47
318.281	10.69
318.494	10.06
318.706	11.17
318.918	9.81
319.13	10.44
319.342	9.74
319.555	8.13
319.767	8.12
319.979	8.44
320.191	8.4
320.403	7.48
320.615	5.21
320.827	4.84
321.039	6.61
321.252	5.74
321.464	4.78
321.676	5.64
321.888	7.5
322.1	6.23
322.312	7.91
322.524	8.4
322.736	8.64
322.948	9.13
323.16	8.82
323.372	7.16
323.584	8.6
323.796	8.85
324.007	9.71
324.219	10.11
324.431	10.54
324.643	8.27
324.855	8.87
325.067	8.86
325.279	9.94
325.491	10.87
325.702	11.48
325.914	10.96
326.126	11.87
326.338	10.69
326.55	10.71
326.761	10.57
326.973	11.73
327.185	9.97
327.396	11.62
327.608	11.18
327.82	11.05
328.032	11.18
328.243	11.17
328.455	11.08
328.666	12.74
328.878	11.63
329.09	12.79
329.301	11.36
329.513	13.77
329.725	11.68
329.936	11.6
330.148	11.68
330.359	11.42
330.571	13.14
330.782	13.12
330.994	11.56
331.205	12.1
331.417	11.11
331.628	13
331.84	12.11
332.051	13.74
332.262	14.06
332.474	14.16
332.685	14.91
332.897	13.36
333.108	14.31
333.319	15.28
333.531	15.62
333.742	15.56
333.953	15.76
334.165	15.69
334.376	15.13
334.587	14.73
334.799	14.35
335.01	14.53
335.221	15.76
335.432	15.09
335.644	14.68
335.855	14.06
336.066	14.47
336.277	13.41
336.488	13.24
336.7	13.16
336.911	13.95
337.122	14.38
337.333	13.45
337.544	12.48
337.755	13.51
337.966	12.59
338.177	13.36
338.388	14.12
338.599	15.05
338.811	15.88
339.022	15.33
339.233	14.89
339.444	14.02
339.655	15.07
339.866	14.92
340.076	13.13
340.287	13.3
340.498	13.73
340.709	11.85
340.92	11.61
341.131	9.72
341.342	10.96
341.553	10.9
341.764	11.43
341.975	11.33
342.185	12.51
342.396	12.89
342.607	13.95
342.818	13.61
343.029	13.9
343.239	13.21
343.45	13.9
343.661	13.34
343.872	13.48
344.082	13.47
344.293	13.23
344.504	12.63
344.714	12.06
344.925	12.43
345.136	12.73
345.346	13.78
345.557	14.33
345.768	14.63
345.978	14.67
346.189	14.91
346.399	14.96
346.61	14.38
346.821	15.22
347.031	14.81
347.242	13.84
347.452	15.16
347.663	13.71
347.873	14.15
348.084	14.81
348.294	15.29
348.504	14.9
348.715	15.61
348.925	16.22
349.136	15.39
349.346	16.03
349.557	16.64
349.767	15.44
349.977	16.71
350.188	16.6
350.398	16.58
350.608	16.86
350.819	17.85
351.029	17.89
351.239	17.92
351.449	18.54
351.66	18.89
351.87	17.95
352.08	17.13
352.29	16.53
352.501	17.36
352.711	16.72
352.921	15.45
353.131	14.49
353.341	13.92
353.552	14
353.762	14.14
353.972	14.35
354.182	13.97
354.392	14.46
354.602	15.04
354.812	14
355.022	13.88
355.232	15.25
355.442	14.84
355.652	13.42
355.862	12.84
356.072	12.12
356.282	12.12
356.492	13.18
356.702	13.13
356.912	12.82
357.122	13.01
357.332	12.6
357.542	11.84
357.752	12.28
357.962	13.4
358.171	13.66
358.381	13.81
358.591	13.98
358.801	14.26
359.011	14.73
359.221	15.42
359.43	14.55
359.64	15.06
359.85	15.19
360.06	15.04
360.269	15.62
360.479	15.69
360.689	15.09
360.899	14.45
361.108	13.96
361.318	13.23
361.528	12.26
361.737	13.35
361.947	13
362.156	12.86
362.366	12.68
362.576	11.62
362.785	11.72
362.995	12.14
363.204	12.57
363.414	12.88
363.623	13.17
363.833	13.8
364.042	13.41
364.252	13.86
364.461	13.84
364.671	13.45
364.88	13.99
365.09	13.53
365.299	13.79
365.509	13.81
365.718	13.7
365.927	13.46
366.137	13.27
366.346	13.11
366.555	12.62
366.765	12.3
366.974	13.02
367.183	13.46
367.393	13.91
367.602	13.31
367.811	13.18
368.021	12.42
368.23	12.12
368.439	11.77
368.648	12.11
368.857	12.47
369.067	11.65
369.276	11.03
369.485	10.72
369.694	10.18
369.903	9.75
370.112	8.3
370.321	8.91
370.531	10.09
370.74	10.07
370.949	9.52
371.158	8.8
371.367	9.98
371.576	10.75
371.785	10.84
371.994	10.89
372.203	11.65
372.412	12.81
372.621	11.99
372.83	11.27
373.039	11.28
373.248	11.01
373.457	11.97
373.666	11.69
373.874	11.11
374.083	10.87
374.292	10.86
374.501	9.78
374.71	9.35
374.919	9.95
375.128	10.33
375.336	10.03
375.545	10.65
375.754	9.91
375.963	9.51
376.171	9.42
376.38	8.89
376.589	9.29
376.798	9.95
377.006	9.55
377.215	9.95
377.424	9.76
377.632	10.3
377.841	9.71
378.05	9.54
378.258	9.66
378.467	10.3
378.675	10.57
378.884	10.39
379.093	10.44
379.301	10.83
379.51	9.71
379.718	9.4
379.927	9.09
380.135	9.37
380.344	9.63
380.552	9.62
380.761	8.93
380.969	9.06
381.177	8.93
381.386	8.86
381.594	9.04
381.803	9.86
382.011	10.14
382.219	10.24
382.428	9.48
382.636	9.49
382.845	9.64
383.053	9.7
383.261	9.05
383.469	9.47
383.678	9.24
383.886	8.69
384.094	8.56
384.302	8.59
384.511	8.66
384.719	8.6
384.927	8.53
385.135	8.31
385.343	8.41
385.552	8.76
385.76	8.09
385.968	8.07
386.176	8.54
386.384	8.38
386.592	8.34
386.8	7.83
387.008	8.52
387.216	8.47
387.424	8.42
387.633	8.41
387.841	8.65
388.049	8.81
388.257	9.06
388.465	8.93
388.672	8.78
388.88	8.28
389.088	8.31
389.296	8.22
389.504	7.93
389.712	8.04
389.92	8.07
390.128	7.63
390.336	7.88
390.544	7.64
390.751	7.37
390.959	7.2
391.167	7.6
391.375	7.77
391.583	7.61
391.79	8.02
391.998	8.02
392.206	7.8
392.414	7.74
392.621	7.55
392.829	7.39
393.037	7.1
393.244	7.22
393.452	7.45
393.66	7.3
393.867	7.34
394.075	7.42
394.283	6.99
394.49	6.99
394.698	7.33
394.905	7.31
395.113	7.42
395.32	7.83
395.528	8.06
395.735	7.6
395.943	7.95
396.15	7.83
396.358	7.39
396.565	7.72
396.773	8.15
396.98	7.86
397.188	7.66
397.395	7.61
397.602	7.84
397.81	7.81
398.017	7.53
398.225	7.42
398.432	7.57
398.639	7.83
398.847	7.84
399.054	7.73
399.261	7.82
399.468	8.02
399.676	7.94
399.883	7.71
400.09	7.64
400.297	7.89
400.505	7.62
400.712	7.3
400.919	7.08
401.126	7.18
401.333	6.86
401.54	7
401.748	6.98
401.955	7.14
402.162	6.85
402.369	7.01
402.576	7.01
402.783	6.74
402.99	7.16
403.197	7.44
403.404	7.36
403.611	7.33
403.818	7.39
404.025	7.23
404.232	7.09
404.439	7.36
404.646	7.22
404.853	7.53
405.06	7.61
405.267	7.35
405.474	6.91
405.681	6.82
405.887	6.69
406.094	6.62
406.301	6.51
406.508	6.92
406.715	6.95
406.922	6.86
407.128	6.55
407.335	6.68
407.542	6.33
407.749	6.45
407.955	6.8
408.162	6.84
408.369	6.54
408.575	6.8
408.782	6.59
408.989	6.21
409.195	6.39
409.402	6.47
409.609	6.23
409.815	6.79
410.022	6.96
410.228	6.92
410.435	7.05
410.642	7.04
410.848	7.01
411.055	6.88
411.261	7.17
411.468	6.84
411.674	7.17
411.881	7.6
412.087	7.45
412.294	7.29
412.5	7.16
412.706	6.91
412.913	7.26
413.119	7.3
413.326	7.26
413.532	7.06
413.738	7.43
413.945	6.76
414.151	6.37
414.357	6.19
414.564	6.35
414.77	6.34
414.976	6.62
415.182	6.53
415.389	6.45
415.595	6.54
415.801	6.93
416.007	6.59
416.214	6.9
416.42	7.06
416.626	7.42
416.832	7.11
417.038	6.97
417.244	6.86
417.45	6.88
417.657	6.91
417.863	6.89
418.069	6.61
418.275	6.72
418.481	6.62
418.687	6.55
418.893	6.54
419.099	6.7
419.305	6.77
419.511	6.8
419.717	6.57
419.923	6.52
420.129	6.44
420.335	6.52
420.541	6.61
420.746	6.58
420.952	6.61
421.158	6.4
421.364	6.38
421.57	6.41
421.776	6.42
421.982	6.58
422.187	6.73
422.393	6.73
422.599	6.65
422.805	6.59
423.01	6.5
423.216	6.61
423.422	6.69
423.628	6.79
423.833	6.86
424.039	6.83
424.245	6.66
424.45	6.61
424.656	6.6
424.862	6.66
425.067	6.61
425.273	6.82
425.478	6.87
425.684	6.73
425.889	6.48
426.095	6.37
426.301	6.31
426.506	6.55
426.712	6.38
426.917	6.28
427.123	6.33
427.328	6.28
427.533	6.35
427.739	6.12
427.944	6.29
428.15	6.62
428.355	6.39
428.561	6.49
428.766	6.05
428.971	6.28
429.177	6.34
429.382	6
429.587	6.07
429.793	5.83
429.998	5.92
430.203	5.84
430.408	5.82
430.614	5.84
430.819	5.57
431.024	5.92
431.229	5.76
431.434	5.79
431.64	5.92
431.845	5.75
432.05	5.79
432.255	5.6
432.46	5.62
432.665	5.37
432.87	5.49
433.076	5.59
433.281	5.61
433.486	5.71
433.691	5.83
433.896	5.97
434.101	6.31
434.306	6.34
434.511	6.38
434.716	6.5
434.921	6.66
435.126	6.93
435.331	6.95
435.535	7.03
435.74	7.05
435.945	7.04
436.15	7.14
436.355	6.91
436.56	6.92
436.765	6.96
436.97	6.93
437.174	6.73
437.379	6.33
437.584	6.38
437.789	6.25
437.993	6.05
438.198	6.02
438.403	5.93
438.608	5.89
438.812	5.8
439.017	5.92
439.222	5.95
439.426	6
439.631	5.95
439.836	5.95
440.04	5.96
440.245	5.9
440.45	5.82
440.654	5.87
440.859	5.88
441.063	5.95
441.268	5.85
441.472	5.8
441.677	5.88
441.881	6.13
442.086	6.08
442.29	6.09
442.495	6.05
442.699	6.28
442.904	6.31
443.108	6.25
443.312	6.39
443.517	6.35
443.721	6.22
443.925	6.25
444.13	5.9
444.334	5.95
444.538	5.82
444.743	6
444.947	5.6
445.151	5.47
445.356	5.64
445.56	5.51
445.764	5.55
445.968	5.67
446.173	5.62
446.377	5.76
446.581	5.87
446.785	5.97
446.989	5.87
447.193	6.03
447.398	5.98
447.602	5.89
447.806	5.93
448.01	5.94
448.214	5.91
448.418	5.81
448.622	5.97
448.826	5.71
449.03	5.7
449.234	5.73
449.438	5.78
449.642	5.92
449.846	5.79
450.05	5.9
450.254	5.94
450.458	5.88
450.662	6.05
450.866	5.89
451.069	6.27
451.273	6.21
451.477	6.32
451.681	6.21
451.885	6.16
452.089	6.4
452.292	6.16
452.496	5.97
452.7	5.94
452.904	5.97
453.107	5.93
453.311	5.63
453.515	5.63
453.719	5.57
453.922	5.63
454.126	5.65
454.33	5.5
454.533	5.45
454.737	5.45
454.94	5.52
455.144	5.49
455.348	5.68
455.551	5.73
455.755	5.77
455.958	5.6
456.162	5.64
456.365	5.51
456.569	5.51
456.772	5.58
456.976	5.84
457.179	5.78
457.383	5.79
457.586	5.6
457.79	5.62
457.993	5.7
458.196	5.98
458.4	6.01
458.603	6.18
458.807	6.14
459.01	5.97
459.213	5.81
459.417	5.83
459.62	5.7
459.823	5.66
460.026	5.6
460.23	5.57
460.433	5.36
460.636	5.29
460.839	5.2
461.042	5.11
461.246	5.32
461.449	5.34
461.652	5.37
461.855	5.47
462.058	5.43
462.261	5.49
462.464	5.41
462.668	5.53
462.871	5.5
463.074	5.3
463.277	5.51
463.48	5.41
463.683	5.56
463.886	5.47
464.089	5.43
464.292	5.54
464.495	5.54
464.698	5.54
464.901	5.72
465.104	5.89
465.306	6.1
465.509	5.8
465.712	5.81
465.915	5.63
466.118	5.72
466.321	5.73
466.524	5.92
466.726	6.13
466.929	6.1
467.132	5.93
467.335	5.79
467.538	5.79
467.74	6.07
467.943	6.01
468.146	5.91
468.348	5.56
468.551	5.53
468.754	5.33
468.956	5.32
469.159	5.46
469.362	5.45
469.564	5.53
469.767	5.47
469.969	5.38
470.172	5.46
470.375	5.78
470.577	6.08
470.78	6.16
470.982	6.17
471.185	5.85
471.387	5.67
471.59	5.68
471.792	5.62
471.995	5.53
472.197	5.55
472.399	5.48
472.602	5.34
472.804	5.39
473.007	5.2
473.209	5.25
473.411	5.41
473.614	5.58
473.816	5.78
474.018	5.82
474.22	5.98
474.423	6.1
474.625	6.16
474.827	6.32
475.03	6.19
475.232	6.32
475.434	6.44
475.636	6.53
475.838	6.44
476.04	6.21
476.243	6.32
476.445	6.12
476.647	6.03
476.849	6.17
477.051	6.05
477.253	6.19
477.455	6.32
477.657	6.11
477.859	5.92
478.061	5.93
478.263	5.92
478.465	5.77
478.667	5.66
478.869	5.55
479.071	5.52
479.273	5.5
479.475	5.56
479.677	5.58
479.879	5.52
480.081	5.62
480.283	5.51
480.485	5.69
480.686	5.7
480.888	6
481.09	6
481.292	5.94
481.494	5.98
481.695	5.75
481.897	5.61
482.099	5.67
482.301	5.61
482.502	5.64
482.704	5.52
482.906	5.52
483.107	5.52
483.309	5.56
483.511	5.5
483.712	5.47
483.914	5.52
484.115	5.54
484.317	5.56
484.519	5.56
484.72	5.54
484.922	5.54
485.123	5.58
485.325	5.57
485.526	5.56
485.728	5.61
485.929	5.6
486.131	5.55
486.332	5.46
486.534	5.41
486.735	5.48
486.936	5.49
487.138	5.47
487.339	5.45
487.541	5.43
487.742	5.48
487.943	5.42
488.144	5.42
488.346	5.48
488.547	5.51
488.748	5.58
488.95	5.51
489.151	5.55
489.352	5.62
489.553	5.61
489.755	5.58
489.956	5.54
490.157	5.57
490.358	5.55
490.559	5.49
490.76	5.51
490.961	5.52
491.163	5.59
491.364	5.6
491.565	5.53
491.766	5.47
491.967	5.42
492.168	5.44
492.369	5.45
492.57	5.45
492.771	5.51
492.972	5.51
493.173	5.42
493.374	5.38
493.575	5.33
493.776	5.48
493.976	5.58
494.177	5.67
494.378	5.61
494.579	5.61
494.78	5.62
494.981	5.66
495.182	5.8
495.382	5.76
495.583	5.68
495.784	5.67
495.985	5.58
496.185	5.46
496.386	5.51
496.587	5.68
496.788	5.67
496.988	5.61
497.189	5.51
497.39	5.59
497.59	5.61
497.791	5.61
497.992	5.67
498.192	5.76
498.393	5.81
498.593	5.77
498.794	5.62
498.994	5.65
499.195	5.73
499.395	5.74
499.596	5.71
499.796	5.85
499.997	6.03
500.197	5.87
500.398	5.67
500.598	5.65
500.799	5.57
500.999	5.63
501.199	5.64
501.4	5.58
501.6	5.75
501.801	5.66
502.001	5.68
502.201	5.55
502.402	5.55
502.602	5.51
502.802	5.61
503.002	5.78
503.203	5.62
503.403	5.65
503.603	5.66
503.803	5.54
504.003	5.53
504.204	5.6
504.404	5.64
504.604	5.76
504.804	5.99
505.004	6.11
505.204	6.11
505.404	6.15
505.604	6.14
505.804	6.24
506.005	6.33
506.205	6.34
506.405	6.19
506.605	6.22
506.805	6.3
507.005	6.16
507.204	5.97
507.404	6.1
507.604	6.16
507.804	6.16
508.004	6.1
508.204	5.92
508.404	6.02
508.604	6.13
508.804	6.07
509.003	5.92
509.203	5.86
509.403	5.85
509.603	5.64
509.803	5.83
510.002	5.93
510.202	5.89
510.402	5.98
510.602	5.8
510.801	5.68
511.001	5.76
511.201	5.95
511.4	6.12
511.6	6.14
511.8	6.22
511.999	6.02
512.199	5.95
512.398	5.98
512.598	5.95
512.797	6.12
512.997	6.22
513.197	6.41
513.396	6.26
513.596	6.34
513.795	6.51
513.994	6.47
514.194	6.7
514.393	6.72
514.593	6.89
514.792	7.03
514.992	6.86
515.191	6.85
515.39	6.6
515.59	6.56
515.789	6.43
515.988	6.44
516.188	6.54
516.387	6.4
516.586	6.28
516.786	6.24
516.985	6.15
517.184	6.23
517.383	6.16
517.582	6.17
517.782	6.24
517.981	6.18
518.18	6.1
518.379	6.12
518.578	6.18
518.777	6.29
518.976	6.22
519.176	6.2
519.375	6.29
519.574	6.43
519.773	6.47
519.972	6.45
520.171	6.54
520.37	6.75
520.569	6.79
520.768	6.68
520.967	6.74
521.166	6.78
521.365	6.92
521.564	6.92
521.762	7.03
521.961	6.98
522.16	7.08
522.359	7.1
522.558	6.89
522.757	6.77
522.956	6.7
523.154	6.65
523.353	6.72
523.552	6.68
523.751	6.59
523.949	6.48
524.148	6.68
524.347	6.84
524.546	6.93
524.744	7.12
524.943	7.18
525.142	7.28
525.34	7.25
525.539	7.4
525.737	7.44
525.936	7.53
526.135	7.44
526.333	7.4
526.532	7.28
526.73	7.25
526.929	7.13
527.127	7.18
527.326	7.23
527.524	7.25
527.723	7.12
527.921	7.13
528.12	7.16
528.318	7.26
528.516	7.24
528.715	7.25
528.913	7.28
529.112	7.31
529.31	7.29
529.508	7.32
529.707	7.32
529.905	7.36
530.103	7.39
530.301	7.37
530.5	7.27
530.698	7.31
530.896	7.36
531.094	7.33
531.293	7.36
531.491	7.4
531.689	7.46
531.887	7.49
532.085	7.57
532.283	7.57
532.481	7.64
532.68	7.8
532.878	7.88
533.076	7.87
533.274	7.93
533.472	8
533.67	7.99
533.868	7.89
534.066	7.88
534.264	7.88
534.462	7.96
534.66	7.98
534.858	7.87
535.056	7.8
535.253	7.82
535.451	7.79
535.649	7.77
535.847	7.75
536.045	7.72
536.243	7.82
536.441	7.85
536.638	7.9
536.836	7.9
537.034	8.03
537.232	8.03
537.43	8.06
537.627	8.05
537.825	8
538.023	8.01
538.22	8.16
538.418	8.21
538.616	8.24
538.813	8.19
539.011	8.15
539.209	8.17
539.406	8.18
539.604	8.24
539.801	8.25
539.999	8.27
540.196	8.31
540.394	8.31
540.591	8.25
540.789	8.17
540.986	8.18
541.184	8.22
541.381	8.27
541.579	8.38
541.776	8.46
541.974	8.54
542.171	8.62
542.368	8.66
542.566	8.72
542.763	8.87
542.96	9
543.158	9.01
543.355	9.09
543.552	9.02
543.75	9.06
543.947	9.08
544.144	9.21
544.341	9.13
544.539	9.17
544.736	9.1
544.933	9.03
545.13	8.92
545.327	8.95
545.524	9.03
545.722	9.22
545.919	9.13
546.116	9.08
546.313	9.05
546.51	9.28
546.707	9.27
546.904	9.5
547.101	9.45
547.298	9.68
547.495	9.73
547.692	9.56
547.889	9.64
548.086	9.74
548.283	9.86
548.48	9.91
548.677	9.83
548.874	9.98
549.07	9.82
549.267	9.96
549.464	9.84
549.661	9.97
549.858	10.2
550.055	10.18
550.251	10.23
550.448	10.2
550.645	10.22
550.842	10.2
551.038	10.2
551.235	10.28
551.432	10.25
551.628	10.42
551.825	10.42
552.022	10.38
552.218	10.39
552.415	10.31
552.612	10.39
552.808	10.3
553.005	10.53
553.201	10.52
553.398	10.64
553.594	10.95
553.791	10.82
553.987	10.84
554.184	11.03
554.38	11.07
554.577	11.21
554.773	11.26
554.97	11.21
555.166	11.03
555.362	11.09
555.559	11.18
555.755	10.87
555.952	10.94
556.148	10.95
556.344	10.87
556.541	10.87
556.737	10.79
556.933	10.66
557.129	10.93
557.326	11.03
557.522	11.27
557.718	11.11
557.914	11.45
558.11	11.48
558.307	11.54
558.503	11.36
558.699	11.27
558.895	11.49
559.091	11.49
559.287	11.52
559.483	11.55
559.679	11.55
559.876	11.89
560.072	11.82
560.268	12.07
560.464	12.19
560.66	12.27
560.856	12.45
561.052	12.44
561.247	12.57
561.443	12.67
561.639	12.85
561.835	12.79
562.031	12.74
562.227	12.83
562.423	12.62
562.619	12.72
562.815	12.89
563.01	12.94
563.206	13.25
563.402	13.42
563.598	13.4
563.793	13.3
563.989	13.2
564.185	12.98
564.381	13.06
564.576	13.36
564.772	13.51
564.968	13.54
565.163	13.81
565.359	13.67
565.555	13.72
565.75	13.85
565.946	13.86
566.141	14.13
566.337	14.48
566.532	14.49
566.728	14.47
566.923	14.11
567.119	14.15
567.314	14.12
567.51	14.16
567.705	14.17
567.901	14.04
568.096	14.28
568.292	14.26
568.487	14.2
568.682	14.24
568.878	14.17
569.073	14.61
569.268	14.7
569.464	14.62
569.659	14.72
569.854	14.69
570.05	14.83
570.245	14.85
570.44	14.95
570.635	14.87
570.831	14.8
571.026	15.12
571.221	15.07
571.416	15.13
571.611	15.24
571.806	15.06
572.002	15.24
572.197	15.11
572.392	15.07
572.587	15.04
572.782	15.3
572.977	15.49
573.172	15.37
573.367	15.29
573.562	15.32
573.757	15.15
573.952	15.37
574.147	15.35
574.342	15.69
574.537	15.57
574.732	15.56
574.927	15.38
575.121	15.21
575.316	15.32
575.511	15.53
575.706	15.57
575.901	15.91
576.096	16.05
576.29	16.13
576.485	16.15
576.68	16.39
576.875	16.55
577.069	16.58
577.264	16.8
577.459	16.72
577.654	16.71
577.848	16.84
578.043	16.91
578.238	16.76
578.432	16.65
578.627	16.54
578.821	16.5
579.016	16.36
579.21	16.42
579.405	16.39
579.6	16.46
579.794	16.76
579.989	16.93
580.183	16.83
580.378	16.8
580.572	17.02
580.766	17.02
580.961	17.17
581.155	17.54
581.35	17.56
581.544	17.51
581.738	17.73
581.933	17.44
582.127	17.53
582.321	17.22
582.516	17.38
582.71	17.26
582.904	17.26
583.099	17.47
583.293	17.23
583.487	17.43
583.681	17.44
583.875	16.96
584.07	17.04
584.264	16.54
584.458	16.59
584.652	16.59
584.846	16.37
585.04	16.64
585.234	16.27
585.428	16.37
585.623	16.34
585.817	16.68
586.011	16.91
586.205	16.87
586.399	17.16
586.593	17.32
586.787	17.38
586.981	17.81
587.174	18.04
587.368	18.41
587.562	18.41
587.756	18.73
587.95	18.57
588.144	18.69
588.338	18.62
588.532	18.62
588.725	18.58
588.919	18.8
589.113	18.7
589.307	18.26
589.501	18.17
589.694	18.17
589.888	17.77
590.082	17.94
590.275	17.93
590.469	18.11
590.663	18.13
590.856	18.42
591.05	18.28
591.244	18.31
591.437	18.38
591.631	18.36
591.824	18.34
592.018	18.57
592.212	18.44
592.405	18.45
592.599	18.33
592.792	18.56
592.986	18.51
593.179	18.46
593.372	18.55
593.566	18.67
593.759	18.63
593.953	18.88
594.146	18.75
594.339	19.1
594.533	19.3
594.726	19.49
594.92	19.29
595.113	19.12
595.306	19.01
595.499	19.09
595.693	18.95
595.886	18.96
596.079	18.52
596.272	18.58
596.466	18.18
596.659	18.11
596.852	18.18
597.045	18.37
597.238	18.34
597.431	18.37
597.624	18.23
597.818	18.52
598.011	18.57
598.204	19.01
598.397	19.25
598.59	19.26
598.783	19.31
598.976	19.26
599.169	19.37
599.362	19.51
599.555	19.56
599.748	19.79
599.941	19.64
600.134	19.76
600.326	19.7
600.519	19.53
600.712	19.87
600.905	19.87
601.098	19.83
601.291	19.4
601.483	19.59
601.676	19.71
601.869	19.57
602.062	19.39
602.255	19.34
602.447	19.35
602.64	19.28
602.833	19
603.025	18.98
603.218	19
603.411	19.25
603.603	19.29
603.796	19.48
603.989	19.74
604.181	19.85
604.374	19.9
604.566	19.88
604.759	19.86
604.951	20.01
605.144	20.01
605.336	20.2
605.529	20.26
605.721	20.21
605.914	20.07
606.106	20.04
606.299	20.13
606.491	20.21
606.683	20.15
606.876	20.13
607.068	20.13
607.26	20.11
607.453	19.95
607.645	19.79
607.837	19.91
608.03	19.97
608.222	19.79
608.414	19.78
608.606	19.57
608.799	19.55
608.991	19.72
609.183	19.82
609.375	19.98
609.567	20.02
609.759	20.31
609.952	20.09
610.144	20.28
610.336	20.36
610.528	20.44
610.72	20.39
610.912	20.66
611.104	20.45
611.296	20.46
611.488	20.28
611.68	20.26
611.872	19.97
612.064	20.18
612.256	20.19
612.448	20.11
612.64	19.86
612.832	20.46
613.023	20.64
613.215	20.93
613.407	20.71
613.599	21.12
613.791	21.41
613.983	21.68
614.174	21.62
614.366	21.18
614.558	21.26
614.75	21.24
614.941	20.87
615.133	20.45
615.325	20.96
615.516	21.09
615.708	21.11
615.9	21.07
616.091	21.15
616.283	21.22
616.475	21.66
616.666	21.54
616.858	21.66
617.049	21.33
617.241	21.5
617.432	20.85
617.624	20.93
617.815	21.11
618.007	20.93
618.198	20.39
618.39	20.24
618.581	20.23
618.773	20.46
618.964	20.55
619.155	20.87
619.347	20.51
619.538	20.58
619.729	20.47
619.921	20.15
620.112	20.33
620.303	20.6
620.494	20.55
620.686	20.67
620.877	20.59
621.068	20.64
621.259	20.5
621.451	20.96
621.642	21.27
621.833	21.59
622.024	21.43
622.215	21.31
622.406	21.81
622.597	22.32
622.788	21.67
622.98	21.45
623.171	21.49
623.362	21.5
623.553	21.52
623.744	21.38
623.935	21.48
624.126	21.76
624.317	21.67
624.508	21.4
624.698	21.17
624.889	21.22
625.08	21.49
625.271	21.32
625.462	21.65
625.653	21.56
625.844	21.74
626.034	21.84
626.225	21.79
626.416	22.2
626.607	21.96
626.798	21.82
626.988	22.09
627.179	21.96
627.37	22.03
627.56	21.95
627.751	22.09
627.942	22.18
628.132	21.92
628.323	21.9
628.514	21.65
628.704	21.83
628.895	21.99
629.085	22.07
629.276	21.99
629.466	22.37
629.657	22.43
629.847	22.37
630.038	22.07
630.228	21.94
630.419	22.11
630.609	22.05
630.8	22.19
630.99	22.31
631.181	22.45
631.371	22.89
631.561	22.83
631.752	22.72
631.942	22.41
632.132	22.67
632.323	22.94
632.513	23.1
632.703	23.33
632.893	23.26
633.084	23.18
633.274	22.99
633.464	22.72
633.654	22.71
633.844	22.7
634.034	22.75
634.225	22.42
634.415	22.54
634.605	22.3
634.795	22.05
634.985	22.14
635.175	22.12
635.365	22.19
635.555	22.11
635.745	22.02
635.935	21.98
636.125	22.33
636.315	22.73
636.505	22.66
636.695	22.75
636.885	23.09
637.075	22.67
637.265	22.66
637.455	22.87
637.644	23.09
637.834	22.87
638.024	22.89
638.214	22.7
638.404	22.34
638.593	22.51
638.783	22.71
638.973	22.09
639.163	22.79
639.352	22.84
639.542	22.63
639.732	22.8
639.921	22.77
640.111	23.29
640.301	23.65
640.49	23.9
640.68	23.78
640.87	23.15
641.059	23.58
641.249	23.17
641.438	23.13
641.628	23.18
641.817	23.02
642.007	23.5
642.196	23.22
642.386	23.35
642.575	22.88
642.764	22.63
642.954	22.66
643.143	22.29
643.333	22.41
643.522	22.45
643.711	22.33
643.901	21.95
644.09	21.82
644.279	21.91
644.469	21.31
644.658	21.5
644.847	21.84
645.036	22.08
645.226	22.54
645.415	22.48
645.604	22.65
645.793	22.72
645.982	23.15
646.171	23.27
646.361	22.96
646.55	23.13
646.739	23.44
646.928	23.3
647.117	23.23
647.306	23.23
647.495	23.66
647.684	23.73
647.873	23.54
648.062	23.33
648.251	23.31
648.44	23.62
648.629	23.49
648.818	23.6
649.007	23.32
649.196	23.71
649.384	23.43
649.573	23.16
649.762	23.24
649.951	23.47
650.14	23.18
650.328	22.95
650.517	22.59
650.706	22.82
650.895	22.83
651.083	23.11
651.272	23.09
651.461	23.34
651.65	23.06
651.838	22.38
652.027	22.46
652.216	22.82
652.404	23.03
652.593	22.84
652.781	22.83
652.97	22.8
653.158	22.52
653.347	22.3
653.535	22.48
653.724	22.49
653.912	22.86
654.101	23.11
654.289	23.37
654.478	23.43
654.666	23.44
654.855	23.47
655.043	23.58
655.231	24.04
655.42	24.5
655.608	24.33
655.796	24.68
655.985	24.99
656.173	25.17
656.361	24.75
656.55	24.82
656.738	25
656.926	24.76
657.114	24.65
657.302	24.9
657.491	24.89
657.679	24.78
657.867	24.79
658.055	24.89
658.243	24.82
658.431	24.99
658.619	24.7
658.807	25
658.996	25.32
659.184	25.3
659.372	24.9
659.56	24.84
659.748	24.88
659.936	24.66
660.124	24.46
660.311	24.25
660.499	24.32
660.687	24.47
660.875	24.47
661.063	24.65
661.251	24.63
661.439	24.67
661.627	24.56
661.814	24.62
662.002	24.69
662.19	24.8
662.378	24.79
662.565	24.69
662.753	24.55
662.941	24.39
663.129	23.97
663.316	23.85
663.504	23.48
663.692	23.37
663.879	23.25
664.067	23.67
664.254	23.24
664.442	23.43
664.63	23.92
664.817	24.1
665.005	24.15
665.192	24.3
665.38	24.96
665.567	25.12
665.755	25.09
665.942	25.32
666.13	25.44
666.317	25.8
666.504	25.36
666.692	24.6
666.879	24.88
667.067	24.54
667.254	24.31
667.441	23.42
667.629	23.49
667.816	23.8
668.003	23.91
668.19	23.61
668.378	23.42
668.565	23.3
668.752	23.72
668.939	23.8
669.127	24.63
669.314	24.52
669.501	24.82
669.688	24.59
669.875	24.55
670.062	24.65
670.249	24.68
670.436	25.07
670.623	25.73
670.81	25.86
670.997	25.55
671.184	24.94
671.371	25.51
671.558	25.45
671.745	25.91
671.932	25.79
672.119	25.99
672.306	26.39
672.493	26.34
672.68	26.05
672.867	25.96
673.054	26.11
673.24	26.97
673.427	26.91
673.614	26.99
673.801	27.13
673.988	26.93
674.174	26.94
674.361	26.42
674.548	25.95
674.734	26.41
674.921	26.78
675.108	26.47
675.294	25.86
675.481	25.16
675.668	25.23
675.854	25.23
676.041	25.61
676.227	25.36
676.414	25.48
676.601	25.6
676.787	25.12
676.974	24.22
677.16	24.47
677.347	24.5
677.533	25.45
677.719	25.82
677.906	25.94
678.092	26.22
678.279	26.25
678.465	26.2
678.651	26.57
678.838	26.57
679.024	27.26
679.21	27.46
679.397	27.27
679.583	27.14
679.769	27.04
679.955	27.04
680.142	26.56
680.328	26.38
680.514	26.51
680.7	26.04
680.886	25.96
681.073	25.86
681.259	25.65
681.445	25.66
681.631	25.56
681.817	25.15
682.003	24.9
682.189	25.24
682.375	25.05
682.561	25.02
682.747	25.61
682.933	25.86
683.119	25.65
683.305	25.2
683.491	25.48
683.677	25.74
683.863	25.89
684.049	25.85
684.235	26.24
684.42	26.56
684.606	26.18
684.792	26.3
684.978	26.36
685.164	26.07
685.349	26.38
685.535	25.93
685.721	24.9
685.907	24.52
686.092	24.61
686.278	24.33
686.464	23.94
686.649	24.55
686.835	24.44
687.021	24.07
687.206	24.38
687.392	24.38
687.577	24.78
687.763	25.33
687.948	26.23
688.134	26.32
688.319	26.06
688.505	26.99
688.69	26.57
688.876	25.98
689.061	25.94
689.247	26.95
689.432	27.03
689.618	26.52
689.803	26.7
689.988	26.13
690.174	26.5
690.359	26.32
690.544	25.24
690.73	25.34
690.915	26.08
691.1	27.01
691.285	26.52
691.471	26.73
691.656	27.48
691.841	27.27
692.026	27.11
692.211	26.27
692.396	26.67
692.582	27.15
692.767	27.77
692.952	27.75
693.137	27.21
693.322	26.61
693.507	26.82
693.692	26.78
693.877	26.82
694.062	27.15
694.247	27.83
694.432	27.88
694.617	27.99
694.802	27.27
694.987	26.49
695.172	26.81
695.357	27.09
695.541	26.55
695.726	26.46
695.911	26.02
696.096	26.37
696.281	26.59
696.466	26.26
696.65	26.49
696.835	26.31
697.02	26.86
697.204	26.93
697.389	27.73
697.574	27.8
697.759	27.79
697.943	28.51
698.128	28.05
698.312	28.14
698.497	28.42
698.682	28.38
698.866	28.7
699.051	28.11
699.235	27.45
699.42	27.14
699.604	27.44
699.789	27.26
699.973	26.94
700.158	27.44
700.342	27.29
700.527	27.06
700.711	26.84
700.895	26.74
701.08	27.33
701.264	27.77
701.448	27.08
701.633	26.91
701.817	27.26
702.001	27.86
702.186	27.56
702.37	27.55
702.554	27.46
702.738	27.44
702.923	27.21
703.107	27.31
703.291	27.28
703.475	27.59
703.659	27
703.843	26.47
704.027	26.12
704.212	26.1
704.396	26.17
704.58	26.2
704.764	26.33
704.948	26.73
705.132	26.4
705.316	25.67
705.5	25.92
705.684	26.03
705.868	26.29
706.052	25.57
706.235	25.48
706.419	24.41
706.603	24.31
706.787	24.29
706.971	23.79
707.155	24.25
707.339	25.3
707.522	25.09
707.706	25.69
707.89	25.3
708.074	25.79
708.257	26.52
708.441	27.36
708.625	27.63
708.808	27.34
708.992	27.38
709.176	28.07
709.359	28
709.543	27.9
709.727	27.24
709.91	28.1
710.094	28.14
710.277	27.44
710.461	27.66
710.644	27.81
710.828	27.43
711.011	28.06
711.195	27.49
711.378	27.03
711.562	27.08
711.745	27.25
711.928	27.15
712.112	27.46
712.295	27.88
712.478	28
712.662	27.99
712.845	28.6
713.028	28.62
713.212	28.41
713.395	28.96
713.578	29.55
713.761	30.39
713.945	30.11
714.128	30.21
714.311	30.55
714.494	30.18
714.677	29.61
714.86	29.49
715.043	29.39
715.227	30.27
715.41	30.47
715.593	30.74
715.776	30.59
715.959	30.93
716.142	30.92
716.325	30.76
716.508	30.71
716.691	31.7
716.874	32.51
717.057	32.24
717.239	31.49
717.422	30.72
717.605	30.45
717.788	30.4
717.971	29.92
718.154	29.4
718.337	29.42
718.519	30.14
718.702	29.49
718.885	29.71
719.068	30.47
719.25	29.9
719.433	30.66
719.616	30.85
719.798	30.76
719.981	30.55
720.164	31.16
720.346	30.38
720.529	31.83
720.712	31.35
720.894	30.43
721.077	29.75
721.259	31
721.442	30.85
721.624	29.65
721.807	29.98
721.989	30.45
722.172	29.75
722.354	29.26
722.537	26.67
722.719	27.13
722.901	26.48
723.084	26.73
723.266	26.77
723.448	26.38
723.631	27.19
723.813	26.67
723.995	26.04
724.178	25.71
724.36	26.73
724.542	27.73
724.724	26.78
724.907	27.35
725.089	27.9
725.271	26.57
725.453	27.47
725.635	27.4
725.817	27.4
725.999	27.53
726.181	27.19
726.364	27.5
726.546	27.28
726.728	28.33
726.91	28.86
727.092	28.8
727.274	29.89
727.456	29.3
727.638	29.4
727.819	29.2
728.001	30.35
728.183	32.14
728.365	32.36
728.547	32.43
728.729	32.57
728.911	32.73
729.093	32.59
729.274	32.56
729.456	32.44
729.638	32.77
729.82	32.65
730.001	31.07
730.183	30.88
730.365	30.81
730.546	31.16
730.728	31.89
730.91	31.84
731.091	31.3
731.273	30.64
731.455	30.72
731.636	29.98
731.818	30.82
731.999	31.95
732.181	30.9
732.362	29.88
732.544	28.28
732.725	27.85
732.907	27.98
733.088	27.53
733.27	27.46
733.451	28.09
733.633	28.53
733.814	28.12
733.995	27.53
734.177	27.62
734.358	27.69
734.539	28.47
734.721	27.63
734.902	26.88
735.083	26.94
735.264	27.27
735.446	26.81
735.627	25.56
735.808	26
735.989	25.76
736.17	26.34
736.351	26.17
736.533	26.24
736.714	27.54
736.895	28.24
737.076	29.02
737.257	29.45
737.438	29.54
737.619	30.69
737.8	29.63
737.981	30.45
738.162	29.39
738.343	30.45
738.524	30.44
738.705	30.16
738.886	29.07
739.067	28.75
739.247	27.54
739.428	27.73
739.609	27.52
739.79	27.8
739.971	27.77
740.151	28.96
740.332	28.01
740.513	27.58
740.694	27.02
740.874	27.84
741.055	28.02
741.236	29.17
741.417	29.08
741.597	29.39
741.778	28.96
741.958	27.48
742.139	27.03
742.32	27.9
742.5	29.34
742.681	28.29
742.861	28.14
743.042	28.7
743.222	28.32
743.403	28.6
743.583	28.88
743.764	29.87
743.944	31.58
744.124	31.12
744.305	31.93
744.485	31.21
744.666	32.48
744.846	32.87
745.026	32.38
745.207	31.36
745.387	29.42
745.567	28.99
745.747	29.01
745.928	28.4
746.108	28.97
746.288	28.21
746.468	27.47
746.648	27.24
746.829	27.21
747.009	26.82
747.189	28.59
747.369	29.43
747.549	30.32
747.729	30.21
747.909	31.18
748.089	31.06
748.269	31.29
748.449	32.88
748.629	33.18
748.809	33.53
748.989	33.23
749.169	32.47
749.349	33.21
749.529	31.93
749.709	31.27
749.889	30.46
750.068	30.35
750.248	31.03
750.428	30.82
750.608	31.11
750.788	30.64
750.967	30.73
751.147	30.96
751.327	31.29
751.507	31.67
751.686	33.15
751.866	32.82
752.046	33.32
752.225	32.19
752.405	31.35
752.585	30.78
752.764	30.08
752.944	29.43
753.123	30.46
753.303	29.44
753.482	30.17
753.662	28.66
753.841	30.06
754.021	29.23
754.2	30.92
754.38	30.12
754.559	30.19
754.739	29.97
754.918	30.52
755.097	29.52
755.277	29.02
755.456	28.14
755.635	28.12
755.815	26.93
755.994	28.06
756.173	25.18
756.352	26.59
756.532	26.39
756.711	27.03
756.89	28.1
757.069	28.29
757.248	29.14
757.427	29.55
757.607	30.29
757.786	30.78
757.965	29.99
758.144	31.42
758.323	29.68
758.502	30.49
758.681	29.95
758.86	30.16
759.039	30.23
759.218	30.86
759.397	29.58
759.576	29.15
759.755	28.79
759.934	28.77
760.113	27.89
760.291	30.29
760.47	29.29
760.649	28.74
760.828	28.26
761.007	27.4
761.186	27.49
761.364	27.8
761.543	28.73
761.722	28.48
761.901	29.41
762.079	30.57
762.258	28.7
762.437	30.02
762.615	31.23
762.794	30.79
762.972	31.67
763.151	30.76
763.33	30.59
763.508	30.03
763.687	30.35
763.865	29.35
764.044	28.46
764.222	29.88
764.401	29.67
764.579	30.26
764.758	30.65
764.936	30.32
765.114	30.35
765.293	31.43
765.471	31.87
765.65	31.99
765.828	32.92
766.006	33.17
766.184	32.58
766.363	31.53
766.541	30.19
766.719	29.71
766.898	31.29
767.076	32.92
767.254	31.83
767.432	31.44
767.61	31.66
767.788	32.2
767.967	33.85
768.145	33.97
768.323	34.51
768.501	34.59
768.679	35.25
768.857	32.79
769.035	30.06
769.213	30.34
769.391	29.78
769.569	29.17
769.747	27.76
769.925	26.96
770.103	25.29
770.281	25.62
770.459	26.09
770.636	27.47
770.814	27.63
770.992	30.79
771.17	32.49
771.348	32.57
771.525	33.22
771.703	37.17
771.881	35.67
772.059	38.06
772.236	36.82
772.414	38.02
772.592	36
772.769	35.3
772.947	34.83
773.125	33.61
773.302	35.01
773.48	33.77
773.657	28.9
773.835	30.36
774.013	28.85
774.19	29.37
774.368	28.78
774.545	28.86
774.723	29.87
774.9	28.11
775.077	28.19
775.255	26.68
775.432	27.46
775.61	31.34
775.787	30.48
775.964	31.5
776.142	29.8
776.319	29.93
776.496	29.64
776.674	30.12
776.851	31.2
777.028	32.83
777.205	36.24
777.382	37.36
777.56	36.33
777.737	37.05
777.914	37.95
778.091	39.81
778.268	37.98
778.445	39.61
778.622	38.79
778.8	38.54
778.977	36.47
779.154	32.22
779.331	32.08
779.508	30.22
779.685	30.03
779.862	26.81
780.038	28.3
780.215	30.24
780.392	27.75
780.569	29.55
780.746	27.85
780.923	26.97
781.1	27.26
781.277	28
781.453	27.07
781.63	26.64
781.807	26.25
781.984	23.32
782.16	23
782.337	26.35
782.514	25.31
782.691	27.62
782.867	29.9
783.044	31.3
783.221	30.53
783.397	33.97
783.574	32.55
783.75	32.49
783.927	35.38
784.103	34.01
784.28	34.16
784.456	35.43
784.633	34.1
784.809	32.82
784.986	34.07
785.162	32.23
785.339	31.73
785.515	31
785.692	34.13
785.868	34.97
786.044	37.14
786.221	36.69
786.397	35.82
786.573	36.45
786.749	35.64
786.926	39.53
787.102	40.68
787.278	40.47
787.454	42.85
787.631	41.48
787.807	40.23
787.983	39.55
788.159	37.15
788.335	36.79
788.511	35.75
788.687	38.91
788.863	32.76
789.039	31.62
789.216	30.33
789.392	29.29
789.568	26.92
789.744	26.31
789.919	27.76
790.095	27.11
790.271	24.34
790.447	24.87
790.623	22.11
790.799	24
790.975	25.33
791.151	25.4
791.327	24.96
791.502	26.4
791.678	25.27
791.854	23.12
792.03	22.95
792.205	23.78
792.381	24.92
792.557	26.06
792.733	25.28
792.908	23.62
793.084	22.2
793.259	23.34
793.435	25.77
793.611	28.84
793.786	32.99
793.962	34.44
794.137	34.31
794.313	33.54
794.488	34.82
794.664	34.39
794.839	33.57
795.015	34.3
795.19	36.73
795.366	34.3
795.541	31.76
795.716	29.1
795.892	29.87
796.067	34.13
796.242	33.53
796.418	34.38
796.593	32.13
796.768	33.54
796.944	33.01
797.119	32.7
797.294	34.59
797.469	34.15
797.644	32.38
797.82	34.05
797.995	30.96
798.17	30.13
798.345	28.21
798.52	30.96
798.695	30.95
798.87	32.18
799.045	28.99
799.22	30.71
799.395	33
799.57	35.96
799.745	35.58
799.92	35.73
800.095	36.34
800.27	36.42
800.445	35.89
800.62	35.73
800.795	37.85
800.97	39.34
801.145	38.23
801.319	38.62
801.494	34.33
801.669	34.27
801.844	34
802.018	35.41
802.193	36.79
802.368	36.89
802.543	36.25
802.717	35.88
802.892	34.59
803.067	32.7
803.241	32.81
803.416	36.07
803.59	33.58
803.765	34.01
803.94	30.61
804.114	29.15
804.289	28.43
804.463	31.75
804.638	31.09
804.812	32.08
804.986	29.94
805.161	27.57
805.335	28.23
805.51	29.28
805.684	28.7
805.858	28.95
806.033	32.36
806.207	30.71
806.381	32.76
806.556	33.23
806.73	32.15
806.904	34.46
807.078	35.5
807.253	35.3
807.427	35.01
807.601	36.17
807.775	36.03
807.949	32.52
808.123	33.86
808.298	29.15
808.472	28.33
808.646	27.37
808.82	29.06
808.994	28.49
809.168	23.37
809.342	22.7
809.516	24.78
809.69	29.66
809.864	29.86
810.038	28.86
810.212	27.64
810.385	25.63
810.559	29.05
810.733	26.42
810.907	28.15
811.081	28.15
811.255	25.67
811.428	21.67
811.602	22.48
811.776	26.02
811.95	33.83
812.123	35.49
812.297	35.27
812.471	33.52
812.644	32.19
812.818	27.76
812.992	30.48
813.165	33.93
813.339	36.35
813.512	33.61
813.686	29.32
813.86	29.86
814.033	33.08
814.207	36.43
814.38	38.41
814.554	36.95
814.727	35.75
814.9	39.44
815.074	40.24
815.247	38.23
815.421	40.8
815.594	40.48
815.767	32.96
815.941	30.85
816.114	29.27
816.287	29.16
816.46	29.78
816.634	36.51
816.807	31.08
816.98	26.24
817.153	32.16
817.327	33.24
817.5	34.09
817.673	37.21
817.846	35.43
818.019	34.73
818.192	34.81
818.365	43.48
818.538	40.71
818.711	37.06
818.884	38.33
819.057	37.8
819.23	34.63
819.403	33.95
819.576	28.04
819.749	29.3
819.922	31.31
820.095	32.6
820.268	27.9
820.441	30.57
820.614	34.69
820.786	34.29
820.959	34.32
821.132	33.59
821.305	33.09
821.477	36.17
821.65	35.3
821.823	33.86
821.996	33.79
822.168	34.61
822.341	33.61
822.514	34.18
822.686	35.17
822.859	34.5
823.031	34.53
823.204	34.76
823.376	34.4
823.549	34.28
823.722	35.03
823.894	34.39
824.067	33.99
824.239	34.43
824.411	33.71
824.584	32.87
824.756	32.73
824.929	32.81
825.101	33.13
825.273	32.38
825.446	33.5
825.618	34.19
825.79	35.5
825.963	35.33
826.135	35.71
826.307	37.19
826.479	37.8
826.652	37.97
826.824	38.77
826.996	37.92
827.168	38
827.34	36.61
827.512	36.13
827.684	36.24
827.856	37.63
828.029	36.99
828.201	35.47
828.373	35.47
828.545	36.65
828.717	36.39
828.889	38.36
829.061	39.41
829.232	39.85
829.404	39.93
829.576	39.74
829.748	38.26
829.92	39.11
830.092	39
830.264	38.92
830.436	39.26
830.607	39.41
830.779	37.79
830.951	38.12
831.123	37.99
831.294	38.54
831.466	40.58
831.638	42.28
831.809	39.99
831.981	42.35
832.153	42.73
832.324	40.22
832.496	41.77
832.667	43.44
832.839	40.36
833.011	42.09
833.182	41.12
833.354	38.05
833.525	36.73
833.697	39.86
833.868	36.23
834.039	37.01
834.211	39.99
834.382	39.72
834.554	36.57
834.725	38.61
834.896	39.91
835.068	39.84
835.239	41.44
835.41	39.15
835.581	36.49
835.753	41.25
835.924	44.14
836.095	34.89
836.266	33.77
836.438	35.42
836.609	33.36
836.78	29.16
836.951	28.88
837.122	28.7
837.293	32.38
837.464	37.27
837.635	34.61
837.806	26.91
837.977	37.48
838.148	37.54
838.319	38.89
838.49	40.43
838.661	40.46
838.832	39.44
839.003	32.36
839.174	34.67
839.345	32.27
839.516	32.62
839.687	37.99
839.857	38.45
840.028	37.05
840.199	36.44
840.37	36.71
840.54	42.46
840.711	34
840.882	46.42
841.053	42.51
841.223	42.7
841.394	43.35
841.564	45.48
841.735	45.28
841.906	48.72
842.076	49.51
842.247	48.37
842.417	35.35
842.588	47.26
842.758	32.86
842.929	25.88
843.099	26.4
843.27	30.11
843.44	18.18
843.611	24.28
843.781	-1.29
843.951	-9.58
844.122	-10.46
844.292	-4.52
844.462	-14.39
844.633	-5.05
844.803	7.59
844.973	11.17
845.144	-14.68
845.314	-34.69
845.484	-41.21
845.654	-15.14
845.824	5.05
845.995	14.5
846.165	35.09
846.335	59.88
846.505	61.25
846.675	60.09
846.845	47.86
847.015	57.34
847.185	65.78
847.355	73.52
847.525	55.29
847.695	71.97
847.865	50.48
848.035	29.37
848.205	9.58
848.375	14.95
848.545	4.87
848.715	17.52
848.884	-1.52
849.054	0.34
849.224	7.28
849.394	25.42
849.564	18.69
849.733	22.24
849.903	3.05
850.073	12.81
850.243	13.41
850.412	30.61
850.582	33.99
850.752	60.02
850.921	73.55
851.091	92.37
851.26	95.14
851.43	90.91
851.599	84.26
851.769	109.82
851.939	108.9
852.108	99.75
852.278	100.75
852.447	93.4
852.616	76.75
852.786	72.09
852.955	67.64
853.125	58.35
853.294	42.92
853.463	40.03
853.633	47.81
853.802	43.77
853.971	44.64
854.141	44.47
854.31	49.92
854.479	42.94
854.648	34.82
854.818	32.1
854.987	33.89
855.156	32.16
855.325	35.76
855.494	20.02
855.663	8.93
855.832	6.02
856.001	-0.8
856.171	-18.39
856.34	-16.2
856.509	-8.39
856.678	-35.44
856.847	-31.38
857.016	16.99
857.185	10.56
857.353	10.01
857.522	7.1
857.691	12.54
857.86	-9.02
858.029	20.62
858.198	-6.23
858.367	4.21
858.535	29.31
858.704	2.45
858.873	-15.33
859.042	-2.92
859.21	-0.2
859.379	1.11
859.548	-5.95
859.717	6.16
859.885	21.93
860.054	41.98
860.222	41.18
860.391	29.92
860.56	62.27
860.728	49.35
860.897	40.4
861.065	43.38
861.234	65.11
861.402	67.46
861.571	63.45
861.739	36.59
861.908	28.75
862.076	17.21
862.244	24.18
862.413	7.32
862.581	8.11
862.749	-2.53
862.918	-2.33
863.086	-8.97
863.254	22.77
863.423	32.55
863.591	56.69
863.759	62.58
863.927	51.77
864.096	49.32
864.264	43.16
864.432	43.34
864.6	50.53
864.768	50.83
864.936	34.45
865.104	17.32
865.272	-3.16
865.44	-10.89
865.608	-16.85
865.776	1.4
865.944	-18.74
866.112	-30.33
866.28	-21.21
866.448	-12.71
866.616	-4.67
866.784	9.96
866.952	0.17
867.12	39.88
867.288	49.28
867.455	45.62
867.623	21.71
867.791	12
867.959	16.26
868.127	20.33
868.294	20.47
868.462	26.76
868.63	55.31
868.797	71.91
868.965	-59.55
869.133	56.02
869.3	88.27
869.468	112.56
869.636	89.15
869.803	73.6
869.971	69.42
870.138	89.86
870.306	97.65
870.473	68.47
870.641	75.19
870.808	86.45
870.975	98.06
871.143	91.72
871.31	58.41
871.478	97.2
871.645	192.87
871.812	309.16
871.98	147.31
872.147	226.4
872.314	225.02
872.482	119.7
872.649	99.31
872.816	59.82
872.983	23.39
873.15	53.39
873.318	44.9
873.485	35.64
873.652	21.32
873.819	44.74
873.986	35.03
874.153	38.7
874.32	41.05
874.487	36.29
874.654	48.29
874.821	83.68
874.988	57.71
875.155	57.04
875.322	99.55
875.489	51.82
875.656	33.19
875.823	30.71
875.99	21.97
876.157	44.01
876.324	40.27
876.49	68.65
876.657	72.75
876.824	73.9
876.991	95.53
877.157	115.67
877.324	176
877.491	202.1
877.658	143.93
877.824	171.04
877.991	94.94
878.157	95.08
878.324	77.1
878.491	82.49
878.657	105.4
878.824	42.42
878.99	34.39
879.157	34.5
879.323	40.67
879.49	51.8
879.656	58.99
879.823	51.07
879.989	37.15
880.156	49.15
880.322	44.69
880.488	43.51
880.655	59.66
880.821	55.92
880.987	49.48
881.154	45.41
881.32	39.2
881.486	36.48
881.652	39.71
881.819	44.59
881.985	36.34
882.151	39.34
882.317	37.66
882.483	32.7
882.649	31.93
882.816	34.89
882.982	36.68
883.148	35.52
883.314	32.85
883.48	33.02
883.646	33.37
883.812	35.39
883.978	33.48
884.144	35.47
884.31	38.17
884.476	39.79
884.642	40.65
884.807	38.76
884.973	37.86
885.139	40.12
885.305	41.54
885.471	41.21
885.637	43.59
885.802	45.55
885.968	42.62
886.134	40.54
886.3	40.03
886.465	37.53
886.631	41.6
886.797	48.69
886.962	52.48
887.128	52.41
887.293	52.07
887.459	47.39
887.625	41.6
887.79	43.75
887.956	39.8
888.121	38.58
888.287	37.4
888.452	33.59
888.618	15.41
888.783	-6.24
