Data from 2937856_Reflection_3.txt Node
Date: Wed Jul 15 15:39:59 EDT 2015
User: robert
Spectrometer: USB4E03001
Autoset integration time: false
Trigger mode: 4
Integration Time (sec): 1.000000E-1
Scans to average: 10
Electric dark correction enabled: true
Nonlinearity correction enabled: false
Boxcar width: 5
Stray light correction enabled: false
XAxis mode: Wavelengths
Stop averaging: false
Number of Pixels in Spectrum: 3648
>>>>>Begin Spectral Data<<<<<
177.566	-270.99
177.785	-2431.43
178.005	227.4
178.225	150.92
178.445	196.96
178.665	239.85
178.885	20.3
179.105	-302.03
179.324	709.05
179.544	-388.21
179.764	-1393.75
179.984	221.18
180.204	164.19
180.423	60.42
180.643	90.18
180.863	80.52
181.083	97.5
181.302	86.52
181.522	90.12
181.742	124.43
181.961	111.7
182.181	121
182.401	147.24
182.621	134.05
182.84	127.47
183.06	87.25
183.279	102.46
183.499	57.21
183.719	53.08
183.938	31
184.158	16.09
184.377	-17.49
184.597	-321.57
184.816	-158.12
185.036	-108.57
185.256	-85.48
185.475	-51.48
185.695	-4.8
185.914	45.54
186.134	43.25
186.353	113.43
186.572	565.82
186.792	184.27
187.011	180.88
187.231	174.15
187.45	289.92
187.67	322.8
187.889	445.45
188.108	599.49
188.328	430.67
188.547	617.49
188.766	49431.82
188.986	1208.23
189.205	516.73
189.424	271.83
189.644	355.89
189.863	338.85
190.082	342.18
190.302	421.01
190.521	303.02
190.74	317.67
190.959	285.94
191.178	127.31
191.398	102.08
191.617	169
191.836	469.03
192.055	-232.11
192.274	-329.68
192.494	961.62
192.713	315.99
192.932	144.44
193.151	96.29
193.37	133.48
193.589	147.72
193.808	99.94
194.027	50.41
194.246	45.37
194.465	37.01
194.685	61.82
194.904	59.79
195.123	277.49
195.342	-230.33
195.561	-25.85
195.78	53.9
195.999	33.9
196.218	6.59
196.436	10.18
196.655	-13041.18
196.874	385.48
197.093	32.9
197.312	90.83
197.531	149.38
197.75	31.45
197.969	-20.7
198.188	-86.39
198.407	-10.89
198.625	22.17
198.844	19.41
199.063	33.58
199.282	32.38
199.501	-8.65
199.719	-64.61
199.938	-117.54
200.157	-139.95
200.376	-46.63
200.594	-120.58
200.813	-280.76
201.032	301.64
201.251	456.93
201.469	10971.62
201.688	566
201.907	613.13
202.125	217.37
202.344	208.98
202.563	156.28
202.781	105.57
203	169.01
203.218	217.49
203.437	1357.14
203.656	894.94
203.874	132.74
204.093	196.62
204.311	317.42
204.53	407.21
204.748	298.03
204.967	187.01
205.185	180.35
205.404	143.73
205.622	122.07
205.841	142.44
206.059	152.69
206.278	171.06
206.496	133.55
206.715	131.29
206.933	241.77
207.151	343.73
207.37	-148.9
207.588	-267.29
207.806	-268.14
208.025	-331.09
208.243	-368.41
208.461	1471.59
208.68	856.99
208.898	-2330.7
209.116	-517.15
209.335	571.27
209.553	436.84
209.771	262.03
209.989	424.75
210.208	664.15
210.426	-3154.62
210.644	-274.84
210.862	-191.71
211.081	-345.04
211.299	-1319.79
211.517	-736.64
211.735	-183.17
211.953	-21.61
212.171	-55.19
212.39	-51.71
212.608	-67.9
212.826	7.64
213.044	52.61
213.262	204.32
213.48	228.17
213.698	227.19
213.916	258.03
214.134	-180.17
214.352	-3680.17
214.57	649.25
214.788	722.84
215.006	842.16
215.224	-2374.87
215.442	450.31
215.66	420.55
215.878	312.72
216.096	436.03
216.314	-11031.88
216.532	917.41
216.75	237.33
216.968	228.06
217.185	212.01
217.403	279.58
217.621	190.55
217.839	172.85
218.057	184.36
218.275	174.62
218.492	197.45
218.71	154.51
218.928	146.86
219.146	207.92
219.363	162.12
219.581	292.79
219.799	313.29
220.017	-3571.01
220.234	-25.17
220.452	5.87
220.67	-183.27
220.887	-278.33
221.105	-1508.96
221.323	-195.33
221.54	349.28
221.758	429.85
221.976	276.93
222.193	238.7
222.411	201.12
222.629	158.49
222.846	127.76
223.064	145.47
223.281	137.1
223.499	115.81
223.716	72.57
223.934	86.03
224.151	107.68
224.369	100.46
224.586	66.45
224.804	55.85
225.021	40.45
225.239	52.26
225.456	-83.27
225.674	432.61
225.891	50.33
226.108	-35.98
226.326	78.65
226.543	22.5
226.76	-9.56
226.978	1.84
227.195	8.65
227.413	13.88
227.63	21.37
227.847	12.45
228.064	13.69
228.282	12.62
228.499	11.27
228.716	3.26
228.934	6.4
229.151	5.64
229.368	8.3
229.585	8.96
229.802	10.42
230.02	5.08
230.237	5.14
230.454	5.79
230.671	10.56
230.888	14.33
231.105	18.77
231.323	20.21
231.54	26.75
231.757	26.15
231.974	26.83
232.191	26.75
232.408	33.62
232.625	40.99
232.842	41.78
233.059	44.08
233.276	48.4
233.493	52.4
233.71	49.86
233.927	41.59
234.144	42.67
234.361	40.16
234.578	39.51
234.795	36.31
235.012	33.05
235.229	36.97
235.446	32.6
235.663	29.75
235.879	29.98
236.096	27.7
236.313	33.87
236.53	31.76
236.747	33.01
236.964	32.66
237.181	31.61
237.397	23.9
237.614	15.93
237.831	23.7
238.048	21.96
238.264	19.07
238.481	19.71
238.698	19.01
238.915	26.06
239.131	27.7
239.348	28.4
239.565	28.83
239.781	27.15
239.998	27.85
240.215	22.86
240.431	20.63
240.648	18.85
240.865	19.31
241.081	15.38
241.298	11.83
241.514	11.63
241.731	12.2
241.947	10.73
242.164	7.51
242.38	8.57
242.597	10.07
242.814	9.76
243.03	9.91
243.246	9.42
243.463	11.58
243.679	13.34
243.896	13.32
244.112	12.47
244.329	13.84
244.545	17.48
244.762	16.33
244.978	14.83
245.194	16.1
245.411	17.23
245.627	15.9
245.843	14.64
246.06	12.79
246.276	13.29
246.492	14.04
246.709	14.54
246.925	14.63
247.141	15.01
247.357	14.69
247.574	14.05
247.79	14.29
248.006	15
248.222	15.27
248.439	14.58
248.655	14.05
248.871	13.05
249.087	13.13
249.303	12.23
249.519	12.13
249.736	13.52
249.952	15.82
250.168	15.72
250.384	13.92
250.6	14.75
250.816	17.22
251.032	17.87
251.248	18.7
251.464	16.77
251.68	18.4
251.896	19.68
252.112	17.27
252.328	14.16
252.544	15.35
252.76	16.59
252.976	17.17
253.192	17.26
253.408	18.66
253.624	20.57
253.84	19.43
254.056	18.56
254.272	18.96
254.487	21.43
254.703	24.41
254.919	22.84
255.135	19.86
255.351	15.04
255.567	14.2
255.782	13.44
255.998	9.66
256.214	12.42
256.43	13.66
256.646	14.12
256.861	14.58
257.077	12.91
257.293	12.78
257.508	15.11
257.724	14.41
257.94	14.52
258.155	12.79
258.371	12.08
258.587	11.19
258.802	10.9
259.018	9.44
259.234	8.18
259.449	9.01
259.665	9.46
259.88	9.32
260.096	10.2
260.312	10.13
260.527	9.85
260.743	10.7
260.958	10.69
261.174	10.77
261.389	9.92
261.605	10.02
261.82	9.77
262.036	9.06
262.251	8.45
262.466	7.69
262.682	5.97
262.897	6.66
263.113	6.48
263.328	6.56
263.543	7.05
263.759	8.17
263.974	6.92
264.189	6.26
264.405	6.4
264.62	5.96
264.835	8.47
265.051	8.65
265.266	10.2
265.481	7.7
265.696	7.98
265.912	9.72
266.127	10.6
266.342	11.98
266.557	12.36
266.773	13.24
266.988	15.51
267.203	13.95
267.418	13.78
267.633	12.39
267.848	13.77
268.064	12.6
268.279	12.82
268.494	13.05
268.709	12.97
268.924	11.96
269.139	13.2
269.354	11.75
269.569	12.51
269.784	13.63
269.999	14.08
270.214	13.13
270.429	15.26
270.644	13.53
270.859	13.81
271.074	14.71
271.289	14.71
271.504	12.71
271.719	12.5
271.934	11.64
272.149	11.02
272.363	11.27
272.578	12.67
272.793	12.09
273.008	11.7
273.223	11.56
273.438	11.35
273.653	10.87
273.867	10.8
274.082	12.07
274.297	12.51
274.512	14.35
274.726	13.54
274.941	11.23
275.156	11.87
275.371	12.72
275.585	13.18
275.8	14.11
276.015	16.79
276.229	15.18
276.444	14.55
276.659	15.8
276.873	13
277.088	13.54
277.302	15.24
277.517	13.64
277.732	13.41
277.946	12.61
278.161	11.8
278.375	9.56
278.59	13.26
278.804	12.77
279.019	11.61
279.233	12.7
279.448	13.78
279.662	13.45
279.877	13.06
280.091	11.85
280.306	13.33
280.52	12
280.735	13.4
280.949	11.53
281.163	11.74
281.378	12.22
281.592	11.5
281.806	11.04
282.021	10.7
282.235	10.79
282.449	11.26
282.664	10.36
282.878	11.71
283.092	10.61
283.307	10.84
283.521	11.1
283.735	11.24
283.949	11.63
284.164	11.55
284.378	12.05
284.592	13.51
284.806	12.3
285.02	12.61
285.234	10.82
285.449	10.73
285.663	11.55
285.877	10.37
286.091	9.63
286.305	9.46
286.519	9.25
286.733	8.27
286.947	7.42
287.161	8.25
287.375	7.63
287.589	9.8
287.803	10.39
288.017	9.8
288.231	11.99
288.445	11.67
288.659	12.89
288.873	13.28
289.087	12.47
289.301	12.45
289.515	12.71
289.729	12.88
289.943	10.87
290.157	10.21
290.371	11.39
290.584	10.02
290.798	10.64
291.012	11.01
291.226	11.81
291.44	13.14
291.654	12.69
291.867	13.19
292.081	12.24
292.295	13.98
292.509	15.27
292.722	14.88
292.936	15.55
293.15	15.95
293.364	16.11
293.577	14.63
293.791	16.16
294.005	19.31
294.218	19.37
294.432	21.9
294.645	22.47
294.859	21.18
295.073	20.11
295.286	19.71
295.5	18.62
295.713	18.62
295.927	17.88
296.14	17.65
296.354	15.81
296.568	15.92
296.781	14.6
296.994	13.47
297.208	13.52
297.421	14.99
297.635	15.3
297.848	16.54
298.062	16.16
298.275	16.21
298.489	15.73
298.702	15.48
298.915	14.5
299.129	14.81
299.342	15.88
299.555	16.8
299.769	14.97
299.982	15.96
300.195	16.41
300.409	16.58
300.622	17.94
300.835	17.73
301.048	19.99
301.262	21.85
301.475	22.16
301.688	22.35
301.901	22.72
302.115	23.36
302.328	22.59
302.541	21.55
302.754	21.52
302.967	21.47
303.18	21.65
303.393	19.85
303.607	20.82
303.82	21.41
304.033	21.65
304.246	20.91
304.459	20.67
304.672	19.62
304.885	19.63
305.098	19
305.311	20.11
305.524	19.69
305.737	18.72
305.95	17.05
306.163	16.11
306.376	15.39
306.589	17.06
306.802	17.38
307.015	19.55
307.228	21.09
307.44	22.31
307.653	20.63
307.866	21.72
308.079	22.56
308.292	23.09
308.505	23.07
308.718	23.19
308.93	23.19
309.143	23.51
309.356	23.14
309.569	23.51
309.781	23.33
309.994	24.33
310.207	23.77
310.42	24.14
310.632	24.16
310.845	24.51
311.058	24.67
311.27	23.41
311.483	23.76
311.696	22.23
311.908	21.01
312.121	21.34
312.333	21.88
312.546	22.31
312.759	21.42
312.971	20.4
313.184	21.21
313.396	19.77
313.609	20.04
313.821	20.55
314.034	21.87
314.246	22.42
314.459	22.08
314.671	21.59
314.884	19.96
315.096	21.8
315.309	22.58
315.521	21.04
315.733	21.77
315.946	23.91
316.158	24.29
316.371	24.95
316.583	24.73
316.795	24.91
317.008	23.81
317.22	25.91
317.432	25.71
317.644	26.93
317.857	26.46
318.069	27.63
318.281	25.16
318.494	25.03
318.706	24.96
318.918	24.01
319.13	24.9
319.342	24.57
319.555	24.17
319.767	23.8
319.979	22.92
320.191	24.44
320.403	24.2
320.615	25.73
320.827	23.74
321.039	24.19
321.252	25.6
321.464	26.34
321.676	26.63
321.888	27.38
322.1	27.51
322.312	27.82
322.524	27.26
322.736	28.67
322.948	28.63
323.16	29.48
323.372	29.09
323.584	30.94
323.796	30.71
324.007	31.48
324.219	31.63
324.431	32.85
324.643	34.26
324.855	35.11
325.067	34.03
325.279	34.52
325.491	35.12
325.702	36.4
325.914	35.69
326.126	36.91
326.338	38.4
326.55	38.83
326.761	38.79
326.973	39.07
327.185	39.67
327.396	40.88
327.608	42.36
327.82	43.34
328.032	43.88
328.243	43.8
328.455	43.46
328.666	44.3
328.878	45.08
329.09	46.38
329.301	46.47
329.513	47.48
329.725	50.17
329.936	50.85
330.148	52.32
330.359	51.53
330.571	54.55
330.782	55.94
330.994	56.33
331.205	58.35
331.417	60.08
331.628	61.98
331.84	62.78
332.051	61.99
332.262	61.89
332.474	62.71
332.685	65.02
332.897	64.93
333.108	65.18
333.319	66.41
333.531	67.46
333.742	68.79
333.953	69.36
334.165	69.76
334.376	70.56
334.587	71.95
334.799	72.68
335.01	72.54
335.221	73.28
335.432	74.8
335.644	74.46
335.855	74.57
336.066	73.16
336.277	73.31
336.488	74.34
336.7	74.66
336.911	76.1
337.122	75.67
337.333	77.74
337.544	79.52
337.755	80.72
337.966	81.42
338.177	81.97
338.388	82.24
338.599	83.86
338.811	83.28
339.022	84.88
339.233	84
339.444	83.65
339.655	83.71
339.866	81.22
340.076	79.89
340.287	80.39
340.498	80.23
340.709	81.31
340.92	81.28
341.131	83.02
341.342	82.15
341.553	82.88
341.764	84.37
341.975	83.65
342.185	85.69
342.396	87.24
342.607	87.41
342.818	88.78
343.029	89.82
343.239	89.51
343.45	89.31
343.661	90.55
343.872	91.58
344.082	91.16
344.293	91.57
344.504	90.41
344.714	90
344.925	89.72
345.136	89.07
345.346	88.55
345.557	88.85
345.768	87.8
345.978	86.7
346.189	86.1
346.399	85.92
346.61	85.67
346.821	87.32
347.031	86.48
347.242	86.14
347.452	86.27
347.663	84.85
347.873	84.99
348.084	86.15
348.294	85.03
348.504	84.51
348.715	85.41
348.925	85.71
349.136	84.61
349.346	84.19
349.557	84.07
349.767	83.07
349.977	84.55
350.188	84.3
350.398	83.83
350.608	84.74
350.819	85.24
351.029	83.89
351.239	83.65
351.449	82.76
351.66	82.9
351.87	84.19
352.08	85.03
352.29	84.5
352.501	84.8
352.711	84.83
352.921	85.48
353.131	84.89
353.341	86.86
353.552	86.69
353.762	87.06
353.972	88.35
354.182	88.53
354.392	87.44
354.602	87.45
354.812	85.64
355.022	86.2
355.232	86.31
355.442	85.91
355.652	83.99
355.862	83.72
356.072	84.13
356.282	82.8
356.492	82.53
356.702	82.82
356.912	83.15
357.122	85.35
357.332	83.48
357.542	83.54
357.752	83.54
357.962	83.6
358.171	83.41
358.381	82.92
358.591	84.65
358.801	84.12
359.011	84.53
359.221	83.97
359.43	83.05
359.64	84
359.85	83.61
360.06	83.35
360.269	84.53
360.479	85.03
360.689	84.82
360.899	83.49
361.108	83.88
361.318	83.43
361.528	83.99
361.737	83.61
361.947	83.09
362.156	81.57
362.366	81.44
362.576	80.79
362.785	80.66
362.995	80.52
363.204	80.12
363.414	78.97
363.623	78.75
363.833	77.55
364.042	77.7
364.252	76.9
364.461	78.28
364.671	78.22
364.88	78.14
365.09	78.53
365.299	79.23
365.509	79.35
365.718	79.14
365.927	78.36
366.137	78.13
366.346	77.57
366.555	77.56
366.765	76.34
366.974	76.27
367.183	75.62
367.393	73.71
367.602	72.41
367.811	72.45
368.021	73.52
368.23	73.9
368.439	74.2
368.648	73.42
368.857	74.07
369.067	74.48
369.276	73.85
369.485	73.35
369.694	72.7
369.903	72.68
370.112	71.94
370.321	71.15
370.531	70.8
370.74	69.51
370.949	69.68
371.158	69.37
371.367	69.05
371.576	68.86
371.785	68.99
371.994	70.15
372.203	69.94
372.412	69.38
372.621	69.01
372.83	69.47
373.039	69.4
373.248	68.3
373.457	67.57
373.666	66.83
373.874	66.24
374.083	65.67
374.292	64.45
374.501	64.37
374.71	64
374.919	62.94
375.128	61.49
375.336	61.53
375.545	61.82
375.754	61.86
375.963	62.44
376.171	62.99
376.38	62.97
376.589	63.32
376.798	63.18
377.006	63.45
377.215	64.09
377.424	64.85
377.632	64.66
377.841	64.13
378.05	64.14
378.258	63.24
378.467	62.86
378.675	62.41
378.884	61.59
379.093	61.16
379.301	60.61
379.51	59.91
379.718	59.16
379.927	58.59
380.135	59.03
380.344	58.51
380.552	58.5
380.761	57.75
380.969	57.77
381.177	58.28
381.386	58.18
381.594	58.29
381.803	57.81
382.011	57.12
382.219	57.23
382.428	56.39
382.636	56
382.845	55.74
383.053	55.44
383.261	55.14
383.469	54.81
383.678	54.37
383.886	53.77
384.094	53.32
384.302	52.81
384.511	52.01
384.719	51.74
384.927	51.7
385.135	51.49
385.343	51.5
385.552	50.8
385.76	50.05
385.968	49.47
386.176	49.11
386.384	48.65
386.592	48.42
386.8	48.07
387.008	47.81
387.216	47.12
387.424	46.55
387.633	45.85
387.841	45.87
388.049	45.81
388.257	45.21
388.465	44.93
388.672	44.38
388.88	44.17
389.088	43.81
389.296	43.31
389.504	42.81
389.712	42.16
389.92	42.39
390.128	42.21
390.336	42.1
390.544	42.17
390.751	41.76
390.959	41.79
391.167	41.9
391.375	41.81
391.583	41.73
391.79	41.78
391.998	42.06
392.206	41.75
392.414	41.33
392.621	40.81
392.829	40.25
393.037	40.37
393.244	40.42
393.452	40.25
393.66	40.2
393.867	39.89
394.075	39.91
394.283	39.63
394.49	39.45
394.698	39.4
394.905	39.24
395.113	39.54
395.32	39.04
395.528	38.89
395.735	38.24
395.943	38.13
396.15	37.92
396.358	37.51
396.565	37.6
396.773	37.4
396.98	37.25
397.188	36.93
397.395	36.87
397.602	36.91
397.81	36.51
398.017	36.75
398.225	36.42
398.432	36.5
398.639	36.66
398.847	36.44
399.054	36.42
399.261	36.07
399.468	36.19
399.676	35.93
399.883	35.95
400.09	36.12
400.297	35.94
400.505	36.17
400.712	36.2
400.919	36.12
401.126	36.13
401.333	35.81
401.54	35.96
401.748	35.94
401.955	36.18
402.162	36.01
402.369	35.81
402.576	35.63
402.783	35.4
402.99	35.35
403.197	35.08
403.404	34.91
403.611	34.67
403.818	34.78
404.025	34.7
404.232	34.54
404.439	34.58
404.646	34.57
404.853	34.66
405.06	34.63
405.267	34.59
405.474	34.73
405.681	34.65
405.887	35
406.094	34.67
406.301	34.53
406.508	34.28
406.715	34.12
406.922	34.29
407.128	34.17
407.335	33.99
407.542	33.73
407.749	33.27
407.955	33.14
408.162	32.88
408.369	33.2
408.575	33.17
408.782	33.28
408.989	33.31
409.195	33
409.402	32.99
409.609	32.93
409.815	33.14
410.022	33.28
410.228	33.67
410.435	33.27
410.642	33.24
410.848	33.35
411.055	33.16
411.261	32.98
411.468	32.74
411.674	32.48
411.881	32.44
412.087	32.18
412.294	32.16
412.5	31.9
412.706	32.21
412.913	32.16
413.119	32.09
413.326	32.35
413.532	32.42
413.738	32.66
413.945	32.95
414.151	32.99
414.357	32.93
414.564	32.43
414.77	32.46
414.976	32.31
415.182	32.01
415.389	32.18
415.595	32.07
415.801	32.01
416.007	32.05
416.214	31.6
416.42	31.58
416.626	31.68
416.832	32.07
417.038	31.79
417.244	31.74
417.45	31.75
417.657	31.4
417.863	31.34
418.069	31.24
418.275	30.93
418.481	30.96
418.687	31.09
418.893	30.86
419.099	30.82
419.305	30.71
419.511	30.64
419.717	30.54
419.923	30.53
420.129	30.41
420.335	30.29
420.541	30.26
420.746	30.34
420.952	30.2
421.158	30.23
421.364	30.05
421.57	30.06
421.776	30.06
421.982	30.07
422.187	29.98
422.393	30.02
422.599	30.11
422.805	30.12
423.01	30.09
423.216	30.02
423.422	29.9
423.628	29.95
423.833	29.88
424.039	29.75
424.245	29.64
424.45	29.51
424.656	29.36
424.862	29.19
425.067	29.15
425.273	29
425.478	28.82
425.684	28.85
425.889	28.83
426.095	28.72
426.301	28.75
426.506	28.85
426.712	28.93
426.917	28.82
427.123	28.82
427.328	28.82
427.533	28.85
427.739	28.88
427.944	29.04
428.15	28.9
428.355	28.94
428.561	29.1
428.766	29.08
428.971	29.07
429.177	29.29
429.382	29.33
429.587	29.29
429.793	29.44
429.998	29.48
430.203	29.19
430.408	29.21
430.614	29.28
430.819	29.25
431.024	28.89
431.229	29
431.434	28.96
431.64	28.98
431.845	28.93
432.05	28.87
432.255	28.89
432.46	28.94
432.665	28.89
432.87	28.78
433.076	28.76
433.281	28.86
433.486	28.86
433.691	28.75
433.896	28.6
434.101	28.5
434.306	28.35
434.511	28.41
434.716	28.7
434.921	28.94
435.126	28.94
435.331	28.77
435.535	28.85
435.74	28.98
435.945	28.93
436.15	29.09
436.355	29.11
436.56	29.16
436.765	29.15
436.97	28.86
437.174	28.64
437.379	28.61
437.584	28.64
437.789	28.69
437.993	28.52
438.198	28.57
438.403	28.41
438.608	28.64
438.812	28.56
439.017	28.53
439.222	28.42
439.426	28.27
439.631	28.22
439.836	28.33
440.04	28.16
440.245	28.08
440.45	28.16
440.654	28.24
440.859	28.05
441.063	28.14
441.268	28.18
441.472	28.27
441.677	28.41
441.881	28.55
442.086	28.45
442.29	28.56
442.495	28.61
442.699	28.47
442.904	28.4
443.108	28.52
443.312	28.45
443.517	28.36
443.721	28.3
443.925	28.21
444.13	28.09
444.334	27.87
444.538	27.89
444.743	27.75
444.947	27.75
445.151	27.78
445.356	27.79
445.56	27.89
445.764	27.8
445.968	27.76
446.173	27.76
446.377	27.83
446.581	27.88
446.785	27.89
446.989	28.02
447.193	28.04
447.398	28.15
447.602	27.91
447.806	27.8
448.01	27.82
448.214	27.88
448.418	27.77
448.622	27.69
448.826	27.92
449.03	27.78
449.234	27.73
449.438	27.72
449.642	27.37
449.846	27.64
450.05	27.7
450.254	27.79
450.458	27.77
450.662	28.02
450.866	27.84
451.069	27.72
451.273	27.68
451.477	27.66
451.681	27.58
451.885	27.69
452.089	27.88
452.292	27.91
452.496	27.83
452.7	27.68
452.904	27.5
453.107	27.6
453.311	27.49
453.515	27.53
453.719	27.36
453.922	27.39
454.126	27.53
454.33	27.21
454.533	27.13
454.737	27.06
454.94	27.12
455.144	27.2
455.348	27.27
455.551	27.12
455.755	27.02
455.958	27.13
456.162	27.14
456.365	27.16
456.569	27.36
456.772	27.29
456.976	27.14
457.179	27.2
457.383	27.11
457.586	27.11
457.79	27.31
457.993	27.39
458.196	27.42
458.4	27.44
458.603	27.3
458.807	27.28
459.01	27.35
459.213	27.35
459.417	27.36
459.62	27.32
459.823	27.23
460.026	27.07
460.23	27.06
460.433	27.1
460.636	27.04
460.839	26.85
461.042	26.82
461.246	26.85
461.449	27.03
461.652	27.05
461.855	27.02
462.058	27.02
462.261	27.07
462.464	27.11
462.668	27.12
462.871	27.3
463.074	27.61
463.277	27.36
463.48	27.36
463.683	27.41
463.886	27.46
464.089	27.59
464.292	27.72
464.495	27.65
464.698	27.59
464.901	27.57
465.104	27.49
465.306	27.22
465.509	27.35
465.712	27.22
465.915	26.91
466.118	26.88
466.321	26.95
466.524	26.91
466.726	27.1
466.929	27.15
467.132	27.07
467.335	27.05
467.538	27.5
467.74	27.52
467.943	27.48
468.146	27.65
468.348	27.46
468.551	27.54
468.754	27.54
468.956	27.59
469.159	27.54
469.362	27.55
469.564	27.61
469.767	27.44
469.969	27.49
470.172	27.61
470.375	27.82
470.577	28.01
470.78	27.84
470.982	28.01
471.185	27.93
471.387	28.2
471.59	28.49
471.792	28.4
471.995	28.39
472.197	28.39
472.399	28.29
472.602	28.18
472.804	28.06
473.007	28.23
473.209	28.36
473.411	28.35
473.614	27.94
473.816	27.88
474.018	27.96
474.22	28.05
474.423	28.05
474.625	28.17
474.827	28.15
475.03	28.18
475.232	28.06
475.434	27.91
475.636	28.11
475.838	28.53
476.04	28.26
476.243	28.32
476.445	28.29
476.647	28.35
476.849	28.5
477.051	28.55
477.253	28.62
477.455	28.69
477.657	28.76
477.859	28.64
478.061	28.43
478.263	28.37
478.465	28.33
478.667	28.35
478.869	28.29
479.071	28.14
479.273	28.11
479.475	28.05
479.677	27.99
479.879	27.86
480.081	27.84
480.283	27.81
480.485	27.8
480.686	27.83
480.888	27.73
481.09	27.74
481.292	27.7
481.494	27.63
481.695	27.67
481.897	27.64
482.099	27.56
482.301	27.44
482.502	27.42
482.704	27.51
482.906	27.49
483.107	27.54
483.309	27.43
483.511	27.42
483.712	27.41
483.914	27.35
484.115	27.33
484.317	27.37
484.519	27.37
484.72	27.38
484.922	27.34
485.123	27.26
485.325	27.22
485.526	27.29
485.728	27.28
485.929	27.28
486.131	27.27
486.332	27.27
486.534	27.28
486.735	27.38
486.936	27.41
487.138	27.42
487.339	27.55
487.541	27.47
487.742	27.46
487.943	27.51
488.144	27.55
488.346	27.58
488.547	27.55
488.748	27.53
488.95	27.46
489.151	27.46
489.352	27.38
489.553	27.29
489.755	27.34
489.956	27.33
490.157	27.27
490.358	27.27
490.559	27.29
490.76	27.41
490.961	27.41
491.163	27.42
491.364	27.48
491.565	27.6
491.766	27.66
491.967	27.77
492.168	27.77
492.369	27.72
492.57	27.7
492.771	27.76
492.972	27.82
493.173	27.82
493.374	27.93
493.575	27.92
493.776	27.95
493.976	28.03
494.177	27.87
494.378	28.01
494.579	28.15
494.78	28.39
494.981	28.34
495.182	28.35
495.382	28.51
495.583	28.58
495.784	28.66
495.985	28.61
496.185	28.69
496.386	28.86
496.587	28.89
496.788	29.05
496.988	28.93
497.189	29.18
497.39	29.3
497.59	29.34
497.791	29.46
497.992	29.55
498.192	29.67
498.393	29.77
498.593	29.93
498.794	29.94
498.994	29.97
499.195	30.01
499.395	29.91
499.596	29.93
499.796	30
499.997	29.93
500.197	30.01
500.398	30.15
500.598	30.15
500.799	30.09
500.999	30.3
501.199	30.39
501.4	30.63
501.6	30.68
501.801	30.8
502.001	30.93
502.201	31.08
502.402	31.1
502.602	31.28
502.802	31.43
503.002	31.4
503.203	31.22
503.403	31.29
503.603	31.36
503.803	31.58
504.003	31.52
504.204	31.6
504.404	31.6
504.604	31.77
504.804	31.67
505.004	31.6
505.204	31.9
505.404	32.22
505.604	32.38
505.804	32.47
506.005	32.51
506.205	32.72
506.405	32.88
506.605	32.99
506.805	33.17
507.005	33.46
507.204	33.59
507.404	33.65
507.604	33.86
507.804	33.96
508.004	33.86
508.204	33.81
508.404	33.85
508.604	33.86
508.804	33.94
509.003	33.9
509.203	33.88
509.403	33.96
509.603	33.97
509.803	34.04
510.002	34.16
510.202	34.31
510.402	34.43
510.602	34.43
510.801	34.38
511.001	34.48
511.201	34.65
511.4	34.61
511.6	34.7
511.8	34.76
511.999	34.71
512.199	34.79
512.398	34.86
512.598	35.06
512.797	35.19
512.997	35.29
513.197	35.31
513.396	35.31
513.596	35.45
513.795	35.53
513.994	35.67
514.194	35.72
514.393	35.67
514.593	35.78
514.792	35.77
514.992	35.89
515.191	35.96
515.39	36.2
515.59	36.33
515.789	36.44
515.988	36.69
516.188	36.92
516.387	37
516.586	37.11
516.786	37.12
516.985	37.24
517.184	37.26
517.383	37.48
517.582	37.36
517.782	37.31
517.981	37.46
518.18	37.45
518.379	37.46
518.578	37.56
518.777	37.67
518.976	37.69
519.176	37.66
519.375	37.77
519.574	37.84
519.773	38.08
519.972	38.26
520.171	38.24
520.37	38.27
520.569	38.33
520.768	38.33
520.967	38.46
521.166	38.65
521.365	38.89
521.564	38.98
521.762	39.01
521.961	39.07
522.16	38.94
522.359	39.12
522.558	39.14
522.757	39.24
522.956	39.37
523.154	39.32
523.353	39.4
523.552	39.43
523.751	39.47
523.949	39.46
524.148	39.47
524.347	39.83
524.546	39.65
524.744	39.71
524.943	39.72
525.142	39.72
525.34	39.69
525.539	39.93
525.737	40.09
525.936	40.2
526.135	40.31
526.333	40.4
526.532	40.17
526.73	40.33
526.929	40.4
527.127	40.4
527.326	40.47
527.524	40.66
527.723	40.56
527.921	40.53
528.12	40.39
528.318	40.35
528.516	40.29
528.715	40.43
528.913	40.47
529.112	40.4
529.31	40.37
529.508	40.42
529.707	40.37
529.905	40.37
530.103	40.31
530.301	40.38
530.5	40.42
530.698	40.53
530.896	40.44
531.094	40.44
531.293	40.56
531.491	40.83
531.689	40.87
531.887	40.96
532.085	40.97
532.283	40.96
532.481	41.08
532.68	41.11
532.878	41.08
533.076	41.19
533.274	41.36
533.472	41.44
533.67	41.39
533.868	41.4
534.066	41.31
534.264	41.37
534.462	41.52
534.66	41.57
534.858	41.72
535.056	41.77
535.253	41.78
535.451	41.72
535.649	41.76
535.847	41.67
536.045	41.68
536.243	41.72
536.441	41.83
536.638	41.82
536.836	41.71
537.034	41.7
537.232	41.77
537.43	41.83
537.627	41.85
537.825	41.94
538.023	41.94
538.22	41.97
538.418	42.07
538.616	42.02
538.813	42.14
539.011	42.36
539.209	42.29
539.406	42.32
539.604	42.42
539.801	42.25
539.999	42.17
540.196	42.25
540.394	42.22
540.591	42.21
540.789	42.19
540.986	42.21
541.184	42.12
541.381	42.21
541.579	42.24
541.776	42.19
541.974	42.35
542.171	42.3
542.368	42.36
542.566	42.39
542.763	42.53
542.96	42.59
543.158	42.51
543.355	42.67
543.552	42.6
543.75	42.49
543.947	42.5
544.144	42.52
544.341	42.63
544.539	42.64
544.736	42.62
544.933	42.51
545.13	42.52
545.327	42.67
545.524	42.6
545.722	42.81
545.919	43.1
546.116	43.33
546.313	43.24
546.51	43.38
546.707	43.42
546.904	43.48
547.101	43.7
547.298	43.9
547.495	43.81
547.692	43.96
547.889	43.93
548.086	43.81
548.283	43.73
548.48	43.8
548.677	43.68
548.874	43.85
549.07	44.04
549.267	43.75
549.464	43.53
549.661	43.82
549.858	43.72
550.055	43.72
550.251	43.85
550.448	43.93
550.645	44.07
550.842	44.47
551.038	44.43
551.235	44.4
551.432	44.43
551.628	44.34
551.825	44.39
552.022	44.36
552.218	44.31
552.415	44.4
552.612	44.46
552.808	44.37
553.005	44.35
553.201	44.24
553.398	44.35
553.594	44.67
553.791	44.89
553.987	44.95
554.184	45.21
554.38	45.38
554.577	45.52
554.773	45.6
554.97	45.83
555.166	45.56
555.362	45.76
555.559	45.82
555.755	45.64
555.952	45.69
556.148	45.7
556.344	45.59
556.541	45.62
556.737	45.51
556.933	45.66
557.129	45.55
557.326	45.77
557.522	45.77
557.718	45.61
557.914	45.58
558.11	45.51
558.307	45.31
558.503	45.45
558.699	45.51
558.895	45.66
559.091	45.41
559.287	45.4
559.483	45.53
559.679	45.59
559.876	45.77
560.072	46.08
560.268	46.31
560.464	46.59
560.66	46.4
560.856	46.48
561.052	46.31
561.247	46.37
561.443	46.47
561.639	46.44
561.835	46.53
562.031	46.39
562.227	46.2
562.423	46.34
562.619	46.23
562.815	46.3
563.01	46.56
563.206	46.55
563.402	46.52
563.598	46.59
563.793	46.49
563.989	46.57
564.185	46.63
564.381	46.88
564.576	46.76
564.772	47.05
564.968	47.28
565.163	47.05
565.359	47.17
565.555	47.22
565.75	47.07
565.946	47.13
566.141	47.25
566.337	47.28
566.532	47.16
566.728	47.14
566.923	47.08
567.119	46.89
567.314	46.92
567.51	47.08
567.705	47.13
567.901	47.44
568.096	47.44
568.292	47.39
568.487	47.55
568.682	47.51
568.878	47.71
569.073	47.58
569.268	47.84
569.464	47.91
569.659	47.8
569.854	48
570.05	47.71
570.245	47.7
570.44	47.73
570.635	47.78
570.831	47.82
571.026	47.82
571.221	47.96
571.416	48.03
571.611	48.2
571.806	48.15
572.002	48.03
572.197	48.19
572.392	48.39
572.587	48.58
572.782	48.54
572.977	48.83
573.172	48.68
573.367	48.59
573.562	48.62
573.757	48.27
573.952	48.42
574.147	48.38
574.342	48.41
574.537	48.32
574.732	48.08
574.927	48.05
575.121	47.86
575.316	47.98
575.511	48.08
575.706	48.05
575.901	48.45
576.096	48.34
576.29	48.61
576.485	48.58
576.68	48.76
576.875	48.76
577.069	48.8
577.264	48.91
577.459	48.87
577.654	48.94
577.848	48.94
578.043	48.98
578.238	49.29
578.432	49.18
578.627	49.41
578.821	49.41
579.016	49.55
579.21	49.75
579.405	49.68
579.6	50.11
579.794	50.02
579.989	49.94
580.183	49.58
580.378	49.51
580.572	49.54
580.766	49.45
580.961	49.38
581.155	49.48
581.35	49.6
581.544	49.69
581.738	49.44
581.933	49.57
582.127	49.43
582.321	49.76
582.516	49.63
582.71	49.83
582.904	49.69
583.099	49.7
583.293	49.79
583.487	49.34
583.681	49.14
583.875	49.18
584.07	49.01
584.264	49.05
584.458	49.04
584.652	49.06
584.846	48.99
585.04	49.25
585.234	49.54
585.428	49.33
585.623	49.58
585.817	49.66
586.011	49.99
586.205	50.25
586.399	50.55
586.593	50.43
586.787	50.45
586.981	50.46
587.174	50.27
587.368	49.94
587.562	49.88
587.756	50.16
587.95	50.29
588.144	49.86
588.338	49.85
588.532	49.85
588.725	49.99
588.919	50.03
589.113	49.97
589.307	50.09
589.501	50.18
589.694	50.29
589.888	50.07
590.082	49.92
590.275	50.36
590.469	50.37
590.663	50.34
590.856	50.03
591.05	50.17
591.244	50.11
591.437	50.12
591.631	50.15
591.824	50.21
592.018	50.63
592.212	50.93
592.405	50.64
592.599	50.97
592.792	51.17
592.986	51.67
593.179	51.81
593.372	51.82
593.566	51.84
593.759	51.81
593.953	51.87
594.146	51.4
594.339	51.31
594.533	51.35
594.726	50.98
594.92	50.87
595.113	50.72
595.306	50.63
595.499	50.63
595.693	50.84
595.886	50.59
596.079	50.41
596.272	50.52
596.466	50.51
596.659	50.47
596.852	50.63
597.045	50.35
597.238	50.36
597.431	50.36
597.624	50.41
597.818	50.53
598.011	50.89
598.204	51.01
598.397	51.25
598.59	51.19
598.783	51.21
598.976	51.05
599.169	51.18
599.362	51.23
599.555	51.27
599.748	51.39
599.941	51.01
600.134	51.06
600.326	51
600.519	50.81
600.712	51.07
600.905	51.1
601.098	51.39
601.291	51.55
601.483	51.64
601.676	51.47
601.869	51.67
602.062	51.71
602.255	51.66
602.447	51.99
602.64	51.99
602.833	51.8
603.025	51.92
603.218	51.82
603.411	51.97
603.603	52.09
603.796	52.16
603.989	51.83
604.181	51.97
604.374	51.8
604.566	51.59
604.759	51.63
604.951	52
605.144	51.91
605.336	51.92
605.529	51.67
605.721	51.49
605.914	51.49
606.106	51.74
606.299	51.51
606.491	51.51
606.683	51.49
606.876	51.28
607.068	50.85
607.26	50.89
607.453	50.81
607.645	51.14
607.837	51.24
608.03	51.41
608.222	51.3
608.414	51.34
608.606	51.49
608.799	51.67
608.991	51.95
609.183	52.08
609.375	52
609.567	52.09
609.759	51.95
609.952	51.91
610.144	51.75
610.336	51.87
610.528	52.17
610.72	52.16
610.912	52.16
611.104	51.93
611.296	51.95
611.488	51.93
611.68	51.88
611.872	51.75
612.064	51.67
612.256	51.68
612.448	51.71
612.64	51.37
612.832	51.29
613.023	51.44
613.215	51.63
613.407	51.7
613.599	52.05
613.791	51.78
613.983	52.19
614.174	52.25
614.366	52.42
614.558	52.46
614.75	52.74
614.941	52.93
615.133	52.73
615.325	52.88
615.516	52.97
615.708	52.67
615.9	52.94
616.091	52.73
616.283	52.41
616.475	52.65
616.666	52.49
616.858	52.32
617.049	52.33
617.241	52.15
617.432	52.22
617.624	51.96
617.815	51.94
618.007	52.09
618.198	52.11
618.39	52.36
618.581	51.77
618.773	52.03
618.964	52.31
619.155	52.18
619.347	52.36
619.538	52.1
619.729	52.09
619.921	51.99
620.112	51.82
620.303	51.86
620.494	52.03
620.686	51.97
620.877	51.58
621.068	51.43
621.259	51.13
621.451	51.26
621.642	51.46
621.833	52
622.024	52.42
622.215	52.33
622.406	52.58
622.597	52.46
622.788	52.9
622.98	53.16
623.171	53.21
623.362	53.58
623.553	53.73
623.744	53.37
623.935	52.78
624.126	52.23
624.317	52.51
624.508	52.1
624.698	52.21
624.889	52.15
625.08	52.02
625.271	51.79
625.462	51.68
625.653	51.52
625.844	51.72
626.034	51.86
626.225	51.82
626.416	51.51
626.607	51.5
626.798	51.45
626.988	51.55
627.179	51.64
627.37	51.92
627.56	51.67
627.751	51.48
627.942	51.68
628.132	51.53
628.323	51.63
628.514	51.78
628.704	51.79
628.895	51.52
629.085	51.41
629.276	51.18
629.466	51.08
629.657	51.46
629.847	51.82
630.038	51.74
630.228	51.68
630.419	51.96
630.609	52.39
630.8	52.76
630.99	52.88
631.181	52.8
631.371	53
631.561	52.73
631.752	52.52
631.942	52.33
632.132	51.9
632.323	52.03
632.513	51.97
632.703	51.47
632.893	51.44
633.084	51.47
633.274	51.62
633.464	51.49
633.654	51.46
633.844	51.91
634.034	51.91
634.225	52.09
634.415	52.27
634.605	52.27
634.795	52.44
634.985	52.6
635.175	52.79
635.365	52.7
635.555	52.72
635.745	53.11
635.935	53.03
636.125	53.07
636.315	53.26
636.505	53.11
636.695	53.49
636.885	53.52
637.075	53.09
637.265	53.03
637.455	53.18
637.644	53.57
637.834	53.67
638.024	53.39
638.214	53.19
638.404	53.47
638.593	53.76
638.783	53.43
638.973	53.02
639.163	53.2
639.352	53.06
639.542	53.2
639.732	53.08
639.921	52.79
640.111	53.01
640.301	53.56
640.49	53.17
640.68	53.01
640.87	52.96
641.059	52.96
641.249	52.59
641.438	52.97
641.628	52.32
641.817	51.94
642.007	51.83
642.196	51.65
642.386	51.14
642.575	50.96
642.764	50.9
642.954	51.02
643.143	51.31
643.333	51.82
643.522	51.62
643.711	51.91
643.901	51.97
644.09	52.1
644.279	52.24
644.469	52.4
644.658	52.64
644.847	52.83
645.036	52.88
645.226	53.13
645.415	53.05
645.604	52.97
645.793	53.04
645.982	52.97
646.171	52.83
646.361	52.89
646.55	52.66
646.739	53
646.928	52.66
647.117	52.58
647.306	52.43
647.495	52.56
647.684	52.98
647.873	53.07
648.062	53.48
648.251	54.1
648.44	54.04
648.629	54.17
648.818	53.98
649.007	54.35
649.196	54.13
649.384	54.15
649.573	54.41
649.762	54.05
649.951	54.02
650.14	53.91
650.328	53.08
650.517	53.25
650.706	53.14
650.895	52.39
651.083	52.16
651.272	52.51
651.461	52.32
651.65	51.99
651.838	52.09
652.027	52.15
652.216	52.23
652.404	52.32
652.593	51.99
652.781	52.34
652.97	53.06
653.158	53.31
653.347	53.31
653.535	53.75
653.724	53.5
653.912	53.4
654.101	53.45
654.289	53.56
654.478	54.04
654.666	54.16
654.855	54.05
655.043	54.15
655.231	53.85
655.42	53.63
655.608	53.55
655.796	53.5
655.985	53.52
656.173	53.39
656.361	53.05
656.55	52.8
656.738	53.07
656.926	52.85
657.114	52.38
657.302	52.26
657.491	52.27
657.679	51.87
657.867	51.93
658.055	51.88
658.243	51.81
658.431	51.8
658.619	51.67
658.807	51.59
658.996	52
659.184	52.49
659.372	52.52
659.56	52.66
659.748	52.62
659.936	52.65
660.124	52.88
660.311	53.06
660.499	53.16
660.687	53.23
660.875	52.88
661.063	52.66
661.251	52.28
661.439	52.31
661.627	51.88
661.814	52.45
662.002	52.82
662.19	52.74
662.378	52.52
662.565	52.5
662.753	52.63
662.941	52.81
663.129	52.56
663.316	52.92
663.504	52.8
663.692	52.99
663.879	52.47
664.067	52.5
664.254	52.6
664.442	52.88
664.63	53.06
664.817	52.82
665.005	53
665.192	53.38
665.38	53.31
665.567	53.57
665.755	53.68
665.942	53.81
666.13	53.14
666.317	52.75
666.504	52.56
666.692	52.43
666.879	52.75
667.067	52.47
667.254	52.14
667.441	51.44
667.629	51.68
667.816	51.8
668.003	51.88
668.19	52.2
668.378	52.03
668.565	51.79
668.752	51.56
668.939	51.29
669.127	51.35
669.314	51.46
669.501	51.8
669.688	51.65
669.875	51.66
670.062	51.67
670.249	51.59
670.436	52.11
670.623	52.95
670.81	53.19
670.997	53.58
671.184	53.61
671.371	53.34
671.558	53.06
671.745	53.21
671.932	52.96
672.119	52.94
672.306	53.21
672.493	52.92
672.68	52.32
672.867	52.25
673.054	51.91
673.24	52.73
673.427	53.04
673.614	53.37
673.801	52.84
673.988	52.7
674.174	52.95
674.361	52.54
674.548	52.77
674.734	52.93
674.921	52.69
675.108	52.78
675.294	52.03
675.481	51.84
675.668	52.06
675.854	52.77
676.041	53.24
676.227	53.36
676.414	54.14
676.601	53.81
676.787	54.06
676.974	54.36
677.16	54.31
677.347	54.23
677.533	54.06
677.719	53.99
677.906	53.81
678.092	53.62
678.279	53.43
678.465	52.98
678.651	53.15
678.838	53.4
679.024	53.64
679.21	53.13
679.397	53.32
679.583	53.92
679.769	54
679.955	53.58
680.142	53.39
680.328	53.62
680.514	53.41
680.7	53.27
680.886	52.89
681.073	52.59
681.259	52.96
681.445	52.99
681.631	52.62
681.817	52.22
682.003	52.91
682.189	53.38
682.375	52.96
682.561	53.37
682.747	53.44
682.933	53.35
683.119	53.76
683.305	54.49
683.491	54.09
683.677	54.01
683.863	54.16
684.049	53.73
684.235	53.42
684.42	53.85
684.606	53.55
684.792	53.06
684.978	52.39
685.164	52.08
685.349	51.49
685.535	51.91
685.721	52.52
685.907	52.91
686.092	52.85
686.278	53.21
686.464	52.51
686.649	52.66
686.835	53
687.021	53.35
687.206	53.09
687.392	53.48
687.577	53.24
687.763	52.43
687.948	52.53
688.134	52.95
688.319	52.76
688.505	52.95
688.69	53.02
688.876	53.04
689.061	53.19
689.247	53.37
689.432	53.26
689.618	53.09
689.803	53.37
689.988	53.27
690.174	53.12
690.359	52.61
690.544	53.03
690.73	53.02
690.915	53.5
691.1	53.48
691.285	53.12
691.471	52.53
691.656	52.87
691.841	52.88
692.026	52.09
692.211	52.52
692.396	53.16
692.582	53.14
692.767	52.45
692.952	52.05
693.137	52
693.322	52.12
693.507	52.59
693.692	52.82
693.877	52.59
694.062	53.46
694.247	51.85
694.432	51.32
694.617	51.3
694.802	52.29
694.987	52.71
695.172	53.13
695.357	53.67
695.541	53.53
695.726	53.43
695.911	53.57
696.096	53.64
696.281	54.69
696.466	54.68
696.65	54.42
696.835	53.45
697.02	53.07
697.204	52.11
697.389	51.31
697.574	51.46
697.759	51.23
697.943	51.42
698.128	51.19
698.312	50.92
698.497	51.09
698.682	51.14
698.866	51.12
699.051	51.18
699.235	51.43
699.42	52.07
699.604	51.75
699.789	52.05
699.973	51.92
700.158	52.22
700.342	52.81
700.527	52.54
700.711	52.41
700.895	53.06
701.08	53.48
701.264	53.95
701.448	54.15
701.633	54.57
701.817	55.28
702.001	55.83
702.186	55.45
702.37	54.45
702.554	55.05
702.738	55.03
702.923	54.72
703.107	54.82
703.291	54.49
703.475	54.19
703.659	54.04
703.843	52.27
704.027	52.39
704.212	51.57
704.396	51.76
704.58	51.92
704.764	52.46
704.948	52.91
705.132	52.19
705.316	52.38
705.5	52.3
705.684	51.83
705.868	53.09
706.052	53.22
706.235	53.78
706.419	54.12
706.603	53.45
706.787	53.34
706.971	53.41
707.155	53.54
707.339	54.14
707.522	54.24
707.706	55.29
707.89	55.37
708.074	55.05
708.257	55.08
708.441	54.81
708.625	55.29
708.808	55.26
708.992	54.73
709.176	54.39
709.359	54.09
709.543	53.77
709.727	53.43
709.91	52.69
710.094	51.93
710.277	52.43
710.461	52.93
710.644	52.74
710.828	52.17
711.011	52.66
711.195	52.74
711.378	52.41
711.562	52.19
711.745	52.34
711.928	52.86
712.112	53.21
712.295	53.22
712.478	52.87
712.662	52.88
712.845	52.79
713.028	52.53
713.212	53.3
713.395	53.41
713.578	54.14
713.761	54.05
713.945	54.2
714.128	54.39
714.311	54.74
714.494	54.46
714.677	54.44
714.86	54.71
715.043	54.7
715.227	54.15
715.41	54.43
715.593	54.27
715.776	54.12
715.959	53.48
716.142	53.36
716.325	52.74
716.508	52.43
716.691	52.86
716.874	52.4
717.057	52.42
717.239	52.23
717.422	51.63
717.605	51.96
717.788	52.06
717.971	52.44
718.154	52.19
718.337	52.25
718.519	53.16
718.702	52.56
718.885	53.04
719.068	53.2
719.25	53.87
719.433	53.92
719.616	53.32
719.798	53.97
719.981	53.59
720.164	53.27
720.346	53.42
720.529	53.19
720.712	53.1
720.894	52.65
721.077	52.49
721.259	52.64
721.442	52.38
721.624	52.85
721.807	51.48
721.989	51.33
722.172	51.94
722.354	51.49
722.537	52.17
722.719	53.48
722.901	55.04
723.084	54.32
723.266	53.84
723.448	54.2
723.631	53.91
723.813	54.3
723.995	54.02
724.178	54.97
724.36	54.76
724.542	54.23
724.724	54
724.907	53.9
725.089	54.27
725.271	54.4
725.453	55.25
725.635	55
725.817	55.37
725.999	56.79
726.181	56.56
726.364	57.48
726.546	57.48
726.728	56.77
726.91	55.23
727.092	54.21
727.274	54.21
727.456	54.16
727.638	54.36
727.819	54.5
728.001	54.08
728.183	52.86
728.365	52.96
728.547	52.98
728.729	52.55
728.911	53.1
729.093	53.77
729.274	54.42
729.456	54.15
729.638	53.6
729.82	53.08
730.001	52.79
730.183	54.23
730.365	53.59
730.546	52.38
730.728	53.67
730.91	54.41
731.091	54.8
731.273	54.21
731.455	53.64
731.636	54.02
731.818	54.99
731.999	54.69
732.181	53.62
732.362	54.1
732.544	54.68
732.725	53.6
732.907	51.93
733.088	51.87
733.27	51.59
733.451	51.67
733.633	51.96
733.814	50.93
733.995	51.57
734.177	51.65
734.358	52.01
734.539	52.48
734.721	51.72
734.902	52.93
735.083	52.44
735.264	51.97
735.446	52.67
735.627	52.63
735.808	52.55
735.989	52.11
736.17	52.67
736.351	51.65
736.533	51.39
736.714	52.39
736.895	51.83
737.076	52.4
737.257	53.05
737.438	52.97
737.619	53.11
737.8	53.3
737.981	53.56
738.162	53.25
738.343	53.3
738.524	53.21
738.705	53.33
738.886	53.32
739.067	52.79
739.247	52.62
739.428	52.36
739.609	51.73
739.79	51.75
739.971	50.82
740.151	50.52
740.332	49.96
740.513	50.68
740.694	50.01
740.874	50.49
741.055	51.54
741.236	51.85
741.417	51.25
741.597	51.41
741.778	51.67
741.958	52.69
742.139	52.67
742.32	54.18
742.5	54.24
742.681	54.55
742.861	53.79
743.042	53.65
743.222	53.31
743.403	53.97
743.583	52.55
743.764	52.58
743.944	52.79
744.124	54.06
744.305	52.65
744.485	53.09
744.666	52.99
744.846	54.92
745.026	54.96
745.207	54.59
745.387	54.45
745.567	55.52
745.747	55.43
745.928	54.9
746.108	52.57
746.288	52.76
746.468	50.72
746.648	50.93
746.829	50.6
747.009	50.36
747.189	51.52
747.369	51.87
747.549	52.71
747.729	52.56
747.909	52.75
748.089	54.06
748.269	54.93
748.449	55.39
748.629	56.27
748.809	55.92
748.989	55.28
749.169	54.09
749.349	54.54
749.529	54.2
749.709	53.95
749.889	55.12
750.068	55.82
750.248	55.71
750.428	57.57
750.608	56.35
750.788	56.77
750.967	57.37
751.147	60.4
751.327	58.91
751.507	59.15
751.686	58.81
751.866	57.76
752.046	56.01
752.225	56.98
752.405	56.18
752.585	57.06
752.764	55.87
752.944	55.43
753.123	53.01
753.303	54.61
753.482	54.93
753.662	55.49
753.841	54.71
754.021	56.54
754.2	56.68
754.38	55.99
754.559	56.68
754.739	57.99
754.918	57.2
755.097	57.29
755.277	55.67
755.456	55.36
755.635	56.46
755.815	56.24
755.994	54.22
756.173	53.96
756.352	54.22
756.532	53.72
756.711	52.58
756.89	53.83
757.069	54.08
757.248	55.55
757.427	54.21
757.607	53.48
757.786	52.88
757.965	54.52
758.144	53.55
758.323	52.89
758.502	52.57
758.681	52.88
758.86	53.02
759.039	53.1
759.218	52.5
759.397	53.01
759.576	52.72
759.755	52.87
759.934	52.18
760.113	51.46
760.291	51.4
760.47	50.52
760.649	50.12
760.828	49.66
761.007	49.94
761.186	48.95
761.364	49.52
761.543	49
761.722	50.03
761.901	50.58
762.079	51.19
762.258	51.69
762.437	51.67
762.615	52.74
762.794	53.42
762.972	52.63
763.151	53.11
763.33	53.04
763.508	53.71
763.687	53.39
763.865	53
764.044	53.71
764.222	54.21
764.401	54.86
764.579	54.19
764.758	52.79
764.936	52.89
765.114	52.34
765.293	51.74
765.471	50.75
765.65	51.11
765.828	51.31
766.006	50.19
766.184	49.76
766.363	49.22
766.541	48.58
766.719	50.08
766.898	50.06
767.076	49.74
767.254	50.94
767.432	51.37
767.61	50.56
767.788	50.13
767.967	50.55
768.145	49.74
768.323	49.62
768.501	49.8
768.679	48.97
768.857	50.34
769.035	51.69
769.213	49.14
769.391	49.03
769.569	50.53
769.747	51.33
769.925	50.12
770.103	51.24
770.281	51.88
770.459	51.81
770.636	53.82
770.814	51.82
770.992	51.88
771.17	53.67
771.348	53.19
771.525	53.3
771.703	53.13
771.881	53.94
772.059	53.14
772.236	51.9
772.414	52.84
772.592	49.9
772.769	49.7
772.947	50
773.125	51.38
773.302	53.79
773.48	51.53
773.657	50.3
773.835	50.32
774.013	50.27
774.19	52.78
774.368	53.57
774.545	55.76
774.723	58.74
774.9	57.15
775.077	56.95
775.255	57.86
775.432	59.43
775.61	60.6
775.787	61.77
775.964	62.39
776.142	60.35
776.319	58.96
776.496	56.88
776.674	55.54
776.851	54.59
777.028	53.7
777.205	48.86
777.382	47.9
777.56	49.84
777.737	47.68
777.914	46.41
778.091	47.01
778.268	50.24
778.445	51.85
778.622	50.91
778.8	52.65
778.977	53.35
779.154	57.18
779.331	58.36
779.508	56.46
779.685	58.44
779.862	60.25
780.038	60.19
780.215	60.42
780.392	60.71
780.569	58.84
780.746	58.83
780.923	60.56
781.1	58.82
781.277	58.04
781.453	58.05
781.63	56.26
781.807	53.25
781.984	54.88
782.16	53.71
782.337	52.53
782.514	54.93
782.691	53.23
782.867	50.91
783.044	50.76
783.221	50.52
783.397	50.92
783.574	47.58
783.75	48.08
783.927	46.03
784.103	45.86
784.28	45.56
784.456	45.79
784.633	48.02
784.809	47.66
784.986	49
785.162	49.09
785.339	48.62
785.515	53.52
785.692	55.34
785.868	54.03
786.044	50.55
786.221	50.93
786.397	50.89
786.573	50.91
786.749	49.82
786.926	46.37
787.102	46.65
787.278	47.65
787.454	47.62
787.631	47.91
787.807	48.04
787.983	48.7
788.159	49.31
788.335	49.41
788.511	48.02
788.687	50.39
788.863	53.51
789.039	52.27
789.216	49.01
789.392	48.6
789.568	48.51
789.744	51.11
789.919	52.7
790.095	53.19
790.271	51.35
790.447	52.2
790.623	51.82
790.799	49.56
790.975	50.39
791.151	53.97
791.327	51.68
791.502	50.68
791.678	51.01
791.854	49.91
792.03	49.76
792.205	53.23
792.381	57.08
792.557	56.94
792.733	58.13
792.908	59.33
793.084	59.49
793.259	64.49
793.435	60.78
793.611	60.22
793.786	59.91
793.962	59.28
794.137	57.04
794.313	53.83
794.488	53.04
794.664	52
794.839	50.41
795.015	51.11
795.19	49.3
795.366	51.77
795.541	50.28
795.716	47.52
795.892	48.58
796.067	50.29
796.242	51.31
796.418	49.42
796.593	49.98
796.768	49.28
796.944	49.54
797.119	49.88
797.294	51.2
797.469	52.86
797.644	55.38
797.82	52.83
797.995	52.33
798.17	49.77
798.345	50.93
798.52	50.37
798.695	52.69
798.87	50.99
799.045	52.18
799.22	53.38
799.395	54.66
799.57	55.19
799.745	57.29
799.92	60.62
800.095	62.31
800.27	66.37
800.445	68.71
800.62	70.09
800.795	72.39
800.97	70.24
801.145	68.39
801.319	67.57
801.494	65.27
801.669	65.29
801.844	62.47
802.018	60.83
802.193	57.32
802.368	53.5
802.543	50.3
802.717	45.28
802.892	43.99
803.067	46.6
803.241	41.95
803.416	44.63
803.59	43.46
803.765	42.89
803.94	49.81
804.114	53.62
804.289	53.78
804.463	53.71
804.638	56.25
804.812	57.81
804.986	54.27
805.161	56.66
805.335	57.69
805.51	59.1
805.684	58.01
805.858	52.34
806.033	48.2
806.207	55.03
806.381	52.71
806.556	50.74
806.73	51.8
806.904	53.92
807.078	54.89
807.253	55.44
807.427	55.57
807.601	54.06
807.775	55.83
807.949	58.65
808.123	55.88
808.298	59.24
808.472	59.91
808.646	57.36
808.82	59.91
808.994	59.95
809.168	58.37
809.342	54.16
809.516	56.82
809.69	55.22
809.864	52.1
810.038	50.88
810.212	48.48
810.385	50.44
810.559	48.56
810.733	48.15
810.907	45.55
811.081	43.31
811.255	46.27
811.428	46.69
811.602	49.59
811.776	52.32
811.95	49.08
812.123	53.19
812.297	52.52
812.471	53.94
812.644	48.53
812.818	52.2
812.992	59.12
813.165	58.75
813.339	59.51
813.512	56.37
813.686	55.74
813.86	55.48
814.033	55.25
814.207	57.31
814.38	57.26
814.554	59.63
814.727	51.11
814.9	45.56
815.074	43.53
815.247	46.63
815.421	46.48
815.594	45.65
815.767	48.27
815.941	47.41
816.114	48.9
816.287	55.48
816.46	57.2
816.634	61.89
816.807	60.82
816.98	60.63
817.153	59.51
817.327	59.93
817.5	58.18
817.673	57.38
817.846	56.4
818.019	51.34
818.192	48.48
818.365	50.03
818.538	50.17
818.711	51.1
818.884	50.18
819.057	47.4
819.23	47.24
819.403	52.4
819.576	55.36
819.749	54.8
819.922	53.96
820.095	53.21
820.268	49.43
820.441	45.65
820.614	46.24
820.786	49.26
820.959	49.88
821.132	50.32
821.305	47.97
821.477	46.05
821.65	46.88
821.823	48.2
821.996	48.83
822.168	49.45
822.341	50.24
822.514	50.29
822.686	49.6
822.859	49.58
823.031	48.58
823.204	48.91
823.376	49.93
823.549	49.8
823.722	49.88
823.894	49.65
824.067	50.08
824.239	50.04
824.411	49.1
824.584	49.71
824.756	49.59
824.929	51.23
825.101	50.29
825.273	49.45
825.446	48.49
825.618	47.68
825.79	47.8
825.963	47.73
826.135	48.08
826.307	48.33
826.479	47.38
826.652	47.58
826.824	47.56
826.996	48.12
827.168	46.97
827.34	48.64
827.512	49.38
827.684	48.9
827.856	48.14
828.029	47.99
828.201	46.77
828.373	46.4
828.545	47.47
828.717	45.99
828.889	44.57
829.061	46.29
829.232	45.43
829.404	44.81
829.576	42.92
829.748	43.49
829.92	42.98
830.092	44.73
830.264	47.27
830.436	46.28
830.607	48.91
830.779	52.88
830.951	54.33
831.123	53.05
831.294	55.18
831.466	56.53
831.638	54.87
831.809	57.2
831.981	57.13
832.153	57.66
832.324	56.64
832.496	56.82
832.667	52.84
832.839	52.81
833.011	53.28
833.182	52.37
833.354	54.32
833.525	56.55
833.697	57.06
833.868	57.74
834.039	55.02
834.211	55.72
834.382	52.37
834.554	51.41
834.725	53.27
834.896	53.81
835.068	54.33
835.239	54.87
835.41	52.96
835.581	52.91
835.753	52.58
835.924	52.85
836.095	53.12
836.266	56.64
836.438	59.63
836.609	52.99
836.78	51.97
836.951	51.68
837.122	48.1
837.293	48.23
837.464	47.37
837.635	47.9
837.806	46.33
837.977	47.12
838.148	42.64
838.319	44.74
838.49	50.87
838.661	57.4
838.832	59.61
839.003	60.87
839.174	60.91
839.345	52.6
839.516	49.22
839.687	54.88
839.857	51.28
840.028	52.7
840.199	53.3
840.37	48.42
840.54	48.92
840.711	48.35
840.882	51.54
841.053	56.34
841.223	60.29
841.394	63.97
841.564	59.11
841.735	58.3
841.906	58.86
842.076	57.69
842.247	62.31
842.417	54.3
842.588	48.77
842.758	50.56
842.929	45.7
843.099	49.68
843.27	47.54
843.44	50.49
843.611	54.45
843.781	55.59
843.951	50.78
844.122	48.55
844.292	57.63
844.462	67.85
844.633	67.06
844.803	67.6
844.973	84.08
845.144	92.01
845.314	100.96
845.484	93.62
845.654	93.93
845.824	111.24
845.995	112.59
846.165	101.02
846.335	100.35
846.505	96.05
846.675	98.47
846.845	82.99
847.015	80.47
847.185	82.08
847.355	75.66
847.525	80.03
847.695	76.56
847.865	77.22
848.035	77.51
848.205	60.66
848.375	57.27
848.545	57.26
848.715	56.88
848.884	56.04
849.054	53.77
849.224	61.3
849.394	56.15
849.564	54.65
849.733	51.97
849.903	51.09
850.073	57.32
850.243	65.79
850.412	66.43
850.582	60.24
850.752	58.01
850.921	71.34
851.091	66.57
851.26	63.26
851.43	59.03
851.599	60.06
851.769	54.74
851.939	68.57
852.108	61.98
852.278	64.24
852.447	85.95
852.616	84.6
852.786	73.98
852.955	73.12
853.125	73.16
853.294	82.91
853.463	89.17
853.633	99.85
853.802	90.27
853.971	87.55
854.141	93.69
854.31	79.38
854.479	72.85
854.648	56.18
854.818	78.56
854.987	87.77
855.156	89.28
855.325	80.08
855.494	67.64
855.663	86.32
855.832	88.82
856.001	78.39
856.171	82.25
856.34	83.81
856.509	87.45
856.678	82.64
856.847	73.7
857.016	69.25
857.185	81.12
857.353	83.55
857.522	79.3
857.691	81.6
857.86	87.16
858.029	93.92
858.198	108.21
858.367	121.84
858.535	121.43
858.704	120.69
858.873	125.36
859.042	123.53
859.21	136.85
859.379	152.84
859.548	152.89
859.717	129.22
859.885	114.66
860.054	112.28
860.222	96.85
860.391	109.77
860.56	108.08
860.728	91.35
860.897	93.25
861.065	73.53
861.234	65.32
861.402	59.33
861.571	55.56
861.739	58.92
861.908	57.09
862.076	61.8
862.244	54.87
862.413	57
862.581	68.09
862.749	54.68
862.918	58.04
863.086	53.71
863.254	72.05
863.423	72.48
863.591	69.17
863.759	88.49
863.927	89.13
864.096	98.17
864.264	102.47
864.432	84.04
864.6	84.73
864.768	90.08
864.936	90.65
865.104	94.07
865.272	138.74
865.44	148.57
865.608	71.88
865.776	52.95
865.944	38.08
866.112	36.73
866.28	21.21
866.448	60.87
866.616	91.11
866.784	121.48
866.952	106.87
867.12	71.88
867.288	62.68
867.455	92.42
867.623	110.87
867.791	69.78
867.959	80.71
868.127	71.73
868.294	50.4
868.462	37.79
868.63	45.5
868.797	40.2
868.965	50.97
869.133	54.07
869.3	51.38
869.468	51.59
869.636	64.09
869.803	69.77
869.971	86.28
870.138	103.48
870.306	122.45
870.473	137.97
870.641	193.21
870.808	180.23
870.975	192.22
871.143	187
871.31	210.86
871.478	221.07
871.645	208.51
871.812	112.63
871.98	120.96
872.147	92.53
872.314	87.7
872.482	83.98
872.649	69.34
872.816	66.22
872.983	64.66
873.15	64.49
873.318	67.51
873.485	61.21
873.652	63.94
873.819	50.79
873.986	63.47
874.153	60.41
874.32	71.14
874.487	78.58
874.654	75
874.821	70.69
874.988	75.85
875.155	80.68
875.322	79.77
875.489	77.07
875.656	102.33
875.823	93.43
875.99	107.87
876.157	102.2
876.324	100.88
876.49	106.71
876.657	99.63
876.824	106.8
876.991	100.64
877.157	107.48
877.324	119.96
877.491	113.96
877.658	142.65
877.824	124.53
877.991	139.5
878.157	137.21
878.324	120.28
878.491	116.1
878.657	87.01
878.824	82.46
878.99	72.63
879.157	66.82
879.323	53.84
879.49	57.58
879.656	70.01
879.823	58.1
879.989	56.71
880.156	59.71
880.322	77.16
880.488	84.54
880.655	87.61
880.821	87.49
880.987	81.81
881.154	83.75
881.32	73.01
881.486	67.48
881.652	74.08
881.819	74.16
881.985	75.25
882.151	69
882.317	67.99
882.483	64.86
882.649	63.01
882.816	61.68
882.982	59.2
883.148	59.97
883.314	57.57
883.48	56.83
883.646	53.61
883.812	52.15
883.978	51.78
884.144	50.49
884.31	51.03
884.476	52.3
884.642	52.93
884.807	51.47
884.973	50.42
885.139	52.01
885.305	51.4
885.471	54.71
885.637	53.63
885.802	49.37
885.968	54.69
886.134	55.64
886.3	52.82
886.465	53.54
886.631	50.98
886.797	51.76
886.962	49.62
887.128	47.8
887.293	44.15
887.459	42.42
887.625	48.61
887.79	34.08
887.956	41.32
888.121	42.67
888.287	36.85
888.452	47.13
888.618	42.87
888.783	41.66
