Data from 2937853_Reflection_3.txt Node
Date: Wed Jul 15 15:49:59 EDT 2015
User: robert
Spectrometer: USB4E03001
Autoset integration time: false
Trigger mode: 4
Integration Time (sec): 1.000000E-1
Scans to average: 10
Electric dark correction enabled: true
Nonlinearity correction enabled: false
Boxcar width: 5
Stray light correction enabled: false
XAxis mode: Wavelengths
Stop averaging: false
Number of Pixels in Spectrum: 3648
>>>>>Begin Spectral Data<<<<<
177.566	105.53
177.785	161.74
178.005	179.33
178.225	51.71
178.445	-187.27
178.665	39.2
178.885	102.95
179.105	157.85
179.324	108.02
179.544	44.82
179.764	88.28
179.984	82.14
180.204	111.63
180.423	118.18
180.643	81.6
180.863	23.48
181.083	67.01
181.302	27.84
181.522	58.2
181.742	23.19
181.961	45.45
182.181	-192.31
182.401	96.25
182.621	179.79
182.84	556.33
183.06	-231.47
183.279	-27.73
183.499	76.87
183.719	-3015.38
183.938	1334.13
184.158	-15.84
184.377	-19.54
184.597	-28.58
184.816	-16.09
185.036	-28.45
185.256	-41.33
185.475	-47.91
185.695	-37.21
185.914	-66.39
186.134	-8.34
186.353	8.44
186.572	-20.55
186.792	31.85
187.011	10.38
187.231	-101.76
187.45	-192.8
187.67	-522.61
187.889	-435.43
188.108	-56.92
188.328	-123.61
188.547	-275.43
188.766	-143.47
188.986	-155.56
189.205	-147.86
189.424	-121.1
189.644	-128.05
189.863	-232.78
190.082	-139.89
190.302	-48.23
190.521	-1754.62
190.74	-63.12
190.959	-83.24
191.178	-136.97
191.398	-82.03
191.617	-151.73
191.836	-226.54
192.055	-108.04
192.274	-69.65
192.494	-220.84
192.713	1296.06
192.932	22848.72
193.151	745.27
193.37	496.98
193.589	318.19
193.808	927.15
194.027	-644.02
194.246	-505.38
194.465	1987.41
194.685	941.72
194.904	3611.72
195.123	2931.34
195.342	-760.68
195.561	-1245.47
195.78	-185.19
195.999	-190.6
196.218	-1344.77
196.436	313.61
196.655	721.49
196.874	273.26
197.093	-1217.85
197.312	-137.15
197.531	-4.96
197.75	84.4
197.969	-50.66
198.188	606.41
198.407	467.03
198.625	-176.65
198.844	58.95
199.063	-6.76
199.282	7.96
199.501	334.19
199.719	102.32
199.938	107.15
200.157	370.65
200.376	235.81
200.594	37.62
200.813	74.06
201.032	68.78
201.251	-1735.16
201.469	228.03
201.688	1091.9
201.907	84.62
202.125	229.74
202.344	103.27
202.563	610.72
202.781	67.59
203	43.45
203.218	17.79
203.437	-16.44
203.656	-24.91
203.874	1.86
204.093	-23
204.311	14.76
204.53	-13.91
204.748	-54.65
204.967	-64.04
205.185	-278.28
205.404	-322.02
205.622	-385.6
205.841	-454.77
206.059	5220.88
206.278	486.6
206.496	14848.72
206.715	572.65
206.933	1064.21
207.151	1688.59
207.37	-270.36
207.588	-243.99
207.806	-264.9
208.025	-191.58
208.243	-340.33
208.461	-353.75
208.68	-172.91
208.898	-133.37
209.116	-48.61
209.335	-136.07
209.553	-3.57
209.771	-375.58
209.989	-220.18
210.208	-155.73
210.426	1453.85
210.644	1397.55
210.862	330.31
211.081	158.67
211.299	314.33
211.517	195.7
211.735	248.83
211.953	256.91
212.171	350.55
212.39	236.07
212.608	276.78
212.826	266.12
213.044	571.5
213.262	220.57
213.48	-22.15
213.698	261.69
213.916	-60.62
214.134	-186.49
214.352	-291.64
214.57	-48.53
214.788	-102.17
215.006	-90.62
215.224	-20.21
215.442	-37.64
215.66	-0.64
215.878	-36.76
216.096	-22.55
216.314	-24.19
216.532	-18.63
216.75	-64.38
216.968	-65.43
217.185	-67.4
217.403	-78.14
217.621	-201.18
217.839	-94.45
218.057	-486.86
218.275	-157.09
218.492	-148.61
218.71	-113.2
218.928	-53.71
219.146	-52.36
219.363	-224.25
219.581	-133.46
219.799	13.88
220.017	-0.65
220.234	-293.49
220.452	-401.1
220.67	-332.02
220.887	196.54
221.105	318.36
221.323	199.8
221.54	274.32
221.758	164.6
221.976	143.19
222.193	119.44
222.411	166.72
222.629	184.51
222.846	121.99
223.064	94.15
223.281	242.43
223.499	206.17
223.716	364.62
223.934	173.03
224.151	347.18
224.369	1320.28
224.586	498.17
224.804	140.39
225.021	138.93
225.239	151.34
225.456	111.52
225.674	83.17
225.891	66.74
226.108	51.73
226.326	29.3
226.543	24.22
226.76	-5.99
226.978	6.4
227.195	-4.64
227.413	16.35
227.63	20.27
227.847	22.37
228.064	20.78
228.282	26.73
228.499	27.48
228.716	26.26
228.934	25.12
229.151	30.47
229.368	28.77
229.585	25.28
229.802	21.06
230.02	18.78
230.237	20.12
230.454	18.98
230.671	14.52
230.888	15.16
231.105	18.63
231.323	19.48
231.54	11.66
231.757	10.02
231.974	11.27
232.191	16.23
232.408	22.22
232.625	18.66
232.842	23.11
233.059	26.29
233.276	25.64
233.493	23.3
233.71	18.37
233.927	26.52
234.144	30.35
234.361	32.9
234.578	31.4
234.795	28.1
235.012	23.81
235.229	22.12
235.446	21.37
235.663	18.18
235.879	23.26
236.096	24.14
236.313	21.46
236.53	18.98
236.747	16.75
236.964	18.01
237.181	16.95
237.397	21.68
237.614	28.94
237.831	30.49
238.048	31.6
238.264	27.23
238.481	29.28
238.698	31.53
238.915	33.44
239.131	24.44
239.348	28.41
239.565	28.68
239.781	28.84
239.998	21.01
240.215	14
240.431	16.54
240.648	13.87
240.865	10.83
241.081	6.72
241.298	8.86
241.514	12.84
241.731	9.7
241.947	11.44
242.164	11.57
242.38	12.05
242.597	14.18
242.814	14.85
243.03	15.96
243.246	19.45
243.463	21.04
243.679	20.21
243.896	21.16
244.112	24.66
244.329	25.97
244.545	26.88
244.762	28.76
244.978	28.18
245.194	24.98
245.411	26.91
245.627	23.2
245.843	22.39
246.06	21.99
246.276	21.08
246.492	19.31
246.709	18.85
246.925	18.03
247.141	17.33
247.357	17
247.574	17.32
247.79	16.06
248.006	16.59
248.222	16.49
248.439	15.13
248.655	13.57
248.871	12.33
249.087	10.89
249.303	10.38
249.519	10.76
249.736	11.22
249.952	10.55
250.168	12.67
250.384	12.71
250.6	12.3
250.816	14.95
251.032	17.9
251.248	17.07
251.464	17.45
251.68	15.94
251.896	15.18
252.112	15.42
252.328	16.28
252.544	14.44
252.76	13.04
252.976	13.8
253.192	11.27
253.408	12.31
253.624	14.13
253.84	14.56
254.056	14.9
254.272	13.54
254.487	13.01
254.703	13.07
254.919	17.71
255.135	17.32
255.351	16.73
255.567	20.22
255.782	19.46
255.998	18.5
256.214	16.93
256.43	19.01
256.646	17.02
256.861	17.65
257.077	18.06
257.293	11.04
257.508	11.67
257.724	10.87
257.94	8.22
258.155	6.47
258.371	7.16
258.587	6.97
258.802	6.94
259.018	8.33
259.234	9
259.449	9.96
259.665	10.38
259.88	11.59
260.096	11.59
260.312	11.99
260.527	12.6
260.743	12.73
260.958	12.58
261.174	13.32
261.389	14.34
261.605	14.47
261.82	13.93
262.036	14.81
262.251	13.87
262.466	14.1
262.682	14.54
262.897	15.77
263.113	14.99
263.328	17.16
263.543	16.22
263.759	13.97
263.974	14.06
264.189	15.11
264.405	15.34
264.62	14.77
264.835	14.57
265.051	14.21
265.266	11.28
265.481	12.38
265.696	12.75
265.912	11.42
266.127	11.85
266.342	8.8
266.557	8.3
266.773	7.42
266.988	8.11
267.203	8.54
267.418	9.76
267.633	11.54
267.848	13.18
268.064	13.52
268.279	14.62
268.494	14.22
268.709	15.63
268.924	15.89
269.139	15.26
269.354	15.15
269.569	15.27
269.784	12.64
269.999	12.01
270.214	11.07
270.429	9.21
270.644	6.74
270.859	8.9
271.074	10.69
271.289	10.17
271.504	11.75
271.719	12.09
271.934	11.58
272.149	12.54
272.363	12.45
272.578	12.08
272.793	11.75
273.008	13.62
273.223	12.03
273.438	10.04
273.653	7.96
273.867	8.38
274.082	7.92
274.297	10.05
274.512	12.24
274.726	13.05
274.941	13.61
275.156	15.42
275.371	14.48
275.585	15.16
275.8	16.96
276.015	19.77
276.229	19.06
276.444	18.29
276.659	15.13
276.873	13.82
277.088	12.8
277.302	12.18
277.517	11.14
277.732	12.13
277.946	14.06
278.161	13.8
278.375	13.84
278.59	14.18
278.804	14.39
279.019	13.71
279.233	13.23
279.448	13.46
279.662	13.79
279.877	13.69
280.091	14.1
280.306	12.81
280.52	11.16
280.735	7.69
280.949	7.64
281.163	7.8
281.378	8.64
281.592	6.98
281.806	6.93
282.021	5.6
282.235	5.17
282.449	4.04
282.664	4.5
282.878	6.44
283.092	8.69
283.307	8.31
283.521	7.95
283.735	9.74
283.949	11.65
284.164	11.85
284.378	12.79
284.592	12.7
284.806	11.5
285.02	11.31
285.234	9.64
285.449	9.57
285.663	9.68
285.877	10.73
286.091	9.18
286.305	7.79
286.519	6.71
286.733	6.98
286.947	7.82
287.161	8.92
287.375	8.93
287.589	9.84
287.803	10.3
288.017	10.19
288.231	9.28
288.445	10.34
288.659	11.53
288.873	13.69
289.087	13.24
289.301	14.44
289.515	15.07
289.729	15.56
289.943	15.31
290.157	15.91
290.371	17.26
290.584	17.17
290.798	16.77
291.012	16.71
291.226	16.43
291.44	15.11
291.654	14.09
291.867	12.38
292.081	12.08
292.295	10.6
292.509	9.12
292.722	7.38
292.936	8.83
293.15	9.71
293.364	10.19
293.577	9.87
293.791	10.61
294.005	10.75
294.218	11.9
294.432	11.11
294.645	14.43
294.859	14.58
295.073	14.78
295.286	13.31
295.5	12.78
295.713	12.94
295.927	12.87
296.14	14.02
296.354	13.39
296.568	13.44
296.781	12.78
296.994	11.12
297.208	11.6
297.421	11.71
297.635	12.26
297.848	11.78
298.062	11.88
298.275	12.21
298.489	13.41
298.702	13.6
298.915	12.72
299.129	14.13
299.342	14.56
299.555	14.47
299.769	14.83
299.982	15.32
300.195	15.48
300.409	16.61
300.622	17.09
300.835	13.09
301.048	13.49
301.262	15.63
301.475	15.93
301.688	15.95
301.901	15.2
302.115	15.91
302.328	15.7
302.541	16.11
302.754	16.71
302.967	15.12
303.18	16.63
303.393	16.14
303.607	16.31
303.82	16.71
304.033	17.52
304.246	18.62
304.459	18.42
304.672	19.36
304.885	20.07
305.098	18.14
305.311	19.18
305.524	20.28
305.737	19.32
305.95	20.05
306.163	19.57
306.376	18.79
306.589	18.61
306.802	17.82
307.015	16.73
307.228	16.12
307.44	13.56
307.653	14.31
307.866	13.81
308.079	15.96
308.292	16.1
308.505	15.65
308.718	15.36
308.93	14.46
309.143	14.87
309.356	15.01
309.569	15.15
309.781	17.17
309.994	16.19
310.207	14.8
310.42	13.79
310.632	14.33
310.845	14.52
311.058	15.32
311.27	16.36
311.483	16.05
311.696	15.72
311.908	16.34
312.121	15.84
312.333	16.17
312.546	15.81
312.759	16.29
312.971	13.75
313.184	13.54
313.396	13.07
313.609	11.14
313.821	12.8
314.034	14.56
314.246	13.96
314.459	16.35
314.671	16.87
314.884	17.87
315.096	17.78
315.309	18.62
315.521	17.74
315.733	18.18
315.946	20.99
316.158	21.29
316.371	19.29
316.583	19.15
316.795	16.59
317.008	16.93
317.22	19.09
317.432	19.42
317.644	19.5
317.857	22.77
318.069	22.87
318.281	21.07
318.494	18.15
318.706	20.19
318.918	21.63
319.13	21.57
319.342	21.57
319.555	20.51
319.767	19.52
319.979	19.14
320.191	17.33
320.403	16.77
320.615	17.91
320.827	17.91
321.039	15.98
321.252	14.79
321.464	17.3
321.676	16.84
321.888	17.51
322.1	17.87
322.312	19.49
322.524	18.88
322.736	19.57
322.948	17.83
323.16	20.59
323.372	20.89
323.584	20.6
323.796	19.51
324.007	20.35
324.219	20.43
324.431	21.43
324.643	22.34
324.855	24.38
325.067	25.57
325.279	27.16
325.491	26.19
325.702	27.05
325.914	28.14
326.126	29.55
326.338	28.34
326.55	28.44
326.761	28.43
326.973	28.47
327.185	26.86
327.396	25.04
327.608	26.22
327.82	27.5
328.032	28.49
328.243	28.64
328.455	28.43
328.666	31.32
328.878	32.33
329.09	33.53
329.301	32.53
329.513	34.95
329.725	38.19
329.936	38.67
330.148	37.12
330.359	39.49
330.571	40.59
330.782	39.83
330.994	40.31
331.205	42.15
331.417	43.41
331.628	45.62
331.84	46.73
332.051	47.07
332.262	46.87
332.474	48.79
332.685	46.14
332.897	47.01
333.108	49.19
333.319	48.61
333.531	47.31
333.742	47.27
333.953	47.16
334.165	46.69
334.376	46.36
334.587	47.42
334.799	47.2
335.01	48.2
335.221	47.98
335.432	47.3
335.644	48.28
335.855	50.61
336.066	50.43
336.277	50.85
336.488	52.18
336.7	52.96
336.911	53.22
337.122	53.96
337.333	54.69
337.544	55.85
337.755	56.37
337.966	55.69
338.177	54.33
338.388	55.74
338.599	54.28
338.811	52.97
339.022	53
339.233	53.04
339.444	53.21
339.655	54.34
339.866	53.12
340.076	54.27
340.287	55.21
340.498	56.21
340.709	55.52
340.92	58.13
341.131	58.59
341.342	58.82
341.553	59.53
341.764	60.09
341.975	59.1
342.185	60.1
342.396	60.55
342.607	61.65
342.818	61.63
343.029	61.66
343.239	60.84
343.45	61.39
343.661	61.26
343.872	59.77
344.082	59.11
344.293	61
344.504	60.73
344.714	59.79
344.925	60.27
345.136	60.95
345.346	60.95
345.557	60.75
345.768	61.4
345.978	60.91
346.189	61.83
346.399	61.88
346.61	61.15
346.821	62.82
347.031	63.55
347.242	62.02
347.452	61.18
347.663	61.47
347.873	62.18
348.084	61.68
348.294	62.37
348.504	62.53
348.715	62.17
348.925	61.43
349.136	60.49
349.346	59.81
349.557	59.51
349.767	58.93
349.977	58.41
350.188	58.6
350.398	58.92
350.608	59.35
350.819	58.01
351.029	59.22
351.239	60.27
351.449	59.69
351.66	60.17
351.87	60.58
352.08	62.12
352.29	62.46
352.501	62.22
352.711	62.65
352.921	62.07
353.131	62.89
353.341	63.05
353.552	62.57
353.762	62.91
353.972	63.14
354.182	62.63
354.392	60.65
354.602	60.38
354.812	61.07
355.022	59.89
355.232	59.92
355.442	60.27
355.652	60.84
355.862	60.79
356.072	59.9
356.282	59.06
356.492	59.05
356.702	60.13
356.912	60.34
357.122	58.77
357.332	59.41
357.542	59.01
357.752	59.64
357.962	58.95
358.171	58.87
358.381	59.27
358.591	59.75
358.801	60.75
359.011	61.25
359.221	62.12
359.43	63.67
359.64	63.56
359.85	63.61
360.06	63.85
360.269	64.63
360.479	63.66
360.689	63.56
360.899	63.2
361.108	62.67
361.318	62.12
361.528	61.64
361.737	60.81
361.947	60.99
362.156	60.36
362.366	59.34
362.576	58.27
362.785	58.49
362.995	59.57
363.204	59.59
363.414	60.04
363.623	59.58
363.833	58.95
364.042	59.24
364.252	58.31
364.461	59.87
364.671	59.33
364.88	59.77
365.09	60.71
365.299	58.56
365.509	57.72
365.718	56.22
365.927	56.76
366.137	56.98
366.346	56.5
366.555	55.96
366.765	55.7
366.974	56.79
367.183	55.97
367.393	53.99
367.602	54.39
367.811	54.12
368.021	54.67
368.23	53.82
368.439	54.08
368.648	53.53
368.857	54.75
369.067	53.74
369.276	52.49
369.485	52.8
369.694	53.48
369.903	53
370.112	53.69
370.321	53.42
370.531	53.57
370.74	52.93
370.949	53.51
371.158	52.41
371.367	52.28
371.576	52.51
371.785	52.8
371.994	52.72
372.203	53.18
372.412	52.84
372.621	53.07
372.83	52.55
373.039	52.55
373.248	51.45
373.457	51.6
373.666	52.24
373.874	52.33
374.083	51.55
374.292	51.08
374.501	50.03
374.71	50.84
374.919	50.51
375.128	50.96
375.336	50.36
375.545	51.53
375.754	51.48
375.963	50.81
376.171	51.36
376.38	51.57
376.589	51.78
376.798	52.02
377.006	50.72
377.215	50.76
377.424	49.76
377.632	49.76
377.841	49.08
378.05	48.36
378.258	48.25
378.467	47.11
378.675	47.02
378.884	46.74
379.093	46.41
379.301	46.45
379.51	46.35
379.718	46.95
379.927	46.59
380.135	46.35
380.344	46.74
380.552	45.65
380.761	46.04
380.969	45.69
381.177	45.53
381.386	45.91
381.594	45.51
381.803	44.85
382.011	45.08
382.219	44.62
382.428	44.33
382.636	43.71
382.845	44.99
383.053	44.54
383.261	43.91
383.469	43.55
383.678	42.74
383.886	43.1
384.094	42.21
384.302	42.21
384.511	42.65
384.719	42.28
384.927	42.44
385.135	41.24
385.343	40.53
385.552	40.73
385.76	40.47
385.968	40.67
386.176	39.87
386.384	40.17
386.592	39.13
386.8	38.94
387.008	38.92
387.216	38.55
387.424	38.47
387.633	38.33
387.841	37.75
388.049	37.42
388.257	37.51
388.465	37.37
388.672	36.65
388.88	36.4
389.088	36.63
389.296	36.16
389.504	35.79
389.712	35.46
389.92	35.8
390.128	35.78
390.336	35.72
390.544	35.45
390.751	35.81
390.959	36.19
391.167	36.34
391.375	35.67
391.583	35.72
391.79	35.53
391.998	35.54
392.206	35.13
392.414	35.02
392.621	34.96
392.829	34.62
393.037	34.05
393.244	33.68
393.452	33.49
393.66	33.74
393.867	33.84
394.075	34
394.283	34.38
394.49	34.49
394.698	34.59
394.905	34.49
395.113	34.47
395.32	34.81
395.528	34.99
395.735	35.17
395.943	34.53
396.15	34.22
396.358	34.02
396.565	33.33
396.773	33.12
396.98	32.26
397.188	32.21
397.395	32.26
397.602	31.95
397.81	31.8
398.017	31.63
398.225	31.85
398.432	31.92
398.639	31.64
398.847	31.52
399.054	31.59
399.261	32.13
399.468	31.85
399.676	31.72
399.883	31.85
400.09	31.56
400.297	31.4
400.505	31.37
400.712	31.29
400.919	31.23
401.126	31.56
401.333	31.06
401.54	31.17
401.748	31.32
401.955	31.53
402.162	31.41
402.369	31.62
402.576	31.56
402.783	31.47
402.99	31.63
403.197	31.41
403.404	31.26
403.611	31.53
403.818	31.66
404.025	31.52
404.232	31.03
404.439	30.94
404.646	30.75
404.853	30.89
405.06	30.86
405.267	30.64
405.474	30.9
405.681	30.92
405.887	30.69
406.094	30.39
406.301	30.67
406.508	31.09
406.715	31.07
406.922	31.64
407.128	31.66
407.335	31.35
407.542	31.14
407.749	31.38
407.955	31.03
408.162	31.11
408.369	30.74
408.575	30.45
408.782	29.86
408.989	30.07
409.195	29.75
409.402	29.59
409.609	29.41
409.815	29.49
410.022	29.27
410.228	29.79
410.435	29.79
410.642	29.9
410.848	29.9
411.055	30.22
411.261	30.12
411.468	29.95
411.674	29.74
411.881	29.84
412.087	29.93
412.294	30.02
412.5	29.59
412.706	29.66
412.913	29.71
413.119	29.9
413.326	29.77
413.532	29.65
413.738	29.66
413.945	29.53
414.151	29.49
414.357	29.73
414.564	29.82
414.77	29.73
414.976	29.52
415.182	29.59
415.389	29.4
415.595	29.33
415.801	29.29
416.007	29.56
416.214	29.66
416.42	29.66
416.626	29.5
416.832	29.44
417.038	29.37
417.244	29.45
417.45	29.06
417.657	29.05
417.863	29
418.069	28.91
418.275	28.91
418.481	28.91
418.687	28.96
418.893	28.64
419.099	28.32
419.305	28.55
419.511	28.53
419.717	28.56
419.923	28.48
420.129	28.5
420.335	28.52
420.541	28.37
420.746	28.42
420.952	28.34
421.158	28.5
421.364	28.57
421.57	28.53
421.776	28.6
421.982	28.65
422.187	28.65
422.393	28.52
422.599	28.5
422.805	28.29
423.01	28.23
423.216	28.2
423.422	28.08
423.628	28.06
423.833	27.76
424.039	27.68
424.245	27.78
424.45	27.71
424.656	27.79
424.862	27.74
425.067	27.74
425.273	27.65
425.478	27.55
425.684	27.53
425.889	27.55
426.095	27.72
426.301	27.47
426.506	27.37
426.712	27.29
426.917	27.21
427.123	27.25
427.328	27.38
427.533	27.56
427.739	27.73
427.944	27.7
428.15	27.8
428.355	28.02
428.561	28.38
428.766	28.48
428.971	28.88
429.177	28.83
429.382	28.96
429.587	28.88
429.793	28.61
429.998	28.56
430.203	28.62
430.408	28.2
430.614	28.07
430.819	27.82
431.024	27.93
431.229	27.72
431.434	27.68
431.64	27.38
431.845	27.35
432.05	27.49
432.255	27.38
432.46	27.55
432.665	27.78
432.87	27.66
433.076	27.79
433.281	27.78
433.486	27.87
433.691	27.89
433.896	27.93
434.101	27.99
434.306	28.06
434.511	28.07
434.716	27.84
434.921	27.86
435.126	27.9
435.331	27.97
435.535	27.75
435.74	27.49
435.945	27.57
436.15	27.57
436.355	27.59
436.56	27.53
436.765	27.66
436.97	27.86
437.174	27.85
437.379	27.86
437.584	27.67
437.789	27.65
437.993	27.75
438.198	27.75
438.403	27.78
438.608	27.57
438.812	27.42
439.017	27.29
439.222	27.26
439.426	27.11
439.631	27.22
439.836	27.16
440.04	27.12
440.245	27.08
440.45	27.13
440.654	27.15
440.859	27.13
441.063	27.24
441.268	27.24
441.472	27.11
441.677	27.14
441.881	27.04
442.086	26.96
442.29	27.05
442.495	27.14
442.699	26.95
442.904	27
443.108	27.12
443.312	27.13
443.517	27.5
443.721	27.66
443.925	27.83
444.13	27.95
444.334	28.08
444.538	27.99
444.743	27.98
444.947	28.14
445.151	27.9
445.356	27.88
445.56	27.72
445.764	27.37
445.968	27.26
446.173	27.16
446.377	26.93
446.581	26.98
446.785	27.01
446.989	26.91
447.193	26.8
447.398	26.83
447.602	26.82
447.806	26.71
448.01	26.78
448.214	26.7
448.418	26.65
448.622	26.65
448.826	26.72
449.03	26.7
449.234	26.7
449.438	26.63
449.642	26.57
449.846	26.5
450.05	26.84
450.254	26.81
450.458	27
450.662	27.06
450.866	27.19
451.069	26.82
451.273	27.01
451.477	26.83
451.681	26.77
451.885	26.79
452.089	26.79
452.292	26.55
452.496	26.47
452.7	26.38
452.904	26.36
453.107	26.34
453.311	26.4
453.515	26
453.719	26.18
453.922	26.09
454.126	26.2
454.33	26.34
454.533	26.51
454.737	26.46
454.94	26.61
455.144	26.51
455.348	26.54
455.551	26.66
455.755	26.8
455.958	26.5
456.162	26.81
456.365	26.89
456.569	26.87
456.772	26.72
456.976	26.85
457.179	26.54
457.383	26.55
457.586	26.34
457.79	26.34
457.993	26.48
458.196	26.64
458.4	26.5
458.603	26.27
458.807	26.2
459.01	26.08
459.213	26.1
459.417	26.12
459.62	26.29
459.823	26.35
460.026	26.34
460.23	26.36
460.433	26.47
460.636	26.54
460.839	26.69
461.042	26.84
461.246	26.96
461.449	26.84
461.652	26.85
461.855	26.74
462.058	26.71
462.261	26.97
462.464	26.8
462.668	26.74
462.871	26.83
463.074	26.78
463.277	26.62
463.48	26.48
463.683	26.56
463.886	26.64
464.089	26.76
464.292	26.7
464.495	26.46
464.698	26.3
464.901	26.06
465.104	26.14
465.306	26.03
465.509	26.03
465.712	26.19
465.915	26.16
466.118	26.31
466.321	26.14
466.524	26.23
466.726	26.11
466.929	26.52
467.132	26.62
467.335	26.63
467.538	26.67
467.74	26.6
467.943	26.65
468.146	26.79
468.348	26.7
468.551	26.65
468.754	26.71
468.956	26.87
469.159	26.71
469.362	26.7
469.564	26.56
469.767	26.55
469.969	26.82
470.172	26.85
470.375	26.96
470.577	26.8
470.78	27.02
470.982	26.98
471.185	26.88
471.387	26.84
471.59	27.15
471.792	26.96
471.995	26.92
472.197	26.74
472.399	26.67
472.602	26.74
472.804	26.69
473.007	26.61
473.209	26.85
473.411	26.86
473.614	26.99
473.816	26.89
474.018	27.06
474.22	27.11
474.423	27.23
474.625	27.47
474.827	27.19
475.03	27.33
475.232	27.37
475.434	27.1
475.636	27.16
475.838	27.38
476.04	27.31
476.243	27.36
476.445	27.47
476.647	27.51
476.849	27.3
477.051	27.24
477.253	27.39
477.455	27.56
477.657	27.5
477.859	27.38
478.061	27.01
478.263	26.99
478.465	26.91
478.667	26.88
478.869	26.77
479.071	26.67
479.273	27.02
479.475	27.05
479.677	26.7
479.879	26.88
480.081	27
480.283	27.12
480.485	27.11
480.686	27.18
480.888	27.24
481.09	27.17
481.292	27.28
481.494	27.03
481.695	26.83
481.897	27.08
482.099	26.94
482.301	26.88
482.502	26.95
482.704	26.96
482.906	26.96
483.107	26.91
483.309	26.86
483.511	26.74
483.712	26.77
483.914	26.84
484.115	26.73
484.317	26.78
484.519	26.83
484.72	26.74
484.922	26.75
485.123	26.68
485.325	26.67
485.526	26.73
485.728	26.86
485.929	26.86
486.131	26.91
486.332	27.01
486.534	26.95
486.735	26.84
486.936	26.82
487.138	26.81
487.339	26.82
487.541	26.68
487.742	26.62
487.943	26.6
488.144	26.57
488.346	26.47
488.547	26.51
488.748	26.52
488.95	26.55
489.151	26.61
489.352	26.59
489.553	26.68
489.755	26.81
489.956	26.82
490.157	26.82
490.358	26.89
490.559	26.94
490.76	26.87
490.961	26.87
491.163	26.89
491.364	26.89
491.565	26.87
491.766	26.83
491.967	26.81
492.168	26.83
492.369	26.83
492.57	26.84
492.771	26.82
492.972	26.65
493.173	26.6
493.374	26.57
493.575	26.5
493.776	26.39
493.976	26.33
494.177	26.29
494.378	26.38
494.579	26.42
494.78	26.55
494.981	26.6
495.182	26.88
495.382	27.18
495.583	27.24
495.784	27.5
495.985	27.64
496.185	27.7
496.386	27.96
496.587	27.97
496.788	27.89
496.988	27.79
497.189	27.8
497.39	27.88
497.59	27.79
497.791	27.64
497.992	27.75
498.192	27.81
498.393	27.92
498.593	27.72
498.794	27.7
498.994	27.76
499.195	27.78
499.395	27.89
499.596	27.79
499.796	27.96
499.997	28.35
500.197	28.26
500.398	28.54
500.598	28.56
500.799	28.86
500.999	28.87
501.199	28.85
501.4	28.78
501.6	28.57
501.801	28.58
502.001	28.43
502.201	28.26
502.402	28.27
502.602	28.04
502.802	27.95
503.002	27.83
503.203	27.92
503.403	28.07
503.603	28.53
503.803	28.72
504.003	28.97
504.204	29.21
504.404	29.31
504.604	29.27
504.804	29.43
505.004	29.68
505.204	29.96
505.404	30.12
505.604	30.21
505.804	30.14
506.005	30.32
506.205	30.26
506.405	30.4
506.605	30.53
506.805	30.8
507.005	30.73
507.204	30.74
507.404	30.72
507.604	30.69
507.804	30.81
508.004	30.76
508.204	30.82
508.404	30.98
508.604	30.82
508.804	30.86
509.003	30.91
509.203	31.1
509.403	31.2
509.603	31.13
509.803	31.33
510.002	31.28
510.202	31.44
510.402	31.38
510.602	31.43
510.801	31.59
511.001	31.68
511.201	31.7
511.4	31.7
511.6	31.82
511.8	31.9
511.999	31.85
512.199	31.98
512.398	31.86
512.598	31.88
512.797	32.02
512.997	32.15
513.197	32.4
513.396	32.4
513.596	32.55
513.795	32.49
513.994	32.66
514.194	32.87
514.393	33.04
514.593	33.25
514.792	33.35
514.992	33.4
515.191	33.28
515.39	33.12
515.59	33.27
515.789	33.27
515.988	33.34
516.188	33.74
516.387	33.76
516.586	33.72
516.786	33.94
516.985	34.24
517.184	34.34
517.383	34.56
517.582	34.84
517.782	35.16
517.981	35.46
518.18	35.64
518.379	35.56
518.578	35.58
518.777	35.79
518.976	35.92
519.176	35.89
519.375	36.1
519.574	36.28
519.773	36.36
519.972	36.26
520.171	36.26
520.37	36.17
520.569	36.2
520.768	36.41
520.967	36.39
521.166	36.44
521.365	36.66
521.564	36.55
521.762	36.54
521.961	36.54
522.16	36.65
522.359	36.68
522.558	36.96
522.757	37.16
522.956	37.16
523.154	37.41
523.353	37.45
523.552	37.68
523.751	37.88
523.949	38.1
524.148	38.31
524.347	38.49
524.546	38.54
524.744	38.64
524.943	38.71
525.142	38.9
525.34	38.99
525.539	39.12
525.737	39.11
525.936	39.28
526.135	39.28
526.333	39.23
526.532	39.34
526.73	39.58
526.929	39.72
527.127	39.92
527.326	40
527.524	40.05
527.723	40.14
527.921	40.15
528.12	40.17
528.318	40.23
528.516	40.39
528.715	40.39
528.913	40.43
529.112	40.48
529.31	40.48
529.508	40.52
529.707	40.59
529.905	40.65
530.103	40.7
530.301	40.76
530.5	40.86
530.698	40.83
530.896	40.9
531.094	40.98
531.293	40.94
531.491	40.98
531.689	41.09
531.887	41.24
532.085	41.34
532.283	41.51
532.481	41.66
532.68	41.67
532.878	41.81
533.076	41.84
533.274	41.92
533.472	42.06
533.67	42.1
533.868	42.13
534.066	42.19
534.264	42.22
534.462	42.26
534.66	42.17
534.858	42.22
535.056	42.29
535.253	42.47
535.451	42.48
535.649	42.59
535.847	42.74
536.045	42.74
536.243	42.78
536.441	42.74
536.638	42.82
536.836	42.98
537.034	43.09
537.232	43.16
537.43	43.24
537.627	43.09
537.825	43.01
538.023	42.97
538.22	43.16
538.418	43.18
538.616	43.38
538.813	43.46
539.011	43.53
539.209	43.67
539.406	43.76
539.604	43.73
539.801	44.04
539.999	44.16
540.196	44.22
540.394	44.32
540.591	44.28
540.789	44.25
540.986	44.38
541.184	44.43
541.381	44.41
541.579	44.29
541.776	44.39
541.974	44.38
542.171	44.41
542.368	44.59
542.566	44.59
542.763	44.78
542.96	44.8
543.158	44.73
543.355	44.69
543.552	44.73
543.75	44.89
543.947	44.8
544.144	44.83
544.341	44.89
544.539	44.77
544.736	44.83
544.933	44.66
545.13	44.8
545.327	44.91
545.524	45.06
545.722	45.25
545.919	45.2
546.116	45.38
546.313	45.44
546.51	45.47
546.707	45.53
546.904	45.52
547.101	45.7
547.298	45.74
547.495	45.75
547.692	45.8
547.889	45.7
548.086	45.85
548.283	45.78
548.48	45.89
548.677	46.03
548.874	46.26
549.07	46.44
549.267	46.41
549.464	46.23
549.661	46.31
549.858	46.03
550.055	46.23
550.251	46.21
550.448	46.22
550.645	46.16
550.842	46.21
551.038	46.19
551.235	45.97
551.432	45.99
551.628	46.12
551.825	46.19
552.022	46.67
552.218	46.77
552.415	46.78
552.612	46.78
552.808	46.94
553.005	46.77
553.201	46.48
553.398	46.67
553.594	46.71
553.791	46.91
553.987	46.96
554.184	46.78
554.38	46.71
554.577	46.84
554.773	47.22
554.97	47.1
555.166	47.34
555.362	47.59
555.559	47.66
555.755	47.51
555.952	47.45
556.148	47.52
556.344	47.84
556.541	47.84
556.737	47.87
556.933	47.43
557.129	47.6
557.326	47.47
557.522	47.53
557.718	47.43
557.914	47.62
558.11	47.68
558.307	47.54
558.503	47.71
558.699	47.71
558.895	47.85
559.091	48.15
559.287	48.35
559.483	48.58
559.679	48.71
559.876	48.57
560.072	48.45
560.268	48.53
560.464	48.68
560.66	48.18
560.856	48.14
561.052	47.96
561.247	47.73
561.443	47.6
561.639	47.5
561.835	47.21
562.031	47.55
562.227	47.79
562.423	47.78
562.619	47.74
562.815	48.04
563.01	48.36
563.206	48.53
563.402	48.6
563.598	48.67
563.793	48.8
563.989	49.07
564.185	49.06
564.381	49.17
564.576	49.27
564.772	49.39
564.968	49.39
565.163	49.3
565.359	49.32
565.555	49.6
565.75	49.69
565.946	49.82
566.141	49.67
566.337	49.65
566.532	49.62
566.728	49.66
566.923	49.65
567.119	49.67
567.314	49.72
567.51	49.7
567.705	49.61
567.901	49.74
568.096	49.62
568.292	49.75
568.487	49.9
568.682	49.83
568.878	49.73
569.073	49.93
569.268	50.23
569.464	50.33
569.659	50.4
569.854	50.61
570.05	50.28
570.245	50.3
570.44	50.55
570.635	50.63
570.831	50.79
571.026	50.99
571.221	50.69
571.416	50.53
571.611	50.44
571.806	50.63
572.002	50.54
572.197	50.76
572.392	50.63
572.587	50.53
572.782	50.4
572.977	50.5
573.172	50.54
573.367	50.85
573.562	50.77
573.757	50.75
573.952	50.63
574.147	50.56
574.342	50.69
574.537	50.98
574.732	51.07
574.927	51.14
575.121	51.04
575.316	51.1
575.511	51
575.706	51.33
575.901	51.33
576.096	51.4
576.29	51.41
576.485	51.31
576.68	51.01
576.875	51.03
577.069	51.04
577.264	50.81
577.459	50.82
577.654	50.82
577.848	50.61
578.043	50.76
578.238	50.73
578.432	51.17
578.627	51.32
578.821	51.9
579.016	51.76
579.21	51.68
579.405	52.06
579.6	51.83
579.794	52.06
579.989	51.77
580.183	51.69
580.378	51.76
580.572	51.42
580.766	51.34
580.961	50.78
581.155	50.85
581.35	51.01
581.544	50.83
581.738	50.82
581.933	50.59
582.127	51.04
582.321	51.03
582.516	50.84
582.71	50.96
582.904	50.65
583.099	50.91
583.293	50.85
583.487	50.92
583.681	51.14
583.875	51.07
584.07	51.4
584.264	51.13
584.458	51.22
584.652	51.5
584.846	51.41
585.04	51.6
585.234	51.45
585.428	51.57
585.623	51.64
585.817	51.44
586.011	51.62
586.205	51.61
586.399	51.74
586.593	51.91
586.787	51.7
586.981	51.38
587.174	51.31
587.368	51.41
587.562	51.47
587.756	51.37
587.95	51.58
588.144	51.5
588.338	51.33
588.532	51.3
588.725	50.93
588.919	50.75
589.113	51.27
589.307	51.54
589.501	51.47
589.694	51.48
589.888	51.25
590.082	51.24
590.275	51.53
590.469	51.6
590.663	51.89
590.856	52.15
591.05	52.64
591.244	52.38
591.437	52.46
591.631	52.57
591.824	52.58
592.018	52.97
592.212	52.62
592.405	52.63
592.599	52.79
592.792	52.77
592.986	52.74
593.179	52.69
593.372	52.97
593.566	52.61
593.759	52.74
593.953	52.85
594.146	52.87
594.339	53.37
594.533	53.31
594.726	53.1
594.92	52.85
595.113	53.17
595.306	53.36
595.499	53.18
595.693	53.42
595.886	53.19
596.079	53.29
596.272	53.28
596.466	53.18
596.659	52.96
596.852	53.06
597.045	53.25
597.238	52.83
597.431	52.5
597.624	52.71
597.818	52.74
598.011	52.99
598.204	52.77
598.397	52.56
598.59	52.71
598.783	53.02
598.976	52.89
599.169	52.64
599.362	53
599.555	53.24
599.748	53.2
599.941	53.1
600.134	52.72
600.326	52.91
600.519	52.85
600.712	53.07
600.905	52.85
601.098	53.25
601.291	53.36
601.483	53.01
601.676	52.79
601.869	52.56
602.062	52.63
602.255	53.03
602.447	52.98
602.64	53.05
602.833	52.61
603.025	52.75
603.218	52.42
603.411	52.62
603.603	52.87
603.796	52.95
603.989	53.03
604.181	53.21
604.374	53.14
604.566	53.07
604.759	53.22
604.951	53.22
605.144	53.33
605.336	53.45
605.529	53.31
605.721	53.01
605.914	52.85
606.106	52.72
606.299	52.55
606.491	52.59
606.683	52.66
606.876	52.68
607.068	52.77
607.26	52.62
607.453	52.86
607.645	52.79
607.837	53.33
608.03	53.44
608.222	53.52
608.414	53.49
608.606	53.06
608.799	53
608.991	53.14
609.183	52.92
609.375	52.76
609.567	52.24
609.759	52.29
609.952	52.03
610.144	51.91
610.336	52.06
610.528	51.83
610.72	52.08
610.912	51.97
611.104	51.47
611.296	51.39
611.488	51.51
611.68	51.75
611.872	51.83
612.064	51.87
612.256	51.87
612.448	51.56
612.64	51.43
612.832	51.48
613.023	51.81
613.215	52.01
613.407	52.04
613.599	51.91
613.791	51.82
613.983	51.56
614.174	52
614.366	52.22
614.558	52.77
614.75	53.21
614.941	53.37
615.133	53.16
615.325	53.2
615.516	53.69
615.708	53.49
615.9	53.84
616.091	54.03
616.283	53.5
616.475	53.7
616.666	53.29
616.858	53.15
617.049	52.74
617.241	53.08
617.432	53.13
617.624	52.6
617.815	52.96
618.007	52.77
618.198	52.69
618.39	53.11
618.581	53.17
618.773	53.12
618.964	53.56
619.155	53.63
619.347	53.51
619.538	53.43
619.729	53.57
619.921	53.34
620.112	53.19
620.303	53.25
620.494	52.9
620.686	53.04
620.877	53.33
621.068	52.82
621.259	53.11
621.451	52.67
621.642	52.87
621.833	52.91
622.024	53.02
622.215	53.24
622.406	52.99
622.597	53.38
622.788	53.48
622.98	53.3
623.171	53.64
623.362	53.77
623.553	53.75
623.744	53.58
623.935	53.65
624.126	53.19
624.317	52.7
624.508	52.97
624.698	52.8
624.889	52.46
625.08	52.48
625.271	52.4
625.462	52.13
625.653	52.37
625.844	52.37
626.034	52.6
626.225	53.21
626.416	53.98
626.607	53.99
626.798	53.97
626.988	53.99
627.179	54.26
627.37	54.41
627.56	54.57
627.751	54.59
627.942	54.82
628.132	54.92
628.323	54.75
628.514	54.34
628.704	54.32
628.895	54.28
629.085	54.1
629.276	53.98
629.466	54
629.657	53.97
629.847	53.63
630.038	53.34
630.228	53.12
630.419	53.39
630.609	53.67
630.8	53.75
630.99	53.58
631.181	53.95
631.371	53.8
631.561	53.63
631.752	53.68
631.942	54.13
632.132	54.37
632.323	54.06
632.513	53.78
632.703	53.59
632.893	53.28
633.084	53.22
633.274	53.11
633.464	53.12
633.654	53.27
633.844	53.08
634.034	53.35
634.225	53.19
634.415	53.59
634.605	53.91
634.795	53.67
634.985	54.01
635.175	54.02
635.365	53.93
635.555	53.87
635.745	53.56
635.935	53.51
636.125	53.17
636.315	53.49
636.505	53.47
636.695	52.79
636.885	53.02
637.075	53.21
637.265	53.43
637.455	53.43
637.644	53.45
637.834	53.85
638.024	53.91
638.214	53.49
638.404	53.08
638.593	52.85
638.783	53.39
638.973	53.55
639.163	53.54
639.352	53.45
639.542	53.8
639.732	53.86
639.921	53.55
640.111	53.33
640.301	53.88
640.49	53.86
640.68	54.16
640.87	54.23
641.059	54.63
641.249	54.71
641.438	55.08
641.628	54.98
641.817	54.93
642.007	55.25
642.196	55.99
642.386	55.84
642.575	55.78
642.764	55.68
642.954	55.59
643.143	55.09
643.333	54.18
643.522	53.76
643.711	53.47
643.901	53.65
644.09	53.49
644.279	53.09
644.469	53.07
644.658	53.03
644.847	52.75
645.036	52.72
645.226	52.76
645.415	53.11
645.604	53.46
645.793	53.6
645.982	53.13
646.171	53.27
646.361	53.48
646.55	53.4
646.739	53.88
646.928	53.75
647.117	53.61
647.306	53.37
647.495	53.65
647.684	53.29
647.873	53.2
648.062	53.59
648.251	53.18
648.44	53.11
648.629	53.03
648.818	52.92
649.007	53.48
649.196	53.96
649.384	53.65
649.573	53.65
649.762	53.73
649.951	53.85
650.14	53.84
650.328	54.66
650.517	54.88
650.706	55.38
650.895	55.84
651.083	55.77
651.272	55.61
651.461	55.89
651.65	55.72
651.838	55.84
652.027	55.6
652.216	55.67
652.404	55.07
652.593	54.47
652.781	53.81
652.97	53.08
653.158	53.04
653.347	53.02
653.535	53.12
653.724	53.1
653.912	52.78
654.101	53.18
654.289	53.36
654.478	53.37
654.666	53.69
654.855	54.07
655.043	54.43
655.231	54.62
655.42	54.72
655.608	54.98
655.796	54.87
655.985	55.12
656.173	54.88
656.361	54.5
656.55	54.51
656.738	54.91
656.926	54.79
657.114	54.69
657.302	54.52
657.491	54.4
657.679	54.31
657.867	54.45
658.055	54.57
658.243	54.52
658.431	54.79
658.619	54.77
658.807	54.34
658.996	54.57
659.184	54.75
659.372	54.52
659.56	54.48
659.748	54.56
659.936	54.7
660.124	54.8
660.311	54.54
660.499	54.44
660.687	54.54
660.875	55.17
661.063	54.95
661.251	54.76
661.439	54.86
661.627	54.84
661.814	54.69
662.002	54.77
662.19	54.86
662.378	55.5
662.565	55.65
662.753	55.6
662.941	54.99
663.129	55.22
663.316	55.55
663.504	55.71
663.692	55.92
663.879	55.85
664.067	55.93
664.254	55.88
664.442	55.88
664.63	55.35
664.817	55.5
665.005	55.02
665.192	55.08
665.38	54.56
665.567	54.01
665.755	53.8
665.942	53.84
666.13	53.94
666.317	53.7
666.504	53.53
666.692	53.67
666.879	53.35
667.067	53.06
667.254	52.93
667.441	53.36
667.629	54
667.816	53.83
668.003	53.77
668.19	53.65
668.378	53.65
668.565	53.53
668.752	53.29
668.939	53.34
669.127	53.78
669.314	54.07
669.501	54.16
669.688	53.82
669.875	53.91
670.062	53.6
670.249	53.39
670.436	53.27
670.623	53.61
670.81	53.44
670.997	53.51
671.184	53.92
671.371	53.55
671.558	53.01
671.745	53.36
671.932	53.48
672.119	54.01
672.306	54.3
672.493	54.75
672.68	54.56
672.867	55
673.054	54.57
673.24	55.2
673.427	55.37
673.614	55.25
673.801	54.99
673.988	54.63
674.174	54.86
674.361	54.73
674.548	54.63
674.734	54.35
674.921	54.18
675.108	54.28
675.294	54.01
675.481	53.56
675.668	54.31
675.854	53.97
676.041	54.17
676.227	53.41
676.414	53.22
676.601	52.67
676.787	52.75
676.974	53.19
677.16	53.24
677.347	52.29
677.533	51.79
677.719	51.61
677.906	52.26
678.092	51.99
678.279	51.92
678.465	52.11
678.651	52.56
678.838	53
679.024	52.51
679.21	52.87
679.397	53.32
679.583	54.25
679.769	54.6
679.955	54.62
680.142	55.16
680.328	55.86
680.514	56.31
680.7	56.34
680.886	56.47
681.073	57.23
681.259	57.34
681.445	57.36
681.631	57.07
681.817	56.5
682.003	55.8
682.189	55.98
682.375	55.51
682.561	54.56
682.747	54.09
682.933	53.61
683.119	53.06
683.305	53.51
683.491	53.96
683.677	54.46
683.863	54.84
684.049	55.73
684.235	55.39
684.42	55.44
684.606	55.42
684.792	56
684.978	56.72
685.164	56.47
685.349	55.94
685.535	55.84
685.721	55.52
685.907	55.43
686.092	55.05
686.278	55.5
686.464	55.79
686.649	56.03
686.835	55.77
687.021	55.07
687.206	55.62
687.392	56.07
687.577	55.66
687.763	55.71
687.948	55.27
688.134	55.95
688.319	55.52
688.505	55.6
688.69	55.34
688.876	55.27
689.061	55.11
689.247	55.65
689.432	55.46
689.618	55.61
689.803	55.49
689.988	56.01
690.174	55.22
690.359	55.27
690.544	55.8
690.73	56.35
690.915	56.5
691.1	56.99
691.285	55.95
691.471	55.42
691.656	55.08
691.841	55.1
692.026	54.71
692.211	55.25
692.396	55.15
692.582	54.45
692.767	54.23
692.952	54.57
693.137	54.44
693.322	54.77
693.507	55.05
693.692	55.43
693.877	55.07
694.062	55.57
694.247	54.79
694.432	54.9
694.617	55.27
694.802	55.36
694.987	54.18
695.172	54.04
695.357	54.2
695.541	54.15
695.726	54.61
695.911	55
696.096	54.68
696.281	55.68
696.466	55.56
696.65	55.66
696.835	55.89
697.02	56.61
697.204	56.63
697.389	56.31
697.574	56.69
697.759	55.85
697.943	56.13
698.128	56.25
698.312	55.87
698.497	56.13
698.682	55.66
698.866	55.64
699.051	55.42
699.235	55.5
699.42	55.4
699.604	54.94
699.789	55.27
699.973	55.07
700.158	55.1
700.342	55.22
700.527	54.63
700.711	54.46
700.895	54.3
701.08	54.28
701.264	54.34
701.448	54.6
701.633	55.34
701.817	55.72
702.001	55.12
702.186	55.21
702.37	55.09
702.554	55.65
702.738	56.4
702.923	56.77
703.107	57.23
703.291	57.37
703.475	56.77
703.659	55.88
703.843	55.64
704.027	56.16
704.212	55.51
704.396	55.14
704.58	54.53
704.764	53.89
704.948	53.64
705.132	53.58
705.316	52.76
705.5	53.32
705.684	53.98
705.868	53.87
706.052	53.71
706.235	54.39
706.419	54.76
706.603	54.93
706.787	55.28
706.971	54.9
707.155	55.1
707.339	55.55
707.522	56.03
707.706	56.07
707.89	56.81
708.074	56.52
708.257	56.08
708.441	56.68
708.625	56.5
708.808	56.17
708.992	56.04
709.176	55.47
709.359	54.84
709.543	54.37
709.727	54.24
709.91	53.22
710.094	54.81
710.277	54.27
710.461	53.12
710.644	53.45
710.828	53.78
711.011	53.95
711.195	54.4
711.378	54.98
711.562	54.98
711.745	54.06
711.928	54.11
712.112	52.75
712.295	52.95
712.478	53.6
712.662	52.86
712.845	52.78
713.028	52.69
713.212	52.54
713.395	52.62
713.578	52.54
713.761	53.16
713.945	53.06
714.128	53.92
714.311	53.29
714.494	53.7
714.677	54.49
714.86	54.42
715.043	54.87
715.227	54.76
715.41	55.37
715.593	55.27
715.776	56.22
715.959	56.57
716.142	56.37
716.325	57.46
716.508	57.06
716.691	57.13
716.874	57.42
717.057	56.68
717.239	57.28
717.422	56.21
717.605	56.66
717.788	56.44
717.971	57.16
718.154	56.66
718.337	56.61
718.519	56.56
718.702	56.6
718.885	57.39
719.068	57.8
719.25	57.49
719.433	58.88
719.616	58.67
719.798	56.74
719.981	57.31
720.164	57.83
720.346	58.89
720.529	58.98
720.712	58.11
720.894	57.46
721.077	57.04
721.259	56.48
721.442	55.47
721.624	55.31
721.807	56.14
721.989	54.81
722.172	54.32
722.354	54.28
722.537	55.06
722.719	56.27
722.901	55.79
723.084	56.13
723.266	57.19
723.448	56.3
723.631	57.51
723.813	57.4
723.995	56.61
724.178	56.97
724.36	56.43
724.542	56.06
724.724	55.86
724.907	55.29
725.089	56.77
725.271	56.58
725.453	58.5
725.635	58.08
725.817	58.64
725.999	59.99
726.181	59.93
726.364	59.34
726.546	58.79
726.728	58.07
726.91	58.82
727.092	58.37
727.274	58.32
727.456	56.38
727.638	55.83
727.819	55.52
728.001	55.66
728.183	54.93
728.365	56.31
728.547	55.97
728.729	56.04
728.911	55.96
729.093	56.31
729.274	55.82
729.456	57.58
729.638	57.51
729.82	58.01
730.001	57.31
730.183	58.82
730.365	57.65
730.546	57.1
730.728	57.57
730.91	57.52
731.091	56.45
731.273	56.15
731.455	55.39
731.636	56.14
731.818	56.36
731.999	56.58
732.181	55.69
732.362	55.35
732.544	55.92
732.725	55.9
732.907	56.02
733.088	56.37
733.27	56.54
733.451	56.15
733.633	55.08
733.814	55.37
733.995	54.52
734.177	55.04
734.358	56.29
734.539	57.02
734.721	56.11
734.902	56.41
735.083	56.01
735.264	55.85
735.446	55.17
735.627	56.33
735.808	56.45
735.989	57.68
736.17	56.89
736.351	55.98
736.533	55.26
736.714	57.38
736.895	56.36
737.076	56.01
737.257	55.99
737.438	56.86
737.619	55.55
737.8	55.29
737.981	56.42
738.162	56.27
738.343	55.98
738.524	56.6
738.705	55.66
738.886	55.7
739.067	56.2
739.247	56.81
739.428	56.15
739.609	55.85
739.79	55.2
739.971	54.05
740.151	53.97
740.332	52.78
740.513	52.65
740.694	51.6
740.874	51.17
741.055	50.94
741.236	51.66
741.417	53.47
741.597	53.87
741.778	54.37
741.958	56.14
742.139	56.75
742.32	58.19
742.5	58.8
742.681	58.99
742.861	59.79
743.042	60.92
743.222	58.66
743.403	57.84
743.583	58.73
743.764	57.63
743.944	55.44
744.124	54.83
744.305	55.08
744.485	55.33
744.666	56.59
744.846	56.38
745.026	54.24
745.207	54.58
745.387	54.73
745.567	55.35
745.747	55.87
745.928	55.32
746.108	54.85
746.288	54.18
746.468	52.28
746.648	51.95
746.829	51.5
747.009	53.8
747.189	53.05
747.369	52.1
747.549	50.95
747.729	50.13
747.909	49.85
748.089	50.75
748.269	50.43
748.449	51.47
748.629	51.15
748.809	50.47
748.989	50.25
749.169	51.1
749.349	51.94
749.529	53.38
749.709	54.18
749.889	55.29
750.068	54.43
750.248	55.46
750.428	54.92
750.608	55.17
750.788	55.92
750.967	54.21
751.147	54.93
751.327	54.38
751.507	53.2
751.686	52.54
751.866	53.06
752.046	53.74
752.225	54.07
752.405	52.89
752.585	53.24
752.764	53.61
752.944	54.16
753.123	53.71
753.303	53.8
753.482	53.43
753.662	53.88
753.841	52.46
754.021	52.17
754.2	52.2
754.38	53.89
754.559	53.04
754.739	53.42
754.918	54.01
755.097	54.83
755.277	55.39
755.456	56.67
755.635	57.76
755.815	58.12
755.994	59.48
756.173	58.6
756.352	56.56
756.532	55.68
756.711	56.73
756.89	55.66
757.069	54.79
757.248	53.56
757.427	52.58
757.607	50.3
757.786	51.72
757.965	50.04
758.144	50.24
758.323	50.84
758.502	52
758.681	50.69
758.86	51.85
759.039	51.02
759.218	51.75
759.397	52.35
759.576	54.16
759.755	54.36
759.934	56.11
760.113	55.69
760.291	56.65
760.47	56.14
760.649	57.52
760.828	56.75
761.007	57.78
761.186	59.34
761.364	58.99
761.543	59.61
761.722	57.59
761.901	57.17
762.079	57.67
762.258	57.24
762.437	57.15
762.615	56.22
762.794	56.34
762.972	56.79
763.151	56.13
763.33	56.13
763.508	55.72
763.687	56.14
763.865	56.18
764.044	56.17
764.222	55.48
764.401	55.46
764.579	55.62
764.758	55.27
764.936	55.29
765.114	54.93
765.293	54.84
765.471	53.38
765.65	54.39
765.828	52.73
766.006	51.98
766.184	53.73
766.363	54.22
766.541	54.25
766.719	54.45
766.898	53.33
767.076	53.83
767.254	53.57
767.432	55.01
767.61	54.15
767.788	55.83
767.967	57.85
768.145	57.12
768.323	58.06
768.501	57.63
768.679	59.19
768.857	59.5
769.035	59.8
769.213	61.32
769.391	60.85
769.569	61.42
769.747	60.96
769.925	60
770.103	58.22
770.281	57.68
770.459	57.36
770.636	56.84
770.814	56.26
770.992	55.08
771.17	53.88
771.348	54.49
771.525	53.49
771.703	53.2
771.881	52.85
772.059	54.31
772.236	55.46
772.414	55.08
772.592	53.47
772.769	55.02
772.947	52.99
773.125	52.85
773.302	52.56
773.48	51.3
773.657	50.61
773.835	52.85
774.013	53.58
774.19	51.86
774.368	53.23
774.545	55.74
774.723	56.27
774.9	59.53
775.077	58.68
775.255	59.71
775.432	61.28
775.61	63.13
775.787	59.44
775.964	58.68
776.142	57.56
776.319	57.25
776.496	58.21
776.674	57.39
776.851	54.38
777.028	53.05
777.205	54.91
777.382	54.3
777.56	50.88
777.737	50.25
777.914	49.54
778.091	50.01
778.268	49.18
778.445	47.17
778.622	44.11
778.8	47.49
778.977	49.09
779.154	46.81
779.331	47.34
779.508	48.95
779.685	54.42
779.862	55.63
780.038	57.75
780.215	57.83
780.392	59.27
780.569	62.25
780.746	63.72
780.923	65.64
781.1	67.49
781.277	66.76
781.453	66.21
781.63	62.67
781.807	64.75
781.984	63.48
782.16	64.98
782.337	60.05
782.514	59.2
782.691	58.16
782.867	56.87
783.044	54.57
783.221	57.48
783.397	57.85
783.574	57.38
783.75	54.66
783.927	57.47
784.103	54.24
784.28	54.3
784.456	57.37
784.633	57.79
784.809	55.55
784.986	54.36
785.162	51.79
785.339	49.31
785.515	50.77
785.692	51.43
785.868	48.36
786.044	49.08
786.221	50.65
786.397	50.86
786.573	50.67
786.749	53.94
786.926	54.75
787.102	55.19
787.278	59.61
787.454	59.84
787.631	58.09
787.807	57.79
787.983	58.52
788.159	62.57
788.335	59.83
788.511	58.06
788.687	57.29
788.863	58.51
789.039	57.97
789.216	57.49
789.392	57.76
789.568	56.14
789.744	56.32
789.919	57.81
790.095	53.72
790.271	53.18
790.447	54.6
790.623	52
790.799	51.8
790.975	53.66
791.151	52.19
791.327	51.31
791.502	53.97
791.678	55.33
791.854	55.11
792.03	58.01
792.205	57.94
792.381	56.85
792.557	59.88
792.733	58.45
792.908	56.97
793.084	58.06
793.259	57.64
793.435	59.63
793.611	58.94
793.786	60.07
793.962	58.4
794.137	61.3
794.313	59.66
794.488	59.95
794.664	59.43
794.839	58.21
795.015	58.64
795.19	56.45
795.366	55.74
795.541	55.5
795.716	53.21
795.892	53.94
796.067	53.3
796.242	55.77
796.418	52.33
796.593	50.85
796.768	47.74
796.944	50.23
797.119	51.02
797.294	49.79
797.469	51.23
797.644	53.49
797.82	53.6
797.995	51.23
798.17	50.47
798.345	54.91
798.52	56.29
798.695	59.56
798.87	59.09
799.045	61.23
799.22	60.8
799.395	60.33
799.57	61.76
799.745	62.38
799.92	63.28
800.095	65.06
800.27	62.14
800.445	64.61
800.62	64.24
800.795	62.17
800.97	62.99
801.145	66.06
801.319	66.11
801.494	64.8
801.669	61.68
801.844	60.19
802.018	58.33
802.193	61.16
802.368	58.56
802.543	57.28
802.717	56.01
802.892	55.45
803.067	52.11
803.241	48.58
803.416	41.66
803.59	43.91
803.765	45.08
803.94	47.49
804.114	48.23
804.289	53.39
804.463	56.62
804.638	58.72
804.812	56.63
804.986	59.12
805.161	66.03
805.335	70.98
805.51	71.01
805.684	72.29
805.858	67
806.033	67.47
806.207	64.04
806.381	63.17
806.556	63.35
806.73	61.08
806.904	63.72
807.078	54.54
807.253	56.98
807.427	56.78
807.601	57.23
807.775	57.59
807.949	54.36
808.123	50.47
808.298	50.16
808.472	46.28
808.646	50.51
808.82	45.16
808.994	48.4
809.168	43.3
809.342	42.53
809.516	44.42
809.69	45.7
809.864	44.07
810.038	47.27
810.212	45.25
810.385	48.89
810.559	51.47
810.733	54.71
810.907	50.78
811.081	54.57
811.255	58.17
811.428	58.3
811.602	59.74
811.776	63.85
811.95	62.17
812.123	69.57
812.297	69.85
812.471	69.03
812.644	71.6
812.818	83.47
812.992	84.8
813.165	83.03
813.339	79.77
813.512	77.03
813.686	73.64
813.86	79.24
814.033	76.06
814.207	69.91
814.38	66.42
814.554	59.17
814.727	58.74
814.9	59.18
815.074	55.23
815.247	58.55
815.421	58.35
815.594	60.99
815.767	57.54
815.941	49.48
816.114	56.16
816.287	60.87
816.46	60.97
816.634	57.87
816.807	60.4
816.98	63.15
817.153	61.29
817.327	64.55
817.5	63.07
817.673	63.29
817.846	69.44
818.019	65.01
818.192	60.83
818.365	63.12
818.538	62.19
818.711	61.74
818.884	60.21
819.057	58.56
819.23	55.17
819.403	55.52
819.576	52.64
819.749	50.32
819.922	53.77
820.095	50.94
820.268	51.08
820.441	50.82
820.614	52.03
820.786	53.67
820.959	55.22
821.132	54.24
821.305	53.64
821.477	53.68
821.65	52.97
821.823	50.02
821.996	50.75
822.168	50.29
822.341	50.18
822.514	49.59
822.686	49.16
822.859	49.33
823.031	49.24
823.204	49.73
823.376	50
823.549	49.91
823.722	50.57
823.894	51.91
824.067	51.29
824.239	51.59
824.411	51.39
824.584	51.1
824.756	51.23
824.929	52.06
825.101	53.43
825.273	53.66
825.446	55.49
825.618	55.79
825.79	54.76
825.963	56.31
826.135	55.96
826.307	57.05
826.479	57.55
826.652	56.14
826.824	57.58
826.996	56.04
827.168	56.59
827.34	54.73
827.512	56.03
827.684	56.06
827.856	56.69
828.029	58.25
828.201	57.06
828.373	58.03
828.545	59.41
828.717	56.41
828.889	54.51
829.061	55.45
829.232	56.7
829.404	53.78
829.576	51.51
829.748	51.51
829.92	48.96
830.092	51.17
830.264	50.73
830.436	50.82
830.607	55.49
830.779	55
830.951	55.26
831.123	56.07
831.294	60.89
831.466	66.35
831.638	64.22
831.809	67.65
831.981	67.61
832.153	64.61
832.324	63.01
832.496	58.71
832.667	60.23
832.839	55.13
833.011	57.92
833.182	54.87
833.354	53.17
833.525	57.65
833.697	54.59
833.868	54.27
834.039	58.18
834.211	56.98
834.382	57.19
834.554	61.09
834.725	60.17
834.896	56.6
835.068	55.96
835.239	57.82
835.41	54.26
835.581	56.61
835.753	57.58
835.924	53.67
836.095	58.89
836.266	59.12
836.438	57.65
836.609	65.64
836.78	66.03
836.951	71.82
837.122	70.71
837.293	74.41
837.464	72.34
837.635	70.39
837.806	65.02
837.977	60.11
838.148	60.41
838.319	59.07
838.49	54.52
838.661	57.22
838.832	50.15
839.003	52.97
839.174	48.57
839.345	49.3
839.516	50.2
839.687	63.14
839.857	67.37
840.028	67.93
840.199	68.9
840.37	59.9
840.54	58.83
840.711	62.51
840.882	60.07
841.053	61.26
841.223	60.99
841.394	62.64
841.564	60.46
841.735	59.88
841.906	62.56
842.076	65.06
842.247	70.87
842.417	80.72
842.588	84.8
842.758	88.4
842.929	94.98
843.099	93.44
843.27	117.11
843.44	118.98
843.611	119.12
843.781	114.18
843.951	99.96
844.122	96.42
844.292	82.55
844.462	86.15
844.633	70.84
844.803	59.79
844.973	68.35
845.144	42.5
845.314	52.11
845.484	32.63
845.654	28.82
845.824	16.46
845.995	17.12
846.165	32.25
846.335	13.51
846.505	31.65
846.675	21.01
846.845	8.33
847.015	4.41
847.185	-6.82
847.355	41.75
847.525	49.09
847.695	56.72
847.865	62.97
848.035	67.17
848.205	78.63
848.375	78.51
848.545	85.62
848.715	118.37
848.884	184.92
849.054	146.23
849.224	217.5
849.394	284.68
849.564	268.71
849.733	255.41
849.903	199.54
850.073	157.69
850.243	164.7
850.412	175.68
850.582	151.18
850.752	151.46
850.921	106.12
851.091	108.42
851.26	86.45
851.43	76.31
851.599	79.91
851.769	64.02
851.939	61.17
852.108	50.38
852.278	85.91
852.447	71.01
852.616	44.86
852.786	52.34
852.955	40.72
853.125	34.8
853.294	44.27
853.463	32.19
853.633	45.78
853.802	49.11
853.971	57.68
854.141	51.31
854.31	54.15
854.479	61.4
854.648	78.72
854.818	78.33
854.987	67.82
855.156	62.63
855.325	67.81
855.494	68.65
855.663	87.96
855.832	70.69
856.001	67.39
856.171	81.84
856.34	88.78
856.509	75.68
856.678	95.13
856.847	100.05
857.016	119.12
857.185	114.66
857.353	110.7
857.522	102.19
857.691	94.68
857.86	92.12
858.029	86.49
858.198	94.83
858.367	121.38
858.535	131.74
858.704	161.72
858.873	123.06
859.042	134.76
859.21	117.4
859.379	115.72
859.548	143.59
859.717	134.96
859.885	137.59
860.054	109.11
860.222	94.52
860.391	92.38
860.56	93.47
860.728	110.98
860.897	127.91
861.065	149.62
861.234	146.86
861.402	139.65
861.571	157.18
861.739	187.46
861.908	196.45
862.076	175.63
862.244	172.1
862.413	146.09
862.581	172.82
862.749	155.8
862.918	198.31
863.086	191.76
863.254	187.22
863.423	211.09
863.591	201.36
863.759	274.21
863.927	248.44
864.096	207.04
864.264	215.95
864.432	149.39
864.6	129.64
864.768	111.71
864.936	119.95
865.104	106.5
865.272	85.77
865.44	97.43
865.608	76.65
865.776	71.5
865.944	60.74
866.112	56.03
866.28	66.23
866.448	72.49
866.616	63.53
866.784	52.37
866.952	57.83
867.12	47.81
867.288	44.7
867.455	54.67
867.623	49.99
867.791	55.33
867.959	68.59
868.127	42.56
868.294	52
868.462	42.37
868.63	47.38
868.797	16.2
868.965	54.28
869.133	8.71
869.3	3.2
869.468	13.22
869.636	-13.99
869.803	-84.62
869.971	-70.99
870.138	-22.22
870.306	0.7
870.473	-26.61
870.641	10.55
870.808	-6.76
870.975	-8
871.143	-32.72
871.31	-37.8
871.478	-45.77
871.645	1.83
871.812	-19.25
871.98	-25.21
872.147	-45.04
872.314	30.1
872.482	58.24
872.649	97.79
872.816	85.2
872.983	83.14
873.15	137.36
873.318	153.41
873.485	110.23
873.652	135.81
873.819	181.67
873.986	141.87
874.153	101.73
874.32	96.28
874.487	168.09
874.654	114.89
874.821	135.32
874.988	583.25
875.155	329.59
875.322	-394.69
875.489	349.65
875.656	124.07
875.823	147.15
875.99	-214.84
876.157	-49.91
876.324	-34.43
876.49	27.12
876.657	35.41
876.824	3.84
876.991	-9.7
877.157	11.82
877.324	35.31
877.491	7.65
877.658	26.2
877.824	27.22
877.991	31.81
878.157	50.32
878.324	66.54
878.491	66.25
878.657	108.62
878.824	134.07
878.99	108.47
879.157	70.34
879.323	90.98
879.49	86.69
879.656	129.64
879.823	121.13
879.989	116.82
880.156	100.57
880.322	147.95
880.488	84.29
880.655	33.88
880.821	70.01
880.987	66.91
881.154	54.3
881.32	60.19
881.486	53.66
881.652	37.35
881.819	45.48
881.985	43.41
882.151	46.32
882.317	44.8
882.483	47.57
882.649	48.27
882.816	50.57
882.982	45.99
883.148	45.17
883.314	48.91
883.48	49.56
883.646	47.84
883.812	49.84
883.978	48.7
884.144	49.48
884.31	50.8
884.476	53.07
884.642	52.73
884.807	54.58
884.973	52.65
885.139	49.06
885.305	54.76
885.471	59.12
885.637	56.49
885.802	57.28
885.968	54.66
886.134	58.52
886.3	60.77
886.465	59.74
886.631	61.28
886.797	67.75
886.962	62.62
887.128	57.01
887.293	53.91
887.459	55.67
887.625	67.34
887.79	65.1
887.956	65.36
888.121	42.23
888.287	46.05
888.452	41.3
888.618	32.35
888.783	65.82
