Data from 2937829_Reflection_2.txt Node
Date: Wed Jul 15 16:53:12 EDT 2015
User: robert
Spectrometer: USB4E03001
Autoset integration time: false
Trigger mode: 4
Integration Time (sec): 1.000000E-1
Scans to average: 10
Electric dark correction enabled: true
Nonlinearity correction enabled: false
Boxcar width: 5
Stray light correction enabled: false
XAxis mode: Wavelengths
Stop averaging: false
Number of Pixels in Spectrum: 3648
>>>>>Begin Spectral Data<<<<<
177.566	-96.69
177.785	37.66
178.005	-30.03
178.225	3585.71
178.445	10766.67
178.665	114.26
178.885	577.85
179.105	-384.44
179.324	811.33
179.544	-78.71
179.764	-155.5
179.984	-850.19
180.204	-510.88
180.423	-689.7
180.643	-382.72
180.863	-420.27
181.083	-114.83
181.302	-296.04
181.522	-580.03
181.742	-194.57
181.961	-318.99
182.181	-124.96
182.401	-90.3
182.621	-77.7
182.84	-86.95
183.06	-196.86
183.279	-244.6
183.499	-273.54
183.719	-158.26
183.938	-84.56
184.158	5943.48
184.377	567.9
184.597	304.72
184.816	181.56
185.036	418.8
185.256	485.19
185.475	444.54
185.695	-452.32
185.914	-2560.83
186.134	-263.83
186.353	-161.33
186.572	-85.37
186.792	-32.35
187.011	-19.78
187.231	-26.83
187.45	-27.65
187.67	-15.85
187.889	-8.65
188.108	-30.88
188.328	-1.17
188.547	-16.78
188.766	-21.58
188.986	29.91
189.205	-41.34
189.424	-40.23
189.644	-690.52
189.863	24352.94
190.082	-280.38
190.302	-193.26
190.521	-527.26
190.74	-3971
190.959	-439.28
191.178	934.89
191.398	578.74
191.617	-392.52
191.836	-322.81
192.055	-88.27
192.274	-409.53
192.494	2614.22
192.713	769.16
192.932	-1109.56
193.151	-434.03
193.37	-257.2
193.589	-200.88
193.808	-257.44
194.027	-429.38
194.246	643.19
194.465	300.8
194.685	311.32
194.904	289.5
195.123	259
195.342	181.11
195.561	146.86
195.78	20
195.999	-207.87
196.218	-91.17
196.436	74.62
196.655	164.66
196.874	-16.12
197.093	35.09
197.312	43.72
197.531	-144.25
197.75	-160.55
197.969	-313.26
198.188	-507.21
198.407	-574.32
198.625	-404.51
198.844	-488.32
199.063	-3302.07
199.282	-969.58
199.501	-854.65
199.719	767.16
199.938	596.59
200.157	508.14
200.376	188.88
200.594	201.45
200.813	190.13
201.032	208.44
201.251	210.71
201.469	108.92
201.688	128.92
201.907	138.25
202.125	280.76
202.344	300.69
202.563	404.45
202.781	718.01
203	416.51
203.218	241.56
203.437	252.81
203.656	373.68
203.874	-1219.19
204.093	-1262.2
204.311	1266.98
204.53	4103.79
204.748	-359.27
204.967	-545.27
205.185	-548.43
205.404	959.35
205.622	2021.69
205.841	1056.51
206.059	516.29
206.278	437.1
206.496	247.68
206.715	566.76
206.933	395.13
207.151	99.6
207.37	83.78
207.588	82.24
207.806	71.72
208.025	27.21
208.243	-127.39
208.461	-70.99
208.68	-91.4
208.898	100.13
209.116	85.31
209.335	151.24
209.553	148.52
209.771	216.09
209.989	989.58
210.208	-6194.69
210.426	737.1
210.644	273.88
210.862	200.51
211.081	117.53
211.299	135.08
211.517	163.3
211.735	135.11
211.953	146.36
212.171	102.78
212.39	78.91
212.608	71.96
212.826	72.43
213.044	72.05
213.262	107.81
213.48	261.6
213.698	296.14
213.916	159.42
214.134	266.64
214.352	45.38
214.57	-68.83
214.788	-46.61
215.006	-37.41
215.224	-20.57
215.442	-85.62
215.66	-103.72
215.878	-303.24
216.096	825.31
216.314	-665.41
216.532	-577.83
216.75	281.51
216.968	239.07
217.185	311.79
217.403	161.91
217.621	292.99
217.839	466.7
218.057	-1788.02
218.275	-325.39
218.492	-41.32
218.71	-133.76
218.928	-172.02
219.146	-794.63
219.363	1362.57
219.581	1574.37
219.799	2259.18
220.017	183.51
220.234	243.08
220.452	108.45
220.67	147.35
220.887	154.83
221.105	257.51
221.323	258.75
221.54	309.65
221.758	252.07
221.976	169.9
222.193	211.74
222.411	217.8
222.629	218.79
222.846	195.46
223.064	185.49
223.281	184.35
223.499	138.45
223.716	145.97
223.934	149.86
224.151	173.54
224.369	186.7
224.586	150.94
224.804	136.8
225.021	101.1
225.239	138.79
225.456	107.01
225.674	135.79
225.891	163.37
226.108	121.64
226.326	152.93
226.543	105.49
226.76	116.02
226.978	77.3
227.195	76.66
227.413	57.25
227.63	47.36
227.847	32.68
228.064	28.98
228.282	26.19
228.499	20.9
228.716	18.36
228.934	26.79
229.151	22.29
229.368	23.24
229.585	18.66
229.802	19.23
230.02	20.15
230.237	19.08
230.454	17.93
230.671	21.31
230.888	20.5
231.105	18.21
231.323	13.14
231.54	15.33
231.757	15.32
231.974	24.66
232.191	23.01
232.408	27.32
232.625	25.61
232.842	23.97
233.059	22.65
233.276	22.35
233.493	25.79
233.71	26.45
233.927	25.93
234.144	24.61
234.361	5.01
234.578	9.45
234.795	-6.58
235.012	3.51
235.229	2.84
235.446	2.83
235.663	9.68
235.879	5.23
236.096	12.25
236.313	5.51
236.53	10.83
236.747	20.53
236.964	12.37
237.181	15.76
237.397	9.06
237.614	10.4
237.831	3.94
238.048	3.5
238.264	3.34
238.481	-3.43
238.698	-3.89
238.915	-4.6
239.131	-9.42
239.348	0.12
239.565	5.37
239.781	12.83
239.998	16.72
240.215	17.01
240.431	19.11
240.648	18.68
240.865	20.52
241.081	18.65
241.298	20.05
241.514	22.4
241.731	23.61
241.947	26.24
242.164	24.24
242.38	22.62
242.597	23.16
242.814	24.03
243.03	26.57
243.246	26.35
243.463	27.87
243.679	29.18
243.896	28.27
244.112	27.84
244.329	25.65
244.545	26.33
244.762	26.04
244.978	26.37
245.194	22.68
245.411	19.5
245.627	19.3
245.843	18.71
246.06	17.19
246.276	18.86
246.492	19.48
246.709	18.67
246.925	18.25
247.141	18.84
247.357	18.39
247.574	19.05
247.79	18.01
248.006	18.22
248.222	18.32
248.439	18.95
248.655	17.33
248.871	16.76
249.087	18.01
249.303	18.29
249.519	17.5
249.736	17.22
249.952	17.68
250.168	20.05
250.384	19.28
250.6	20.14
250.816	20.21
251.032	23.16
251.248	22.66
251.464	20.11
251.68	18.63
251.896	19.12
252.112	19.9
252.328	19.57
252.544	18.5
252.76	20.59
252.976	20.74
253.192	18.28
253.408	18.38
253.624	18.99
253.84	18.84
254.056	21.94
254.272	25.1
254.487	22.28
254.703	20.72
254.919	19.12
255.135	17.36
255.351	15.79
255.567	18.14
255.782	13.78
255.998	15.68
256.214	21.96
256.43	18
256.646	15.16
256.861	20.06
257.077	21.91
257.293	21.62
257.508	19.23
257.724	20.31
257.94	20.22
258.155	19.43
258.371	19.51
258.587	16.58
258.802	18.44
259.018	18.73
259.234	17.2
259.449	17.88
259.665	18.24
259.88	18.28
260.096	17.43
260.312	17.66
260.527	18.13
260.743	17.03
260.958	17.15
261.174	16.62
261.389	15.29
261.605	13.64
261.82	11.85
262.036	11.64
262.251	10.79
262.466	10.16
262.682	7.99
262.897	8.94
263.113	9.04
263.328	6.98
263.543	7.41
263.759	9.97
263.974	13.42
264.189	13.91
264.405	15.55
264.62	16.85
264.835	16.62
265.051	14.86
265.266	14.3
265.481	14.29
265.696	16.56
265.912	17.65
266.127	15.66
266.342	15.45
266.557	17.17
266.773	15.33
266.988	16.92
267.203	17.93
267.418	20.37
267.633	18.37
267.848	17.42
268.064	17.69
268.279	14.76
268.494	14.33
268.709	15.38
268.924	15.01
269.139	14.34
269.354	12.02
269.569	12.1
269.784	11.17
269.999	12.36
270.214	14.22
270.429	13.55
270.644	15.39
270.859	18.06
271.074	17.6
271.289	16.51
271.504	18.35
271.719	18.23
271.934	17.05
272.149	16.84
272.363	16.91
272.578	16.85
272.793	17.15
273.008	16.25
273.223	14.68
273.438	14.5
273.653	14.54
273.867	14.38
274.082	15.07
274.297	16.13
274.512	16.35
274.726	15.31
274.941	15.72
275.156	16.44
275.371	16.83
275.585	17.53
275.8	18.53
276.015	17.58
276.229	15.78
276.444	16.61
276.659	15.73
276.873	15.3
277.088	16.14
277.302	16.27
277.517	15
277.732	14.09
277.946	13.5
278.161	13.78
278.375	16.43
278.59	16.42
278.804	14.97
279.019	15.57
279.233	15.91
279.448	13.85
279.662	10.79
279.877	9.94
280.091	9.37
280.306	12.04
280.52	11.12
280.735	9.87
280.949	11.03
281.163	11.37
281.378	12.02
281.592	10.56
281.806	12.28
282.021	14.26
282.235	15.06
282.449	16.11
282.664	14.46
282.878	15.59
283.092	15.17
283.307	14.02
283.521	14.11
283.735	13.77
283.949	13.79
284.164	14.47
284.378	13.86
284.592	14.27
284.806	12.15
285.02	12.6
285.234	11.57
285.449	11.48
285.663	13.58
285.877	13.71
286.091	14.53
286.305	15.83
286.519	16.03
286.733	16.9
286.947	17.39
287.161	19.13
287.375	18.87
287.589	18.72
287.803	20.81
288.017	19.65
288.231	19.13
288.445	18.06
288.659	17.32
288.873	17.89
289.087	15.95
289.301	14.84
289.515	15.86
289.729	16.5
289.943	17.01
290.157	16.21
290.371	15.32
290.584	14.75
290.798	14.56
291.012	14.97
291.226	15.45
291.44	16.9
291.654	16.39
291.867	16.04
292.081	14.79
292.295	13.07
292.509	11.23
292.722	10.89
292.936	9.42
293.15	10.05
293.364	8.97
293.577	6.7
293.791	6.51
294.005	6.51
294.218	6.16
294.432	7.57
294.645	8.94
294.859	12.19
295.073	13.19
295.286	14.13
295.5	13.72
295.713	15.32
295.927	15.55
296.14	15.96
296.354	16.26
296.568	16.65
296.781	16.69
296.994	16.68
297.208	14.3
297.421	13.72
297.635	15.68
297.848	15.59
298.062	15.16
298.275	14.52
298.489	14.54
298.702	15.79
298.915	16.32
299.129	16.39
299.342	15.99
299.555	17.97
299.769	18.81
299.982	18.35
300.195	19.65
300.409	21.39
300.622	21.85
300.835	22.68
301.048	21.23
301.262	21.04
301.475	20.61
301.688	22.52
301.901	21.69
302.115	20.7
302.328	20.59
302.541	21.01
302.754	20.5
302.967	22.96
303.18	22.13
303.393	22
303.607	19.79
303.82	20.3
304.033	19.3
304.246	19.38
304.459	20.4
304.672	18.93
304.885	18.29
305.098	17.6
305.311	15.53
305.524	16.93
305.737	16.88
305.95	19.02
306.163	18.75
306.376	19.93
306.589	20.34
306.802	19.72
307.015	21.42
307.228	20.74
307.44	21.17
307.653	20.1
307.866	18.99
308.079	19.59
308.292	19.9
308.505	21.56
308.718	19.95
308.93	20.74
309.143	21.54
309.356	20.07
309.569	20.09
309.781	19.69
309.994	21.72
310.207	22.71
310.42	22.9
310.632	21.31
310.845	20.38
311.058	20.55
311.27	19.32
311.483	18.11
311.696	19.16
311.908	18.83
312.121	18.97
312.333	17.29
312.546	16.49
312.759	16.19
312.971	16.74
313.184	16.5
313.396	15.29
313.609	15.65
313.821	18.34
314.034	17.54
314.246	18.03
314.459	17.91
314.671	19.65
314.884	18.28
315.096	17.17
315.309	17.11
315.521	16.99
315.733	17.14
315.946	18
316.158	17.01
316.371	19.62
316.583	20.44
316.795	18.31
317.008	18.89
317.22	20.05
317.432	21.67
317.644	23.27
317.857	23.26
318.069	23
318.281	24.82
318.494	24.83
318.706	22.94
318.918	23.63
319.13	25.19
319.342	24.88
319.555	24.42
319.767	22.45
319.979	21.42
320.191	18.86
320.403	21.67
320.615	18.6
320.827	17.5
321.039	17.65
321.252	17.62
321.464	18.67
321.676	18.23
321.888	18.02
322.1	18.08
322.312	18.46
322.524	18.01
322.736	17.82
322.948	18.5
323.16	19.19
323.372	18.64
323.584	17.32
323.796	15.76
324.007	15.2
324.219	15.33
324.431	16.81
324.643	16.62
324.855	18.88
325.067	18.29
325.279	17.99
325.491	17.34
325.702	17.93
325.914	18.71
326.126	20.13
326.338	20.01
326.55	20.96
326.761	22.1
326.973	21.85
327.185	22.55
327.396	22.07
327.608	22.03
327.82	22.07
328.032	21.09
328.243	20.97
328.455	20.14
328.666	20.16
328.878	20.53
329.09	19.07
329.301	19.78
329.513	18.44
329.725	18.58
329.936	19.57
330.148	20.83
330.359	20.95
330.571	21.61
330.782	20.92
330.994	22.66
331.205	19.84
331.417	18.41
331.628	16.08
331.84	16.9
332.051	15.25
332.262	14.87
332.474	11.69
332.685	11.62
332.897	12.73
333.108	12.93
333.319	12.55
333.531	12.11
333.742	12.34
333.953	15.01
334.165	15.1
334.376	16.85
334.587	17.59
334.799	18.5
335.01	18.61
335.221	17
335.432	17.82
335.644	16.31
335.855	17.89
336.066	17.46
336.277	17.12
336.488	16.56
336.7	16.98
336.911	13.63
337.122	14.49
337.333	15.34
337.544	16.01
337.755	16.11
337.966	16.52
338.177	16.72
338.388	17.24
338.599	16.34
338.811	16.22
339.022	15.34
339.233	18.02
339.444	18.98
339.655	18.97
339.866	19.31
340.076	18.53
340.287	19.49
340.498	19.54
340.709	20.5
340.92	20.73
341.131	20.95
341.342	21.59
341.553	21.75
341.764	20.31
341.975	17.84
342.185	16.51
342.396	16.7
342.607	15.46
342.818	14.18
343.029	13.13
343.239	11.94
343.45	10.98
343.661	10.86
343.872	11.02
344.082	11.8
344.293	13.5
344.504	13.48
344.714	13.37
344.925	11.82
345.136	13.33
345.346	14.23
345.557	16.12
345.768	17.22
345.978	17.76
346.189	16.33
346.399	15.81
346.61	16.5
346.821	16.74
347.031	17.37
347.242	19.19
347.452	18.42
347.663	16.83
347.873	16.22
348.084	16.74
348.294	15.8
348.504	17.72
348.715	17.99
348.925	16.91
349.136	15.76
349.346	15.43
349.557	15.05
349.767	15.82
349.977	14.53
350.188	13.76
350.398	11.88
350.608	12.19
350.819	10.05
351.029	10.75
351.239	10.49
351.449	10.87
351.66	10.19
351.87	11.49
352.08	10.73
352.29	14.16
352.501	14.92
352.711	15.43
352.921	15.8
353.131	16.28
353.341	14.66
353.552	14.29
353.762	15.42
353.972	16.12
354.182	14.36
354.392	14.47
354.602	13.39
354.812	12.8
355.022	13.19
355.232	12.87
355.442	13.09
355.652	13.97
355.862	15.54
356.072	14.68
356.282	14.74
356.492	15.76
356.702	15.56
356.912	15.68
357.122	15.21
357.332	14.9
357.542	15
357.752	15.31
357.962	15.55
358.171	14.32
358.381	14.61
358.591	13.62
358.801	13.67
359.011	13.46
359.221	14.23
359.43	14.97
359.64	15.34
359.85	14.7
360.06	15.03
360.269	14.89
360.479	16.14
360.689	16.48
360.899	17.63
361.108	17.69
361.318	18.2
361.528	16.97
361.737	16.75
361.947	16.38
362.156	16.52
362.366	15.28
362.576	14.72
362.785	13.66
362.995	12.96
363.204	11.95
363.414	11.49
363.623	10.91
363.833	10.88
364.042	10.68
364.252	11.08
364.461	11.82
364.671	12.37
364.88	11.99
365.09	12.05
365.299	13.62
365.509	14.26
365.718	14.37
365.927	13.59
366.137	14.61
366.346	14.97
366.555	15.27
366.765	14.66
366.974	15.53
367.183	16.73
367.393	16.74
367.602	15.83
367.811	15.27
368.021	14.22
368.23	14.93
368.439	14.16
368.648	13.42
368.857	13.17
369.067	13.05
369.276	12.21
369.485	12.23
369.694	11.54
369.903	11.01
370.112	10.89
370.321	11.01
370.531	11.72
370.74	11.45
370.949	12.06
371.158	11.96
371.367	10.88
371.576	10.44
371.785	10.51
371.994	11.47
372.203	12
372.412	11.8
372.621	12.6
372.83	12.11
373.039	12.1
373.248	11.74
373.457	11.71
373.666	12.14
373.874	12.06
374.083	10.37
374.292	10.15
374.501	10.34
374.71	10.33
374.919	9.44
375.128	8.86
375.336	8.96
375.545	7.89
375.754	7.44
375.963	7.9
376.171	7.55
376.38	8.27
376.589	7.97
376.798	7.68
377.006	8.24
377.215	8.26
377.424	9.13
377.632	10.35
377.841	10.86
378.05	11.18
378.258	10.82
378.467	11.77
378.675	11.81
378.884	12.54
379.093	12.47
379.301	11.88
379.51	12.49
379.718	12.06
379.927	11.41
380.135	11.84
380.344	11.5
380.552	12.04
380.761	12.76
380.969	13.21
381.177	12.01
381.386	11.54
381.594	11.44
381.803	11.03
382.011	10.78
382.219	10.35
382.428	10.29
382.636	10.02
382.845	9.78
383.053	9.08
383.261	8.63
383.469	9.14
383.678	8.79
383.886	9.6
384.094	9.98
384.302	10.61
384.511	10.22
384.719	9.83
384.927	9.83
385.135	9.69
385.343	8.78
385.552	8.32
385.76	8.11
385.968	8.59
386.176	7.99
386.384	7.95
386.592	7.44
386.8	7.51
387.008	7.69
387.216	7.59
387.424	7.54
387.633	7.89
387.841	8.17
388.049	8.06
388.257	8.01
388.465	7.96
388.672	8.47
388.88	8.45
389.088	8.99
389.296	8.74
389.504	8.93
389.712	9.18
389.92	9.09
390.128	9.1
390.336	9.25
390.544	8.91
390.751	8.87
390.959	8.24
391.167	8.44
391.375	8.05
391.583	8.12
391.79	8
391.998	8.07
392.206	8.23
392.414	8.09
392.621	8.4
392.829	8.58
393.037	8.95
393.244	8.98
393.452	8.61
393.66	8.52
393.867	8.36
394.075	8.87
394.283	8.26
394.49	8.17
394.698	7.98
394.905	7.5
395.113	7.41
395.32	7.13
395.528	6.9
395.735	6.84
395.943	6.81
396.15	7.44
396.358	6.74
396.565	6.9
396.773	6.89
396.98	7.36
397.188	7.54
397.395	7.48
397.602	7.15
397.81	7.33
398.017	7.19
398.225	6.84
398.432	6.17
398.639	5.99
398.847	5.7
399.054	5.91
399.261	6.17
399.468	6.36
399.676	6.76
399.883	7.34
400.09	7.02
400.297	7.35
400.505	8.16
400.712	8.44
400.919	8.79
401.126	9.49
401.333	8.92
401.54	8.42
401.748	8.29
401.955	7.89
402.162	7.76
402.369	8.13
402.576	8.34
402.783	8.15
402.99	8.28
403.197	7.99
403.404	7.86
403.611	8.44
403.818	8.53
404.025	8.06
404.232	7.98
404.439	7.64
404.646	7.19
404.853	7.19
405.06	6.86
405.267	6.56
405.474	6.93
405.681	6.54
405.887	6.34
406.094	6.2
406.301	6.59
406.508	6.62
406.715	6.85
406.922	7.3
407.128	7.26
407.335	7.53
407.542	7.45
407.749	7.14
407.955	7.1
408.162	7.1
408.369	7.17
408.575	6.96
408.782	7.24
408.989	7.02
409.195	6.72
409.402	6.65
409.609	6.53
409.815	6.71
410.022	6.89
410.228	7.21
410.435	7.06
410.642	6.95
410.848	6.86
411.055	6.4
411.261	6.13
411.468	6.2
411.674	5.8
411.881	5.95
412.087	6
412.294	6.22
412.5	6.18
412.706	6.23
412.913	6.4
413.119	6.65
413.326	6.9
413.532	7.18
413.738	7.19
413.945	7.13
414.151	6.93
414.357	6.52
414.564	6.16
414.77	5.91
414.976	5.75
415.182	5.62
415.389	5.42
415.595	5.36
415.801	5.34
416.007	5.38
416.214	5.26
416.42	5.32
416.626	5.98
416.832	5.95
417.038	6.19
417.244	6.49
417.45	6.82
417.657	7.02
417.863	7.16
418.069	7.15
418.275	7.26
418.481	7.48
418.687	7.31
418.893	7.05
419.099	7.19
419.305	7.13
419.511	6.89
419.717	6.75
419.923	6.28
420.129	6.21
420.335	6.25
420.541	6.09
420.746	5.87
420.952	5.86
421.158	5.77
421.364	5.73
421.57	5.69
421.776	5.97
421.982	5.97
422.187	6.33
422.393	6.41
422.599	6.26
422.805	6.23
423.01	6.36
423.216	6.37
423.422	6.4
423.628	6.4
423.833	6.45
424.039	6.16
424.245	6.12
424.45	6.05
424.656	5.93
424.862	6.14
425.067	6.16
425.273	6.35
425.478	6.29
425.684	6.28
425.889	6.19
426.095	6.1
426.301	6.27
426.506	6.07
426.712	6.09
426.917	6.03
427.123	5.67
427.328	5.64
427.533	5.5
427.739	5.66
427.944	5.76
428.15	5.95
428.355	5.91
428.561	5.79
428.766	6.02
428.971	5.93
429.177	6.05
429.382	6.38
429.587	6.55
429.793	6.32
429.998	6.1
430.203	5.77
430.408	5.55
430.614	5.87
430.819	6.02
431.024	5.64
431.229	5.6
431.434	5.66
431.64	5.59
431.845	5.66
432.05	6.12
432.255	6.21
432.46	6.28
432.665	6.3
432.87	6.16
433.076	5.87
433.281	6.08
433.486	6.38
433.691	6.08
433.896	6
434.101	6
434.306	5.56
434.511	5.71
434.716	5.87
434.921	5.92
435.126	5.95
435.331	6.05
435.535	6.16
435.74	5.92
435.945	6.29
436.15	6.35
436.355	6.37
436.56	6.6
436.765	6.49
436.97	6.32
437.174	6.38
437.379	6.17
437.584	6.21
437.789	6.05
437.993	5.94
438.198	5.66
438.403	5.72
438.608	5.5
438.812	5.28
439.017	5.2
439.222	5.26
439.426	5.35
439.631	5.51
439.836	5.49
440.04	5.58
440.245	5.61
440.45	5.65
440.654	5.82
440.859	5.93
441.063	6.01
441.268	6.16
441.472	6.22
441.677	6.09
441.881	5.99
442.086	5.98
442.29	5.9
442.495	5.72
442.699	5.74
442.904	5.57
443.108	5.33
443.312	5.42
443.517	5.09
443.721	5.1
443.925	5.15
444.13	5.23
444.334	5.17
444.538	5.18
444.743	5.63
444.947	5.91
445.151	5.95
445.356	6.15
445.56	6.14
445.764	6.42
445.968	6.38
446.173	6.11
446.377	5.95
446.581	5.9
446.785	6.02
446.989	5.91
447.193	5.79
447.398	5.77
447.602	5.79
447.806	5.71
448.01	5.56
448.214	5.37
448.418	5.47
448.622	5.54
448.826	5.57
449.03	5.4
449.234	5.26
449.438	4.99
449.642	5.09
449.846	5.02
450.05	5.12
450.254	5.13
450.458	5.47
450.662	5.52
450.866	5.66
451.069	5.7
451.273	5.85
451.477	5.75
451.681	5.81
451.885	5.49
452.089	5.59
452.292	5.5
452.496	5.64
452.7	5.55
452.904	5.44
453.107	5.26
453.311	5.45
453.515	5.49
453.719	5.76
453.922	5.93
454.126	5.97
454.33	5.74
454.533	5.71
454.737	5.36
454.94	5.33
455.144	5.32
455.348	5.36
455.551	5.33
455.755	5.23
455.958	5.21
456.162	4.93
456.365	4.97
456.569	5.14
456.772	5.23
456.976	5.49
457.179	5.47
457.383	5.63
457.586	5.85
457.79	5.87
457.993	5.84
458.196	5.76
458.4	5.86
458.603	5.85
458.807	5.72
459.01	5.56
459.213	5.55
459.417	5.55
459.62	5.62
459.823	5.54
460.026	5.46
460.23	5.53
460.433	5.55
460.636	5.53
460.839	5.63
461.042	5.87
461.246	5.97
461.449	5.68
461.652	5.78
461.855	5.74
462.058	5.51
462.261	5.44
462.464	5.37
462.668	5.15
462.871	5.2
463.074	5.08
463.277	4.84
463.48	4.92
463.683	5.29
463.886	5.17
464.089	5.07
464.292	5.16
464.495	5.22
464.698	5.3
464.901	5.56
465.104	5.55
465.306	5.76
465.509	5.45
465.712	5.44
465.915	5.44
466.118	5.59
466.321	5.72
466.524	5.85
466.726	5.83
466.929	5.64
467.132	5.49
467.335	5.41
467.538	5.2
467.74	5.56
467.943	5.49
468.146	5.41
468.348	5.32
468.551	5.14
468.754	4.87
468.956	4.97
469.159	4.96
469.362	5.04
469.564	5.05
469.767	4.99
469.969	4.83
470.172	4.92
470.375	5.05
470.577	5.09
470.78	5.26
470.982	5.54
471.185	5.49
471.387	5.83
471.59	5.92
471.792	5.98
471.995	6.07
472.197	5.98
472.399	5.87
472.602	5.86
472.804	5.93
473.007	6.01
473.209	5.93
473.411	5.76
473.614	5.55
473.816	5.62
474.018	5.7
474.22	5.48
474.423	5.44
474.625	5.58
474.827	5.61
475.03	5.49
475.232	5.55
475.434	5.7
475.636	5.85
475.838	5.71
476.04	5.56
476.243	5.56
476.445	5.81
476.647	5.84
476.849	5.73
477.051	5.93
477.253	5.82
477.455	5.64
477.657	5.4
477.859	5.47
478.061	5.67
478.263	5.83
478.465	5.85
478.667	5.62
478.869	5.49
479.071	5.57
479.273	5.23
479.475	5.34
479.677	5.27
479.879	5.42
480.081	5.24
480.283	5.11
480.485	4.85
480.686	4.63
480.888	4.71
481.09	4.85
481.292	4.8
481.494	4.88
481.695	4.89
481.897	4.89
482.099	4.94
482.301	5.08
482.502	5.13
482.704	5.18
482.906	5.27
483.107	5.35
483.309	5.38
483.511	5.43
483.712	5.49
483.914	5.51
484.115	5.56
484.317	5.47
484.519	5.43
484.72	5.38
484.922	5.34
485.123	5.3
485.325	5.28
485.526	5.2
485.728	5.25
485.929	5.19
486.131	5.2
486.332	5.13
486.534	5.26
486.735	5.22
486.936	5.21
487.138	5.33
487.339	5.41
487.541	5.45
487.742	5.53
487.943	5.4
488.144	5.45
488.346	5.45
488.547	5.44
488.748	5.44
488.95	5.44
489.151	5.45
489.352	5.43
489.553	5.33
489.755	5.21
489.956	5.21
490.157	5.17
490.358	5.05
490.559	4.94
490.76	4.89
490.961	4.78
491.163	4.89
491.364	4.94
491.565	4.91
491.766	4.94
491.967	5.07
492.168	5.07
492.369	5.13
492.57	5.17
492.771	5.22
492.972	5.24
493.173	5.3
493.374	5.2
493.575	5.08
493.776	5.02
493.976	5.03
494.177	4.93
494.378	4.89
494.579	4.9
494.78	4.88
494.981	4.94
495.182	5.14
495.382	5.31
495.583	5.33
495.784	5.5
495.985	5.55
496.185	5.48
496.386	5.44
496.587	5.58
496.788	5.54
496.988	5.57
497.189	5.45
497.39	5.4
497.59	5.34
497.791	5.48
497.992	5.59
498.192	5.59
498.393	5.6
498.593	5.59
498.794	5.61
498.994	5.47
499.195	5.5
499.395	5.49
499.596	5.42
499.796	5.45
499.997	5.28
500.197	5.39
500.398	5.37
500.598	5.41
500.799	5.47
500.999	5.3
501.199	5.42
501.4	5.41
501.6	5.37
501.801	5.34
502.001	5.23
502.201	5.09
502.402	4.87
502.602	5.02
502.802	5.23
503.002	5.28
503.203	5.19
503.403	5.15
503.603	5.14
503.803	5.27
504.003	5.21
504.204	5.25
504.404	5.51
504.604	5.56
504.804	5.49
505.004	5.48
505.204	5.37
505.404	5.36
505.604	5.41
505.804	5.23
506.005	5.08
506.205	5.2
506.405	5.14
506.605	5.2
506.805	5.22
507.005	5.27
507.204	5.2
507.404	5.12
507.604	5.46
507.804	5.48
508.004	5.6
508.204	5.7
508.404	5.71
508.604	5.64
508.804	5.62
509.003	5.49
509.203	5.45
509.403	5.34
509.603	5.5
509.803	5.46
510.002	5.47
510.202	5.42
510.402	5.49
510.602	5.46
510.801	5.71
511.001	5.68
511.201	5.88
511.4	5.99
511.6	5.94
511.8	5.75
511.999	5.59
512.199	5.43
512.398	5.54
512.598	5.54
512.797	5.56
512.997	5.23
513.197	5.23
513.396	4.96
513.596	4.88
513.795	4.9
513.994	4.95
514.194	5.08
514.393	5.2
514.593	5.13
514.792	5.26
514.992	5.33
515.191	5.5
515.39	5.25
515.59	5.49
515.789	5.56
515.988	5.83
516.188	5.98
516.387	6.02
516.586	6.15
516.786	6.29
516.985	5.99
517.184	5.97
517.383	6.02
517.582	6.27
517.782	6.28
517.981	6.28
518.18	6.29
518.379	6.13
518.578	6.13
518.777	6.03
518.976	5.83
519.176	5.95
519.375	6.02
519.574	6.04
519.773	6.01
519.972	6.03
520.171	5.99
520.37	5.86
520.569	6
520.768	5.9
520.967	5.92
521.166	6.03
521.365	6.06
521.564	6.12
521.762	6
521.961	5.96
522.16	5.95
522.359	5.98
522.558	6.01
522.757	6.11
522.956	6.2
523.154	6.17
523.353	6.12
523.552	6.08
523.751	5.93
523.949	6.23
524.148	6.34
524.347	6.34
524.546	6.42
524.744	6.34
524.943	6.23
525.142	6.17
525.34	6.36
525.539	6.51
525.737	6.65
525.936	6.68
526.135	6.57
526.333	6.6
526.532	6.63
526.73	6.52
526.929	6.58
527.127	6.67
527.326	6.76
527.524	6.76
527.723	6.82
527.921	6.79
528.12	6.83
528.318	6.87
528.516	6.81
528.715	6.89
528.913	6.98
529.112	7.11
529.31	7.17
529.508	7.17
529.707	7.15
529.905	7.05
530.103	7.07
530.301	7.07
530.5	7.17
530.698	7.23
530.896	7.15
531.094	7.18
531.293	7.09
531.491	7.02
531.689	7.08
531.887	7.15
532.085	7.34
532.283	7.44
532.481	7.64
532.68	7.46
532.878	7.66
533.076	7.74
533.274	7.62
533.472	7.64
533.67	7.72
533.868	7.71
534.066	7.68
534.264	7.61
534.462	7.45
534.66	7.34
534.858	7.46
535.056	7.34
535.253	7.32
535.451	7.38
535.649	7.36
535.847	7.36
536.045	7.32
536.243	7.32
536.441	7.48
536.638	7.64
536.836	7.75
537.034	7.78
537.232	7.85
537.43	8
537.627	8.1
537.825	8.07
538.023	8.08
538.22	8.18
538.418	8.33
538.616	8.1
538.813	8.05
539.011	8.03
539.209	8.01
539.406	8.09
539.604	8.08
539.801	8.11
539.999	8.19
540.196	8.35
540.394	8.4
540.591	8.45
540.789	8.63
540.986	8.63
541.184	8.69
541.381	8.79
541.579	8.71
541.776	8.68
541.974	8.71
542.171	8.81
542.368	8.68
542.566	8.65
542.763	8.59
542.96	8.6
543.158	8.66
543.355	8.53
543.552	8.33
543.75	8.35
543.947	8.34
544.144	8.32
544.341	8.21
544.539	8.24
544.736	8.29
544.933	8.39
545.13	8.2
545.327	8.29
545.524	8.4
545.722	8.7
545.919	8.7
546.116	8.66
546.313	8.64
546.51	8.65
546.707	8.69
546.904	8.73
547.101	8.61
547.298	8.79
547.495	8.83
547.692	8.71
547.889	8.75
548.086	8.79
548.283	8.79
548.48	8.97
548.677	9.06
548.874	9.06
549.07	9.05
549.267	9.13
549.464	9.15
549.661	9.03
549.858	9.12
550.055	8.95
550.251	8.8
550.448	9.13
550.645	8.91
550.842	9.16
551.038	9.47
551.235	9.61
551.432	9.53
551.628	9.58
551.825	9.42
552.022	9.44
552.218	9.49
552.415	9.71
552.612	9.75
552.808	9.78
553.005	9.55
553.201	9.24
553.398	8.98
553.594	9.06
553.791	8.98
553.987	9.19
554.184	9.48
554.38	9.5
554.577	9.31
554.773	9.29
554.97	9.4
555.166	9.59
555.362	9.88
555.559	10.19
555.755	10.21
555.952	10.5
556.148	10.58
556.344	10.29
556.541	10.27
556.737	10.49
556.933	10.42
557.129	10.23
557.326	10.08
557.522	10.11
557.718	10.01
557.914	10.11
558.11	9.96
558.307	9.97
558.503	10.18
558.699	10.23
558.895	10.23
559.091	10.15
559.287	10.5
559.483	10.47
559.679	10.44
559.876	10.4
560.072	10.42
560.268	10.71
560.464	10.85
560.66	10.7
560.856	10.81
561.052	10.97
561.247	11.11
561.443	11.02
561.639	11.13
561.835	11.03
562.031	11.31
562.227	11.12
562.423	10.9
562.619	10.9
562.815	11.12
563.01	11.25
563.206	11.33
563.402	11.32
563.598	11.41
563.793	11.51
563.989	11.55
564.185	11.52
564.381	11.83
564.576	11.82
564.772	11.83
564.968	12.01
565.163	12.04
565.359	12
565.555	12.08
565.75	12.33
565.946	12.47
566.141	12.7
566.337	12.73
566.532	12.9
566.728	13.14
566.923	13.19
567.119	13.33
567.314	13.48
567.51	13.51
567.705	13.73
567.901	13.66
568.096	13.68
568.292	13.66
568.487	13.8
568.682	13.73
568.878	13.57
569.073	13.74
569.268	13.51
569.464	13.48
569.659	13.7
569.854	13.58
570.05	13.57
570.245	13.71
570.44	13.79
570.635	13.75
570.831	13.63
571.026	13.94
571.221	13.87
571.416	13.83
571.611	14
571.806	13.91
572.002	13.99
572.197	13.96
572.392	14.03
572.587	14.11
572.782	14.22
572.977	14.33
573.172	14.24
573.367	14.21
573.562	14.41
573.757	14.23
573.952	14.33
574.147	14.37
574.342	14.39
574.537	14.43
574.732	14.51
574.927	14.6
575.121	14.67
575.316	14.71
575.511	14.68
575.706	14.65
575.901	14.68
576.096	14.66
576.29	14.7
576.485	14.91
576.68	14.77
576.875	14.64
577.069	14.53
577.264	14.56
577.459	14.42
577.654	14.61
577.848	14.71
578.043	14.73
578.238	14.9
578.432	14.66
578.627	14.63
578.821	14.53
579.016	14.43
579.21	14.34
579.405	14.49
579.6	14.38
579.794	14.01
579.989	13.97
580.183	13.69
580.378	13.45
580.572	13.5
580.766	13.67
580.961	13.71
581.155	13.55
581.35	13.53
581.544	13.37
581.738	13.57
581.933	13.91
582.127	14.09
582.321	14.49
582.516	14.63
582.71	14.79
582.904	14.25
583.099	14.31
583.293	14.38
583.487	14.68
583.681	14.95
583.875	15.07
584.07	15.19
584.264	15.13
584.458	15.24
584.652	15.39
584.846	15.63
585.04	15.8
585.234	15.83
585.428	15.88
585.623	15.74
585.817	15.75
586.011	15.7
586.205	15.61
586.399	15.57
586.593	15.47
586.787	15.11
586.981	14.93
587.174	15.18
587.368	14.94
587.562	15.17
587.756	14.97
587.95	14.95
588.144	15.17
588.338	15.18
588.532	15.58
588.725	15.23
588.919	15.5
589.113	15.45
589.307	15.66
589.501	15.92
589.694	15.78
589.888	16.16
590.082	15.95
590.275	15.86
590.469	16.08
590.663	15.92
590.856	16.3
591.05	16.12
591.244	15.97
591.437	16.17
591.631	16.21
591.824	16.6
592.018	16.47
592.212	16.9
592.405	16.85
592.599	16.76
592.792	16.6
592.986	16.46
593.179	16.6
593.372	16.67
593.566	16.4
593.759	16.62
593.953	16.42
594.146	16.54
594.339	16.48
594.533	16.45
594.726	16.57
594.92	16.33
595.113	16.35
595.306	16.65
595.499	16.92
595.693	17.19
595.886	17.06
596.079	17.06
596.272	17.27
596.466	17.35
596.659	17.42
596.852	17.42
597.045	17.64
597.238	17.77
597.431	17.79
597.624	17.98
597.818	17.92
598.011	18.15
598.204	18.16
598.397	18.12
598.59	17.92
598.783	18.11
598.976	18.16
599.169	18.23
599.362	18.31
599.555	17.98
599.748	17.73
599.941	17.66
600.134	17.17
600.326	17.33
600.519	17.18
600.712	17.31
600.905	17.23
601.098	17.21
601.291	17.18
601.483	16.82
601.676	16.9
601.869	16.82
602.062	16.97
602.255	17.34
602.447	17.24
602.64	17.36
602.833	17.29
603.025	17.56
603.218	17.81
603.411	17.79
603.603	18.05
603.796	18.43
603.989	18.43
604.181	18.08
604.374	18.05
604.566	18.16
604.759	18.16
604.951	18.3
605.144	18.07
605.336	17.74
605.529	17.69
605.721	17.57
605.914	17.11
606.106	17.07
606.299	17.31
606.491	17.09
606.683	17.09
606.876	17.13
607.068	17.03
607.26	17.21
607.453	17.17
607.645	17.3
607.837	17.53
608.03	17.82
608.222	17.89
608.414	17.73
608.606	17.84
608.799	17.92
608.991	17.75
609.183	17.67
609.375	17.4
609.567	17.37
609.759	17.5
609.952	17.26
610.144	17.11
610.336	17.04
610.528	17.12
610.72	17.06
610.912	16.63
611.104	16.63
611.296	16.53
611.488	16.66
611.68	16.64
611.872	16.25
612.064	16.2
612.256	16.17
612.448	16.17
612.64	15.98
612.832	16.21
613.023	16.74
613.215	16.83
613.407	17.01
613.599	16.69
613.791	16.95
613.983	17.17
614.174	17.22
614.366	17.11
614.558	17.15
614.75	17.34
614.941	17.08
615.133	16.84
615.325	16.43
615.516	16.25
615.708	16.47
615.9	16.16
616.091	16.25
616.283	16.73
616.475	16.92
616.666	16.78
616.858	16.94
617.049	17.18
617.241	17.43
617.432	17.67
617.624	18.24
617.815	18.36
618.007	18.51
618.198	18.68
618.39	18.59
618.581	18.36
618.773	18.55
618.964	18.5
619.155	18.29
619.347	17.9
619.538	17.97
619.729	17.25
619.921	17.13
620.112	16.94
620.303	16.66
620.494	16.5
620.686	17.04
620.877	16.9
621.068	16.81
621.259	16.99
621.451	17.27
621.642	17.31
621.833	17.61
622.024	17.77
622.215	18.19
622.406	18.04
622.597	18.27
622.788	17.74
622.98	18.01
623.171	17.9
623.362	17.68
623.553	17.51
623.744	17.63
623.935	17.8
624.126	17.75
624.317	17.43
624.508	17.91
624.698	17.92
624.889	18.34
625.08	18.36
625.271	18.78
625.462	19.07
625.653	19.35
625.844	19.7
626.034	19.33
626.225	19.34
626.416	19.66
626.607	19.71
626.798	19.53
626.988	19.41
627.179	19.51
627.37	19.29
627.56	19.4
627.751	19.22
627.942	18.81
628.132	18.98
628.323	19.29
628.514	19.15
628.704	18.82
628.895	19.04
629.085	19.01
629.276	18.85
629.466	18.73
629.657	18.82
629.847	18.96
630.038	18.79
630.228	18.83
630.419	18.34
630.609	18.61
630.8	18.67
630.99	18.26
631.181	18.15
631.371	18.26
631.561	18.01
631.752	17.64
631.942	17.95
632.132	18.4
632.323	18.79
632.513	18.85
632.703	18.63
632.893	18.75
633.084	18.95
633.274	18.84
633.464	18.46
633.654	18.77
633.844	18.81
634.034	18.32
634.225	18.03
634.415	17.7
634.605	17.68
634.795	17.92
634.985	17.91
635.175	18.01
635.365	18.28
635.555	18.64
635.745	18.67
635.935	18.66
636.125	18.85
636.315	19.11
636.505	19.05
636.695	19.39
636.885	18.91
637.075	18.88
637.265	18.55
637.455	18.81
637.644	18.8
637.834	18.79
638.024	18.69
638.214	18.7
638.404	18.78
638.593	18.69
638.783	18.66
638.973	18.63
639.163	18.81
639.352	19.12
639.542	18.58
639.732	18.59
639.921	18.72
640.111	18.63
640.301	18.75
640.49	18.59
640.68	18.72
640.87	18.6
641.059	18.77
641.249	18.7
641.438	18.49
641.628	18.88
641.817	18.79
642.007	18.65
642.196	19.09
642.386	19.21
642.575	19.11
642.764	19.51
642.954	19.57
643.143	19.16
643.333	19.05
643.522	19.52
643.711	19.58
643.901	19.72
644.09	19.35
644.279	19.14
644.469	18.79
644.658	18.97
644.847	18.95
645.036	19.04
645.226	19.96
645.415	19.77
645.604	19.54
645.793	19.24
645.982	19.23
646.171	19.69
646.361	20.07
646.55	20.5
646.739	20.22
646.928	20.07
647.117	20.22
647.306	19.87
647.495	20.25
647.684	20.18
647.873	20.11
648.062	20.19
648.251	20.01
648.44	19.88
648.629	19.47
648.818	19.89
649.007	19.39
649.196	18.76
649.384	18.84
649.573	18.81
649.762	18.84
649.951	18.97
650.14	19.12
650.328	19.52
650.517	19.5
650.706	19.75
650.895	19.09
651.083	19.86
651.272	20.15
651.461	19.94
651.65	20.15
651.838	20.06
652.027	19.96
652.216	20.04
652.404	20.41
652.593	20.43
652.781	19.97
652.97	20.41
653.158	20.23
653.347	20.32
653.535	20.51
653.724	20.42
653.912	20.58
654.101	20.85
654.289	20.09
654.478	19.68
654.666	19.82
654.855	20.08
655.043	19.97
655.231	20.32
655.42	20.5
655.608	20.59
655.796	20.29
655.985	19.79
656.173	19.71
656.361	20.66
656.55	20.47
656.738	20.14
656.926	20.11
657.114	20.59
657.302	20.52
657.491	20.29
657.679	20.17
657.867	19.85
658.055	20.62
658.243	21.07
658.431	20.8
658.619	21.08
658.807	21.27
658.996	21.65
659.184	21.21
659.372	20.79
659.56	20.95
659.748	21.14
659.936	21.56
660.124	21.51
660.311	21.36
660.499	21.17
660.687	21.12
660.875	20.99
661.063	20.59
661.251	21.03
661.439	21.22
661.627	21.21
661.814	21
662.002	20.98
662.19	20.97
662.378	20.79
662.565	20.77
662.753	20.37
662.941	20.6
663.129	20.54
663.316	20.43
663.504	20.36
663.692	20.11
663.879	19.95
664.067	19.78
664.254	19.86
664.442	20.21
664.63	20.35
664.817	20.6
665.005	20.39
665.192	20.14
665.38	19.89
665.567	19.82
665.755	19.62
665.942	19.65
666.13	19.38
666.317	19.19
666.504	19.14
666.692	19.08
666.879	19.18
667.067	19.27
667.254	19.55
667.441	19.1
667.629	19.27
667.816	19.69
668.003	19.4
668.19	20
668.378	19.76
668.565	18.96
668.752	19.07
668.939	19.24
669.127	19.22
669.314	19.81
669.501	20.34
669.688	20.42
669.875	20.66
670.062	21.34
670.249	21.05
670.436	21.17
670.623	21.61
670.81	21.92
670.997	21.75
671.184	22.05
671.371	21.73
671.558	21.95
671.745	21.88
671.932	21.88
672.119	21.71
672.306	22.35
672.493	21.99
672.68	21.64
672.867	21.67
673.054	21.21
673.24	20.94
673.427	21.17
673.614	20.58
673.801	20.6
673.988	20.01
674.174	19.53
674.361	19.02
674.548	20.04
674.734	20.81
674.921	20.78
675.108	21.12
675.294	20.43
675.481	19.88
675.668	20.23
675.854	19.97
676.041	20.31
676.227	21.6
676.414	21.32
676.601	20.66
676.787	20.41
676.974	20.14
677.16	20.26
677.347	20.98
677.533	21.16
677.719	21.16
677.906	21.22
678.092	20.94
678.279	20.34
678.465	20.26
678.651	20.88
678.838	21.27
679.024	21.65
679.21	21.62
679.397	21.66
679.583	21.92
679.769	21.77
679.955	21.83
680.142	22.1
680.328	22.49
680.514	22.96
680.7	22.77
680.886	22.53
681.073	22.13
681.259	22.5
681.445	22.11
681.631	21.83
681.817	21.97
682.003	21.55
682.189	21.76
682.375	21.49
682.561	21.53
682.747	21.61
682.933	21.57
683.119	21.76
683.305	21.52
683.491	22.17
683.677	22.45
683.863	22.45
684.049	22.99
684.235	22.89
684.42	22.52
684.606	22.29
684.792	22.25
684.978	22.96
685.164	22.91
685.349	22.81
685.535	22.31
685.721	22.14
685.907	22.07
686.092	22.3
686.278	22.21
686.464	22.16
686.649	22.46
686.835	21.66
687.021	21.49
687.206	21.58
687.392	21.33
687.577	21.99
687.763	21.92
687.948	21.83
688.134	21.43
688.319	21.43
688.505	21.46
688.69	21.39
688.876	21.93
689.061	21.58
689.247	21.25
689.432	21.1
689.618	20.76
689.803	21.9
689.988	22.36
690.174	22.48
690.359	22.2
690.544	22.7
690.73	22.79
690.915	22.46
691.1	21.99
691.285	22.83
691.471	23.78
691.656	23.73
691.841	22.67
692.026	22.77
692.211	22.6
692.396	22.72
692.582	22.79
692.767	22.64
692.952	22.85
693.137	23.47
693.322	22.98
693.507	22.6
693.692	23.02
693.877	23.1
694.062	23.72
694.247	24.42
694.432	24.66
694.617	24.47
694.802	24.28
694.987	24.45
695.172	24.41
695.357	25.09
695.541	24.91
695.726	25.12
695.911	25.21
696.096	24.35
696.281	24.33
696.466	24.14
696.65	23.49
696.835	23.66
697.02	23.15
697.204	23.58
697.389	23.54
697.574	23.98
697.759	23.13
697.943	23.13
698.128	23.07
698.312	23.33
698.497	23.7
698.682	24.34
698.866	24.72
699.051	24.98
699.235	24.47
699.42	24.03
699.604	23.94
699.789	24.13
699.973	24.16
700.158	24.44
700.342	24.25
700.527	24.43
700.711	24.39
700.895	23.86
701.08	24.62
701.264	24.91
701.448	25.02
701.633	25.05
701.817	25.34
702.001	25.29
702.186	25.26
702.37	24.64
702.554	24.33
702.738	24.6
702.923	23.96
703.107	23.6
703.291	23.7
703.475	23.67
703.659	22.88
703.843	23.26
704.027	22.91
704.212	22.34
704.396	23.05
704.58	23.25
704.764	22.62
704.948	23.66
705.132	23.92
705.316	24.32
705.5	23.7
705.684	23.97
705.868	23.87
706.052	24.27
706.235	25.21
706.419	25.43
706.603	25.07
706.787	25.11
706.971	24.74
707.155	24.35
707.339	23.98
707.522	25.1
707.706	25.05
707.89	24.41
708.074	23.9
708.257	23.64
708.441	23.44
708.625	23.29
708.808	22.62
708.992	22.76
709.176	22.93
709.359	23.05
709.543	22.83
709.727	23.7
709.91	24.03
710.094	25.13
710.277	25.66
710.461	24.71
710.644	25.08
710.828	25.87
711.011	25.59
711.195	25.42
711.378	25.2
711.562	25.2
711.745	24.87
711.928	25.45
712.112	24.71
712.295	24.04
712.478	25.32
712.662	25.66
712.845	25.46
713.028	26.27
713.212	26.25
713.395	26.87
713.578	25.91
713.761	26.03
713.945	25.49
714.128	25.93
714.311	25.71
714.494	24.42
714.677	24.48
714.86	24.84
715.043	24.9
715.227	24.75
715.41	24.55
715.593	25.55
715.776	24.95
715.959	25.51
716.142	25.48
716.325	26.36
716.508	26.89
716.691	26.3
716.874	26.55
717.057	26.31
717.239	27.26
717.422	26.36
717.605	26.41
717.788	26.9
717.971	26.47
718.154	26.72
718.337	26.2
718.519	26.69
718.702	26.22
718.885	25.95
719.068	26.56
719.25	25.06
719.433	25.06
719.616	24.82
719.798	24.51
719.981	24.25
720.164	23.48
720.346	23.28
720.529	24.52
720.712	24.97
720.894	25.85
721.077	23.96
721.259	24.91
721.442	25.13
721.624	25.3
721.807	26.04
721.989	25.29
722.172	25.85
722.354	25.92
722.537	24.62
722.719	25.32
722.901	24.39
723.084	25.77
723.266	25.55
723.448	25.25
723.631	26.09
723.813	25.45
723.995	27.88
724.178	27.55
724.36	28.23
724.542	29.07
724.724	29.03
724.907	28.76
725.089	29.3
725.271	29.64
725.453	29.65
725.635	28.35
725.817	28.96
725.999	27.09
726.181	28.09
726.364	27.04
726.546	26.86
726.728	26.17
726.91	26.32
727.092	25.61
727.274	25.69
727.456	26.59
727.638	27.62
727.819	27.46
728.001	27.76
728.183	27.34
728.365	28.03
728.547	27.26
728.729	28.18
728.911	29.04
729.093	28.97
729.274	29.48
729.456	29.85
729.638	29.31
729.82	28.9
730.001	28.63
730.183	28.34
730.365	26.78
730.546	26.67
730.728	26.87
730.91	26.39
731.091	27.28
731.273	26.42
731.455	26.36
731.636	25.32
731.818	25.58
731.999	26.61
732.181	25.94
732.362	27.59
732.544	28.13
732.725	27.23
732.907	27.13
733.088	26.61
733.27	27.26
733.451	27.56
733.633	29.08
733.814	29.42
733.995	28.87
734.177	30.45
734.358	31.01
734.539	31.32
734.721	30.01
734.902	29.54
735.083	29.33
735.264	29.61
735.446	28.18
735.627	26.32
735.808	25.27
735.989	24.33
736.17	22.27
736.351	21.63
736.533	21.37
736.714	22.24
736.895	22.37
737.076	21.76
737.257	20.59
737.438	22.53
737.619	25.01
737.8	26.24
737.981	27.21
738.162	28.11
738.343	27.2
738.524	27.04
738.705	27.34
738.886	28.19
739.067	29.12
739.247	29.22
739.428	28.03
739.609	26.23
739.79	26.1
739.971	26.57
740.151	26.68
740.332	27.6
740.513	27.48
740.694	29.02
740.874	27.45
741.055	25.94
741.236	25.85
741.417	26.8
741.597	27.11
741.778	27.25
741.958	27.33
742.139	27.44
742.32	28.28
742.5	28.61
742.681	27.22
742.861	28.31
743.042	28.68
743.222	29.65
743.403	28.38
743.583	28.46
743.764	27.51
743.944	27.6
744.124	26.58
744.305	24.84
744.485	25.02
744.666	24.97
744.846	24.09
745.026	26.73
745.207	24.81
745.387	24.27
745.567	23.99
745.747	24.36
745.928	23.8
746.108	25.56
746.288	26.42
746.468	26.43
746.648	26.55
746.829	27.12
747.009	25.19
747.189	26.19
747.369	25.88
747.549	25.83
747.729	26.88
747.909	27.35
748.089	25.36
748.269	24.35
748.449	23.85
748.629	23.13
748.809	23.81
748.989	23.72
749.169	23.6
749.349	26.38
749.529	26.14
749.709	26.1
749.889	25.06
750.068	25.9
750.248	27.27
750.428	26.99
750.608	27.9
750.788	26.46
750.967	25.73
751.147	24.87
751.327	22.98
751.507	23.67
751.686	22.18
751.866	23.37
752.046	23.59
752.225	21.79
752.405	22.96
752.585	23.4
752.764	24.39
752.944	24.77
753.123	26.87
753.303	28.22
753.482	28.18
753.662	29.46
753.841	27.91
754.021	27.77
754.2	29.52
754.38	29.51
754.559	30.1
754.739	30.09
754.918	29.92
755.097	28.97
755.277	28.54
755.456	29.18
755.635	28.72
755.815	29.54
755.994	29.34
756.173	29.96
756.352	28.44
756.532	26.6
756.711	26.15
756.89	26.09
757.069	24.76
757.248	23.43
757.427	22.69
757.607	23.84
757.786	23.92
757.965	25.39
758.144	24.17
758.323	25
758.502	26.24
758.681	26.6
758.86	27.16
759.039	29.46
759.218	30.65
759.397	31.23
759.576	31.44
759.755	31.2
759.934	30.48
760.113	30.71
760.291	31.82
760.47	31.96
760.649	32.07
760.828	32.04
761.007	31.94
761.186	32.03
761.364	32.36
761.543	30.54
761.722	31.35
761.901	32.01
762.079	32.33
762.258	30.87
762.437	29.63
762.615	30.11
762.794	29.1
762.972	29.22
763.151	29.69
763.33	29.6
763.508	29.87
763.687	29.85
763.865	29.77
764.044	30.26
764.222	30.61
764.401	32.19
764.579	31.93
764.758	33.03
764.936	32.41
765.114	31.85
765.293	31.67
765.471	32.79
765.65	32.78
765.828	32.96
766.006	32.96
766.184	34.49
766.363	32.49
766.541	33.07
766.719	33.71
766.898	32.68
767.076	32.46
767.254	33.47
767.432	31.39
767.61	30.03
767.788	28.68
767.967	27.05
768.145	26.21
768.323	27.8
768.501	26.17
768.679	26.03
768.857	28.33
769.035	28.6
769.213	26.1
769.391	25.66
769.569	27.78
769.747	27.9
769.925	29.14
770.103	27.99
770.281	28.01
770.459	28.58
770.636	28.68
770.814	27.64
770.992	25.45
771.17	27.72
771.348	28.56
771.525	28.1
771.703	25.81
771.881	23.37
772.059	24.47
772.236	23.99
772.414	25.17
772.592	24.71
772.769	27.22
772.947	26.8
773.125	22.52
773.302	21.41
773.48	18.62
773.657	22.33
773.835	24.95
774.013	24.95
774.19	23.95
774.368	23.12
774.545	23.64
774.723	20.01
774.9	22.54
775.077	24.65
775.255	25.55
775.432	26.42
775.61	23.96
775.787	23
775.964	23.15
776.142	22.95
776.319	22.4
776.496	22
776.674	24.81
776.851	26.31
777.028	26.72
777.205	29.21
777.382	31.67
777.56	36.22
777.737	35.13
777.914	34.88
778.091	34.68
778.268	37.22
778.445	39.5
778.622	36.62
778.8	36.82
778.977	39.96
779.154	38.38
779.331	36
779.508	32.55
779.685	33.55
779.862	32.64
780.038	34.03
780.215	31.22
780.392	27.54
780.569	26.72
780.746	26.09
780.923	24.81
781.1	24.49
781.277	24.88
781.453	26.73
781.63	28.08
781.807	31.18
781.984	32.76
782.16	33.49
782.337	36.32
782.514	41.68
782.691	41.56
782.867	40.93
783.044	42.53
783.221	48
783.397	48.51
783.574	46.71
783.75	42.31
783.927	41.25
784.103	39.92
784.28	39.23
784.456	34.2
784.633	32.93
784.809	35.6
784.986	35.14
785.162	31.46
785.339	32
785.515	29.8
785.692	31.02
785.868	32.9
786.044	33.71
786.221	33.5
786.397	37.43
786.573	35.21
786.749	35.54
786.926	36.54
787.102	36.64
787.278	38.96
787.454	41.72
787.631	43.06
787.807	39.44
787.983	39.42
788.159	38.17
788.335	33.93
788.511	39.02
788.687	34.9
788.863	34.97
789.039	37.51
789.216	35.03
789.392	37.51
789.568	36.1
789.744	38.11
789.919	40.3
790.095	40.14
790.271	42.46
790.447	40.7
790.623	42.08
790.799	41.85
790.975	40.82
791.151	39.83
791.327	36.26
791.502	33.56
791.678	33.5
791.854	29.64
792.03	30.76
792.205	29.47
792.381	29.57
792.557	29.97
792.733	26.27
792.908	25.84
793.084	26.97
793.259	28.6
793.435	30.93
793.611	29.47
793.786	33.65
793.962	34.47
794.137	32.75
794.313	32.41
794.488	30.62
794.664	33.49
794.839	31.74
795.015	31.27
795.19	28.49
795.366	28.47
795.541	28.84
795.716	28.52
795.892	26.87
796.067	30.92
796.242	34.69
796.418	37.52
796.593	40.94
796.768	39.15
796.944	37.21
797.119	39.79
797.294	40.6
797.469	37.1
797.644	36.31
797.82	35.91
797.995	33.29
798.17	24.96
798.345	24.5
798.52	18.99
798.695	19.61
798.87	22.94
799.045	19.34
799.22	19.91
799.395	24.06
799.57	27.93
799.745	32.56
799.92	30.92
800.095	40.38
800.27	37.44
800.445	40.36
800.62	39.1
800.795	37.11
800.97	39.46
801.145	36.75
801.319	34.91
801.494	30.8
801.669	29.28
801.844	30.55
802.018	29.61
802.193	26.42
802.368	25.61
802.543	25.82
802.717	30.11
802.892	31.36
803.067	33.95
803.241	36.36
803.416	33.25
803.59	35.38
803.765	36.61
803.94	34.89
804.114	36.07
804.289	40.18
804.463	42.45
804.638	40.3
804.812	39.03
804.986	39.25
805.161	39.9
805.335	42.66
805.51	40.07
805.684	43.42
805.858	45.89
806.033	47.46
806.207	44.96
806.381	44.34
806.556	43.25
806.73	45.36
806.904	47.14
807.078	44.48
807.253	43.86
807.427	47.89
807.601	41.54
807.775	41.61
807.949	39.94
808.123	35.06
808.298	35.02
808.472	35.19
808.646	37.73
808.82	38.2
808.994	43.17
809.168	41.5
809.342	38.7
809.516	40.3
809.69	37.19
809.864	41.93
810.038	42.65
810.212	47.24
810.385	45.7
810.559	38.47
810.733	33.6
810.907	27.68
811.081	28.03
811.255	25.21
811.428	29.48
811.602	29.41
811.776	29.52
811.95	31.47
812.123	27.27
812.297	28.44
812.471	28.87
812.644	33.65
812.818	40.91
812.992	51.6
813.165	57.84
813.339	53.93
813.512	54.9
813.686	55.42
813.86	54.59
814.033	56.52
814.207	63.52
814.38	69.4
814.554	67.11
814.727	64.66
814.9	61.17
815.074	62.39
815.247	59.32
815.421	56.09
815.594	51.75
815.767	54.19
815.941	52.49
816.114	51.95
816.287	53.01
816.46	55.58
816.634	51.37
816.807	52.08
816.98	46.86
817.153	59.1
817.327	58.21
817.5	63.32
817.673	67.06
817.846	69.35
818.019	68.92
818.192	65.97
818.365	63.76
818.538	63.77
818.711	58.72
818.884	59.43
819.057	55.39
819.23	59.14
819.403	57.47
819.576	55.74
819.749	53.26
819.922	48.13
820.095	47.53
820.268	44.85
820.441	39.75
820.614	40.29
820.786	40.82
820.959	36.06
821.132	33.48
821.305	33.56
821.477	32.98
821.65	34.79
821.823	36.1
821.996	36.39
822.168	36.64
822.341	37.95
822.514	37.31
822.686	36.79
822.859	37.68
823.031	38.34
823.204	37.13
823.376	36.97
823.549	35.5
823.722	34.83
823.894	33.47
824.067	34.35
824.239	35.35
824.411	35.17
824.584	34.77
824.756	34.19
824.929	33.94
825.101	34.71
825.273	32.84
825.446	34.73
825.618	36.18
825.79	39.79
825.963	40.67
826.135	39.04
826.307	40.62
826.479	40.8
826.652	42.27
826.824	43.76
826.996	44.39
827.168	45.96
827.34	43.93
827.512	43.97
827.684	40.97
827.856	38.72
828.029	39.49
828.201	38.37
828.373	39.3
828.545	37.33
828.717	36.69
828.889	34.55
829.061	32.58
829.232	33.76
829.404	32.15
829.576	33.93
829.748	36.76
829.92	40.62
830.092	42.71
830.264	40.68
830.436	40.89
830.607	39.66
830.779	42.3
830.951	46.44
831.123	47.63
831.294	49.22
831.466	45.02
831.638	45.18
831.809	39.16
831.981	38.98
832.153	40.12
832.324	41.71
832.496	41.24
832.667	40.16
832.839	39.27
833.011	38.43
833.182	38.36
833.354	42.03
833.525	41.8
833.697	40.38
833.868	39.97
834.039	42.31
834.211	38.26
834.382	40.2
834.554	41.52
834.725	38.81
834.896	37.73
835.068	36.3
835.239	35.18
835.41	35.64
835.581	36.06
835.753	36.43
835.924	35.47
836.095	40.18
836.266	34.51
836.438	36.47
836.609	38.67
836.78	38.07
836.951	37.96
837.122	43.76
837.293	40.08
837.464	40.29
837.635	40.68
837.806	39.96
837.977	37.9
838.148	39.77
838.319	38.96
838.49	35.64
838.661	36.45
838.832	42.56
839.003	35.05
839.174	40.38
839.345	41.24
839.516	43.61
839.687	38.77
839.857	43.94
840.028	43.13
840.199	36.67
840.37	39.87
840.54	35.55
840.711	31.33
840.882	31.5
841.053	31.48
841.223	35.89
841.394	29.87
841.564	40.09
841.735	44.62
841.906	56.88
842.076	59.01
842.247	69.26
842.417	66.82
842.588	76.58
842.758	93.69
842.929	80.64
843.099	85.02
843.27	95.37
843.44	88.56
843.611	79.21
843.781	76.54
843.951	69.26
844.122	62.41
844.292	78.39
844.462	76.08
844.633	49.67
844.803	57.96
844.973	75.17
845.144	72.09
845.314	57.24
845.484	63.54
845.654	59.87
845.824	56.57
845.995	43.81
846.165	49.71
846.335	45.6
846.505	54.79
846.675	44.69
846.845	36.97
847.015	39.02
847.185	36.36
847.355	47.77
847.525	52.11
847.695	58.16
847.865	81.33
848.035	76.36
848.205	90.37
848.375	74.59
848.545	82.91
848.715	74.24
848.884	78.47
849.054	68.08
849.224	71.51
849.394	87.56
849.564	59.03
849.733	38.77
849.903	58.86
850.073	40.8
850.243	78.12
850.412	69.7
850.582	55.62
850.752	63.98
850.921	83.89
851.091	61.37
851.26	70.11
851.43	101.77
851.599	103.1
851.769	81.4
851.939	91.13
852.108	77.87
852.278	79.09
852.447	102.39
852.616	93.32
852.786	93.87
852.955	112.92
853.125	77.82
853.294	38.64
853.463	15
853.633	21.12
853.802	27.31
853.971	38.06
854.141	40.56
854.31	41.05
854.479	24.41
854.648	31.05
854.818	34.81
854.987	44.85
855.156	59.97
855.325	72.36
855.494	77.4
855.663	72.34
855.832	64.34
856.001	85.99
856.171	83.5
856.34	80.05
856.509	72.34
856.678	58.38
856.847	43.97
857.016	49
857.185	60.25
857.353	68.3
857.522	77.34
857.691	86.21
857.86	61.41
858.029	67.3
858.198	60.14
858.367	64.67
858.535	58.76
858.704	70.37
858.873	80.43
859.042	67.67
859.21	45.25
859.379	39.7
859.548	35.14
859.717	36.93
859.885	42.15
860.054	52.44
860.222	52.83
860.391	58.11
860.56	78.41
860.728	53.88
860.897	51.05
861.065	83.59
861.234	82.95
861.402	94.8
861.571	104.93
861.739	74.31
861.908	87.53
862.076	125.35
862.244	110.45
862.413	93.92
862.581	115.83
862.749	118.88
862.918	131.44
863.086	159.81
863.254	196.65
863.423	291.5
863.591	355.96
863.759	163.3
863.927	97.74
864.096	97.8
864.264	96.43
864.432	107.45
864.6	130.02
864.768	118.42
864.936	105.5
865.104	151.62
865.272	174.14
865.44	318.36
865.608	573.47
865.776	958.54
865.944	545.86
866.112	8441.46
866.28	588.98
866.448	3018.97
866.616	304.74
866.784	616.4
866.952	357.45
867.12	139.2
867.288	109
867.455	103.59
867.623	112.56
867.791	117.24
867.959	79.22
868.127	66.71
868.294	43.91
868.462	53.25
868.63	50.79
868.797	54.82
868.965	83.17
869.133	117.67
869.3	156.91
869.468	126.66
869.636	138.91
869.803	162.91
869.971	142.86
870.138	157.02
870.306	160.18
870.473	173.08
870.641	169.87
870.808	145.41
870.975	103.9
871.143	77.65
871.31	64.84
871.478	64.4
871.645	65.04
871.812	74.7
871.98	62.88
872.147	77.08
872.314	83.32
872.482	67.66
872.649	75.67
872.816	80.74
872.983	85.91
873.15	92.22
873.318	105.12
873.485	93.11
873.652	82.99
873.819	87.42
873.986	87.97
874.153	62.21
874.32	63.56
874.487	31.92
874.654	27.41
874.821	40.17
874.988	22.65
875.155	-9.59
875.322	-12.88
875.489	115.73
875.656	138.48
875.823	-69.91
875.99	117.43
876.157	73.18
876.324	-91.88
876.49	199.62
876.657	61.56
876.824	63.33
876.991	80.45
877.157	59.6
877.324	69.54
877.491	47.88
877.658	72.28
877.824	61.29
877.991	84.71
878.157	68.95
878.324	82.63
878.491	103.88
878.657	113.44
878.824	105.9
878.99	57.98
879.157	69.02
879.323	69.42
879.49	48.4
879.656	35.7
879.823	25.96
879.989	20.47
880.156	19.2
880.322	14.92
880.488	5.29
880.655	12.83
880.821	12.06
880.987	1.65
881.154	7.49
881.32	-0.63
881.486	15.35
881.652	29.79
881.819	36.78
881.985	46.38
882.151	44.99
882.317	45.39
882.483	47.71
882.649	55.24
882.816	52.71
882.982	50.14
883.148	56.58
883.314	55.87
883.48	50.41
883.646	50.26
883.812	47.72
883.978	50.43
884.144	51.84
884.31	52.68
884.476	50.79
884.642	51.05
884.807	50.85
884.973	48.05
885.139	50.25
885.305	54.46
885.471	56.68
885.637	55.99
885.802	57.6
885.968	57.98
886.134	62.66
886.3	68.57
886.465	75.55
886.631	79.91
886.797	85.78
886.962	90.95
887.128	85.39
887.293	95.17
887.459	110.3
887.625	138.3
887.79	136.8
887.956	116.88
888.121	115.37
888.287	136.84
888.452	172.17
888.618	156.64
888.783	140.85
