Data from 2937825_Reflection_2.txt Node
Date: Wed Jul 15 17:04:41 EDT 2015
User: robert
Spectrometer: USB4E03001
Autoset integration time: false
Trigger mode: 4
Integration Time (sec): 1.000000E-1
Scans to average: 10
Electric dark correction enabled: true
Nonlinearity correction enabled: false
Boxcar width: 5
Stray light correction enabled: false
XAxis mode: Wavelengths
Stop averaging: false
Number of Pixels in Spectrum: 3648
>>>>>Begin Spectral Data<<<<<
177.566	26.87
177.785	-1.53
178.005	-14.46
178.225	-1.34
178.445	9.96
178.665	24.11
178.885	-62.83
179.105	43.63
179.324	63.31
179.544	56.37
179.764	45.18
179.984	22.07
180.204	-5.45
180.423	-3.49
180.643	27.04
180.863	36.77
181.083	58.84
181.302	57.11
181.522	58.6
181.742	23.69
181.961	26.58
182.181	82.54
182.401	88.65
182.621	106.99
182.84	77.94
183.06	69.64
183.279	103.21
183.499	100.29
183.719	110.69
183.938	146.22
184.158	194.59
184.377	238.51
184.597	197.92
184.816	269.65
185.036	267.32
185.256	1040.82
185.475	512.18
185.695	247.7
185.914	451.37
186.134	363.34
186.353	240.46
186.572	191.12
186.792	186.1
187.011	117.17
187.231	92.81
187.45	91.38
187.67	70.09
187.889	86.4
188.108	107.51
188.328	84.11
188.547	110.59
188.766	96.49
188.986	92.66
189.205	97.4
189.424	138.43
189.644	96.77
189.863	103.8
190.082	203.49
190.302	171.89
190.521	104.54
190.74	119.15
190.959	93.2
191.178	76.4
191.398	53.23
191.617	16.4
191.836	10.89
192.055	44.44
192.274	27.67
192.494	31.33
192.713	24.37
192.932	21.1
193.151	13.77
193.37	1.81
193.589	-3.91
193.808	23.23
194.027	53.51
194.246	31.69
194.465	27.24
194.685	30.14
194.904	9.81
195.123	32.15
195.342	71.85
195.561	101.27
195.78	385.45
195.999	155.46
196.218	232.14
196.436	570.23
196.655	-642.82
196.874	-3559.69
197.093	-796.85
197.312	-560.25
197.531	507.8
197.75	492.44
197.969	255.36
198.188	212.82
198.407	161.51
198.625	129.76
198.844	121.41
199.063	113.72
199.282	95.97
199.501	89.03
199.719	82.24
199.938	96.07
200.157	75.33
200.376	56.07
200.594	51.6
200.813	78.41
201.032	85.96
201.251	89.21
201.469	66.78
201.688	104.37
201.907	72.56
202.125	95.83
202.344	83.4
202.563	92.97
202.781	150.77
203	137.8
203.218	103.72
203.437	74.55
203.656	100.69
203.874	122.4
204.093	102.26
204.311	93.72
204.53	72.45
204.748	52.29
204.967	71.02
205.185	108.23
205.404	566.22
205.622	-2026.47
205.841	10551.16
206.059	-296.93
206.278	514.85
206.496	9.18
206.715	-2.14
206.933	-35.32
207.151	-180.42
207.37	-8.07
207.588	81.9
207.806	16.93
208.025	-40.97
208.243	0.33
208.461	24.29
208.68	56.06
208.898	76.11
209.116	68.42
209.335	51.17
209.553	69.85
209.771	73.45
209.989	57.82
210.208	60.14
210.426	65.86
210.644	52.57
210.862	69.98
211.081	69.73
211.299	61.38
211.517	54.65
211.735	61.42
211.953	57
212.171	50.97
212.39	90.33
212.608	109.3
212.826	96.3
213.044	99.77
213.262	116.39
213.48	69.43
213.698	-138.58
213.916	74.41
214.134	96.78
214.352	-41.62
214.57	313.53
214.788	67.01
215.006	75.24
215.224	41.78
215.442	84.39
215.66	100.26
215.878	123.13
216.096	130.97
216.314	140.48
216.532	121.79
216.75	62.28
216.968	59.25
217.185	57.28
217.403	28.85
217.621	24.46
217.839	41.86
218.057	10.78
218.275	22.13
218.492	14.28
218.71	13.76
218.928	12.83
219.146	29.01
219.363	43.11
219.581	35.29
219.799	42.56
220.017	69.59
220.234	69.71
220.452	188.09
220.67	-374.13
220.887	-83.3
221.105	-28.24
221.323	-143.23
221.54	-44.72
221.758	-66.1
221.976	-201.47
222.193	-759.89
222.411	467.54
222.629	451.97
222.846	1504.72
223.064	996.56
223.281	547.52
223.499	530.97
223.716	-177.27
223.934	999.68
224.151	-227.98
224.369	-15.81
224.586	-11.02
224.804	-7.61
225.021	-41.99
225.239	-51.6
225.456	-193.15
225.674	-160.19
225.891	-125.57
226.108	3470.75
226.326	-6612.23
226.543	10019.51
226.76	-974.68
226.978	-1928.03
227.195	-405.64
227.413	-306.12
227.63	-199.11
227.847	-82.19
228.064	-34.07
228.282	-21.41
228.499	2.07
228.716	9.37
228.934	5.88
229.151	11.38
229.368	10.69
229.585	11.6
229.802	18.05
230.02	18.65
230.237	17.41
230.454	13.43
230.671	11.14
230.888	7.23
231.105	3.43
231.323	6.51
231.54	1.16
231.757	8.18
231.974	7.11
232.191	-1.2
232.408	-6.06
232.625	-8.55
232.842	-16.43
233.059	-13.58
233.276	-12.54
233.493	-6.82
233.71	-9.54
233.927	-10.42
234.144	-5.75
234.361	-5.8
234.578	3.31
234.795	11.62
235.012	9.74
235.229	11.77
235.446	1.42
235.663	-6.75
235.879	-19.19
236.096	-26.45
236.313	-20.69
236.53	-42.07
236.747	-42.08
236.964	-54.98
237.181	-64.16
237.397	-56.92
237.614	-52.43
237.831	-49.69
238.048	-45.25
238.264	-41.04
238.481	-21.98
238.698	-20.22
238.915	-7.07
239.131	-14.28
239.348	-8.45
239.565	-8.85
239.781	-0.09
239.998	-0.95
240.215	10.78
240.431	10.92
240.648	18.21
240.865	14.01
241.081	17.23
241.298	16.73
241.514	18.6
241.731	16.34
241.947	16.95
242.164	15.59
242.38	14.66
242.597	12.73
242.814	14.23
243.03	14.01
243.246	15.38
243.463	13.71
243.679	10.65
243.896	9.19
244.112	9.44
244.329	7.54
244.545	5.11
244.762	5.3
244.978	5.44
245.194	4.36
245.411	6.07
245.627	5.58
245.843	4.65
246.06	7.4
246.276	11.28
246.492	11.5
246.709	12.5
246.925	13.49
247.141	12.55
247.357	10.77
247.574	10.14
247.79	8.33
248.006	7.71
248.222	6.9
248.439	6.47
248.655	4.31
248.871	5.43
249.087	3.53
249.303	1.01
249.519	1.02
249.736	2.39
249.952	-0.25
250.168	0.51
250.384	0.4
250.6	4.78
250.816	4.92
251.032	7.1
251.248	3.06
251.464	3.81
251.68	6
251.896	4.41
252.112	0.02
252.328	3.22
252.544	2.52
252.76	2.35
252.976	0.07
253.192	0.48
253.408	-1.98
253.624	-0.52
253.84	-1.01
254.056	-1.12
254.272	1.23
254.487	3.07
254.703	1.83
254.919	1.77
255.135	2.25
255.351	3.85
255.567	-2.72
255.782	-1.21
255.998	-5.56
256.214	0.63
256.43	3.87
256.646	5.64
256.861	6.58
257.077	5.47
257.293	10.72
257.508	9.32
257.724	10.04
257.94	10.81
258.155	9.6
258.371	9.63
258.587	9.6
258.802	9.13
259.018	9.9
259.234	10.45
259.449	12.53
259.665	11.05
259.88	11.39
260.096	11.2
260.312	12.06
260.527	11.71
260.743	12.09
260.958	10.51
261.174	9.87
261.389	8.37
261.605	7.99
261.82	6.73
262.036	4.76
262.251	4.18
262.466	4.46
262.682	4.19
262.897	4.76
263.113	2.34
263.328	4.81
263.543	6.27
263.759	7.63
263.974	6.96
264.189	7.28
264.405	8.7
264.62	10.41
264.835	6.97
265.051	6.9
265.266	8.61
265.481	10.94
265.696	7.85
265.912	7.74
266.127	10.73
266.342	11.83
266.557	10.95
266.773	9.64
266.988	6.43
267.203	6.22
267.418	6.53
267.633	5.88
267.848	6.57
268.064	6.91
268.279	7.21
268.494	3.02
268.709	2.74
268.924	3.77
269.139	3.95
269.354	5.81
269.569	5.53
269.784	2.36
269.999	2.19
270.214	1.12
270.429	0.41
270.644	-1
270.859	1.26
271.074	0.91
271.289	0.12
271.504	1.41
271.719	1.31
271.934	2.49
272.149	3.02
272.363	2.79
272.578	3.55
272.793	4.74
273.008	5.05
273.223	4.45
273.438	4.35
273.653	2.89
273.867	2.15
274.082	2.26
274.297	3.06
274.512	1.81
274.726	1.48
274.941	-0.09
275.156	0.32
275.371	-1.62
275.585	-0.3
275.8	0.62
276.015	1.83
276.229	3.01
276.444	1.72
276.659	1.7
276.873	5.11
277.088	4.87
277.302	5.96
277.517	6.08
277.732	8.57
277.946	6.93
278.161	6.21
278.375	6.26
278.59	4.05
278.804	4.33
279.019	2.56
279.233	1.52
279.448	3.52
279.662	2.84
279.877	2.21
280.091	-0.72
280.306	-0.13
280.52	-2.04
280.735	-1.01
280.949	0.93
281.163	3.56
281.378	3.5
281.592	2.37
281.806	2.04
282.021	3.18
282.235	3.4
282.449	4.4
282.664	3.64
282.878	4.78
283.092	4.72
283.307	3.22
283.521	4.12
283.735	5.26
283.949	4.98
284.164	4.98
284.378	5.26
284.592	5.63
284.806	5.48
285.02	6.96
285.234	7.75
285.449	8.52
285.663	9.82
285.877	9.41
286.091	9.8
286.305	11.75
286.519	11.95
286.733	10.83
286.947	10.75
287.161	12.3
287.375	12.1
287.589	12.36
287.803	10.39
288.017	11.16
288.231	7.53
288.445	7.22
288.659	4.73
288.873	3.51
289.087	5.68
289.301	5.72
289.515	6.27
289.729	3.96
289.943	4.82
290.157	5.92
290.371	5.76
290.584	6.99
290.798	7.39
291.012	8.62
291.226	9.23
291.44	8.23
291.654	9.19
291.867	7.37
292.081	8.15
292.295	8.02
292.509	6.86
292.722	5.68
292.936	5.7
293.15	4.73
293.364	2.34
293.577	2.96
293.791	0.65
294.005	-0.31
294.218	2.11
294.432	3.08
294.645	-0.26
294.859	-0.09
295.073	0.05
295.286	0.16
295.5	0.37
295.713	3.64
295.927	3.72
296.14	5.43
296.354	4.41
296.568	3.93
296.781	5.91
296.994	7.98
297.208	9.82
297.421	8.98
297.635	9.62
297.848	9.36
298.062	8.54
298.275	7.59
298.489	8.96
298.702	10.09
298.915	10.55
299.129	9.98
299.342	10.32
299.555	9.08
299.769	10.1
299.982	10.28
300.195	11.26
300.409	11.05
300.622	12.96
300.835	11.76
301.048	12.96
301.262	11.95
301.475	10.9
301.688	10.82
301.901	11.53
302.115	12.91
302.328	13.03
302.541	13.04
302.754	10.21
302.967	9.04
303.18	8.6
303.393	6.7
303.607	5.19
303.82	5.34
304.033	6.58
304.246	7.14
304.459	5.67
304.672	5.94
304.885	6.18
305.098	8.29
305.311	6.85
305.524	8.09
305.737	9.5
305.95	9.95
306.163	10.55
306.376	8.68
306.589	8.17
306.802	8.76
307.015	9.24
307.228	7.94
307.44	8.14
307.653	11.05
307.866	9.61
308.079	8.59
308.292	8.75
308.505	8.57
308.718	7.63
308.93	7.67
309.143	8.28
309.356	8.07
309.569	8.02
309.781	9.71
309.994	8.94
310.207	10.11
310.42	10.16
310.632	11.01
310.845	9.79
311.058	10.46
311.27	11.5
311.483	11.09
311.696	9.55
311.908	8.29
312.121	7.24
312.333	7.43
312.546	5.42
312.759	3.72
312.971	3.95
313.184	4.72
313.396	3.96
313.609	3.2
313.821	1.75
314.034	2.97
314.246	5.67
314.459	5.97
314.671	5.02
314.884	5.57
315.096	7.59
315.309	7.98
315.521	5.98
315.733	5.69
315.946	3.72
316.158	4.32
316.371	6.31
316.583	6.58
316.795	6.3
317.008	6.83
317.22	7.45
317.432	6.13
317.644	6.41
317.857	8.99
318.069	10.72
318.281	11.07
318.494	15.03
318.706	14.4
318.918	14.26
319.13	15.43
319.342	15.36
319.555	14.39
319.767	16.32
319.979	13.79
320.191	14.68
320.403	14.76
320.615	15.59
320.827	11.54
321.039	9.63
321.252	9.37
321.464	8.56
321.676	7.52
321.888	8.73
322.1	4.55
322.312	5.87
322.524	4.94
322.736	3.3
322.948	2.09
323.16	4.09
323.372	5.51
323.584	4.27
323.796	6.72
324.007	5.65
324.219	3.74
324.431	7.25
324.643	7.06
324.855	8.29
325.067	9.11
325.279	9.75
325.491	6.55
325.702	6.91
325.914	6.9
326.126	5.85
326.338	6.89
326.55	8.29
326.761	5.61
326.973	5.73
327.185	5.95
327.396	5.28
327.608	4.46
327.82	8.3
328.032	7.13
328.243	7.72
328.455	8.17
328.666	9.78
328.878	9.41
329.09	10.16
329.301	9.99
329.513	8.83
329.725	9.15
329.936	10.82
330.148	10.77
330.359	12.07
330.571	10.64
330.782	7.9
330.994	5.87
331.205	6.41
331.417	6.75
331.628	6.54
331.84	4.95
332.051	5.62
332.262	4.22
332.474	2.19
332.685	1.02
332.897	2.31
333.108	2.55
333.319	3.68
333.531	4.12
333.742	5.08
333.953	5.38
334.165	6.73
334.376	6.29
334.587	6.23
334.799	5.56
335.01	5.67
335.221	4.25
335.432	4.63
335.644	4.99
335.855	5.57
336.066	5.82
336.277	6.38
336.488	5.63
336.7	5.54
336.911	5.7
337.122	8.04
337.333	7.43
337.544	8.58
337.755	8.73
337.966	6.46
338.177	4.81
338.388	3.95
338.599	3.93
338.811	4.75
339.022	4.55
339.233	4.31
339.444	2.84
339.655	3.85
339.866	3.54
340.076	2.48
340.287	4.19
340.498	5.69
340.709	5.73
340.92	5.56
341.131	4.93
341.342	4.4
341.553	3.66
341.764	2.96
341.975	2.32
342.185	2.34
342.396	2.02
342.607	1.78
342.818	0.68
343.029	0.89
343.239	1.65
343.45	1.13
343.661	2.3
343.872	2.73
344.082	4.81
344.293	4.15
344.504	4.08
344.714	3.92
344.925	2.96
345.136	3.51
345.346	3.21
345.557	2.95
345.768	3.64
345.978	2.35
346.189	2.68
346.399	0.92
346.61	2.95
346.821	3.05
347.031	3.73
347.242	3.79
347.452	2.99
347.663	2.79
347.873	2
348.084	1.51
348.294	2.78
348.504	2.37
348.715	3.49
348.925	2.46
349.136	3.1
349.346	3.09
349.557	4.74
349.767	5.34
349.977	5.8
350.188	6.54
350.398	7.38
350.608	8.18
350.819	9.37
351.029	9.84
351.239	9.79
351.449	9.69
351.66	10.97
351.87	9.02
352.08	9.15
352.29	8.7
352.501	8.08
352.711	7.46
352.921	4.85
353.131	4.7
353.341	3.55
353.552	3.99
353.762	3.87
353.972	2.37
354.182	5.44
354.392	5.08
354.602	5.69
354.812	4.92
355.022	5.33
355.232	7.48
355.442	7.22
355.652	7.61
355.862	7.72
356.072	7.95
356.282	8.36
356.492	7.33
356.702	8.69
356.912	8.74
357.122	9.83
357.332	10.64
357.542	9.18
357.752	10.03
357.962	9.59
358.171	9.11
358.381	8.56
358.591	9.41
358.801	9.62
359.011	8.79
359.221	9.72
359.43	9.09
359.64	9.14
359.85	10.59
360.06	10.29
360.269	10.7
360.479	9.99
360.689	10.07
360.899	9.66
361.108	9.56
361.318	9.73
361.528	8.68
361.737	8.64
361.947	7.53
362.156	7.08
362.366	7.36
362.576	6.88
362.785	6.7
362.995	7.2
363.204	6.72
363.414	6.58
363.623	6.56
363.833	6.45
364.042	6.08
364.252	5.65
364.461	5.45
364.671	4.68
364.88	6.27
365.09	6.87
365.299	6.11
365.509	6.9
365.718	7.17
365.927	7.05
366.137	6.47
366.346	6.94
366.555	7.99
366.765	8.56
366.974	8.5
367.183	7.34
367.393	6.56
367.602	7.52
367.811	6.6
368.021	5.54
368.23	5.92
368.439	6.88
368.648	5.93
368.857	4.87
369.067	3.87
369.276	2.83
369.485	2.67
369.694	3.36
369.903	2.35
370.112	3.41
370.321	4.08
370.531	4.34
370.74	4.86
370.949	5.29
371.158	5.76
371.367	6.1
371.576	6.94
371.785	7.16
371.994	7
372.203	6.6
372.412	6.09
372.621	5.6
372.83	5.47
373.039	4.96
373.248	5.42
373.457	5.58
373.666	5.69
373.874	6.44
374.083	6.28
374.292	6.54
374.501	7.01
374.71	7.23
374.919	8.05
375.128	7.11
375.336	7.65
375.545	7.73
375.754	7.8
375.963	7.88
376.171	7.47
376.38	7.28
376.589	6.83
376.798	6.2
377.006	5.66
377.215	5.2
377.424	5.89
377.632	4.82
377.841	4.5
378.05	4.96
378.258	4.64
378.467	3.7
378.675	2.76
378.884	2.97
379.093	3.37
379.301	3.84
379.51	4.11
379.718	3.6
379.927	4.63
380.135	5.32
380.344	4.88
380.552	5.92
380.761	6.56
380.969	7.5
381.177	7.86
381.386	7.5
381.594	7.19
381.803	6.47
382.011	6.44
382.219	5.67
382.428	4.92
382.636	4.61
382.845	3.58
383.053	2.96
383.261	2.85
383.469	3.08
383.678	3.88
383.886	3.79
384.094	4.24
384.302	3.67
384.511	3.86
384.719	4.23
384.927	4.72
385.135	4.37
385.343	4.64
385.552	4.34
385.76	3.82
385.968	3.07
386.176	3.21
386.384	2.94
386.592	3.6
386.8	3.37
387.008	3.23
387.216	3.23
387.424	3.47
387.633	3.63
387.841	3.92
388.049	4.16
388.257	4.27
388.465	4.1
388.672	4.18
388.88	3.72
389.088	4.21
389.296	4.02
389.504	3.35
389.712	3.68
389.92	3.73
390.128	4.05
390.336	4.24
390.544	4.22
390.751	4.36
390.959	3.99
391.167	4.22
391.375	4.12
391.583	4.15
391.79	4.34
391.998	3.94
392.206	3.64
392.414	3.55
392.621	3.37
392.829	3.58
393.037	3.35
393.244	3.61
393.452	3.63
393.66	3.5
393.867	3.31
394.075	3.64
394.283	3.64
394.49	3.8
394.698	3.31
394.905	3.17
395.113	3.39
395.32	3.18
395.528	3.02
395.735	3.4
395.943	3.5
396.15	3.98
396.358	3.87
396.565	4.12
396.773	4.21
396.98	4.54
397.188	4.71
397.395	4.36
397.602	4.82
397.81	5.01
398.017	5.07
398.225	4.69
398.432	4.48
398.639	4.17
398.847	4.17
399.054	4.19
399.261	4.1
399.468	3.82
399.676	3.99
399.883	4.19
400.09	4.13
400.297	3.77
400.505	4.02
400.712	4
400.919	3.89
401.126	3.92
401.333	3.86
401.54	3.47
401.748	3.55
401.955	3.36
402.162	3.34
402.369	3.54
402.576	3.62
402.783	3.5
402.99	3.65
403.197	3.92
403.404	3.77
403.611	3.93
403.818	4.31
404.025	3.86
404.232	3.88
404.439	3.76
404.646	3.58
404.853	3.53
405.06	3.68
405.267	3.66
405.474	3.8
405.681	3.6
405.887	3.62
406.094	3.53
406.301	3.64
406.508	4.01
406.715	3.89
406.922	3.97
407.128	3.94
407.335	3.47
407.542	3.54
407.749	3.58
407.955	3.92
408.162	3.78
408.369	3.74
408.575	3.91
408.782	3.52
408.989	3.64
409.195	3.54
409.402	3.33
409.609	3.72
409.815	3.64
410.022	3.13
410.228	3.07
410.435	2.76
410.642	2.86
410.848	3.14
411.055	3.1
411.261	2.84
411.468	2.81
411.674	2.88
411.881	2.58
412.087	2.52
412.294	2.71
412.5	2.57
412.706	2.91
412.913	3.22
413.119	3.23
413.326	3.41
413.532	3.57
413.738	3.57
413.945	3.57
414.151	4.11
414.357	4.15
414.564	4.19
414.77	4.44
414.976	4.48
415.182	4.16
415.389	3.99
415.595	3.94
415.801	4.13
416.007	4.52
416.214	4.44
416.42	4.17
416.626	3.91
416.832	3.97
417.038	4
417.244	3.77
417.45	3.88
417.657	3.77
417.863	3.72
418.069	3.67
418.275	3.35
418.481	3.41
418.687	3.37
418.893	3.58
419.099	3.67
419.305	3.55
419.511	3.46
419.717	3.37
419.923	3.34
420.129	3.48
420.335	3.38
420.541	3.39
420.746	3.39
420.952	3.5
421.158	3.35
421.364	3.21
421.57	3.14
421.776	3.36
421.982	3.45
422.187	3.51
422.393	3.33
422.599	3.37
422.805	3.57
423.01	3.67
423.216	3.65
423.422	3.79
423.628	3.9
423.833	4.01
424.039	4.05
424.245	4.07
424.45	4.16
424.656	4.18
424.862	4.19
425.067	4.11
425.273	4.03
425.478	4
425.684	3.94
425.889	3.93
426.095	3.89
426.301	3.73
426.506	3.64
426.712	3.58
426.917	3.7
427.123	3.54
427.328	3.62
427.533	3.67
427.739	3.67
427.944	3.73
428.15	3.62
428.355	3.49
428.561	3.42
428.766	3.26
428.971	3.17
429.177	3.11
429.382	3.28
429.587	2.99
429.793	3.02
429.998	3.04
430.203	2.87
430.408	2.79
430.614	2.96
430.819	3.08
431.024	3.02
431.229	3.18
431.434	3.1
431.64	3.04
431.845	3.05
432.05	2.94
432.255	2.87
432.46	2.99
432.665	3.08
432.87	3.12
433.076	3.11
433.281	3.16
433.486	3.12
433.691	3.14
433.896	3.1
434.101	2.97
434.306	3.08
434.511	2.95
434.716	2.93
434.921	2.8
435.126	2.84
435.331	2.83
435.535	2.88
435.74	2.74
435.945	2.82
436.15	2.86
436.355	3.11
436.56	3.03
436.765	3.28
436.97	3.21
437.174	3.11
437.379	2.98
437.584	2.72
437.789	2.86
437.993	3.01
438.198	2.93
438.403	3.14
438.608	3.12
438.812	3.1
439.017	3.1
439.222	3.2
439.426	3.44
439.631	3.49
439.836	3.77
440.04	3.7
440.245	3.67
440.45	3.61
440.654	3.41
440.859	3.53
441.063	3.58
441.268	3.54
441.472	3.44
441.677	3.41
441.881	3.37
442.086	3.24
442.29	3.36
442.495	3.38
442.699	3.3
442.904	3.42
443.108	3.3
443.312	3.29
443.517	3.42
443.721	3.49
443.925	3.47
444.13	3.36
444.334	3.34
444.538	3.17
444.743	3.07
444.947	3.45
445.151	3.52
445.356	3.43
445.56	3.48
445.764	3.39
445.968	3.39
446.173	3.44
446.377	3.55
446.581	3.69
446.785	3.76
446.989	3.82
447.193	3.57
447.398	3.39
447.602	3.55
447.806	3.51
448.01	3.48
448.214	3.46
448.418	3.43
448.622	3.35
448.826	3.26
449.03	3.23
449.234	3.14
449.438	3.29
449.642	3.27
449.846	2.93
450.05	2.74
450.254	2.77
450.458	2.75
450.662	2.67
450.866	2.47
451.069	2.57
451.273	2.42
451.477	2.44
451.681	2.21
451.885	2.23
452.089	2.34
452.292	2.49
452.496	2.4
452.7	2.24
452.904	2.24
453.107	2.4
453.311	2.28
453.515	2.43
453.719	2.49
453.922	2.63
454.126	2.87
454.33	2.95
454.533	3
454.737	3.09
454.94	3.2
455.144	3.22
455.348	3.18
455.551	3.23
455.755	3.08
455.958	3.13
456.162	2.91
456.365	2.55
456.569	2.66
456.772	2.35
456.976	2.56
457.179	2.64
457.383	2.5
457.586	2.56
457.79	2.45
457.993	2.36
458.196	2.17
458.4	2.39
458.603	2.5
458.807	2.47
459.01	2.65
459.213	2.5
459.417	2.48
459.62	2.5
459.823	2.62
460.026	2.55
460.23	2.7
460.433	2.91
460.636	2.84
460.839	2.84
461.042	2.75
461.246	2.7
461.449	2.68
461.652	2.71
461.855	2.7
462.058	2.67
462.261	2.65
462.464	2.76
462.668	2.52
462.871	2.64
463.074	2.65
463.277	2.86
463.48	3.12
463.683	3.07
463.886	3.01
464.089	3.33
464.292	3.17
464.495	3.28
464.698	2.93
464.901	3
465.104	2.93
465.306	3
465.509	2.79
465.712	2.59
465.915	2.84
466.118	2.86
466.321	2.59
466.524	2.53
466.726	2.69
466.929	2.82
467.132	2.81
467.335	2.77
467.538	2.72
467.74	2.82
467.943	2.68
468.146	2.47
468.348	2.36
468.551	2.42
468.754	2.45
468.956	2.27
469.159	2.25
469.362	2.31
469.564	2.33
469.767	2.34
469.969	2.48
470.172	2.7
470.375	2.68
470.577	2.91
470.78	2.85
470.982	2.91
471.185	3.04
471.387	3.02
471.59	2.74
471.792	2.73
471.995	2.84
472.197	2.45
472.399	2.23
472.602	2.51
472.804	2.54
473.007	2.68
473.209	2.77
473.411	2.54
473.614	2.44
473.816	2.77
474.018	2.77
474.22	2.8
474.423	2.93
474.625	3.1
474.827	3
475.03	2.84
475.232	2.85
475.434	2.65
475.636	2.76
475.838	3.04
476.04	2.91
476.243	3.06
476.445	2.64
476.647	2.68
476.849	2.64
477.051	2.56
477.253	2.75
477.455	2.86
477.657	3.12
477.859	3.34
478.061	3.36
478.263	3.44
478.465	3.34
478.667	3.57
478.869	3.58
479.071	3.62
479.273	3.48
479.475	3.39
479.677	3.21
479.879	3.04
480.081	2.82
480.283	2.76
480.485	2.64
480.686	2.65
480.888	2.62
481.09	2.43
481.292	2.45
481.494	2.56
481.695	2.57
481.897	2.59
482.099	2.62
482.301	2.77
482.502	2.76
482.704	2.8
482.906	2.87
483.107	2.97
483.309	3.13
483.511	3.16
483.712	3.17
483.914	3.18
484.115	3.16
484.317	3.21
484.519	3.21
484.72	3.2
484.922	3.21
485.123	3.17
485.325	3.16
485.526	3.12
485.728	3.08
485.929	3.02
486.131	2.98
486.332	3.08
486.534	3.05
486.735	3.01
486.936	3.05
487.138	3.03
487.339	3.13
487.541	3.13
487.742	3.19
487.943	3.18
488.144	3.31
488.346	3.37
488.547	3.32
488.748	3.34
488.95	3.32
489.151	3.39
489.352	3.43
489.553	3.32
489.755	3.35
489.956	3.33
490.157	3.38
490.358	3.29
490.559	3.16
490.76	3.19
490.961	3.04
491.163	3.06
491.364	3.01
491.565	3.13
491.766	3.15
491.967	3.21
492.168	3.17
492.369	3.22
492.57	3.17
492.771	3.37
492.972	3.25
493.173	3.3
493.374	3.28
493.575	3.2
493.776	3.03
493.976	2.98
494.177	2.83
494.378	2.73
494.579	2.75
494.78	2.71
494.981	2.5
495.182	2.61
495.382	2.79
495.583	2.76
495.784	2.79
495.985	2.94
496.185	3
496.386	3.06
496.587	3.23
496.788	3.1
496.988	3.17
497.189	3.37
497.39	3.36
497.59	3.41
497.791	3.56
497.992	3.52
498.192	3.5
498.393	3.52
498.593	3.61
498.794	3.48
498.994	3.46
499.195	3.46
499.395	3.26
499.596	3.23
499.796	3.17
499.997	3.09
500.197	3.16
500.398	3.16
500.598	3.09
500.799	2.82
500.999	2.87
501.199	2.86
501.4	2.95
501.6	2.93
501.801	2.96
502.001	2.96
502.201	2.9
502.402	2.86
502.602	2.73
502.802	2.75
503.002	2.72
503.203	2.72
503.403	2.83
503.603	2.79
503.803	2.97
504.003	3.06
504.204	2.95
504.404	3.22
504.604	3.35
504.804	3.4
505.004	3.48
505.204	3.82
505.404	3.79
505.604	3.8
505.804	3.72
506.005	3.7
506.205	3.84
506.405	4.02
506.605	3.87
506.805	3.76
507.005	3.9
507.204	3.75
507.404	3.52
507.604	3.64
507.804	3.6
508.004	3.67
508.204	3.61
508.404	3.62
508.604	3.54
508.804	3.58
509.003	3.74
509.203	3.72
509.403	3.83
509.603	3.96
509.803	3.9
510.002	3.92
510.202	3.94
510.402	3.97
510.602	3.77
510.801	3.73
511.001	3.73
511.201	3.6
511.4	3.52
511.6	3.55
511.8	3.52
511.999	3.5
512.199	3.51
512.398	3.45
512.598	3.45
512.797	3.48
512.997	3.59
513.197	3.58
513.396	3.66
513.596	3.63
513.795	3.4
513.994	3.29
514.194	3.36
514.393	3.53
514.593	3.68
514.792	3.58
514.992	3.56
515.191	3.48
515.39	3.54
515.59	3.45
515.789	3.7
515.988	4.04
516.188	4.18
516.387	4.01
516.586	3.84
516.786	3.73
516.985	3.86
517.184	3.9
517.383	3.95
517.582	3.99
517.782	4.07
517.981	3.83
518.18	3.89
518.379	3.92
518.578	4.09
518.777	4.19
518.976	4.25
519.176	4.17
519.375	4.22
519.574	4.22
519.773	4.27
519.972	4.32
520.171	4.51
520.37	4.31
520.569	4.39
520.768	4.26
520.967	4.32
521.166	4.25
521.365	4.37
521.564	4.22
521.762	4.27
521.961	4.1
522.16	4.05
522.359	3.9
522.558	4.03
522.757	3.92
522.956	3.94
523.154	3.8
523.353	3.95
523.552	3.95
523.751	4.1
523.949	4.17
524.148	4.11
524.347	4.09
524.546	4.23
524.744	4.3
524.943	4.42
525.142	4.52
525.34	4.53
525.539	4.52
525.737	4.48
525.936	4.5
526.135	4.49
526.333	4.55
526.532	4.56
526.73	4.48
526.929	4.46
527.127	4.52
527.326	4.56
527.524	4.64
527.723	4.73
527.921	4.77
528.12	4.89
528.318	4.91
528.516	4.97
528.715	5.04
528.913	5.14
529.112	5.14
529.31	5.1
529.508	5.08
529.707	5.01
529.905	4.98
530.103	5.09
530.301	5.07
530.5	5.08
530.698	5.14
530.896	5.12
531.094	5.13
531.293	5.19
531.491	5.16
531.689	5.2
531.887	5.39
532.085	5.44
532.283	5.38
532.481	5.42
532.68	5.41
532.878	5.39
533.076	5.51
533.274	5.54
533.472	5.56
533.67	5.61
533.868	5.6
534.066	5.55
534.264	5.49
534.462	5.49
534.66	5.41
534.858	5.52
535.056	5.55
535.253	5.48
535.451	5.49
535.649	5.51
535.847	5.62
536.045	5.77
536.243	5.85
536.441	5.84
536.638	5.8
536.836	5.82
537.034	5.75
537.232	5.77
537.43	5.86
537.627	5.82
537.825	5.65
538.023	5.68
538.22	5.57
538.418	5.44
538.616	5.58
538.813	5.64
539.011	5.64
539.209	5.84
539.406	5.92
539.604	5.89
539.801	5.88
539.999	6.1
540.196	6.11
540.394	6.11
540.591	6.25
540.789	6.24
540.986	6.34
541.184	6.46
541.381	6.43
541.579	6.46
541.776	6.44
541.974	6.51
542.171	6.5
542.368	6.56
542.566	6.69
542.763	6.73
542.96	6.85
543.158	6.67
543.355	6.62
543.552	6.6
543.75	6.52
543.947	6.61
544.144	6.61
544.341	6.6
544.539	6.56
544.736	6.53
544.933	6.65
545.13	6.59
545.327	6.84
545.524	6.98
545.722	6.81
545.919	6.96
546.116	6.82
546.313	6.79
546.51	6.99
546.707	7.04
546.904	6.98
547.101	6.87
547.298	6.82
547.495	6.87
547.692	6.82
547.889	6.97
548.086	6.93
548.283	7.04
548.48	7.24
548.677	7.11
548.874	7.02
549.07	6.99
549.267	7.17
549.464	7.26
549.661	7.18
549.858	7.36
550.055	7.46
550.251	7.71
550.448	7.81
550.645	7.72
550.842	7.88
551.038	7.94
551.235	8.21
551.432	7.96
551.628	8.09
551.825	8.17
552.022	8.06
552.218	8.13
552.415	7.76
552.612	7.75
552.808	7.82
553.005	7.84
553.201	7.83
553.398	7.84
553.594	7.95
553.791	8.05
553.987	8.15
554.184	8.26
554.38	8.35
554.577	8.73
554.773	9.06
554.97	9.09
555.166	9.14
555.362	9.17
555.559	9.19
555.755	9.29
555.952	9.19
556.148	9.18
556.344	9.22
556.541	9.02
556.737	8.92
556.933	8.63
557.129	8.8
557.326	8.88
557.522	9.27
557.718	9.08
557.914	9.11
558.11	8.98
558.307	8.99
558.503	8.94
558.699	9.03
558.895	9.17
559.091	9.28
559.287	9.27
559.483	9.16
559.679	9.05
559.876	9.36
560.072	9.29
560.268	9.46
560.464	9.67
560.66	9.73
560.856	10.14
561.052	10.02
561.247	10.03
561.443	10.19
561.639	10.34
561.835	10.34
562.031	10.32
562.227	10.32
562.423	10.55
562.619	10.54
562.815	10.8
563.01	10.54
563.206	10.6
563.402	10.75
563.598	10.65
563.793	10.91
563.989	10.83
564.185	11.04
564.381	11.46
564.576	11.53
564.772	11.61
564.968	11.38
565.163	11.77
565.359	11.92
565.555	11.95
565.75	12.13
565.946	12.04
566.141	12.26
566.337	12.19
566.532	12.08
566.728	12.06
566.923	12.08
567.119	12.36
567.314	12.19
567.51	12.25
567.705	12.26
567.901	12.26
568.096	12.19
568.292	12.28
568.487	12.35
568.682	12.34
568.878	12.36
569.073	12.1
569.268	12.16
569.464	12.31
569.659	12.36
569.854	12.38
570.05	12.56
570.245	12.7
570.44	12.74
570.635	12.75
570.831	12.89
571.026	13.03
571.221	13.19
571.416	13.13
571.611	12.9
571.806	13.03
572.002	12.95
572.197	13.08
572.392	13.18
572.587	13.14
572.782	13.25
572.977	13.1
573.172	12.96
573.367	13.19
573.562	13.09
573.757	13.33
573.952	13.44
574.147	13.69
574.342	13.66
574.537	13.64
574.732	13.75
574.927	13.78
575.121	13.95
575.316	14.02
575.511	14.12
575.706	14.37
575.901	14.51
576.096	14.48
576.29	14.56
576.485	14.4
576.68	14.33
576.875	14.44
577.069	14.59
577.264	14.76
577.459	14.79
577.654	14.52
577.848	14.48
578.043	14.33
578.238	14.38
578.432	14.16
578.627	14.19
578.821	14.64
579.016	14.63
579.21	14.74
579.405	14.64
579.6	14.85
579.794	15.09
579.989	15.16
580.183	15.18
580.378	15.07
580.572	15.22
580.766	15.19
580.961	14.86
581.155	14.74
581.35	14.33
581.544	14.33
581.738	14.35
581.933	14.33
582.127	14.27
582.321	14.23
582.516	14.07
582.71	14.34
582.904	14.48
583.099	14.54
583.293	14.66
583.487	14.65
583.681	14.65
583.875	14.77
584.07	14.68
584.264	14.81
584.458	14.9
584.652	15.28
584.846	15.31
585.04	15.38
585.234	15.53
585.428	15.36
585.623	15.58
585.817	15.91
586.011	15.89
586.205	16.11
586.399	16.35
586.593	16.32
586.787	16.31
586.981	16.17
587.174	15.87
587.368	15.73
587.562	15.95
587.756	15.97
587.95	15.97
588.144	15.92
588.338	15.87
588.532	15.79
588.725	15.97
588.919	15.78
589.113	16.06
589.307	16.37
589.501	16.42
589.694	16.47
589.888	16.53
590.082	16.14
590.275	16.12
590.469	16.23
590.663	16.08
590.856	16.1
591.05	16.34
591.244	16.27
591.437	16.31
591.631	16.53
591.824	16.46
592.018	16.62
592.212	17.08
592.405	16.91
592.599	16.82
592.792	16.84
592.986	17.08
593.179	16.94
593.372	16.83
593.566	16.43
593.759	16.38
593.953	16.43
594.146	16.34
594.339	16.19
594.533	16.27
594.726	16.43
594.92	16.54
595.113	16.59
595.306	16.76
595.499	16.8
595.693	17.07
595.886	16.86
596.079	17
596.272	16.96
596.466	16.86
596.659	17.05
596.852	17.05
597.045	16.98
597.238	16.89
597.431	16.8
597.624	16.8
597.818	16.97
598.011	17.24
598.204	16.82
598.397	16.7
598.59	16.92
598.783	17
598.976	17.21
599.169	17.31
599.362	17.32
599.555	17.46
599.748	17.45
599.941	17.03
600.134	17.01
600.326	17.48
600.519	17.58
600.712	17.37
600.905	17.09
601.098	16.93
601.291	16.77
601.483	16.83
601.676	16.7
601.869	16.85
602.062	17.19
602.255	17.13
602.447	16.93
602.64	17.14
602.833	17.41
603.025	17.57
603.218	17.39
603.411	17.67
603.603	17.6
603.796	17.89
603.989	17.68
604.181	17.6
604.374	17.55
604.566	17.83
604.759	17.93
604.951	17.72
605.144	17.79
605.336	17.92
605.529	17.77
605.721	17.89
605.914	17.57
606.106	17.78
606.299	17.98
606.491	17.98
606.683	18.01
606.876	18.08
607.068	18.31
607.26	18.13
607.453	18.22
607.645	18.62
607.837	18.72
608.03	18.86
608.222	18.82
608.414	18.85
608.606	18.88
608.799	19.05
608.991	19.13
609.183	18.78
609.375	18.69
609.567	18.7
609.759	18.48
609.952	18.37
610.144	18.44
610.336	18.42
610.528	18.17
610.72	18.1
610.912	17.71
611.104	17.42
611.296	17.68
611.488	17.81
611.68	17.5
611.872	17.37
612.064	17.16
612.256	16.79
612.448	16.95
612.64	17.34
612.832	17.34
613.023	17.66
613.215	17.84
613.407	17.98
613.599	18.27
613.791	18.71
613.983	18.62
614.174	18.7
614.366	19.07
614.558	18.92
614.75	18.75
614.941	18.71
615.133	18.42
615.325	18.12
615.516	18.19
615.708	17.99
615.9	17.9
616.091	17.87
616.283	17.99
616.475	17.93
616.666	17.57
616.858	17.89
617.049	17.99
617.241	17.91
617.432	18.19
617.624	17.95
617.815	18.01
618.007	17.86
618.198	18.47
618.39	18.67
618.581	18.65
618.773	19.07
618.964	18.88
619.155	18.84
619.347	19.12
619.538	18.8
619.729	18.67
619.921	18.57
620.112	18.75
620.303	18.25
620.494	17.77
620.686	17.76
620.877	17.78
621.068	17.9
621.259	18.16
621.451	17.87
621.642	18.35
621.833	18.78
622.024	19.15
622.215	18.9
622.406	19.21
622.597	19.55
622.788	19.6
622.98	19.58
623.171	19.43
623.362	19.08
623.553	19.18
623.744	18.98
623.935	18.62
624.126	18.33
624.317	18.46
624.508	18.23
624.698	18
624.889	18.22
625.08	18.48
625.271	18.24
625.462	18.64
625.653	18.68
625.844	18.93
626.034	19.5
626.225	19.83
626.416	19.9
626.607	20.09
626.798	19.99
626.988	19.8
627.179	19.77
627.37	19.99
627.56	20.14
627.751	20.43
627.942	20.36
628.132	19.99
628.323	20.19
628.514	20.26
628.704	20.1
628.895	20.65
629.085	20.97
629.276	20.7
629.466	20.31
629.657	20.15
629.847	20.14
630.038	20.02
630.228	19.95
630.419	19.63
630.609	19.79
630.8	19.69
630.99	19.39
631.181	19.41
631.371	19.3
631.561	19.66
631.752	19.67
631.942	19.3
632.132	19.45
632.323	19.69
632.513	19.69
632.703	19.44
632.893	19.86
633.084	20.14
633.274	20.15
633.464	20.29
633.654	20.48
633.844	20.37
634.034	20.76
634.225	20.73
634.415	20.74
634.605	20.56
634.795	20.66
634.985	20.4
635.175	20.36
635.365	20.35
635.555	20.52
635.745	20.47
635.935	20.52
636.125	20.33
636.315	20.12
636.505	20.04
636.695	20.03
636.885	19.79
637.075	20.21
637.265	19.79
637.455	19.64
637.644	19.44
637.834	19.34
638.024	19.41
638.214	19.34
638.404	19.73
638.593	19.8
638.783	19.93
638.973	20.17
639.163	19.78
639.352	20.21
639.542	19.94
639.732	20.42
639.921	20.1
640.111	20.55
640.301	20.66
640.49	20.29
640.68	20.21
640.87	20.3
641.059	20.04
641.249	19.96
641.438	19.69
641.628	20.25
641.817	19.94
642.007	20.34
642.196	19.52
642.386	19.67
642.575	19.99
642.764	19.65
642.954	19.53
643.143	19.87
643.333	19.96
643.522	20.09
643.711	19.73
643.901	19.73
644.09	20.23
644.279	20.71
644.469	20.54
644.658	20.25
644.847	20.25
645.036	20.5
645.226	20.19
645.415	20.2
645.604	20.62
645.793	20.35
645.982	20.61
646.171	19.98
646.361	19.61
646.55	20.1
646.739	19.88
646.928	20.43
647.117	20.5
647.306	20.88
647.495	20.84
647.684	20.36
647.873	20.57
648.062	20.32
648.251	20.48
648.44	20.51
648.629	19.98
648.818	20.37
649.007	20.81
649.196	20.5
649.384	20.66
649.573	20.95
649.762	21.22
649.951	21.27
650.14	21.38
650.328	21.39
650.517	21.78
650.706	21.63
650.895	21.06
651.083	20.53
651.272	20.61
651.461	20.37
651.65	20.38
651.838	20.22
652.027	19.86
652.216	19.56
652.404	19.35
652.593	19.08
652.781	19.2
652.97	19.46
653.158	19.14
653.347	19.2
653.535	19.52
653.724	19.82
653.912	20.06
654.101	20.46
654.289	20.45
654.478	21.02
654.666	21.02
654.855	21.29
655.043	21.41
655.231	21.72
655.42	21.37
655.608	20.86
655.796	20.16
655.985	20.21
656.173	20.38
656.361	21.17
656.55	20.58
656.738	20.89
656.926	20.68
657.114	20.79
657.302	20.97
657.491	20.94
657.679	21.03
657.867	21.26
658.055	21.09
658.243	20.72
658.431	20.49
658.619	20.82
658.807	20.74
658.996	21.02
659.184	20.89
659.372	20.82
659.56	21.04
659.748	21.13
659.936	21.16
660.124	21.04
660.311	21.32
660.499	21.03
660.687	21.03
660.875	21.1
661.063	20.54
661.251	20.57
661.439	20.66
661.627	20.86
661.814	20.53
662.002	20.22
662.19	20.78
662.378	20.92
662.565	21
662.753	20.86
662.941	20.63
663.129	20.99
663.316	21.35
663.504	21.19
663.692	20.72
663.879	21.39
664.067	21.87
664.254	21.72
664.442	21.16
664.63	21.02
664.817	21.34
665.005	21.63
665.192	21.88
665.38	21.04
665.567	20.91
665.755	20.86
665.942	20.75
666.13	20.38
666.317	19.94
666.504	20.43
666.692	20.6
666.879	20.72
667.067	20.33
667.254	20.41
667.441	21.21
667.629	21.62
667.816	22.02
668.003	21.88
668.19	22.15
668.378	22.7
668.565	22.27
668.752	22.33
668.939	22.18
669.127	22.18
669.314	21.81
669.501	21.53
669.688	21.28
669.875	21.13
670.062	21.05
670.249	20.89
670.436	20.65
670.623	20.66
670.81	20.79
670.997	20.54
671.184	20.55
671.371	20.79
671.558	20.48
671.745	20.37
671.932	20.42
672.119	20.37
672.306	20.22
672.493	20.11
672.68	20.2
672.867	19.98
673.054	20.63
673.24	20.73
673.427	20.16
673.614	20.93
673.801	21.36
673.988	20.96
674.174	21.49
674.361	22.04
674.548	22.07
674.734	22.35
674.921	22.58
675.108	22.13
675.294	22.17
675.481	22.21
675.668	21.89
675.854	21.69
676.041	21.81
676.227	21.26
676.414	21.46
676.601	21.76
676.787	22.37
676.974	22.4
677.16	22.49
677.347	22.78
677.533	23.15
677.719	23.15
677.906	22.98
678.092	23.72
678.279	23.76
678.465	23.02
678.651	22.53
678.838	21.9
679.024	21.91
679.21	22.07
679.397	22.47
679.583	22.69
679.769	22.87
679.955	22.99
680.142	22.92
680.328	23.36
680.514	23.63
680.7	23.77
680.886	23.98
681.073	23.71
681.259	23.17
681.445	22.69
681.631	22.51
681.817	22.05
682.003	21.98
682.189	21.79
682.375	21.22
682.561	21.56
682.747	21.73
682.933	21.91
683.119	22.08
683.305	22.41
683.491	22.64
683.677	22.46
683.863	22.95
684.049	23.19
684.235	23.14
684.42	23.38
684.606	23.2
684.792	23.53
684.978	23.31
685.164	23.43
685.349	23.44
685.535	23.46
685.721	23.62
685.907	23.67
686.092	23.98
686.278	24.05
686.464	23.85
686.649	24.5
686.835	23.98
687.021	24.21
687.206	24.01
687.392	24.37
687.577	24.05
687.763	23.94
687.948	23.97
688.134	23.13
688.319	23.22
688.505	23.18
688.69	22.27
688.876	22.23
689.061	21.71
689.247	22.19
689.432	21.88
689.618	22.33
689.803	22.39
689.988	23.24
690.174	23.71
690.359	23.33
690.544	23.77
690.73	24.08
690.915	23.67
691.1	23.7
691.285	23.32
691.471	23.18
691.656	22.67
691.841	23.27
692.026	21.89
692.211	22.05
692.396	22.02
692.582	21.24
692.767	21.13
692.952	21.43
693.137	21.76
693.322	21.88
693.507	22.17
693.692	22.16
693.877	21.47
694.062	22.07
694.247	21.37
694.432	21.16
694.617	22.11
694.802	21.96
694.987	22.17
695.172	21.76
695.357	21.77
695.541	21.67
695.726	21.96
695.911	22.11
696.096	21.97
696.281	22.75
696.466	23.48
696.65	23.28
696.835	23.61
697.02	23.68
697.204	24.03
697.389	24.55
697.574	24.74
697.759	24.52
697.943	24.8
698.128	24.88
698.312	24.08
698.497	24.04
698.682	24.19
698.866	24.22
699.051	24.37
699.235	24.39
699.42	24
699.604	23.77
699.789	23.94
699.973	23.44
700.158	23.27
700.342	24.02
700.527	23.78
700.711	23.87
700.895	23.65
701.08	23.74
701.264	23.3
701.448	23.05
701.633	22.8
701.817	22.32
702.001	22.41
702.186	22.69
702.37	22.77
702.554	22.75
702.738	22.5
702.923	22.37
703.107	21.96
703.291	22.46
703.475	23.25
703.659	23.67
703.843	23.98
704.027	24.76
704.212	24.88
704.396	23.86
704.58	23.81
704.764	23.85
704.948	24.08
705.132	23.83
705.316	23.6
705.5	22.51
705.684	22.48
705.868	22.58
706.052	22.3
706.235	21.57
706.419	21.94
706.603	22.64
706.787	22.72
706.971	22.55
707.155	22.36
707.339	23.37
707.522	24.09
707.706	23.44
707.89	23.69
708.074	22.93
708.257	23.43
708.441	23.41
708.625	22.88
708.808	22.63
708.992	22.66
709.176	23.33
709.359	22.12
709.543	21.83
709.727	22.85
709.91	22.57
710.094	23.53
710.277	23.73
710.461	23.44
710.644	22.93
710.828	23.25
711.011	22.85
711.195	22.36
711.378	22.38
711.562	22.33
711.745	22.35
711.928	22.57
712.112	22.14
712.295	21.74
712.478	22.66
712.662	23.48
712.845	23.13
713.028	23.65
713.212	24
713.395	23.77
713.578	23.44
713.761	23.48
713.945	23.14
714.128	23.55
714.311	23.81
714.494	23.33
714.677	23.37
714.86	23.92
715.043	23.78
715.227	23.45
715.41	24.79
715.593	25.22
715.776	25.49
715.959	24.86
716.142	25.04
716.325	24.82
716.508	25.3
716.691	24.26
716.874	23.73
717.057	23.45
717.239	24.02
717.422	22.9
717.605	22.5
717.788	21.98
717.971	23.01
718.154	22.44
718.337	23.15
718.519	21.79
718.702	23.02
718.885	23.4
719.068	23.86
719.25	24.29
719.433	25.2
719.616	26.54
719.798	26.42
719.981	25.59
720.164	25.01
720.346	24.36
720.529	26.18
720.712	24.83
720.894	24.09
721.077	23.58
721.259	23.34
721.442	22.71
721.624	21.8
721.807	21.64
721.989	21.86
722.172	21.53
722.354	20.33
722.537	19.52
722.719	21.13
722.901	21.57
723.084	21.87
723.266	21.2
723.448	21.38
723.631	21.62
723.813	20.78
723.995	21.36
724.178	21.46
724.36	23.07
724.542	22.66
724.724	22.48
724.907	22.09
725.089	22.99
725.271	22.59
725.453	22.67
725.635	21.49
725.817	21.28
725.999	20.36
726.181	21.73
726.364	20.94
726.546	20.96
726.728	20.7
726.91	21.86
727.092	20.44
727.274	20.6
727.456	20.16
727.638	21.3
727.819	21.85
728.001	22.65
728.183	22.36
728.365	22.84
728.547	22.97
728.729	22.91
728.911	22.86
729.093	22.92
729.274	23.47
729.456	24
729.638	23.95
729.82	24.47
730.001	24.17
730.183	23.61
730.365	23.1
730.546	23.1
730.728	22.6
730.91	21.11
731.091	22.21
731.273	20.86
731.455	21.58
731.636	21.49
731.818	21.31
731.999	22.29
732.181	22.17
732.362	22.37
732.544	23.03
732.725	24.4
732.907	25.37
733.088	24.07
733.27	24.69
733.451	23.81
733.633	24.24
733.814	24.4
733.995	24.17
734.177	25.6
734.358	25.25
734.539	25.15
734.721	23.77
734.902	23.18
735.083	23.78
735.264	23.97
735.446	23.95
735.627	23.61
735.808	22.82
735.989	22.18
736.17	20.78
736.351	20.52
736.533	18.91
736.714	19.6
736.895	20.1
737.076	19.97
737.257	19.76
737.438	20.05
737.619	19.92
737.8	20.51
737.981	20.43
738.162	20.54
738.343	20.81
738.524	21.63
738.705	21.64
738.886	21.51
739.067	21.93
739.247	22.27
739.428	22.06
739.609	21.68
739.79	21.83
739.971	21.94
740.151	20.91
740.332	20.67
740.513	21.47
740.694	20.84
740.874	20.23
741.055	20.47
741.236	21.94
741.417	21.59
741.597	22.28
741.778	21.83
741.958	22.31
742.139	24.22
742.32	25.07
742.5	24.67
742.681	25.23
742.861	25.23
743.042	25.34
743.222	23.4
743.403	23.89
743.583	25.06
743.764	26.18
743.944	25.02
744.124	23.6
744.305	22.99
744.485	24.1
744.666	24.14
744.846	24.95
745.026	25.36
745.207	26.54
745.387	26.03
745.567	23.44
745.747	21.19
745.928	21.92
746.108	23.16
746.288	24.59
746.468	23.2
746.648	23.72
746.829	23.59
747.009	22.66
747.189	21.03
747.369	21.45
747.549	23.43
747.729	23.33
747.909	23.3
748.089	21.87
748.269	21.07
748.449	20.91
748.629	20.29
748.809	19.2
748.989	19.63
749.169	21.41
749.349	21.22
749.529	20.69
749.709	22.46
749.889	22.6
750.068	23.82
750.248	22.94
750.428	22.59
750.608	22
750.788	24.34
750.967	24.78
751.147	24.57
751.327	24.46
751.507	23.62
751.686	25.24
751.866	24.81
752.046	23.64
752.225	24.22
752.405	25.43
752.585	25.34
752.764	23.85
752.944	21.69
753.123	21.63
753.303	22.48
753.482	22.43
753.662	21.85
753.841	21.25
754.021	22.6
754.2	22.56
754.38	22.87
754.559	22.6
754.739	22.09
754.918	22.96
755.097	22.35
755.277	20.81
755.456	20.29
755.635	17.31
755.815	17.77
755.994	18.37
756.173	18.66
756.352	17.53
756.532	18.12
756.711	19.12
756.89	20.87
757.069	19.8
757.248	20.72
757.427	22.66
757.607	23.51
757.786	23.96
757.965	22.11
758.144	23.12
758.323	23.24
758.502	23.59
758.681	23.15
758.86	21.33
759.039	21.56
759.218	22.65
759.397	22.15
759.576	22.24
759.755	23.02
759.934	24.29
760.113	22.6
760.291	23.33
760.47	24.57
760.649	24.78
760.828	26.55
761.007	28.32
761.186	26.34
761.364	25.76
761.543	25.58
761.722	25.46
761.901	25.29
762.079	25.39
762.258	24.36
762.437	23.72
762.615	24.2
762.794	23.11
762.972	23.02
763.151	23.07
763.33	24.34
763.508	25.2
763.687	25.19
763.865	25.1
764.044	25.75
764.222	26.09
764.401	25.89
764.579	26.19
764.758	26.32
764.936	27
765.114	27.58
765.293	26.57
765.471	26.26
765.65	25.21
765.828	25.6
766.006	25.13
766.184	25.56
766.363	24.42
766.541	23.98
766.719	24.03
766.898	23
767.076	22.99
767.254	22.97
767.432	22.87
767.61	21.92
767.788	20.52
767.967	20.73
768.145	19.26
768.323	20.16
768.501	19.76
768.679	18.94
768.857	18.06
769.035	17.5
769.213	18.33
769.391	16.66
769.569	18.76
769.747	20.64
769.925	20.11
770.103	20.17
770.281	21.6
770.459	20.28
770.636	20.66
770.814	19.82
770.992	19.06
771.17	18
771.348	19.8
771.525	17.95
771.703	16.93
771.881	17.48
772.059	18.82
772.236	17.26
772.414	17.58
772.592	18.53
772.769	16.49
772.947	16.85
773.125	17.47
773.302	16.78
773.48	19.03
773.657	20.26
773.835	19.86
774.013	16.27
774.19	17.61
774.368	16.88
774.545	17.25
774.723	21.22
774.9	24.09
775.077	22.06
775.255	23.04
775.432	23.35
775.61	22.37
775.787	21.06
775.964	24.18
776.142	24.71
776.319	24.64
776.496	23.98
776.674	23.24
776.851	21.88
777.028	24.64
777.205	23.36
777.382	24.92
777.56	24.98
777.737	26.29
777.914	26.95
778.091	28
778.268	29.68
778.445	27.78
778.622	27.24
778.8	27.01
778.977	23.66
779.154	23.7
779.331	20.65
779.508	19.83
779.685	18.98
779.862	20.26
780.038	16.49
780.215	15.18
780.392	16.46
780.569	13.44
780.746	11.9
780.923	10.55
781.1	10.11
781.277	8.54
781.453	6.99
781.63	8.03
781.807	6.53
781.984	8.66
782.16	10.02
782.337	10.73
782.514	14.16
782.691	19.8
782.867	23.07
783.044	24.37
783.221	25.01
783.397	25.93
783.574	25.23
783.75	24.54
783.927	22.92
784.103	22.74
784.28	22.93
784.456	24.33
784.633	17.98
784.809	16.4
784.986	16.81
785.162	16.01
785.339	14.77
785.515	15.44
785.692	17.99
785.868	17.28
786.044	16.76
786.221	17.4
786.397	15.92
786.573	20.09
786.749	21.89
786.926	22.37
787.102	23.62
787.278	24.9
787.454	26.45
787.631	21.1
787.807	23.19
787.983	21.13
788.159	19.87
788.335	19.43
788.511	17.32
788.687	18.85
788.863	16.91
789.039	15.96
789.216	12.61
789.392	11.06
789.568	14.34
789.744	11.83
789.919	12.54
790.095	15.28
790.271	12.85
790.447	11.68
790.623	9.84
790.799	8.99
790.975	12.17
791.151	11.88
791.327	11.82
791.502	11.11
791.678	12.59
791.854	10.56
792.03	6.66
792.205	11.44
792.381	12.09
792.557	9.57
792.733	9.88
792.908	10.22
793.084	10.91
793.259	9.24
793.435	8.33
793.611	6.61
793.786	7.9
793.962	10.38
794.137	11.24
794.313	9.48
794.488	11.93
794.664	13.8
794.839	10.69
795.015	12.64
795.19	15.05
795.366	15.42
795.541	15.58
795.716	18.11
795.892	16.63
796.067	15.58
796.242	19.38
796.418	16.5
796.593	16.15
796.768	17.58
796.944	19.13
797.119	18.63
797.294	19.31
797.469	20.63
797.644	21.68
797.82	20.59
797.995	17.12
798.17	14.05
798.345	19.2
798.52	20.72
798.695	17.96
798.87	16.84
799.045	16.38
799.22	17.68
799.395	17.22
799.57	18.85
799.745	22.69
799.92	24.66
800.095	23.84
800.27	23.78
800.445	21.02
800.62	23.77
800.795	22
800.97	21.18
801.145	20.78
801.319	16.64
801.494	13.07
801.669	7.97
801.844	8.44
802.018	12.2
802.193	7.89
802.368	12.46
802.543	8.32
802.717	11.43
802.892	9.98
803.067	8.92
803.241	14.07
803.416	15.07
803.59	16.55
803.765	20.89
803.94	19.21
804.114	21.97
804.289	21.9
804.463	25.46
804.638	26.39
804.812	25.55
804.986	25.22
805.161	19.66
805.335	17.94
805.51	20.87
805.684	16
805.858	13.58
806.033	11.82
806.207	6.03
806.381	7.64
806.556	8.29
806.73	13.99
806.904	16.83
807.078	18.79
807.253	20.3
807.427	16.7
807.601	17.01
807.775	17.25
807.949	13.83
808.123	16.15
808.298	14.01
808.472	5.94
808.646	1.66
808.82	-2.75
808.994	1.88
809.168	-0.16
809.342	-2.03
809.516	-1.07
809.69	2.94
809.864	7.26
810.038	6.75
810.212	5.83
810.385	15.48
810.559	13.47
810.733	17.86
810.907	14.97
811.081	13.29
811.255	17.58
811.428	14.19
811.602	15.35
811.776	8.41
811.95	7.29
812.123	8.52
812.297	2.96
812.471	4.05
812.644	4.49
812.818	5.46
812.992	5.16
813.165	-0.32
813.339	2.01
813.512	1.77
813.686	3
813.86	6.17
814.033	4.18
814.207	7.87
814.38	7.75
814.554	-1.5
814.727	-7.76
814.9	-1.42
815.074	3.87
815.247	5.03
815.421	3.34
815.594	7.88
815.767	7.38
815.941	1.99
816.114	-4.16
816.287	3.54
816.46	8.14
816.634	12.1
816.807	7
816.98	1.66
817.153	4.07
817.327	-5.47
817.5	-6.65
817.673	-7.59
817.846	-5.84
818.019	-1.97
818.192	-7.08
818.365	-15.8
818.538	-18.08
818.711	-13.15
818.884	-7.48
819.057	-11.53
819.23	-3.74
819.403	-2.84
819.576	-1.19
819.749	4.46
819.922	5.23
820.095	5.43
820.268	13.9
820.441	16.94
820.614	20.52
820.786	18.4
820.959	20.9
821.132	22.31
821.305	24.89
821.477	24.88
821.65	24.31
821.823	27.03
821.996	27.13
822.168	26.7
822.341	26.3
822.514	25.78
822.686	26.47
822.859	25.78
823.031	26.38
823.204	26.57
823.376	27
823.549	27.42
823.722	26.36
823.894	26.92
824.067	26.06
824.239	26.53
824.411	27.55
824.584	27.26
824.756	28.21
824.929	27.46
825.101	25.48
825.273	25.65
825.446	25.65
825.618	25.47
825.79	25.52
825.963	25.97
826.135	26
826.307	25.03
826.479	24.93
826.652	24.13
826.824	24.55
826.996	25.44
827.168	24.02
827.34	24.25
827.512	23.44
827.684	21.32
827.856	21.78
828.029	21.67
828.201	20.65
828.373	19.91
828.545	18.06
828.717	16.44
828.889	19.87
829.061	20.14
829.232	20
829.404	21.81
829.576	24.77
829.748	25.56
829.92	25.05
830.092	28.64
830.264	30.61
830.436	32.36
830.607	34.75
830.779	29.36
830.951	26.36
831.123	26.54
831.294	25.33
831.466	23.79
831.638	22.69
831.809	22.34
831.981	20.57
832.153	21.43
832.324	21.83
832.496	21.03
832.667	18.85
832.839	21.39
833.011	15.67
833.182	15.08
833.354	13.04
833.525	12.06
833.697	12.54
833.868	14.88
834.039	15.64
834.211	15.07
834.382	18.76
834.554	21.32
834.725	23.23
834.896	26.15
835.068	26.37
835.239	28.75
835.41	31.29
835.581	31.21
835.753	29.77
835.924	31.35
836.095	31.83
836.266	28.98
836.438	27.83
836.609	28.58
836.78	23.61
836.951	22.09
837.122	17.42
837.293	16.81
837.464	15.74
837.635	11.31
837.806	8.23
837.977	11.06
838.148	7.08
838.319	3.68
838.49	-0.18
838.661	12.46
838.832	14.69
839.003	23.21
839.174	21.09
839.345	21.8
839.516	23.49
839.687	21.62
839.857	17.14
840.028	21.59
840.199	25.51
840.37	25.83
840.54	22.87
840.711	23.79
840.882	18.55
841.053	13.71
841.223	15.91
841.394	23.74
841.564	19.11
841.735	13.57
841.906	15.6
842.076	11.89
842.247	14.83
842.417	11.4
842.588	3.74
842.758	-7.8
842.929	3.71
843.099	1.79
843.27	-9.19
843.44	-3.18
843.611	0.35
843.781	-23.12
843.951	-32.27
844.122	-43.47
844.292	-27.43
844.462	-42.21
844.633	-22.22
844.803	-25.79
844.973	-28.09
845.144	-42.9
845.314	-56.59
845.484	-31.47
845.654	13.5
845.824	37.64
845.995	38.37
846.165	26.14
846.335	41.35
846.505	38.15
846.675	27.27
846.845	22.13
847.015	13.83
847.185	26.46
847.355	13.34
847.525	-4.64
847.695	-21.39
847.865	-50.82
848.035	-81.49
848.205	-148.16
848.375	-105.8
848.545	-121.18
848.715	-212.07
848.884	-154.72
849.054	-40.69
849.224	-4.24
849.394	17.41
849.564	27.43
849.733	49.5
849.903	46.3
850.073	48.49
850.243	-8.76
850.412	53.54
850.582	44.4
850.752	8.84
850.921	-25.74
851.091	-52.54
851.26	-30.99
851.43	-52.86
851.599	-52.7
851.769	-18.75
851.939	-19.5
852.108	-28.12
852.278	-62.88
852.447	-89.19
852.616	-85.51
852.786	-147.22
852.955	-80.38
853.125	-158.61
853.294	-134.07
853.463	-233.92
853.633	-519.8
853.802	296.75
853.971	326.41
854.141	1802.17
854.31	-183.95
854.479	-51.82
854.648	-20.56
854.818	-39.03
854.987	-63.68
855.156	-16.63
855.325	57.57
855.494	76.24
855.663	67
855.832	57.11
856.001	28.52
856.171	43.08
856.34	31.71
856.509	28.14
856.678	-9.97
856.847	20.38
857.016	1.74
857.185	9.72
857.353	-50.62
857.522	-66.72
857.691	-79.01
857.86	-86.25
858.029	-89.36
858.198	-64.34
858.367	-146.95
858.535	-57.12
858.704	-89.5
858.873	-44.45
859.042	-46.51
859.21	-72.35
859.379	-126.54
859.548	-234.35
859.717	-197.15
859.885	-364.95
860.054	431.69
860.222	359.6
860.391	-532.34
860.56	-171.27
860.728	-286.3
860.897	-281.47
861.065	-222.76
861.234	-169.39
861.402	-161.04
861.571	-151.11
861.739	-248.46
861.908	-212.28
862.076	-158.33
862.244	-58.04
862.413	-130
862.581	-151.51
862.749	20410
862.918	474.15
863.086	446.79
863.254	-368.52
863.423	1255.68
863.591	-141.9
863.759	-66.76
863.927	-19.71
864.096	-231.43
864.264	-78.61
864.432	-103.28
864.6	36.25
864.768	1.08
864.936	0.52
865.104	-49.13
865.272	-109.31
865.44	70.27
865.608	-17.75
865.776	-319.84
865.944	-98.95
866.112	-85.73
866.28	-103.87
866.448	64.34
866.616	45.9
866.784	4.92
866.952	25.09
867.12	155.21
867.288	12.02
867.455	4.62
867.623	-16.19
867.791	-95.58
867.959	-87.88
868.127	-56.77
868.294	-69.35
868.462	-143.55
868.63	-264.4
868.797	-1684.95
868.965	-525.68
869.133	-909.75
869.3	4008.76
869.468	832.69
869.636	687.63
869.803	362.33
869.971	170.45
870.138	152.97
870.306	137.9
870.473	108.35
870.641	120.48
870.808	132.45
870.975	120.74
871.143	97.6
871.31	89.44
871.478	65.1
871.645	65.56
871.812	45.7
871.98	68.83
872.147	84.83
872.314	211.41
872.482	125.72
872.649	73.42
872.816	82.12
872.983	72.44
873.15	78.43
873.318	72.88
873.485	95.32
873.652	154.48
873.819	251.78
873.986	244.23
874.153	290.85
874.32	216.26
874.487	255.13
874.654	630.46
874.821	-221.05
874.988	-1666.02
875.155	-459.86
875.322	-553.22
875.489	-156.36
875.656	-464.78
875.823	-961.14
875.99	980.74
876.157	-518.33
876.324	-659.58
876.49	-265.33
876.657	20104.65
876.824	386.34
876.991	419.6
877.157	835.58
877.324	670.32
877.491	333.82
877.658	441.92
877.824	472.25
877.991	401.09
878.157	366.82
878.324	289.91
878.491	476.41
878.657	-85.76
878.824	-337.42
878.99	3924.07
879.157	380.03
879.323	-1346.43
879.49	-275.42
879.656	-733.95
879.823	-317.45
879.989	-406.8
880.156	3900
880.322	-2428.81
880.488	-805.63
880.655	-694.83
880.821	-235.23
880.987	-141.57
881.154	-86.86
881.32	-93.85
881.486	-46.96
881.652	-39.05
881.819	-15.17
881.985	-7.47
882.151	15.1
882.317	14.97
882.483	19.36
882.649	22.77
882.816	16.52
882.982	16.81
883.148	17.17
883.314	22.08
883.48	20.23
883.646	19.54
883.812	23.25
883.978	21.95
884.144	20.54
884.31	19.14
884.476	19.83
884.642	22.32
884.807	20.89
884.973	19.24
885.139	14.99
885.305	15.46
885.471	18.27
885.637	10.94
885.802	6.95
885.968	9.49
886.134	10.39
886.3	7.15
886.465	2.14
886.631	-2.59
886.797	-4.71
886.962	-18.6
887.128	-32.55
887.293	-29.56
887.459	-11.14
887.625	-20.56
887.79	-49.35
887.956	-70.3
888.121	-64.81
888.287	-61.22
888.452	-64.4
888.618	-63.49
888.783	-25.85
