Data from 2937811_Reflection_2.txt Node
Date: Wed Jul 15 17:46:43 EDT 2015
User: robert
Spectrometer: USB4E03001
Autoset integration time: false
Trigger mode: 4
Integration Time (sec): 1.000000E-1
Scans to average: 10
Electric dark correction enabled: true
Nonlinearity correction enabled: false
Boxcar width: 5
Stray light correction enabled: false
XAxis mode: Wavelengths
Stop averaging: false
Number of Pixels in Spectrum: 3648
>>>>>Begin Spectral Data<<<<<
177.566	105.68
177.785	-4733.33
178.005	58.26
178.225	92.89
178.445	143.22
178.665	262.84
178.885	219.9
179.105	435.07
179.324	974.05
179.544	-113.32
179.764	18.14
179.984	-2.5
180.204	157.14
180.423	442.54
180.643	-3584.06
180.863	-1301.73
181.083	-278.12
181.302	-194.86
181.522	-125.27
181.742	-215.06
181.961	-301.2
182.181	-268.1
182.401	-600.52
182.621	-254.86
182.84	2247.64
183.06	4201.77
183.279	-175.49
183.499	-232.69
183.719	-408.83
183.938	-126.18
184.158	-54.42
184.377	-55.32
184.597	-46.08
184.816	-28.51
185.036	-36
185.256	-23.12
185.475	-33.96
185.695	-51.7
185.914	-54.02
186.134	-37.94
186.353	-34.66
186.572	-30.58
186.792	-23.35
187.011	-11.01
187.231	-29.92
187.45	-38.34
187.67	-36.78
187.889	-26.41
188.108	-50.77
188.328	-27.33
188.547	-24.35
188.766	-12.83
188.986	216.57
189.205	-125.86
189.424	-132.22
189.644	1095.38
189.863	141.4
190.082	-44.38
190.302	191.83
190.521	72.56
190.74	372.42
190.959	-158.57
191.178	-129.44
191.398	412.5
191.617	104.32
191.836	193.76
192.055	258.2
192.274	148.96
192.494	241.48
192.713	333.97
192.932	235.67
193.151	442.59
193.37	2376.94
193.589	430.04
193.808	739.88
194.027	-275.91
194.246	527.42
194.465	731.7
194.685	-416.88
194.904	199.82
195.123	-151.66
195.342	-559.39
195.561	-297.05
195.78	186.81
195.999	151.06
196.218	-322.66
196.436	-28.36
196.655	68.82
196.874	27.07
197.093	12.04
197.312	-1156.89
197.531	917.64
197.75	-75.74
197.969	-12.78
198.188	-18.04
198.407	-25.81
198.625	-48.37
198.844	-846.5
199.063	12329.17
199.282	513.63
199.501	-3543.28
199.719	-92.86
199.938	-71.01
200.157	-613.79
200.376	235.39
200.594	225.26
200.813	248.91
201.032	318.6
201.251	470.73
201.469	1433.97
201.688	4544.38
201.907	-1334.31
202.125	3799.51
202.344	-1006.53
202.563	-359.67
202.781	-107.94
203	-83.84
203.218	-40.41
203.437	-24.72
203.656	-46.12
203.874	-8.49
204.093	-23.6
204.311	-78.97
204.53	-39.19
204.748	-75.87
204.967	-157.92
205.185	-206.46
205.404	-585.63
205.622	-885.78
205.841	-2593.89
206.059	-1549.19
206.278	-976.92
206.496	586.87
206.715	940.71
206.933	460.03
207.151	260.16
207.37	6313.11
207.588	235.91
207.806	75.54
208.025	110.59
208.243	233.07
208.461	542.21
208.68	989.57
208.898	-1048.71
209.116	-271.48
209.335	0.16
209.553	447.19
209.771	77.52
209.989	212.93
210.208	315.17
210.426	302.1
210.644	93.83
210.862	19.38
211.081	22.18
211.299	10.82
211.517	42.51
211.735	48.37
211.953	56.97
212.171	104.72
212.39	50.38
212.608	-8.38
212.826	5.08
213.044	-48.86
213.262	-365.65
213.48	-55.01
213.698	-74500
213.916	-168.96
214.134	-180.13
214.352	-1394.12
214.57	-888.28
214.788	9311
215.006	-3484.14
215.224	1554.41
215.442	3627.8
215.66	1902.58
215.878	617.57
216.096	486.34
216.314	938.52
216.532	566.96
216.75	584.04
216.968	289.32
217.185	182.95
217.403	112.87
217.621	18.11
217.839	13.58
218.057	-355.77
218.275	165.15
218.492	86.01
218.71	52.8
218.928	71.78
219.146	64.36
219.363	64.46
219.581	84.79
219.799	72.1
220.017	28.97
220.234	27.76
220.452	24.18
220.67	-71.73
220.887	137.87
221.105	-7.03
221.323	61.83
221.54	163.7
221.758	49.01
221.976	-205.45
222.193	978.67
222.411	-265.19
222.629	-280.43
222.846	-716.34
223.064	-113.23
223.281	-53.79
223.499	-27.49
223.716	-77.05
223.934	-126.13
224.151	-1692.1
224.369	-3623.14
224.586	-883.38
224.804	314.37
225.021	189.92
225.239	138.09
225.456	69.57
225.674	64.99
225.891	127.55
226.108	88.17
226.326	23.73
226.543	35.5
226.76	3.93
226.978	10.72
227.195	24.44
227.413	21.91
227.63	12.82
227.847	23.08
228.064	26.65
228.282	17.72
228.499	22.34
228.716	25.76
228.934	17.03
229.151	23.83
229.368	30.51
229.585	29.78
229.802	30.26
230.02	31.54
230.237	31.5
230.454	30.79
230.671	29.97
230.888	29.74
231.105	32.75
231.323	37.33
231.54	37.46
231.757	28.98
231.974	27.21
232.191	31.59
232.408	29.63
232.625	30.73
232.842	33.51
233.059	35.13
233.276	39.72
233.493	33.71
233.71	38.68
233.927	38.31
234.144	44.44
234.361	53.66
234.578	40.82
234.795	40.5
235.012	33.26
235.229	33.96
235.446	36.59
235.663	35.92
235.879	32.83
236.096	25.97
236.313	24.54
236.53	17.03
236.747	15.94
236.964	18.27
237.181	16.41
237.397	15.1
237.614	8.88
237.831	-0.84
238.048	2.49
238.264	10.82
238.481	22.22
238.698	25.03
238.915	34.16
239.131	32.74
239.348	34.18
239.565	35.82
239.781	37.31
239.998	37.33
240.215	41.05
240.431	37.23
240.648	32.26
240.865	24.42
241.081	23.36
241.298	20.2
241.514	19.83
241.731	18.75
241.947	18.98
242.164	20.44
242.38	18.63
242.597	18.94
242.814	19.12
243.03	19.32
243.246	20.45
243.463	17.98
243.679	18.88
243.896	17.7
244.112	18.59
244.329	21.1
244.545	22.01
244.762	20.98
244.978	22.02
245.194	26.89
245.411	26.42
245.627	26.89
245.843	28.83
246.06	25.77
246.276	24.42
246.492	24.21
246.709	22.3
246.925	21.07
247.141	23.65
247.357	22.87
247.574	21.46
247.79	21.98
248.006	21.98
248.222	22.33
248.439	24.54
248.655	24.08
248.871	23.38
249.087	23.3
249.303	22.96
249.519	20.01
249.736	20.2
249.952	21.14
250.168	21.4
250.384	21.02
250.6	19.8
250.816	14.99
251.032	14.97
251.248	11.4
251.464	15.25
251.68	15.44
251.896	17.54
252.112	16.07
252.328	14.09
252.544	13.84
252.76	13.64
252.976	13.08
253.192	12.94
253.408	15.18
253.624	19.04
253.84	14.73
254.056	17.06
254.272	16.18
254.487	16.26
254.703	19.87
254.919	19.61
255.135	22.3
255.351	21.54
255.567	20.8
255.782	20.46
255.998	23.04
256.214	25.26
256.43	25.34
256.646	22.86
256.861	24.68
257.077	21.99
257.293	21.72
257.508	19.24
257.724	21.72
257.94	23.09
258.155	23.01
258.371	20.63
258.587	20.41
258.802	19.2
259.018	21.19
259.234	21.55
259.449	21.15
259.665	20.93
259.88	22.43
260.096	20.88
260.312	20.41
260.527	20.16
260.743	20.47
260.958	19.55
261.174	19.41
261.389	20.17
261.605	18.34
261.82	17.12
262.036	16.69
262.251	15.24
262.466	15.59
262.682	14.99
262.897	13.17
263.113	11.77
263.328	12.83
263.543	13.18
263.759	10.3
263.974	11.22
264.189	15.06
264.405	15.44
264.62	13.86
264.835	14.63
265.051	14.55
265.266	18.36
265.481	17.74
265.696	19.01
265.912	20.14
266.127	20.33
266.342	20.11
266.557	18.13
266.773	18.02
266.988	19.34
267.203	17.79
267.418	18.08
267.633	16.45
267.848	16.65
268.064	16.25
268.279	15.03
268.494	14.33
268.709	15.38
268.924	14.65
269.139	14.43
269.354	12.28
269.569	12.81
269.784	13.34
269.999	14.79
270.214	16.21
270.429	15.7
270.644	15.4
270.859	17.56
271.074	18.06
271.289	18.5
271.504	18.17
271.719	17.84
271.934	18.91
272.149	18.18
272.363	17.15
272.578	17.12
272.793	16.3
273.008	16.88
273.223	14.91
273.438	13.63
273.653	13.52
273.867	15.19
274.082	16.72
274.297	15.73
274.512	15.63
274.726	15.42
274.941	15.94
275.156	17.65
275.371	17.32
275.585	17.73
275.8	18.3
276.015	19.99
276.229	17.95
276.444	16.81
276.659	17.13
276.873	18.9
277.088	20.33
277.302	18.35
277.517	16.62
277.732	17.99
277.946	17.23
278.161	20.11
278.375	19.64
278.59	18.95
278.804	19.72
279.019	17.81
279.233	15.05
279.448	11.85
279.662	12.04
279.877	12.86
280.091	12.04
280.306	13.09
280.52	10.91
280.735	9.48
280.949	11.14
281.163	11.66
281.378	12.07
281.592	14.02
281.806	15.53
282.021	17.28
282.235	15.9
282.449	16.26
282.664	16.08
282.878	16.99
283.092	17.39
283.307	17.77
283.521	17.42
283.735	16.75
283.949	13.88
284.164	15.33
284.378	13.99
284.592	17.19
284.806	18.16
285.02	19.64
285.234	18.17
285.449	19.73
285.663	18.92
285.877	19.87
286.091	21.94
286.305	23.88
286.519	22.08
286.733	21.32
286.947	19.7
287.161	18.32
287.375	16.99
287.589	16.95
287.803	15.79
288.017	15.96
288.231	14.78
288.445	13.69
288.659	13.77
288.873	15.28
289.087	17.08
289.301	17.96
289.515	19.99
289.729	20.2
289.943	19.48
290.157	21.42
290.371	21.22
290.584	23.16
290.798	22.79
291.012	21.77
291.226	23.09
291.44	22.69
291.654	22.94
291.867	22.82
292.081	22.08
292.295	24.29
292.509	22.44
292.722	23.37
292.936	21.42
293.15	22.41
293.364	22.89
293.577	23.09
293.791	22.58
294.005	21.08
294.218	16.97
294.432	18.22
294.645	17.08
294.859	17.52
295.073	17.13
295.286	17.4
295.5	15.65
295.713	16.95
295.927	15.29
296.14	16.91
296.354	15.84
296.568	17.79
296.781	17.77
296.994	17.8
297.208	18.62
297.421	19.38
297.635	18.63
297.848	19.4
298.062	18.07
298.275	19.42
298.489	18.23
298.702	20.6
298.915	20.88
299.129	21.36
299.342	22.25
299.555	20.7
299.769	19.76
299.982	20.77
300.195	20.72
300.409	20.84
300.622	18.6
300.835	17.57
301.048	18.15
301.262	17.76
301.475	16.59
301.688	15.52
301.901	15.8
302.115	15.73
302.328	15.15
302.541	17.05
302.754	17.22
302.967	18.37
303.18	21.74
303.393	18.6
303.607	19.79
303.82	20.79
304.033	21.98
304.246	21.52
304.459	20.37
304.672	21.38
304.885	21.46
305.098	22.35
305.311	22.27
305.524	20.79
305.737	22.15
305.95	22.28
306.163	21.75
306.376	19.55
306.589	19.52
306.802	19.13
307.015	16.9
307.228	13.8
307.44	13.32
307.653	14.48
307.866	12.91
308.079	13.91
308.292	14.03
308.505	14.58
308.718	17.43
308.93	18.67
309.143	20.4
309.356	20.56
309.569	23.49
309.781	24.22
309.994	22.97
310.207	24.25
310.42	24.28
310.632	24.14
310.845	24.87
311.058	24.14
311.27	24.2
311.483	24.74
311.696	24.07
311.908	22.13
312.121	20.47
312.333	20.03
312.546	20.63
312.759	19.8
312.971	18.42
313.184	16.74
313.396	16.94
313.609	15.16
313.821	15.29
314.034	17.47
314.246	17.02
314.459	18.87
314.671	18.83
314.884	17.63
315.096	17.35
315.309	16.37
315.521	17.38
315.733	17
315.946	17.66
316.158	17.15
316.371	18.61
316.583	20.53
316.795	21.33
317.008	23.88
317.22	25.12
317.432	26.56
317.644	27.94
317.857	26.31
318.069	24.83
318.281	23.53
318.494	23.07
318.706	22.44
318.918	22.39
319.13	21.29
319.342	21.07
319.555	20.36
319.767	19.23
319.979	18.24
320.191	21.75
320.403	22.3
320.615	24.01
320.827	23.63
321.039	22.34
321.252	21.91
321.464	22.82
321.676	22.42
321.888	23.33
322.1	22.32
322.312	25.02
322.524	23.58
322.736	26.13
322.948	26.78
323.16	26.96
323.372	26.62
323.584	26.21
323.796	24.06
324.007	23.42
324.219	21.46
324.431	21.64
324.643	20.32
324.855	22.46
325.067	21.27
325.279	19.34
325.491	18.49
325.702	17.9
325.914	17.94
326.126	18.64
326.338	16.16
326.55	16.59
326.761	17.17
326.973	18.43
327.185	16.68
327.396	15.22
327.608	17
327.82	17.2
328.032	20.05
328.243	20.29
328.455	21.09
328.666	21.03
328.878	20.28
329.09	19.46
329.301	16.7
329.513	13.82
329.725	13.68
329.936	12.91
330.148	13.71
330.359	12.25
330.571	12.79
330.782	12.1
330.994	14.97
331.205	15.39
331.417	17.22
331.628	17.34
331.84	20.05
332.051	21.26
332.262	21.56
332.474	20.62
332.685	19.44
332.897	19.22
333.108	18.22
333.319	16.14
333.531	16.58
333.742	15.93
333.953	17.4
334.165	16.55
334.376	16.88
334.587	15.73
334.799	16.17
335.01	17.02
335.221	17.87
335.432	18.39
335.644	19.8
335.855	19.07
336.066	18.75
336.277	16.87
336.488	18.09
336.7	17.94
336.911	19.88
337.122	19.64
337.333	20.37
337.544	18.27
337.755	19.81
337.966	19.88
338.177	20.26
338.388	20.08
338.599	21.9
338.811	21.06
339.022	21.41
339.233	20
339.444	19.59
339.655	18.69
339.866	17.66
340.076	16.49
340.287	16.81
340.498	17.42
340.709	18.92
340.92	19.29
341.131	19.1
341.342	18.06
341.553	18.46
341.764	18.1
341.975	17.29
342.185	19.2
342.396	18.93
342.607	18.92
342.818	18.52
343.029	17.18
343.239	16.58
343.45	17.04
343.661	16.44
343.872	17.59
344.082	19.32
344.293	19.66
344.504	19.94
344.714	19.4
344.925	20.83
345.136	22.29
345.346	21.48
345.557	20.91
345.768	20.04
345.978	21.6
346.189	20.32
346.399	19.42
346.61	19.23
346.821	19.17
347.031	20.07
347.242	16.77
347.452	15.5
347.663	17.28
347.873	17.52
348.084	19.5
348.294	19.53
348.504	20.08
348.715	19.8
348.925	20.5
349.136	20.47
349.346	17.39
349.557	19.86
349.767	19.94
349.977	18.27
350.188	19.7
350.398	18.28
350.608	17.12
350.819	16.47
351.029	17.01
351.239	18.36
351.449	18.24
351.66	19.23
351.87	18.79
352.08	18.78
352.29	18.36
352.501	17.02
352.711	16.36
352.921	14.87
353.131	15.19
353.341	14.58
353.552	12.51
353.762	11.24
353.972	13.95
354.182	12.82
354.392	12.62
354.602	13.86
354.812	13.29
355.022	14.92
355.232	16.31
355.442	17.26
355.652	17.89
355.862	17.81
356.072	17.94
356.282	17.51
356.492	17.83
356.702	17.4
356.912	17.13
357.122	18.16
357.332	17.12
357.542	16.63
357.752	16.03
357.962	15.26
358.171	14.78
358.381	15.36
358.591	14.96
358.801	16.06
359.011	15.78
359.221	15.97
359.43	15.82
359.64	15.86
359.85	16.81
360.06	16.08
360.269	16.84
360.479	17.03
360.689	17.35
360.899	16.5
361.108	15.7
361.318	16.49
361.528	15.83
361.737	15.44
361.947	15.4
362.156	15.26
362.366	15.32
362.576	14.92
362.785	14.65
362.995	14.32
363.204	14.66
363.414	14.57
363.623	14.27
363.833	14.1
364.042	14.48
364.252	15.44
364.461	14.59
364.671	15.6
364.88	14.84
365.09	15.01
365.299	16.12
365.509	16.55
365.718	17.18
365.927	16.97
366.137	18.37
366.346	17.48
366.555	16.52
366.765	17.25
366.974	16.48
367.183	17.39
367.393	17.42
367.602	16.06
367.811	15.94
368.021	15.6
368.23	15.91
368.439	14.25
368.648	15.14
368.857	14.62
369.067	14.08
369.276	13.33
369.485	13.29
369.694	13.2
369.903	13.44
370.112	14.19
370.321	14.27
370.531	14.59
370.74	14.61
370.949	13.98
371.158	14.3
371.367	14.26
371.576	14.89
371.785	14.42
371.994	14.7
372.203	14.93
372.412	14.51
372.621	14.1
372.83	13.31
373.039	14.01
373.248	14.61
373.457	14.39
373.666	14.44
373.874	15.34
374.083	15.82
374.292	14.77
374.501	14.57
374.71	14.29
374.919	14.41
375.128	13.66
375.336	14
375.545	13.81
375.754	13.29
375.963	13.12
376.171	11.92
376.38	10.81
376.589	11.6
376.798	11.43
377.006	10.89
377.215	10.66
377.424	11.02
377.632	10.68
377.841	10.64
378.05	11.75
378.258	12.29
378.467	12.28
378.675	12.56
378.884	12.31
379.093	12.36
379.301	12.62
379.51	13
379.718	13.32
379.927	13.69
380.135	13.44
380.344	12.91
380.552	12.96
380.761	12.59
380.969	13.26
381.177	13.28
381.386	13.15
381.594	13.03
381.803	13.86
382.011	13.82
382.219	13.71
382.428	13.74
382.636	13.26
382.845	13.11
383.053	13.43
383.261	12.09
383.469	12.38
383.678	12.72
383.886	12.7
384.094	11.33
384.302	11.63
384.511	11.15
384.719	10.85
384.927	10.74
385.135	10.28
385.343	10.29
385.552	11.04
385.76	10.17
385.968	9.22
386.176	9.22
386.384	9.29
386.592	9.16
386.8	9.06
387.008	9.12
387.216	9.71
387.424	9.38
387.633	9.22
387.841	8.99
388.049	9.47
388.257	9.58
388.465	9.32
388.672	9.15
388.88	8.48
389.088	8.36
389.296	8.22
389.504	7.57
389.712	8.37
389.92	8.68
390.128	8.6
390.336	8.58
390.544	8.97
390.751	9.14
390.959	9.22
391.167	9.26
391.375	9.21
391.583	9.45
391.79	9.29
391.998	8.6
392.206	8.17
392.414	7.94
392.621	7.52
392.829	7.5
393.037	7.25
393.244	7
393.452	7.43
393.66	7.69
393.867	7.53
394.075	7.77
394.283	8.14
394.49	8.25
394.698	8.27
394.905	8.5
395.113	8.1
395.32	8.22
395.528	8.26
395.735	8.03
395.943	7.59
396.15	7.43
396.358	7.73
396.565	7.14
396.773	7.16
396.98	6.94
397.188	6.67
397.395	6.91
397.602	6.37
397.81	6.49
398.017	6
398.225	6.48
398.432	6.46
398.639	6.2
398.847	6.74
399.054	6.75
399.261	7.17
399.468	7.39
399.676	7.4
399.883	7.94
400.09	7.86
400.297	8.17
400.505	8.15
400.712	8.38
400.919	8.54
401.126	8.21
401.333	8
401.54	8.02
401.748	8.34
401.955	8.38
402.162	7.96
402.369	7.95
402.576	8.26
402.783	7.76
402.99	7.65
403.197	7.67
403.404	7.76
403.611	7.81
403.818	7.79
404.025	7.6
404.232	7.48
404.439	7.76
404.646	7.82
404.853	7.5
405.06	7.49
405.267	7.6
405.474	7.4
405.681	7.46
405.887	7.44
406.094	7.16
406.301	7.31
406.508	7.19
406.715	7.41
406.922	7.38
407.128	7.26
407.335	7.43
407.542	7.08
407.749	6.88
407.955	7.14
408.162	7.37
408.369	7.59
408.575	7.18
408.782	7.21
408.989	7.08
409.195	7.15
409.402	7.39
409.609	7.39
409.815	6.93
410.022	7.38
410.228	7.15
410.435	7.16
410.642	7.47
410.848	7.64
411.055	7.99
411.261	7.76
411.468	7.75
411.674	7.53
411.881	7.41
412.087	7.95
412.294	7.4
412.5	7.17
412.706	6.95
412.913	6.56
413.119	6.44
413.326	6.07
413.532	5.96
413.738	6.09
413.945	6.39
414.151	6.45
414.357	6.53
414.564	6.85
414.77	6.79
414.976	6.77
415.182	6.88
415.389	7.13
415.595	7.16
415.801	7.52
416.007	7.39
416.214	7.2
416.42	7.17
416.626	7.21
416.832	7.15
417.038	7.49
417.244	7.41
417.45	7.44
417.657	7.1
417.863	7.1
418.069	6.99
418.275	6.93
418.481	6.81
418.687	6.91
418.893	6.6
419.099	6.5
419.305	6.21
419.511	6.25
419.717	6.29
419.923	6.62
420.129	6.57
420.335	6.58
420.541	6.55
420.746	6.75
420.952	6.66
421.158	6.81
421.364	6.92
421.57	6.94
421.776	6.91
421.982	6.78
422.187	6.57
422.393	6.62
422.599	6.65
422.805	6.68
423.01	6.58
423.216	6.58
423.422	6.55
423.628	6.46
423.833	6.49
424.039	6.48
424.245	6.62
424.45	6.57
424.656	6.52
424.862	6.49
425.067	6.51
425.273	6.46
425.478	6.38
425.684	6.41
425.889	6.41
426.095	6.26
426.301	6.27
426.506	6.12
426.712	6.42
426.917	6.55
427.123	6.39
427.328	6.27
427.533	6.35
427.739	6.52
427.944	6.41
428.15	6.58
428.355	6.72
428.561	6.6
428.766	6.34
428.971	5.85
429.177	5.65
429.382	5.77
429.587	5.76
429.793	5.55
429.998	5.51
430.203	5.37
430.408	5.18
430.614	5.35
430.819	5.56
431.024	5.71
431.229	5.9
431.434	6.09
431.64	6.15
431.845	6.33
432.05	6.44
432.255	6.41
432.46	6.55
432.665	6.59
432.87	6.49
433.076	6.48
433.281	6.64
433.486	6.58
433.691	6.42
433.896	6.33
434.101	6.44
434.306	6.5
434.511	6.48
434.716	6.53
434.921	6.5
435.126	6.46
435.331	6.42
435.535	6.5
435.74	6.51
435.945	6.51
436.15	6.66
436.355	6.4
436.56	6.47
436.765	6.56
436.97	6.31
437.174	6.52
437.379	6.69
437.584	6.72
437.789	6.5
437.993	6.57
438.198	6.5
438.403	6.32
438.608	6.38
438.812	6.22
439.017	6.14
439.222	6.37
439.426	6.04
439.631	5.85
439.836	5.78
440.04	5.77
440.245	5.83
440.45	5.92
440.654	5.88
440.859	5.86
441.063	6.03
441.268	6.18
441.472	6.24
441.677	6.42
441.881	6.57
442.086	6.61
442.29	6.8
442.495	6.71
442.699	6.82
442.904	6.84
443.108	6.87
443.312	6.73
443.517	6.51
443.721	6.21
443.925	6.29
444.13	6.17
444.334	6.28
444.538	5.84
444.743	5.9
444.947	5.63
445.151	5.69
445.356	5.81
445.56	5.75
445.764	5.78
445.968	5.85
446.173	5.84
446.377	5.76
446.581	5.82
446.785	6.13
446.989	6.17
447.193	6.27
447.398	6.38
447.602	6.26
447.806	6.51
448.01	6.51
448.214	6.48
448.418	6.55
448.622	6.62
448.826	6.49
449.03	6.39
449.234	6.32
449.438	6.35
449.642	6.47
449.846	6.54
450.05	6.34
450.254	6.36
450.458	6.63
450.662	6.4
450.866	6.3
451.069	6.32
451.273	6.26
451.477	6.33
451.681	6.15
451.885	5.94
452.089	5.78
452.292	5.84
452.496	5.94
452.7	5.92
452.904	5.8
453.107	5.97
453.311	5.9
453.515	5.98
453.719	5.86
453.922	5.93
454.126	5.76
454.33	5.65
454.533	5.6
454.737	5.4
454.94	5.34
455.144	5.53
455.348	5.67
455.551	5.51
455.755	5.48
455.958	5.6
456.162	5.84
456.365	5.88
456.569	5.95
456.772	5.95
456.976	6.16
457.179	6.18
457.383	6.17
457.586	6.05
457.79	5.93
457.993	5.95
458.196	5.93
458.4	5.94
458.603	5.86
458.807	5.96
459.01	5.94
459.213	5.73
459.417	5.59
459.62	5.57
459.823	5.55
460.026	5.62
460.23	5.71
460.433	5.71
460.636	5.56
460.839	5.56
461.042	5.59
461.246	5.51
461.449	5.52
461.652	5.67
461.855	5.75
462.058	5.8
462.261	5.97
462.464	5.82
462.668	5.68
462.871	5.86
463.074	6.1
463.277	5.97
463.48	5.99
463.683	6.12
463.886	6.11
464.089	6
464.292	6.03
464.495	5.93
464.698	5.9
464.901	6.07
465.104	5.86
465.306	5.73
465.509	5.78
465.712	5.93
465.915	6.01
466.118	5.87
466.321	5.84
466.524	5.74
466.726	5.93
466.929	5.96
467.132	5.85
467.335	5.92
467.538	6.1
467.74	6.16
467.943	6
468.146	5.74
468.348	5.87
468.551	5.86
468.754	5.82
468.956	5.74
469.159	5.75
469.362	5.69
469.564	5.7
469.767	5.35
469.969	5.37
470.172	5.27
470.375	5.6
470.577	5.63
470.78	5.67
470.982	5.6
471.185	5.79
471.387	5.7
471.59	5.82
471.792	5.85
471.995	5.97
472.197	5.83
472.399	6.31
472.602	6.39
472.804	6.48
473.007	6.53
473.209	6.76
473.411	6.55
473.614	6.73
473.816	6.86
474.018	6.93
474.22	7.05
474.423	6.98
474.625	6.64
474.827	6.36
475.03	6
475.232	6.29
475.434	6.16
475.636	6.07
475.838	6.07
476.04	5.8
476.243	5.65
476.445	5.81
476.647	5.95
476.849	5.99
477.051	6.08
477.253	6.22
477.455	5.96
477.657	5.93
477.859	6.15
478.061	6.11
478.263	6.16
478.465	6.15
478.667	6.12
478.869	6.12
479.071	6.13
479.273	5.91
479.475	5.98
479.677	6.01
479.879	6
480.081	5.97
480.283	5.83
480.485	5.92
480.686	5.94
480.888	5.76
481.09	5.76
481.292	5.71
481.494	5.71
481.695	5.71
481.897	5.65
482.099	5.67
482.301	5.52
482.502	5.5
482.704	5.45
482.906	5.44
483.107	5.43
483.309	5.35
483.511	5.4
483.712	5.5
483.914	5.48
484.115	5.46
484.317	5.45
484.519	5.47
484.72	5.45
484.922	5.54
485.123	5.56
485.325	5.59
485.526	5.71
485.728	5.69
485.929	5.63
486.131	5.71
486.332	5.75
486.534	5.71
486.735	5.74
486.936	5.84
487.138	5.73
487.339	5.73
487.541	5.76
487.742	5.67
487.943	5.67
488.144	5.71
488.346	5.62
488.547	5.56
488.748	5.63
488.95	5.66
489.151	5.6
489.352	5.61
489.553	5.67
489.755	5.61
489.956	5.61
490.157	5.54
490.358	5.48
490.559	5.61
490.76	5.62
490.961	5.64
491.163	5.59
491.364	5.6
491.565	5.65
491.766	5.64
491.967	5.7
492.168	5.68
492.369	5.77
492.57	5.82
492.771	5.75
492.972	5.72
493.173	5.69
493.374	5.69
493.575	5.81
493.776	5.75
493.976	5.62
494.177	5.59
494.378	5.65
494.579	5.56
494.78	5.51
494.981	5.35
495.182	5.51
495.382	5.57
495.583	5.68
495.784	5.47
495.985	5.49
496.185	5.57
496.386	5.49
496.587	5.51
496.788	5.57
496.988	5.55
497.189	5.7
497.39	5.71
497.59	5.7
497.791	5.6
497.992	5.77
498.192	5.78
498.393	5.88
498.593	5.92
498.794	5.85
498.994	5.85
499.195	5.94
499.395	6.27
499.596	6.27
499.796	6.41
499.997	6.39
500.197	6.41
500.398	6.34
500.598	6.28
500.799	6.34
500.999	6.45
501.199	6.52
501.4	6.39
501.6	6.07
501.801	6.02
502.001	5.79
502.201	5.85
502.402	5.8
502.602	5.88
502.802	5.91
503.002	6
503.203	5.92
503.403	5.83
503.603	5.86
503.803	5.85
504.003	5.95
504.204	5.93
504.404	6.03
504.604	6.07
504.804	5.97
505.004	5.92
505.204	5.8
505.404	6.01
505.604	6.08
505.804	6.1
506.005	6.12
506.205	6.07
506.405	6.22
506.605	6.09
506.805	6.22
507.005	6.4
507.204	6.58
507.404	6.68
507.604	6.51
507.804	6.47
508.004	6.6
508.204	6.41
508.404	6.4
508.604	6.31
508.804	6.55
509.003	6.28
509.203	6.21
509.403	6.07
509.603	6.08
509.803	6.28
510.002	6.27
510.202	6.31
510.402	6.33
510.602	6.32
510.801	6.39
511.001	6.16
511.201	6.35
511.4	6.4
511.6	6.4
511.8	6.3
511.999	6.16
512.199	6.14
512.398	6.01
512.598	6.13
512.797	6.07
512.997	6.01
513.197	6.1
513.396	6.07
513.596	6.12
513.795	6.16
513.994	6.26
514.194	6.23
514.393	6.41
514.593	6.46
514.792	6.51
514.992	6.81
515.191	6.82
515.39	6.81
515.59	6.87
515.789	6.8
515.988	6.91
516.188	6.9
516.387	6.98
516.586	6.74
516.786	6.79
516.985	7.06
517.184	6.9
517.383	6.96
517.582	7.02
517.782	6.94
517.981	6.97
518.18	6.86
518.379	6.89
518.578	6.86
518.777	7.01
518.976	6.96
519.176	6.83
519.375	6.97
519.574	6.94
519.773	6.83
519.972	6.81
520.171	6.92
520.37	6.87
520.569	6.89
520.768	6.97
520.967	6.94
521.166	6.97
521.365	6.79
521.564	6.83
521.762	6.75
521.961	6.83
522.16	7
522.359	6.86
522.558	7
522.757	7.02
522.956	7.02
523.154	6.97
523.353	7.06
523.552	7.26
523.751	7
523.949	7.15
524.148	7.14
524.347	7.11
524.546	7.24
524.744	7.23
524.943	7.19
525.142	7.22
525.34	7.33
525.539	7.31
525.737	7.29
525.936	7.38
526.135	7.46
526.333	7.52
526.532	7.6
526.73	7.65
526.929	7.61
527.127	7.66
527.326	7.65
527.524	7.68
527.723	7.69
527.921	7.72
528.12	7.8
528.318	7.76
528.516	7.75
528.715	7.71
528.913	7.68
529.112	7.72
529.31	7.7
529.508	7.7
529.707	7.71
529.905	7.72
530.103	7.74
530.301	7.71
530.5	7.74
530.698	7.86
530.896	7.81
531.094	7.79
531.293	7.86
531.491	7.93
531.689	8.02
531.887	8.02
532.085	8.1
532.283	8.15
532.481	8.16
532.68	8.18
532.878	8.08
533.076	8.26
533.274	8.38
533.472	8.39
533.67	8.42
533.868	8.39
534.066	8.38
534.264	8.46
534.462	8.42
534.66	8.38
534.858	8.41
535.056	8.51
535.253	8.5
535.451	8.41
535.649	8.44
535.847	8.55
536.045	8.57
536.243	8.63
536.441	8.55
536.638	8.64
536.836	8.81
537.034	8.9
537.232	8.88
537.43	8.89
537.627	9.05
537.825	9.04
538.023	9.04
538.22	9.19
538.418	9.28
538.616	9.39
538.813	9.46
539.011	9.53
539.209	9.48
539.406	9.57
539.604	9.79
539.801	9.81
539.999	9.98
540.196	9.98
540.394	9.95
540.591	10.02
540.789	10.08
540.986	10.05
541.184	10
541.381	10.13
541.579	10.14
541.776	10.09
541.974	10.1
542.171	10.05
542.368	10.08
542.566	10.15
542.763	10.17
542.96	10.16
543.158	10.24
543.355	10.28
543.552	10.31
543.75	10.34
543.947	10.36
544.144	10.47
544.341	10.58
544.539	10.7
544.736	10.7
544.933	10.68
545.13	10.71
545.327	10.68
545.524	10.89
545.722	10.84
545.919	10.98
546.116	11.05
546.313	10.92
546.51	10.92
546.707	10.89
546.904	11.07
547.101	11.14
547.298	11.15
547.495	11.39
547.692	11.32
547.889	11.35
548.086	11.45
548.283	11.56
548.48	11.81
548.677	11.98
548.874	12.1
549.07	12.11
549.267	12.23
549.464	12.47
549.661	12.39
549.858	12.49
550.055	12.71
550.251	12.92
550.448	12.98
550.645	12.86
550.842	12.93
551.038	12.98
551.235	12.98
551.432	13.02
551.628	12.92
551.825	12.93
552.022	13.03
552.218	13.29
552.415	13.34
552.612	13.26
552.808	13.44
553.005	13.39
553.201	13.59
553.398	13.83
553.594	13.85
553.791	14.14
553.987	14.26
554.184	14.15
554.38	13.95
554.577	13.8
554.773	13.98
554.97	14.14
555.166	14.35
555.362	14.29
555.559	14.15
555.755	14.26
555.952	14.09
556.148	14.1
556.344	14.46
556.541	14.68
556.737	14.7
556.933	14.92
557.129	14.65
557.326	14.61
557.522	14.74
557.718	14.88
557.914	14.86
558.11	15.24
558.307	15.47
558.503	15.44
558.699	15.42
558.895	15.58
559.091	15.6
559.287	15.91
559.483	16.26
559.679	16.51
559.876	16.66
560.072	16.88
560.268	16.89
560.464	16.62
560.66	16.69
560.856	16.94
561.052	17.04
561.247	17.12
561.443	17.18
561.639	17.17
561.835	17.11
562.031	16.99
562.227	17.06
562.423	17.13
562.619	17.55
562.815	17.69
563.01	17.54
563.206	17.67
563.402	17.63
563.598	17.74
563.793	17.77
563.989	17.86
564.185	18.12
564.381	18.15
564.576	18.25
564.772	18.32
564.968	18.48
565.163	18.73
565.359	18.7
565.555	18.67
565.75	18.72
565.946	18.72
566.141	18.76
566.337	18.95
566.532	18.99
566.728	18.81
566.923	18.76
567.119	18.79
567.314	18.78
567.51	18.84
567.705	19.08
567.901	19.13
568.096	19.09
568.292	19.04
568.487	19.01
568.682	19.32
568.878	19.4
569.073	19.51
569.268	19.48
569.464	19.39
569.659	19.44
569.854	19.44
570.05	19.46
570.245	19.56
570.44	19.63
570.635	19.65
570.831	19.56
571.026	19.62
571.221	19.55
571.416	19.64
571.611	19.63
571.806	19.64
572.002	19.57
572.197	19.75
572.392	19.84
572.587	19.83
572.782	19.79
572.977	19.86
573.172	20.05
573.367	20.22
573.562	20.32
573.757	20.58
573.952	20.55
574.147	20.49
574.342	20.59
574.537	20.67
574.732	20.82
574.927	20.95
575.121	20.97
575.316	20.99
575.511	20.99
575.706	20.98
575.901	20.96
576.096	21.2
576.29	21.38
576.485	21.4
576.68	21.51
576.875	21.49
577.069	21.51
577.264	21.32
577.459	21.16
577.654	21.19
577.848	21.17
578.043	21.1
578.238	21.01
578.432	21.28
578.627	21.19
578.821	21.04
579.016	21.3
579.21	21.25
579.405	21.64
579.6	21.8
579.794	21.93
579.989	22.1
580.183	22.54
580.378	22.7
580.572	22.64
580.766	22.74
580.961	22.72
581.155	22.72
581.35	22.76
581.544	22.87
581.738	22.86
581.933	23.01
582.127	22.97
582.321	22.51
582.516	22.38
582.71	22.33
582.904	22.29
583.099	22.37
583.293	22.18
583.487	22.17
583.681	22.1
583.875	21.92
584.07	21.8
584.264	21.9
584.458	21.98
584.652	21.95
584.846	22.07
585.04	21.88
585.234	21.95
585.428	21.93
585.623	21.94
585.817	21.86
586.011	22.12
586.205	21.98
586.399	21.69
586.593	21.79
586.787	22.17
586.981	22.16
587.174	22.43
587.368	22.38
587.562	22.39
587.756	22.42
587.95	22.4
588.144	22.48
588.338	22.82
588.532	22.89
588.725	22.94
588.919	22.77
589.113	22.95
589.307	23.04
589.501	23.07
589.694	22.79
589.888	22.92
590.082	23.09
590.275	23.17
590.469	22.97
590.663	23.03
590.856	23.13
591.05	22.96
591.244	22.62
591.437	22.17
591.631	22.27
591.824	22.55
592.018	22.42
592.212	22.24
592.405	22.3
592.599	22.35
592.792	22.56
592.986	22.55
593.179	22.64
593.372	22.89
593.566	23.12
593.759	22.92
593.953	23.24
594.146	23.24
594.339	23.12
594.533	23.04
594.726	23.11
594.92	22.86
595.113	22.93
595.306	23.11
595.499	23.41
595.693	23.54
595.886	23.72
596.079	23.4
596.272	23.53
596.466	23.76
596.659	23.73
596.852	23.76
597.045	23.65
597.238	23.46
597.431	23.44
597.624	23.31
597.818	23.55
598.011	23.64
598.204	23.84
598.397	24.04
598.59	24.03
598.783	24.2
598.976	24.14
599.169	24.37
599.362	24.34
599.555	24.44
599.748	24.34
599.941	23.8
600.134	23.61
600.326	23.6
600.519	23.21
600.712	23.12
600.905	23.05
601.098	22.94
601.291	23.13
601.483	23.27
601.676	23.37
601.869	23.3
602.062	23.52
602.255	23.54
602.447	23.66
602.64	23.64
602.833	23.5
603.025	23.37
603.218	23.62
603.411	23.54
603.603	23.76
603.796	23.75
603.989	23.86
604.181	23.96
604.374	24.01
604.566	23.88
604.759	23.95
604.951	24.01
605.144	24.31
605.336	24.24
605.529	24.32
605.721	24.21
605.914	24.22
606.106	24.2
606.299	24.16
606.491	23.98
606.683	23.91
606.876	23.97
607.068	24.09
607.26	23.74
607.453	23.69
607.645	23.68
607.837	23.9
608.03	23.86
608.222	23.84
608.414	23.8
608.606	24.02
608.799	24.07
608.991	23.97
609.183	24.15
609.375	24.06
609.567	24.02
609.759	23.91
609.952	23.94
610.144	23.78
610.336	23.92
610.528	24.02
610.72	24.29
610.912	24.29
611.104	24.48
611.296	24.2
611.488	24.68
611.68	24.95
611.872	25.13
612.064	24.85
612.256	25.12
612.448	24.91
612.64	24.69
612.832	24.62
613.023	24.77
613.215	24.86
613.407	25.05
613.599	24.72
613.791	24.9
613.983	24.79
614.174	25.02
614.366	24.72
614.558	24.29
614.75	24.41
614.941	24.42
615.133	24.31
615.325	24.33
615.516	24.42
615.708	24.7
615.9	24.25
616.091	24.09
616.283	24.04
616.475	24.42
616.666	24.86
616.858	25
617.049	24.69
617.241	24.76
617.432	24.38
617.624	24.38
617.815	24.09
618.007	24.25
618.198	24.21
618.39	24.03
618.581	23.57
618.773	23.75
618.964	23.57
619.155	23.75
619.347	23.78
619.538	23.67
619.729	23.59
619.921	23.82
620.112	24
620.303	24.46
620.494	24.75
620.686	25.06
620.877	24.91
621.068	25.2
621.259	25.18
621.451	25.21
621.642	25.68
621.833	25.99
622.024	25.57
622.215	25.62
622.406	25.18
622.597	25.24
622.788	25.36
622.98	25.6
623.171	25.39
623.362	25.52
623.553	25.67
623.744	25.8
623.935	25.76
624.126	25.97
624.317	25.71
624.508	25.91
624.698	25.77
624.889	25.73
625.08	25.34
625.271	25.51
625.462	25.38
625.653	25.21
625.844	25
626.034	24.91
626.225	25.18
626.416	25.33
626.607	25.43
626.798	25.65
626.988	25.64
627.179	25.95
627.37	25.5
627.56	25.56
627.751	25.59
627.942	25.48
628.132	25.39
628.323	25.31
628.514	25.04
628.704	24.96
628.895	24.63
629.085	24.79
629.276	24.81
629.466	25.16
629.657	25.39
629.847	25.65
630.038	26.18
630.228	26.23
630.419	26.17
630.609	26.39
630.8	26.38
630.99	26.44
631.181	26.18
631.371	25.89
631.561	26.21
631.752	25.71
631.942	25.62
632.132	25.25
632.323	25.28
632.513	25.05
632.703	25.13
632.893	24.86
633.084	24.93
633.274	24.86
633.464	25.06
633.654	24.81
633.844	25.21
634.034	25.1
634.225	25.09
634.415	24.92
634.605	25.2
634.795	25.13
634.985	25.14
635.175	25.06
635.365	25.34
635.555	25.46
635.745	25.38
635.935	25.17
636.125	25.2
636.315	25.44
636.505	25.47
636.695	25.37
636.885	25.28
637.075	25.6
637.265	25.78
637.455	25.95
637.644	25.95
637.834	26.16
638.024	26.06
638.214	26.12
638.404	25.93
638.593	26.03
638.783	25.99
638.973	25.96
639.163	25.9
639.352	25.53
639.542	25.51
639.732	25.62
639.921	25.74
640.111	25.78
640.301	25.68
640.49	25.57
640.68	25.81
640.87	25.93
641.059	25.97
641.249	25.99
641.438	25.95
641.628	25.54
641.817	24.84
642.007	24.74
642.196	24.75
642.386	24.82
642.575	24.71
642.764	24.44
642.954	24.57
643.143	24.48
643.333	24.17
643.522	24.27
643.711	24.36
643.901	24.78
644.09	24.3
644.279	24.61
644.469	24.36
644.658	24.73
644.847	24.99
645.036	24.99
645.226	25.39
645.415	25.76
645.604	26.15
645.793	26.32
645.982	26.41
646.171	26.72
646.361	26.57
646.55	26.84
646.739	26.69
646.928	26.4
647.117	26.39
647.306	25.91
647.495	25.91
647.684	25.74
647.873	25.17
648.062	24.98
648.251	25.01
648.44	25.02
648.629	24.82
648.818	24.73
649.007	24.49
649.196	24.5
649.384	24.38
649.573	24.55
649.762	24.33
649.951	24.6
650.14	24.44
650.328	24.4
650.517	24.2
650.706	24.45
650.895	24.35
651.083	24.84
651.272	24.58
651.461	25.02
651.65	24.86
651.838	24.88
652.027	24.72
652.216	25
652.404	24.91
652.593	25.22
652.781	24.95
652.97	24.99
653.158	25.06
653.347	25.21
653.535	25.06
653.724	24.72
653.912	25.17
654.101	25.99
654.289	25.98
654.478	26.33
654.666	26.27
654.855	26.16
655.043	26.06
655.231	25.79
655.42	25.89
655.608	26.15
655.796	26.37
655.985	26.31
656.173	25.21
656.361	25.75
656.55	25.72
656.738	25.83
656.926	26.25
657.114	26.06
657.302	26.19
657.491	25.98
657.679	26.06
657.867	26.34
658.055	26.32
658.243	27.07
658.431	26.57
658.619	25.96
658.807	25.68
658.996	25.36
659.184	25.7
659.372	25.63
659.56	25.81
659.748	25.57
659.936	25.32
660.124	25.31
660.311	25.05
660.499	25.3
660.687	25.96
660.875	25.82
661.063	26.11
661.251	25.9
661.439	26.01
661.627	26.06
661.814	26.18
662.002	26.63
662.19	26.65
662.378	26.8
662.565	26.58
662.753	26.05
662.941	25.96
663.129	26.08
663.316	26.65
663.504	26.2
663.692	25.89
663.879	26.31
664.067	26.4
664.254	26.35
664.442	25.82
664.63	26.05
664.817	26.4
665.005	26.6
665.192	26.64
665.38	26.07
665.567	26.2
665.755	26.4
665.942	25.91
666.13	25.76
666.317	25.69
666.504	25.95
666.692	25.63
666.879	25.63
667.067	26.06
667.254	25.78
667.441	26.13
667.629	26.88
667.816	26.54
668.003	27.03
668.19	27.02
668.378	27.22
668.565	26.58
668.752	26.63
668.939	26.55
669.127	26.44
669.314	26.68
669.501	26.86
669.688	26.41
669.875	26.67
670.062	25.92
670.249	25.64
670.436	25.74
670.623	26.66
670.81	26.49
670.997	26.88
671.184	26.44
671.371	27.07
671.558	27.33
671.745	27.28
671.932	27.21
672.119	27.53
672.306	27.39
672.493	27.26
672.68	26.5
672.867	25.96
673.054	25.12
673.24	26.07
673.427	24.51
673.614	23.77
673.801	23.65
673.988	24.05
674.174	24.1
674.361	24.28
674.548	24.64
674.734	25.43
674.921	26.56
675.108	26.7
675.294	25.64
675.481	26.1
675.668	26.33
675.854	26.27
676.041	25.59
676.227	25.82
676.414	26.02
676.601	25.69
676.787	25.44
676.974	25.2
677.16	25.48
677.347	26.09
677.533	26.35
677.719	26.31
677.906	26.7
678.092	26.42
678.279	26.02
678.465	25.66
678.651	25.56
678.838	25.63
679.024	25.59
679.21	25.37
679.397	25.56
679.583	25.34
679.769	25.08
679.955	25.08
680.142	25.37
680.328	25.28
680.514	25.48
680.7	25.48
680.886	25.39
681.073	25.57
681.259	25.68
681.445	25.75
681.631	26.22
681.817	26.69
682.003	26.28
682.189	26.36
682.375	26.98
682.561	27.3
682.747	26.99
682.933	27.17
683.119	27.05
683.305	27.51
683.491	27.5
683.677	27.55
683.863	27.83
684.049	28.22
684.235	28.33
684.42	27.71
684.606	27.41
684.792	27.48
684.978	27.61
685.164	27.61
685.349	27.33
685.535	26.91
685.721	26.46
685.907	26
686.092	26.04
686.278	26.15
686.464	26.3
686.649	25.48
686.835	25.78
687.021	25.63
687.206	25.14
687.392	25.52
687.577	25.51
687.763	25.35
687.948	24.83
688.134	25.21
688.319	25.98
688.505	25.74
688.69	26.43
688.876	26.31
689.061	26.02
689.247	26.53
689.432	26.31
689.618	26.84
689.803	27.2
689.988	27.45
690.174	27.42
690.359	26.66
690.544	27.07
690.73	27.39
690.915	27.1
691.1	27.86
691.285	28.22
691.471	28.02
691.656	27.61
691.841	27.52
692.026	27.72
692.211	27.45
692.396	27.94
692.582	28.16
692.767	27.85
692.952	28.14
693.137	27.71
693.322	26.76
693.507	26.43
693.692	26.5
693.877	26.56
694.062	26.74
694.247	26.69
694.432	26.04
694.617	25.73
694.802	25.66
694.987	25.78
695.172	25.44
695.357	26.13
695.541	26.61
695.726	26.09
695.911	25.8
696.096	26.12
696.281	25.9
696.466	26.06
696.65	26.15
696.835	26.25
697.02	26.22
697.204	26.98
697.389	26.91
697.574	26.78
697.759	26.77
697.943	27.13
698.128	27.32
698.312	27.52
698.497	27.58
698.682	27.88
698.866	28.5
699.051	28.71
699.235	28.46
699.42	28.56
699.604	28.43
699.789	29.23
699.973	29.02
700.158	28.82
700.342	28.45
700.527	28.24
700.711	28.06
700.895	27.3
701.08	27.5
701.264	27.51
701.448	27.08
701.633	27.55
701.817	27.03
702.001	27.14
702.186	26.29
702.37	26.33
702.554	26.59
702.738	26.37
702.923	26.39
703.107	25.49
703.291	25.13
703.475	25.55
703.659	25.56
703.843	25.35
704.027	24.99
704.212	25.03
704.396	25.02
704.58	24.83
704.764	24.28
704.948	24.1
705.132	24.19
705.316	24.68
705.5	24.83
705.684	24.96
705.868	24.88
706.052	25.27
706.235	25.74
706.419	25.88
706.603	26.52
706.787	26.67
706.971	27.36
707.155	28.39
707.339	27.59
707.522	27.13
707.706	26.88
707.89	26.56
708.074	26.41
708.257	26.53
708.441	26.72
708.625	26.33
708.808	26.93
708.992	27.03
709.176	26.77
709.359	27.66
709.543	28.01
709.727	27.71
709.91	28.74
710.094	28.98
710.277	29.09
710.461	29.33
710.644	28.93
710.828	28.19
711.011	27.87
711.195	26.86
711.378	26.88
711.562	26.36
711.745	26.51
711.928	26.39
712.112	26.32
712.295	26.96
712.478	26.49
712.662	27.16
712.845	27.58
713.028	26.62
713.212	27.77
713.395	27.57
713.578	27.92
713.761	28.45
713.945	26.92
714.128	26.55
714.311	25.71
714.494	25.64
714.677	25.09
714.86	25.81
715.043	26.16
715.227	25.85
715.41	25.81
715.593	25.95
715.776	26.16
715.959	27.28
716.142	27.31
716.325	27.36
716.508	27.32
716.691	27.32
716.874	27.04
717.057	27.34
717.239	28.36
717.422	28.01
717.605	27.67
717.788	27.3
717.971	27.29
718.154	27.77
718.337	28.77
718.519	29.13
718.702	29.14
718.885	28.66
719.068	29.35
719.25	28.15
719.433	27.46
719.616	27.79
719.798	27.82
719.981	27.99
720.164	27.54
720.346	26.8
720.529	26.89
720.712	27.18
720.894	27.87
721.077	27.48
721.259	27.21
721.442	27.67
721.624	27.98
721.807	27
721.989	27.45
722.172	27.88
722.354	27.33
722.537	27.21
722.719	26.82
722.901	26.3
723.084	26.21
723.266	25.23
723.448	25.65
723.631	24.69
723.813	25.05
723.995	23.85
724.178	24.08
724.36	25.39
724.542	24.58
724.724	25.69
724.907	25.19
725.089	25.14
725.271	26.16
725.453	25.38
725.635	26.37
725.817	26.38
725.999	27.09
726.181	26.31
726.364	25.26
726.546	24.71
726.728	23.61
726.91	23.99
727.092	23.58
727.274	22.82
727.456	23.92
727.638	23.57
727.819	24.1
728.001	23.5
728.183	23.6
728.365	24.08
728.547	25.1
728.729	26.15
728.911	27.31
729.093	27.92
729.274	29.39
729.456	29.01
729.638	28.61
729.82	28.11
730.001	28.4
730.183	28.54
730.365	27.72
730.546	28.34
730.728	28.2
730.91	27.14
731.091	27.1
731.273	25.77
731.455	26.45
731.636	27.01
731.818	27.21
731.999	27
732.181	28.21
732.362	28.72
732.544	29.23
732.725	29.09
732.907	29.3
733.088	29.56
733.27	29.79
733.451	29.77
733.633	29.94
733.814	30.5
733.995	31.21
734.177	30.56
734.358	30.77
734.539	30.57
734.721	30.77
734.902	30.58
735.083	30.31
735.264	29.4
735.446	29.76
735.627	29.44
735.808	28.64
735.989	27.41
736.17	27.69
736.351	26.44
736.533	26.27
736.714	25.39
736.895	25.87
737.076	26.14
737.257	28.21
737.438	27.3
737.619	27.03
737.8	26.12
737.981	27.71
738.162	27.44
738.343	28.61
738.524	28.47
738.705	28.85
738.886	27.85
739.067	28.36
739.247	28.09
739.428	29.18
739.609	29.62
739.79	30.56
739.971	29.78
740.151	28.76
740.332	28.88
740.513	27.38
740.694	27.31
740.874	27.71
741.055	26.54
741.236	26.06
741.417	25.14
741.597	25.11
741.778	24.3
741.958	23.57
742.139	24.23
742.32	22.43
742.5	24.58
742.681	25.61
742.861	25.41
743.042	26.7
743.222	26.01
743.403	24.81
743.583	25.83
743.764	26.17
743.944	27.61
744.124	27.71
744.305	28.89
744.485	29.03
744.666	28.47
744.846	28.81
745.026	28.84
745.207	29.58
745.387	30.15
745.567	29.64
745.747	29.49
745.928	28.18
746.108	28.55
746.288	28.37
746.468	28.31
746.648	27.84
746.829	28.16
747.009	27.81
747.189	27.45
747.369	29.26
747.549	27.89
747.729	29.22
747.909	29.58
748.089	30.16
748.269	29.42
748.449	28.93
748.629	29.37
748.809	30.3
748.989	29.4
749.169	28.64
749.349	27.15
749.529	27.88
749.709	27.18
749.889	27.42
750.068	27.04
750.248	28.47
750.428	26.94
750.608	25.76
750.788	25.72
750.967	27.09
751.147	28.15
751.327	29.81
751.507	29.53
751.686	28.42
751.866	29.77
752.046	30.69
752.225	30.59
752.405	31.2
752.585	31.71
752.764	30.74
752.944	30.1
753.123	30.37
753.303	27.19
753.482	27.58
753.662	28.99
753.841	27.73
754.021	26.24
754.2	25.76
754.38	26.38
754.559	26.35
754.739	26.59
754.918	25.35
755.097	23.79
755.277	24.91
755.456	25.07
755.635	25.09
755.815	26.14
755.994	25.12
756.173	26.7
756.352	26.68
756.532	26.67
756.711	26.3
756.89	27.31
757.069	29.28
757.248	30.11
757.427	30.36
757.607	31.69
757.786	29.83
757.965	31.11
758.144	29.41
758.323	29.31
758.502	29.12
758.681	28.64
758.86	27.63
759.039	25.56
759.218	26.3
759.397	25.44
759.576	23.77
759.755	23.77
759.934	23.2
760.113	23.39
760.291	24.01
760.47	24.69
760.649	23.85
760.828	23.3
761.007	24.85
761.186	23.66
761.364	23.97
761.543	24.52
761.722	25.88
761.901	26.7
762.079	27.15
762.258	27.73
762.437	27.32
762.615	27.87
762.794	29.25
762.972	29.54
763.151	29.64
763.33	29.11
763.508	29.32
763.687	29.09
763.865	27.85
764.044	26.97
764.222	27.35
764.401	27.95
764.579	28.91
764.758	28.39
764.936	28.09
765.114	27.34
765.293	28.28
765.471	27.51
765.65	26.25
765.828	26.56
766.006	28.26
766.184	26.28
766.363	26.09
766.541	24.47
766.719	23.99
766.898	23.63
767.076	24.33
767.254	23
767.432	23.12
767.61	24.09
767.788	25.83
767.967	24.79
768.145	25.81
768.323	25.94
768.501	26.98
768.679	27.22
768.857	27.56
769.035	27.54
769.213	29.01
769.391	29.06
769.569	29.39
769.747	28.97
769.925	29.46
770.103	29.57
770.281	29.11
770.459	29.56
770.636	31.92
770.814	33.34
770.992	34.38
771.17	33.99
771.348	34.53
771.525	34.35
771.703	32.9
771.881	31.15
772.059	31.32
772.236	31.1
772.414	30.04
772.592	29.82
772.769	30.26
772.947	30.09
773.125	27.99
773.302	27.4
773.48	29.45
773.657	30.79
773.835	31.74
774.013	30.67
774.19	30.59
774.368	31.07
774.545	30.12
774.723	27.77
774.9	28.92
775.077	30
775.255	32.64
775.432	30.04
775.61	28.84
775.787	30.4
775.964	29.12
776.142	29.58
776.319	30.05
776.496	31.25
776.674	31.36
776.851	29.49
777.028	31.41
777.205	29.14
777.382	29.56
777.56	31.09
777.737	30.81
777.914	32.83
778.091	33.01
778.268	33.62
778.445	31.92
778.622	32.45
778.8	33.14
778.977	33.27
779.154	31.59
779.331	33.67
779.508	34.28
779.685	33.66
779.862	29.92
780.038	30.45
780.215	30.25
780.392	29.75
780.569	31.06
780.746	31.54
780.923	32.67
781.1	35.92
781.277	35.26
781.453	32.88
781.63	33.89
781.807	37.19
781.984	37.74
782.16	37.23
782.337	40.36
782.514	37.67
782.691	37.55
782.867	34.27
783.044	32.95
783.221	33.67
783.397	36.01
783.574	37.52
783.75	35.87
783.927	33.65
784.103	33.56
784.28	26
784.456	28.88
784.633	28.31
784.809	28.66
784.986	28.65
785.162	23.93
785.339	23.14
785.515	19.83
785.692	23.93
785.868	25.76
786.044	25.31
786.221	32.01
786.397	29.06
786.573	33.49
786.749	34.26
786.926	35.35
787.102	38.16
787.278	37.63
787.454	39
787.631	37.27
787.807	38.11
787.983	36.6
788.159	35.86
788.335	36.78
788.511	34.26
788.687	33.9
788.863	32.97
789.039	32.78
789.216	34.01
789.392	29.91
789.568	28.26
789.744	25.58
789.919	27.03
790.095	24.05
790.271	23.69
790.447	22.84
790.623	22.84
790.799	24.19
790.975	24.63
791.151	23.64
791.327	29.53
791.502	29.15
791.678	31.99
791.854	32.52
792.03	33.66
792.205	36.23
792.381	33.58
792.557	35.72
792.733	34.28
792.908	37.11
793.084	38.44
793.259	35.61
793.435	39.51
793.611	35.81
793.786	35.4
793.962	35.23
794.137	31.73
794.313	35.09
794.488	35.01
794.664	36.09
794.839	35.59
795.015	33.31
795.19	33.06
795.366	32.74
795.541	34.48
795.716	33.6
795.892	33.16
796.067	34.43
796.242	33.19
796.418	32.57
796.593	32
796.768	31.38
796.944	32.67
797.119	33.77
797.294	33.4
797.469	33.96
797.644	35.16
797.82	34.74
797.995	35.59
798.17	37.06
798.345	34.03
798.52	32.29
798.695	32.98
798.87	32.73
799.045	31.35
799.22	31.13
799.395	29.53
799.57	28.31
799.745	29.99
799.92	26.88
800.095	25.97
800.27	26.65
800.445	28.38
800.62	25.11
800.795	24.6
800.97	26.61
801.145	24.19
801.319	25.98
801.494	27.24
801.669	28.72
801.844	30.91
802.018	25.78
802.193	27.75
802.368	29.63
802.543	31.67
802.717	33.98
802.892	38.7
803.067	40.96
803.241	41.69
803.416	37.32
803.59	38.65
803.765	40.38
803.94	47.82
804.114	48.42
804.289	49.51
804.463	49.97
804.638	44.29
804.812	37.96
804.986	36.77
805.161	37.67
805.335	39.88
805.51	37.2
805.684	35.86
805.858	35.31
806.033	35.48
806.207	32.96
806.381	29.41
806.556	32.71
806.73	35.63
806.904	35.07
807.078	32.5
807.253	36.46
807.427	36.9
807.601	37.17
807.775	39.51
807.949	30.8
808.123	21.95
808.298	24.47
808.472	26.69
808.646	26.53
808.82	27.72
808.994	27.5
809.168	23.37
809.342	23.3
809.516	25.02
809.69	17.18
809.864	24
810.038	33.48
810.212	38.99
810.385	38.05
810.559	38.01
810.733	33.86
810.907	37.48
811.081	35.58
811.255	35.63
811.428	35.51
811.602	34.43
811.776	37.33
811.95	36.55
812.123	31.32
812.297	30.13
812.471	27
812.644	33.36
812.818	31.48
812.992	36.18
813.165	39.43
813.339	44.23
813.512	43.43
813.686	42.51
813.86	38.87
814.033	36.67
814.207	38.87
814.38	37.58
814.554	34.82
814.727	34.12
814.9	33.94
815.074	32.24
815.247	24.2
815.421	24.52
815.594	25.18
815.767	31.01
815.941	32
816.114	31.51
816.287	35.42
816.46	30.9
816.634	32.65
816.807	31.74
816.98	33.32
817.153	40.14
817.327	45.37
817.5	40.54
817.673	35.07
817.846	35.06
818.019	31.86
818.192	29.94
818.365	36.33
818.538	35.72
818.711	35.07
818.884	33.82
819.057	29.28
819.23	28.84
819.403	34.86
819.576	37.73
819.749	38.33
819.922	40.65
820.095	40.55
820.268	38.6
820.441	37.12
820.614	37.24
820.786	35.3
820.959	34.83
821.132	33.24
821.305	31.22
821.477	31.18
821.65	31.39
821.823	30.33
821.996	30.72
822.168	30.05
822.341	29.03
822.514	28.7
822.686	28.92
822.859	28.39
823.031	28.2
823.204	28.43
823.376	28.04
823.549	27.42
823.722	27.96
823.894	27.68
824.067	27.54
824.239	28.48
824.411	28.26
824.584	27.74
824.756	28.24
824.929	28.46
825.101	27.14
825.273	27.62
825.446	27.47
825.618	26.37
825.79	24.42
825.963	25.82
826.135	25.66
826.307	27.58
826.479	28.81
826.652	29.58
826.824	29.83
826.996	30.2
827.168	30.19
827.34	30.61
827.512	30.34
827.684	32
827.856	30.27
828.029	29.67
828.201	29.7
828.373	30.04
828.545	29.44
828.717	27.84
828.889	29.53
829.061	29.05
829.232	30.69
829.404	30.97
829.576	30.22
829.748	32.13
829.92	34.6
830.092	32.41
830.264	33.67
830.436	34.47
830.607	39.08
830.779	38.73
830.951	37.64
831.123	36.9
831.294	37.47
831.466	42.59
831.638	45.5
831.809	44.18
831.981	43.65
832.153	40.92
832.324	36.83
832.496	35.84
832.667	36.18
832.839	38.1
833.011	34.47
833.182	32.27
833.354	27.43
833.525	26.69
833.697	23.09
833.868	25.88
834.039	22.99
834.211	23.37
834.382	24.97
834.554	26.22
834.725	26.61
834.896	30.54
835.068	31.77
835.239	34.17
835.41	33.55
835.581	37.56
835.753	34.96
835.924	38.43
836.095	38.68
836.266	35.86
836.438	37.45
836.609	37.69
836.78	33.19
836.951	35.93
837.122	34
837.293	33.04
837.464	31.82
837.635	37.22
837.806	37.61
837.977	40.27
838.148	44.42
838.319	38.72
838.49	36.68
838.661	44.31
838.832	55.48
839.003	55.13
839.174	56.78
839.345	57.27
839.516	54.37
839.687	46.07
839.857	48.15
840.028	42.74
840.199	40.07
840.37	46.3
840.54	39.14
840.711	24.56
840.882	30.11
841.053	30.12
841.223	24.59
841.394	17.34
841.564	19.87
841.735	18.59
841.906	25.21
842.076	30.55
842.247	23.28
842.417	23.07
842.588	24.19
842.758	23.76
842.929	30.87
843.099	45.12
843.27	70.42
843.44	84.26
843.611	85.24
843.781	92.33
843.951	96.35
844.122	95.12
844.292	83.87
844.462	86.85
844.633	84.54
844.803	85.22
844.973	85.4
845.144	65.6
845.314	58.99
845.484	65.59
845.654	53.05
845.824	42.61
845.995	50.09
846.165	71.73
846.335	68.78
846.505	67.73
846.675	66.14
846.845	67.01
847.015	73.32
847.185	58.56
847.355	52.06
847.525	71.73
847.695	52.18
847.865	37.51
848.035	24.87
848.205	40.77
848.375	28.34
848.545	38.31
848.715	42.08
848.884	26.64
849.054	37.04
849.224	44.73
849.394	2.1
849.564	34.94
849.733	18.15
849.903	37.53
850.073	12.95
850.243	30.14
850.412	-1.77
850.582	-0.16
850.752	15.81
850.921	11.71
851.091	-10.43
851.26	17.71
851.43	17.97
851.599	56.23
851.769	-278.83
851.939	-14.07
852.108	-450.52
852.278	129.3
852.447	648.31
852.616	122.58
852.786	660.38
852.955	-303.81
853.125	-160.74
853.294	-258.89
853.463	-111.98
853.633	-0.4
853.802	41.33
853.971	39.85
854.141	44.87
854.31	56.63
854.479	48.12
854.648	52.05
854.818	61.02
854.987	66.73
855.156	75.62
855.325	66.18
855.494	63.41
855.663	51.4
855.832	56.44
856.001	64.69
856.171	64.63
856.34	57.82
856.509	61.9
856.678	62.06
856.847	50.04
857.016	53.69
857.185	77.42
857.353	83.81
857.522	86.46
857.691	102.69
857.86	93.84
858.029	84.75
858.198	115.86
858.367	122.1
858.535	97.76
858.704	151.74
858.873	164.09
859.042	133.49
859.21	91.32
859.379	75.42
859.548	81.44
859.717	77.36
859.885	73.43
860.054	68.79
860.222	72.1
860.391	85.79
860.56	83.72
860.728	64.9
860.897	58.67
861.065	58.46
861.234	73.67
861.402	65.08
861.571	59.2
861.739	54.06
861.908	54.85
862.076	38.1
862.244	49.07
862.413	21.8
862.581	53.53
862.749	45.8
862.918	33.38
863.086	33.33
863.254	19.32
863.423	1.95
863.591	-0.95
863.759	-10.47
863.927	-10
864.096	-9.14
864.264	-4.19
864.432	-27.58
864.6	-49.38
864.768	-6.96
864.936	-10.25
865.104	-13.65
865.272	-3.49
865.44	32.64
865.608	34.25
865.776	44.97
865.944	25.04
866.112	24.31
866.28	32.92
866.448	61.94
866.616	76.53
866.784	91.65
866.952	59.69
867.12	47.27
867.288	9.63
867.455	-8.99
867.623	11.48
867.791	42.69
867.959	7.35
868.127	-6.11
868.294	-57.13
868.462	-22.21
868.63	-33.65
868.797	-4.76
868.965	15.32
869.133	28.25
869.3	17.72
869.468	-0.54
869.636	-4.09
869.803	5.8
869.971	18.86
870.138	41.67
870.306	40.75
870.473	19.34
870.641	32.6
870.808	12.1
870.975	-34.11
871.143	-42.34
871.31	-10.36
871.478	23.62
871.645	40.05
871.812	44.82
871.98	38.65
872.147	65.4
872.314	36.55
872.482	29.71
872.649	70.25
872.816	103.93
872.983	94.51
873.15	70.41
873.318	75.93
873.485	82.01
873.652	43.91
873.819	2.25
873.986	-21.81
874.153	-700.3
874.32	-19.97
874.487	102.02
874.654	632.16
874.821	157.14
874.988	85.2
875.155	61.84
875.322	72.88
875.489	64.47
875.656	41.4
875.823	13.05
875.99	-7.38
876.157	41.71
876.324	24.86
876.49	38.08
876.657	69.9
876.824	48.98
876.991	44.91
877.157	27.36
877.324	17.7
877.491	25.09
877.658	18.75
877.824	30.7
877.991	11.66
878.157	26.82
878.324	13.22
878.491	-30.68
878.657	28.74
878.824	4.67
878.99	11.34
879.157	66.04
879.323	53.17
879.49	76.24
879.656	61
879.823	69.42
879.989	64.94
880.156	65.32
880.322	44.08
880.488	-7.49
880.655	-76.89
880.821	12.65
880.987	1.11
881.154	5
881.32	25.4
881.486	31.5
881.652	22.19
881.819	24.7
881.985	24.75
882.151	25.09
882.317	26.16
882.483	30.95
882.649	28.71
882.816	27.03
882.982	29.46
883.148	23.6
883.314	23.5
883.48	26.14
883.646	22.72
883.812	26.39
883.978	28
884.144	28.07
884.31	29
884.476	26.95
884.642	26.47
884.807	26.07
884.973	25.2
885.139	24.1
885.305	23.14
885.471	31.75
885.637	31.2
885.802	28.59
885.968	25.99
886.134	23.04
886.3	27.51
886.465	30.16
886.631	31.38
886.797	32.39
886.962	31.86
887.128	40.77
887.293	41.63
887.459	49.23
887.625	58.44
887.79	76.04
887.956	91
888.121	96.99
888.287	98.2
888.452	91.38
888.618	127.15
888.783	130.76
