Data from 2937863_Reflection_2.txt Node
Date: Wed Jul 15 15:18:47 EDT 2015
User: robert
Spectrometer: USB4E03001
Autoset integration time: false
Trigger mode: 4
Integration Time (sec): 1.000000E-1
Scans to average: 10
Electric dark correction enabled: true
Nonlinearity correction enabled: false
Boxcar width: 5
Stray light correction enabled: false
XAxis mode: Wavelengths
Stop averaging: false
Number of Pixels in Spectrum: 3648
>>>>>Begin Spectral Data<<<<<
177.566	-29.63
177.785	-61.43
178.005	971.84
178.225	-545.68
178.445	539.8
178.665	147.36
178.885	139.62
179.105	9.35
179.324	59.85
179.544	56.77
179.764	35.67
179.984	0.33
180.204	4.07
180.423	99.18
180.643	-203.96
180.863	-504.28
181.083	-230.57
181.302	-122.41
181.522	4.93
181.742	-76.15
181.961	-96.09
182.181	-86.05
182.401	-4.22
182.621	-57.37
182.84	-58.85
183.06	-36.11
183.279	-16.19
183.499	4.97
183.719	12.3
183.938	-13.59
184.158	-76.28
184.377	-85.53
184.597	-45.35
184.816	-41.04
185.036	-41.21
185.256	-105.97
185.475	-32.35
185.695	-17.02
185.914	-27.96
186.134	-68.55
186.353	-117.99
186.572	-49.8
186.792	-87.36
187.011	246.17
187.231	1050.68
187.45	-69.1
187.67	29.96
187.889	3.9
188.108	-38.27
188.328	-116.01
188.547	3.31
188.766	42.34
188.986	33.55
189.205	23.21
189.424	19.16
189.644	20.19
189.863	-5.59
190.082	-34.56
190.302	-77.16
190.521	-70.64
190.74	-46.46
190.959	-71.34
191.178	-65.73
191.398	-22.24
191.617	-79.01
191.836	-59.56
192.055	-171.46
192.274	-91.55
192.494	-2902.33
192.713	-281.84
192.932	-336.92
193.151	-167.83
193.37	331.94
193.589	686.16
193.808	400.89
194.027	-194.9
194.246	-487.2
194.465	-95.04
194.685	-72.28
194.904	-28.96
195.123	-52.76
195.342	8.89
195.561	-3.39
195.78	-0.72
195.999	-32.04
196.218	30.4
196.436	182.46
196.655	121.95
196.874	193.21
197.093	229
197.312	301.49
197.531	229.67
197.75	218.85
197.969	138.41
198.188	94.78
198.407	164.19
198.625	133.31
198.844	121.04
199.063	133.72
199.282	4550
199.501	21.39
199.719	-34.95
199.938	-201
200.157	-403.21
200.376	-55.05
200.594	-11.67
200.813	-73.87
201.032	-27.87
201.251	-4.8
201.469	28.77
201.688	20.91
201.907	3.22
202.125	48.71
202.344	54.03
202.563	68.5
202.781	38.03
203	37.24
203.218	51.24
203.437	33.59
203.656	3.57
203.874	34.92
204.093	43.26
204.311	39.34
204.53	-4.49
204.748	-60.2
204.967	-48.86
205.185	-67.45
205.404	-45.89
205.622	-157.77
205.841	2.3
206.059	-38.25
206.278	-269.37
206.496	195.88
206.715	317.3
206.933	158.1
207.151	286.12
207.37	676.22
207.588	461.62
207.806	-1214.92
208.025	40163.16
208.243	1262.35
208.461	-352.52
208.68	-281.97
208.898	-168.8
209.116	-299.32
209.335	-85.57
209.553	-24.29
209.771	-46.4
209.989	-2.74
210.208	-8.28
210.426	8.46
210.644	31.56
210.862	32.97
211.081	13.19
211.299	30.05
211.517	47.57
211.735	54.02
211.953	44.7
212.171	21.95
212.39	-63.53
212.608	-91.12
212.826	-172.09
213.044	-105.87
213.262	-332.51
213.48	-159.37
213.698	-623.85
213.916	-362.18
214.134	-210.45
214.352	-226.56
214.57	-67.76
214.788	-20.71
215.006	21
215.224	25.26
215.442	-42.56
215.66	-7.49
215.878	-46.11
216.096	-25.96
216.314	-4.32
216.532	0.79
216.75	-7.38
216.968	-39.59
217.185	-1.57
217.403	-36.98
217.621	6.97
217.839	22.84
218.057	22.13
218.275	26.1
218.492	15.88
218.71	13.42
218.928	1.57
219.146	7.49
219.363	14.43
219.581	3.75
219.799	2.4
220.017	-25.31
220.234	-57.43
220.452	-30.22
220.67	-29.76
220.887	-10.93
221.105	-28.63
221.323	-10.97
221.54	-27.15
221.758	-38.49
221.976	-72.82
222.193	-33.43
222.411	-26.58
222.629	-23.06
222.846	-23.15
223.064	-27.44
223.281	-27.04
223.499	-14.75
223.716	-23.09
223.934	8.97
224.151	-34.88
224.369	-4.52
224.586	-2.18
224.804	-75.83
225.021	-2.3
225.239	-5.89
225.456	4.48
225.674	21.15
225.891	34.33
226.108	19.7
226.326	0.81
226.543	30.6
226.76	23.69
226.978	5.35
227.195	2.38
227.413	-4.03
227.63	-1.69
227.847	3.42
228.064	-1.58
228.282	-6.57
228.499	-5.37
228.716	-1.13
228.934	1.03
229.151	3.65
229.368	7.7
229.585	13.15
229.802	15.02
230.02	11.95
230.237	11.61
230.454	12.57
230.671	16.17
230.888	21.89
231.105	23.25
231.323	19.43
231.54	20.1
231.757	19.44
231.974	23.36
232.191	20.1
232.408	21.02
232.625	15.83
232.842	16.81
233.059	15.55
233.276	12.34
233.493	5.05
233.71	6.49
233.927	2.63
234.144	2.91
234.361	-1.16
234.578	-0.5
234.795	5.46
235.012	11.98
235.229	10.8
235.446	13.48
235.663	12.97
235.879	16.14
236.096	17.25
236.313	17.79
236.53	15.3
236.747	6.81
236.964	0.63
237.181	2.91
237.397	-1.38
237.614	-7.58
237.831	-5.58
238.048	-0.18
238.264	3.74
238.481	-0.59
238.698	-4.02
238.915	-1.72
239.131	4.7
239.348	4.72
239.565	4.34
239.781	9.2
239.998	13.99
240.215	16.12
240.431	8.54
240.648	6.15
240.865	9.97
241.081	15.28
241.298	16.85
241.514	15.6
241.731	18.05
241.947	18.17
242.164	16.74
242.38	16.17
242.597	15.99
242.814	16.14
243.03	18.28
243.246	18.19
243.463	15.93
243.679	15.43
243.896	18.04
244.112	16.92
244.329	15.41
244.545	15.4
244.762	15.19
244.978	12.33
245.194	14.36
245.411	12.35
245.627	15.09
245.843	16.96
246.06	18.15
246.276	15.35
246.492	16.18
246.709	15.96
246.925	15.84
247.141	15.1
247.357	15.62
247.574	15.21
247.79	16.08
248.006	14.49
248.222	13.35
248.439	12.09
248.655	12.33
248.871	11.3
249.087	11.29
249.303	11.2
249.519	10.81
249.736	9.67
249.952	9.6
250.168	7.77
250.384	8.49
250.6	7.02
250.816	8.54
251.032	6.8
251.248	7.47
251.464	5.92
251.68	6.59
251.896	6.66
252.112	6.69
252.328	6.11
252.544	6.02
252.76	4.11
252.976	6.72
253.192	2.89
253.408	0.99
253.624	-1.5
253.84	0.57
254.056	-1.82
254.272	-0.97
254.487	-0.12
254.703	3.79
254.919	2.5
255.135	6.42
255.351	5.32
255.567	9.91
255.782	12.73
255.998	15.09
256.214	14.5
256.43	15.03
256.646	16.79
256.861	15.07
257.077	15.18
257.293	13.58
257.508	15.52
257.724	15.09
257.94	14.27
258.155	14.6
258.371	13.51
258.587	12.07
258.802	12.06
259.018	11.97
259.234	11.83
259.449	10.46
259.665	11.37
259.88	10.64
260.096	11.09
260.312	10.86
260.527	11.23
260.743	11.17
260.958	11.69
261.174	11.38
261.389	11.03
261.605	9.64
261.82	9.93
262.036	10.01
262.251	8.82
262.466	9.04
262.682	9.09
262.897	8.68
263.113	10.19
263.328	10.3
263.543	10.25
263.759	7.93
263.974	11.03
264.189	10.88
264.405	9.08
264.62	7.96
264.835	5.88
265.051	6.28
265.266	3.78
265.481	2.98
265.696	0.36
265.912	1.31
266.127	1.47
266.342	3.16
266.557	3.5
266.773	3.76
266.988	4.39
267.203	6.93
267.418	7.24
267.633	8.97
267.848	8.97
268.064	10.85
268.279	11.02
268.494	12.47
268.709	10.68
268.924	10
269.139	11.45
269.354	11.4
269.569	9.44
269.784	9.14
269.999	8.14
270.214	7.29
270.429	7.49
270.644	6.9
270.859	6.38
271.074	7.66
271.289	6.64
271.504	5.57
271.719	5.15
271.934	5.95
272.149	5.98
272.363	6.23
272.578	6.45
272.793	6.85
273.008	7.19
273.223	7.53
273.438	7.06
273.653	8.22
273.867	7.56
274.082	9.13
274.297	8.09
274.512	8.13
274.726	8.03
274.941	7.88
275.156	6.3
275.371	6.87
275.585	6.3
275.8	5.91
276.015	4.42
276.229	7.41
276.444	7.64
276.659	7.98
276.873	9.67
277.088	10.75
277.302	12.6
277.517	12.49
277.732	10.68
277.946	11.16
278.161	10.94
278.375	12.68
278.59	12.16
278.804	12.02
279.019	13.02
279.233	11.1
279.448	11.93
279.662	11.37
279.877	11.78
280.091	12.23
280.306	11.04
280.52	11.62
280.735	11.06
280.949	9.86
281.163	9.94
281.378	9.76
281.592	11.47
281.806	10.67
282.021	10.28
282.235	10.63
282.449	11.63
282.664	13.41
282.878	13.75
283.092	14.29
283.307	15.9
283.521	14.79
283.735	12.6
283.949	12.1
284.164	12.65
284.378	12.49
284.592	13.71
284.806	12.93
285.02	12.77
285.234	12.94
285.449	12.23
285.663	12.35
285.877	12.64
286.091	14.12
286.305	13.28
286.519	14.37
286.733	13.58
286.947	11.61
287.161	11.72
287.375	11.97
287.589	10.94
287.803	10.37
288.017	9.32
288.231	8.35
288.445	7.48
288.659	7.93
288.873	6.01
289.087	7.63
289.301	10.12
289.515	9.97
289.729	8.16
289.943	8.75
290.157	8.97
290.371	8.43
290.584	10.44
290.798	10.1
291.012	9.94
291.226	10.65
291.44	9.2
291.654	7.87
291.867	8.25
292.081	10.86
292.295	11.1
292.509	12.52
292.722	13.43
292.936	12.07
293.15	13.64
293.364	13.03
293.577	11.34
293.791	12.13
294.005	12.76
294.218	13.08
294.432	12.62
294.645	13.91
294.859	13.23
295.073	12.31
295.286	11.38
295.5	11.18
295.713	12.32
295.927	12.73
296.14	12.33
296.354	12.8
296.568	13.25
296.781	12.62
296.994	11.15
297.208	10.78
297.421	10.35
297.635	11.31
297.848	10.66
298.062	9.97
298.275	9.84
298.489	10.13
298.702	8.15
298.915	7.93
299.129	7.21
299.342	6.69
299.555	7.67
299.769	8.5
299.982	9.12
300.195	9.34
300.409	11.46
300.622	12.86
300.835	13.1
301.048	14.78
301.262	15.62
301.475	16.19
301.688	16.51
301.901	16.54
302.115	17.28
302.328	16.48
302.541	17.92
302.754	16.61
302.967	16.4
303.18	16.83
303.393	15.99
303.607	13.89
303.82	14.31
304.033	15.06
304.246	13.63
304.459	12.72
304.672	12.41
304.885	11.32
305.098	10.11
305.311	7.37
305.524	6.51
305.737	7.46
305.95	6.72
306.163	5.49
306.376	5.22
306.589	5.47
306.802	5.16
307.015	5.38
307.228	5.16
307.44	7.3
307.653	9.82
307.866	9.19
308.079	9.15
308.292	10.52
308.505	11.38
308.718	12.24
308.93	12.48
309.143	13.83
309.356	14.13
309.569	13.87
309.781	11.49
309.994	9.5
310.207	11.29
310.42	12.04
310.632	11.97
310.845	11.86
311.058	10.7
311.27	11.98
311.483	11.06
311.696	10
311.908	9.95
312.121	10.26
312.333	11.08
312.546	9.96
312.759	8.5
312.971	7.93
313.184	9.78
313.396	10.15
313.609	7.69
313.821	8.78
314.034	10.51
314.246	12.02
314.459	13.64
314.671	13.42
314.884	13.31
315.096	13.82
315.309	14.65
315.521	12.42
315.733	12.43
315.946	13.2
316.158	12.09
316.371	13.03
316.583	10.09
316.795	8.98
317.008	9.99
317.22	10.73
317.432	11.55
317.644	10.51
317.857	11.9
318.069	13.07
318.281	13.3
318.494	12.92
318.706	10.86
318.918	12.71
319.13	14.04
319.342	11.18
319.555	9.61
319.767	8.38
319.979	9.72
320.191	8.81
320.403	6.98
320.615	8.13
320.827	7.75
321.039	7.73
321.252	6.05
321.464	4.05
321.676	7.41
321.888	7.61
322.1	7.38
322.312	5.41
322.524	3.28
322.736	3.96
322.948	3.5
323.16	5.53
323.372	5.13
323.584	4.8
323.796	4.36
324.007	5.01
324.219	4.08
324.431	5.83
324.643	6.76
324.855	7.97
325.067	8.11
325.279	8.01
325.491	7.36
325.702	7.66
325.914	9.02
326.126	10.04
326.338	9.63
326.55	9.87
326.761	7.69
326.973	7.63
327.185	8.75
327.396	9.32
327.608	9.12
327.82	8.34
328.032	9.63
328.243	9.16
328.455	9.66
328.666	10.06
328.878	11.12
329.09	11.57
329.301	11.96
329.513	11.26
329.725	9.23
329.936	7.84
330.148	9.3
330.359	7.18
330.571	7.42
330.782	8.04
330.994	7.4
331.205	8.1
331.417	8.62
331.628	7.6
331.84	6.37
332.051	7.07
332.262	8.59
332.474	7.77
332.685	7.5
332.897	8.47
333.108	7.44
333.319	5.73
333.531	5.16
333.742	5.03
333.953	5.68
334.165	6.79
334.376	7.43
334.587	7.43
334.799	7.8
335.01	8.45
335.221	7.61
335.432	8.52
335.644	10.26
335.855	10.56
336.066	11.52
336.277	10.35
336.488	10.86
336.7	9.14
336.911	8.86
337.122	7.22
337.333	7.53
337.544	7.1
337.755	5.83
337.966	4.59
338.177	3.93
338.388	2.75
338.599	3.43
338.811	2.89
339.022	4.33
339.233	5.29
339.444	5.1
339.655	5.06
339.866	5.54
340.076	5.97
340.287	5.7
340.498	5.37
340.709	5.56
340.92	7.39
341.131	7.54
341.342	7.59
341.553	5.96
341.764	7.09
341.975	6.88
342.185	7.13
342.396	6.68
342.607	8.02
342.818	9.58
343.029	9.09
343.239	6.92
343.45	6.52
343.661	8.27
343.872	8.62
344.082	8.36
344.293	8.13
344.504	8.18
344.714	8
344.925	6.36
345.136	4.96
345.346	5.65
345.557	7.04
345.768	6.65
345.978	5.01
346.189	5.33
346.399	5.04
346.61	4.33
346.821	3.7
347.031	4.84
347.242	5.45
347.452	5.41
347.663	6.44
347.873	5.85
348.084	4.76
348.294	3.6
348.504	3.74
348.715	3.8
348.925	6.17
349.136	6.46
349.346	5.93
349.557	5.62
349.767	6.13
349.977	5.34
350.188	4.21
350.398	5.23
350.608	5.83
350.819	6.11
351.029	4.93
351.239	3.9
351.449	4.38
351.66	3.46
351.87	4.36
352.08	4.28
352.29	3.04
352.501	5.06
352.711	6.11
352.921	6.3
353.131	5.94
353.341	7.79
353.552	8.22
353.762	9.18
353.972	9.63
354.182	8.63
354.392	8.28
354.602	9.38
354.812	8.38
355.022	7.57
355.232	7.42
355.442	7.83
355.652	7.94
355.862	7.32
356.072	6.97
356.282	8.49
356.492	9.77
356.702	9.55
356.912	9.53
357.122	9.04
357.332	8.51
357.542	9.14
357.752	8.31
357.962	8.33
358.171	8.41
358.381	7.24
358.591	6.76
358.801	6.3
359.011	6.49
359.221	6.33
359.43	7.86
359.64	8.82
359.85	8.23
360.06	7.89
360.269	7.28
360.479	7.4
360.689	7.67
360.899	6.8
361.108	6.95
361.318	6.87
361.528	6.44
361.737	5.72
361.947	5.13
362.156	5.75
362.366	6.13
362.576	6.57
362.785	6.4
362.995	6.4
363.204	7.11
363.414	6.92
363.623	7.15
363.833	7.22
364.042	7.1
364.252	7.03
364.461	6.3
364.671	6.93
364.88	6.2
365.09	5.88
365.299	5.62
365.509	5.85
365.718	5.76
365.927	6.03
366.137	5.93
366.346	6
366.555	5.46
366.765	5.18
366.974	5.32
367.183	5.3
367.393	5.39
367.602	5.42
367.811	4.3
368.021	3.69
368.23	3.94
368.439	3.96
368.648	4.24
368.857	5.23
369.067	5.55
369.276	4.7
369.485	4.72
369.694	4.34
369.903	4.08
370.112	4.98
370.321	5.21
370.531	4.53
370.74	4.01
370.949	3.59
371.158	2.77
371.367	3.06
371.576	3.43
371.785	3.26
371.994	3.71
372.203	4.12
372.412	3.69
372.621	4
372.83	4.2
373.039	4.9
373.248	5.42
373.457	5.51
373.666	5.08
373.874	4.77
374.083	5.76
374.292	6.57
374.501	6.83
374.71	6.99
374.919	6.56
375.128	5.89
375.336	5.97
375.545	5.79
375.754	5.85
375.963	6.39
376.171	6.72
376.38	6.61
376.589	6.37
376.798	6.25
377.006	5.78
377.215	6.26
377.424	7.15
377.632	7.69
377.841	7.62
378.05	8.03
378.258	8.1
378.467	8.25
378.675	7.63
378.884	7.52
379.093	7.2
379.301	7.72
379.51	7.33
379.718	7.09
379.927	6.45
380.135	6.12
380.344	6.18
380.552	5.22
380.761	4.76
380.969	4.89
381.177	4.95
381.386	5.21
381.594	5.63
381.803	5.64
382.011	5.57
382.219	5.23
382.428	5.54
382.636	5.69
382.845	6.01
383.053	5.62
383.261	5.67
383.469	5.32
383.678	4.94
383.886	3.95
384.094	4.14
384.302	3.87
384.511	4.1
384.719	4.04
384.927	3.6
385.135	3.43
385.343	3.94
385.552	4.24
385.76	3.99
385.968	4.67
386.176	5.16
386.384	4.77
386.592	4.7
386.8	4.4
387.008	4.19
387.216	4.45
387.424	4.31
387.633	4.26
387.841	3.52
388.049	3.43
388.257	3.19
388.465	2.62
388.672	2.74
388.88	2.64
389.088	2.59
389.296	2.78
389.504	2.7
389.712	3.05
389.92	3.03
390.128	3.43
390.336	3.9
390.544	3.18
390.751	3.78
390.959	3.62
391.167	3.69
391.375	3.9
391.583	3.6
391.79	3.45
391.998	3.32
392.206	3.54
392.414	3.19
392.621	3.05
392.829	3.48
393.037	2.98
393.244	3.01
393.452	3.36
393.66	3.09
393.867	3.28
394.075	3.33
394.283	3.51
394.49	3.16
394.698	3.33
394.905	3.03
395.113	2.92
395.32	3.29
395.528	3.51
395.735	3.38
395.943	3.79
396.15	3.95
396.358	4.02
396.565	4.22
396.773	4.47
396.98	4.42
397.188	4.78
397.395	4.97
397.602	5.1
397.81	4.91
398.017	4.62
398.225	4.82
398.432	4.31
398.639	4.44
398.847	4.22
399.054	4.03
399.261	3.7
399.468	3.33
399.676	2.7
399.883	2.26
400.09	2.31
400.297	2.57
400.505	2.47
400.712	2.95
400.919	2.85
401.126	2.63
401.333	2.76
401.54	3.29
401.748	3.77
401.955	4.25
402.162	4.09
402.369	4.45
402.576	4.12
402.783	3.87
402.99	3.54
403.197	3.3
403.404	3.48
403.611	3.44
403.818	3.52
404.025	3.34
404.232	3.4
404.439	3.83
404.646	3.51
404.853	3.73
405.06	3.56
405.267	3.43
405.474	3.72
405.681	3.78
405.887	3.77
406.094	3.59
406.301	3.79
406.508	3.66
406.715	3.45
406.922	3.52
407.128	3.6
407.335	3.72
407.542	3.88
407.749	3.78
407.955	3.69
408.162	3.51
408.369	3.74
408.575	3.32
408.782	3.67
408.989	3.82
409.195	3.86
409.402	3.46
409.609	3.32
409.815	3.49
410.022	3.33
410.228	3.46
410.435	3.52
410.642	3.44
410.848	3.85
411.055	3.67
411.261	3.38
411.468	3.36
411.674	3.5
411.881	3.57
412.087	3.66
412.294	3.8
412.5	3.68
412.706	3.73
412.913	3.63
413.119	3.45
413.326	3.37
413.532	3.47
413.738	3.22
413.945	3.16
414.151	3.33
414.357	3.12
414.564	3.02
414.77	2.96
414.976	2.87
415.182	2.71
415.389	2.6
415.595	2.53
415.801	2.73
416.007	2.96
416.214	3.21
416.42	3.1
416.626	3.26
416.832	3.19
417.038	3.41
417.244	3.29
417.45	3.5
417.657	3.42
417.863	3.38
418.069	3.42
418.275	3.4
418.481	3.4
418.687	3.44
418.893	3.39
419.099	3.42
419.305	3.35
419.511	3.52
419.717	3.48
419.923	3.58
420.129	3.67
420.335	3.49
420.541	3.38
420.746	3.36
420.952	3.49
421.158	3.47
421.364	3.47
421.57	3.42
421.776	3.41
421.982	3.36
422.187	3.21
422.393	3.19
422.599	3.18
422.805	3.35
423.01	3.33
423.216	3.24
423.422	3.32
423.628	3.34
423.833	3.4
424.039	3.36
424.245	3.31
424.45	3.34
424.656	3.43
424.862	3.58
425.067	3.69
425.273	3.63
425.478	3.56
425.684	3.38
425.889	3.36
426.095	3.33
426.301	3.28
426.506	3.3
426.712	3.49
426.917	3.33
427.123	3.17
427.328	3.04
427.533	3
427.739	3
427.944	3.2
428.15	3.26
428.355	3.18
428.561	3.42
428.766	3.44
428.971	3.48
429.177	3.49
429.382	3.29
429.587	2.92
429.793	3.13
429.998	3.04
430.203	3.2
430.408	3.15
430.614	3.33
430.819	3.29
431.024	3.47
431.229	3.3
431.434	3.37
431.64	3.38
431.845	3.48
432.05	3.17
432.255	3.19
432.46	3.06
432.665	3.13
432.87	3.17
433.076	3.12
433.281	3.03
433.486	3.21
433.691	3.01
433.896	3.04
434.101	3.41
434.306	3.45
434.511	3.65
434.716	3.57
434.921	3.59
435.126	3.53
435.331	3.46
435.535	3.41
435.74	3.14
435.945	3.36
436.15	3.45
436.355	3.13
436.56	3.36
436.765	3.11
436.97	2.99
437.174	2.98
437.379	2.87
437.584	3.07
437.789	3.1
437.993	3.18
438.198	2.94
438.403	3.26
438.608	3.17
438.812	3.06
439.017	3.14
439.222	3.22
439.426	3.14
439.631	3.11
439.836	3
440.04	3.05
440.245	3.03
440.45	3.19
440.654	2.98
440.859	3.03
441.063	3.17
441.268	2.96
441.472	3.01
441.677	2.95
441.881	2.86
442.086	2.84
442.29	2.8
442.495	2.73
442.699	2.63
442.904	2.68
443.108	2.84
443.312	2.68
443.517	2.8
443.721	2.71
443.925	2.88
444.13	2.85
444.334	2.81
444.538	2.84
444.743	3
444.947	3.03
445.151	2.99
445.356	2.78
445.56	2.94
445.764	3.09
445.968	3.06
446.173	3.08
446.377	3.13
446.581	3.19
446.785	3.15
446.989	3.11
447.193	3.1
447.398	3
447.602	3.04
447.806	2.95
448.01	2.68
448.214	2.77
448.418	2.67
448.622	2.87
448.826	2.73
449.03	2.53
449.234	2.53
449.438	2.5
449.642	2.4
449.846	2.3
450.05	2.35
450.254	2.68
450.458	2.61
450.662	2.51
450.866	2.26
451.069	2.36
451.273	2.52
451.477	2.53
451.681	2.8
451.885	3.04
452.089	3.22
452.292	2.93
452.496	2.81
452.7	2.87
452.904	3.01
453.107	3.12
453.311	3.12
453.515	3.14
453.719	3.09
453.922	3
454.126	2.88
454.33	2.66
454.533	2.73
454.737	2.95
454.94	2.81
455.144	2.74
455.348	2.61
455.551	2.66
455.755	2.6
455.958	2.56
456.162	2.49
456.365	2.56
456.569	2.81
456.772	2.87
456.976	2.75
457.179	2.85
457.383	3
457.586	2.93
457.79	3.05
457.993	2.98
458.196	3.07
458.4	2.96
458.603	2.97
458.807	2.78
459.01	2.77
459.213	2.7
459.417	2.61
459.62	2.51
459.823	2.6
460.026	2.47
460.23	2.53
460.433	2.41
460.636	2.47
460.839	2.44
461.042	2.55
461.246	2.53
461.449	2.58
461.652	2.69
461.855	2.65
462.058	2.53
462.261	2.49
462.464	2.56
462.668	2.67
462.871	2.7
463.074	2.82
463.277	2.78
463.48	2.62
463.683	2.63
463.886	2.55
464.089	2.55
464.292	2.87
464.495	2.87
464.698	2.83
464.901	2.85
465.104	2.87
465.306	2.61
465.509	2.54
465.712	2.9
465.915	2.75
466.118	2.74
466.321	3.05
466.524	2.86
466.726	2.93
466.929	2.98
467.132	2.94
467.335	2.76
467.538	2.97
467.74	2.89
467.943	2.84
468.146	3
468.348	2.96
468.551	2.76
468.754	2.84
468.956	2.7
469.159	2.7
469.362	2.51
469.564	2.65
469.767	2.7
469.969	3.07
470.172	3.04
470.375	2.97
470.577	3.03
470.78	3.04
470.982	3.03
471.185	3.05
471.387	2.87
471.59	3.05
471.792	3.1
471.995	2.8
472.197	2.46
472.399	2.44
472.602	2.48
472.804	2.43
473.007	2.25
473.209	2.49
473.411	2.58
473.614	2.84
473.816	2.83
474.018	2.63
474.22	2.83
474.423	3
474.625	2.83
474.827	2.85
475.03	2.9
475.232	3.06
475.434	2.84
475.636	2.72
475.838	2.68
476.04	2.76
476.243	2.92
476.445	2.83
476.647	2.74
476.849	2.68
477.051	2.62
477.253	2.67
477.455	2.57
477.657	2.56
477.859	2.47
478.061	2.5
478.263	2.2
478.465	2.14
478.667	2.06
478.869	2.13
479.071	2.39
479.273	2.38
479.475	2.28
479.677	2.29
479.879	2.28
480.081	2.38
480.283	2.2
480.485	2.34
480.686	2.45
480.888	2.54
481.09	2.55
481.292	2.48
481.494	2.48
481.695	2.48
481.897	2.62
482.099	2.55
482.301	2.6
482.502	2.67
482.704	2.79
482.906	2.78
483.107	2.82
483.309	2.83
483.511	2.81
483.712	2.85
483.914	2.84
484.115	2.77
484.317	2.73
484.519	2.75
484.72	2.76
484.922	2.67
485.123	2.64
485.325	2.6
485.526	2.57
485.728	2.59
485.929	2.61
486.131	2.66
486.332	2.71
486.534	2.79
486.735	2.77
486.936	2.76
487.138	2.86
487.339	2.92
487.541	2.91
487.742	2.87
487.943	2.87
488.144	2.72
488.346	2.75
488.547	2.71
488.748	2.67
488.95	2.69
489.151	2.66
489.352	2.7
489.553	2.66
489.755	2.53
489.956	2.59
490.157	2.61
490.358	2.7
490.559	2.71
490.76	2.76
490.961	2.83
491.163	2.73
491.364	2.65
491.565	2.58
491.766	2.56
491.967	2.67
492.168	2.74
492.369	2.68
492.57	2.69
492.771	2.58
492.972	2.55
493.173	2.42
493.374	2.47
493.575	2.51
493.776	2.44
493.976	2.4
494.177	2.34
494.378	2.28
494.579	2.2
494.78	2.26
494.981	2.2
495.182	2.17
495.382	2.18
495.583	2.09
495.784	2.09
495.985	2.02
496.185	2.02
496.386	2.2
496.587	2.15
496.788	2.25
496.988	2.16
497.189	2.36
497.39	2.48
497.59	2.68
497.791	2.91
497.992	2.88
498.192	3.07
498.393	3.17
498.593	3.18
498.794	3.38
498.994	3.37
499.195	3.41
499.395	3.37
499.596	3.28
499.796	3.19
499.997	3.14
500.197	3.27
500.398	2.97
500.598	2.98
500.799	3
500.999	2.81
501.199	2.86
501.4	2.86
501.6	2.84
501.801	2.8
502.001	2.7
502.201	2.72
502.402	2.69
502.602	3.05
502.802	2.96
503.002	2.88
503.203	2.93
503.403	2.83
503.603	2.74
503.803	2.73
504.003	2.85
504.204	3.07
504.404	3.06
504.604	3.1
504.804	3.01
505.004	3.14
505.204	3.09
505.404	3.07
505.604	3.22
505.804	3.36
506.005	3.47
506.205	3.42
506.405	3.21
506.605	3.12
506.805	3.16
507.005	3.11
507.204	2.93
507.404	3.04
507.604	3.03
507.804	2.95
508.004	2.75
508.204	2.57
508.404	2.59
508.604	2.7
508.804	2.73
509.003	2.65
509.203	2.52
509.403	2.62
509.603	2.62
509.803	2.6
510.002	2.63
510.202	2.91
510.402	3.07
510.602	3.04
510.801	2.9
511.001	2.95
511.201	3.18
511.4	3.29
511.6	3.31
511.8	3.23
511.999	3.22
512.199	3.08
512.398	2.99
512.598	2.93
512.797	2.94
512.997	3.02
513.197	3.15
513.396	3.1
513.596	3.29
513.795	3.16
513.994	3.14
514.194	3.13
514.393	3.24
514.593	3.3
514.792	3.29
514.992	3.33
515.191	3.37
515.39	3.21
515.59	3.2
515.789	3
515.988	2.94
516.188	2.92
516.387	2.76
516.586	2.86
516.786	2.81
516.985	2.81
517.184	2.79
517.383	2.74
517.582	2.69
517.782	2.66
517.981	2.69
518.18	2.76
518.379	2.88
518.578	3.07
518.777	3.06
518.976	3.14
519.176	3.16
519.375	3.2
519.574	3.34
519.773	3.39
519.972	3.39
520.171	3.42
520.37	3.42
520.569	3.46
520.768	3.38
520.967	3.26
521.166	3.03
521.365	3.15
521.564	3.16
521.762	3
521.961	3.06
522.16	3.13
522.359	3.08
522.558	3.28
522.757	3.16
522.956	3.39
523.154	3.5
523.353	3.61
523.552	3.4
523.751	3.44
523.949	3.55
524.148	3.45
524.347	3.28
524.546	3.31
524.744	3.2
524.943	3.25
525.142	3.12
525.34	3.18
525.539	3.16
525.737	3.21
525.936	3.22
526.135	3.23
526.333	3.39
526.532	3.46
526.73	3.48
526.929	3.53
527.127	3.54
527.326	3.49
527.524	3.51
527.723	3.51
527.921	3.54
528.12	3.54
528.318	3.61
528.516	3.57
528.715	3.58
528.913	3.66
529.112	3.7
529.31	3.76
529.508	3.84
529.707	3.88
529.905	3.94
530.103	3.92
530.301	3.92
530.5	3.86
530.698	3.83
530.896	3.89
531.094	3.91
531.293	3.92
531.491	3.78
531.689	3.82
531.887	3.77
532.085	3.84
532.283	3.92
532.481	3.97
532.68	3.98
532.878	4.03
533.076	4.05
533.274	4.1
533.472	4.1
533.67	4.18
533.868	4.11
534.066	4.15
534.264	4.06
534.462	4.04
534.66	4.04
534.858	4.14
535.056	4.17
535.253	4.15
535.451	4.04
535.649	4.03
535.847	4.08
536.045	4.14
536.243	4.14
536.441	4.38
536.638	4.38
536.836	4.49
537.034	4.46
537.232	4.43
537.43	4.45
537.627	4.54
537.825	4.56
538.023	4.51
538.22	4.56
538.418	4.57
538.616	4.47
538.813	4.59
539.011	4.5
539.209	4.71
539.406	4.81
539.604	4.96
539.801	4.85
539.999	4.88
540.196	4.98
540.394	4.97
540.591	4.96
540.789	5.04
540.986	5
541.184	5.01
541.381	4.88
541.579	4.89
541.776	4.86
541.974	5.01
542.171	5.01
542.368	5.06
542.566	5.14
542.763	5.24
542.96	5.18
543.158	5.26
543.355	5.37
543.552	5.53
543.75	5.73
543.947	5.83
544.144	5.84
544.341	5.9
544.539	5.93
544.736	5.85
544.933	5.82
545.13	6.05
545.327	6.07
545.524	6.02
545.722	5.98
545.919	5.89
546.116	5.87
546.313	5.85
546.51	5.92
546.707	5.94
546.904	5.98
547.101	6.23
547.298	6.11
547.495	6.14
547.692	6.25
547.889	6.37
548.086	6.42
548.283	6.45
548.48	6.49
548.677	6.56
548.874	6.68
549.07	6.75
549.267	6.54
549.464	6.64
549.661	6.9
549.858	6.92
550.055	6.74
550.251	6.91
550.448	6.95
550.645	7.03
550.842	7.27
551.038	7.11
551.235	7.34
551.432	7.39
551.628	7.35
551.825	7.34
552.022	7.42
552.218	7.46
552.415	7.35
552.612	7.43
552.808	7.53
553.005	7.49
553.201	7.64
553.398	7.66
553.594	7.83
553.791	7.82
553.987	7.77
554.184	7.83
554.38	7.94
554.577	8.09
554.773	8.24
554.97	8.23
555.166	8.31
555.362	8.48
555.559	8.46
555.755	8.6
555.952	8.84
556.148	8.93
556.344	8.97
556.541	8.99
556.737	9.08
556.933	9.22
557.129	9.3
557.326	9.23
557.522	9.06
557.718	9.23
557.914	9.22
558.11	9.32
558.307	9.22
558.503	9.13
558.699	9.23
558.895	9.1
559.091	8.88
559.287	8.93
559.483	9
559.679	9.19
559.876	9.08
560.072	9.03
560.268	8.93
560.464	9.14
560.66	9.48
560.856	9.77
561.052	9.94
561.247	10.06
561.443	10.02
561.639	10.1
561.835	10.11
562.031	10.15
562.227	10.29
562.423	10.36
562.619	10.54
562.815	10.46
563.01	10.34
563.206	10.35
563.402	10.36
563.598	10.53
563.793	10.68
563.989	10.49
564.185	10.52
564.381	10.57
564.576	10.64
564.772	10.5
564.968	10.46
565.163	10.46
565.359	10.47
565.555	10.7
565.75	10.73
565.946	10.7
566.141	11
566.337	11.18
566.532	11.02
566.728	11.02
566.923	10.87
567.119	10.93
567.314	10.98
567.51	11.06
567.705	10.94
567.901	11.08
568.096	11.19
568.292	11.22
568.487	11.28
568.682	11.58
568.878	11.68
569.073	12.07
569.268	12.36
569.464	12.5
569.659	12.51
569.854	12.59
570.05	12.57
570.245	12.62
570.44	12.57
570.635	12.49
570.831	12.41
571.026	12.59
571.221	12.5
571.416	12.64
571.611	12.64
571.806	12.67
572.002	12.77
572.197	12.84
572.392	12.78
572.587	12.88
572.782	13.13
572.977	13.31
573.172	13.19
573.367	13.37
573.562	13.19
573.757	13.16
573.952	13.1
574.147	13.06
574.342	13.07
574.537	13.25
574.732	13.11
574.927	13.12
575.121	13.25
575.316	13.64
575.511	13.79
575.706	13.73
575.901	14
576.096	14
576.29	14.22
576.485	14.24
576.68	14.03
576.875	14.22
577.069	14.1
577.264	13.83
577.459	13.54
577.654	13.17
577.848	13.2
578.043	12.92
578.238	13.1
578.432	13.19
578.627	13.34
578.821	13.56
579.016	13.36
579.21	13.45
579.405	13.59
579.6	13.6
579.794	14.01
579.989	13.97
580.183	14.31
580.378	14.52
580.572	14.35
580.766	14.46
580.961	14.43
581.155	14.79
581.35	14.7
581.544	14.65
581.738	14.86
581.933	15.11
582.127	15.28
582.321	14.8
582.516	14.43
582.71	14.27
582.904	13.92
583.099	13.71
583.293	13.78
583.487	13.69
583.681	13.75
583.875	13.43
584.07	12.8
584.264	12.77
584.458	13.05
584.652	13.26
584.846	13.23
585.04	13.54
585.234	13.79
585.428	13.87
585.623	13.95
585.817	14.15
586.011	14.44
586.205	14.78
586.399	14.91
586.593	14.97
586.787	14.96
586.981	15.18
587.174	14.81
587.368	14.83
587.562	14.81
587.756	14.86
587.95	15.13
588.144	14.87
588.338	14.89
588.532	14.91
588.725	14.94
588.919	15.12
589.113	15.24
589.307	15.63
589.501	15.66
589.694	15.42
589.888	15.59
590.082	15.49
590.275	15.79
590.469	15.64
590.663	15.69
590.856	15.7
591.05	15.6
591.244	15.35
591.437	15.42
591.631	15.24
591.824	15.52
592.018	15.51
592.212	15.34
592.405	15.22
592.599	15.15
592.792	15.31
592.986	15.47
593.179	15.62
593.372	15.62
593.566	15.47
593.759	15.88
593.953	15.83
594.146	15.77
594.339	15.97
594.533	15.78
594.726	16.11
594.92	15.86
595.113	15.82
595.306	15.78
595.499	16.04
595.693	16.12
595.886	16.03
596.079	16.08
596.272	16.44
596.466	16.41
596.659	16.59
596.852	16.41
597.045	16.45
597.238	16.45
597.431	16.54
597.624	16.45
597.818	16.36
598.011	16.21
598.204	16.3
598.397	15.93
598.59	15.84
598.783	15.91
598.976	15.78
599.169	15.84
599.362	15.74
599.555	15.79
599.748	15.79
599.941	15.89
600.134	16.13
600.326	16.12
600.519	16.34
600.712	16.2
600.905	16.15
601.098	16.55
601.291	16.53
601.483	16.59
601.676	16.54
601.869	16.57
602.062	16.7
602.255	16.93
602.447	16.78
602.64	16.75
602.833	16.89
603.025	16.88
603.218	16.77
603.411	16.69
603.603	16.7
603.796	16.92
603.989	16.89
604.181	16.75
604.374	16.56
604.566	16.59
604.759	16.53
604.951	16.33
605.144	16.31
605.336	16.34
605.529	16.61
605.721	16.56
605.914	16.18
606.106	16.19
606.299	16.53
606.491	16.56
606.683	16.53
606.876	16.47
607.068	16.83
607.26	16.93
607.453	17.02
607.645	16.82
607.837	17.12
608.03	17.18
608.222	17.48
608.414	17.32
608.606	17.33
608.799	17.56
608.991	17.57
609.183	17.51
609.375	17.44
609.567	17.31
609.759	17.49
609.952	17.11
610.144	17.22
610.336	16.89
610.528	16.79
610.72	16.97
610.912	16.88
611.104	17.14
611.296	16.99
611.488	16.98
611.68	17.06
611.872	16.95
612.064	17.18
612.256	17.07
612.448	17.09
612.64	17.25
612.832	16.81
613.023	16.85
613.215	16.73
613.407	16.86
613.599	16.83
613.791	16.81
613.983	16.86
614.174	16.87
614.366	16.77
614.558	16.88
614.75	16.59
614.941	16.93
615.133	16.94
615.325	16.59
615.516	16.49
615.708	16.65
615.9	16.97
616.091	16.94
616.283	16.99
616.475	17.41
616.666	17.71
616.858	17.73
617.049	17.59
617.241	17.42
617.432	17.82
617.624	17.86
617.815	17.98
618.007	17.73
618.198	17.51
618.39	17.91
618.581	17.68
618.773	17.3
618.964	17.69
619.155	17.6
619.347	17.7
619.538	17.68
619.729	17.76
619.921	17.51
620.112	17.75
620.303	18
620.494	17.36
620.686	17.72
620.877	17.64
621.068	17.44
621.259	17.29
621.451	17.19
621.642	17.19
621.833	17.39
622.024	17.61
622.215	17.37
622.406	17.27
622.597	17.52
622.788	17.43
622.98	17.68
623.171	17.49
623.362	17.67
623.553	17.57
623.744	17.4
623.935	17.07
624.126	17.2
624.317	17.38
624.508	17.29
624.698	17.29
624.889	16.92
625.08	17.08
625.271	16.95
625.462	16.97
625.653	17.04
625.844	16.92
626.034	16.94
626.225	16.86
626.416	16.82
626.607	17.11
626.798	17.17
626.988	17.26
627.179	17.22
627.37	17.32
627.56	17.29
627.751	17.55
627.942	17.8
628.132	17.88
628.323	17.74
628.514	17.64
628.704	17.45
628.895	17.53
629.085	17.52
629.276	17.58
629.466	17.44
629.657	17.42
629.847	17.14
630.038	17.17
630.228	17.04
630.419	17.01
630.609	17.21
630.8	17.2
630.99	16.95
631.181	17.28
631.371	16.91
631.561	17.3
631.752	17.47
631.942	17.65
632.132	17.67
632.323	17.91
632.513	18.39
632.703	18.34
632.893	18.27
633.084	18.48
633.274	18.38
633.464	18.65
633.654	18.42
633.844	18.33
634.034	18.28
634.225	18.15
634.415	18.17
634.605	17.69
634.795	17.55
634.985	17.73
635.175	17.8
635.365	17.81
635.555	17.6
635.745	17.78
635.935	17.67
636.125	17.74
636.315	17.44
636.505	17.48
636.695	17.55
636.885	17.82
637.075	17.87
637.265	17.7
637.455	17.49
637.644	17.65
637.834	17.45
638.024	17.62
638.214	17.61
638.404	17.73
638.593	17.87
638.783	18.27
638.973	17.76
639.163	17.66
639.352	17.91
639.542	18.06
639.732	18.36
639.921	18.74
640.111	18.87
640.301	18.77
640.49	19.16
640.68	18.81
640.87	19.01
641.059	19.68
641.249	20.23
641.438	19.98
641.628	20.01
641.817	19.58
642.007	19.55
642.196	19.67
642.386	19.58
642.575	19.62
642.764	19.94
642.954	19.76
643.143	19.71
643.333	18.71
643.522	19.19
643.711	19.19
643.901	19.42
644.09	19.4
644.279	19.08
644.469	18.98
644.658	19.5
644.847	19.54
645.036	19.26
645.226	19.28
645.415	19.94
645.604	19.6
645.793	19.63
645.982	19.46
646.171	19.15
646.361	19.78
646.55	20.14
646.739	19.25
646.928	19.44
647.117	19.28
647.306	19.3
647.495	18.94
647.684	18.87
647.873	18.85
648.062	19.33
648.251	19.33
648.44	18.69
648.629	18.43
648.818	18.96
649.007	18.44
649.196	18.38
649.384	18.15
649.573	18.21
649.762	17.97
649.951	18.32
650.14	17.77
650.328	17.73
650.517	17.56
650.706	17.83
650.895	17.58
651.083	17.78
651.272	18.08
651.461	17.73
651.65	18.01
651.838	17.95
652.027	17.6
652.216	17.85
652.404	17.83
652.593	18.07
652.781	17.8
652.97	17.98
653.158	18.11
653.347	18.03
653.535	18.41
653.724	18.7
653.912	18.97
654.101	19.11
654.289	19.02
654.478	19.35
654.666	19.26
654.855	19.08
655.043	19.09
655.231	18.64
655.42	18.47
655.608	18.95
655.796	18.66
655.985	18.59
656.173	18.92
656.361	19.11
656.55	18.71
656.738	19.44
656.926	20.11
657.114	19.94
657.302	20
657.491	19.99
657.679	19.17
657.867	19.32
658.055	19.46
658.243	18.88
658.431	19.02
658.619	19.44
658.807	19.07
658.996	18.97
659.184	18.96
659.372	19.25
659.56	19.05
659.748	19.2
659.936	18.9
660.124	18.85
660.311	18.82
660.499	18.38
660.687	18.28
660.875	18.45
661.063	18.5
661.251	18.61
661.439	18.45
661.627	18.62
661.814	18.97
662.002	18.7
662.19	18.51
662.378	18.5
662.565	19.09
662.753	19.34
662.941	19.3
663.129	18.89
663.316	18.91
663.504	19.12
663.692	19.4
663.879	19.27
664.067	19.72
664.254	19.92
664.442	19.89
664.63	19.5
664.817	18.92
665.005	18.94
665.192	19.21
665.38	19.22
665.567	19.34
665.755	19.45
665.942	19.22
666.13	19.7
666.317	19.89
666.504	19.76
666.692	20.02
666.879	20.07
667.067	19.71
667.254	19.37
667.441	19.07
667.629	18.23
667.816	17.74
668.003	17.62
668.19	17.75
668.378	17.94
668.565	18.52
668.752	18.6
668.939	18.62
669.127	18.62
669.314	18.88
669.501	19.31
669.688	19.59
669.875	19.92
670.062	19.72
670.249	18.88
670.436	18.48
670.623	18.28
670.81	18.44
670.997	18.66
671.184	18.68
671.371	18.67
671.558	18.64
671.745	18.96
671.932	18.88
672.119	19.57
672.306	19.52
672.493	19.61
672.68	19.86
672.867	19.62
673.054	20.04
673.24	19.95
673.427	19.56
673.614	19.08
673.801	18.56
673.988	19.1
674.174	18.88
674.361	19.23
674.548	19.7
674.734	19.54
674.921	19.29
675.108	18.84
675.294	18.95
675.481	19.43
675.668	19.32
675.854	19.88
676.041	19.81
676.227	19.92
676.414	19.49
676.601	19.07
676.787	19.17
676.974	19.24
677.16	19.49
677.347	19.9
677.533	20.26
677.719	20.29
677.906	20.54
678.092	20.28
678.279	20.08
678.465	20.47
678.651	20.27
678.838	20.22
679.024	20.2
679.21	19.75
679.397	19.45
679.583	19.3
679.769	19.44
679.955	19.43
680.142	19.41
680.328	19.7
680.514	19.59
680.7	19.68
680.886	19.79
681.073	19.77
681.259	20.42
681.445	20.6
681.631	20.48
681.817	20.72
682.003	20.26
682.189	20.23
682.375	19.93
682.561	19.75
682.747	19.66
682.933	19.53
683.119	19.11
683.305	18.78
683.491	18.27
683.677	18.15
683.863	18.07
684.049	18.3
684.235	18.19
684.42	17.94
684.606	18.8
684.792	19.36
684.978	19.3
685.164	19.76
685.349	19.58
685.535	19.83
685.721	19.99
685.907	19.86
686.092	20.15
686.278	19.99
686.464	20.43
686.649	19.49
686.835	19.11
687.021	18.95
687.206	18.97
687.392	19.51
687.577	19.93
687.763	20.12
687.948	20.32
688.134	19.71
688.319	19.82
688.505	19.61
688.69	20.23
688.876	20.32
689.061	20.55
689.247	21.23
689.432	21.04
689.618	20.7
689.803	20.32
689.988	20.07
690.174	20.38
690.359	20.36
690.544	20.43
690.73	20.11
690.915	19.87
691.1	19.85
691.285	19.2
691.471	18.39
691.656	18.18
691.841	17.83
692.026	17.75
692.211	18.43
692.396	18.64
692.582	18.85
692.767	19.2
692.952	19.53
693.137	19.37
693.322	19.36
693.507	19.84
693.692	20.35
693.877	20.69
694.062	21.22
694.247	20.56
694.432	20.98
694.617	20.54
694.802	20.39
694.987	20.26
695.172	20.33
695.357	20.09
695.541	19.77
695.726	19.69
695.911	19.69
696.096	19.25
696.281	18.79
696.466	18.82
696.65	19.47
696.835	19.16
697.02	19.56
697.204	19.91
697.389	19.93
697.574	20.13
697.759	19.88
697.943	20.17
698.128	20.17
698.312	20.54
698.497	20.24
698.682	20.05
698.866	20.48
699.051	20.2
699.235	19.79
699.42	20.23
699.604	20.12
699.789	20.63
699.973	20.44
700.158	21.03
700.342	21.18
700.527	21.34
700.711	21.56
700.895	21.37
701.08	21.16
701.264	21.23
701.448	21.21
701.633	21.51
701.817	20.8
702.001	21.17
702.186	20.59
702.37	20.22
702.554	20.13
702.738	20.03
702.923	20.5
703.107	20.69
703.291	21.06
703.475	20.31
703.659	20.19
703.843	20.56
704.027	20.42
704.212	20.24
704.396	20.59
704.58	20.42
704.764	20.08
704.948	19.41
705.132	19.28
705.316	18.9
705.5	19.04
705.684	19.2
705.868	18.75
706.052	18.48
706.235	18.87
706.419	18.66
706.603	17.85
706.787	18.32
706.971	18.09
707.155	18.38
707.339	19.15
707.522	19.54
707.706	19.48
707.89	19.88
708.074	20.01
708.257	20.38
708.441	20.39
708.625	21.5
708.808	21.58
708.992	21.65
709.176	21.63
709.359	21.97
709.543	22.02
709.727	22.7
709.91	22.68
710.094	22.58
710.277	22.28
710.461	22.14
710.644	22.47
710.828	22.5
711.011	22.24
711.195	22.72
711.378	22.43
711.562	22.32
711.745	21.62
711.928	21.09
712.112	20.44
712.295	20.05
712.478	20.4
712.662	20.21
712.845	19.94
713.028	20.61
713.212	20.29
713.395	20.13
713.578	19.69
713.761	19.7
713.945	20.58
714.128	21.54
714.311	21.99
714.494	21.31
714.677	20.7
714.86	20.51
715.043	20.53
715.227	20.03
715.41	19.74
715.593	19.66
715.776	19.87
715.959	18.92
716.142	18.72
716.325	18.28
716.508	18.69
716.691	18.83
716.874	19.09
717.057	18.23
717.239	18.97
717.422	19.05
717.605	20.03
717.788	20.11
717.971	20.53
718.154	20.41
718.337	20.03
718.519	20.44
718.702	20.39
718.885	20.03
719.068	20.56
719.25	19.82
719.433	19.64
719.616	18.6
719.798	18.25
719.981	18.83
720.164	18.67
720.346	19.4
720.529	19.27
720.712	18.44
720.894	19.35
721.077	19.46
721.259	19.82
721.442	19.83
721.624	21.59
721.807	21.27
721.989	19.51
722.172	19.01
722.354	18.68
722.537	18.22
722.719	19.77
722.901	20.1
723.084	19.62
723.266	19.51
723.448	19.3
723.631	18.43
723.813	19.46
723.995	20.66
724.178	21.19
724.36	21.62
724.542	21.39
724.724	20.77
724.907	19.4
725.089	19.98
725.271	19.97
725.453	19.49
725.635	18.8
725.817	17.91
725.999	17.6
726.181	17.66
726.364	17.38
726.546	17.34
726.728	17.84
726.91	18.16
727.092	18.47
727.274	18.86
727.456	20.05
727.638	20.37
727.819	21.07
728.001	22.14
728.183	21.46
728.365	21.09
728.547	21.88
728.729	21.58
728.911	21.23
729.093	21.32
729.274	21.3
729.456	20.82
729.638	20.23
729.82	20.53
730.001	20.33
730.183	20.75
730.365	21.22
730.546	20.93
730.728	21.13
730.91	21.46
731.091	21.16
731.273	21.32
731.455	21.18
731.636	21.31
731.818	20.76
731.999	20.79
732.181	21.11
732.362	20.87
732.544	18.54
732.725	18.16
732.907	18.04
733.088	18.36
733.27	17.99
733.451	17.81
733.633	18.03
733.814	17.95
733.995	17.02
734.177	18.03
734.358	17.48
734.539	19.22
734.721	19.84
734.902	20.24
735.083	19.44
735.264	20.17
735.446	21.03
735.627	21.75
735.808	22.02
735.989	22.6
736.17	22.28
736.351	22.63
736.533	23.42
736.714	22.36
736.895	21.24
737.076	22.09
737.257	20.96
737.438	19.15
737.619	18.88
737.8	18.94
737.981	18.66
738.162	18.39
738.343	18.67
738.524	19.06
738.705	19.68
738.886	20.16
739.067	20.5
739.247	21.57
739.428	22.99
739.609	24.09
739.79	23.62
739.971	24.35
740.151	23.35
740.332	23.88
740.513	22.55
740.694	23.05
740.874	23.11
741.055	22.71
741.236	22.18
741.417	22.36
741.597	20.82
741.778	20.23
741.958	20.46
742.139	20.91
742.32	21.99
742.5	22.59
742.681	21.76
742.861	22.32
743.042	21.7
743.222	20.48
743.403	20.05
743.583	18.54
743.764	18.94
743.944	17.1
744.124	19.06
744.305	17.34
744.485	18.9
744.666	19.19
744.846	18.57
745.026	17.78
745.207	18.32
745.387	18.03
745.567	20.39
745.747	20.34
745.928	21.67
746.108	20.66
746.288	20.47
746.468	19.55
746.648	21.29
746.829	21.79
747.009	22.06
747.189	22.7
747.369	23.11
747.549	22.89
747.729	22.79
747.909	21.53
748.089	21.79
748.269	21.34
748.449	20.93
748.629	19.21
748.809	20.18
748.989	21.1
749.169	20.43
749.349	20.47
749.529	19.05
749.709	18.18
749.889	19.89
750.068	19.29
750.248	20.74
750.428	20.91
750.608	21.5
750.788	20.12
750.967	19.84
751.147	20.3
751.327	21.36
751.507	21.88
751.686	24.45
751.866	25.16
752.046	23.96
752.225	23.37
752.405	23.22
752.585	23.91
752.764	24.79
752.944	25.8
753.123	26.43
753.303	25.12
753.482	25.41
753.662	22.83
753.841	21.01
754.021	21.96
754.2	22.09
754.38	21.86
754.559	21.32
754.739	19.38
754.918	18.86
755.097	18.84
755.277	18.88
755.456	18.78
755.635	20.01
755.815	22.03
755.994	21.78
756.173	20.71
756.352	21.1
756.532	20.55
756.711	21.77
756.89	21.69
757.069	21.77
757.248	21.66
757.427	21.64
757.607	21.75
757.786	20.2
757.965	20
758.144	21.49
758.323	21.05
758.502	20.72
758.681	21.82
758.86	21.85
759.039	21.21
759.218	21.17
759.397	21.86
759.576	21.09
759.755	20.47
759.934	20.5
760.113	20.24
760.291	20.24
760.47	19.79
760.649	19.43
760.828	19.45
761.007	19.8
761.186	20.2
761.364	19.81
761.543	20.11
761.722	20.17
761.901	21.53
762.079	22.74
762.258	22.96
762.437	23.48
762.615	22.63
762.794	22.04
762.972	21.16
763.151	21.17
763.33	21.64
763.508	21.32
763.687	21.87
763.865	21.71
764.044	19.95
764.222	19.97
764.401	19.43
764.579	19.46
764.758	19.73
764.936	19.59
765.114	19.28
765.293	18.61
765.471	18.98
765.65	18.63
765.828	18.09
766.006	18.13
766.184	17.51
766.363	17.92
766.541	18.28
766.719	17.44
766.898	17.57
767.076	18.59
767.254	19.23
767.432	20.41
767.61	20.46
767.788	19.36
767.967	20.35
768.145	20.04
768.323	21.15
768.501	21.05
768.679	22.54
768.857	24.05
769.035	23.1
769.213	21.9
769.391	21.32
769.569	21.42
769.747	22.36
769.925	23.83
770.103	26.7
770.281	25.79
770.459	26.5
770.636	26.35
770.814	26.38
770.992	26.33
771.17	26.53
771.348	27.41
771.525	26.19
771.703	25.31
771.881	22.38
772.059	19.5
772.236	19.5
772.414	17.5
772.592	16.55
772.769	15.5
772.947	18.83
773.125	19.58
773.302	17.46
773.48	18.36
773.657	19.95
773.835	21.45
774.013	22.95
774.19	23.63
774.368	24.3
774.545	23.71
774.723	23.95
774.9	20.56
775.077	18.7
775.255	18.02
775.432	20.93
775.61	20.81
775.787	20.98
775.964	20.56
776.142	20.94
776.319	21.06
776.496	21.11
776.674	20.56
776.851	19.14
777.028	20.69
777.205	24.28
777.382	22.52
777.56	21.1
777.737	21.22
777.914	21.08
778.091	18.91
778.268	18.26
778.445	18.67
778.622	20.76
778.8	21.79
778.977	23.44
779.154	21.45
779.331	20.02
779.508	21.06
779.685	20.24
779.862	20.67
780.038	22.71
780.215	21.22
780.392	21.55
780.569	19.09
780.746	20.96
780.923	18.54
781.1	16.81
781.277	17.84
781.453	18.53
781.63	19.51
781.807	19.05
781.984	18.64
782.16	22.56
782.337	22.11
782.514	21.88
782.691	20.79
782.867	21.48
783.044	23.32
783.221	25.33
783.397	24.03
783.574	24.01
783.75	23.47
783.927	22.5
784.103	23.44
784.28	22.78
784.456	23.48
784.633	22.12
784.809	21.47
784.986	21.86
785.162	20.77
785.339	22.44
785.515	20.45
785.692	23.11
785.868	21.44
786.044	21.25
786.221	22.03
786.397	21.68
786.573	24.59
786.749	24.14
786.926	22.41
787.102	20.32
787.278	18.32
787.454	18.73
787.631	16.89
787.807	19.2
787.983	14.83
788.159	17.67
788.335	17.57
788.511	16.93
788.687	16.73
788.863	17.08
789.039	18.09
789.216	19.53
789.392	22.26
789.568	22.38
789.744	21.49
789.919	23.86
790.095	19.92
790.271	22.03
790.447	21.83
790.623	23.78
790.799	25.45
790.975	26.86
791.151	27.48
791.327	25.59
791.502	26.21
791.678	22.77
791.854	21.08
792.03	22.33
792.205	21.47
792.381	21.14
792.557	18.53
792.733	18.1
792.908	16.23
793.084	15.02
793.259	18.1
793.435	17.95
793.611	21.47
793.786	22.25
793.962	22.94
794.137	23.97
794.313	21.89
794.488	22.84
794.664	25.46
794.839	26.21
795.015	24.97
795.19	22.53
795.366	20.89
795.541	18.55
795.716	20.73
795.892	16.99
796.067	16.1
796.242	17.29
796.418	18.77
796.593	16.64
796.768	17.99
796.944	19.47
797.119	18.19
797.294	19.87
797.469	20.31
797.644	19.39
797.82	27.4
797.995	27.96
798.17	29.33
798.345	29.56
798.52	28.17
798.695	28.16
798.87	28.51
799.045	29.68
799.22	29.33
799.395	32.18
799.57	31.76
799.745	28.89
799.92	27.6
800.095	27.22
800.27	24.41
800.445	25.32
800.62	25.59
800.795	24.53
800.97	23.96
801.145	24.93
801.319	24.33
801.494	23.89
801.669	23.01
801.844	21.84
802.018	20.01
802.193	22.73
802.368	25.35
802.543	24.76
802.717	23.49
802.892	22.19
803.067	22.79
803.241	19.53
803.416	18.52
803.59	17.78
803.765	21.96
803.94	23.53
804.114	21.36
804.289	17.23
804.463	15.78
804.638	17.93
804.812	20.7
804.986	16.74
805.161	20.84
805.335	22.87
805.51	25.07
805.684	22.31
805.858	23.35
806.033	24.39
806.207	26.91
806.381	30.07
806.556	31.2
806.73	30.62
806.904	32.61
807.078	31.77
807.253	31.49
807.427	29.76
807.601	26.68
807.775	21.8
807.949	23.44
808.123	20.12
808.298	13.4
808.472	13.09
808.646	14.04
808.82	17.33
808.994	14.58
809.168	13.44
809.342	12.38
809.516	15.52
809.69	17.37
809.864	15.02
810.038	13.8
810.212	15.57
810.385	12.55
810.559	11.07
810.733	5.66
810.907	5.17
811.081	6.36
811.255	7.28
811.428	8.31
811.602	11.98
811.776	14.57
811.95	18.61
812.123	21.44
812.297	23.08
812.471	22.22
812.644	22.99
812.818	27.4
812.992	28.62
813.165	27.71
813.339	29.75
813.512	28.04
813.686	24
813.86	25.43
814.033	20.66
814.207	22.03
814.38	24.2
814.554	20.58
814.727	18.98
814.9	14.52
815.074	15.72
815.247	16.29
815.421	19.09
815.594	20.73
815.767	21.92
815.941	21.58
816.114	17.92
816.287	15.48
816.46	18.35
816.634	16.86
816.807	15.68
816.98	14.42
817.153	10.19
817.327	7.9
817.5	8.91
817.673	4.97
817.846	7.71
818.019	11.49
818.192	12.34
818.365	18.78
818.538	15.98
818.711	19.01
818.884	19.93
819.057	20.55
819.23	21.97
819.403	21.23
819.576	23.15
819.749	23.83
819.922	23.36
820.095	22.25
820.268	17.84
820.441	20.97
820.614	21.63
820.786	21.7
820.959	23.81
821.132	23.55
821.305	24.14
821.477	23.72
821.65	22.61
821.823	21.29
821.996	20.73
822.168	21.32
822.341	20.89
822.514	21.21
822.686	20.3
822.859	19.82
823.031	19.66
823.204	20.08
823.376	19.96
823.549	20.92
823.722	21.12
823.894	21.38
824.067	21.11
824.239	21.47
824.411	20.29
824.584	20.98
824.756	20.91
824.929	21.15
825.101	20.72
825.273	20.26
825.446	19.68
825.618	19.86
825.79	19.17
825.963	18.49
826.135	17.69
826.307	18.97
826.479	18.11
826.652	18.42
826.824	18.17
826.996	16.97
827.168	17.24
827.34	17.22
827.512	17.2
827.684	18.77
827.856	18.82
828.029	18.42
828.201	17.36
828.373	19
828.545	16.59
828.717	15.82
828.889	17.44
829.061	16.59
829.232	14.71
829.404	16.12
829.576	18.01
829.748	18.12
829.92	19.25
830.092	23.68
830.264	24.67
830.436	27.54
830.607	27.9
830.779	25.09
830.951	26.46
831.123	27.67
831.294	25.97
831.466	19.49
831.638	21.64
831.809	20.33
831.981	15.34
832.153	9.97
832.324	10.37
832.496	11.13
832.667	11.19
832.839	10.39
833.011	11.45
833.182	13.29
833.354	16.37
833.525	13.51
833.697	18.45
833.868	18.19
834.039	19.09
834.211	20.07
834.382	21.75
834.554	21.69
834.725	21.66
834.896	23.76
835.068	23
835.239	22.64
835.41	24.46
835.581	22.22
835.753	24.3
835.924	26.11
836.095	26.8
836.266	24.6
836.438	25.48
836.609	24.99
836.78	21.03
836.951	23.74
837.122	25.2
837.293	23.92
837.464	22.44
837.635	21.56
837.806	22.3
837.977	19.93
838.148	17.99
838.319	16.15
838.49	18.48
838.661	17.73
838.832	13.44
839.003	10.95
839.174	9.48
839.345	14.8
839.516	10.68
839.687	9.05
839.857	7.11
840.028	11.78
840.199	10.68
840.37	2.47
840.54	9.89
840.711	9.65
840.882	6.97
841.053	9.43
841.223	4.03
841.394	5.32
841.564	4.04
841.735	1.68
841.906	1.88
842.076	1.47
842.247	8.42
842.417	7.62
842.588	3.56
842.758	9.39
842.929	-0.83
843.099	1.58
843.27	1.22
843.44	-4.26
843.611	-2.27
843.781	-0.89
843.951	3.52
844.122	1.87
844.292	-2.47
844.462	-1.71
844.633	4.54
844.803	20.61
844.973	14.95
845.144	16.61
845.314	28.85
845.484	39.29
845.654	19.81
845.824	11.82
845.995	19.95
846.165	18.2
846.335	27.82
846.505	23.96
846.675	17.12
846.845	21.1
847.015	14.25
847.185	12.29
847.355	9.12
847.525	17.95
847.695	21.24
847.865	12.35
848.035	15.96
848.205	14.96
848.375	9.23
848.545	8.76
848.715	10.03
848.884	23.38
849.054	13.77
849.224	12.56
849.394	13.32
849.564	21.58
849.733	30.07
849.903	24.47
850.073	19.34
850.243	25.36
850.412	17.35
850.582	10.79
850.752	5.89
850.921	14.76
851.091	8.17
851.26	17.31
851.43	4.08
851.599	5.6
851.769	11.75
851.939	8.73
852.108	2.76
852.278	13.37
852.447	10.97
852.616	11.94
852.786	17.64
852.955	25.37
853.125	17.61
853.294	20.6
853.463	23.5
853.633	17.95
853.802	22.07
853.971	27.45
854.141	15.74
854.31	38.16
854.479	28.24
854.648	25.43
854.818	14.37
854.987	9.14
855.156	18.15
855.325	-2.81
855.494	-3.91
855.663	-0.55
855.832	-2.25
856.001	-0.2
856.171	-29.98
856.34	-29.73
856.509	-61.67
856.678	-35.85
856.847	-3.07
857.016	-6.99
857.185	20.54
857.353	14.98
857.522	17.46
857.691	11.69
857.86	16.98
858.029	27.27
858.198	26.96
858.367	33.08
858.535	30.28
858.704	14.23
858.873	15.8
859.042	13
859.21	-1.02
859.379	-9.93
859.548	10.05
859.717	-0.81
859.885	-18.46
860.054	-8.31
860.222	-31.18
860.391	-36.39
860.56	-29.09
860.728	-21.97
860.897	-18.91
861.065	-5.27
861.234	-1.21
861.402	-0.34
861.571	14.03
861.739	27.99
861.908	29.76
862.076	46.25
862.244	54.23
862.413	46.77
862.581	38.19
862.749	23.2
862.918	24.87
863.086	15.55
863.254	-6.61
863.423	-11.3
863.591	1.46
863.759	-14.27
863.927	-18.24
864.096	-24.39
864.264	-48.22
864.432	-28.68
864.6	-50.76
864.768	-27.89
864.936	-29.24
865.104	-11.97
865.272	-17.01
865.44	-33.11
865.608	-34.74
865.776	-31.76
865.944	-30.65
866.112	-12.63
866.28	-11.49
866.448	-4.86
866.616	-13.93
866.784	14.55
866.952	-3.46
867.12	-10.66
867.288	-3.88
867.455	-28.01
867.623	-39.49
867.791	-17.61
867.959	-17.64
868.127	1.35
868.294	15.44
868.462	23.98
868.63	11.73
868.797	28.4
868.965	50.39
869.133	44.85
869.3	50.76
869.468	64.94
869.636	48.96
869.803	43.4
869.971	39.24
870.138	55.27
870.306	51.62
870.473	38.27
870.641	47.99
870.808	25.54
870.975	32.81
871.143	27.17
871.31	-19.36
871.478	-25.47
871.645	-16.27
871.812	2.48
871.98	-9.96
872.147	-4.75
872.314	-5.95
872.482	-8.51
872.649	-0.51
872.816	8.63
872.983	25.85
873.15	36.37
873.318	33.98
873.485	18.84
873.652	13.66
873.819	4.16
873.986	-20.26
874.153	-1.13
874.32	-11.55
874.487	-14.17
874.654	-32.09
874.821	-60.68
874.988	-45.15
875.155	-57.83
875.322	-34.09
875.489	-14.43
875.656	-10.3
875.823	19.06
875.99	8.4
876.157	28.73
876.324	45.83
876.49	41.05
876.657	55.96
876.824	47.42
876.991	49.51
877.157	60.31
877.324	46.23
877.491	34.21
877.658	22.61
877.824	30.25
877.991	16.77
878.157	-3.29
878.324	1.99
878.491	11.64
878.657	9.61
878.824	11.35
878.99	-2.54
879.157	10.97
879.323	18.1
879.49	22.75
879.656	-4.18
879.823	-31.84
879.989	-13.08
880.156	-21.48
880.322	-18.21
880.488	-7.99
880.655	-20.64
880.821	-12.88
880.987	-22.27
881.154	-4.81
881.32	6.89
881.486	17.69
881.652	24.41
881.819	21.73
881.985	27.46
882.151	18.2
882.317	16.83
882.483	20.16
882.649	18.14
882.816	16.69
882.982	12.05
883.148	13.91
883.314	14.06
883.48	13.54
883.646	16.26
883.812	11.64
883.978	13.99
884.144	15.33
884.31	12.87
884.476	11.86
884.642	13.12
884.807	16.7
884.973	15.13
885.139	17.59
885.305	19.54
885.471	17.02
885.637	17.98
885.802	17.06
885.968	17.89
886.134	19.43
886.3	27.53
886.465	27.12
886.631	25.17
886.797	20.92
886.962	17.52
887.128	20.8
887.293	25.33
887.459	28.57
887.625	31.34
887.79	29.3
887.956	32.29
888.121	26.81
888.287	28.61
888.452	29.11
888.618	38.04
888.783	39.33
