Data from 2937827_Reflection_3.txt Node
Date: Wed Jul 15 16:59:04 EDT 2015
User: robert
Spectrometer: USB4E03001
Autoset integration time: false
Trigger mode: 4
Integration Time (sec): 1.000000E-1
Scans to average: 10
Electric dark correction enabled: true
Nonlinearity correction enabled: false
Boxcar width: 5
Stray light correction enabled: false
XAxis mode: Wavelengths
Stop averaging: false
Number of Pixels in Spectrum: 3648
>>>>>Begin Spectral Data<<<<<
177.566	58.26
177.785	54.73
178.005	43.78
178.225	53.77
178.445	70.35
178.665	60.28
178.885	152.42
179.105	70.33
179.324	83.11
179.544	87.05
179.764	96.26
179.984	71.27
180.204	65.6
180.423	51.94
180.643	53.88
180.863	79.59
181.083	73.79
181.302	85.23
181.522	65.7
181.742	12.15
181.961	11.16
182.181	-34.02
182.401	-14.59
182.621	1.5
182.84	2.23
183.06	8.2
183.279	-36.92
183.499	-31.05
183.719	-20.34
183.938	-31.8
184.158	-18.39
184.377	-25.12
184.597	1.08
184.816	-5.58
185.036	-32.9
185.256	-3.46
185.475	-24.8
185.695	46.93
185.914	-37.65
186.134	-63.69
186.353	11.59
186.572	31.03
186.792	23.4
187.011	-7.74
187.231	16.14
187.45	-1.29
187.67	-10.54
187.889	-12.32
188.108	-18.19
188.328	-34.36
188.547	-66.74
188.766	-64
188.986	-50.4
189.205	-38.63
189.424	-45.28
189.644	-68.47
189.863	-48.15
190.082	-111.47
190.302	-19.95
190.521	-0.99
190.74	59.39
190.959	42.18
191.178	63.38
191.398	27.94
191.617	50.08
191.836	65.01
192.055	83.61
192.274	82.28
192.494	45.58
192.713	5.2
192.932	-25.15
193.151	-34.19
193.37	1.15
193.589	-54.03
193.808	-43.76
194.027	-49.83
194.246	-56.87
194.465	-25.64
194.685	-30.41
194.904	-8.08
195.123	-88.42
195.342	-21.92
195.561	-18.62
195.78	-322.21
195.999	12.23
196.218	-31.56
196.436	-43.5
196.655	10.43
196.874	-629.32
197.093	-304.19
197.312	-81.17
197.531	213.89
197.75	282.44
197.969	169.1
198.188	139.53
198.407	118
198.625	107.39
198.844	104.89
199.063	106.25
199.282	97.26
199.501	87.59
199.719	85
199.938	97
200.157	88.36
200.376	54.42
200.594	83.72
200.813	102.56
201.032	97.23
201.251	89.93
201.469	76.66
201.688	91.43
201.907	67.22
202.125	92.48
202.344	90.41
202.563	81.81
202.781	171.3
203	113.51
203.218	117.55
203.437	113.24
203.656	117.37
203.874	104.76
204.093	81.59
204.311	120.14
204.53	142.15
204.748	118.72
204.967	189.63
205.185	214.94
205.404	1377.78
205.622	-1169.12
205.841	4911.63
206.059	-155.8
206.278	804.29
206.496	-132.73
206.715	19.49
206.933	68.48
207.151	66.36
207.37	158.65
207.588	-114.32
207.806	32.01
208.025	28.79
208.243	82.58
208.461	64.8
208.68	53.05
208.898	65.12
209.116	52.58
209.335	46.74
209.553	47.77
209.771	46.63
209.989	36.6
210.208	-3.09
210.426	12.89
210.644	-0.41
210.862	-1.97
211.081	3.53
211.299	-1.14
211.517	16.27
211.735	10.93
211.953	31
212.171	22.03
212.39	63.45
212.608	54.95
212.826	30.97
213.044	48.56
213.262	58.69
213.48	82.2
213.698	-173.35
213.916	354.64
214.134	402.11
214.352	385.03
214.57	-719.85
214.788	934.02
215.006	534.57
215.224	-484.81
215.442	-475.22
215.66	-258.14
215.878	-516.14
216.096	-175.95
216.314	-143.35
216.532	-106.87
216.75	-143.93
216.968	-90.02
217.185	-57.6
217.403	-40.88
217.621	-17.83
217.839	27.1
218.057	51.5
218.275	63.51
218.492	65.83
218.71	75.44
218.928	95.35
219.146	110.62
219.363	128.67
219.581	129.1
219.799	143.39
220.017	202
220.234	220.56
220.452	454.53
220.67	-884.32
220.887	-236.23
221.105	-139.52
221.323	-127.39
221.54	-27.4
221.758	-85.36
221.976	-110.73
222.193	-241.12
222.411	157.26
222.629	184.01
222.846	359.84
223.064	400.74
223.281	198.31
223.499	104.55
223.716	-58.61
223.934	141.77
224.151	-105.85
224.369	-51.26
224.586	-34.1
224.804	-59.47
225.021	-47.02
225.239	-116.52
225.456	-240.26
225.674	-256.21
225.891	-255.35
226.108	3651.42
226.326	-5466.19
226.543	7886.59
226.76	-577.52
226.978	-1412.33
227.195	-289.24
227.413	-217.68
227.63	-140.29
227.847	-63.47
228.064	-24.6
228.282	-14.39
228.499	-5.98
228.716	-7.1
228.934	-12.63
229.151	-12.49
229.368	-9.17
229.585	-7.78
229.802	-3.23
230.02	-1.73
230.237	-2.66
230.454	-3.27
230.671	-0.27
230.888	3.28
231.105	7.46
231.323	11.89
231.54	17.29
231.757	24.52
231.974	28.11
232.191	21.56
232.408	19.91
232.625	19.13
232.842	14.14
233.059	10.91
233.276	3.59
233.493	-2.11
233.71	-7.22
233.927	-17.06
234.144	-16.91
234.361	-18.29
234.578	-7.5
234.795	-1.17
235.012	-4.28
235.229	-11.5
235.446	-15.73
235.663	-21.96
235.879	-22.21
236.096	-23.56
236.313	-16.27
236.53	-26.69
236.747	-30.25
236.964	-38.08
237.181	-50.01
237.397	-32.55
237.614	-14.18
237.831	-27.93
238.048	-28.82
238.264	-22.51
238.481	-4.57
238.698	-0.03
238.915	2.31
239.131	-0.62
239.348	-0.62
239.565	0.61
239.781	-3.55
239.998	-7.89
240.215	1.49
240.431	5.27
240.648	3.81
240.865	2.03
241.081	5.79
241.298	7.07
241.514	11.56
241.731	8.89
241.947	6.32
242.164	7.47
242.38	6.9
242.597	6.4
242.814	4.78
243.03	3.39
243.246	3.82
243.463	0.1
243.679	-1.79
243.896	-4.48
244.112	-4.61
244.329	-0.77
244.545	-2.14
244.762	-0.92
244.978	-1.71
245.194	0.92
245.411	3.31
245.627	1.71
245.843	3.76
246.06	5.48
246.276	6.36
246.492	6.03
246.709	4.82
246.925	4.55
247.141	2.97
247.357	3.49
247.574	1.72
247.79	0.39
248.006	-0.12
248.222	-0.51
248.439	-3.08
248.655	-3.1
248.871	-1.79
249.087	-2.07
249.303	-2.46
249.519	-0.98
249.736	-3.17
249.952	-3.09
250.168	-2.24
250.384	0.14
250.6	1.52
250.816	5.63
251.032	4.7
251.248	1.14
251.464	-0.22
251.68	-1.06
251.896	-4.62
252.112	-4.4
252.328	-2.42
252.544	-2.54
252.76	-6.64
252.976	-8.36
253.192	-7.91
253.408	-9.78
253.624	-11.76
253.84	-10.56
254.056	-12.61
254.272	-8.43
254.487	-10.53
254.703	-11.55
254.919	-6.87
255.135	0.07
255.351	0.35
255.567	-7.26
255.782	-2.61
255.998	-1.58
256.214	2.87
256.43	6.28
256.646	7.35
256.861	9.1
257.077	9.94
257.293	6.53
257.508	4.31
257.724	5.64
257.94	9.79
258.155	7.81
258.371	5.94
258.587	4.03
258.802	4.52
259.018	5.7
259.234	6.29
259.449	6.46
259.665	6.96
259.88	6.27
260.096	5.73
260.312	5.61
260.527	4.73
260.743	5.65
260.958	5.02
261.174	4.45
261.389	3.8
261.605	4.57
261.82	3.48
262.036	2.33
262.251	2.24
262.466	3.08
262.682	2.02
262.897	2.55
263.113	0.9
263.328	-0.68
263.543	-2.68
263.759	-3.83
263.974	-5
264.189	-4.88
264.405	-7.76
264.62	-5.22
264.835	-7.31
265.051	-2.41
265.266	0.1
265.481	4.24
265.696	4.48
265.912	10.06
266.127	11.7
266.342	9.02
266.557	9.13
266.773	9.3
266.988	7.58
267.203	6.25
267.418	4.12
267.633	5.7
267.848	4.63
268.064	5.23
268.279	3.71
268.494	-0.99
268.709	-1.16
268.924	-0.74
269.139	-0.46
269.354	-0.36
269.569	-1.05
269.784	-3.2
269.999	-6.03
270.214	-7.19
270.429	-8.03
270.644	-8.82
270.859	-5.48
271.074	-2.99
271.289	-2.65
271.504	-0.74
271.719	-1.16
271.934	1.33
272.149	1.24
272.363	0.8
272.578	1.93
272.793	2.82
273.008	3.18
273.223	3.62
273.438	1.21
273.653	0.61
273.867	-0.17
274.082	-1.58
274.297	-3.26
274.512	-1.6
274.726	-0.17
274.941	-0.22
275.156	1.72
275.371	0.88
275.585	0.82
275.8	2.52
276.015	2.56
276.229	2.93
276.444	3.42
276.659	4.6
276.873	5.77
277.088	3.42
277.302	3
277.517	1.44
277.732	4.07
277.946	4.77
278.161	3.28
278.375	1.04
278.59	1.17
278.804	1.95
279.019	1.17
279.233	-1.7
279.448	0.68
279.662	2.47
279.877	0.55
280.091	-2.68
280.306	-3.21
280.52	-4.01
280.735	-2.71
280.949	-3.36
281.163	-2.24
281.378	-2.02
281.592	-3.8
281.806	-2.99
282.021	-3.82
282.235	-1.98
282.449	-0.92
282.664	-2.55
282.878	0.8
283.092	2.12
283.307	1.49
283.521	1.73
283.735	2.49
283.949	3.8
284.164	3.14
284.378	3
284.592	2.77
284.806	0.87
285.02	1.52
285.234	-0.08
285.449	-1.35
285.663	-0.26
285.877	1.64
286.091	0.55
286.305	1.28
286.519	2.73
286.733	1.13
286.947	2.03
287.161	3.95
287.375	2.97
287.589	1.73
287.803	2.06
288.017	2.67
288.231	-0.99
288.445	0.23
288.659	0.7
288.873	-1.9
289.087	1.75
289.301	1.39
289.515	1.64
289.729	0.61
289.943	3.75
290.157	5.33
290.371	6.59
290.584	8.04
290.798	6.9
291.012	7.86
291.226	8.12
291.44	6.82
291.654	8.01
291.867	8.85
292.081	11.45
292.295	11.34
292.509	9.75
292.722	8.78
292.936	9.43
293.15	9.35
293.364	6.2
293.577	8.25
293.791	7.8
294.005	4.95
294.218	5.16
294.432	5.44
294.645	3.75
294.859	4.62
295.073	4.63
295.286	3.36
295.5	3.81
295.713	7.35
295.927	5.42
296.14	6.8
296.354	7.21
296.568	6.85
296.781	8.18
296.994	10.46
297.208	11.28
297.421	12.74
297.635	13.94
297.848	15.09
298.062	14.02
298.275	14.65
298.489	15.89
298.702	17.66
298.915	17.85
299.129	17.85
299.342	16.55
299.555	16.59
299.769	15.6
299.982	16.56
300.195	15.76
300.409	15.63
300.622	16.86
300.835	17.52
301.048	16.34
301.262	16.5
301.475	15.75
301.688	16.55
301.901	17.52
302.115	15.66
302.328	15.59
302.541	17.41
302.754	15.82
302.967	15.78
303.18	13.58
303.393	14.41
303.607	13.95
303.82	15.81
304.033	18.06
304.246	18.51
304.459	20.1
304.672	19.51
304.885	18.4
305.098	20.02
305.311	17.63
305.524	18.54
305.737	18.67
305.95	18.4
306.163	18.12
306.376	18.85
306.589	17.79
306.802	17.74
307.015	17.42
307.228	17.92
307.44	18.69
307.653	22.23
307.866	20.19
308.079	19.52
308.292	20.75
308.505	19.52
308.718	17.5
308.93	17.69
309.143	18.07
309.356	19.37
309.569	18.87
309.781	20.91
309.994	20.62
310.207	20.56
310.42	21.66
310.632	21.23
310.845	21.22
311.058	21.71
311.27	21.37
311.483	21.55
311.696	20.45
311.908	21.96
312.121	20.49
312.333	20.2
312.546	21.38
312.759	20.01
312.971	19.68
313.184	19.67
313.396	18.4
313.609	19.75
313.821	19
314.034	17.61
314.246	16.54
314.459	14.75
314.671	13.01
314.884	13.59
315.096	15.15
315.309	18.25
315.521	16.74
315.733	15.75
315.946	14.42
316.158	14.31
316.371	19.61
316.583	19.63
316.795	21.01
317.008	20.98
317.22	21.85
317.432	21.63
317.644	18.78
317.857	21.87
318.069	22.56
318.281	22.14
318.494	24.44
318.706	22.44
318.918	21.81
319.13	22.54
319.342	23.31
319.555	21.17
319.767	20.26
319.979	18.67
320.191	17.14
320.403	18.89
320.615	18.32
320.827	17.09
321.039	15.59
321.252	16.55
321.464	15.89
321.676	13.75
321.888	15.62
322.1	13.74
322.312	15.88
322.524	15.91
322.736	16.83
322.948	16.75
323.16	18.85
323.372	18.98
323.584	18.53
323.796	21.13
324.007	24.12
324.219	22.47
324.431	24.54
324.643	24.03
324.855	25.75
325.067	23.78
325.279	25.9
325.491	23.58
325.702	24.26
325.914	25.67
326.126	24.57
326.338	24.51
326.55	27.07
326.761	27.17
326.973	27.67
327.185	27.1
327.396	28.06
327.608	27.41
327.82	31.35
328.032	31.24
328.243	30
328.455	30.07
328.666	31.45
328.878	32.12
329.09	32.91
329.301	33.55
329.513	34.91
329.725	35.42
329.936	35.94
330.148	35.92
330.359	36.96
330.571	36.54
330.782	36.25
330.994	35
331.205	34.87
331.417	36.43
331.628	37.99
331.84	38.07
332.051	40.13
332.262	42.73
332.474	41.1
332.685	43.05
332.897	45.73
333.108	47.3
333.319	47.92
333.531	48.89
333.742	49.93
333.953	50.89
334.165	52.39
334.376	52.67
334.587	52.19
334.799	52.09
335.01	51.16
335.221	51.52
335.432	51.45
335.644	52.44
335.855	52.63
336.066	52
336.277	52.61
336.488	53
336.7	52.35
336.911	52.53
337.122	54.73
337.333	55.63
337.544	53.89
337.755	53.05
337.966	50.94
338.177	50.17
338.388	49.18
338.599	47.95
338.811	46.84
339.022	47
339.233	46.37
339.444	46.22
339.655	46.2
339.866	48.21
340.076	50.59
340.287	51.92
340.498	52.3
340.709	52.64
340.92	53.76
341.131	54.59
341.342	54.33
341.553	54.5
341.764	52.74
341.975	52.64
342.185	53.47
342.396	51.71
342.607	51.53
342.818	50.51
343.029	51.25
343.239	51.95
343.45	52.2
343.661	53.42
343.872	54.43
344.082	55.6
344.293	55.6
344.504	55.2
344.714	55.38
344.925	56.36
345.136	57.64
345.346	57.67
345.557	56.77
345.768	55.86
345.978	54.93
346.189	53.45
346.399	52.54
346.61	53.04
346.821	51.57
347.031	51.91
347.242	51.74
347.452	49.83
347.663	49.71
347.873	49.27
348.084	49.32
348.294	51.15
348.504	52.08
348.715	52.13
348.925	51.77
349.136	53.19
349.346	52.83
349.557	53.5
349.767	54.25
349.977	52.63
350.188	53.79
350.398	54.95
350.608	54.73
350.819	53.27
351.029	54.25
351.239	53.85
351.449	53.74
351.66	54.69
351.87	54.02
352.08	54.68
352.29	56.34
352.501	54.31
352.711	53.28
352.921	51.43
353.131	52.65
353.341	52.13
353.552	52.93
353.762	52.11
353.972	52.48
354.182	52.91
354.392	53.35
354.602	54.26
354.812	55.17
355.022	55.63
355.232	56.69
355.442	57.88
355.652	58.06
355.862	57.57
356.072	59.15
356.282	58.83
356.492	59.99
356.702	61.43
356.912	60.64
357.122	60.59
357.332	62.15
357.542	61.81
357.752	61.3
357.962	60.96
358.171	60.11
358.381	59.39
358.591	60.27
358.801	59.47
359.011	57.83
359.221	58.26
359.43	58.46
359.64	56.56
359.85	58.21
360.06	58.27
360.269	59.37
360.479	58.41
360.689	58.69
360.899	57.09
361.108	56.83
361.318	56.52
361.528	55.91
361.737	55.52
361.947	56.01
362.156	54.49
362.366	54.34
362.576	53.03
362.785	54.27
362.995	53.7
363.204	53.49
363.414	53.27
363.623	53.97
363.833	53.79
364.042	53.91
364.252	53.1
364.461	53.36
364.671	53.46
364.88	53.61
365.09	52.32
365.299	52.17
365.509	52.45
365.718	51.45
365.927	50.83
366.137	50.5
366.346	49.9
366.555	50.24
366.765	49.45
366.974	48.93
367.183	48.92
367.393	50.51
367.602	49.82
367.811	50.03
368.021	51.1
368.23	50.61
368.439	50.21
368.648	49.91
368.857	49.93
369.067	50.16
369.276	49.59
369.485	49.32
369.694	48.34
369.903	48.58
370.112	48.14
370.321	47.72
370.531	48.26
370.74	48.99
370.949	49.16
371.158	47.72
371.367	47.89
371.576	48.4
371.785	48.83
371.994	47.98
372.203	47.65
372.412	47.76
372.621	47.17
372.83	47.19
373.039	46.95
373.248	47.17
373.457	47.26
373.666	47.32
373.874	47.25
374.083	46.6
374.292	47.24
374.501	46.77
374.71	46.03
374.919	46.36
375.128	45.97
375.336	46
375.545	45.44
375.754	45.61
375.963	45.36
376.171	45.03
376.38	44.95
376.589	44.1
376.798	44.86
377.006	45.36
377.215	45.13
377.424	44.45
377.632	43.84
377.841	43.93
378.05	43.7
378.258	43.44
378.467	42.66
378.675	42.38
378.884	42.23
379.093	42.11
379.301	41.17
379.51	41.04
379.718	41.4
379.927	41.24
380.135	41.57
380.344	41.03
380.552	40.77
380.761	41.18
380.969	40.76
381.177	40.55
381.386	40.75
381.594	40.25
381.803	39.58
382.011	38.65
382.219	38.36
382.428	36.95
382.636	37.46
382.845	37.15
383.053	36.04
383.261	36.09
383.469	36.45
383.678	35.32
383.886	35.45
384.094	35.66
384.302	34.98
384.511	34.78
384.719	34.71
384.927	34.44
385.135	34.45
385.343	34.64
385.552	34.3
385.76	33.9
385.968	33.63
386.176	33.34
386.384	32.92
386.592	33.22
386.8	32.65
387.008	32.83
387.216	32.45
387.424	32.08
387.633	32.02
387.841	32.21
388.049	32.28
388.257	31.88
388.465	31.66
388.672	31.69
388.88	31.53
389.088	31.91
389.296	31.52
389.504	31.22
389.712	31.22
389.92	30.96
390.128	30.56
390.336	30.63
390.544	30.92
390.751	31.3
390.959	30.88
391.167	31.25
391.375	31.19
391.583	31.27
391.79	31.1
391.998	30.66
392.206	30.68
392.414	30.48
392.621	30.18
392.829	30.33
393.037	30.02
393.244	29.76
393.452	29.59
393.66	29.05
393.867	28.94
394.075	28.92
394.283	29.22
394.49	29.01
394.698	29.25
394.905	29.13
395.113	29.01
395.32	28.57
395.528	28.6
395.735	28.4
395.943	28.64
396.15	28.53
396.358	28.9
396.565	28.73
396.773	28.77
396.98	28.57
397.188	28.28
397.395	27.99
397.602	28.77
397.81	28.79
398.017	28.86
398.225	28.81
398.432	28.75
398.639	28.06
398.847	28.13
399.054	28.13
399.261	27.99
399.468	28.22
399.676	28.23
399.883	27.88
400.09	28.01
400.297	27.93
400.505	27.97
400.712	28.17
400.919	28.5
401.126	28.33
401.333	28.53
401.54	28.46
401.748	28.68
401.955	28.76
402.162	29
402.369	28.71
402.576	28.8
402.783	28.69
402.99	28.54
403.197	28.57
403.404	28.67
403.611	28.49
403.818	28.58
404.025	27.88
404.232	27.65
404.439	27.3
404.646	27.35
404.853	27.35
405.06	27.58
405.267	27.43
405.474	27.33
405.681	27.21
405.887	27.19
406.094	27.2
406.301	27.63
406.508	27.94
406.715	27.85
406.922	27.96
407.128	28.06
407.335	27.91
407.542	27.95
407.749	27.92
407.955	28.03
408.162	27.9
408.369	27.96
408.575	27.69
408.782	27.5
408.989	27.44
409.195	27.35
409.402	27.02
409.609	26.85
409.815	27.01
410.022	26.8
410.228	26.59
410.435	26.35
410.642	25.97
410.848	26.12
411.055	26.06
411.261	26.26
411.468	26.22
411.674	25.8
411.881	25.59
412.087	25.51
412.294	25.75
412.5	25.84
412.706	25.98
412.913	26
413.119	26.05
413.326	26
413.532	25.83
413.738	25.98
413.945	26.41
414.151	26.83
414.357	26.79
414.564	26.94
414.77	26.8
414.976	26.98
415.182	27.1
415.389	26.96
415.595	27.18
415.801	27.4
416.007	27.31
416.214	27.14
416.42	26.97
416.626	26.61
416.832	26.67
417.038	26.57
417.244	26.44
417.45	26.5
417.657	26.41
417.863	26.35
418.069	26.03
418.275	26.05
418.481	26.05
418.687	25.84
418.893	26.08
419.099	25.81
419.305	25.8
419.511	25.73
419.717	25.7
419.923	25.71
420.129	25.55
420.335	25.67
420.541	25.45
420.746	25.36
420.952	25.44
421.158	25.42
421.364	25.67
421.57	25.64
421.776	25.67
421.982	25.66
422.187	25.69
422.393	25.59
422.599	25.42
422.805	25.54
423.01	25.57
423.216	25.68
423.422	25.65
423.628	25.26
423.833	25.28
424.039	25.42
424.245	25.46
424.45	25.34
424.656	25.32
424.862	25.46
425.067	25.52
425.273	25.57
425.478	25.49
425.684	25.46
425.889	25.47
426.095	25.56
426.301	25.39
426.506	25.24
426.712	25.31
426.917	25.44
427.123	25.35
427.328	25.46
427.533	25.45
427.739	25.33
427.944	25.38
428.15	25.64
428.355	25.57
428.561	25.49
428.766	25.35
428.971	25.4
429.177	25.39
429.382	25.54
429.587	25.22
429.793	25.34
429.998	25.45
430.203	25.36
430.408	25.46
430.614	25.53
430.819	25.43
431.024	25.56
431.229	25.52
431.434	25.57
431.64	25.42
431.845	25.47
432.05	25.36
432.255	25.39
432.46	25.48
432.665	25.42
432.87	25.28
433.076	25.47
433.281	25.45
433.486	25.58
433.691	25.49
433.896	25.54
434.101	25.54
434.306	25.59
434.511	25.5
434.716	25.3
434.921	25.15
435.126	25.14
435.331	24.93
435.535	25
435.74	24.83
435.945	25
436.15	25.02
436.355	25.1
436.56	25.14
436.765	25.39
436.97	25.45
437.174	25.56
437.379	25.64
437.584	25.83
437.789	25.85
437.993	25.8
438.198	25.63
438.403	25.52
438.608	25.57
438.812	25.52
439.017	25.22
439.222	25.19
439.426	24.98
439.631	25.02
439.836	24.98
440.04	24.99
440.245	25.1
440.45	25.12
440.654	25.2
440.859	25.2
441.063	25.02
441.268	25.1
441.472	25.17
441.677	25.23
441.881	25.18
442.086	25.17
442.29	25.29
442.495	25.17
442.699	25.03
442.904	25.06
443.108	25.01
443.312	25.17
443.517	25.18
443.721	25.22
443.925	25.1
444.13	25.08
444.334	25.04
444.538	24.64
444.743	24.82
444.947	25.12
445.151	25.09
445.356	24.97
445.56	25.08
445.764	25.02
445.968	24.96
446.173	25.26
446.377	25.4
446.581	25.44
446.785	25.6
446.989	25.53
447.193	25.44
447.398	25.4
447.602	25.45
447.806	25.28
448.01	25.23
448.214	25.31
448.418	25.14
448.622	25.11
448.826	25.04
449.03	24.91
449.234	25.02
449.438	25.04
449.642	25.14
449.846	25.03
450.05	25.01
450.254	25.27
450.458	25.22
450.662	25.27
450.866	25.1
451.069	25.26
451.273	25.26
451.477	25
451.681	24.68
451.885	24.53
452.089	24.62
452.292	24.73
452.496	24.48
452.7	24.39
452.904	24.42
453.107	24.41
453.311	24.24
453.515	24.38
453.719	24.39
453.922	24.69
454.126	24.9
454.33	24.88
454.533	24.79
454.737	24.78
454.94	24.8
455.144	24.68
455.348	24.73
455.551	24.7
455.755	24.64
455.958	24.67
456.162	24.55
456.365	24.06
456.569	24.03
456.772	24.09
456.976	24.2
457.179	24.22
457.383	24.37
457.586	24.42
457.79	24.39
457.993	24.33
458.196	24.29
458.4	24.31
458.603	24.52
458.807	24.58
459.01	24.65
459.213	24.57
459.417	24.6
459.62	24.58
459.823	24.54
460.026	24.65
460.23	24.62
460.433	24.68
460.636	24.72
460.839	24.76
461.042	24.76
461.246	24.64
461.449	24.81
461.652	24.87
461.855	24.89
462.058	25.04
462.261	25.05
462.464	25.2
462.668	25.19
462.871	25.21
463.074	25.27
463.277	25.42
463.48	25.67
463.683	25.64
463.886	25.7
464.089	25.79
464.292	25.46
464.495	25.46
464.698	25.44
464.901	25.6
465.104	25.61
465.306	25.39
465.509	25.35
465.712	25.33
465.915	25.51
466.118	25.55
466.321	25.38
466.524	25.54
466.726	25.56
466.929	25.66
467.132	25.5
467.335	25.43
467.538	25.6
467.74	25.53
467.943	25.5
468.146	25.22
468.348	25.04
468.551	25.08
468.754	25.21
468.956	25.25
469.159	25.08
469.362	25.13
469.564	25.27
469.767	25.29
469.969	25.46
470.172	25.45
470.375	25.62
470.577	25.8
470.78	25.93
470.982	25.82
471.185	25.68
471.387	25.79
471.59	25.63
471.792	25.69
471.995	25.65
472.197	25.59
472.399	25.51
472.602	25.47
472.804	25.56
473.007	25.58
473.209	25.68
473.411	25.57
473.614	25.47
473.816	25.66
474.018	25.63
474.22	25.89
474.423	25.91
474.625	26
474.827	26.06
475.03	25.92
475.232	25.77
475.434	25.67
475.636	25.85
475.838	26.04
476.04	26.05
476.243	26.05
476.445	25.71
476.647	25.58
476.849	25.61
477.051	25.69
477.253	25.71
477.455	25.8
477.657	25.99
477.859	26.13
478.061	26.07
478.263	25.98
478.465	25.87
478.667	25.92
478.869	25.96
479.071	25.93
479.273	25.79
479.475	25.82
479.677	25.75
479.879	25.52
480.081	25.33
480.283	25.31
480.485	25.47
480.686	25.47
480.888	25.49
481.09	25.55
481.292	25.56
481.494	25.51
481.695	25.51
481.897	25.46
482.099	25.57
482.301	25.6
482.502	25.51
482.704	25.46
482.906	25.44
483.107	25.5
483.309	25.45
483.511	25.44
483.712	25.4
483.914	25.4
484.115	25.38
484.317	25.4
484.519	25.42
484.72	25.45
484.922	25.43
485.123	25.47
485.325	25.44
485.526	25.41
485.728	25.36
485.929	25.44
486.131	25.39
486.332	25.39
486.534	25.3
486.735	25.23
486.936	25.24
487.138	25.19
487.339	25.24
487.541	25.2
487.742	25.26
487.943	25.34
488.144	25.34
488.346	25.42
488.547	25.48
488.748	25.5
488.95	25.55
489.151	25.55
489.352	25.59
489.553	25.59
489.755	25.66
489.956	25.69
490.157	25.73
490.358	25.76
490.559	25.66
490.76	25.61
490.961	25.6
491.163	25.58
491.364	25.6
491.565	25.72
491.766	25.7
491.967	25.72
492.168	25.69
492.369	25.63
492.57	25.57
492.771	25.62
492.972	25.55
493.173	25.69
493.374	25.76
493.575	25.69
493.776	25.75
493.976	25.83
494.177	25.84
494.378	25.92
494.579	26.06
494.78	26.15
494.981	26.27
495.182	26.48
495.382	26.38
495.583	26.37
495.784	26.69
495.985	26.66
496.185	26.56
496.386	26.54
496.587	26.59
496.788	26.56
496.988	26.49
497.189	26.59
497.39	26.67
497.59	26.74
497.791	26.79
497.992	26.67
498.192	26.66
498.393	26.8
498.593	26.98
498.794	27.03
498.994	27.04
499.195	27.06
499.395	26.95
499.596	26.95
499.796	27.01
499.997	27
500.197	27.21
500.398	27.29
500.598	27.25
500.799	27.05
500.999	27.01
501.199	27.06
501.4	27.41
501.6	27.52
501.801	27.69
502.001	27.74
502.201	27.83
502.402	27.83
502.602	27.87
502.802	28.01
503.002	28.27
503.203	28.45
503.403	28.72
503.603	28.77
503.803	29.02
504.003	29.02
504.204	29.16
504.404	29.09
504.604	29.33
504.804	29.43
505.004	29.5
505.204	29.8
505.404	29.9
505.604	29.89
505.804	29.91
506.005	29.95
506.205	30.07
506.405	30.09
506.605	30.37
506.805	30.24
507.005	30.35
507.204	30.35
507.404	30.07
507.604	30.1
507.804	30.34
508.004	30.38
508.204	30.38
508.404	30.51
508.604	30.64
508.804	30.75
509.003	30.98
509.203	31.03
509.403	31.1
509.603	31.29
509.803	31.42
510.002	31.39
510.202	31.58
510.402	31.58
510.602	31.83
510.801	31.85
511.001	32.01
511.201	32.23
511.4	32.28
511.6	32.41
511.8	32.66
511.999	32.82
512.199	32.82
512.398	32.77
512.598	33.04
512.797	32.88
512.997	33.03
513.197	33.14
513.396	33.02
513.596	33.08
513.795	32.99
513.994	33.01
514.194	32.97
514.393	33.37
514.593	33.59
514.792	33.69
514.992	33.8
515.191	33.95
515.39	34.06
515.59	34.09
515.789	34.23
515.988	34.61
516.188	34.63
516.387	34.83
516.586	34.75
516.786	34.79
516.985	34.91
517.184	35.02
517.383	35.1
517.582	35.05
517.782	35.06
517.981	35.28
518.18	35.37
518.379	35.49
518.578	35.46
518.777	35.54
518.976	35.63
519.176	35.66
519.375	35.79
519.574	35.8
519.773	35.92
519.972	36.02
520.171	35.98
520.37	35.94
520.569	35.98
520.768	36.07
520.967	36.25
521.166	36.2
521.365	36.17
521.564	36.22
521.762	36.31
521.961	36.37
522.16	36.78
522.359	36.9
522.558	36.96
522.757	36.93
522.956	36.96
523.154	37.01
523.353	37.28
523.552	37.4
523.751	37.36
523.949	37.4
524.148	37.46
524.347	37.34
524.546	37.41
524.744	37.44
524.943	37.71
525.142	37.89
525.34	37.89
525.539	37.77
525.737	37.76
525.936	37.76
526.135	37.82
526.333	37.83
526.532	37.7
526.73	37.72
526.929	37.82
527.127	37.76
527.326	37.85
527.524	37.81
527.723	37.97
527.921	38.06
528.12	38.21
528.318	38.14
528.516	38.27
528.715	38.45
528.913	38.47
529.112	38.48
529.31	38.5
529.508	38.46
529.707	38.52
529.905	38.44
530.103	38.54
530.301	38.6
530.5	38.8
530.698	38.7
530.896	38.63
531.094	38.64
531.293	38.7
531.491	38.75
531.689	38.79
531.887	38.86
532.085	38.91
532.283	38.87
532.481	38.82
532.68	38.75
532.878	38.81
533.076	38.92
533.274	39.02
533.472	38.98
533.67	38.99
533.868	38.96
534.066	38.94
534.264	38.99
534.462	39.02
534.66	39.03
534.858	39.11
535.056	39.23
535.253	39.24
535.451	39.23
535.649	39.32
535.847	39.4
536.045	39.6
536.243	39.72
536.441	39.69
536.638	39.72
536.836	39.71
537.034	39.64
537.232	39.7
537.43	39.69
537.627	39.69
537.825	39.64
538.023	39.6
538.22	39.58
538.418	39.48
538.616	39.66
538.813	39.53
539.011	39.53
539.209	39.66
539.406	39.57
539.604	39.48
539.801	39.44
539.999	39.51
540.196	39.49
540.394	39.3
540.591	39.28
540.789	39.27
540.986	39.31
541.184	39.29
541.381	39.33
541.579	39.2
541.776	39.28
541.974	39.35
542.171	39.33
542.368	39.38
542.566	39.53
542.763	39.59
542.96	39.66
543.158	39.65
543.355	39.61
543.552	39.53
543.75	39.68
543.947	39.56
544.144	39.47
544.341	39.46
544.539	39.36
544.736	39.28
544.933	39.47
545.13	39.34
545.327	39.36
545.524	39.48
545.722	39.37
545.919	39.38
546.116	39.44
546.313	39.37
546.51	39.4
546.707	39.51
546.904	39.57
547.101	39.4
547.298	39.36
547.495	39.34
547.692	39.37
547.889	39.44
548.086	39.36
548.283	39.41
548.48	39.62
548.677	39.71
548.874	39.76
549.07	39.6
549.267	39.63
549.464	39.74
549.661	39.72
549.858	39.64
550.055	39.71
550.251	40.06
550.448	40.02
550.645	40.03
550.842	40.29
551.038	40.15
551.235	40.33
551.432	40.22
551.628	40.35
551.825	40.43
552.022	40.45
552.218	40.43
552.415	40.26
552.612	40.5
552.808	40.37
553.005	40.14
553.201	40.32
553.398	40.28
553.594	40.37
553.791	40.41
553.987	40.63
554.184	40.84
554.38	40.94
554.577	40.87
554.773	40.77
554.97	40.81
555.166	40.72
555.362	40.69
555.559	40.72
555.755	40.59
555.952	40.48
556.148	40.5
556.344	40.4
556.541	40.46
556.737	40.4
556.933	40.41
557.129	40.4
557.326	40.84
557.522	40.73
557.718	40.66
557.914	41.11
558.11	41.08
558.307	40.87
558.503	41.14
558.699	41.14
558.895	41.21
559.091	41.19
559.287	41.39
559.483	41.09
559.679	41.2
559.876	41.41
560.072	40.89
560.268	40.85
560.464	40.92
560.66	40.81
560.856	40.83
561.052	40.87
561.247	40.99
561.443	40.95
561.639	40.92
561.835	40.94
562.031	40.71
562.227	41.03
562.423	41.07
562.619	41.09
562.815	41.13
563.01	40.98
563.206	41.07
563.402	40.85
563.598	40.94
563.793	40.81
563.989	40.59
564.185	40.9
564.381	40.81
564.576	40.96
564.772	40.99
564.968	40.85
565.163	41.18
565.359	41.19
565.555	41.48
565.75	41.49
565.946	41.79
566.141	41.93
566.337	41.65
566.532	41.74
566.728	41.75
566.923	41.74
567.119	41.65
567.314	41.27
567.51	41.22
567.705	41.24
567.901	41.03
568.096	40.98
568.292	40.95
568.487	41.26
568.682	41.06
568.878	40.97
569.073	41.08
569.268	41.37
569.464	41.51
569.659	41.55
569.854	41.26
570.05	41.55
570.245	41.48
570.44	41.54
570.635	41.33
570.831	41.47
571.026	41.46
571.221	41.31
571.416	41.16
571.611	41.19
571.806	41.06
572.002	40.97
572.197	40.91
572.392	40.83
572.587	40.85
572.782	40.88
572.977	40.73
573.172	40.71
573.367	40.86
573.562	40.76
573.757	40.77
573.952	40.81
574.147	41.06
574.342	41
574.537	41.1
574.732	41.03
574.927	41.01
575.121	41.1
575.316	40.94
575.511	40.94
575.706	41.07
575.901	41.06
576.096	41.25
576.29	41.24
576.485	41.33
576.68	41.34
576.875	41.4
577.069	41.6
577.264	41.75
577.459	42.1
577.654	41.87
577.848	41.81
578.043	41.94
578.238	41.93
578.432	41.97
578.627	41.76
578.821	41.62
579.016	41.82
579.21	41.69
579.405	41.87
579.6	41.72
579.794	41.77
579.989	42.18
580.183	42.28
580.378	42.23
580.572	42.45
580.766	42.51
580.961	42.7
581.155	42.75
581.35	42.86
581.544	42.65
581.738	42.6
581.933	42.85
582.127	42.26
582.321	41.98
582.516	41.78
582.71	41.7
582.904	41.96
583.099	42.03
583.293	41.79
583.487	41.61
583.681	41.33
583.875	41.47
584.07	41.45
584.264	41.81
584.458	41.92
584.652	42.25
584.846	42.06
585.04	42.2
585.234	42.03
585.428	42.05
585.623	42.17
585.817	42.63
586.011	42.65
586.205	42.52
586.399	42.7
586.593	42.75
586.787	42.87
586.981	43.03
587.174	42.84
587.368	42.79
587.562	42.8
587.756	42.88
587.95	42.74
588.144	42.5
588.338	42.51
588.532	42.58
588.725	42.71
588.919	42.61
589.113	42.85
589.307	42.94
589.501	43.33
589.694	43.51
589.888	43.43
590.082	43.32
590.275	43.57
590.469	43.95
590.663	43.51
590.856	43.63
591.05	43.64
591.244	43.42
591.437	43.27
591.631	43.18
591.824	42.97
592.018	42.95
592.212	43.28
592.405	43.2
592.599	42.91
592.792	43.02
592.986	42.79
593.179	42.91
593.372	42.75
593.566	42.64
593.759	42.76
593.953	42.89
594.146	42.99
594.339	42.73
594.533	42.97
594.726	43.13
594.92	43.28
595.113	43.33
595.306	43.34
595.499	43.46
595.693	43.5
595.886	43.12
596.079	43.27
596.272	43.25
596.466	43.31
596.659	43.14
596.852	43.01
597.045	43.32
597.238	43.42
597.431	43.4
597.624	43.45
597.818	43.52
598.011	43.7
598.204	43.42
598.397	43.45
598.59	43.61
598.783	43.57
598.976	43.73
599.169	43.35
599.362	43.35
599.555	43.2
599.748	43.24
599.941	43.09
600.134	43.31
600.326	43.47
600.519	43.48
600.712	43.29
600.905	43.57
601.098	43.36
601.291	43.58
601.483	43.57
601.676	43.85
601.869	43.95
602.062	44.16
602.255	44.01
602.447	44.2
602.64	44.22
602.833	44.15
603.025	43.83
603.218	43.95
603.411	43.94
603.603	44.14
603.796	44.2
603.989	44.17
604.181	44.23
604.374	44.43
604.566	44.48
604.759	44.83
604.951	45.14
605.144	45.35
605.336	45.52
605.529	45.41
605.721	45.28
605.914	45.16
606.106	45.22
606.299	45.53
606.491	45.5
606.683	45.63
606.876	45.35
607.068	45.22
607.26	45.03
607.453	44.97
607.645	45.06
607.837	45.01
608.03	45.08
608.222	45.15
608.414	44.99
608.606	44.83
608.799	44.64
608.991	44.65
609.183	44.36
609.375	44.68
609.567	44.46
609.759	44.73
609.952	44.89
610.144	45.03
610.336	44.88
610.528	44.68
610.72	44.86
610.912	45.05
611.104	45.09
611.296	45.46
611.488	45.23
611.68	45.32
611.872	45.16
612.064	44.98
612.256	44.61
612.448	44.67
612.64	44.8
612.832	44.43
613.023	44.34
613.215	44.47
613.407	44.68
613.599	44.85
613.791	44.93
613.983	44.65
614.174	44.82
614.366	45.05
614.558	45.09
614.75	45.11
614.941	45.39
615.133	45.15
615.325	45.2
615.516	45.07
615.708	45.08
615.9	45.34
616.091	45.57
616.283	45.36
616.475	45.17
616.666	45.11
616.858	45.28
617.049	45.47
617.241	45.51
617.432	45.22
617.624	44.66
617.815	44.6
618.007	44.23
618.198	44.15
618.39	44.43
618.581	44.43
618.773	44.58
618.964	44.19
619.155	44.03
619.347	44.18
619.538	44.36
619.729	44.55
619.921	44.59
620.112	44.79
620.303	44.68
620.494	44.58
620.686	44.73
620.877	44.83
621.068	45.16
621.259	45.17
621.451	45.16
621.642	45.18
621.833	45.38
622.024	45.51
622.215	45.76
622.406	45.77
622.597	45.98
622.788	46.13
622.98	45.78
623.171	45.55
623.362	45.59
623.553	45.59
623.744	45.6
623.935	45.48
624.126	45.07
624.317	45.01
624.508	45.12
624.698	44.89
624.889	44.64
625.08	44.62
625.271	44.64
625.462	44.8
625.653	44.51
625.844	44.3
626.034	44.49
626.225	44.8
626.416	44.7
626.607	44.99
626.798	45.04
626.988	45.1
627.179	45.22
627.37	45.19
627.56	45.07
627.751	45.29
627.942	45.63
628.132	45.45
628.323	45.55
628.514	45.69
628.704	45.48
628.895	45.51
629.085	45.73
629.276	45.56
629.466	45.54
629.657	45.54
629.847	45.63
630.038	45.17
630.228	45.33
630.419	45.2
630.609	44.99
630.8	44.62
630.99	44.18
631.181	44.16
631.371	44.39
631.561	44.56
631.752	44.83
631.942	44.82
632.132	45.04
632.323	45.26
632.513	45.43
632.703	45.36
632.893	45.74
633.084	46.39
633.274	46.49
633.464	46.38
633.654	46.24
633.844	45.83
634.034	45.62
634.225	45.68
634.415	45.54
634.605	45.26
634.795	45.51
634.985	45.42
635.175	45.03
635.365	44.76
635.555	44.65
635.745	44.65
635.935	44.56
636.125	44.66
636.315	44.53
636.505	44.47
636.695	44.6
636.885	44.2
637.075	44.39
637.265	44.3
637.455	44.24
637.644	43.9
637.834	44.09
638.024	44.27
638.214	44.06
638.404	43.78
638.593	43.68
638.783	43.86
638.973	44.2
639.163	44.02
639.352	44.19
639.542	44.42
639.732	45.15
639.921	44.64
640.111	44.71
640.301	44.77
640.49	44.94
640.68	45.08
640.87	44.52
641.059	44.52
641.249	44.28
641.438	44.25
641.628	44.21
641.817	43.98
642.007	44.29
642.196	44.16
642.386	44.55
642.575	44.63
642.764	44.39
642.954	44.74
643.143	44.53
643.333	44.74
643.522	44.54
643.711	44.27
643.901	44.34
644.09	44.95
644.279	44.99
644.469	44.78
644.658	44.71
644.847	44.7
645.036	44.85
645.226	44.66
645.415	44.8
645.604	44.84
645.793	45.12
645.982	45.07
646.171	44.37
646.361	44.3
646.55	44.4
646.739	44.12
646.928	44.35
647.117	44.19
647.306	44.72
647.495	44.36
647.684	44.29
647.873	44.4
648.062	44.54
648.251	44.71
648.44	44.97
648.629	45.1
648.818	45.3
649.007	45.39
649.196	45.33
649.384	45.16
649.573	45.24
649.762	45.43
649.951	45.4
650.14	45.14
650.328	45.46
650.517	45.36
650.706	45.02
650.895	45.01
651.083	44.91
651.272	45.14
651.461	45.03
651.65	45.47
651.838	44.84
652.027	44.41
652.216	44.12
652.404	43.48
652.593	43.14
652.781	43.41
652.97	43.45
653.158	42.94
653.347	42.9
653.535	42.93
653.724	42.64
653.912	43.19
654.101	43.01
654.289	43.56
654.478	43.9
654.666	43.79
654.855	43.49
655.043	43.43
655.231	43.65
655.42	43.56
655.608	43.99
655.796	44.1
655.985	44.34
656.173	44.92
656.361	45.29
656.55	45.5
656.738	45.91
656.926	45.8
657.114	45.64
657.302	45.8
657.491	44.95
657.679	44.57
657.867	44.3
658.055	43.94
658.243	43.34
658.431	43.17
658.619	43.11
658.807	43.17
658.996	43.11
659.184	43
659.372	42.85
659.56	43.79
659.748	43.89
659.936	44.03
660.124	44.38
660.311	44.39
660.499	44.07
660.687	43.72
660.875	43.55
661.063	43.58
661.251	43.8
661.439	44.43
661.627	44.52
661.814	43.87
662.002	44
662.19	43.98
662.378	44.8
662.565	44.72
662.753	45.12
662.941	44.9
663.129	45.28
663.316	45.57
663.504	45.21
663.692	44.26
663.879	44.78
664.067	44.65
664.254	44.81
664.442	44.48
664.63	44.63
664.817	44.59
665.005	45.18
665.192	45.29
665.38	44.99
665.567	44.94
665.755	45.18
665.942	45.47
666.13	45.15
666.317	44.72
666.504	44.81
666.692	44.77
666.879	45.15
667.067	44.67
667.254	44.68
667.441	45.07
667.629	44.98
667.816	45.29
668.003	44.89
668.19	45.28
668.378	45.25
668.565	44.91
668.752	44.9
668.939	44.78
669.127	44.67
669.314	44.03
669.501	43.53
669.688	43.53
669.875	43.25
670.062	43.27
670.249	42.93
670.436	43.23
670.623	43.07
670.81	43.28
670.997	42.65
671.184	42.79
671.371	43.23
671.558	43.47
671.745	43.39
671.932	42.78
672.119	42.82
672.306	42.56
672.493	42.42
672.68	42.72
672.867	42.52
673.054	43.05
673.24	43.06
673.427	43.03
673.614	43.42
673.801	43.79
673.988	44.62
674.174	44.78
674.361	45.43
674.548	45.29
674.734	45.49
674.921	45.95
675.108	45.45
675.294	45.31
675.481	45.19
675.668	44.83
675.854	44.38
676.041	44.15
676.227	44.28
676.414	44.19
676.601	44.72
676.787	44.87
676.974	44.25
677.16	44.36
677.347	44.79
677.533	44.93
677.719	44.81
677.906	44.83
678.092	44.58
678.279	44.46
678.465	44.42
678.651	44.01
678.838	44.05
679.024	44.42
679.21	44.96
679.397	44.73
679.583	44.75
679.769	45.04
679.955	44.79
680.142	45.07
680.328	45.41
680.514	45.28
680.7	45.33
680.886	45
681.073	44.87
681.259	44.71
681.445	44.35
681.631	44.41
681.817	44.46
682.003	44.6
682.189	44.72
682.375	44.02
682.561	44.11
682.747	44.29
682.933	44.31
683.119	44.33
683.305	44.44
683.491	45.27
683.677	44.73
683.863	44.76
684.049	44.66
684.235	44.62
684.42	45.25
684.606	45.12
684.792	45.14
684.978	45.23
685.164	45.41
685.349	44.78
685.535	44.38
685.721	44.26
685.907	43.66
686.092	44.45
686.278	44.42
686.464	44.06
686.649	44.33
686.835	43.79
687.021	44.12
687.206	43.49
687.392	43.95
687.577	43.79
687.763	44.52
687.948	44.81
688.134	44
688.319	43.97
688.505	44
688.69	43.68
688.876	43.84
689.061	43.17
689.247	42.93
689.432	42.81
689.618	42.96
689.803	42.46
689.988	42.46
690.174	42.75
690.359	42.35
690.544	42.22
690.73	42.26
690.915	41.86
691.1	42.24
691.285	42.24
691.471	42.4
691.656	42.47
691.841	42.89
692.026	42.69
692.211	42.82
692.396	42.53
692.582	43
692.767	42.9
692.952	43.89
693.137	43.8
693.322	44.62
693.507	44.42
693.692	44.34
693.877	43.92
694.062	44.29
694.247	43.52
694.432	44.2
694.617	43.83
694.802	44.51
694.987	44.19
695.172	44.26
695.357	44.42
695.541	44.4
695.726	44.5
695.911	44.62
696.096	43.74
696.281	44.44
696.466	44.17
696.65	44.33
696.835	43.77
697.02	43.56
697.204	43.55
697.389	43.32
697.574	43.22
697.759	43.25
697.943	42.9
698.128	43.15
698.312	42.94
698.497	43.35
698.682	43.2
698.866	43.19
699.051	43.35
699.235	43.29
699.42	43.45
699.604	43.72
699.789	43.35
699.973	43.38
700.158	43.28
700.342	43.48
700.527	42.92
700.711	42.72
700.895	42.86
701.08	42.56
701.264	42.21
701.448	42.23
701.633	41.53
701.817	41.68
702.001	41.89
702.186	42.28
702.37	41.83
702.554	42.27
702.738	42.65
702.923	43.03
703.107	42.57
703.291	42.62
703.475	42.4
703.659	42.47
703.843	43.16
704.027	43.69
704.212	43.53
704.396	43.38
704.58	43.44
704.764	42.91
704.948	42.06
705.132	41.92
705.316	42.1
705.5	41.94
705.684	42.23
705.868	41.55
706.052	41.17
706.235	41.53
706.419	42.11
706.603	41.85
706.787	42.95
706.971	43.19
707.155	43.68
707.339	44.49
707.522	44.75
707.706	44.59
707.89	45.57
708.074	44.65
708.257	44.17
708.441	44.5
708.625	45.04
708.808	44.61
708.992	44.28
709.176	43.9
709.359	42.97
709.543	43.08
709.727	43.27
709.91	41.93
710.094	42.92
710.277	43.28
710.461	42.21
710.644	41.31
710.828	41.04
711.011	41.33
711.195	41.83
711.378	41.84
711.562	41.67
711.745	41.77
711.928	42.1
712.112	42.29
712.295	42.7
712.478	43.14
712.662	43.16
712.845	43.46
713.028	43.56
713.212	42.93
713.395	42.99
713.578	41.95
713.761	42.06
713.945	42.19
714.128	41.95
714.311	41.42
714.494	40.81
714.677	41.43
714.86	41.61
715.043	40.95
715.227	41.65
715.41	41.88
715.593	43.14
715.776	43.23
715.959	42.63
716.142	42.47
716.325	42.25
716.508	42.59
716.691	41.66
716.874	41.45
717.057	41.87
717.239	41.94
717.422	41.05
717.605	40.89
717.788	40.47
717.971	40.83
718.154	41.44
718.337	41.31
718.519	41.24
718.702	41.82
718.885	42.15
719.068	42.35
719.25	42.97
719.433	43.96
719.616	42.73
719.798	42.17
719.981	42.41
720.164	41.77
720.346	41.43
720.529	42.07
720.712	40.74
720.894	38.88
721.077	38.79
721.259	38.54
721.442	38.52
721.624	39
721.807	39.95
721.989	40.33
722.172	40.06
722.354	40.05
722.537	39.73
722.719	40.78
722.901	41.61
723.084	42.36
723.266	42.18
723.448	42.44
723.631	43.01
723.813	41.98
723.995	41.94
724.178	41.19
724.36	41.74
724.542	41.32
724.724	41.69
724.907	42.68
725.089	42.09
725.271	41.52
725.453	40.52
725.635	39.01
725.817	39.49
725.999	38.93
726.181	39.7
726.364	40.29
726.546	41.14
726.728	40.48
726.91	39.28
727.092	39.14
727.274	38.98
727.456	38.85
727.638	40.19
727.819	40.88
728.001	40.51
728.183	40.16
728.365	39.89
728.547	39.44
728.729	40.07
728.911	40.54
729.093	41.06
729.274	41.38
729.456	42.01
729.638	41.72
729.82	40.9
730.001	42.31
730.183	42.29
730.365	42.15
730.546	41.04
730.728	40.6
730.91	40.07
731.091	40.53
731.273	40.61
731.455	41.45
731.636	41.34
731.818	42.67
731.999	42.62
732.181	42.7
732.362	42.28
732.544	43.32
732.725	44.03
732.907	45.36
733.088	44.51
733.27	43.88
733.451	43.17
733.633	42.79
733.814	41.61
733.995	40.96
734.177	41.63
734.358	41.87
734.539	42.66
734.721	42.24
734.902	41.62
735.083	42.22
735.264	42.99
735.446	43.63
735.627	43.5
735.808	43.66
735.989	43.63
736.17	42.85
736.351	42.73
736.533	42.47
736.714	42.34
736.895	42.49
737.076	41.74
737.257	40.35
737.438	39.46
737.619	39.39
737.8	39.65
737.981	39.81
738.162	40.3
738.343	39.79
738.524	37.65
738.705	38.22
738.886	37.67
739.067	38.23
739.247	38.72
739.428	39.02
739.609	39.7
739.79	40.45
739.971	40.16
740.151	39.49
740.332	40.06
740.513	42.62
740.694	42.21
740.874	42.29
741.055	41.88
741.236	43.19
741.417	42.96
741.597	43.25
741.778	42.24
741.958	42.66
742.139	44.1
742.32	44
742.5	44.41
742.681	44.56
742.861	44.22
743.042	43.97
743.222	43.52
743.403	43.94
743.583	43.61
743.764	43.59
743.944	41.7
744.124	41.39
744.305	40.72
744.485	40.55
744.666	41.44
744.846	42.38
745.026	41.6
745.207	40.79
745.387	40.22
745.567	39.92
745.747	39.47
745.928	40.94
746.108	41.18
746.288	41.56
746.468	40.92
746.648	40.12
746.829	40.06
747.009	40.73
747.189	41.34
747.369	40.69
747.549	40.91
747.729	40.18
747.909	40.04
748.089	40
748.269	39.5
748.449	37.97
748.629	38.08
748.809	36.54
748.989	37.64
749.169	37.83
749.349	39.02
749.529	40.68
749.709	42.38
749.889	42.81
750.068	42.31
750.248	42.88
750.428	43.03
750.608	41.95
750.788	43.65
750.967	42.14
751.147	43.62
751.327	43.46
751.507	42.31
751.686	42.83
751.866	42.13
752.046	41.85
752.225	42.7
752.405	45.04
752.585	44.87
752.764	44.79
752.944	43.48
753.123	41.27
753.303	41.67
753.482	41.53
753.662	41.19
753.841	41.57
754.021	42.09
754.2	41.15
754.38	40.38
754.559	40.88
754.739	39.04
754.918	40.19
755.097	41.02
755.277	39.43
755.456	39.24
755.635	37.11
755.815	37.54
755.994	38.52
756.173	39.47
756.352	38.47
756.532	37.77
756.711	39.71
756.89	41.67
757.069	41.07
757.248	41.71
757.427	41.7
757.607	42.66
757.786	41.54
757.965	39.98
758.144	40.2
758.323	40.1
758.502	41.08
758.681	39.43
758.86	37.88
759.039	38.64
759.218	39.3
759.397	39.82
759.576	39.67
759.755	39.81
759.934	39.98
760.113	39.36
760.291	40.18
760.47	41.23
760.649	41.27
760.828	41.2
761.007	40.78
761.186	38.98
761.364	38.58
761.543	38.41
761.722	39.18
761.901	39.56
762.079	39.43
762.258	38.6
762.437	38.48
762.615	39.2
762.794	39.89
762.972	39.21
763.151	40.33
763.33	40.24
763.508	41.09
763.687	40.29
763.865	40.22
764.044	39.4
764.222	39.55
764.401	38.93
764.579	39.31
764.758	38.87
764.936	40.14
765.114	39.93
765.293	39.75
765.471	38.67
765.65	38.6
765.828	39.69
766.006	40.03
766.184	40.65
766.363	40.46
766.541	40.17
766.719	40.03
766.898	38.94
767.076	39.07
767.254	38.04
767.432	38.47
767.61	38.42
767.788	35.85
767.967	37.15
768.145	36.18
768.323	36.84
768.501	36.07
768.679	35.66
768.857	36.56
769.035	36.06
769.213	37.58
769.391	35.84
769.569	37.07
769.747	38.63
769.925	38.02
770.103	37.86
770.281	35.72
770.459	35.15
770.636	37.51
770.814	37.67
770.992	39.65
771.17	38.21
771.348	40.28
771.525	37.59
771.703	36.97
771.881	38.4
772.059	37.17
772.236	37.44
772.414	37.24
772.592	36.28
772.769	34.41
772.947	33.21
773.125	34.58
773.302	32.91
773.48	34.11
773.657	35.56
773.835	35.44
774.013	36.83
774.19	37.95
774.368	37.72
774.545	37.89
774.723	38.6
774.9	37.5
775.077	35.93
775.255	38.07
775.432	40.19
775.61	39.88
775.787	36.52
775.964	35.27
776.142	36.87
776.319	35.41
776.496	35.16
776.674	34.06
776.851	32.43
777.028	33.95
777.205	31.51
777.382	31.01
777.56	30.59
777.737	32.3
777.914	33.9
778.091	34.89
778.268	37.78
778.445	35.11
778.622	35.78
778.8	38.3
778.977	36.49
779.154	37.29
779.331	35.58
779.508	33.13
779.685	32.54
779.862	32.58
780.038	30.28
780.215	31.66
780.392	34.85
780.569	33.59
780.746	31.91
780.923	32.71
781.1	31.89
781.277	30.31
781.453	32.92
781.63	33.16
781.807	31.92
781.984	31.49
782.16	29.44
782.337	27.21
782.514	27.66
782.691	31.86
782.867	29.91
783.044	33.18
783.221	35.7
783.397	35.93
783.574	39.42
783.75	37.62
783.927	38.49
784.103	36.93
784.28	37.05
784.456	40.3
784.633	39.85
784.809	41.63
784.986	38.17
785.162	39.83
785.339	40.83
785.515	36.33
785.692	38.93
785.868	39.1
786.044	41.54
786.221	41.73
786.397	38.24
786.573	35.69
786.749	37.93
786.926	41.75
787.102	41.2
787.278	42.62
787.454	41.69
787.631	37.27
787.807	40.31
787.983	35.39
788.159	34.17
788.335	34.09
788.511	33.56
788.687	34.78
788.863	32.43
789.039	31.23
789.216	26.67
789.392	26.02
789.568	30.36
789.744	29.94
789.919	31.65
790.095	32.79
790.271	32.42
790.447	32.64
790.623	30.57
790.799	30.25
790.975	31.55
791.151	33.51
791.327	34.91
791.502	31.08
791.678	25.27
791.854	28.74
792.03	26.18
792.205	27.75
792.381	26.05
792.557	23.68
792.733	22.1
792.908	20.56
793.084	19.32
793.259	21.55
793.435	27.64
793.611	25.27
793.786	24.55
793.962	32.11
794.137	31.48
794.313	31.54
794.488	33.49
794.664	33.51
794.839	33.13
795.015	33.52
795.19	35.57
795.366	35.47
795.541	41.56
795.716	39.84
795.892	35.04
796.067	33.48
796.242	35.86
796.418	34.32
796.593	34.5
796.768	34.96
796.944	34.27
797.119	34.3
797.294	33.4
797.469	28.63
797.644	29.3
797.82	28.89
797.995	32.14
798.17	31.64
798.345	33.4
798.52	37.73
798.695	36.57
798.87	37.88
799.045	35.93
799.22	34.36
799.395	39
799.57	37.53
799.745	41.55
799.92	38.71
800.095	36.4
800.27	38.26
800.445	36.58
800.62	38.41
800.795	35.78
800.97	31.52
801.145	35.97
801.319	27.89
801.494	32.84
801.669	25.27
801.844	25.72
802.018	30.65
802.193	26.46
802.368	22.78
802.543	19.2
802.717	23.86
802.892	26.7
803.067	23.6
803.241	29.84
803.416	24.53
803.59	29.78
803.765	35.66
803.94	34.37
804.114	36.83
804.289	42.67
804.463	45.44
804.638	41.89
804.812	38.2
804.986	40.24
805.161	37.26
805.335	40.16
805.51	36.01
805.684	33.23
805.858	28.42
806.033	25.79
806.207	21.75
806.381	19.75
806.556	21.16
806.73	27.09
806.904	28.06
807.078	30.79
807.253	27.56
807.427	29.77
807.601	30.87
807.775	34.38
807.949	33.75
808.123	27.79
808.298	27.93
808.472	23.78
808.646	17.93
808.82	13.72
808.994	12.45
809.168	15.92
809.342	13.12
809.516	11.9
809.69	10.41
809.864	15.51
810.038	20.13
810.212	20.04
810.385	22.24
810.559	24.95
810.733	25.61
810.907	27.19
811.081	28.51
811.255	32.58
811.428	28.01
811.602	25.48
811.776	16.39
811.95	25.83
812.123	30.59
812.297	36.73
812.471	32.76
812.644	35.73
812.818	36.15
812.992	27.5
813.165	21.05
813.339	27
813.512	31.7
813.686	36.4
813.86	28.77
814.033	19.99
814.207	20.58
814.38	26.67
814.554	14.6
814.727	14.09
814.9	23.83
815.074	28.1
815.247	27.95
815.421	29.49
815.594	29.27
815.767	34.91
815.941	41.19
816.114	34.65
816.287	33.53
816.46	39.85
816.634	34.49
816.807	30.17
816.98	25.55
817.153	28.61
817.327	27.22
817.5	21
817.673	19.87
817.846	23.62
818.019	26.06
818.192	24.03
818.365	26.87
818.538	32.03
818.711	33.21
818.884	36.91
819.057	35.83
819.23	35.77
819.403	35.77
819.576	34.88
819.749	36.14
819.922	35.88
820.095	34.18
820.268	38.59
820.441	37.22
820.614	37.9
820.786	37.02
820.959	37.89
821.132	36.35
821.305	38.59
821.477	38.64
821.65	36.76
821.823	38.86
821.996	40.35
822.168	39.01
822.341	39.5
822.514	39.1
822.686	39.37
822.859	38.71
823.031	39.2
823.204	38.65
823.376	38.82
823.549	38.52
823.722	38.06
823.894	38.01
824.067	36.55
824.239	35.97
824.411	36.59
824.584	36.22
824.756	35.54
824.929	35.06
825.101	35.03
825.273	35.44
825.446	36.01
825.618	36.17
825.79	36.24
825.963	38.95
826.135	38.81
826.307	37.94
826.479	37.23
826.652	37.77
826.824	38.67
826.996	38.75
827.168	38.54
827.34	37.29
827.512	35.17
827.684	33.79
827.856	31.31
828.029	31.41
828.201	32.08
828.373	31.78
828.545	30.73
828.717	31.02
828.889	33.69
829.061	31.16
829.232	33.45
829.404	34.66
829.576	35.73
829.748	37.85
829.92	38.78
830.092	39.98
830.264	41.81
830.436	43.96
830.607	40.82
830.779	39.52
830.951	38.97
831.123	39.52
831.294	37.64
831.466	35.31
831.638	35.43
831.809	37.34
831.981	34.95
832.153	39.61
832.324	39.63
832.496	41.74
832.667	36.12
832.839	41.03
833.011	39.99
833.182	39.39
833.354	38.96
833.525	39.06
833.697	37.19
833.868	38.2
834.039	35.59
834.211	35
834.382	35.89
834.554	34.03
834.725	32.88
834.896	32.89
835.068	33.64
835.239	36.69
835.41	35.87
835.581	33.36
835.753	32.2
835.924	30.83
836.095	29.66
836.266	32.19
836.438	37.76
836.609	37.5
836.78	33.78
836.951	30.81
837.122	24.68
837.293	20.47
837.464	25.06
837.635	22.3
837.806	25.4
837.977	24.01
838.148	15.29
838.319	4.47
838.49	5.18
838.661	11.64
838.832	20.78
839.003	26.76
839.174	30.49
839.345	27.93
839.516	32.26
839.687	31.47
839.857	34.54
840.028	37.27
840.199	39.74
840.37	41.8
840.54	37.14
840.711	36.81
840.882	37.73
841.053	33.82
841.223	32.15
841.394	38.56
841.564	35.28
841.735	28.75
841.906	34.6
842.076	31.58
842.247	27.12
842.417	27.94
842.588	29.7
842.758	7.56
842.929	9.75
843.099	22.66
843.27	16.12
843.44	13.69
843.611	24.22
843.781	-6.16
843.951	-4.19
844.122	2.1
844.292	6.92
844.462	-6.5
844.633	13.8
844.803	35.19
844.973	29.75
845.144	-0.94
845.314	-9.85
845.484	-25.9
845.654	28.43
845.824	40.71
845.995	36.93
846.165	45.45
846.335	50.93
846.505	51.22
846.675	46.03
846.845	41.15
847.015	48.98
847.185	51.74
847.355	57.46
847.525	42.42
847.695	27.71
847.865	19.16
848.035	15.78
848.205	5.75
848.375	15.53
848.545	0.6
848.715	-29.75
848.884	-70.22
849.054	22.42
849.224	-22.1
849.394	1.23
849.564	8.41
849.733	-44.5
849.903	-66.39
850.073	-90.91
850.243	-200.04
850.412	-38.06
850.582	-53.07
850.752	-57.96
850.921	-81.29
851.091	-105.2
851.26	-108.58
851.43	-91.62
851.599	-23.06
851.769	8.33
851.939	8.27
852.108	-11.19
852.278	-19.95
852.447	-20.77
852.616	1.71
852.786	-26.49
852.955	18.19
853.125	2.63
853.294	-23.71
853.463	-61.2
853.633	-244.66
853.802	187.3
853.971	198.65
854.141	1813.72
854.31	-324.97
854.479	-75.3
854.648	-32.4
854.818	-89.9
854.987	-102.31
855.156	-47.38
855.325	-13.42
855.494	-6.69
855.663	14.06
855.832	29.05
856.001	18.13
856.171	48
856.34	29.49
856.509	48.14
856.678	39.31
856.847	50.51
857.016	75.27
857.185	25.1
857.353	33.87
857.522	16.57
857.691	-14.16
857.86	-20.2
858.029	-24.79
858.198	14.7
858.367	-48.35
858.535	-11.54
858.704	-24.68
858.873	-49.28
859.042	-18.93
859.21	-53.37
859.379	-53.01
859.548	-99.78
859.717	11.41
859.885	3.03
860.054	274.83
860.222	256.72
860.391	-241.72
860.56	-110.19
860.728	-67.99
860.897	-89.52
861.065	-9.41
861.234	-3.84
861.402	6.14
861.571	16.21
861.739	84.69
861.908	64.39
862.076	79.18
862.244	97.96
862.413	175.04
862.581	138.25
862.749	-10380
862.918	59.37
863.086	31.57
863.254	40.08
863.423	179.55
863.591	-120.2
863.759	-38.62
863.927	-71.41
864.096	-223.46
864.264	-94.83
864.432	-235.83
864.6	-83.58
864.768	-34.86
864.936	-19.54
865.104	-4.57
865.272	33.91
865.44	-164.62
865.608	-12.29
865.776	-76.98
865.944	-66.4
866.112	-107.18
866.28	-185.23
866.448	12.3
866.616	-49.47
866.784	-165.47
866.952	91.45
867.12	-50.72
867.288	-20.26
867.455	19.88
867.623	57.99
867.791	-0.44
867.959	-16.05
868.127	-4.07
868.294	27.99
868.462	-12.13
868.63	-73.22
868.797	-664.08
868.965	-46.93
869.133	89.77
869.3	-484.46
869.468	25.73
869.636	-115.27
869.803	-65.4
869.971	25.31
870.138	5.56
870.306	11.99
870.473	16.52
870.641	-3.83
870.808	-1.46
870.975	71.9
871.143	108.87
871.31	97.81
871.478	114.36
871.645	123.31
871.812	122.18
871.98	150
872.147	173.19
872.314	261.25
872.482	123.13
872.649	96.48
872.816	71.05
872.983	56.29
873.15	49.88
873.318	39.53
873.485	34.11
873.652	-11.09
873.819	-101.46
873.986	-211.11
874.153	-203.78
874.32	-87.2
874.487	-46.5
874.654	-13.39
874.821	58.57
874.988	105.83
875.155	-112.07
875.322	-154.69
875.489	-103.67
875.656	-260.66
875.823	-1036.02
875.99	1006.47
876.157	-473.87
876.324	-556.37
876.49	-238.93
876.657	16641.86
876.824	371.52
876.991	304.96
877.157	554.4
877.324	476.29
877.491	248.01
877.658	270.86
877.824	306.22
877.991	244.88
878.157	124.32
878.324	79.81
878.491	-44.4
878.657	71.98
878.824	-40.51
878.99	2737.96
879.157	59.7
879.323	10.71
879.49	217.33
879.656	-34.69
879.823	71.61
879.989	-34.31
880.156	61.05
880.322	-344.86
880.488	-46.83
880.655	525.43
880.821	170.22
880.987	80.08
881.154	36.34
881.32	23.62
881.486	60.02
881.652	40.01
881.819	34.26
881.985	32.07
882.151	35.41
882.317	38.39
882.483	37.75
882.649	44.87
882.816	37.67
882.982	40.54
883.148	35.98
883.314	35.93
883.48	35.59
883.646	34.58
883.812	37.87
883.978	32.75
884.144	31.12
884.31	31.31
884.476	26.82
884.642	30.74
884.807	28.83
884.973	26.96
885.139	26.4
885.305	26.42
885.471	26.18
885.637	17.37
885.802	21.75
885.968	26.05
886.134	23.36
886.3	23.51
886.465	21.4
886.631	22.64
886.797	27.9
886.962	24.54
887.128	26.49
887.293	43.09
887.459	53.8
887.625	45.71
887.79	51.66
887.956	35.15
888.121	44.3
888.287	41.17
888.452	33.35
888.618	27.34
888.783	23.46
