Data from 2937864_Reflection_1.txt Node
Date: Wed Jul 15 15:15:32 EDT 2015
User: robert
Spectrometer: USB4E03001
Autoset integration time: false
Trigger mode: 4
Integration Time (sec): 1.000000E-1
Scans to average: 10
Electric dark correction enabled: true
Nonlinearity correction enabled: false
Boxcar width: 5
Stray light correction enabled: false
XAxis mode: Wavelengths
Stop averaging: false
Number of Pixels in Spectrum: 3648
>>>>>Begin Spectral Data<<<<<
177.566	-93.82
177.785	-110.87
178.005	1271.84
178.225	-602.78
178.445	322.36
178.665	-17.26
178.885	80.4
179.105	-69.42
179.324	-8.17
179.544	-1.91
179.764	-8.08
179.984	-67.45
180.204	-90.56
180.423	-443.08
180.643	-761.01
180.863	-1137.53
181.083	-299.72
181.302	-243.37
181.522	-26.39
181.742	-130.05
181.961	-155.3
182.181	-230.52
182.401	-153.21
182.621	-123.22
182.84	-95.08
183.06	-65.33
183.279	-60.7
183.499	-46.71
183.719	-61.91
183.938	-238.69
184.158	-158.4
184.377	-93.11
184.597	-6.87
184.816	1.92
185.036	8.25
185.256	-15.75
185.475	11.42
185.695	14.75
185.914	17.96
186.134	-13.9
186.353	-11.92
186.572	35.36
186.792	-25.46
187.011	416.17
187.231	2254.45
187.45	-187.61
187.67	-47.67
187.889	-11.57
188.108	-45.41
188.328	-99.48
188.547	28.45
188.766	33.14
188.986	6.92
189.205	30.88
189.424	53.32
189.644	61.05
189.863	63.95
190.082	54.1
190.302	16.02
190.521	20.99
190.74	17.79
190.959	-12.6
191.178	-19.31
191.398	1.94
191.617	-17.76
191.836	-29.31
192.055	-136.45
192.274	-55.2
192.494	-2021.86
192.713	-77.85
192.932	-275.41
193.151	-132.68
193.37	192.44
193.589	320.18
193.808	228.16
194.027	-155.1
194.246	-178.82
194.465	-5.83
194.685	-47.89
194.904	-27.54
195.123	-155.91
195.342	10.55
195.561	-48.7
195.78	-42.56
195.999	14.01
196.218	72.03
196.436	26.32
196.655	8.81
196.874	154.81
197.093	96.54
197.312	79.99
197.531	12.69
197.75	24.51
197.969	7.51
198.188	11.65
198.407	-31.4
198.625	-56.9
198.844	-70.72
199.063	-136.49
199.282	-19265
199.501	-257.94
199.719	-121
199.938	-134.41
200.157	-253.43
200.376	-59.93
200.594	-61.31
200.813	-32.43
201.032	-14.71
201.251	-6.2
201.469	1.06
201.688	-5.38
201.907	-16.36
202.125	-13.1
202.344	-6.69
202.563	-12.53
202.781	-14.99
203	-24.95
203.218	-34.67
203.437	-61.96
203.656	-36.2
203.874	-33.4
204.093	-3.9
204.311	-25.57
204.53	-24.65
204.748	-68.36
204.967	-95.01
205.185	-126.37
205.404	-82.85
205.622	-134.41
205.841	19.31
206.059	-68.76
206.278	-297.3
206.496	195.04
206.715	236.07
206.933	121.29
207.151	219.79
207.37	317.94
207.588	273.53
207.806	-594.37
208.025	14873.68
208.243	684.45
208.461	-99.89
208.68	-157.01
208.898	-66.88
209.116	-105.01
209.335	-7.9
209.553	22.21
209.771	6.41
209.989	18.95
210.208	-2.29
210.426	-8.88
210.644	-23.53
210.862	-23.92
211.081	11.09
211.299	15.43
211.517	16.19
211.735	-15.96
211.953	-48.36
212.171	-24.1
212.39	-171.62
212.608	-154.36
212.826	-174.73
213.044	-84.49
213.262	-264.68
213.48	-139.01
213.698	-764.66
213.916	-353.86
214.134	-146.55
214.352	-110.13
214.57	-52.13
214.788	21.85
215.006	22.39
215.224	-27.45
215.442	-54.08
215.66	-36.96
215.878	-98.91
216.096	-122.52
216.314	-130.17
216.532	-94.21
216.75	-88.59
216.968	-117.26
217.185	-59.94
217.403	-59.31
217.621	14.63
217.839	20.21
218.057	34.18
218.275	35.52
218.492	36.24
218.71	39.53
218.928	46.47
219.146	30.65
219.363	36.41
219.581	5.64
219.799	4.38
220.017	-26.54
220.234	-17.43
220.452	19.75
220.67	40.31
220.887	44.13
221.105	46.22
221.323	44.9
221.54	26.72
221.758	15.82
221.976	-7.78
222.193	16.55
222.411	14.21
222.629	-5.52
222.846	-17.38
223.064	-28.37
223.281	-42.88
223.499	-47.3
223.716	-47.22
223.934	-42.23
224.151	-56.76
224.369	-51.61
224.586	-52.21
224.804	-151.79
225.021	-70.98
225.239	-53.72
225.456	-19.48
225.674	6.1
225.891	22.59
226.108	26.2
226.326	35.35
226.543	27.28
226.76	31.3
226.978	20.66
227.195	17.51
227.413	16.95
227.63	12.59
227.847	19.25
228.064	15.69
228.282	10.25
228.499	9.04
228.716	8.76
228.934	12.69
229.151	13.15
229.368	13.87
229.585	18.76
229.802	20.31
230.02	20.79
230.237	17.98
230.454	18.78
230.671	22.42
230.888	24.37
231.105	23.7
231.323	20.19
231.54	19.37
231.757	17.81
231.974	12.97
232.191	9.3
232.408	2.94
232.625	-4.89
232.842	-7.04
233.059	-3.54
233.276	-2.78
233.493	-5.54
233.71	-5.07
233.927	0.32
234.144	2.72
234.361	5.85
234.578	7.69
234.795	13.33
235.012	23.46
235.229	22.17
235.446	17.84
235.663	16.19
235.879	12.37
236.096	17.59
236.313	11.16
236.53	6.08
236.747	4.04
236.964	0.51
237.181	0.66
237.397	-5.2
237.614	-3.13
237.831	-4.26
238.048	-4.13
238.264	2.43
238.481	-3.31
238.698	-2.62
238.915	0.97
239.131	-0.63
239.348	-1.79
239.565	5.54
239.781	5.91
239.998	4.11
240.215	5.05
240.431	1.47
240.648	1.5
240.865	6.45
241.081	10.64
241.298	10.08
241.514	11.48
241.731	10.93
241.947	9.73
242.164	10.99
242.38	12.34
242.597	13.93
242.814	15.19
243.03	17.97
243.246	18.98
243.463	17.66
243.679	19.59
243.896	21.26
244.112	21.89
244.329	21.54
244.545	21.19
244.762	21.04
244.978	17.53
245.194	17.23
245.411	14.78
245.627	11.88
245.843	10.85
246.06	9.42
246.276	8.11
246.492	9.95
246.709	10.32
246.925	10.46
247.141	10.45
247.357	11.21
247.574	11.61
247.79	12.37
248.006	12.22
248.222	12.59
248.439	13.22
248.655	13.49
248.871	13.78
249.087	14.36
249.303	13.94
249.519	14.27
249.736	15.41
249.952	15.96
250.168	14.92
250.384	17.16
250.6	17.01
250.816	17.73
251.032	14.81
251.248	12.1
251.464	11.81
251.68	13.75
251.896	12.4
252.112	11.89
252.328	9.84
252.544	9.14
252.76	7.07
252.976	6.43
253.192	3.44
253.408	5.9
253.624	5.94
253.84	4.28
254.056	1.6
254.272	1.73
254.487	0.37
254.703	3.27
254.919	3.8
255.135	7.56
255.351	10.88
255.567	14.58
255.782	14.02
255.998	16.38
256.214	18.09
256.43	15.71
256.646	15.32
256.861	14.47
257.077	11.15
257.293	11.19
257.508	10.9
257.724	8.61
257.94	7.76
258.155	7.63
258.371	7.43
258.587	8
258.802	9.43
259.018	9.69
259.234	9.98
259.449	10.35
259.665	9.09
259.88	9.22
260.096	9.97
260.312	9.36
260.527	9.69
260.743	9.7
260.958	9.26
261.174	8.49
261.389	9.08
261.605	7.99
261.82	8.41
262.036	10.64
262.251	9.52
262.466	9.85
262.682	10.45
262.897	11
263.113	10.65
263.328	12.14
263.543	12.51
263.759	11.1
263.974	11.32
264.189	12.71
264.405	10.74
264.62	11.08
264.835	9.39
265.051	11.95
265.266	9.83
265.481	7.44
265.696	5.5
265.912	7.46
266.127	8.11
266.342	9.38
266.557	7.57
266.773	7.56
266.988	7.54
267.203	9.1
267.418	8.36
267.633	9.8
267.848	10.87
268.064	11.53
268.279	11.6
268.494	11.43
268.709	11.63
268.924	11.13
269.139	10.66
269.354	10.25
269.569	9.07
269.784	9.17
269.999	8.18
270.214	8.04
270.429	8.52
270.644	8.1
270.859	8.46
271.074	7.96
271.289	7.91
271.504	8.14
271.719	8.95
271.934	9.24
272.149	8.22
272.363	8.35
272.578	8.65
272.793	7.52
273.008	7.35
273.223	6.84
273.438	7.68
273.653	7.18
273.867	6.28
274.082	4.46
274.297	5.93
274.512	5.85
274.726	6.75
274.941	8.48
275.156	9.31
275.371	9.08
275.585	9.16
275.8	8.25
276.015	9.76
276.229	12.51
276.444	15.75
276.659	14.49
276.873	14.4
277.088	13.9
277.302	12.71
277.517	12.19
277.732	12.69
277.946	13.88
278.161	13.21
278.375	13.97
278.59	13.71
278.804	11.95
279.019	9.71
279.233	8.67
279.448	7.3
279.662	5.89
279.877	7.25
280.091	7.07
280.306	5.32
280.52	7.53
280.735	7.42
280.949	6.01
281.163	7.84
281.378	10.08
281.592	11.88
281.806	13.26
282.021	13.87
282.235	13.61
282.449	13.69
282.664	16.58
282.878	15.65
283.092	15.43
283.307	16.76
283.521	13.92
283.735	12.53
283.949	12.55
284.164	12.85
284.378	13.73
284.592	13.37
284.806	13.22
285.02	11.22
285.234	11.68
285.449	11.08
285.663	11.1
285.877	11.53
286.091	12.17
286.305	12.01
286.519	11.51
286.733	11.13
286.947	9.99
287.161	10.66
287.375	9.97
287.589	10.28
287.803	10.4
288.017	10.18
288.231	10.72
288.445	10.77
288.659	10.51
288.873	11.41
289.087	9.63
289.301	11.74
289.515	10.04
289.729	9.96
289.943	8.68
290.157	8.28
290.371	7.77
290.584	9.17
290.798	7.46
291.012	7.09
291.226	6.8
291.44	7.74
291.654	6.51
291.867	8.91
292.081	10.85
292.295	10.57
292.509	11.91
292.722	12.23
292.936	10.94
293.15	11.2
293.364	11.81
293.577	10.97
293.791	12.29
294.005	13.46
294.218	12.88
294.432	11.45
294.645	12.67
294.859	11.89
295.073	11.62
295.286	12.5
295.5	14.51
295.713	13.93
295.927	13.64
296.14	12.36
296.354	11.86
296.568	11.53
296.781	12.06
296.994	11.98
297.208	11.65
297.421	11.04
297.635	10.44
297.848	10.2
298.062	10.67
298.275	10.98
298.489	12.05
298.702	11.14
298.915	11.37
299.129	11.12
299.342	10.32
299.555	11.72
299.769	12.24
299.982	13.12
300.195	13.9
300.409	14.53
300.622	14.29
300.835	15.24
301.048	17.07
301.262	16.99
301.475	17.18
301.688	18.33
301.901	17.79
302.115	18.06
302.328	17.3
302.541	15.71
302.754	13.88
302.967	15.21
303.18	14.2
303.393	12.64
303.607	13.34
303.82	13.01
304.033	11.85
304.246	11.5
304.459	11.56
304.672	12.04
304.885	11.38
305.098	13.01
305.311	11.9
305.524	10.77
305.737	11.02
305.95	10.03
306.163	10.46
306.376	10.6
306.589	10.3
306.802	9.88
307.015	10.94
307.228	12.52
307.44	12.7
307.653	12.76
307.866	13.64
308.079	13.3
308.292	12.92
308.505	13.8
308.718	14.57
308.93	15.88
309.143	18.26
309.356	16.26
309.569	16.59
309.781	16.76
309.994	16.14
310.207	16.53
310.42	17.19
310.632	16.67
310.845	16.27
311.058	14.85
311.27	13.32
311.483	11.47
311.696	11.74
311.908	11.09
312.121	10.46
312.333	10.48
312.546	9.73
312.759	9.34
312.971	8.71
313.184	9.38
313.396	11.1
313.609	11.7
313.821	13.07
314.034	13.76
314.246	15.94
314.459	15.32
314.671	15.79
314.884	16.83
315.096	17.36
315.309	19.35
315.521	16.61
315.733	17.27
315.946	16.52
316.158	16.76
316.371	16.3
316.583	13.72
316.795	14.52
317.008	15.28
317.22	15.86
317.432	16.54
317.644	14.67
317.857	16.2
318.069	15.19
318.281	16.21
318.494	14.33
318.706	15.07
318.918	14.65
319.13	14.98
319.342	11.72
319.555	10.19
319.767	7.8
319.979	9.5
320.191	8.95
320.403	7.93
320.615	8.77
320.827	9.07
321.039	9.15
321.252	8.45
321.464	7.5
321.676	11.17
321.888	11.43
322.1	12.82
322.312	11.67
322.524	11.88
322.736	14.18
322.948	13.99
323.16	15.43
323.372	14.99
323.584	15.57
323.796	14.65
324.007	14
324.219	13.38
324.431	15.03
324.643	15.45
324.855	16.08
325.067	13.97
325.279	13.52
325.491	11.91
325.702	12
325.914	13.4
326.126	14.92
326.338	13.49
326.55	13.98
326.761	12.25
326.973	12.62
327.185	12.25
327.396	14.68
327.608	15.54
327.82	15.82
328.032	16.74
328.243	15.93
328.455	16.39
328.666	18.18
328.878	18.78
329.09	19.19
329.301	20.16
329.513	20.35
329.725	19.47
329.936	16.97
330.148	16.42
330.359	16.15
330.571	16.71
330.782	16.12
330.994	14.46
331.205	13.58
331.417	13.58
331.628	12.95
331.84	12.54
332.051	13.84
332.262	16.6
332.474	15.93
332.685	14.71
332.897	15.71
333.108	16.72
333.319	15.8
333.531	15.94
333.742	16.43
333.953	16.67
334.165	18.54
334.376	18.18
334.587	18.29
334.799	20.39
335.01	21.11
335.221	20.62
335.432	20.43
335.644	21.43
335.855	22.25
336.066	22.29
336.277	21.94
336.488	21.01
336.7	19.84
336.911	19.09
337.122	19.53
337.333	20.18
337.544	19.01
337.755	18.9
337.966	20.79
338.177	20.38
338.388	20.65
338.599	20.24
338.811	19.85
339.022	20.1
339.233	21.04
339.444	21.27
339.655	20.26
339.866	20.7
340.076	21.38
340.287	19.4
340.498	19.69
340.709	20.18
340.92	20.49
341.131	20.36
341.342	21.59
341.553	19.77
341.764	18.04
341.975	17.48
342.185	16.67
342.396	15.04
342.607	16.93
342.818	17.31
343.029	16.38
343.239	15.45
343.45	16.75
343.661	16.85
343.872	17.05
344.082	17.4
344.293	18.05
344.504	18.67
344.714	18.56
344.925	16.58
345.136	15.22
345.346	15.12
345.557	15.99
345.768	14.82
345.978	14.22
346.189	14.41
346.399	14.27
346.61	13.84
346.821	13.57
347.031	14.22
347.242	15.51
347.452	15.31
347.663	15.55
347.873	15.68
348.084	15.61
348.294	15.91
348.504	16.66
348.715	17.83
348.925	17.93
349.136	17.11
349.346	17.25
349.557	17.33
349.767	17.95
349.977	18.04
350.188	17.47
350.398	17.51
350.608	16.35
350.819	15.8
351.029	14.91
351.239	15.41
351.449	17.07
351.66	17.1
351.87	16.25
352.08	16.42
352.29	15.95
352.501	16.6
352.711	17.84
352.921	17.01
353.131	16.64
353.341	16.97
353.552	16.9
353.762	17.79
353.972	17.6
354.182	18.21
354.392	18.2
354.602	18.6
354.812	18.59
355.022	17.94
355.232	18.58
355.442	19.68
355.652	19.49
355.862	19.47
356.072	19
356.282	19.29
356.492	19.04
356.702	18.62
356.912	17.87
357.122	17.99
357.332	17.19
357.542	18.57
357.752	18.33
357.962	18.09
358.171	18.37
358.381	17.57
358.591	18.01
358.801	17.83
359.011	17.79
359.221	18.28
359.43	18.81
359.64	19.64
359.85	18.35
360.06	18.18
360.269	18.09
360.479	17.33
360.689	17.43
360.899	16.8
361.108	16.64
361.318	17.16
361.528	16.93
361.737	16.54
361.947	16.49
362.156	17.04
362.366	17
362.576	16.66
362.785	17.1
362.995	17.44
363.204	17.95
363.414	17.97
363.623	17.51
363.833	17.96
364.042	17.64
364.252	16.95
364.461	16.6
364.671	16.67
364.88	16.99
365.09	16.76
365.299	16.27
365.509	15.89
365.718	16.28
365.927	16.53
366.137	16.35
366.346	16.48
366.555	16.48
366.765	16.44
366.974	16.82
367.183	16.98
367.393	17.01
367.602	16.99
367.811	16.08
368.021	15.72
368.23	15.44
368.439	14.71
368.648	14.55
368.857	14.34
369.067	13.7
369.276	13.15
369.485	13.19
369.694	13.23
369.903	12.77
370.112	14.18
370.321	13.43
370.531	13.3
370.74	13.27
370.949	12.64
371.158	11.8
371.367	12.02
371.576	12.17
371.785	11.83
371.994	11.76
372.203	12.4
372.412	11.61
372.621	11.76
372.83	12.06
373.039	12.39
373.248	12.97
373.457	14.3
373.666	14.8
373.874	14.14
374.083	14.13
374.292	14.5
374.501	14.17
374.71	14.56
374.919	14.48
375.128	14.16
375.336	14.1
375.545	14.72
375.754	14.52
375.963	14.71
376.171	14.55
376.38	14.68
376.589	14.48
376.798	14.18
377.006	13.66
377.215	14.35
377.424	14.45
377.632	15.2
377.841	14.94
378.05	14.78
378.258	14.58
378.467	14.72
378.675	14.31
378.884	14.08
379.093	14.25
379.301	14.77
379.51	14.17
379.718	14.06
379.927	12.83
380.135	12.68
380.344	12.94
380.552	12.87
380.761	12.98
380.969	13.4
381.177	13.46
381.386	13.74
381.594	13.4
381.803	13.21
382.011	13.46
382.219	13.73
382.428	13.81
382.636	13.71
382.845	13.8
383.053	13.16
383.261	13.09
383.469	12.98
383.678	12.28
383.886	12
384.094	12.53
384.302	12.36
384.511	11.94
384.719	11.3
384.927	10.9
385.135	10.23
385.343	10.55
385.552	10.61
385.76	10.63
385.968	11.15
386.176	11.24
386.384	10.56
386.592	9.97
386.8	10.05
387.008	10.25
387.216	10.49
387.424	10.36
387.633	10.61
387.841	10.04
388.049	9.61
388.257	9.38
388.465	9.24
388.672	9.61
388.88	9.86
389.088	10
389.296	9.6
389.504	9.49
389.712	9.63
389.92	9.31
390.128	9.56
390.336	10.01
390.544	9.96
390.751	9.65
390.959	9.46
391.167	9.34
391.375	9.33
391.583	9.44
391.79	9.13
391.998	9.07
392.206	9.09
392.414	8.98
392.621	9.14
392.829	9.22
393.037	9.37
393.244	9.26
393.452	9.65
393.66	9.36
393.867	9.51
394.075	9.85
394.283	9.71
394.49	9.53
394.698	9.31
394.905	9.06
395.113	8.58
395.32	8.81
395.528	9.02
395.735	9
395.943	9.45
396.15	9.41
396.358	9.38
396.565	9.8
396.773	9.82
396.98	10.25
397.188	10.39
397.395	10.96
397.602	10.9
397.81	10.97
398.017	10.7
398.225	10.84
398.432	10.65
398.639	10.66
398.847	10.4
399.054	10.62
399.261	10.45
399.468	10.21
399.676	9.54
399.883	9.57
400.09	9.44
400.297	9.34
400.505	9.06
400.712	9.1
400.919	9
401.126	8.83
401.333	8.93
401.54	8.94
401.748	9.01
401.955	9.55
402.162	9.09
402.369	9.15
402.576	9.31
402.783	9.2
402.99	9.16
403.197	9.15
403.404	9.32
403.611	9.24
403.818	9.62
404.025	9.35
404.232	9.28
404.439	9.88
404.646	9.91
404.853	9.84
405.06	9.85
405.267	9.77
405.474	9.63
405.681	9.76
405.887	9.77
406.094	9.51
406.301	9.82
406.508	10.05
406.715	9.65
406.922	9.78
407.128	9.86
407.335	10.1
407.542	10.53
407.749	10.55
407.955	10.54
408.162	10.29
408.369	10.26
408.575	9.89
408.782	9.69
408.989	9.82
409.195	9.44
409.402	9.44
409.609	9.08
409.815	8.74
410.022	8.72
410.228	8.77
410.435	8.87
410.642	9.1
410.848	9.54
411.055	9.49
411.261	9.22
411.468	9.67
411.674	9.73
411.881	9.84
412.087	10.06
412.294	10.17
412.5	10.26
412.706	10.37
412.913	10.11
413.119	9.96
413.326	9.84
413.532	10
413.738	9.69
413.945	9.38
414.151	9.63
414.357	9.37
414.564	9.23
414.77	9.01
414.976	8.97
415.182	8.82
415.389	8.7
415.595	8.75
415.801	8.82
416.007	8.81
416.214	8.95
416.42	8.66
416.626	8.85
416.832	8.93
417.038	8.81
417.244	8.71
417.45	9.01
417.657	9.13
417.863	9.04
418.069	9.14
418.275	9.16
418.481	9.1
418.687	9.2
418.893	9.05
419.099	9.21
419.305	9.23
419.511	9.38
419.717	9.18
419.923	9.04
420.129	9.02
420.335	8.89
420.541	8.72
420.746	8.76
420.952	8.7
421.158	8.83
421.364	8.78
421.57	8.71
421.776	8.51
421.982	8.45
422.187	8.39
422.393	8.45
422.599	8.55
422.805	8.72
423.01	8.8
423.216	8.77
423.422	8.7
423.628	8.56
423.833	8.65
424.039	8.67
424.245	8.8
424.45	8.91
424.656	9
424.862	8.94
425.067	9.04
425.273	9
425.478	8.88
425.684	8.76
425.889	8.68
426.095	8.7
426.301	8.8
426.506	8.59
426.712	8.55
426.917	8.4
427.123	8.37
427.328	8.07
427.533	7.89
427.739	8.07
427.944	8.08
428.15	8.19
428.355	8.1
428.561	8.09
428.766	8.22
428.971	8.4
429.177	8.4
429.382	8.29
429.587	8.32
429.793	8.52
429.998	8.45
430.203	8.49
430.408	8.6
430.614	8.56
430.819	8.37
431.024	8.55
431.229	8.37
431.434	8.48
431.64	8.55
431.845	8.65
432.05	8.36
432.255	8.52
432.46	8.61
432.665	8.68
432.87	8.87
433.076	9.13
433.281	8.93
433.486	8.98
433.691	8.92
433.896	8.71
434.101	8.81
434.306	9.12
434.511	9.24
434.716	9.16
434.921	9.02
435.126	8.92
435.331	8.74
435.535	8.77
435.74	8.56
435.945	8.5
436.15	8.61
436.355	8.6
436.56	8.42
436.765	7.98
436.97	7.87
437.174	7.86
437.379	7.81
437.584	7.8
437.789	7.75
437.993	7.85
438.198	7.86
438.403	8.03
438.608	7.8
438.812	7.86
439.017	8
439.222	8.09
439.426	8.2
439.631	8.25
439.836	8.41
440.04	8.51
440.245	8.61
440.45	8.6
440.654	8.56
440.859	8.65
441.063	8.63
441.268	8.55
441.472	8.62
441.677	8.6
441.881	8.51
442.086	8.5
442.29	8.43
442.495	8.33
442.699	8.25
442.904	8.3
443.108	8.28
443.312	8.14
443.517	8.17
443.721	8.17
443.925	8.18
444.13	8.04
444.334	7.87
444.538	7.9
444.743	7.95
444.947	8.04
445.151	8
445.356	8.07
445.56	8.12
445.764	8.12
445.968	8
446.173	7.97
446.377	8.03
446.581	8.13
446.785	8.23
446.989	8.18
447.193	8.11
447.398	7.94
447.602	7.83
447.806	7.89
448.01	7.8
448.214	7.88
448.418	7.79
448.622	8.08
448.826	7.91
449.03	7.72
449.234	7.63
449.438	7.73
449.642	7.76
449.846	7.82
450.05	7.85
450.254	8.06
450.458	8.16
450.662	8.16
450.866	7.77
451.069	7.84
451.273	7.87
451.477	8.07
451.681	8.09
451.885	8.14
452.089	8.18
452.292	8.06
452.496	8.15
452.7	7.97
452.904	7.96
453.107	7.95
453.311	7.94
453.515	8.03
453.719	7.95
453.922	7.88
454.126	7.78
454.33	7.63
454.533	7.61
454.737	7.45
454.94	7.56
455.144	7.64
455.348	7.73
455.551	7.94
455.755	7.78
455.958	7.87
456.162	7.79
456.365	7.87
456.569	7.84
456.772	7.98
456.976	7.91
457.179	7.77
457.383	7.85
457.586	7.88
457.79	7.89
457.993	7.91
458.196	7.86
458.4	7.88
458.603	7.82
458.807	7.8
459.01	7.87
459.213	7.9
459.417	7.96
459.62	7.93
459.823	7.94
460.026	7.88
460.23	8.04
460.433	7.98
460.636	8.01
460.839	8.08
461.042	8.26
461.246	8.14
461.449	8.14
461.652	8.18
461.855	8.07
462.058	8.14
462.261	8.06
462.464	7.96
462.668	8
462.871	7.93
463.074	7.96
463.277	7.92
463.48	7.83
463.683	7.82
463.886	7.81
464.089	7.81
464.292	7.8
464.495	7.86
464.698	7.87
464.901	7.68
465.104	7.92
465.306	8.06
465.509	8.1
465.712	8.28
465.915	8.22
466.118	8.2
466.321	8.36
466.524	8.29
466.726	8.26
466.929	8.17
467.132	8.19
467.335	7.93
467.538	7.87
467.74	7.73
467.943	7.64
468.146	7.68
468.348	7.67
468.551	7.61
468.754	7.69
468.956	7.72
469.159	7.69
469.362	7.79
469.564	7.99
469.767	7.94
469.969	7.92
470.172	7.92
470.375	7.83
470.577	7.8
470.78	7.7
470.982	7.74
471.185	7.8
471.387	7.71
471.59	7.77
471.792	7.76
471.995	7.75
472.197	7.78
472.399	7.89
472.602	8.1
472.804	7.94
473.007	7.84
473.209	7.84
473.411	7.67
473.614	7.71
473.816	7.81
474.018	7.61
474.22	7.69
474.423	7.82
474.625	7.6
474.827	7.49
475.03	7.74
475.232	7.97
475.434	7.88
475.636	7.99
475.838	8.11
476.04	8.13
476.243	8.39
476.445	8.27
476.647	8.11
476.849	8.08
477.051	8.25
477.253	8.16
477.455	8.1
477.657	8.08
477.859	8.07
478.061	8.15
478.263	7.87
478.465	7.77
478.667	7.68
478.869	7.73
479.071	7.88
479.273	7.73
479.475	7.86
479.677	7.93
479.879	8.06
480.081	8.07
480.283	7.8
480.485	7.83
480.686	7.72
480.888	7.85
481.09	7.96
481.292	7.92
481.494	8.01
481.695	8.06
481.897	8.12
482.099	7.98
482.301	7.99
482.502	8.1
482.704	8.28
482.906	8.37
483.107	8.34
483.309	8.35
483.511	8.35
483.712	8.37
483.914	8.3
484.115	8.26
484.317	8.29
484.519	8.29
484.72	8.29
484.922	8.23
485.123	8.18
485.325	8.18
485.526	8.07
485.728	8.05
485.929	8
486.131	8
486.332	8
486.534	7.97
486.735	7.96
486.936	7.97
487.138	8.05
487.339	8.13
487.541	8.04
487.742	8.08
487.943	8.12
488.144	8.03
488.346	8.11
488.547	8.05
488.748	8.02
488.95	8.05
489.151	8.05
489.352	8.01
489.553	7.93
489.755	7.94
489.956	8.01
490.157	7.97
490.358	8.06
490.559	7.9
490.76	8.01
490.961	8.12
491.163	8.06
491.364	8
491.565	7.98
491.766	8.02
491.967	8.03
492.168	7.94
492.369	7.95
492.57	7.92
492.771	7.93
492.972	7.87
493.173	7.68
493.374	7.69
493.575	7.66
493.776	7.63
493.976	7.57
494.177	7.54
494.378	7.6
494.579	7.56
494.78	7.61
494.981	7.57
495.182	7.62
495.382	7.72
495.583	7.68
495.784	7.73
495.985	7.72
496.185	7.73
496.386	7.82
496.587	7.91
496.788	7.92
496.988	7.94
497.189	7.98
497.39	8
497.59	8.04
497.791	8.13
497.992	8.07
498.192	8.18
498.393	8.22
498.593	8.3
498.794	8.29
498.994	8.39
499.195	8.42
499.395	8.5
499.596	8.54
499.796	8.52
499.997	8.52
500.197	8.59
500.398	8.33
500.598	8.3
500.799	8.32
500.999	8.24
501.199	8.08
501.4	8.09
501.6	8.21
501.801	8.12
502.001	8.31
502.201	8.29
502.402	8.44
502.602	8.7
502.802	8.71
503.002	8.72
503.203	8.78
503.403	8.86
503.603	8.59
503.803	8.44
504.003	8.54
504.204	8.43
504.404	8.42
504.604	8.27
504.804	8.34
505.004	8.41
505.204	8.41
505.404	8.45
505.604	8.44
505.804	8.73
506.005	8.73
506.205	8.6
506.405	8.64
506.605	8.58
506.805	8.63
507.005	8.54
507.204	8.47
507.404	8.42
507.604	8.45
507.804	8.46
508.004	8.17
508.204	8.19
508.404	8.36
508.604	8.47
508.804	8.59
509.003	8.62
509.203	8.57
509.403	8.65
509.603	8.79
509.803	8.76
510.002	8.8
510.202	9.06
510.402	9.16
510.602	9.13
510.801	9.05
511.001	8.96
511.201	8.94
511.4	9
511.6	9.02
511.8	8.88
511.999	8.94
512.199	8.96
512.398	8.86
512.598	8.86
512.797	8.87
512.997	8.96
513.197	9.07
513.396	9.1
513.596	9.09
513.795	9.08
513.994	9.09
514.194	8.93
514.393	8.83
514.593	8.98
514.792	8.95
514.992	8.93
515.191	8.86
515.39	8.86
515.59	9.09
515.789	9.16
515.988	9.03
516.188	9.04
516.387	9.08
516.586	9.07
516.786	9.12
516.985	9.13
517.184	9.13
517.383	9.15
517.582	9.03
517.782	8.95
517.981	8.96
518.18	9.02
518.379	9.14
518.578	9.26
518.777	9.43
518.976	9.46
519.176	9.46
519.375	9.49
519.574	9.52
519.773	9.6
519.972	9.58
520.171	9.54
520.37	9.51
520.569	9.66
520.768	9.55
520.967	9.43
521.166	9.22
521.365	9.37
521.564	9.33
521.762	9.24
521.961	9.27
522.16	9.19
522.359	9.21
522.558	9.33
522.757	9.19
522.956	9.28
523.154	9.42
523.353	9.45
523.552	9.48
523.751	9.52
523.949	9.66
524.148	9.71
524.347	9.79
524.546	9.8
524.744	9.9
524.943	10.01
525.142	10.01
525.34	10.02
525.539	10.12
525.737	10.07
525.936	10.19
526.135	10.3
526.333	10.35
526.532	10.37
526.73	10.4
526.929	10.36
527.127	10.32
527.326	10.29
527.524	10.35
527.723	10.35
527.921	10.4
528.12	10.36
528.318	10.29
528.516	10.29
528.715	10.33
528.913	10.37
529.112	10.44
529.31	10.48
529.508	10.54
529.707	10.5
529.905	10.55
530.103	10.48
530.301	10.51
530.5	10.56
530.698	10.53
530.896	10.65
531.094	10.68
531.293	10.69
531.491	10.62
531.689	10.63
531.887	10.67
532.085	10.67
532.283	10.83
532.481	10.87
532.68	10.94
532.878	11.01
533.076	10.92
533.274	10.92
533.472	10.94
533.67	10.91
533.868	10.99
534.066	11.04
534.264	11.01
534.462	11
534.66	11.02
534.858	11.07
535.056	11.06
535.253	11.1
535.451	11.1
535.649	11.08
535.847	11.19
536.045	11.15
536.243	11.27
536.441	11.5
536.638	11.52
536.836	11.68
537.034	11.66
537.232	11.71
537.43	11.77
537.627	11.84
537.825	11.86
538.023	11.87
538.22	11.95
538.418	11.91
538.616	11.87
538.813	11.83
539.011	11.74
539.209	12.03
539.406	12.15
539.604	12.28
539.801	12.35
539.999	12.45
540.196	12.5
540.394	12.53
540.591	12.51
540.789	12.57
540.986	12.58
541.184	12.62
541.381	12.47
541.579	12.34
541.776	12.36
541.974	12.34
542.171	12.32
542.368	12.34
542.566	12.41
542.763	12.56
542.96	12.55
543.158	12.64
543.355	12.69
543.552	12.65
543.75	12.94
543.947	13.03
544.144	13.11
544.341	13.15
544.539	13.29
544.736	13.32
544.933	13.22
545.13	13.31
545.327	13.32
545.524	13.32
545.722	13.47
545.919	13.33
546.116	13.32
546.313	13.43
546.51	13.63
546.707	13.7
546.904	13.67
547.101	13.81
547.298	13.92
547.495	14.12
547.692	14.29
547.889	14.35
548.086	14.53
548.283	14.42
548.48	14.49
548.677	14.42
548.874	14.5
549.07	14.59
549.267	14.5
549.464	14.63
549.661	14.64
549.858	14.6
550.055	14.68
550.251	14.88
550.448	15.13
550.645	15.2
550.842	15.15
551.038	15.09
551.235	15.31
551.432	15.48
551.628	15.2
551.825	15.22
552.022	15.24
552.218	15.3
552.415	15.27
552.612	15.35
552.808	15.33
553.005	15.62
553.201	15.67
553.398	15.63
553.594	15.58
553.791	15.72
553.987	15.78
554.184	15.91
554.38	16.03
554.577	16.09
554.773	16.26
554.97	16.47
555.166	16.59
555.362	16.86
555.559	17.02
555.755	17.27
555.952	17.43
556.148	17.46
556.344	17.56
556.541	17.5
556.737	17.67
556.933	17.67
557.129	17.68
557.326	17.77
557.522	17.68
557.718	17.8
557.914	17.82
558.11	17.92
558.307	17.89
558.503	18
558.699	18.2
558.895	18.14
559.091	17.99
559.287	18.1
559.483	17.96
559.679	18.15
559.876	17.88
560.072	17.99
560.268	17.97
560.464	18.21
560.66	18.24
560.856	18.44
561.052	18.46
561.247	18.76
561.443	18.78
561.639	18.75
561.835	18.6
562.031	18.75
562.227	18.73
562.423	18.86
562.619	19.02
562.815	19.27
563.01	19.17
563.206	19.3
563.402	19.25
563.598	19.18
563.793	19.5
563.989	19.5
564.185	19.74
564.381	19.92
564.576	19.93
564.772	19.74
564.968	19.53
565.163	19.59
565.359	19.66
565.555	19.92
565.75	20.1
565.946	20.25
566.141	20.45
566.337	20.59
566.532	20.6
566.728	20.61
566.923	20.75
567.119	20.94
567.314	20.97
567.51	21.23
567.705	21.04
567.901	21.05
568.096	20.98
568.292	21.02
568.487	21.13
568.682	21.12
568.878	21.21
569.073	21.43
569.268	21.42
569.464	21.54
569.659	21.26
569.854	21.46
570.05	21.6
570.245	21.68
570.44	21.69
570.635	21.63
570.831	21.64
571.026	21.86
571.221	21.94
571.416	22.16
571.611	22.38
571.806	22.46
572.002	22.63
572.197	22.71
572.392	22.77
572.587	23.09
572.782	23.36
572.977	23.55
573.172	23.5
573.367	23.55
573.562	23.47
573.757	23.45
573.952	23.74
574.147	23.57
574.342	23.71
574.537	23.76
574.732	23.54
574.927	23.34
575.121	23.48
575.316	23.59
575.511	23.61
575.706	23.73
575.901	23.72
576.096	23.33
576.29	23.49
576.485	23.4
576.68	23.23
576.875	23.44
577.069	23.48
577.264	23.29
577.459	23.32
577.654	23.17
577.848	23.19
578.043	23.25
578.238	23.71
578.432	23.68
578.627	23.68
578.821	24.01
579.016	23.56
579.21	23.63
579.405	23.82
579.6	23.73
579.794	23.92
579.989	23.94
580.183	23.8
580.378	23.81
580.572	23.89
580.766	24.05
580.961	24.12
581.155	24.41
581.35	24.33
581.544	24.31
581.738	24.61
581.933	24.66
582.127	24.57
582.321	24.74
582.516	24.53
582.71	24.79
582.904	24.84
583.099	24.78
583.293	25.15
583.487	25.23
583.681	25.17
583.875	24.83
584.07	24.68
584.264	24.6
584.458	24.5
584.652	24.69
584.846	24.41
585.04	24.5
585.234	24.44
585.428	24.34
585.623	24.42
585.817	24.79
586.011	24.83
586.205	24.95
586.399	25.28
586.593	25.23
586.787	25.4
586.981	25.38
587.174	25.22
587.368	25.32
587.562	25.16
587.756	25.14
587.95	25.15
588.144	25.3
588.338	25.35
588.532	25.33
588.725	25.84
588.919	25.63
589.113	25.63
589.307	25.67
589.501	25.84
589.694	25.86
589.888	26.16
590.082	25.99
590.275	26.05
590.469	25.76
590.663	25.63
590.856	25.43
591.05	25.34
591.244	25.51
591.437	25.55
591.631	25.28
591.824	25.59
592.018	25.47
592.212	25.25
592.405	25.26
592.599	25.55
592.792	25.88
592.986	25.86
593.179	26.12
593.372	25.96
593.566	26.01
593.759	26.26
593.953	26.13
594.146	26.11
594.339	26.46
594.533	26.4
594.726	26.4
594.92	26.17
595.113	26.22
595.306	26.2
595.499	26.41
595.693	26.26
595.886	26.23
596.079	26.31
596.272	26.34
596.466	26.42
596.659	26.54
596.852	26.47
597.045	26.42
597.238	26.5
597.431	26.46
597.624	26.46
597.818	26.58
598.011	26.59
598.204	26.52
598.397	26.37
598.59	26.21
598.783	26.18
598.976	26.16
599.169	26.14
599.362	26.08
599.555	26.36
599.748	26.42
599.941	26.31
600.134	26.5
600.326	26.42
600.519	26.6
600.712	26.63
600.905	26.83
601.098	27.14
601.291	27.22
601.483	26.98
601.676	26.91
601.869	26.85
602.062	27.04
602.255	26.95
602.447	27.05
602.64	26.95
602.833	26.87
603.025	26.63
603.218	26.85
603.411	26.82
603.603	27.18
603.796	27.36
603.989	27.39
604.181	27.39
604.374	27.46
604.566	27.45
604.759	27.64
604.951	27.7
605.144	27.74
605.336	27.51
605.529	27.46
605.721	27.3
605.914	27.08
606.106	26.96
606.299	26.98
606.491	26.98
606.683	26.95
606.876	26.86
607.068	26.92
607.26	27.12
607.453	26.9
607.645	27.17
607.837	27.3
608.03	27.29
608.222	27.53
608.414	27.54
608.606	27.37
608.799	27.53
608.991	27.5
609.183	27.28
609.375	27.49
609.567	27.77
609.759	27.76
609.952	27.66
610.144	27.44
610.336	27.1
610.528	27.13
610.72	27.22
610.912	27.24
611.104	27.52
611.296	27.68
611.488	27.28
611.68	27.32
611.872	27.24
612.064	27.33
612.256	27.5
612.448	27.75
612.64	27.56
612.832	27.4
613.023	27.22
613.215	26.91
613.407	26.89
613.599	26.91
613.791	26.89
613.983	26.95
614.174	27.02
614.366	27.15
614.558	27.5
614.75	27.74
614.941	27.79
615.133	27.7
615.325	27.64
615.516	27.51
615.708	27.61
615.9	27.52
616.091	27.46
616.283	27.31
616.475	27.52
616.666	27.06
616.858	27.05
617.049	27.07
617.241	27.14
617.432	27.16
617.624	27.61
617.815	27.65
618.007	27.6
618.198	27.82
618.39	27.89
618.581	27.73
618.773	27.89
618.964	28.17
619.155	28.35
619.347	28.32
619.538	28.3
619.729	28.24
619.921	28.04
620.112	28.02
620.303	28.04
620.494	27.9
620.686	27.57
620.877	27.41
621.068	27.04
621.259	26.58
621.451	26.71
621.642	26.66
621.833	26.6
622.024	26.7
622.215	26.93
622.406	26.93
622.597	27.01
622.788	27.58
622.98	27.77
623.171	27.96
623.362	28.27
623.553	28.26
623.744	28.19
623.935	28.09
624.126	28.24
624.317	28.28
624.508	28.23
624.698	28.29
624.889	27.83
625.08	27.75
625.271	27.63
625.462	27.65
625.653	27.35
625.844	27.52
626.034	27.6
626.225	27.69
626.416	27.67
626.607	27.66
626.798	27.73
626.988	28.09
627.179	28.2
627.37	28.54
627.56	28.65
627.751	28.96
627.942	28.94
628.132	29.19
628.323	29.09
628.514	28.98
628.704	29.05
628.895	29.26
629.085	29.22
629.276	29.34
629.466	29.09
629.657	28.99
629.847	29.22
630.038	29.46
630.228	29.07
630.419	29
630.609	28.82
630.8	28.91
630.99	28.8
631.181	28.89
631.371	28.84
631.561	29.08
631.752	29.23
631.942	28.91
632.132	28.82
632.323	29.03
632.513	29.49
632.703	29.58
632.893	29.48
633.084	29.52
633.274	29.4
633.464	29.49
633.654	29.17
633.844	29.05
634.034	29.29
634.225	29.07
634.415	28.76
634.605	28.32
634.795	28.42
634.985	28.28
635.175	28.32
635.365	28.07
635.555	27.94
635.745	28.03
635.935	27.95
636.125	27.78
636.315	27.88
636.505	28.36
636.695	28.53
636.885	28.66
637.075	28.84
637.265	28.87
637.455	29.15
637.644	29.37
637.834	29.19
638.024	29.59
638.214	29.52
638.404	29.52
638.593	29.37
638.783	29.44
638.973	29.07
639.163	28.7
639.352	28.51
639.542	28.49
639.732	28.15
639.921	28.1
640.111	27.99
640.301	28.23
640.49	28.31
640.68	28.09
640.87	28.4
641.059	28.79
641.249	29.59
641.438	29.51
641.628	29.2
641.817	28.96
642.007	29.33
642.196	29.26
642.386	29.3
642.575	29.47
642.764	29.6
642.954	29.28
643.143	29.22
643.333	28.35
643.522	28.47
643.711	28.57
643.901	29.14
644.09	28.88
644.279	28.74
644.469	28.6
644.658	28.86
644.847	28.79
645.036	29.26
645.226	29.54
645.415	30.12
645.604	29.98
645.793	30.1
645.982	29.69
646.171	29.67
646.361	29.78
646.55	29.8
646.739	29.46
646.928	29.5
647.117	28.86
647.306	28.71
647.495	28.52
647.684	28.58
647.873	28.84
648.062	28.91
648.251	28.75
648.44	28.86
648.629	28.61
648.818	28.82
649.007	29.1
649.196	28.87
649.384	28.62
649.573	28.67
649.762	28.44
649.951	28.61
650.14	28.66
650.328	28.94
650.517	28.55
650.706	28.86
650.895	28.49
651.083	28.57
651.272	28.78
651.461	28.52
651.65	28.73
651.838	28.74
652.027	28.33
652.216	28.57
652.404	28.4
652.593	28.62
652.781	28.79
652.97	28.84
653.158	28.78
653.347	28.9
653.535	29.47
653.724	29.61
653.912	30.01
654.101	30.06
654.289	29.7
654.478	29.89
654.666	30.15
654.855	29.91
655.043	30.06
655.231	29.91
655.42	29.41
655.608	29.23
655.796	28.72
655.985	28.31
656.173	28.17
656.361	28.45
656.55	28.3
656.738	28.3
656.926	28.38
657.114	28.21
657.302	27.98
657.491	28.37
657.679	28.18
657.867	28.33
658.055	28.83
658.243	28.92
658.431	29.26
658.619	29.3
658.807	29.32
658.996	29.62
659.184	29.81
659.372	29.98
659.56	29.89
659.748	30.13
659.936	30.28
660.124	29.94
660.311	30.12
660.499	29.79
660.687	30.04
660.875	30.14
661.063	29.71
661.251	30.11
661.439	30
661.627	30.08
661.814	29.94
662.002	29.61
662.19	30
662.378	30.29
662.565	30.39
662.753	30.58
662.941	30.6
663.129	30.92
663.316	30.6
663.504	30.85
663.692	31.13
663.879	31.58
664.067	31.12
664.254	30.89
664.442	30.32
664.63	30.14
664.817	29.49
665.005	29.24
665.192	28.84
665.38	29.01
665.567	28.94
665.755	28.8
665.942	28.56
666.13	29.4
666.317	29.23
666.504	29.21
666.692	29.41
666.879	29.66
667.067	29.57
667.254	29.74
667.441	29.31
667.629	28.77
667.816	28.66
668.003	29.02
668.19	29.23
668.378	29.7
668.565	29.78
668.752	29.81
668.939	30.13
669.127	30.02
669.314	29.94
669.501	30.37
669.688	30.83
669.875	31.04
670.062	30.48
670.249	29.57
670.436	29.64
670.623	29.42
670.81	29.35
670.997	28.78
671.184	28.75
671.371	29.08
671.558	28.85
671.745	28.96
671.932	28.69
672.119	29.48
672.306	29.8
672.493	29.34
672.68	29.59
672.867	29.85
673.054	30.32
673.24	30.49
673.427	30.24
673.614	30.18
673.801	29.8
673.988	30.26
674.174	29.4
674.361	29.92
674.548	30.3
674.734	30.47
674.921	30.12
675.108	30.19
675.294	29.81
675.481	29.79
675.668	29.59
675.854	30.21
676.041	30.03
676.227	30.39
676.414	30.2
676.601	29.88
676.787	29.39
676.974	29.32
677.16	29.09
677.347	29.42
677.533	29.6
677.719	29.27
677.906	29.14
678.092	29.52
678.279	29.18
678.465	29.09
678.651	29.37
678.838	29.78
679.024	29.73
679.21	29.62
679.397	29.34
679.583	29.23
679.769	29.49
679.955	28.89
680.142	28.4
680.328	28.44
680.514	28.32
680.7	27.61
680.886	27.54
681.073	27.76
681.259	28.36
681.445	28.74
681.631	28.84
681.817	29.04
682.003	29.53
682.189	30.01
682.375	30.15
682.561	30.66
682.747	31.05
682.933	30.94
683.119	30.43
683.305	29.95
683.491	29.61
683.677	29.55
683.863	29.63
684.049	29.23
684.235	29.13
684.42	28.66
684.606	28.83
684.792	29.3
684.978	29.48
685.164	29.89
685.349	29.73
685.535	29.63
685.721	29.3
685.907	29.06
686.092	29.69
686.278	29.36
686.464	29.7
686.649	28.98
686.835	28.97
687.021	28.77
687.206	29.35
687.392	29.91
687.577	30.51
687.763	30.88
687.948	30.79
688.134	30.43
688.319	30.41
688.505	30.56
688.69	30.86
688.876	30.58
689.061	31.4
689.247	31.04
689.432	30.79
689.618	30.8
689.803	30.59
689.988	30.74
690.174	31.05
690.359	30.96
690.544	31.21
690.73	31.77
690.915	31.78
691.1	31.3
691.285	31.33
691.471	30.92
691.656	30.62
691.841	30.71
692.026	30.32
692.211	30.14
692.396	30.4
692.582	30.15
692.767	29.47
692.952	29.27
693.137	28.99
693.322	29.09
693.507	29.16
693.692	29.13
693.877	28.71
694.062	29.1
694.247	28.94
694.432	28.7
694.617	27.98
694.802	27.98
694.987	28.42
695.172	27.92
695.357	27.5
695.541	26.87
695.726	26.76
695.911	27.45
696.096	27.62
696.281	28.1
696.466	28.72
696.65	29.48
696.835	29.15
697.02	28.91
697.204	29.91
697.389	29.65
697.574	30.65
697.759	30.91
697.943	30.99
698.128	30.81
698.312	30.53
698.497	30.25
698.682	30.18
698.866	30.48
699.051	30.19
699.235	29.88
699.42	30.21
699.604	30.11
699.789	30.33
699.973	29.91
700.158	30.08
700.342	30.37
700.527	30.27
700.711	30.47
700.895	29.99
701.08	30.71
701.264	30.66
701.448	30.84
701.633	31.1
701.817	31.27
702.001	31.42
702.186	30.93
702.37	30.57
702.554	31.64
702.738	31.38
702.923	32.28
703.107	31.24
703.291	31.72
703.475	30.66
703.659	29.91
703.843	28.87
704.027	29.2
704.212	28.81
704.396	28.51
704.58	27.61
704.764	28.12
704.948	27.35
705.132	28.22
705.316	27.91
705.5	28.32
705.684	28
705.868	28.74
706.052	28.01
706.235	29.33
706.419	29.33
706.603	28.63
706.787	28.3
706.971	28.65
707.155	28.49
707.339	29.34
707.522	29.67
707.706	30.01
707.89	29.26
708.074	29.69
708.257	29.41
708.441	29.36
708.625	30
708.808	29.64
708.992	29.45
709.176	29.64
709.359	28.73
709.543	29.06
709.727	29.1
709.91	29.87
710.094	29.36
710.277	28.99
710.461	29.59
710.644	29.84
710.828	30.04
711.011	30.03
711.195	29.77
711.378	30.03
711.562	30.54
711.745	30.43
711.928	30.38
712.112	30.22
712.295	29.69
712.478	29.35
712.662	28.96
712.845	29.35
713.028	29.86
713.212	29.96
713.395	30.01
713.578	28.99
713.761	29.46
713.945	29.52
714.128	30.34
714.311	31.19
714.494	30.89
714.677	31.3
714.86	31.14
715.043	31.01
715.227	31.03
715.41	30.76
715.593	31.13
715.776	30.76
715.959	30.36
716.142	30.13
716.325	29.88
716.508	30.57
716.691	30.03
716.874	30.3
717.057	30.41
717.239	30.32
717.422	30.42
717.605	30.79
717.788	30.27
717.971	29.82
718.154	30.22
718.337	29.92
718.519	29.71
718.702	29.64
718.885	28.28
719.068	28.72
719.25	28.77
719.433	28.46
719.616	28.12
719.798	28.68
719.981	29.58
720.164	28.95
720.346	29.09
720.529	28.96
720.712	29.86
720.894	31.41
721.077	29.78
721.259	30.62
721.442	30.68
721.624	30.78
721.807	31.08
721.989	29.63
722.172	29.83
722.354	29.92
722.537	30.05
722.719	29.63
722.901	29.91
723.084	31.02
723.266	30.06
723.448	29.97
723.631	29.96
723.813	30.66
723.995	31.83
724.178	32.2
724.36	31.72
724.542	31.91
724.724	31.06
724.907	29.96
725.089	30.57
725.271	30.14
725.453	30.88
725.635	29.81
725.817	29.32
725.999	29.12
726.181	29.16
726.364	29.78
726.546	29.88
726.728	30.83
726.91	31.38
727.092	30.54
727.274	31.31
727.456	31.83
727.638	32.12
727.819	31.63
728.001	30.98
728.183	30.64
728.365	30.13
728.547	29.71
728.729	29.06
728.911	28.28
729.093	28.24
729.274	28.65
729.456	28.46
729.638	28.88
729.82	29.81
730.001	30.34
730.183	29.99
730.365	30.42
730.546	31.19
730.728	31.41
730.91	31.72
731.091	31.93
731.273	31.43
731.455	31.28
731.636	31.68
731.818	30.82
731.999	30.82
732.181	31.31
732.362	31.05
732.544	29.1
732.725	28.86
732.907	28.42
733.088	27.52
733.27	27.36
733.451	26.56
733.633	26.03
733.814	25.62
733.995	26.16
734.177	25.47
734.358	25.62
734.539	26.73
734.721	27.73
734.902	28.05
735.083	28.74
735.264	29.07
735.446	29.68
735.627	30.06
735.808	30.65
735.989	29.51
736.17	30.96
736.351	30.52
736.533	31.11
736.714	30.17
736.895	30.39
737.076	30.42
737.257	30.13
737.438	30.04
737.619	30.18
737.8	29.53
737.981	30.51
738.162	30.04
738.343	30.07
738.524	29.9
738.705	30.48
738.886	29.99
739.067	30.55
739.247	30.79
739.428	29.74
739.609	29.23
739.79	30.42
739.971	30.5
740.151	30.75
740.332	30.96
740.513	30.11
740.694	30.97
740.874	31.55
741.055	31.08
741.236	32.53
741.417	33.46
741.597	33.58
741.778	32.11
741.958	31.55
742.139	31
742.32	31.2
742.5	32.29
742.681	31.44
742.861	30.51
743.042	30.74
743.222	28.36
743.403	27.48
743.583	26.97
743.764	27.7
743.944	27.7
744.124	28.11
744.305	28.86
744.485	29.04
744.666	28.86
744.846	29.07
745.026	28.5
745.207	27.99
745.387	27.94
745.567	28.01
745.747	28.27
745.928	28.42
746.108	28.95
746.288	28.41
746.468	27.67
746.648	27.92
746.829	28.17
747.009	28.38
747.189	29.51
747.369	30.14
747.549	30.46
747.729	29.94
747.909	29.04
748.089	29.06
748.269	28.6
748.449	28.3
748.629	27.74
748.809	28.81
748.989	28.15
749.169	27.83
749.349	28.6
749.529	28.5
749.709	29.06
749.889	30.07
750.068	29.05
750.248	29.66
750.428	30.39
750.608	30.56
750.788	30.29
750.967	31.64
751.147	32.09
751.327	31.71
751.507	32.25
751.686	31.96
751.866	33.24
752.046	33.8
752.225	33.31
752.405	33.4
752.585	32.52
752.764	32.08
752.944	32.14
753.123	33.48
753.303	32.78
753.482	31.99
753.662	31.4
753.841	30.67
754.021	30.77
754.2	31.34
754.38	30.98
754.559	32.01
754.739	30.98
754.918	30.19
755.097	28.33
755.277	28.63
755.456	29.08
755.635	29.36
755.815	31.02
755.994	29.72
756.173	29.1
756.352	29.5
756.532	29.4
756.711	30.37
756.89	31.2
757.069	31.11
757.248	31.01
757.427	31.05
757.607	31.3
757.786	29.89
757.965	31.35
758.144	32.07
758.323	31.02
758.502	30.81
758.681	31.75
758.86	31.28
759.039	31.44
759.218	31.25
759.397	31.02
759.576	31.31
759.755	30.73
759.934	29.12
760.113	28.43
760.291	29.95
760.47	29.42
760.649	27.75
760.828	27.63
761.007	29.2
761.186	29.8
761.364	30.87
761.543	30.48
761.722	30.64
761.901	32.14
762.079	33.11
762.258	32.82
762.437	33.57
762.615	34.45
762.794	34.26
762.972	32.58
763.151	32.8
763.33	32.43
763.508	31.92
763.687	31.5
763.865	30.84
764.044	30.44
764.222	29.93
764.401	28.95
764.579	28.88
764.758	28.49
764.936	28
765.114	27.25
765.293	26.65
765.471	27.86
765.65	28.04
765.828	27.58
766.006	26.24
766.184	26.58
766.363	27.53
766.541	27.28
766.719	26.86
766.898	28.05
767.076	27.89
767.254	27.7
767.432	27.52
767.61	27.03
767.788	27.93
767.967	28.42
768.145	27.74
768.323	28.22
768.501	28.11
768.679	28.5
768.857	28.74
769.035	28.53
769.213	29.27
769.391	28.32
769.569	28.13
769.747	28.2
769.925	28.92
770.103	29.57
770.281	28.84
770.459	28.8
770.636	29.57
770.814	29.75
770.992	30.34
771.17	28.22
771.348	27.5
771.525	27.85
771.703	26.02
771.881	25.87
772.059	23.95
772.236	24.3
772.414	21.79
772.592	21.13
772.769	20.81
772.947	23.24
773.125	25.33
773.302	25.59
773.48	26.94
773.657	30
773.835	31.72
774.013	34.56
774.19	34.24
774.368	36.01
774.545	36.4
774.723	36.23
774.9	34.57
775.077	34.49
775.255	35.04
775.432	34.97
775.61	32.14
775.787	29.88
775.964	28.5
776.142	29.61
776.319	29.54
776.496	28.15
776.674	28.76
776.851	29.05
777.028	27.95
777.205	28.83
777.382	27.7
777.56	28.48
777.737	28.02
777.914	26.74
778.091	25.32
778.268	25.77
778.445	26.7
778.622	27.64
778.8	25.21
778.977	25.82
779.154	23.82
779.331	23.47
779.508	24.95
779.685	24.74
779.862	26.1
780.038	25.32
780.215	24.64
780.392	25.94
780.569	23.33
780.746	25.17
780.923	25.72
781.1	24.18
781.277	25.1
781.453	24.3
781.63	26.43
781.807	27.56
781.984	28.09
782.16	29.17
782.337	27.38
782.514	27.28
782.691	28.5
782.867	26.87
783.044	30.49
783.221	30.28
783.397	31.45
783.574	32.34
783.75	32.03
783.927	30.9
784.103	27.89
784.28	27.85
784.456	28.57
784.633	24.18
784.809	23.8
784.986	21.87
785.162	22.64
785.339	22.96
785.515	19.24
785.692	19.78
785.868	19.21
786.044	25.31
786.221	26.37
786.397	26.6
786.573	31.26
786.749	32.08
786.926	31.57
787.102	30.94
787.278	29.42
787.454	29.61
787.631	28.5
787.807	28.44
787.983	25.45
788.159	24.16
788.335	23.87
788.511	24.08
788.687	24.27
788.863	26
789.039	27.31
789.216	26.34
789.392	27.91
789.568	27.83
789.744	29.31
789.919	30.59
790.095	29.33
790.271	30.8
790.447	28.76
790.623	29.71
790.799	31.2
790.975	30.78
791.151	31.99
791.327	32.43
791.502	30.86
791.678	27.51
791.854	23.25
792.03	25.41
792.205	25.66
792.381	24.95
792.557	23.03
792.733	20.1
792.908	19.25
793.084	18.04
793.259	15.23
793.435	17.16
793.611	20.81
793.786	24.33
793.962	25.83
794.137	26.14
794.313	24.36
794.488	29.13
794.664	33.22
794.839	33.31
795.015	35.29
795.19	37.2
795.366	37.69
795.541	33.83
795.716	34.79
795.892	33.62
796.067	31.61
796.242	35.17
796.418	32.99
796.593	30.42
796.768	31.03
796.944	30.31
797.119	31.74
797.294	30.71
797.469	34.66
797.644	31.98
797.82	34.76
797.995	33.36
798.17	30.25
798.345	30.45
798.52	30.46
798.695	28.53
798.87	30.49
799.045	28.78
799.22	28.86
799.395	29.31
799.57	32.72
799.745	30.16
799.92	32.06
800.095	35.03
800.27	33.9
800.445	35.33
800.62	37.04
800.795	37.27
800.97	35.93
801.145	37.25
801.319	34.95
801.494	34.12
801.669	34.67
801.844	32.36
802.018	30.24
802.193	32.44
802.368	31.35
802.543	29.23
802.717	28.69
802.892	28.71
803.067	27.36
803.241	29.77
803.416	27.34
803.59	27.74
803.765	29.58
803.94	31.7
804.114	31.86
804.289	30.36
804.463	29.39
804.638	28.22
804.812	24.7
804.986	22.84
805.161	20.73
805.335	23.49
805.51	24.42
805.684	24.72
805.858	20.74
806.033	18.59
806.207	19.44
806.381	22.88
806.556	22.39
806.73	26.9
806.904	27.69
807.078	28.04
807.253	25.28
807.427	23.79
807.601	23.7
807.775	24.62
807.949	23.62
808.123	21.38
808.298	16.88
808.472	14.15
808.646	19.39
808.82	22.3
808.994	20.64
809.168	25
809.342	24.32
809.516	21.45
809.69	22.32
809.864	22.16
810.038	22.98
810.212	24.53
810.385	23.9
810.559	19.28
810.733	17.34
810.907	16.23
811.081	8.05
811.255	14.13
811.428	18.64
811.602	20.22
811.776	24.39
811.95	28.76
812.123	32.14
812.297	33.46
812.471	34.43
812.644	33.21
812.818	38.25
812.992	45.08
813.165	39.04
813.339	36.88
813.512	38.62
813.686	37.28
813.86	36.56
814.033	30.5
814.207	35.36
814.38	37.34
814.554	36.93
814.727	32.67
814.9	32.01
815.074	31.59
815.247	32.89
815.421	32.82
815.594	35.15
815.767	33.37
815.941	33.05
816.114	29.2
816.287	26.1
816.46	29.07
816.634	32.39
816.807	31.74
816.98	30.28
817.153	27.05
817.327	23.75
817.5	16.04
817.673	13.73
817.846	21.49
818.019	24.18
818.192	22.86
818.365	24.2
818.538	18.4
818.711	19.06
818.884	18.79
819.057	19.74
819.23	23.33
819.403	28.37
819.576	30.45
819.749	28.53
819.922	28.66
820.095	31.68
820.268	28.24
820.441	29.45
820.614	29.23
820.786	30.84
820.959	34.69
821.132	33.48
821.305	33.11
821.477	32.17
821.65	30.96
821.823	31.1
821.996	30.2
822.168	31.04
822.341	32.02
822.514	32.05
822.686	32.54
822.859	31.5
823.031	31.76
823.204	31.67
823.376	31.37
823.549	31.97
823.722	31.38
823.894	30.88
824.067	30.52
824.239	30.33
824.411	30.3
824.584	30.01
824.756	29.84
824.929	29.17
825.101	28.35
825.273	27.71
825.446	27.57
825.618	27.99
825.79	28.36
825.963	28.22
826.135	28.75
826.307	29.16
826.479	28.51
826.652	28.09
826.824	29.31
826.996	30.38
827.168	32.24
827.34	32.15
827.512	32.37
827.684	33.87
827.856	34.51
828.029	34.5
828.201	33.26
828.373	34.25
828.545	33.72
828.717	32.71
828.889	35
829.061	33.76
829.232	32.84
829.404	32.91
829.576	33.69
829.748	34.09
829.92	34.02
830.092	36.92
830.264	35.74
830.436	38.31
830.607	34.86
830.779	28.46
830.951	29.13
831.123	30.12
831.294	27.69
831.466	21.35
831.638	22.44
831.809	19.26
831.981	17.13
832.153	16.4
832.324	12.37
832.496	19.25
832.667	20.05
832.839	17.41
833.011	16.64
833.182	21.49
833.354	25.54
833.525	23.95
833.697	26.84
833.868	27.51
834.039	29.17
834.211	31.56
834.382	30.97
834.554	32.5
834.725	34.95
834.896	36.35
835.068	35.55
835.239	33.73
835.41	34.96
835.581	34.58
835.753	34.37
835.924	34.09
836.095	34.47
836.266	33.67
836.438	33.11
836.609	28.23
836.78	25.83
836.951	24.06
837.122	27.95
837.293	27.57
837.464	25.98
837.635	23.99
837.806	23.81
837.977	20.96
838.148	18.68
838.319	17.74
838.49	22.07
838.661	25.51
838.832	26.22
839.003	29.57
839.174	27.09
839.345	30.7
839.516	34.16
839.687	36.93
839.857	37.15
840.028	37.4
840.199	35.16
840.37	33.49
840.54	29.89
840.711	30.65
840.882	23.26
841.053	23.86
841.223	16.66
841.394	12.23
841.564	9.73
841.735	8.93
841.906	9.7
842.076	13.89
842.247	14.17
842.417	16.14
842.588	13.76
842.758	13.99
842.929	10.25
843.099	19.45
843.27	22.25
843.44	15.61
843.611	16.09
843.781	22.32
843.951	26.68
844.122	22.57
844.292	15.08
844.462	13.84
844.633	25.77
844.803	24.64
844.973	8.06
845.144	13.89
845.314	26.35
845.484	30.97
845.654	24.21
845.824	4.27
845.995	15.52
846.165	18.31
846.335	23.17
846.505	15.59
846.675	16.47
846.845	18.32
847.015	13.02
847.185	9.2
847.355	9.95
847.525	10.55
847.695	16.92
847.865	10.19
848.035	12.6
848.205	16.45
848.375	11
848.545	18.33
848.715	25.43
848.884	29.33
849.054	34.84
849.224	38.03
849.394	39.68
849.564	35.73
849.733	36.49
849.903	37.01
850.073	29.14
850.243	40.28
850.412	8.36
850.582	0.25
850.752	-10.14
850.921	-5.29
851.091	-12.98
851.26	-2.37
851.43	-6.77
851.599	1.92
851.769	0.75
851.939	4.96
852.108	-3.46
852.278	18.64
852.447	23.1
852.616	17.01
852.786	-0.02
852.955	3.34
853.125	2.11
853.294	7.01
853.463	4.4
853.633	10.19
853.802	8.02
853.971	32.26
854.141	26.92
854.31	39.77
854.479	52.02
854.648	63.9
854.818	53.44
854.987	45.53
855.156	60.93
855.325	56.6
855.494	52.09
855.663	43.06
855.832	27.52
856.001	28.17
856.171	19.69
856.34	21.79
856.509	-2.93
856.678	0.09
856.847	32.46
857.016	36.53
857.185	44.54
857.353	29.92
857.522	48.1
857.691	55.89
857.86	57.15
858.029	54.85
858.198	53.56
858.367	75.56
858.535	80
858.704	71.32
858.873	61.79
859.042	57.61
859.21	50.63
859.379	30.04
859.548	14.12
859.717	9.97
859.885	-7.81
860.054	-5.66
860.222	-28.58
860.391	-26.65
860.56	-41.03
860.728	-36.69
860.897	-24.63
861.065	-15
861.234	0.61
861.402	1.74
861.571	3.56
861.739	13.32
861.908	8.32
862.076	23.09
862.244	32.41
862.413	32.56
862.581	23.97
862.749	10.87
862.918	48.18
863.086	31.86
863.254	51.9
863.423	57.76
863.591	83.98
863.759	48.78
863.927	5.63
864.096	11.67
864.264	2.23
864.432	17.15
864.6	13.1
864.768	3.99
864.936	5.71
865.104	9.4
865.272	-3.75
865.44	-17.53
865.608	-11.92
865.776	1.47
865.944	-14.36
866.112	-3.1
866.28	8.07
866.448	5.1
866.616	-5.4
866.784	9.34
866.952	-7.6
867.12	-0.72
867.288	10.34
867.455	11.28
867.623	3.73
867.791	12.82
867.959	-0.06
868.127	20.37
868.294	38.35
868.462	43.64
868.63	38.02
868.797	50.83
868.965	58.76
869.133	48.26
869.3	46.01
869.468	50.25
869.636	51.05
869.803	58.24
869.971	43.49
870.138	38.82
870.306	41.73
870.473	39.98
870.641	30.52
870.808	21.98
870.975	22.48
871.143	8.45
871.31	-7.09
871.478	-32
871.645	-37.86
871.812	-9.71
871.98	-5.04
872.147	2.95
872.314	-5.38
872.482	-1.68
872.649	-19.55
872.816	-12.62
872.983	9.69
873.15	6.86
873.318	14.42
873.485	16.95
873.652	-1.91
873.819	-27.08
873.986	-43.3
874.153	-12.48
874.32	-22.7
874.487	-16.52
874.654	-20.47
874.821	-50.92
874.988	-42.13
875.155	-68.82
875.322	-42.28
875.489	-2.94
875.656	17.46
875.823	10.67
875.99	3.41
876.157	21.66
876.324	20.83
876.49	27.8
876.657	37.07
876.824	29.49
876.991	30.42
877.157	23.9
877.324	15.43
877.491	12.97
877.658	14.21
877.824	8.81
877.991	4.94
878.157	5.45
878.324	-5.73
878.491	3.98
878.657	10.93
878.824	10.12
878.99	0.96
879.157	-9.05
879.323	-7.38
879.49	-3.36
879.656	-8.77
879.823	-17.12
879.989	-22.03
880.156	-12.88
880.322	-15.44
880.488	-15.17
880.655	-2.25
880.821	8.16
880.987	8.09
881.154	18.01
881.32	20.89
881.486	21.76
881.652	21.32
881.819	29.38
881.985	33.94
882.151	28.87
882.317	29.38
882.483	26.58
882.649	28.67
882.816	28.31
882.982	25.72
883.148	28.29
883.314	29.29
883.48	26.96
883.646	27.98
883.812	25.72
883.978	27.43
884.144	27.74
884.31	29.47
884.476	27.77
884.642	27
884.807	26.43
884.973	23.51
885.139	25.72
885.305	27.66
885.471	25.49
885.637	23.32
885.802	23.41
885.968	23.19
886.134	20.48
886.3	23.65
886.465	28.73
886.631	32.37
886.797	32.69
886.962	29.86
887.128	29.5
887.293	30.06
887.459	33.59
887.625	37.53
887.79	41.58
887.956	42.9
888.121	40.94
888.287	41.43
888.452	39.81
888.618	44.47
888.783	41.1
