Data from 2937812_Reflection_1.txt Node
Date: Wed Jul 15 17:44:19 EDT 2015
User: robert
Spectrometer: USB4E03001
Autoset integration time: false
Trigger mode: 4
Integration Time (sec): 1.000000E-1
Scans to average: 10
Electric dark correction enabled: true
Nonlinearity correction enabled: false
Boxcar width: 5
Stray light correction enabled: false
XAxis mode: Wavelengths
Stop averaging: false
Number of Pixels in Spectrum: 3648
>>>>>Begin Spectral Data<<<<<
177.566	-213.19
177.785	-18066.67
178.005	-60.58
178.225	-106.45
178.445	-61.56
178.665	12.96
178.885	121.35
179.105	449.31
179.324	1045.25
179.544	-140.12
179.764	-18.59
179.984	-124.59
180.204	1282.99
180.423	-248.31
180.643	3468.12
180.863	68.21
181.083	-218.75
181.302	-128.85
181.522	-98.94
181.742	-134.1
181.961	-166.43
182.181	-151.46
182.401	-508.59
182.621	-240.34
182.84	1122.51
183.06	2610.62
183.279	-54.8
183.499	-21.71
183.719	-2.58
183.938	25.09
184.158	51.45
184.377	102.47
184.597	100.15
184.816	94.24
185.036	80.17
185.256	68.05
185.475	64.48
185.695	70.76
185.914	61.15
186.134	38.96
186.353	38.82
186.572	35.57
186.792	27.93
187.011	33.21
187.231	34.35
187.45	31.72
187.67	15.41
187.889	14.57
188.108	41.18
188.328	35.02
188.547	82.5
188.766	141.99
188.986	491.89
189.205	-460.63
189.424	-556.34
189.644	1338.15
189.863	130.38
190.082	454.71
190.302	386.25
190.521	114.42
190.74	886.32
190.959	-546.73
191.178	980.2
191.398	-364.08
191.617	-56.25
191.836	-47.02
192.055	-83.23
192.274	-3.39
192.494	-7.5
192.713	68.25
192.932	96.16
193.151	156.11
193.37	422.22
193.589	152.14
193.808	256.6
194.027	-80.71
194.246	314.82
194.465	257.14
194.685	78.93
194.904	-124.07
195.123	797.01
195.342	902.71
195.561	724.3
195.78	-297.99
195.999	-291.13
196.218	753.26
196.436	207.29
196.655	220.31
196.874	230.87
197.093	260.63
197.312	1716.44
197.531	-184.11
197.75	131.17
197.969	65.59
198.188	33.86
198.407	-14.53
198.625	-134.33
198.844	-584.5
199.063	3302.08
199.282	182.43
199.501	-1241.04
199.719	51.08
199.938	143.57
200.157	207.48
200.376	46.92
200.594	-84.16
200.813	-56
201.032	-33.12
201.251	-58.96
201.469	84.04
201.688	-1103.37
201.907	748.46
202.125	-1631.86
202.344	561.15
202.563	418.8
202.781	227.89
203	136.16
203.218	141.18
203.437	128.29
203.656	156.56
203.874	162.23
204.093	84.2
204.311	74.26
204.53	64.28
204.748	50.9
204.967	23.92
205.185	54.52
205.404	102.29
205.622	81.75
205.841	-375.04
206.059	-140.14
206.278	-79.3
206.496	35.55
206.715	88.1
206.933	114.57
207.151	58.11
207.37	381.97
207.588	203.1
207.806	23.01
208.025	34.35
208.243	143.49
208.461	192.09
208.68	310.06
208.898	-64.81
209.116	32.83
209.335	108.34
209.553	1029.21
209.771	86.6
209.989	101.39
210.208	41.29
210.426	54.77
210.644	-31.76
210.862	39.89
211.081	39.84
211.299	53.66
211.517	85.98
211.735	126.8
211.953	177.77
212.171	165.62
212.39	104.73
212.608	58.88
212.826	112.82
213.044	150.96
213.262	410.57
213.48	288.69
213.698	97850
213.916	143.26
214.134	140.66
214.352	648.8
214.57	424.64
214.788	-3654
215.006	1869.66
215.224	-576.93
215.442	-1666.1
215.66	-628.6
215.878	-171.05
216.096	-44.44
216.314	-148.68
216.532	-4.8
216.75	6.59
216.968	-1.32
217.185	-50.54
217.403	-23.49
217.621	-42.48
217.839	-125.77
218.057	-1192.06
218.275	299.38
218.492	156.84
218.71	183.23
218.928	153.43
219.146	135.27
219.363	125.65
219.581	108.86
219.799	105.05
220.017	74.36
220.234	47.65
220.452	59.54
220.67	98.46
220.887	6.31
221.105	-66.63
221.323	16.05
221.54	-182.39
221.758	555.47
221.976	526.45
222.193	-329.97
222.411	187.9
222.629	248.6
222.846	154.88
223.064	142.57
223.281	205.28
223.499	195.17
223.716	199.16
223.934	72.95
224.151	-256.53
224.369	280.17
224.586	992.68
224.804	-496.26
225.021	-259.35
225.239	-93.74
225.456	-31.35
225.674	-5.62
225.891	30.1
226.108	27.24
226.326	15.74
226.543	17.99
226.76	31.45
226.978	24.02
227.195	20.8
227.413	39.88
227.63	20.24
227.847	34.19
228.064	34.7
228.282	30.61
228.499	29.02
228.716	29.79
228.934	24.22
229.151	24.57
229.368	24.81
229.585	25.1
229.802	23.98
230.02	25.67
230.237	22.43
230.454	25.15
230.671	22.09
230.888	20.72
231.105	21.46
231.323	26.65
231.54	26.04
231.757	28.78
231.974	29.36
232.191	27.57
232.408	23.39
232.625	17.21
232.842	11.2
233.059	19.94
233.276	25.11
233.493	18.27
233.71	13.61
233.927	18.02
234.144	12.6
234.361	5.59
234.578	1.7
234.795	5.15
235.012	2.35
235.229	3.98
235.446	-0.76
235.663	-10.7
235.879	-15.53
236.096	-15.98
236.313	-30.24
236.53	-22.72
236.747	-14.6
236.964	-11.58
237.181	-17.03
237.397	-14.19
237.614	-13.8
237.831	-18.1
238.048	-1.72
238.264	13.05
238.481	17.78
238.698	21.75
238.915	25.03
239.131	21.04
239.348	16.84
239.565	22.1
239.781	16.45
239.998	12.85
240.215	15.47
240.431	2.42
240.648	1.72
240.865	-5.99
241.081	1.08
241.298	-1.89
241.514	1.35
241.731	3.02
241.947	5.38
242.164	7.52
242.38	7
242.597	12.11
242.814	15.57
243.03	14.41
243.246	17.85
243.463	15.83
243.679	15.81
243.896	12.81
244.112	12.63
244.329	12.1
244.545	15.02
244.762	15.43
244.978	10.87
245.194	10.94
245.411	11.2
245.627	13.66
245.843	16.66
246.06	17.93
246.276	20.32
246.492	21.37
246.709	19.37
246.925	17.24
247.141	17.76
247.357	18.06
247.574	18.47
247.79	17.56
248.006	17.47
248.222	16.24
248.439	17.22
248.655	15.66
248.871	13.53
249.087	13.75
249.303	12.45
249.519	10.39
249.736	9.43
249.952	7
250.168	6.15
250.384	1.56
250.6	2.22
250.816	-2.92
251.032	1.06
251.248	0.32
251.464	2.93
251.68	5.36
251.896	7.07
252.112	7.12
252.328	7.16
252.544	8.19
252.76	7.21
252.976	8.37
253.192	8.69
253.408	6.95
253.624	8
253.84	3.91
254.056	3.65
254.272	1.47
254.487	0.68
254.703	-0.45
254.919	0.1
255.135	4.51
255.351	0.42
255.567	2.23
255.782	2.32
255.998	6.97
256.214	8.83
256.43	5.78
256.646	2.65
256.861	-1.16
257.077	-2.9
257.293	-2.01
257.508	-3.94
257.724	-3.18
257.94	-0.29
258.155	-0.47
258.371	-1.55
258.587	0.36
258.802	4.56
259.018	6.78
259.234	9.71
259.449	10.75
259.665	12.31
259.88	13
260.096	13.17
260.312	11.7
260.527	12.79
260.743	12.92
260.958	12.66
261.174	11.29
261.389	12.11
261.605	11.12
261.82	10.47
262.036	9.27
262.251	7.43
262.466	6.5
262.682	7.45
262.897	6.01
263.113	4.73
263.328	3.48
263.543	4.49
263.759	4.26
263.974	5.04
264.189	6.69
264.405	5.99
264.62	5.9
264.835	7.16
265.051	6.66
265.266	7.37
265.481	6.58
265.696	9.6
265.912	10.19
266.127	8.5
266.342	7.52
266.557	5.65
266.773	5.14
266.988	6.73
267.203	7.3
267.418	6.37
267.633	5.57
267.848	6.27
268.064	4.09
268.279	3.81
268.494	4.61
268.709	5.36
268.924	7.14
269.139	7.29
269.354	6.29
269.569	4.28
269.784	4.92
269.999	6.23
270.214	6.77
270.429	6.72
270.644	5.35
270.859	6.16
271.074	8.14
271.289	6.39
271.504	6.87
271.719	7.78
271.934	9.62
272.149	10.33
272.363	9.61
272.578	9.16
272.793	9.83
273.008	11.28
273.223	11.5
273.438	9.73
273.653	11.26
273.867	11.53
274.082	12.62
274.297	11.61
274.512	11.11
274.726	10.14
274.941	10.89
275.156	10.61
275.371	10.32
275.585	8.16
275.8	6.92
276.015	7.38
276.229	5.73
276.444	4.32
276.659	4.11
276.873	3.8
277.088	2.48
277.302	1.91
277.517	0.5
277.732	-2.65
277.946	-2.47
278.161	2.66
278.375	1.29
278.59	2.77
278.804	-0.84
279.019	-3.34
279.233	-2.71
279.448	-0.33
279.662	-0.08
279.877	0.94
280.091	3.91
280.306	5.55
280.52	1.82
280.735	1.43
280.949	0.21
281.163	4.15
281.378	6.2
281.592	8.08
281.806	8.84
282.021	9.06
282.235	9.53
282.449	9.83
282.664	8.85
282.878	9.69
283.092	10.85
283.307	11.43
283.521	12.08
283.735	11.01
283.949	8.6
284.164	9.41
284.378	9.08
284.592	9.57
284.806	10.09
285.02	10.95
285.234	10.39
285.449	10.44
285.663	9.27
285.877	7.54
286.091	7.83
286.305	8.78
286.519	7.67
286.733	7.95
286.947	7.17
287.161	6.32
287.375	6.14
287.589	6.31
287.803	5.77
288.017	7.18
288.231	6.41
288.445	7.87
288.659	9.11
288.873	10.76
289.087	11.27
289.301	12.12
289.515	13.82
289.729	13.83
289.943	12.21
290.157	12.93
290.371	11.09
290.584	14.85
290.798	13.14
291.012	12.48
291.226	12.28
291.44	11.63
291.654	11.28
291.867	10.68
292.081	9.36
292.295	12.09
292.509	12.25
292.722	14.2
292.936	10.77
293.15	13.4
293.364	12.73
293.577	12.13
293.791	11.7
294.005	10.57
294.218	7.44
294.432	9.2
294.645	8
294.859	7.34
295.073	8.07
295.286	8.9
295.5	8.68
295.713	8.83
295.927	8.2
296.14	8.04
296.354	9.03
296.568	10.95
296.781	10.98
296.994	10.91
297.208	11.32
297.421	10.73
297.635	9.74
297.848	8.82
298.062	8.66
298.275	8.96
298.489	10.99
298.702	10.89
298.915	10.9
299.129	11.49
299.342	12.85
299.555	13.13
299.769	13.53
299.982	15.43
300.195	15.63
300.409	15.27
300.622	14.3
300.835	13.12
301.048	13.1
301.262	13.48
301.475	11.74
301.688	10.48
301.901	9.58
302.115	10
302.328	10.69
302.541	12.72
302.754	14.74
302.967	14.7
303.18	14.96
303.393	14.6
303.607	15.11
303.82	18.2
304.033	18.28
304.246	17.72
304.459	16.63
304.672	15.29
304.885	14.48
305.098	13.24
305.311	14.15
305.524	13.8
305.737	14.1
305.95	12.77
306.163	10.16
306.376	10.95
306.589	11
306.802	10.51
307.015	10.78
307.228	9.93
307.44	9.56
307.653	11.53
307.866	9.79
308.079	11.33
308.292	11.02
308.505	12.13
308.718	12.33
308.93	10.75
309.143	12.43
309.356	12.43
309.569	11.82
309.781	13.11
309.994	10.9
310.207	12.39
310.42	11.03
310.632	11.37
310.845	10.99
311.058	9.61
311.27	11.84
311.483	12.13
311.696	11.38
311.908	12.51
312.121	11.37
312.333	10.54
312.546	9.37
312.759	9.58
312.971	10.15
313.184	10.27
313.396	12.23
313.609	10.24
313.821	9.54
314.034	10.53
314.246	7.55
314.459	6.78
314.671	8.73
314.884	10.66
315.096	10.79
315.309	7.33
315.521	7.27
315.733	6.94
315.946	7.04
316.158	6.38
316.371	7.06
316.583	10.45
316.795	10.7
317.008	9.92
317.22	9.22
317.432	8.17
317.644	11.37
317.857	9.85
318.069	8.33
318.281	7.53
318.494	6.37
318.706	6.94
318.918	7.21
319.13	7
319.342	8.19
319.555	5.96
319.767	7.91
319.979	6.81
320.191	7.88
320.403	6.14
320.615	9.65
320.827	9.5
321.039	9.37
321.252	10.05
321.464	12.49
321.676	11.28
321.888	14.13
322.1	11.57
322.312	10.42
322.524	9.87
322.736	12.52
322.948	9.92
323.16	11.16
323.372	8.02
323.584	7.8
323.796	5.63
324.007	6.27
324.219	4.29
324.431	6.69
324.643	8.11
324.855	10.37
325.067	10.45
325.279	11.6
325.491	12.14
325.702	14.11
325.914	13.66
326.126	15.08
326.338	14.42
326.55	15.61
326.761	14.21
326.973	14.01
327.185	12.19
327.396	10.77
327.608	13.48
327.82	14
328.032	12.45
328.243	12.84
328.455	11.96
328.666	12.34
328.878	12.67
329.09	12.9
329.301	10.95
329.513	9.08
329.725	9.85
329.936	8.23
330.148	8.38
330.359	9.7
330.571	8.34
330.782	8.47
330.994	10.79
331.205	10.76
331.417	11.15
331.628	12.41
331.84	15.08
332.051	15.86
332.262	14.85
332.474	13.28
332.685	13.74
332.897	13.5
333.108	12.84
333.319	11.02
333.531	11.32
333.742	12.21
333.953	14.24
334.165	13.76
334.376	14.61
334.587	14.42
334.799	16.75
335.01	16.77
335.221	17.79
335.432	18.04
335.644	18
335.855	16.15
336.066	15.2
336.277	13.33
336.488	14.19
336.7	14.15
336.911	16.29
337.122	15.3
337.333	15.91
337.544	15.47
337.755	16.65
337.966	16.71
338.177	17.9
338.388	17.71
338.599	18.44
338.811	16.95
339.022	16.46
339.233	14.25
339.444	12.94
339.655	12.01
339.866	12.9
340.076	13.48
340.287	13.22
340.498	12.17
340.709	12.04
340.92	11.37
341.131	11.95
341.342	11.55
341.553	12.54
341.764	12.31
341.975	11.86
342.185	12.05
342.396	10.54
342.607	12.26
342.818	13.64
343.029	14.53
343.239	14.25
343.45	13.62
343.661	12.74
343.872	12.84
344.082	14.72
344.293	14.4
344.504	14.94
344.714	15.1
344.925	14.22
345.136	14.86
345.346	14.64
345.557	16.41
345.768	15.91
345.978	17.57
346.189	16.42
346.399	14.87
346.61	14.9
346.821	14.13
347.031	14.64
347.242	13.47
347.452	13.06
347.663	14.5
347.873	12.77
348.084	14.91
348.294	13.94
348.504	14.58
348.715	16.18
348.925	17.36
349.136	17.78
349.346	15.73
349.557	16.81
349.767	16.22
349.977	14.54
350.188	15.75
350.398	14.85
350.608	13.85
350.819	12.58
351.029	11.64
351.239	11.99
351.449	11
351.66	11.26
351.87	10.94
352.08	9.88
352.29	8.63
352.501	7.92
352.711	7.84
352.921	7.8
353.131	8.66
353.341	8.79
353.552	8.07
353.762	8.66
353.972	10.49
354.182	10.27
354.392	14.03
354.602	15.44
354.812	14.77
355.022	15.73
355.232	16.24
355.442	16.57
355.652	16.33
355.862	15.96
356.072	15.64
356.282	15.56
356.492	15.41
356.702	13.05
356.912	12.47
357.122	13.28
357.332	12.9
357.542	13.57
357.752	14.25
357.962	14.17
358.171	13.81
358.381	13.63
358.591	13.41
358.801	13.76
359.011	13.4
359.221	14.16
359.43	14.63
359.64	14.74
359.85	14.67
360.06	13.36
360.269	13.94
360.479	13.29
360.689	13.22
360.899	12.56
361.108	12.6
361.318	12.85
361.528	11.98
361.737	12
361.947	11.74
362.156	11.05
362.366	11.71
362.576	10.77
362.785	10.61
362.995	11.34
363.204	11.2
363.414	10.87
363.623	10.58
363.833	11.19
364.042	11.71
364.252	12.48
364.461	12.91
364.671	13.62
364.88	14.29
365.09	15.45
365.299	14.09
365.509	14.75
365.718	15.39
365.927	16.32
366.137	16.36
366.346	14.61
366.555	12.99
366.765	13.38
366.974	12.16
367.183	11.55
367.393	11.95
367.602	11.17
367.811	11.05
368.021	10.21
368.23	8.76
368.439	8.1
368.648	8.71
368.857	8.78
369.067	7.72
369.276	7.26
369.485	8.21
369.694	7.08
369.903	8.31
370.112	8.57
370.321	9.05
370.531	9.62
370.74	10.58
370.949	10.25
371.158	10.55
371.367	9.97
371.576	11.12
371.785	10.47
371.994	10.42
372.203	10.59
372.412	10.47
372.621	10.88
372.83	10.51
373.039	9.95
373.248	9.88
373.457	9.59
373.666	10.78
373.874	10.35
374.083	9.9
374.292	9.7
374.501	9.24
374.71	8.83
374.919	7.62
375.128	7.53
375.336	7.99
375.545	8.17
375.754	7.74
375.963	7.23
376.171	6.5
376.38	7.13
376.589	7.41
376.798	7.48
377.006	7.49
377.215	8.18
377.424	8.71
377.632	7.98
377.841	8.33
378.05	8.88
378.258	9.39
378.467	9.56
378.675	9.53
378.884	9.17
379.093	9.42
379.301	9.46
379.51	9.93
379.718	10.5
379.927	11.17
380.135	10.68
380.344	10.9
380.552	11.34
380.761	11.81
380.969	11.79
381.177	11.94
381.386	11.71
381.594	11.17
381.803	11.55
382.011	11.11
382.219	11.65
382.428	11.63
382.636	11.57
382.845	10.75
383.053	10.54
383.261	10.34
383.469	10.81
383.678	11.01
383.886	10.94
384.094	10.09
384.302	10.01
384.511	9.07
384.719	9.34
384.927	9.56
385.135	9.34
385.343	9.47
385.552	9.42
385.76	9.04
385.968	8.48
386.176	8.71
386.384	8.45
386.592	8.11
386.8	8.04
387.008	7.61
387.216	7.32
387.424	7.26
387.633	6.76
387.841	6.8
388.049	7.2
388.257	7.45
388.465	7.72
388.672	7.72
388.88	7.9
389.088	8.06
389.296	8.01
389.504	7.73
389.712	8.19
389.92	8.66
390.128	8.71
390.336	8.58
390.544	8.67
390.751	8.83
390.959	8.67
391.167	8.22
391.375	8.2
391.583	8.58
391.79	8.56
391.998	7.98
392.206	7.45
392.414	7.06
392.621	6.66
392.829	6.54
393.037	6.33
393.244	6.07
393.452	6.62
393.66	6.5
393.867	6.48
394.075	6.36
394.283	6.5
394.49	6.78
394.698	6.91
394.905	6.97
395.113	7.06
395.32	6.85
395.528	7.29
395.735	7.11
395.943	6.71
396.15	6.22
396.358	6.44
396.565	6.36
396.773	6.21
396.98	5.99
397.188	6.13
397.395	6.15
397.602	5.9
397.81	5.88
398.017	5.38
398.225	5.81
398.432	5.77
398.639	5.63
398.847	5.61
399.054	5.6
399.261	5.92
399.468	5.73
399.676	5.4
399.883	5.93
400.09	6.04
400.297	6.2
400.505	6.2
400.712	6.45
400.919	6.65
401.126	6.81
401.333	6.98
401.54	6.92
401.748	7.41
401.955	7.92
402.162	7.37
402.369	7.06
402.576	7.33
402.783	6.88
402.99	6.7
403.197	6.41
403.404	6.62
403.611	6.38
403.818	6.38
404.025	6.1
404.232	6.18
404.439	6.56
404.646	6.78
404.853	6.61
405.06	6.72
405.267	6.93
405.474	6.99
405.681	6.62
405.887	6.69
406.094	6.65
406.301	6.71
406.508	6.42
406.715	6.13
406.922	5.62
407.128	5.69
407.335	5.89
407.542	5.46
407.749	5.09
407.955	5.27
408.162	5.29
408.369	5.29
408.575	4.95
408.782	4.73
408.989	4.94
409.195	5.14
409.402	5.09
409.609	5.21
409.815	5.21
410.022	5.54
410.228	5.71
410.435	6
410.642	6.23
410.848	6.39
411.055	6.74
411.261	6.56
411.468	6.73
411.674	6.52
411.881	6.29
412.087	6.69
412.294	6.59
412.5	6.37
412.706	6
412.913	5.68
413.119	5.6
413.326	5.43
413.532	5.43
413.738	5.29
413.945	5.62
414.151	5.45
414.357	5.04
414.564	5.25
414.77	5.34
414.976	5.58
415.182	5.58
415.389	5.73
415.595	5.48
415.801	5.71
416.007	5.78
416.214	5.65
416.42	5.87
416.626	6.29
416.832	6.42
417.038	6.41
417.244	6.28
417.45	6.49
417.657	6.3
417.863	6.44
418.069	6.32
418.275	6.19
418.481	6.08
418.687	6.12
418.893	5.92
419.099	5.76
419.305	5.47
419.511	5.48
419.717	5.42
419.923	5.55
420.129	5.51
420.335	5.73
420.541	5.81
420.746	6
420.952	6.04
421.158	6.05
421.364	6.14
421.57	6.41
421.776	6.52
421.982	6.52
422.187	6.45
422.393	6.58
422.599	6.37
422.805	6.34
423.01	6.24
423.216	6.17
423.422	6.22
423.628	6.25
423.833	6.15
424.039	6.15
424.245	6.28
424.45	6.33
424.656	6.2
424.862	6.23
425.067	6.35
425.273	6.35
425.478	6.34
425.684	6.43
425.889	6.33
426.095	6.25
426.301	6.14
426.506	5.88
426.712	5.97
426.917	5.97
427.123	6.03
427.328	5.78
427.533	5.76
427.739	5.99
427.944	5.86
428.15	5.9
428.355	5.92
428.561	5.82
428.766	5.8
428.971	5.62
429.177	5.73
429.382	5.58
429.587	5.54
429.793	5.52
429.998	5.11
430.203	4.93
430.408	4.75
430.614	5.03
430.819	5.34
431.024	5.27
431.229	5.49
431.434	5.59
431.64	5.6
431.845	5.89
432.05	5.97
432.255	6.12
432.46	6.14
432.665	6.29
432.87	6.29
433.076	6.22
433.281	6.23
433.486	5.86
433.691	5.67
433.896	5.76
434.101	5.87
434.306	5.95
434.511	5.88
434.716	5.95
434.921	5.87
435.126	5.85
435.331	5.71
435.535	6.07
435.74	6.35
435.945	6.59
436.15	6.49
436.355	6.15
436.56	6.22
436.765	6.38
436.97	6.17
437.174	6.23
437.379	5.99
437.584	6.1
437.789	5.94
437.993	5.93
438.198	5.79
438.403	5.7
438.608	5.68
438.812	5.41
439.017	5.45
439.222	5.77
439.426	5.74
439.631	5.87
439.836	5.78
440.04	5.71
440.245	5.69
440.45	5.69
440.654	5.81
440.859	5.93
441.063	6.07
441.268	6
441.472	5.97
441.677	5.81
441.881	5.88
442.086	5.9
442.29	6.07
442.495	6.05
442.699	6.14
442.904	6.03
443.108	6.21
443.312	6.05
443.517	5.98
443.721	5.85
443.925	6.16
444.13	6.04
444.334	5.92
444.538	5.5
444.743	5.55
444.947	5.44
445.151	5.47
445.356	5.25
445.56	5.32
445.764	5.34
445.968	5.31
446.173	5.31
446.377	5.32
446.581	5.44
446.785	5.68
446.989	5.72
447.193	5.61
447.398	5.66
447.602	5.74
447.806	5.95
448.01	5.93
448.214	6.05
448.418	6.11
448.622	6.14
448.826	5.97
449.03	5.97
449.234	5.87
449.438	6.05
449.642	6.35
449.846	6.41
450.05	6.09
450.254	6.2
450.458	6.35
450.662	6.13
450.866	6.18
451.069	6.23
451.273	6.21
451.477	6.25
451.681	6.18
451.885	5.67
452.089	5.53
452.292	5.72
452.496	5.72
452.7	5.53
452.904	5.51
453.107	5.33
453.311	5.36
453.515	5.35
453.719	5.19
453.922	4.89
454.126	5.13
454.33	5.12
454.533	5.05
454.737	5.02
454.94	5.15
455.144	5.21
455.348	5.47
455.551	5.44
455.755	5.38
455.958	5.48
456.162	5.93
456.365	5.79
456.569	5.88
456.772	5.82
456.976	5.73
457.179	5.59
457.383	5.67
457.586	5.56
457.79	5.54
457.993	5.48
458.196	5.48
458.4	5.41
458.603	5.47
458.807	5.4
459.01	5.5
459.213	5.55
459.417	5.51
459.62	5.42
459.823	5.27
460.026	5.39
460.23	5.58
460.433	5.65
460.636	5.56
460.839	5.54
461.042	5.54
461.246	5.52
461.449	5.5
461.652	5.48
461.855	5.57
462.058	5.78
462.261	5.69
462.464	5.55
462.668	5.41
462.871	5.53
463.074	5.56
463.277	5.62
463.48	5.41
463.683	5.41
463.886	5.43
464.089	5.36
464.292	5.2
464.495	5.13
464.698	5.11
464.901	5.18
465.104	4.93
465.306	4.96
465.509	4.96
465.712	5.2
465.915	5.27
466.118	5.05
466.321	5.05
466.524	5.21
466.726	5.31
466.929	5.45
467.132	5.5
467.335	5.77
467.538	5.85
467.74	5.78
467.943	5.8
468.146	5.82
468.348	6.07
468.551	5.96
468.754	5.9
468.956	6.01
469.159	5.91
469.362	5.82
469.564	5.73
469.767	5.49
469.969	5.6
470.172	5.52
470.375	5.49
470.577	5.61
470.78	5.61
470.982	5.7
471.185	5.67
471.387	5.58
471.59	5.58
471.792	5.57
471.995	5.61
472.197	5.68
472.399	5.86
472.602	5.85
472.804	5.67
473.007	5.83
473.209	5.69
473.411	5.71
473.614	5.83
473.816	5.97
474.018	5.94
474.22	5.88
474.423	5.64
474.625	5.3
474.827	5.12
475.03	5.24
475.232	5.28
475.434	5.38
475.636	5.25
475.838	5.39
476.04	5.25
476.243	5.32
476.445	5.48
476.647	5.72
476.849	5.85
477.051	6.02
477.253	5.89
477.455	5.74
477.657	5.55
477.859	5.53
478.061	5.38
478.263	5.45
478.465	5.34
478.667	5.49
478.869	5.45
479.071	5.65
479.273	5.47
479.475	5.58
479.677	5.56
479.879	5.64
480.081	5.7
480.283	5.56
480.485	5.68
480.686	5.75
480.888	5.59
481.09	5.5
481.292	5.33
481.494	5.36
481.695	5.32
481.897	5.45
482.099	5.54
482.301	5.66
482.502	5.63
482.704	5.55
482.906	5.6
483.107	5.57
483.309	5.62
483.511	5.7
483.712	5.79
483.914	5.79
484.115	5.78
484.317	5.76
484.519	5.71
484.72	5.76
484.922	5.77
485.123	5.8
485.325	5.84
485.526	5.81
485.728	5.75
485.929	5.72
486.131	5.75
486.332	5.79
486.534	5.81
486.735	5.77
486.936	5.83
487.138	5.8
487.339	5.8
487.541	5.87
487.742	5.84
487.943	5.85
488.144	5.86
488.346	5.8
488.547	5.73
488.748	5.7
488.95	5.75
489.151	5.77
489.352	5.77
489.553	5.64
489.755	5.56
489.956	5.62
490.157	5.54
490.358	5.53
490.559	5.64
490.76	5.6
490.961	5.63
491.163	5.62
491.364	5.58
491.565	5.65
491.766	5.71
491.967	5.74
492.168	5.7
492.369	5.77
492.57	5.86
492.771	5.88
492.972	5.85
493.173	5.89
493.374	5.91
493.575	5.88
493.776	5.88
493.976	5.88
494.177	5.96
494.378	6
494.579	5.95
494.78	5.82
494.981	5.51
495.182	5.59
495.382	5.51
495.583	5.44
495.784	5.48
495.985	5.58
496.185	5.66
496.386	5.54
496.587	5.59
496.788	5.65
496.988	5.71
497.189	5.92
497.39	5.91
497.59	6.01
497.791	6.01
497.992	6.14
498.192	5.98
498.393	5.93
498.593	5.82
498.794	5.76
498.994	5.76
499.195	5.69
499.395	5.73
499.596	5.8
499.796	5.74
499.997	5.63
500.197	5.49
500.398	5.52
500.598	5.48
500.799	5.69
500.999	5.62
501.199	5.59
501.4	5.45
501.6	5.42
501.801	5.5
502.001	5.43
502.201	5.61
502.402	5.74
502.602	5.86
502.802	5.96
503.002	5.82
503.203	5.88
503.403	5.87
503.603	5.97
503.803	6.01
504.003	6.06
504.204	6.09
504.404	6.28
504.604	6.26
504.804	6.16
505.004	6.04
505.204	5.98
505.404	6.08
505.604	6.13
505.804	6.04
506.005	6.05
506.205	6.06
506.405	6.08
506.605	5.9
506.805	5.93
507.005	5.95
507.204	6.19
507.404	6.45
507.604	6.5
507.804	6.51
508.004	6.66
508.204	6.69
508.404	6.63
508.604	6.65
508.804	6.68
509.003	6.64
509.203	6.63
509.403	6.53
509.603	6.42
509.803	6.4
510.002	6.37
510.202	6.38
510.402	6.35
510.602	6.42
510.801	6.45
511.001	6.51
511.201	6.66
511.4	6.69
511.6	6.78
511.8	6.85
511.999	6.99
512.199	7.12
512.398	7.09
512.598	7.08
512.797	7.02
512.997	7.06
513.197	7.14
513.396	7.06
513.596	7.08
513.795	7.06
513.994	7.11
514.194	6.84
514.393	6.77
514.593	6.92
514.792	6.92
514.992	7.12
515.191	7.22
515.39	7.23
515.59	7.17
515.789	7.24
515.988	7.28
516.188	7.15
516.387	7.3
516.586	7.18
516.786	7.17
516.985	7.34
517.184	7.19
517.383	7.08
517.582	7.12
517.782	7.14
517.981	7.21
518.18	7.17
518.379	7.24
518.578	7.22
518.777	7.38
518.976	7.39
519.176	7.32
519.375	7.47
519.574	7.44
519.773	7.3
519.972	7.3
520.171	7.21
520.37	7.21
520.569	7.2
520.768	7.35
520.967	7.3
521.166	7.44
521.365	7.45
521.564	7.48
521.762	7.54
521.961	7.61
522.16	7.62
522.359	7.72
522.558	7.82
522.757	7.84
522.956	7.79
523.154	7.75
523.353	7.63
523.552	7.67
523.751	7.51
523.949	7.63
524.148	7.73
524.347	7.85
524.546	7.91
524.744	7.97
524.943	8.09
525.142	8.17
525.34	8.21
525.539	8.21
525.737	8.27
525.936	8.33
526.135	8.3
526.333	8.26
526.532	8.28
526.73	8.35
526.929	8.24
527.127	8.23
527.326	8.23
527.524	8.39
527.723	8.46
527.921	8.52
528.12	8.59
528.318	8.7
528.516	8.76
528.715	8.76
528.913	8.78
529.112	8.87
529.31	8.88
529.508	8.97
529.707	8.93
529.905	8.97
530.103	8.93
530.301	8.89
530.5	8.84
530.698	8.8
530.896	8.77
531.094	8.82
531.293	8.85
531.491	8.94
531.689	8.89
531.887	8.94
532.085	8.9
532.283	8.94
532.481	8.97
532.68	9.02
532.878	9.04
533.076	9.21
533.274	9.23
533.472	9.27
533.67	9.27
533.868	9.3
534.066	9.35
534.264	9.54
534.462	9.55
534.66	9.63
534.858	9.56
535.056	9.69
535.253	9.55
535.451	9.49
535.649	9.41
535.847	9.44
536.045	9.36
536.243	9.26
536.441	9.03
536.638	9.1
536.836	9.15
537.034	9.27
537.232	9.22
537.43	9.34
537.627	9.34
537.825	9.32
538.023	9.44
538.22	9.55
538.418	9.68
538.616	9.82
538.813	9.88
539.011	9.79
539.209	9.88
539.406	9.98
539.604	10.03
539.801	10.14
539.999	10.34
540.196	10.27
540.394	10.38
540.591	10.47
540.789	10.48
540.986	10.53
541.184	10.55
541.381	10.52
541.579	10.51
541.776	10.51
541.974	10.53
542.171	10.57
542.368	10.55
542.566	10.51
542.763	10.51
542.96	10.49
543.158	10.55
543.355	10.59
543.552	10.64
543.75	10.66
543.947	10.75
544.144	10.82
544.341	10.77
544.539	10.9
544.736	10.99
544.933	10.93
545.13	11.1
545.327	10.96
545.524	11
545.722	11.16
545.919	11.31
546.116	11.25
546.313	11.15
546.51	11.24
546.707	11.34
546.904	11.43
547.101	11.45
547.298	11.45
547.495	11.5
547.692	11.69
547.889	11.72
548.086	11.77
548.283	11.95
548.48	11.97
548.677	11.99
548.874	11.87
549.07	11.96
549.267	12.11
549.464	12.15
549.661	12.31
549.858	12.2
550.055	12.06
550.251	12.03
550.448	11.86
550.645	12.07
550.842	12.12
551.038	12.21
551.235	12.09
551.432	12.07
551.628	12.23
551.825	12.17
552.022	12.26
552.218	12.61
552.415	12.77
552.612	12.89
552.808	12.93
553.005	12.86
553.201	13.11
553.398	13.3
553.594	13.43
553.791	13.5
553.987	13.72
554.184	13.56
554.38	13.38
554.577	13.28
554.773	13.25
554.97	13.31
555.166	13.47
555.362	13.14
555.559	13.09
555.755	13.13
555.952	13.02
556.148	12.99
556.344	13.34
556.541	13.4
556.737	13.49
556.933	13.78
557.129	13.76
557.326	13.79
557.522	14.05
557.718	14.13
557.914	14
558.11	14.16
558.307	14.02
558.503	14.19
558.699	14.41
558.895	14.62
559.091	14.69
559.287	14.9
559.483	14.92
559.679	14.92
559.876	14.78
560.072	14.8
560.268	14.8
560.464	15.02
560.66	14.92
560.856	14.93
561.052	14.82
561.247	14.69
561.443	14.61
561.639	14.62
561.835	14.86
562.031	15.07
562.227	15.39
562.423	15.55
562.619	15.67
562.815	15.83
563.01	15.96
563.206	16.04
563.402	16.19
563.598	16.36
563.793	16.6
563.989	16.59
564.185	16.86
564.381	16.71
564.576	16.72
564.772	16.88
564.968	17.05
565.163	16.97
565.359	17.06
565.555	17.11
565.75	17.04
565.946	17.09
566.141	17.18
566.337	17.18
566.532	17.34
566.728	17.26
566.923	17.24
567.119	17.14
567.314	17.26
567.51	17.25
567.705	17.4
567.901	17.47
568.096	17.56
568.292	17.58
568.487	17.68
568.682	17.74
568.878	17.9
569.073	17.92
569.268	18.11
569.464	18.03
569.659	18.1
569.854	18.14
570.05	18.3
570.245	18.32
570.44	18.18
570.635	18.1
570.831	18.14
571.026	18.09
571.221	18.15
571.416	18.37
571.611	18.55
571.806	18.63
572.002	18.58
572.197	18.73
572.392	18.7
572.587	18.78
572.782	18.83
572.977	18.87
573.172	19.13
573.367	19.15
573.562	18.94
573.757	19
573.952	18.97
574.147	18.94
574.342	18.99
574.537	19.18
574.732	19.3
574.927	19.47
575.121	19.52
575.316	19.38
575.511	19.35
575.706	19.35
575.901	19.27
576.096	19.18
576.29	19.45
576.485	19.29
576.68	19.17
576.875	19.33
577.069	19.31
577.264	19.41
577.459	19.43
577.654	19.51
577.848	19.45
578.043	19.46
578.238	19.73
578.432	19.62
578.627	19.63
578.821	19.67
579.016	19.57
579.21	19.6
579.405	19.6
579.6	19.75
579.794	20.07
579.989	20.26
580.183	20.48
580.378	20.41
580.572	20.32
580.766	20.5
580.961	20.52
581.155	20.6
581.35	20.26
581.544	20.24
581.738	20.33
581.933	20.23
582.127	20.29
582.321	20.09
582.516	20.43
582.71	20.56
582.904	20.52
583.099	20.58
583.293	20.38
583.487	20.68
583.681	20.75
583.875	20.68
584.07	20.58
584.264	20.59
584.458	20.57
584.652	20.46
584.846	20.34
585.04	20.37
585.234	20.75
585.428	21
585.623	20.9
585.817	20.89
586.011	20.82
586.205	20.91
586.399	20.7
586.593	20.99
586.787	20.98
586.981	21.02
587.174	21.09
587.368	20.83
587.562	20.75
587.756	20.96
587.95	20.74
588.144	20.89
588.338	20.89
588.532	21.11
588.725	21.05
588.919	21.12
589.113	21.38
589.307	21.35
589.501	21.57
589.694	21.34
589.888	21.26
590.082	21.54
590.275	21.45
590.469	21.43
590.663	21.4
590.856	21.34
591.05	21.42
591.244	21.53
591.437	21.61
591.631	21.04
591.824	21.19
592.018	21.42
592.212	21.17
592.405	21.25
592.599	21.3
592.792	21.27
592.986	21.31
593.179	21.32
593.372	21.24
593.566	21
593.759	21.3
593.953	21.71
594.146	21.43
594.339	21.69
594.533	21.81
594.726	21.85
594.92	21.94
595.113	22.17
595.306	22.14
595.499	22.15
595.693	22.37
595.886	22.45
596.079	22.43
596.272	22.48
596.466	22.49
596.659	22.71
596.852	22.83
597.045	22.8
597.238	22.68
597.431	22.68
597.624	22.68
597.818	22.76
598.011	22.91
598.204	22.89
598.397	23.21
598.59	23.24
598.783	23.09
598.976	22.97
599.169	23.04
599.362	22.97
599.555	23.11
599.748	23.17
599.941	22.93
600.134	22.64
600.326	22.52
600.519	22.17
600.712	22.27
600.905	22.24
601.098	22.11
601.291	22.04
601.483	22.14
601.676	22.24
601.869	22.11
602.062	22.38
602.255	22.36
602.447	22.55
602.64	22.64
602.833	22.63
603.025	22.52
603.218	22.65
603.411	22.87
603.603	22.98
603.796	22.95
603.989	23.01
604.181	23.1
604.374	23.28
604.566	23.15
604.759	23.32
604.951	23.36
605.144	23.68
605.336	23.57
605.529	23.48
605.721	23.39
605.914	23.46
606.106	23.54
606.299	23.47
606.491	23.42
606.683	23.5
606.876	23.29
607.068	23.18
607.26	22.97
607.453	23.17
607.645	23.45
607.837	23.71
608.03	23.66
608.222	23.67
608.414	23.65
608.606	23.87
608.799	23.8
608.991	23.9
609.183	24.07
609.375	24.08
609.567	24.13
609.759	24
609.952	23.96
610.144	23.64
610.336	23.49
610.528	23.57
610.72	23.51
610.912	23.49
611.104	23.58
611.296	23.55
611.488	23.31
611.68	23.31
611.872	23.1
612.064	22.83
612.256	23.16
612.448	23.13
612.64	22.88
612.832	22.75
613.023	22.99
613.215	22.85
613.407	22.42
613.599	22.59
613.791	22.67
613.983	22.38
614.174	22.44
614.366	22.17
614.558	22.26
614.75	22.29
614.941	22.45
615.133	22.43
615.325	22.5
615.516	22.97
615.708	23.18
615.9	23.02
616.091	23.44
616.283	23.35
616.475	23.73
616.666	23.99
616.858	24
617.049	24.03
617.241	23.96
617.432	23.76
617.624	23.44
617.815	23.31
618.007	23.36
618.198	23.34
618.39	23.5
618.581	23.52
618.773	23.47
618.964	23.65
619.155	23.67
619.347	23.45
619.538	23.58
619.729	23.78
619.921	23.92
620.112	24.36
620.303	24.75
620.494	24.99
620.686	25.03
620.877	25
621.068	25.4
621.259	25.46
621.451	25.32
621.642	25.16
621.833	25.39
622.024	25.29
622.215	25.11
622.406	25.04
622.597	25.06
622.788	24.97
622.98	24.9
623.171	24.63
623.362	24.49
623.553	24.9
623.744	25.43
623.935	25.47
624.126	25.62
624.317	25.49
624.508	25.39
624.698	25.27
624.889	25.02
625.08	25.24
625.271	25.42
625.462	25.49
625.653	25.61
625.844	25.23
626.034	24.91
626.225	24.76
626.416	24.79
626.607	24.67
626.798	24.76
626.988	24.83
627.179	24.82
627.37	24.42
627.56	24.5
627.751	24.33
627.942	24.35
628.132	24.28
628.323	24.54
628.514	24.24
628.704	24.34
628.895	24.38
629.085	24.65
629.276	24.59
629.466	24.77
629.657	24.63
629.847	24.98
630.038	25.23
630.228	25.44
630.419	25.09
630.609	25.31
630.8	25.34
630.99	25.32
631.181	25.07
631.371	24.8
631.561	24.99
631.752	25.18
631.942	25.25
632.132	25.22
632.323	25.19
632.513	25.5
632.703	25.62
632.893	25.64
633.084	25.51
633.274	25.43
633.464	25.6
633.654	25.3
633.844	25.14
634.034	24.57
634.225	24.47
634.415	24.25
634.605	24.02
634.795	23.99
634.985	23.78
635.175	23.81
635.365	24.07
635.555	23.95
635.745	24.07
635.935	24.02
636.125	24.48
636.315	24.73
636.505	25.12
636.695	25.37
636.885	25.57
637.075	25.46
637.265	25.75
637.455	25.75
637.644	25.68
637.834	25.93
638.024	25.53
638.214	25.22
638.404	24.87
638.593	24.76
638.783	24.67
638.973	24.36
639.163	24.51
639.352	24.3
639.542	24.24
639.732	24.65
639.921	24.82
640.111	25.32
640.301	25.74
640.49	25.89
640.68	25.89
640.87	25.89
641.059	26.03
641.249	25.71
641.438	25.62
641.628	25.51
641.817	25.51
642.007	25.3
642.196	25.02
642.386	24.64
642.575	24.35
642.764	23.97
642.954	24.19
643.143	24.44
643.333	24.78
643.522	24.5
643.711	24.67
643.901	24.95
644.09	24.58
644.279	24.97
644.469	24.95
644.658	25.51
644.847	26.16
645.036	25.66
645.226	25.38
645.415	25.36
645.604	26
645.793	26.17
645.982	25.78
646.171	26.22
646.361	26.05
646.55	26.24
646.739	25.97
646.928	25.66
647.117	25.95
647.306	25.83
647.495	25.82
647.684	24.97
647.873	24.31
648.062	24.53
648.251	24.4
648.44	24.75
648.629	24.87
648.818	24.78
649.007	25.39
649.196	25.68
649.384	25.4
649.573	25.88
649.762	26.49
649.951	27.03
650.14	27.04
650.328	27
650.517	26.85
650.706	26.48
650.895	26.29
651.083	25.95
651.272	25.35
651.461	25.8
651.65	25.36
651.838	25.31
652.027	24.84
652.216	24.54
652.404	24.33
652.593	23.97
652.781	23.97
652.97	24.43
653.158	24.2
653.347	24.35
653.535	24.2
653.724	24.13
653.912	24.15
654.101	24.66
654.289	24.7
654.478	24.86
654.666	25.2
654.855	25.08
655.043	24.73
655.231	24.87
655.42	24.95
655.608	25.15
655.796	25.39
655.985	25.1
656.173	25.02
656.361	25.81
656.55	25.98
656.738	26.06
656.926	26.28
657.114	26.4
657.302	26.24
657.491	26.7
657.679	27.05
657.867	27.02
658.055	27.55
658.243	27.84
658.431	27.3
658.619	26.89
658.807	26.86
658.996	26.97
659.184	26.83
659.372	26.94
659.56	26.81
659.748	26.37
659.936	26.26
660.124	26.4
660.311	26.14
660.499	26.11
660.687	26.79
660.875	26.77
661.063	26.95
661.251	27.22
661.439	27.24
661.627	27.39
661.814	27.62
662.002	27.89
662.19	27.33
662.378	27.03
662.565	27.01
662.753	26.26
662.941	26.32
663.129	25.95
663.316	25.71
663.504	25.5
663.692	24.93
663.879	24.91
664.067	24.8
664.254	24.63
664.442	24.4
664.63	24.26
664.817	24.73
665.005	24.4
665.192	24.56
665.38	24.79
665.567	24.84
665.755	25.01
665.942	25.1
666.13	25.15
666.317	25.67
666.504	26.51
666.692	26.6
666.879	26.06
667.067	26.51
667.254	26.2
667.441	25.84
667.629	26.6
667.816	26.55
668.003	26.58
668.19	27
668.378	26.89
668.565	26
668.752	26.07
668.939	26.5
669.127	26.41
669.314	26.65
669.501	26.66
669.688	26.1
669.875	26.11
670.062	25.66
670.249	25.36
670.436	25.36
670.623	25.75
670.81	25.34
670.997	25.23
671.184	24.5
671.371	24.54
671.558	25.15
671.745	25.5
671.932	25.08
672.119	25.11
672.306	24.77
672.493	24.96
672.68	25.16
672.867	25.52
673.054	25.29
673.24	25.96
673.427	25.88
673.614	25.8
673.801	25.14
673.988	25.42
674.174	25.71
674.361	25.9
674.548	25.74
674.734	25.82
674.921	26.31
675.108	26.47
675.294	26.19
675.481	25.98
675.668	25.68
675.854	26.1
676.041	26.1
676.227	25.73
676.414	25.98
676.601	25.56
676.787	25.68
676.974	25.42
677.16	25.65
677.347	25.97
677.533	26.37
677.719	26.47
677.906	26.47
678.092	26.13
678.279	26.34
678.465	25.83
678.651	26.55
678.838	26.76
679.024	26.64
679.21	26.73
679.397	26.46
679.583	26.68
679.769	26.7
679.955	26.78
680.142	27.2
680.328	27.2
680.514	27.78
680.7	27.16
680.886	26.77
681.073	27
681.259	26.64
681.445	27.24
681.631	27.32
681.817	27.5
682.003	27.22
682.189	27.39
682.375	27.47
682.561	27.68
682.747	27.96
682.933	28.05
683.119	28.22
683.305	28.81
683.491	28.36
683.677	28.13
683.863	28.11
684.049	28.22
684.235	28.38
684.42	28.43
684.606	28.24
684.792	28.2
684.978	28.15
685.164	28.03
685.349	27.86
685.535	27.43
685.721	27.46
685.907	27.26
686.092	27.8
686.278	26.92
686.464	26.88
686.649	26.33
686.835	26.5
687.021	26.8
687.206	25.91
687.392	25.73
687.577	26.58
687.763	26.6
687.948	26.48
688.134	26.68
688.319	27.75
688.505	28.01
688.69	28.33
688.876	27.98
689.061	27.47
689.247	28
689.432	28.53
689.618	27.95
689.803	27.67
689.988	27.43
690.174	26.76
690.359	26.62
690.544	26.31
690.73	26.43
690.915	26.63
691.1	26.87
691.285	27.39
691.471	26.54
691.656	27.05
691.841	27.7
692.026	27.8
692.211	27.82
692.396	26.77
692.582	26.7
692.767	26.23
692.952	26.03
693.137	26.2
693.322	25.44
693.507	25.56
693.692	24.62
693.877	23.68
694.062	23.99
694.247	23.89
694.432	25.14
694.617	24.96
694.802	24.67
694.987	25.01
695.172	24.89
695.357	25.24
695.541	25.52
695.726	26.63
695.911	26.79
696.096	27.44
696.281	28.13
696.466	27.45
696.65	28.07
696.835	28.13
697.02	28.18
697.204	28.68
697.389	28.64
697.574	28.25
697.759	28.44
697.943	29.03
698.128	28.82
698.312	28.68
698.497	28.91
698.682	28.79
698.866	29.68
699.051	29.31
699.235	28.78
699.42	28.79
699.604	28.99
699.789	28.41
699.973	28
700.158	27.82
700.342	28.1
700.527	27.71
700.711	27.51
700.895	26.62
701.08	27.42
701.264	27.5
701.448	27.5
701.633	27.27
701.817	27.11
702.001	27.15
702.186	26.43
702.37	25.57
702.554	26.04
702.738	26.89
702.923	26.8
703.107	25.56
703.291	25.73
703.475	26.01
703.659	26.61
703.843	26.67
704.027	26.25
704.212	26.83
704.396	27.29
704.58	27.87
704.764	27.33
704.948	27.6
705.132	27.75
705.316	28.29
705.5	28.93
705.684	28.46
705.868	29.16
706.052	29.08
706.235	29.2
706.419	28.51
706.603	28.14
706.787	27.75
706.971	27.77
707.155	27.95
707.339	27.44
707.522	26.67
707.706	27.22
707.89	26.93
708.074	27.51
708.257	27.46
708.441	27.95
708.625	27.78
708.808	28.44
708.992	28.57
709.176	28.42
709.359	28.99
709.543	29.12
709.727	29.29
709.91	29.55
710.094	29.09
710.277	29.34
710.461	29.08
710.644	29.44
710.828	28.7
711.011	28.96
711.195	28.72
711.378	28.37
711.562	27.88
711.745	27.68
711.928	27.52
712.112	28.05
712.295	27.53
712.478	27.57
712.662	27.34
712.845	27.54
713.028	26.64
713.212	27.95
713.395	27.65
713.578	27.66
713.761	27.16
713.945	26.82
714.128	26.95
714.311	27.05
714.494	27.16
714.677	27.28
714.86	27.79
715.043	28.19
715.227	27.16
715.41	27.47
715.593	27.83
715.776	28.03
715.959	28.5
716.142	28.43
716.325	28.78
716.508	28.71
716.691	28.62
716.874	28.36
717.057	28.23
717.239	29.37
717.422	28.17
717.605	27.58
717.788	28.01
717.971	27.66
718.154	27.67
718.337	27.89
718.519	27.79
718.702	27.18
718.885	27
719.068	27.59
719.25	26.53
719.433	27.06
719.616	26.95
719.798	26.37
719.981	26.27
720.164	24.91
720.346	23.47
720.529	22.96
720.712	23.66
720.894	23.41
721.077	23.01
721.259	23.89
721.442	24.76
721.624	25.72
721.807	25.98
721.989	26.29
722.172	27.27
722.354	27.73
722.537	29.5
722.719	28.78
722.901	29.76
723.084	29.81
723.266	28.91
723.448	29.7
723.631	29.44
723.813	29.63
723.995	29.58
724.178	29.92
724.36	31.19
724.542	29.01
724.724	29.09
724.907	28.29
725.089	28.57
725.271	27.68
725.453	27.61
725.635	27.63
725.817	27.39
725.999	27.53
726.181	27.85
726.364	27.2
726.546	27.5
726.728	28.16
726.91	27.95
727.092	26.27
727.274	26.61
727.456	25.68
727.638	25.79
727.819	26.05
728.001	25.95
728.183	25.54
728.365	25.82
728.547	26.41
728.729	26.57
728.911	27.25
729.093	28.66
729.274	29.29
729.456	28.48
729.638	27.89
729.82	27.91
730.001	27.3
730.183	26.05
730.365	25.73
730.546	25.95
730.728	25.47
730.91	25.37
731.091	25.96
731.273	25.82
731.455	26.59
731.636	27.39
731.818	27.47
731.999	28.28
732.181	29.45
732.362	29.32
732.544	29.82
732.725	29.13
732.907	28.7
733.088	27.81
733.27	28.32
733.451	28.19
733.633	27.33
733.814	27.6
733.995	27.68
734.177	26.99
734.358	26.81
734.539	25.55
734.721	26.53
734.902	26.53
735.083	26.44
735.264	25.61
735.446	26.58
735.627	26.77
735.808	26
735.989	24.41
736.17	25.93
736.351	25.79
736.533	25.88
736.714	25.24
736.895	25.49
737.076	25.17
737.257	26.01
737.438	24.6
737.619	25.1
737.8	24.98
737.981	27.81
738.162	26.93
738.343	26.98
738.524	27.3
738.705	27.61
738.886	27.36
739.067	28.77
739.247	29.02
739.428	29.63
739.609	29.29
739.79	29.76
739.971	26.39
740.151	26.74
740.332	26.82
740.513	27.68
740.694	27.3
740.874	27.02
741.055	25.98
741.236	25.13
741.417	23.25
741.597	22.93
741.778	21.5
741.958	22.36
742.139	22.42
742.32	22.66
742.5	23.11
742.681	22.36
742.861	22.7
743.042	22.99
743.222	22.59
743.403	23.92
743.583	25.78
743.764	27
743.944	27.4
744.124	26.6
744.305	26.93
744.485	25.66
744.666	25.17
744.846	25.17
745.026	26.63
745.207	27.59
745.387	28.83
745.567	27.59
745.747	27.68
745.928	27.97
746.108	28.04
746.288	27.81
746.468	29.17
746.648	30.89
746.829	30.48
747.009	28.65
747.189	27.77
747.369	27.93
747.549	27.73
747.729	27.89
747.909	27.4
748.089	26.84
748.269	25.79
748.449	24.2
748.629	24.38
748.809	25.4
748.989	25.53
749.169	24.9
749.349	24.5
749.529	24.64
749.709	25.02
749.889	24.74
750.068	23.96
750.248	24.55
750.428	24.3
750.608	23.35
750.788	21.44
750.967	21.95
751.147	22.84
751.327	22.84
751.507	22.69
751.686	20.36
751.866	21.7
752.046	23.57
752.225	23.39
752.405	23.37
752.585	24.64
752.764	26.73
752.944	25.46
753.123	24.95
753.303	22.86
753.482	22.79
753.662	24.07
753.841	23.38
754.021	22.45
754.2	22.75
754.38	23.62
754.559	22.92
754.739	22.22
754.918	23.27
755.097	23.18
755.277	25.25
755.456	25.73
755.635	25.67
755.815	25.48
755.994	25.08
756.173	25.61
756.352	25.2
756.532	25.08
756.711	25.37
756.89	25
757.069	25.85
757.248	25.38
757.427	26.05
757.607	27.08
757.786	26.96
757.965	27.34
758.144	26.75
758.323	26.25
758.502	26.34
758.681	25.76
758.86	25.78
759.039	24.73
759.218	25.36
759.397	24.08
759.576	22.93
759.755	23.42
759.934	23.59
760.113	24.27
760.291	24.23
760.47	25.6
760.649	25.93
760.828	26.77
761.007	26.66
761.186	26.98
761.364	27.56
761.543	27.5
761.722	27.15
761.901	27.68
762.079	27.15
762.258	27.82
762.437	27.23
762.615	26.93
762.794	27.03
762.972	27.28
763.151	26.86
763.33	26.61
763.508	26.6
763.687	27.5
763.865	26.38
764.044	26.59
764.222	27.05
764.401	27.07
764.579	27.04
764.758	26.03
764.936	26.96
765.114	26.31
765.293	26.71
765.471	26.62
765.65	24.79
765.828	26.15
766.006	25.73
766.184	24.22
766.363	23.95
766.541	23.65
766.719	23.68
766.898	22.79
767.076	22.81
767.254	22.82
767.432	23.74
767.61	23.9
767.788	22.99
767.967	22.55
768.145	22.51
768.323	21.69
768.501	23.04
768.679	22.6
768.857	22.81
769.035	23.68
769.213	23.58
769.391	22.27
769.569	24.29
769.747	24
769.925	23.42
770.103	25.44
770.281	26.04
770.459	24.66
770.636	25.99
770.814	26.39
770.992	27.48
771.17	26.38
771.348	26.79
771.525	25.21
771.703	25.02
771.881	27.05
772.059	24.3
772.236	23.58
772.414	22.87
772.592	22.78
772.769	22.23
772.947	20.49
773.125	18.12
773.302	18.15
773.48	20.24
773.657	22.25
773.835	21.74
774.013	22.58
774.19	23.25
774.368	23.57
774.545	22.5
774.723	22.28
774.9	23.2
775.077	25.43
775.255	25.72
775.432	23.68
775.61	24.68
775.787	23.88
775.964	23.03
776.142	23.05
776.319	25.36
776.496	26.73
776.674	27.26
776.851	26.16
777.028	27.53
777.205	27.08
777.382	26.83
777.56	23.02
777.737	24.54
777.914	27.15
778.091	27.27
778.268	25.23
778.445	25.92
778.622	24.21
778.8	25.77
778.977	23.53
779.154	24.57
779.331	26.12
779.508	28.16
779.685	28.18
779.862	25.7
780.038	27.17
780.215	26.52
780.392	26.38
780.569	28.17
780.746	25.51
780.923	25.81
781.1	24.22
781.277	25.01
781.453	25.43
781.63	25.11
781.807	24.8
781.984	22.5
782.16	24.51
782.337	26.82
782.514	25.39
782.691	28.86
782.867	29.98
783.044	31.07
783.221	28.84
783.397	28.25
783.574	27.43
783.75	31.34
783.927	32.72
784.103	28.55
784.28	24.28
784.456	24.89
784.633	20.08
784.809	18.21
784.986	17.14
785.162	19.9
785.339	21.64
785.515	22.02
785.692	22.4
785.868	24.65
786.044	26.15
786.221	26.74
786.397	25.75
786.573	28.65
786.749	29.38
786.926	30.27
787.102	27.63
787.278	25.34
787.454	21.73
787.631	19.94
787.807	16.23
787.983	15.98
788.159	16.91
788.335	17.93
788.511	17.95
788.687	17.4
788.863	16.82
789.039	18.1
789.216	18.73
789.392	19.67
789.568	16.66
789.744	18.08
789.919	18.92
790.095	14.72
790.271	14.1
790.447	11.26
790.623	13.22
790.799	14.34
790.975	13.74
791.151	13.42
791.327	15.22
791.502	17.22
791.678	18.54
791.854	22.27
792.03	24.8
792.205	24.57
792.381	25.19
792.557	24.48
792.733	22.35
792.908	23.46
793.084	26.78
793.259	26.16
793.435	25.57
793.611	21.89
793.786	19.3
793.962	20.11
794.137	18.18
794.313	19.06
794.488	18.93
794.664	22.49
794.839	20.19
795.015	15.79
795.19	15.76
795.366	19.71
795.541	20.74
795.716	20.48
795.892	20.73
796.067	21.61
796.242	22.74
796.418	23.71
796.593	20.71
796.768	21.35
796.944	23.11
797.119	23.99
797.294	23.22
797.469	23.68
797.644	23.2
797.82	21.74
797.995	22.62
798.17	22.03
798.345	21.85
798.52	22.75
798.695	24.38
798.87	25.35
799.045	24.64
799.22	22.61
799.395	22.45
799.57	23.92
799.745	25.74
799.92	25.39
800.095	28.51
800.27	24.75
800.445	24.26
800.62	25.68
800.795	25.96
800.97	26.41
801.145	23.18
801.319	23.14
801.494	21.85
801.669	22.13
801.844	23.78
802.018	18.43
802.193	23.98
802.368	25.47
802.543	21.01
802.717	19.02
802.892	22.5
803.067	25.82
803.241	24.52
803.416	22.69
803.59	25.13
803.765	25.41
803.94	29.27
804.114	28.79
804.289	31.35
804.463	30.42
804.638	26.69
804.812	24.48
804.986	25.8
805.161	28.3
805.335	28.27
805.51	26.12
805.684	26.53
805.858	24.13
806.033	24.44
806.207	22.43
806.381	23.43
806.556	27.83
806.73	23.63
806.904	20.74
807.078	16.69
807.253	20.65
807.427	12.66
807.601	12.38
807.775	12.64
807.949	5.81
808.123	0.42
808.298	7.19
808.472	4.07
808.646	11.58
808.82	7.49
808.994	7.77
809.168	6.33
809.342	16.64
809.516	15.28
809.69	12.62
809.864	22.62
810.038	25.08
810.212	24.68
810.385	25.47
810.559	20.19
810.733	27.7
810.907	31.25
811.081	28.66
811.255	26.69
811.428	27.58
811.602	28.98
811.776	23.36
811.95	22.44
812.123	21.27
812.297	25.2
812.471	24.2
812.644	22.07
812.818	25.45
812.992	27.73
813.165	32.75
813.339	35.19
813.512	32.22
813.686	35.17
813.86	30.03
814.033	30.41
814.207	27.61
814.38	29.47
814.554	31.24
814.727	29.45
814.9	28.03
815.074	23.06
815.247	16.62
815.421	18.64
815.594	20.13
815.767	25.71
815.941	20.76
816.114	20.16
816.287	21.18
816.46	15.38
816.634	15.17
816.807	12.17
816.98	14.78
817.153	21.85
817.327	27.13
817.5	23.97
817.673	23.86
817.846	22.49
818.019	21.85
818.192	23.91
818.365	27.2
818.538	22.54
818.711	29.34
818.884	27.76
819.057	25.89
819.23	25.36
819.403	24.91
819.576	25.06
819.749	26.21
819.922	26.83
820.095	26.63
820.268	28.05
820.441	26.7
820.614	25.15
820.786	23.75
820.959	23.47
821.132	23.55
821.305	24.26
821.477	25.55
821.65	26.07
821.823	26.84
821.996	27.24
822.168	27.07
822.341	28.3
822.514	28.29
822.686	28.64
822.859	28.21
823.031	28.03
823.204	27.79
823.376	26.77
823.549	26.58
823.722	27.02
823.894	26.61
824.067	25.66
824.239	25.49
824.411	25.47
824.584	25.16
824.756	25.1
824.929	24.5
825.101	24.88
825.273	27.17
825.446	26.88
825.618	25.86
825.79	26
825.963	26.93
826.135	26.67
826.307	27.63
826.479	28.58
826.652	29.49
826.824	30.67
826.996	29.52
827.168	28.23
827.34	28.44
827.512	29.51
827.684	29.36
827.856	28.45
828.029	28.47
828.201	26.92
828.373	25.58
828.545	24.54
828.717	24.62
828.889	25.97
829.061	26.24
829.232	27.71
829.404	25.82
829.576	26.44
829.748	26.97
829.92	25.68
830.092	25.7
830.264	28.51
830.436	27.3
830.607	25.77
830.779	23.05
830.951	21.61
831.123	19.56
831.294	16.39
831.466	13.92
831.638	14.54
831.809	16.51
831.981	14.89
832.153	10.1
832.324	7.01
832.496	8.73
832.667	9.92
832.839	9.79
833.011	11.31
833.182	15.31
833.354	13.52
833.525	18.05
833.697	14.57
833.868	19.09
834.039	19.98
834.211	23.79
834.382	25.77
834.554	26.06
834.725	28.11
834.896	28.64
835.068	24.63
835.239	26.61
835.41	23.44
835.581	27.88
835.753	25.14
835.924	25.12
836.095	26.2
836.266	25.32
836.438	26.1
836.609	24.31
836.78	21.62
836.951	27.82
837.122	25.53
837.293	24.54
837.464	23.07
837.635	26.13
837.806	27.04
837.977	27.53
838.148	25.67
838.319	20.53
838.49	18.05
838.661	22.38
838.832	25.66
839.003	23.3
839.174	32.06
839.345	35.27
839.516	33.02
839.687	38.58
839.857	35.53
840.028	24.6
840.199	28.69
840.37	27.73
840.54	26.13
840.711	26.24
840.882	33.03
841.053	26.66
841.223	19.76
841.394	15.19
841.564	6.18
841.735	1.7
841.906	13.13
842.076	13.42
842.247	12.03
842.417	5.17
842.588	2.23
842.758	5.28
842.929	13.47
843.099	19.55
843.27	28.21
843.44	35.44
843.611	42.2
843.781	39.58
843.951	29.47
844.122	39.03
844.292	38.2
844.462	39.03
844.633	30.26
844.803	26.67
844.973	25.29
845.144	15.04
845.314	11.79
845.484	7.61
845.654	-2.87
845.824	-1.38
845.995	-7.82
846.165	-5.7
846.335	-20.18
846.505	-29.09
846.675	-35.43
846.845	-45.8
847.015	-18.54
847.185	-21.96
847.355	-11.2
847.525	-1.16
847.695	-5.86
847.865	-19.99
848.035	-18.26
848.205	-24.32
848.375	-37.72
848.545	-35.58
848.715	-36.34
848.884	-57.65
849.054	-62.15
849.224	-72.65
849.394	-75.83
849.564	-51.91
849.733	-49.01
849.903	-55.86
850.073	-101.14
850.243	-70.98
850.412	-65.23
850.582	-61.4
850.752	-68.53
850.921	-76.34
851.091	-64.53
851.26	-138.2
851.43	-74.82
851.599	-313.32
851.769	-1261.14
851.939	-369.82
852.108	-2313.99
852.278	785.18
852.447	1466.43
852.616	335.32
852.786	1754.66
852.955	-1044.07
853.125	-463.24
853.294	-597.22
853.463	-297.24
853.633	-100.09
853.802	-34.94
853.971	9.64
854.141	28.86
854.31	23.68
854.479	32.03
854.648	44.13
854.818	50.05
854.987	63.94
855.156	53.31
855.325	50.34
855.494	49.16
855.663	36.39
855.832	28.25
856.001	13.12
856.171	14.73
856.34	-2.71
856.509	-8.16
856.678	-7.64
856.847	-22.78
857.016	-12.04
857.185	2.68
857.353	-3.73
857.522	-14.88
857.691	0.54
857.86	13.54
858.029	17.75
858.198	28.5
858.367	45.01
858.535	40.13
858.704	53.91
858.873	57.25
859.042	38.61
859.21	82.31
859.379	98.19
859.548	89.23
859.717	84.65
859.885	72.43
860.054	53.7
860.222	44.78
860.391	43.91
860.56	42.31
860.728	51.96
860.897	45.87
861.065	8.91
861.234	-0.77
861.402	5.9
861.571	-11.53
861.739	14.28
861.908	22.25
862.076	8.03
862.244	11
862.413	6.19
862.581	11.67
862.749	10.01
862.918	22.03
863.086	31
863.254	21.01
863.423	20.23
863.591	24.57
863.759	20.98
863.927	24.47
864.096	22.51
864.264	17.9
864.432	-13.43
864.6	0.85
864.768	12.96
864.936	6.4
865.104	11.18
865.272	18.09
865.44	26.01
865.608	32.18
865.776	53.27
865.944	37.45
866.112	40.32
866.28	65.78
866.448	65.4
866.616	131.79
866.784	172.58
866.952	115.3
867.12	85.08
867.288	46.01
867.455	4.64
867.623	-8.78
867.791	12.17
867.959	-13.47
868.127	-35.48
868.294	-95.78
868.462	-64.9
868.63	-94.96
868.797	-80.05
868.965	-59.32
869.133	-28.8
869.3	-27.27
869.468	-34.03
869.636	-49.21
869.803	-47.72
869.971	-38.84
870.138	-12.85
870.306	-15.84
870.473	-64.11
870.641	-11.5
870.808	-34.59
870.975	-92.64
871.143	-151.85
871.31	-154.4
871.478	-165.47
871.645	-196.97
871.812	-208.68
871.98	-119.77
872.147	-161.55
872.314	-89.45
872.482	-172.99
872.649	-101.17
872.816	-86.94
872.983	-43.97
873.15	-66.65
873.318	-157.98
873.485	-126.34
873.652	-139.96
873.819	-839.38
873.986	-221.07
874.153	1513.68
874.32	557.78
874.487	922.55
874.654	4383.92
874.821	2979.64
874.988	-746.3
875.155	-146.37
875.322	-140.47
875.489	-94.5
875.656	-117.49
875.823	-227.62
875.99	-236.36
876.157	-57.72
876.324	-116.65
876.49	-64.04
876.657	-7.61
876.824	-30.13
876.991	-27.02
877.157	-24.5
877.324	-38.89
877.491	-26.7
877.658	-25.54
877.824	2.16
877.991	-33.36
878.157	-10.1
878.324	-37.28
878.491	-128.46
878.657	-45.26
878.824	-77.9
878.99	-44.66
879.157	-53.1
879.323	-48.63
879.49	-19.34
879.656	-109.76
879.823	-59.55
879.989	-125.61
880.156	-137.91
880.322	-116.1
880.488	-249.78
880.655	-385.06
880.821	-115.98
880.987	-53
881.154	-48.97
881.32	-32.46
881.486	-16.82
881.652	-14.58
881.819	4.48
881.985	12.97
882.151	24.74
882.317	30.1
882.483	33.86
882.649	34.39
882.816	31.29
882.982	33.8
883.148	33.05
883.314	31.06
883.48	31.31
883.646	29.43
883.812	31.27
883.978	32.32
884.144	33.69
884.31	34.73
884.476	30.86
884.642	29.65
884.807	25.36
884.973	23.24
885.139	23.88
885.305	22.18
885.471	25.84
885.637	21.66
885.802	18.37
885.968	17.36
886.134	13.71
886.3	14.32
886.465	12.03
886.631	11.74
886.797	15.07
886.962	12.21
887.128	14.5
887.293	5.14
887.459	14.01
887.625	10.35
887.79	6.42
887.956	0.97
888.121	-1.94
888.287	1.49
888.452	13.01
888.618	9.1
888.783	16.16
