Data from 2937855_Reflection_1.txt Node
Date: Wed Jul 15 15:43:23 EDT 2015
User: robert
Spectrometer: USB4E03001
Autoset integration time: false
Trigger mode: 4
Integration Time (sec): 1.000000E-1
Scans to average: 10
Electric dark correction enabled: true
Nonlinearity correction enabled: false
Boxcar width: 5
Stray light correction enabled: false
XAxis mode: Wavelengths
Stop averaging: false
Number of Pixels in Spectrum: 3648
>>>>>Begin Spectral Data<<<<<
177.566	-163.61
177.785	-2682.86
178.005	221.37
178.225	191.01
178.445	395.92
178.665	354.12
178.885	-17.75
179.105	-431.47
179.324	1523.46
179.544	-765.85
179.764	-3305
179.984	478.19
180.204	519.21
180.423	137.35
180.643	146.9
180.863	173.21
181.083	167.56
181.302	146.52
181.522	177.9
181.742	196.67
181.961	156.15
182.181	108.46
182.401	145.46
182.621	100.61
182.84	122.76
183.06	121.74
183.279	118.85
183.499	120.96
183.719	100.55
183.938	58.63
184.158	55.81
184.377	82.09
184.597	289.04
184.816	203.12
185.036	169.82
185.256	366.3
185.475	259.99
185.695	250.44
185.914	322.07
186.134	257.84
186.353	455.93
186.572	1516.16
186.792	439.84
187.011	392.73
187.231	226.99
187.45	261.95
187.67	359.1
187.889	428.7
188.108	642.41
188.328	431.27
188.547	698.45
188.766	44718.18
188.986	1131.91
189.205	412.14
189.424	246.27
189.644	304.37
189.863	419.94
190.082	370.7
190.302	452.23
190.521	238.08
190.74	266.62
190.959	222.99
191.178	125.63
191.398	118.02
191.617	178.95
191.836	388.05
192.055	-262.46
192.274	-179.32
192.494	547.57
192.713	148.55
192.932	105.1
193.151	81.79
193.37	92.41
193.589	109.59
193.808	111.93
194.027	57.66
194.246	58.47
194.465	67.48
194.685	56.81
194.904	97.83
195.123	500.55
195.342	-582
195.561	-140.17
195.78	-65.5
195.999	-9.06
196.218	69.13
196.436	35.83
196.655	-4570.59
196.874	48.98
197.093	52.21
197.312	55.53
197.531	150.48
197.75	31.82
197.969	-56.32
198.188	-84.14
198.407	-41.3
198.625	7.9
198.844	-19.05
199.063	-6.95
199.282	-5.2
199.501	-64.55
199.719	-79.65
199.938	-145.43
200.157	-110.87
200.376	-22.38
200.594	-31.48
200.813	-119.3
201.032	215.85
201.251	271.9
201.469	7374.32
201.688	431.57
201.907	416.15
202.125	156.17
202.344	157.92
202.563	133.96
202.781	76.68
203	164.84
203.218	130.64
203.437	1550.23
203.656	845.51
203.874	86.56
204.093	74.88
204.311	187.66
204.53	378.64
204.748	213.51
204.967	119.26
205.185	81.3
205.404	72.89
205.622	76
205.841	51.41
206.059	47.55
206.278	54.18
206.496	78.2
206.715	27.78
206.933	-8.25
207.151	66.08
207.37	-32.57
207.588	-164.27
207.806	-131.92
208.025	-198.68
208.243	-218.57
208.461	992.44
208.68	454.28
208.898	-1266.14
209.116	-339.49
209.335	320.65
209.553	236.09
209.771	222.88
209.989	410.93
210.208	669.61
210.426	-2921.01
210.644	-209.64
210.862	-126.13
211.081	-288.62
211.299	-985.75
211.517	-419.67
211.735	-159.48
211.953	-30.31
212.171	-5.28
212.39	8.35
212.608	-15.73
212.826	-70.2
213.044	-317.94
213.262	1531.41
213.48	-56.42
213.698	-210.32
213.916	-1760.56
214.134	-469.66
214.352	-5347.93
214.57	759.85
214.788	765.4
215.006	795.86
215.224	-1305.03
215.442	160.05
215.66	98.72
215.878	99.17
216.096	57.6
216.314	984.06
216.532	81.72
216.75	98.65
216.968	108.84
217.185	117.65
217.403	148.51
217.621	107.28
217.839	123.31
218.057	144.34
218.275	136.56
218.492	155.98
218.71	123.26
218.928	92.68
219.146	125.68
219.363	90.55
219.581	43.85
219.799	103.91
220.017	-1973.91
220.234	-22.96
220.452	-64.37
220.67	-677.82
220.887	-680.64
221.105	-2956.72
221.323	-426.96
221.54	811.6
221.758	543.83
221.976	341.17
222.193	287.41
222.411	228.54
222.629	152.28
222.846	84.01
223.064	77.1
223.281	77.37
223.499	57.07
223.716	37.26
223.934	24.89
224.151	54.61
224.369	46.34
224.586	31.12
224.804	12.13
225.021	4.05
225.239	52.7
225.456	31.87
225.674	15.65
225.891	96.67
226.108	107.22
226.326	46.61
226.543	22.95
226.76	5.79
226.978	2.31
227.195	10.43
227.413	12.64
227.63	21.13
227.847	27.32
228.064	34.38
228.282	32.28
228.499	36.08
228.716	28.52
228.934	25.36
229.151	26.87
229.368	26.84
229.585	28.02
229.802	29.48
230.02	23.63
230.237	21.37
230.454	19.38
230.671	22.32
230.888	21.45
231.105	23.06
231.323	22.98
231.54	19.78
231.757	23.43
231.974	24.53
232.191	23
232.408	29.79
232.625	32.35
232.842	31.14
233.059	33.03
233.276	33.81
233.493	33.37
233.71	41.79
233.927	42.58
234.144	42.61
234.361	36.74
234.578	38.65
234.795	39.55
235.012	39.7
235.229	38.73
235.446	35.84
235.663	35.86
235.879	42.31
236.096	35.96
236.313	38.96
236.53	33.23
236.747	35.14
236.964	30.51
237.181	30.17
237.397	24.61
237.614	25.83
237.831	31.08
238.048	26.91
238.264	21.69
238.481	24.59
238.698	22.82
238.915	27.98
239.131	32.22
239.348	35.15
239.565	31.95
239.781	31.89
239.998	34.46
240.215	30.23
240.431	30.03
240.648	30.04
240.865	25.95
241.081	26.54
241.298	23.36
241.514	23.54
241.731	24.7
241.947	22.23
242.164	20.78
242.38	20.63
242.597	23.29
242.814	22.49
243.03	23.17
243.246	24.32
243.463	24.04
243.679	24.27
243.896	23.82
244.112	22.73
244.329	25.04
244.545	28.68
244.762	27.83
244.978	25.72
245.194	25.56
245.411	23.68
245.627	22.67
245.843	23.2
246.06	23.02
246.276	22
246.492	22.22
246.709	22.9
246.925	21.46
247.141	20.87
247.357	20.1
247.574	20.05
247.79	19.94
248.006	19.74
248.222	19.16
248.439	19.26
248.655	19.27
248.871	17.23
249.087	17.2
249.303	15.92
249.519	16.03
249.736	17.59
249.952	16.7
250.168	18.2
250.384	18.12
250.6	20.29
250.816	19.1
251.032	19.46
251.248	23.54
251.464	22.74
251.68	24.68
251.896	25.29
252.112	22.78
252.328	24.47
252.544	23.18
252.76	23.65
252.976	23.65
253.192	24.77
253.408	25.91
253.624	26.29
253.84	25.43
254.056	25.35
254.272	24.71
254.487	24.88
254.703	23.16
254.919	21.24
255.135	19.81
255.351	14.2
255.567	13.66
255.782	13.38
255.998	10.01
256.214	8.78
256.43	11.57
256.646	14.33
256.861	17.27
257.077	17.91
257.293	19.08
257.508	20.7
257.724	20.99
257.94	20.3
258.155	18.01
258.371	16.79
258.587	16.01
258.802	13.96
259.018	12.81
259.234	12.22
259.449	12.8
259.665	13.2
259.88	13.76
260.096	14.14
260.312	13.15
260.527	13.25
260.743	13.83
260.958	14.46
261.174	15.84
261.389	15.39
261.605	15.9
261.82	16.18
262.036	15.59
262.251	15.21
262.466	14.91
262.682	17.42
262.897	18.85
263.113	19.19
263.328	20.07
263.543	17.45
263.759	19.39
263.974	18.89
264.189	19.42
264.405	20.06
264.62	21.38
264.835	20.35
265.051	18.72
265.266	16.22
265.481	16.94
265.696	17.12
265.912	18.66
266.127	17.79
266.342	16.19
266.557	16.36
266.773	16.46
266.988	14.74
267.203	15.02
267.418	15.01
267.633	15.72
267.848	15.05
268.064	13.2
268.279	14.36
268.494	15.08
268.709	15.19
268.924	13.39
269.139	15.38
269.354	14.43
269.569	15.97
269.784	16.47
269.999	16.22
270.214	17.77
270.429	18.76
270.644	16.9
270.859	15.88
271.074	17.09
271.289	18.14
271.504	16.88
271.719	18.22
271.934	16.44
272.149	15.71
272.363	15.76
272.578	14.77
272.793	15.31
273.008	15.51
273.223	16.07
273.438	16.58
273.653	15.82
273.867	15.27
274.082	15.01
274.297	16.54
274.512	18.32
274.726	18.62
274.941	16.51
275.156	16.25
275.371	16.95
275.585	18.2
275.8	18.15
276.015	18.07
276.229	17.03
276.444	16.67
276.659	17.12
276.873	15.59
277.088	15.69
277.302	18.72
277.517	17.66
277.732	17.79
277.946	17.78
278.161	16.18
278.375	16.63
278.59	18.55
278.804	17.75
279.019	14.72
279.233	14.78
279.448	15.62
279.662	14.13
279.877	13.1
280.091	13.5
280.306	12.96
280.52	12.34
280.735	12.77
280.949	12.17
281.163	13.14
281.378	14.73
281.592	14.62
281.806	12.97
282.021	13.46
282.235	14.69
282.449	13.78
282.664	13.05
282.878	14.78
283.092	15.58
283.307	17.4
283.521	17.6
283.735	18.11
283.949	18.03
284.164	19.85
284.378	19.39
284.592	19.32
284.806	18.92
285.02	20.81
285.234	19.71
285.449	17.51
285.663	16.1
285.877	15.87
286.091	15.92
286.305	16.46
286.519	15.41
286.733	16.17
286.947	17.07
287.161	18.49
287.375	17.07
287.589	17.81
287.803	19.44
288.017	20.08
288.231	20.34
288.445	20.51
288.659	20.74
288.873	22.09
289.087	20.83
289.301	19.83
289.515	19.96
289.729	20.22
289.943	19.62
290.157	19.35
290.371	19.23
290.584	19.01
290.798	18.2
291.012	18.81
291.226	17.24
291.44	18.11
291.654	18.88
291.867	19.42
292.081	18.43
292.295	19.09
292.509	19.11
292.722	19.87
292.936	20.06
293.15	19.82
293.364	18.73
293.577	19.02
293.791	19
294.005	19.45
294.218	17.12
294.432	19.32
294.645	19.49
294.859	18.92
295.073	19.04
295.286	18.72
295.5	19.45
295.713	20.63
295.927	20.86
296.14	20.58
296.354	20.09
296.568	21.31
296.781	19.62
296.994	19.34
297.208	20.78
297.421	19.23
297.635	19.93
297.848	19.19
298.062	18.91
298.275	19.26
298.489	19.82
298.702	19.35
298.915	18.3
299.129	19.45
299.342	19.26
299.555	18.11
299.769	19.39
299.982	20.96
300.195	22.35
300.409	22.02
300.622	20.74
300.835	21.55
301.048	22.46
301.262	24.25
301.475	23.99
301.688	26.37
301.901	27.36
302.115	27.27
302.328	25.13
302.541	26.08
302.754	25.35
302.967	26.15
303.18	26.31
303.393	25.14
303.607	24.56
303.82	24.31
304.033	23.3
304.246	23.47
304.459	24.92
304.672	25.12
304.885	23.61
305.098	24.39
305.311	25.51
305.524	24.67
305.737	24.37
305.95	24.25
306.163	24.35
306.376	23.33
306.589	23.09
306.802	22.78
307.015	23.04
307.228	24.41
307.44	24.31
307.653	24.83
307.866	24.59
308.079	26.18
308.292	24.8
308.505	24.72
308.718	23.88
308.93	23.17
309.143	22.52
309.356	22.18
309.569	21.47
309.781	21.68
309.994	20.13
310.207	19.97
310.42	19.99
310.632	20.08
310.845	19.85
311.058	22.01
311.27	22.24
311.483	22.66
311.696	22.93
311.908	23.08
312.121	22.89
312.333	24.99
312.546	25.73
312.759	25.06
312.971	26.41
313.184	25.46
313.396	22.78
313.609	22.51
313.821	22.31
314.034	22.14
314.246	21.83
314.459	22.05
314.671	21.91
314.884	20.17
315.096	21.72
315.309	21.98
315.521	22.51
315.733	24.05
315.946	24.72
316.158	24.06
316.371	24.3
316.583	25.83
316.795	25.43
317.008	24.71
317.22	26.1
317.432	24.93
317.644	24.23
317.857	23.2
318.069	21.84
318.281	20.79
318.494	22.4
318.706	22.7
318.918	20.02
319.13	20.72
319.342	19.68
319.555	19.4
319.767	19.57
319.979	18.79
320.191	21.01
320.403	22.54
320.615	22.73
320.827	20.46
321.039	20.43
321.252	21.19
321.464	22.44
321.676	23.6
321.888	22.62
322.1	21.39
322.312	21.19
322.524	20.5
322.736	21.56
322.948	22.25
323.16	21.97
323.372	20.9
323.584	21.81
323.796	21.95
324.007	20.5
324.219	21.48
324.431	22.36
324.643	23.19
324.855	22.65
325.067	22.22
325.279	22.04
325.491	22.05
325.702	21.79
325.914	21.41
326.126	19.52
326.338	21.25
326.55	21.1
326.761	19.34
326.973	19.64
327.185	20.38
327.396	20.41
327.608	21.34
327.82	21.7
328.032	23.15
328.243	23.29
328.455	23.25
328.666	22.13
328.878	21.87
329.09	23.8
329.301	22.8
329.513	22.69
329.725	23.73
329.936	22.44
330.148	23.29
330.359	21.74
330.571	21.68
330.782	23.2
330.994	23.45
331.205	22.76
331.417	23.08
331.628	24.39
331.84	25.54
332.051	24.51
332.262	24.81
332.474	24.13
332.685	25.75
332.897	25.71
333.108	25.04
333.319	24.75
333.531	25.81
333.742	25.81
333.953	24.67
334.165	23.6
334.376	23.67
334.587	22.35
334.799	23.71
335.01	22.82
335.221	22.19
335.432	21.79
335.644	21.22
335.855	21.52
336.066	23.31
336.277	23.3
336.488	24.07
336.7	23.92
336.911	23.86
337.122	21.83
337.333	23.08
337.544	24.88
337.755	24.08
337.966	23.52
338.177	22.51
338.388	21.3
338.599	22.43
338.811	21.56
339.022	21.2
339.233	22.28
339.444	23.73
339.655	23.22
339.866	21.95
340.076	23.38
340.287	24.2
340.498	25.56
340.709	24.92
340.92	23.56
341.131	23.55
341.342	23.03
341.553	23.91
341.764	23.64
341.975	23.91
342.185	23.81
342.396	23.92
342.607	23.95
342.818	23.85
343.029	23.9
343.239	24.18
343.45	24.21
343.661	24.85
343.872	25.38
344.082	25.84
344.293	24.73
344.504	23.81
344.714	23.5
344.925	24.43
345.136	23.69
345.346	23.19
345.557	23.09
345.768	23.18
345.978	22.89
346.189	20.97
346.399	21.66
346.61	21.68
346.821	23.13
347.031	22.18
347.242	22.42
347.452	22.43
347.663	22.63
347.873	24.35
348.084	25.01
348.294	25.26
348.504	24.86
348.715	23.71
348.925	24.52
349.136	24.1
349.346	24.03
349.557	22.3
349.767	23.21
349.977	23.89
350.188	23.09
350.398	22.19
350.608	22.62
350.819	23.18
351.029	22.19
351.239	21.71
351.449	21.47
351.66	22.6
351.87	23.05
352.08	22.83
352.29	22.98
352.501	21.05
352.711	21.52
352.921	21.24
353.131	21.22
353.341	22.68
353.552	21.89
353.762	22.36
353.972	21.99
354.182	21.45
354.392	20.9
354.602	21.88
354.812	22.54
355.022	22.67
355.232	23.03
355.442	24.37
355.652	22.91
355.862	23.12
356.072	22.2
356.282	22.33
356.492	23.22
356.702	22.46
356.912	21.11
357.122	22.09
357.332	22.12
357.542	22.04
357.752	20.86
357.962	20.66
358.171	20.98
358.381	20.63
358.591	20.17
358.801	19.99
359.011	20.43
359.221	20.67
359.43	20.14
359.64	19.82
359.85	19.02
360.06	18.66
360.269	19.02
360.479	19.14
360.689	19.47
360.899	20.43
361.108	19.84
361.318	20.05
361.528	20.36
361.737	19.58
361.947	19.91
362.156	19.87
362.366	20.07
362.576	20.02
362.785	20.23
362.995	19.88
363.204	19.02
363.414	18.42
363.623	18.31
363.833	17.61
364.042	18
364.252	17.44
364.461	17.71
364.671	18.71
364.88	18.92
365.09	18.95
365.299	19.82
365.509	20.33
365.718	20.72
365.927	20.51
366.137	19.91
366.346	20.54
366.555	19.8
366.765	19.19
366.974	19.19
367.183	18.35
367.393	17.31
367.602	16.36
367.811	16.22
368.021	16.36
368.23	16.49
368.439	16.7
368.648	15.91
368.857	16.44
369.067	17.05
369.276	15.8
369.485	16.99
369.694	16.58
369.903	17.03
370.112	16.06
370.321	15.9
370.531	14.83
370.74	14.53
370.949	14.55
371.158	14.69
371.367	14.31
371.576	14.69
371.785	13.98
371.994	14.9
372.203	14.98
372.412	15.41
372.621	16.17
372.83	17.51
373.039	17.42
373.248	16.97
373.457	16.26
373.666	15.66
373.874	15.7
374.083	16.49
374.292	16.15
374.501	16.72
374.71	16.52
374.919	16.29
375.128	15.79
375.336	15.84
375.545	15.84
375.754	16.21
375.963	17.07
376.171	17.29
376.38	17.19
376.589	16.66
376.798	15.92
377.006	16.14
377.215	15.91
377.424	16.19
377.632	16.42
377.841	16.12
378.05	15.99
378.258	15.39
378.467	15.44
378.675	14.62
378.884	15.16
379.093	14.75
379.301	14.42
379.51	14.01
379.718	13.84
379.927	13.34
380.135	13.89
380.344	14.33
380.552	14.65
380.761	14.3
380.969	14.8
381.177	14.33
381.386	14.91
381.594	14.83
381.803	15.19
382.011	14.29
382.219	14.68
382.428	14.85
382.636	14.53
382.845	14.41
383.053	13.9
383.261	13.52
383.469	13.74
383.678	13.54
383.886	13.91
384.094	14.15
384.302	14.2
384.511	13.87
384.719	13.4
384.927	13.52
385.135	13.41
385.343	13.63
385.552	13.72
385.76	13.31
385.968	13.06
386.176	12.63
386.384	12.01
386.592	12.48
386.8	12.34
387.008	12.12
387.216	11.83
387.424	11.65
387.633	11.52
387.841	11.65
388.049	11.76
388.257	11.67
388.465	11.51
388.672	11.56
388.88	11.53
389.088	11.68
389.296	11.77
389.504	11.52
389.712	11.33
389.92	10.8
390.128	10.19
390.336	10.15
390.544	10.25
390.751	10.4
390.959	10.39
391.167	10.14
391.375	10.08
391.583	10.18
391.79	10.19
391.998	10.28
392.206	10.62
392.414	10.85
392.621	10.8
392.829	10.73
393.037	10.62
393.244	10.79
393.452	10.99
393.66	10.91
393.867	10.68
394.075	10.64
394.283	10.6
394.49	10.57
394.698	10.6
394.905	10.72
395.113	10.64
395.32	10.41
395.528	10.27
395.735	9.84
395.943	9.74
396.15	10.03
396.358	10.09
396.565	9.97
396.773	9.94
396.98	10.01
397.188	9.65
397.395	9.74
397.602	10.11
397.81	9.99
398.017	10.62
398.225	10.83
398.432	10.35
398.639	10.43
398.847	10.54
399.054	10.56
399.261	10.22
399.468	10.36
399.676	10.26
399.883	10.04
400.09	10.26
400.297	9.45
400.505	9.37
400.712	9.71
400.919	9.71
401.126	10.01
401.333	9.87
401.54	10.29
401.748	10.12
401.955	10.17
402.162	10.1
402.369	9.66
402.576	10.3
402.783	10.33
402.99	10.19
403.197	9.95
403.404	9.66
403.611	9.54
403.818	9.48
404.025	9.47
404.232	9.45
404.439	9.49
404.646	9.85
404.853	9.53
405.06	9.36
405.267	9.33
405.474	9.51
405.681	9.5
405.887	9.5
406.094	9.21
406.301	9.41
406.508	9.52
406.715	9.58
406.922	9.4
407.128	9.2
407.335	9
407.542	8.91
407.749	8.76
407.955	8.48
408.162	8.88
408.369	8.84
408.575	8.5
408.782	8.4
408.989	8.6
409.195	8.45
409.402	8.68
409.609	8.88
409.815	8.88
410.022	8.95
410.228	9.14
410.435	8.77
410.642	8.92
410.848	9.32
411.055	9.46
411.261	9.32
411.468	9.31
411.674	9.26
411.881	9.35
412.087	9.5
412.294	9.62
412.5	9.66
412.706	9.52
412.913	9.61
413.119	9.33
413.326	9.48
413.532	9.54
413.738	9.68
413.945	9.81
414.151	9.79
414.357	9.68
414.564	9.28
414.77	9.35
414.976	9.63
415.182	9.5
415.389	9.68
415.595	9.25
415.801	9.12
416.007	9.06
416.214	8.76
416.42	8.67
416.626	8.85
416.832	9.12
417.038	9.14
417.244	9.19
417.45	9.44
417.657	9.31
417.863	9.35
418.069	9.55
418.275	9.25
418.481	9.39
418.687	9.54
418.893	9.29
419.099	9.26
419.305	9.25
419.511	9.1
419.717	8.88
419.923	8.9
420.129	8.82
420.335	8.65
420.541	8.84
420.746	8.83
420.952	8.87
421.158	8.99
421.364	8.96
421.57	8.81
421.776	8.84
421.982	8.91
422.187	8.99
422.393	9.04
422.599	9.11
422.805	9.22
423.01	9.2
423.216	9.05
423.422	9.08
423.628	9.09
423.833	9.24
424.039	9.23
424.245	9.14
424.45	9.02
424.656	9.06
424.862	8.95
425.067	8.82
425.273	8.71
425.478	8.63
425.684	8.49
425.889	8.41
426.095	8.29
426.301	8.25
426.506	8.36
426.712	8.49
426.917	8.46
427.123	8.51
427.328	8.51
427.533	8.69
427.739	8.79
427.944	8.83
428.15	8.98
428.355	9.01
428.561	9.28
428.766	9.16
428.971	8.89
429.177	8.99
429.382	9.02
429.587	9.09
429.793	8.95
429.998	9.08
430.203	9.2
430.408	9.1
430.614	9.19
430.819	9.01
431.024	8.86
431.229	9.07
431.434	9.08
431.64	8.88
431.845	8.58
432.05	8.69
432.255	8.78
432.46	8.76
432.665	8.88
432.87	8.66
433.076	8.71
433.281	8.82
433.486	8.93
433.691	8.75
433.896	8.83
434.101	9.02
434.306	8.94
434.511	8.94
434.716	9.02
434.921	9
435.126	8.92
435.331	8.84
435.535	8.74
435.74	8.74
435.945	8.78
436.15	8.8
436.355	8.72
436.56	8.84
436.765	8.61
436.97	8.58
437.174	8.51
437.379	8.84
437.584	8.78
437.789	8.83
437.993	8.7
438.198	8.64
438.403	8.62
438.608	8.76
438.812	8.81
439.017	8.76
439.222	8.75
439.426	8.6
439.631	8.43
439.836	8.46
440.04	8.52
440.245	8.49
440.45	8.56
440.654	8.53
440.859	8.39
441.063	8.22
441.268	8.33
441.472	8.32
441.677	8.5
441.881	8.56
442.086	8.7
442.29	8.73
442.495	8.68
442.699	8.47
442.904	8.44
443.108	8.6
443.312	8.81
443.517	8.71
443.721	8.61
443.925	8.47
444.13	8.39
444.334	8.21
444.538	8.23
444.743	8.22
444.947	8.35
445.151	8.41
445.356	8.39
445.56	8.2
445.764	8.17
445.968	8.22
446.173	8.24
446.377	8.44
446.581	8.43
446.785	8.36
446.989	8.36
447.193	8.43
447.398	8.41
447.602	8.2
447.806	8.37
448.01	8.39
448.214	8.44
448.418	8.57
448.622	8.54
448.826	8.78
449.03	8.75
449.234	8.9
449.438	9.01
449.642	8.98
449.846	9.35
450.05	9.22
450.254	9.26
450.458	9.29
450.662	9.13
450.866	9.01
451.069	8.81
451.273	8.77
451.477	8.55
451.681	8.44
451.885	8.67
452.089	8.61
452.292	8.64
452.496	8.65
452.7	8.66
452.904	8.71
453.107	8.72
453.311	8.63
453.515	8.86
453.719	9.11
453.922	9.04
454.126	8.98
454.33	8.98
454.533	9.19
454.737	9.13
454.94	9.05
455.144	9.1
455.348	9
455.551	8.89
455.755	8.86
455.958	8.87
456.162	8.87
456.365	9
456.569	9.1
456.772	8.61
456.976	8.69
457.179	8.6
457.383	8.55
457.586	8.57
457.79	8.78
457.993	8.59
458.196	8.49
458.4	8.51
458.603	8.21
458.807	8.17
459.01	8.49
459.213	8.36
459.417	8.34
459.62	8.31
459.823	8.32
460.026	8.33
460.23	8.45
460.433	8.48
460.636	8.46
460.839	8.59
461.042	8.56
461.246	8.31
461.449	8.45
461.652	8.58
461.855	8.61
462.058	8.62
462.261	8.64
462.464	8.63
462.668	8.67
462.871	8.82
463.074	8.97
463.277	8.84
463.48	9.13
463.683	9.16
463.886	9.2
464.089	9.04
464.292	9.1
464.495	8.99
464.698	8.8
464.901	8.58
465.104	8.4
465.306	8.06
465.509	8.01
465.712	7.72
465.915	7.58
466.118	7.56
466.321	7.71
466.524	7.62
466.726	7.46
466.929	7.49
467.132	7.57
467.335	7.63
467.538	7.73
467.74	7.85
467.943	8.08
468.146	8.13
468.348	8.14
468.551	8.18
468.754	8.13
468.956	8.16
469.159	8.22
469.362	8.21
469.564	8.17
469.767	8.3
469.969	8.29
470.172	8.26
470.375	8.33
470.577	8.29
470.78	8.05
470.982	8.29
471.185	8.41
471.387	8.58
471.59	8.45
471.792	8.44
471.995	8.18
472.197	8.22
472.399	8.21
472.602	8.21
472.804	8.09
473.007	8.06
473.209	7.98
473.411	7.94
473.614	7.81
473.816	7.93
474.018	8.03
474.22	8.25
474.423	8.27
474.625	8.23
474.827	8.16
475.03	8.22
475.232	8.29
475.434	8.36
475.636	8.5
475.838	8.59
476.04	8.48
476.243	8.62
476.445	8.6
476.647	8.56
476.849	8.69
477.051	8.81
477.253	8.75
477.455	8.87
477.657	8.74
477.859	8.68
478.061	8.68
478.263	8.63
478.465	8.43
478.667	8.43
478.869	8.53
479.071	8.44
479.273	8.37
479.475	8.31
479.677	8.26
479.879	8.28
480.081	8.3
480.283	8.26
480.485	8.21
480.686	8.17
480.888	8.09
481.09	8.05
481.292	7.82
481.494	7.74
481.695	7.66
481.897	7.66
482.099	7.7
482.301	7.58
482.502	7.58
482.704	7.7
482.906	7.69
483.107	7.79
483.309	7.75
483.511	7.83
483.712	7.92
483.914	7.98
484.115	8
484.317	8.03
484.519	8.06
484.72	8.03
484.922	8.02
485.123	8.04
485.325	8
485.526	8.06
485.728	8.08
485.929	8.04
486.131	8.01
486.332	8.01
486.534	7.97
486.735	8.03
486.936	8.04
487.138	8.04
487.339	8.07
487.541	8.04
487.742	8.04
487.943	8.05
488.144	7.98
488.346	8.02
488.547	8.02
488.748	8.03
488.95	7.98
489.151	8.02
489.352	8.01
489.553	8
489.755	8.06
489.956	7.97
490.157	7.89
490.358	7.98
490.559	8.05
490.76	8.18
490.961	8.16
491.163	8.21
491.364	8.2
491.565	8.22
491.766	8.29
491.967	8.18
492.168	8.19
492.369	8.26
492.57	8.26
492.771	8.27
492.972	8.19
493.173	8.16
493.374	8.13
493.575	8.16
493.776	8.16
493.976	7.99
494.177	8.13
494.378	8.23
494.579	8.31
494.78	8.3
494.981	8.06
495.182	7.98
495.382	8.02
495.583	8.14
495.784	8.16
495.985	8.07
496.185	8.21
496.386	8.22
496.587	8.16
496.788	8.19
496.988	8.16
497.189	8.47
497.39	8.58
497.59	8.51
497.791	8.48
497.992	8.42
498.192	8.61
498.393	8.67
498.593	8.75
498.794	8.82
498.994	8.74
499.195	8.78
499.395	8.65
499.596	8.6
499.796	8.66
499.997	8.72
500.197	8.75
500.398	8.69
500.598	8.54
500.799	8.51
500.999	8.53
501.199	8.62
501.4	8.8
501.6	8.62
501.801	8.56
502.001	8.57
502.201	8.52
502.402	8.66
502.602	8.79
502.802	8.82
503.002	8.65
503.203	8.65
503.403	8.75
503.603	8.65
503.803	8.91
504.003	8.92
504.204	8.97
504.404	8.84
504.604	8.79
504.804	8.79
505.004	8.79
505.204	9
505.404	9.05
505.604	9.03
505.804	9.03
506.005	8.91
506.205	9.11
506.405	9.19
506.605	9.33
506.805	9.36
507.005	9.45
507.204	9.51
507.404	9.62
507.604	9.55
507.804	9.54
508.004	9.52
508.204	9.51
508.404	9.38
508.604	9.25
508.804	9.37
509.003	9.32
509.203	9.3
509.403	9.18
509.603	9.06
509.803	9.15
510.002	9.19
510.202	9.37
510.402	9.41
510.602	9.34
510.801	9.45
511.001	9.37
511.201	9.47
511.4	9.28
511.6	9.5
511.8	9.47
511.999	9.5
512.199	9.4
512.398	9.34
512.598	9.47
512.797	9.77
512.997	9.67
513.197	9.6
513.396	9.62
513.596	9.73
513.795	9.59
513.994	9.67
514.194	9.68
514.393	9.71
514.593	9.76
514.792	9.75
514.992	9.73
515.191	9.89
515.39	9.98
515.59	9.94
515.789	9.93
515.988	10.15
516.188	10.26
516.387	10.29
516.586	10.41
516.786	10.2
516.985	10.15
517.184	10
517.383	9.96
517.582	9.89
517.782	9.9
517.981	10.01
518.18	9.98
518.379	9.89
518.578	9.78
518.777	9.68
518.976	9.72
519.176	9.77
519.375	9.91
519.574	9.94
519.773	10.1
519.972	10.21
520.171	10.2
520.37	10.22
520.569	10.27
520.768	10.44
520.967	10.55
521.166	10.63
521.365	10.72
521.564	10.8
521.762	10.82
521.961	10.89
522.16	10.87
522.359	10.98
522.558	11.02
522.757	10.93
522.956	10.96
523.154	11.07
523.353	11.12
523.552	11.2
523.751	11.04
523.949	11.03
524.148	10.93
524.347	10.97
524.546	10.77
524.744	10.72
524.943	10.9
525.142	10.83
525.34	10.77
525.539	10.97
525.737	10.94
525.936	10.96
526.135	10.97
526.333	11.12
526.532	11.03
526.73	11.2
526.929	11.27
527.127	11.21
527.326	11.3
527.524	11.4
527.723	11.33
527.921	11.28
528.12	11.35
528.318	11.44
528.516	11.46
528.715	11.53
528.913	11.55
529.112	11.61
529.31	11.64
529.508	11.62
529.707	11.59
529.905	11.67
530.103	11.75
530.301	11.75
530.5	11.77
530.698	11.73
530.896	11.78
531.094	11.84
531.293	11.84
531.491	12.03
531.689	12.17
531.887	12.24
532.085	12.22
532.283	12.27
532.481	12.4
532.68	12.43
532.878	12.41
533.076	12.46
533.274	12.5
533.472	12.49
533.67	12.45
533.868	12.44
534.066	12.54
534.264	12.57
534.462	12.58
534.66	12.58
534.858	12.67
535.056	12.77
535.253	12.82
535.451	12.75
535.649	12.8
535.847	12.82
536.045	12.87
536.243	12.79
536.441	12.86
536.638	12.88
536.836	12.96
537.034	12.96
537.232	13.02
537.43	13.08
537.627	13.17
537.825	13.25
538.023	13.34
538.22	13.41
538.418	13.62
538.616	13.6
538.813	13.79
539.011	13.79
539.209	13.76
539.406	14.01
539.604	14
539.801	13.95
539.999	14.1
540.196	14.05
540.394	14.12
540.591	14.13
540.789	14.19
540.986	14.28
541.184	14.35
541.381	14.47
541.579	14.34
541.776	14.34
541.974	14.49
542.171	14.34
542.368	14.43
542.566	14.49
542.763	14.57
542.96	14.52
543.158	14.41
543.355	14.48
543.552	14.47
543.75	14.65
543.947	14.8
544.144	14.8
544.341	15.04
544.539	15.05
544.736	15.02
544.933	14.97
545.13	15.17
545.327	15.35
545.524	15.33
545.722	15.39
545.919	15.42
546.116	15.44
546.313	15.52
546.51	15.53
546.707	15.6
546.904	15.62
547.101	15.82
547.298	15.96
547.495	16.01
547.692	16.17
547.889	16.3
548.086	16.28
548.283	16.45
548.48	16.5
548.677	16.58
548.874	16.77
549.07	17.01
549.267	16.9
549.464	16.61
549.661	16.69
549.858	16.75
550.055	16.87
550.251	17.06
550.448	17.04
550.645	17.31
550.842	17.57
551.038	17.77
551.235	17.78
551.432	17.88
551.628	18.26
551.825	18.44
552.022	18.42
552.218	18.29
552.415	18.27
552.612	18.39
552.808	18.34
553.005	18.34
553.201	18.24
553.398	18.37
553.594	18.66
553.791	18.82
553.987	18.86
554.184	19.02
554.38	19.31
554.577	19.52
554.773	19.35
554.97	19.39
555.166	19.42
555.362	19.55
555.559	19.51
555.755	19.65
555.952	19.5
556.148	19.54
556.344	19.43
556.541	19.3
556.737	19.19
556.933	19.38
557.129	19.48
557.326	19.64
557.522	19.65
557.718	19.68
557.914	19.34
558.11	19.51
558.307	19.42
558.503	19.66
558.699	19.86
558.895	19.93
559.091	20.19
559.287	20.11
559.483	20.21
559.679	20.4
559.876	20.57
560.072	20.56
560.268	20.64
560.464	20.86
560.66	20.71
560.856	20.86
561.052	21.03
561.247	21.05
561.443	21.39
561.639	21.33
561.835	21.43
562.031	21.45
562.227	21.73
562.423	21.98
562.619	22.05
562.815	22.04
563.01	22.2
563.206	22.1
563.402	22.08
563.598	21.91
563.793	22.09
563.989	22.05
564.185	22.07
564.381	22.04
564.576	21.98
564.772	22.06
564.968	22.32
565.163	22.18
565.359	22.36
565.555	22.46
565.75	22.69
565.946	22.73
566.141	22.8
566.337	22.78
566.532	23
566.728	23.1
566.923	23.18
567.119	23.33
567.314	23.38
567.51	23.41
567.705	23.53
567.901	23.5
568.096	23.47
568.292	23.48
568.487	23.77
568.682	23.7
568.878	23.73
569.073	23.72
569.268	23.91
569.464	24.18
569.659	24.39
569.854	24.47
570.05	24.5
570.245	24.53
570.44	24.69
570.635	24.8
570.831	24.97
571.026	25.27
571.221	25.2
571.416	24.99
571.611	24.8
571.806	24.86
572.002	24.8
572.197	24.9
572.392	24.99
572.587	24.96
572.782	24.93
572.977	24.97
573.172	24.75
573.367	24.84
573.562	24.96
573.757	24.95
573.952	25.01
574.147	24.99
574.342	25.11
574.537	25.34
574.732	25.4
574.927	25.46
575.121	25.46
575.316	25.52
575.511	25.55
575.706	25.7
575.901	26.04
576.096	25.96
576.29	26.16
576.485	26.25
576.68	26.15
576.875	26.25
577.069	26.15
577.264	26.26
577.459	26.25
577.654	26.42
577.848	26.47
578.043	26.58
578.238	26.74
578.432	26.8
578.627	26.81
578.821	27.09
579.016	27.27
579.21	27.39
579.405	27.31
579.6	27.71
579.794	27.71
579.989	27.49
580.183	27.1
580.378	27.14
580.572	27.06
580.766	27.06
580.961	27.12
581.155	26.96
581.35	27.15
581.544	27.19
581.738	27.17
581.933	27.15
582.127	27.39
582.321	27.9
582.516	27.95
582.71	28.29
582.904	28.27
583.099	28.06
583.293	28.09
583.487	27.85
583.681	27.68
583.875	27.53
584.07	27.64
584.264	27.24
584.458	27.07
584.652	27.08
584.846	26.84
585.04	27.15
585.234	27.17
585.428	27.32
585.623	27.71
585.817	27.99
586.011	28.23
586.205	28.17
586.399	28.69
586.593	28.77
586.787	28.75
586.981	28.76
587.174	28.59
587.368	28.73
587.562	28.58
587.756	28.66
587.95	28.74
588.144	28.62
588.338	28.68
588.532	28.76
588.725	28.66
588.919	28.57
589.113	28.69
589.307	28.69
589.501	28.79
589.694	28.83
589.888	28.62
590.082	28.66
590.275	28.6
590.469	28.87
590.663	28.78
590.856	28.68
591.05	28.73
591.244	28.82
591.437	28.74
591.631	28.61
591.824	28.82
592.018	29.05
592.212	28.85
592.405	29.02
592.599	29.07
592.792	29.15
592.986	29.26
593.179	29.37
593.372	29.28
593.566	29.47
593.759	29.48
593.953	29.41
594.146	29.12
594.339	29.29
594.533	29.65
594.726	29.5
594.92	29.44
595.113	29.62
595.306	29.82
595.499	29.86
595.693	29.86
595.886	29.81
596.079	29.78
596.272	30.02
596.466	30.31
596.659	30.02
596.852	29.78
597.045	29.77
597.238	29.67
597.431	29.4
597.624	29.52
597.818	29.58
598.011	29.49
598.204	29.42
598.397	29.59
598.59	29.3
598.783	29.26
598.976	29.63
599.169	29.6
599.362	29.9
599.555	30.32
599.748	30.44
599.941	30.48
600.134	30.97
600.326	31.2
600.519	30.87
600.712	30.98
600.905	31.12
601.098	31.03
601.291	31.13
601.483	31.05
601.676	30.89
601.869	30.8
602.062	30.62
602.255	30.28
602.447	30.35
602.64	30.53
602.833	30.52
603.025	30.39
603.218	30.36
603.411	30.52
603.603	30.39
603.796	30.45
603.989	30.46
604.181	30.56
604.374	30.55
604.566	30.57
604.759	30.67
604.951	30.86
605.144	30.81
605.336	31.01
605.529	30.91
605.721	31.01
605.914	31.06
606.106	31.06
606.299	31.04
606.491	31
606.683	30.91
606.876	30.84
607.068	30.44
607.26	30.59
607.453	30.5
607.645	30.46
607.837	30.47
608.03	30.48
608.222	30.42
608.414	30.58
608.606	30.82
608.799	31.03
608.991	31.16
609.183	31.29
609.375	31.42
609.567	31.38
609.759	31.6
609.952	31.65
610.144	31.59
610.336	31.62
610.528	31.72
610.72	31.59
610.912	31.49
611.104	31.45
611.296	31.58
611.488	31.35
611.68	31.34
611.872	31.45
612.064	31.23
612.256	31.41
612.448	31.51
612.64	31.24
612.832	31.44
613.023	31.55
613.215	31.49
613.407	31.55
613.599	31.9
613.791	31.89
613.983	31.89
614.174	32.17
614.366	31.86
614.558	32.01
614.75	32.26
614.941	32.26
615.133	32.21
615.325	32.54
615.516	32.61
615.708	32.53
615.9	32.62
616.091	32.62
616.283	32.56
616.475	32.45
616.666	32.14
616.858	32
617.049	31.79
617.241	31.98
617.432	31.79
617.624	31.95
617.815	31.76
618.007	31.84
618.198	31.84
618.39	32.25
618.581	32.48
618.773	32.9
618.964	33.36
619.155	33.82
619.347	33.73
619.538	33.52
619.729	32.91
619.921	33.16
620.112	33.1
620.303	32.92
620.494	32.46
620.686	32.41
620.877	32.31
621.068	31.7
621.259	31.8
621.451	32.1
621.642	32.21
621.833	32.65
622.024	32.84
622.215	32.97
622.406	32.97
622.597	33.21
622.788	33.47
622.98	33.49
623.171	33.83
623.362	33.71
623.553	33.32
623.744	33.18
623.935	33.28
624.126	33.1
624.317	32.86
624.508	32.86
624.698	32.62
624.889	32.42
625.08	32.69
625.271	32.79
625.462	32.91
625.653	32.8
625.844	33.16
626.034	33.18
626.225	33.12
626.416	33.11
626.607	33.34
626.798	33.55
626.988	33.83
627.179	33.73
627.37	33.75
627.56	33.39
627.751	33.46
627.942	33.42
628.132	33.12
628.323	33.16
628.514	33.48
628.704	33.24
628.895	33.28
629.085	33.34
629.276	33.38
629.466	33
629.657	33.36
629.847	33.45
630.038	33.28
630.228	33.5
630.419	33.33
630.609	33.31
630.8	33.65
630.99	33.47
631.181	33.26
631.371	32.81
631.561	33.21
631.752	33
631.942	32.99
632.132	32.97
632.323	32.91
632.513	33.22
632.703	32.89
632.893	32.63
633.084	32.39
633.274	32.57
633.464	33.08
633.654	33.04
633.844	33.26
634.034	33.32
634.225	33.46
634.415	33.63
634.605	33.46
634.795	33.58
634.985	33.59
635.175	33.88
635.365	33.77
635.555	33.57
635.745	33.8
635.935	33.74
636.125	33.76
636.315	33.62
636.505	33.88
636.695	34.05
636.885	34.22
637.075	34.28
637.265	34.52
637.455	34.41
637.644	34.59
637.834	34.55
638.024	34.38
638.214	34.51
638.404	34.88
638.593	34.76
638.783	34.81
638.973	34.78
639.163	35.03
639.352	34.94
639.542	35.31
639.732	35.45
639.921	35.25
640.111	35.7
640.301	35.71
640.49	35.64
640.68	35.56
640.87	35.46
641.059	35.29
641.249	35.15
641.438	35.44
641.628	34.85
641.817	34.44
642.007	34.33
642.196	34
642.386	33.93
642.575	34.11
642.764	33.95
642.954	34.26
643.143	34.35
643.333	34.49
643.522	34.03
643.711	34.2
643.901	33.86
644.09	34.05
644.279	34.13
644.469	34.43
644.658	34.03
644.847	34.35
645.036	34.37
645.226	34.41
645.415	34.07
645.604	34.1
645.793	34.6
645.982	35.06
646.171	34.74
646.361	34.57
646.55	34.23
646.739	34.62
646.928	34.39
647.117	34.15
647.306	34
647.495	34.45
647.684	34.63
647.873	34.4
648.062	34.69
648.251	35.13
648.44	35.42
648.629	35.38
648.818	35.39
649.007	35.48
649.196	35.69
649.384	35.82
649.573	35.55
649.762	35.58
649.951	35.5
650.14	35.47
650.328	35.41
650.517	35.49
650.706	35.81
650.895	35.43
651.083	35.23
651.272	35.04
651.461	35.4
651.65	35.66
651.838	36.07
652.027	36.07
652.216	36.09
652.404	35.77
652.593	35.43
652.781	35.38
652.97	35.41
653.158	35.79
653.347	35.76
653.535	35.97
653.724	35.87
653.912	35.19
654.101	35.56
654.289	35.27
654.478	35.68
654.666	36.03
654.855	35.83
655.043	36.11
655.231	36.08
655.42	36.3
655.608	35.73
655.796	35.63
655.985	35.92
656.173	35.68
656.361	35.71
656.55	35.69
656.738	35.61
656.926	35.63
657.114	35.08
657.302	34.9
657.491	34.96
657.679	35.31
657.867	34.96
658.055	34.72
658.243	34.92
658.431	34.99
658.619	34.95
658.807	35.1
658.996	35.41
659.184	35.95
659.372	36.09
659.56	35.68
659.748	35.49
659.936	35.79
660.124	36.14
660.311	35.98
660.499	36.16
660.687	36.14
660.875	35.91
661.063	35.75
661.251	35.81
661.439	35.63
661.627	35.81
661.814	35.89
662.002	36.13
662.19	35.73
662.378	35.54
662.565	35.47
662.753	35.84
662.941	36.22
663.129	36.45
663.316	36.16
663.504	36.38
663.692	36.91
663.879	37.06
664.067	37.09
664.254	37.41
664.442	37.28
664.63	37.24
664.817	37.12
665.005	36.82
665.192	36.77
665.38	36.74
665.567	36.81
665.755	36.67
665.942	36.69
666.13	36.31
666.317	36.65
666.504	37.11
666.692	37.16
666.879	36.89
667.067	36.67
667.254	36.35
667.441	36.34
667.629	36.18
667.816	36.08
668.003	36.28
668.19	36.3
668.378	35.82
668.565	35.59
668.752	35.77
668.939	35.6
669.127	35.47
669.314	35.77
669.501	35.6
669.688	35.5
669.875	35.17
670.062	35.18
670.249	35.14
670.436	35.59
670.623	36.2
670.81	35.85
670.997	36.55
671.184	37.05
671.371	37.27
671.558	37.34
671.745	37.04
671.932	37.44
672.119	37.17
672.306	37.44
672.493	36.95
672.68	36.39
672.867	36.81
673.054	36.32
673.24	36.4
673.427	36.11
673.614	36.4
673.801	36.96
673.988	36.95
674.174	36.79
674.361	36.76
674.548	36.86
674.734	36.96
674.921	36.73
675.108	36.81
675.294	36.59
675.481	36.02
675.668	36.32
675.854	36.4
676.041	36.78
676.227	37.38
676.414	37.53
676.601	37.75
676.787	37.98
676.974	38.16
677.16	37.95
677.347	37.99
677.533	38.15
677.719	37.58
677.906	37.74
678.092	36.85
678.279	36.55
678.465	36.52
678.651	36.6
678.838	36.91
679.024	36.7
679.21	36.64
679.397	36.99
679.583	37.09
679.769	37.15
679.955	37.17
680.142	37.37
680.328	37.46
680.514	37.5
680.7	37.1
680.886	37.09
681.073	37.22
681.259	37.31
681.445	36.88
681.631	36.73
681.817	36.76
682.003	37.17
682.189	37.62
682.375	37.58
682.561	37.34
682.747	37.91
682.933	37.94
683.119	37.89
683.305	38.39
683.491	38.26
683.677	38.84
683.863	39.02
684.049	38.15
684.235	37.67
684.42	37.42
684.606	37.53
684.792	37.3
684.978	36.65
685.164	36.66
685.349	36.42
685.535	36.84
685.721	36.39
685.907	36.36
686.092	36.19
686.278	36.82
686.464	36.79
686.649	37.06
686.835	36.83
687.021	36.97
687.206	36.64
687.392	36.7
687.577	36.76
687.763	36.89
687.948	36.43
688.134	36.62
688.319	36.89
688.505	37.39
688.69	37.31
688.876	37.57
689.061	37.71
689.247	37.96
689.432	37.77
689.618	37.4
689.803	37.52
689.988	38.24
690.174	38.4
690.359	38.02
690.544	37.65
690.73	37.62
690.915	37.42
691.1	37.06
691.285	36.97
691.471	37.05
691.656	37.19
691.841	37.58
692.026	37.25
692.211	37.82
692.396	37.71
692.582	38.31
692.767	38.24
692.952	38.9
693.137	39.66
693.322	40.11
693.507	40.51
693.692	40.64
693.877	40.39
694.062	40.51
694.247	39.26
694.432	39.03
694.617	38.62
694.802	39.01
694.987	38.57
695.172	37.94
695.357	38.18
695.541	38.58
695.726	38.97
695.911	38.93
696.096	39.22
696.281	39.69
696.466	39.71
696.65	39.47
696.835	38.78
697.02	38.9
697.204	39.1
697.389	38.38
697.574	37.65
697.759	37.38
697.943	37.39
698.128	37.47
698.312	37.36
698.497	37.75
698.682	38.1
698.866	38.09
699.051	38.14
699.235	37.79
699.42	38.31
699.604	38.39
699.789	38.46
699.973	38.26
700.158	38.5
700.342	38.93
700.527	38.56
700.711	38.49
700.895	38.72
701.08	38.57
701.264	39.06
701.448	38.72
701.633	39.03
701.817	39.26
702.001	39.92
702.186	39.03
702.37	38.32
702.554	38.8
702.738	38.45
702.923	39.19
703.107	39.28
703.291	39.2
703.475	39.23
703.659	38.88
703.843	38.71
704.027	39.42
704.212	39.59
704.396	40.42
704.58	40.69
704.764	41.75
704.948	41.22
705.132	40.78
705.316	40.8
705.5	41.13
705.684	40.9
705.868	40.57
706.052	40.4
706.235	41.11
706.419	41.14
706.603	40.38
706.787	39.74
706.971	39.74
707.155	40.2
707.339	40.3
707.522	40.19
707.706	39.94
707.89	40.64
708.074	39.94
708.257	38.7
708.441	37.99
708.625	39.06
708.808	39.09
708.992	39.01
709.176	38.9
709.359	38.69
709.543	39.34
709.727	39.64
709.91	39.13
710.094	38.93
710.277	39.67
710.461	40.11
710.644	39.08
710.828	39.05
711.011	39.23
711.195	39.34
711.378	39.49
711.562	38.39
711.745	39.07
711.928	39.19
712.112	39.83
712.295	39.59
712.478	39.72
712.662	40.23
712.845	39.55
713.028	39.65
713.212	39.72
713.395	39.53
713.578	39.76
713.761	39.37
713.945	39.56
714.128	39.62
714.311	40.2
714.494	40.1
714.677	39.54
714.86	39.84
715.043	39.27
715.227	39.89
715.41	40.3
715.593	40.57
715.776	40.81
715.959	40.26
716.142	39.57
716.325	39.22
716.508	39.48
716.691	39.92
716.874	40.41
717.057	40.68
717.239	40.37
717.422	40.64
717.605	41.06
717.788	40.65
717.971	40.95
718.154	40.42
718.337	40.99
718.519	41.11
718.702	40.61
718.885	40.03
719.068	41.13
719.25	41.1
719.433	41.18
719.616	39.92
719.798	40.51
719.981	40.7
720.164	41.37
720.346	40.9
720.529	40.84
720.712	41.94
720.894	42.55
721.077	40.97
721.259	41.02
721.442	39.64
721.624	40.6
721.807	39.91
721.989	39.03
722.172	38.9
722.354	39.17
722.537	39.08
722.719	39.06
722.901	38.52
723.084	39.53
723.266	39.3
723.448	40.42
723.631	40.54
723.813	40.87
723.995	41.66
724.178	42.45
724.36	41.53
724.542	41.36
724.724	41.05
724.907	41.9
725.089	41.79
725.271	40.85
725.453	40.15
725.635	39.97
725.817	39.99
725.999	39.45
726.181	39.31
726.364	40.07
726.546	39.74
726.728	39.73
726.91	38.63
727.092	37.37
727.274	38.34
727.456	39.07
727.638	39.1
727.819	40.28
728.001	41.34
728.183	41.45
728.365	41.55
728.547	41.56
728.729	41.4
728.911	41.05
729.093	41.69
729.274	42.5
729.456	42.57
729.638	42.59
729.82	41.36
730.001	41.2
730.183	41.32
730.365	41.16
730.546	40.76
730.728	40.85
730.91	42.75
731.091	42.73
731.273	41.37
731.455	40.63
731.636	41.45
731.818	42.33
731.999	41.8
732.181	40.84
732.362	39.94
732.544	40.97
732.725	40.4
732.907	38.87
733.088	39.9
733.27	39.26
733.451	39.74
733.633	39.25
733.814	38.2
733.995	38.87
734.177	39.81
734.358	40.62
734.539	39.75
734.721	39.48
734.902	39.79
735.083	39.6
735.264	41.05
735.446	41.21
735.627	39.49
735.808	39.63
735.989	37.76
736.17	37.65
736.351	37.73
736.533	37.92
736.714	38.59
736.895	37.64
737.076	37.95
737.257	37.37
737.438	37.15
737.619	38.02
737.8	38.49
737.981	39.23
738.162	38.96
738.343	38.33
738.524	38.81
738.705	39.15
738.886	39.81
739.067	39.28
739.247	40.12
739.428	39.3
739.609	39.56
739.79	38.86
739.971	38.53
740.151	38.79
740.332	38.71
740.513	38.64
740.694	37.39
740.874	37.78
741.055	38.15
741.236	37.68
741.417	38.16
741.597	37.32
741.778	37.88
741.958	39.07
742.139	39.45
742.32	39.99
742.5	40.45
742.681	41.62
742.861	41.55
743.042	41.77
743.222	41.45
743.403	42.11
743.583	43.87
743.764	43.4
743.944	43.24
744.124	42.2
744.305	42.71
744.485	42.09
744.666	42.27
744.846	43.07
745.026	42.07
745.207	41.7
745.387	42.22
745.567	41.71
745.747	41.5
745.928	42.12
746.108	41.56
746.288	41.25
746.468	41.76
746.648	41.72
746.829	42.08
747.009	42.37
747.189	42.7
747.369	41.9
747.549	41.55
747.729	43.3
747.909	42.79
748.089	43.16
748.269	42.12
748.449	41.91
748.629	41.87
748.809	41.49
748.989	41.04
749.169	40.73
749.349	41.25
749.529	41.01
749.709	40.71
749.889	41.09
750.068	41.15
750.248	42.94
750.428	43.68
750.608	42.68
750.788	42.79
750.967	41.62
751.147	43.46
751.327	42.94
751.507	42.25
751.686	41.44
751.866	40.65
752.046	40.67
752.225	41.44
752.405	41.31
752.585	42.01
752.764	41.88
752.944	42.82
753.123	41.02
753.303	41.55
753.482	42.51
753.662	43.58
753.841	42.49
754.021	44.07
754.2	43.1
754.38	42.17
754.559	42.93
754.739	42.94
754.918	43.87
755.097	44.76
755.277	42.66
755.456	42.92
755.635	42.2
755.815	44.04
755.994	42.61
756.173	42.96
756.352	44.51
756.532	43.12
756.711	43.11
756.89	41.8
757.069	42.02
757.248	44.43
757.427	43.9
757.607	43.65
757.786	43.65
757.965	44.2
758.144	43.89
758.323	42.95
758.502	43.38
758.681	42.22
758.86	43.27
759.039	42.51
759.218	41.33
759.397	42.22
759.576	41.89
759.755	41.13
759.934	40.31
760.113	39.13
760.291	37.8
760.47	38.18
760.649	39.01
760.828	37.95
761.007	38.34
761.186	38.15
761.364	36.6
761.543	36.41
761.722	37.89
761.901	38.75
762.079	39.37
762.258	40.13
762.437	40.24
762.615	40.51
762.794	41.67
762.972	41.15
763.151	40.87
763.33	41.47
763.508	42.2
763.687	41.42
763.865	41.49
764.044	41.8
764.222	42.26
764.401	42.26
764.579	41.92
764.758	40.66
764.936	40.83
765.114	41.04
765.293	41.46
765.471	40.73
765.65	40.8
765.828	40.65
766.006	40.07
766.184	38.53
766.363	38.19
766.541	37.77
766.719	37.66
766.898	38.11
767.076	37.77
767.254	37.62
767.432	39.7
767.61	40.62
767.788	41.02
767.967	41.61
768.145	42.02
768.323	43.33
768.501	45.2
768.679	46.07
768.857	46.58
769.035	47.06
769.213	45.58
769.391	43.64
769.569	42.19
769.747	42.35
769.925	41.82
770.103	43.98
770.281	43.09
770.459	42.39
770.636	44.59
770.814	41.85
770.992	41.5
771.17	42.23
771.348	40.74
771.525	41.56
771.703	40.72
771.881	41
772.059	38.96
772.236	36.79
772.414	35.96
772.592	34.49
772.769	35.82
772.947	35.37
773.125	34.33
773.302	36.48
773.48	36.34
773.657	36.57
773.835	36.47
774.013	37.5
774.19	39.85
774.368	40.72
774.545	42.16
774.723	44.75
774.9	44.93
775.077	46.63
775.255	45.34
775.432	45.56
775.61	44.88
775.787	45.22
775.964	44.98
776.142	44.2
776.319	42.5
776.496	41.94
776.674	40.98
776.851	42.14
777.028	41.9
777.205	40.98
777.382	40.33
777.56	41.16
777.737	41.29
777.914	41.39
778.091	42.25
778.268	44.56
778.445	44.74
778.622	44.03
778.8	43.42
778.977	45.97
779.154	47.79
779.331	48.63
779.508	48.39
779.685	48.04
779.862	47.95
780.038	48.11
780.215	47.96
780.392	48.19
780.569	48.91
780.746	48.92
780.923	47.34
781.1	48.14
781.277	47.53
781.453	47.07
781.63	46.92
781.807	47.6
781.984	48.68
782.16	49.16
782.337	48.02
782.514	48.97
782.691	48.56
782.867	47.41
783.044	45.92
783.221	48.73
783.397	50.07
783.574	48.41
783.75	48.6
783.927	47.4
784.103	45.09
784.28	45.3
784.456	39.9
784.633	41.93
784.809	41.87
784.986	40.74
785.162	36.23
785.339	36.26
785.515	38.66
785.692	37.41
785.868	33.31
786.044	33.29
786.221	31.92
786.397	36.87
786.573	35.71
786.749	35.06
786.926	37.22
787.102	38.88
787.278	37.31
787.454	36.24
787.631	37.64
787.807	36.84
787.983	38.24
788.159	37.84
788.335	37.32
788.511	38.55
788.687	39.06
788.863	38.73
789.039	38.21
789.216	36.4
789.392	35.95
789.568	35.36
789.744	37.37
789.919	37.1
790.095	35.95
790.271	34.7
790.447	33.23
790.623	33.78
790.799	32.96
790.975	32.19
791.151	34.27
791.327	35.31
791.502	35.1
791.678	38.35
791.854	40.49
792.03	43.54
792.205	44.96
792.381	46.16
792.557	47.95
792.733	48.69
792.908	48.09
793.084	50.16
793.259	52.93
793.435	51.52
793.611	49.62
793.786	47.84
793.962	46.49
794.137	44.27
794.313	43.15
794.488	41.4
794.664	38.98
794.839	41.87
795.015	39.33
795.19	36.83
795.366	36.87
795.541	35.64
795.716	33.61
795.892	35.85
796.067	41.21
796.242	42.78
796.418	40.82
796.593	43.39
796.768	42.52
796.944	44.71
797.119	45.37
797.294	44.53
797.469	47.49
797.644	47.37
797.82	44.53
797.995	42.21
798.17	39.14
798.345	38.7
798.52	39.18
798.695	38.68
798.87	35.79
799.045	34.24
799.22	33.09
799.395	32.29
799.57	34.17
799.745	35.19
799.92	34.31
800.095	37.03
800.27	39.47
800.445	39.18
800.62	40.92
800.795	41.2
800.97	44.23
801.145	46.76
801.319	49.63
801.494	50.78
801.669	51.74
801.844	52.94
802.018	51.24
802.193	49.13
802.368	48.93
802.543	46.97
802.717	45.77
802.892	45.13
803.067	45.55
803.241	37.37
803.416	37.66
803.59	36.54
803.765	37.17
803.94	39.98
804.114	42.84
804.289	39.63
804.463	39.18
804.638	41.4
804.812	43.64
804.986	42.94
805.161	48.65
805.335	48.68
805.51	50.34
805.684	49.84
805.858	49.41
806.033	48.03
806.207	50.68
806.381	51.56
806.556	52.27
806.73	50.36
806.904	50.46
807.078	48.11
807.253	48.72
807.427	47.36
807.601	45.5
807.775	40.97
807.949	42.75
808.123	46.52
808.298	47.56
808.472	50.63
808.646	53.66
808.82	55.23
808.994	55.17
809.168	54.89
809.342	55.85
809.516	56.51
809.69	61.39
809.864	63.06
810.038	60.9
810.212	58.99
810.385	57.55
810.559	56.46
810.733	57.84
810.907	58.35
811.081	53.73
811.255	50.51
811.428	50.16
811.602	50.37
811.776	48.77
811.95	45.01
812.123	47.28
812.297	44.92
812.471	41.8
812.644	40.46
812.818	42
812.992	43.73
813.165	46.64
813.339	49.48
813.512	48.78
813.686	47.86
813.86	51
814.033	47.79
814.207	47.08
814.38	45.91
814.554	48.78
814.727	49.35
814.9	48.8
815.074	48.97
815.247	47.64
815.421	47.37
815.594	49.07
815.767	51.35
815.941	51.81
816.114	57.34
816.287	61.86
816.46	56.55
816.634	55.31
816.807	54.66
816.98	54.91
817.153	58.52
817.327	54.18
817.5	49.72
817.673	48.84
817.846	51.37
818.019	45.03
818.192	41.68
818.365	41.12
818.538	44.32
818.711	46.51
818.884	48.88
819.057	44.03
819.23	49.07
819.403	52.81
819.576	52.79
819.749	52.62
819.922	53.74
820.095	54.66
820.268	54.64
820.441	50.37
820.614	49.23
820.786	45.69
820.959	45.65
821.132	44.15
821.305	41.39
821.477	40.61
821.65	39.6
821.823	40.43
821.996	40.84
822.168	40.76
822.341	40.81
822.514	41.75
822.686	41.9
822.859	41.41
823.031	41.53
823.204	42.55
823.376	42.62
823.549	43.64
823.722	43.11
823.894	42.94
824.067	43.23
824.239	43.11
824.411	41.54
824.584	42.13
824.756	42.05
824.929	42.13
825.101	41.91
825.273	40.97
825.446	39.75
825.618	40.26
825.79	40.03
825.963	39.92
826.135	40.53
826.307	40.95
826.479	40.53
826.652	41.72
826.824	41.89
826.996	42.36
827.168	43.12
827.34	44.95
827.512	44.58
827.684	45.58
827.856	45.43
828.029	45.35
828.201	45.94
828.373	45.76
828.545	45.72
828.717	45.14
828.889	44.42
829.061	44.62
829.232	42.38
829.404	42.44
829.576	41.93
829.748	42.45
829.92	43.8
830.092	45.31
830.264	45.73
830.436	46.52
830.607	45.47
830.779	44.64
830.951	47.23
831.123	46.99
831.294	48.54
831.466	48.64
831.638	48.02
831.809	47.02
831.981	44.66
832.153	43.45
832.324	43.08
832.496	45.55
832.667	44.87
832.839	44.69
833.011	43.03
833.182	42.28
833.354	41.93
833.525	44.49
833.697	45.03
833.868	45.79
834.039	46.92
834.211	46.06
834.382	46.54
834.554	46.53
834.725	45.4
834.896	47.16
835.068	48.93
835.239	49.35
835.41	46.97
835.581	48.4
835.753	46.97
835.924	45.43
836.095	46.91
836.266	47.57
836.438	46.69
836.609	45.65
836.78	46.53
836.951	46.01
837.122	42.2
837.293	43.5
837.464	39.41
837.635	40.07
837.806	43.74
837.977	43.27
838.148	44.2
838.319	51.86
838.49	52.5
838.661	49.41
838.832	47.75
839.003	53.8
839.174	52.39
839.345	50.53
839.516	47.83
839.687	45.38
839.857	46.25
840.028	42.43
840.199	40.33
840.37	39.1
840.54	42.39
840.711	50.32
840.882	44.26
841.053	50.34
841.223	57.97
841.394	61.22
841.564	62.38
841.735	62.78
841.906	61.97
842.076	60.29
842.247	64.62
842.417	59.34
842.588	47.93
842.758	56.35
842.929	52.01
843.099	50.4
843.27	51.05
843.44	53.2
843.611	51.34
843.781	56.79
843.951	59.55
844.122	61.37
844.292	68.5
844.462	84.47
844.633	77.64
844.803	81.16
844.973	91.08
845.144	101.49
845.314	118.28
845.484	114.96
845.654	125.39
845.824	126.05
845.995	119.54
846.165	115.79
846.335	104.65
846.505	109.2
846.675	106.09
846.845	88.38
847.015	79.53
847.185	59.55
847.355	53.36
847.525	46.31
847.695	49.87
847.865	54.54
848.035	59.84
848.205	56.13
848.375	56.77
848.545	59.9
848.715	63.7
848.884	66.82
849.054	70.79
849.224	78.72
849.394	89.21
849.564	82.56
849.733	80.66
849.903	70.6
850.073	67.81
850.243	66.14
850.412	65.01
850.582	61.49
850.752	65.72
850.921	71.03
851.091	66.16
851.26	44.29
851.43	61.94
851.599	48.62
851.769	35.26
851.939	49.48
852.108	39.99
852.278	30.5
852.447	43.46
852.616	45.71
852.786	38.56
852.955	30.94
853.125	40.26
853.294	46.29
853.463	33.09
853.633	38.14
853.802	19.95
853.971	29.77
854.141	29.17
854.31	36.36
854.479	25.17
854.648	30.87
854.818	44.66
854.987	49.46
855.156	25.13
855.325	30.55
855.494	51.39
855.663	70.71
855.832	65.66
856.001	71.01
856.171	59.36
856.34	64.4
856.509	65.61
856.678	65.37
856.847	68.64
857.016	76.18
857.185	90.84
857.353	83.36
857.522	78.53
857.691	76.48
857.86	73.18
858.029	77.44
858.198	76.52
858.367	74.12
858.535	76.21
858.704	65
858.873	67.1
859.042	56.09
859.21	45.79
859.379	47.51
859.548	53.16
859.717	58.34
859.885	62.83
860.054	75.74
860.222	69.34
860.391	95.99
860.56	101.65
860.728	86.51
860.897	83.17
861.065	78.3
861.234	78.58
861.402	73.15
861.571	89.63
861.739	82.89
861.908	76.22
862.076	81.23
862.244	64.91
862.413	59.36
862.581	57.97
862.749	50.73
862.918	62.49
863.086	62.61
863.254	70.32
863.423	53.3
863.591	65.62
863.759	84.26
863.927	88.5
864.096	82.39
864.264	91.69
864.432	94.16
864.6	113.69
864.768	119.96
864.936	114.65
865.104	162.22
865.272	159.31
865.44	139.11
865.608	84.43
865.776	94.38
865.944	102.67
866.112	90.73
866.28	134.26
866.448	142.61
866.616	201.21
866.784	232.46
866.952	178.6
867.12	159.75
867.288	233.18
867.455	297.5
867.623	256.57
867.791	168.91
867.959	170.98
868.127	143.74
868.294	84.2
868.462	56.57
868.63	64.08
868.797	53.11
868.965	59.7
869.133	58.1
869.3	47.43
869.468	49.73
869.636	42.41
869.803	52.76
869.971	70.6
870.138	91.26
870.306	93.44
870.473	98.17
870.641	123.4
870.808	105.49
870.975	105.42
871.143	129.89
871.31	126.24
871.478	169.32
871.645	128.75
871.812	51.07
871.98	61.22
872.147	45.42
872.314	61.51
872.482	69.89
872.649	69.46
872.816	61.68
872.983	62.64
873.15	60.23
873.318	64.76
873.485	74.39
873.652	90.13
873.819	88.56
873.986	89.95
874.153	73.11
874.32	72.09
874.487	85.9
874.654	82.89
874.821	79.89
874.988	71.92
875.155	64.28
875.322	66.56
875.489	60.33
875.656	62.28
875.823	57.38
875.99	84.41
876.157	89.19
876.324	75.99
876.49	84.23
876.657	77.95
876.824	84
876.991	72.49
877.157	65.83
877.324	82.1
877.491	81.84
877.658	111.14
877.824	97.08
877.991	101.09
878.157	87.27
878.324	80.33
878.491	88.83
878.657	98.41
878.824	109.61
878.99	122.92
879.157	98.92
879.323	89.79
879.49	79.19
879.656	87.76
879.823	80.45
879.989	93.27
880.156	92.2
880.322	88.85
880.488	89.01
880.655	74.69
880.821	74.94
880.987	73
881.154	76.41
881.32	66.73
881.486	61.2
881.652	62.7
881.819	58.18
881.985	59.6
882.151	55.27
882.317	47.36
882.483	49.89
882.649	48.8
882.816	47.87
882.982	46.25
883.148	45.67
883.314	43.62
883.48	43.81
883.646	41.92
883.812	41.73
883.978	41.45
884.144	43.44
884.31	46
884.476	48.33
884.642	46.16
884.807	45.09
884.973	43.35
885.139	44.9
885.305	43.84
885.471	46.73
885.637	44.63
885.802	41.97
885.968	42.08
886.134	40.21
886.3	36.24
886.465	39.14
886.631	36.88
886.797	49.19
886.962	47.91
887.128	51.34
887.293	52.46
887.459	45.62
887.625	61.03
887.79	62.5
887.956	63.53
888.121	62.57
888.287	65.83
888.452	72.68
888.618	56.56
888.783	59.2
