Data from 2937860_Reflection_1.txt Node
Date: Wed Jul 15 15:27:25 EDT 2015
User: robert
Spectrometer: USB4E03001
Autoset integration time: false
Trigger mode: 4
Integration Time (sec): 1.000000E-1
Scans to average: 10
Electric dark correction enabled: true
Nonlinearity correction enabled: false
Boxcar width: 5
Stray light correction enabled: false
XAxis mode: Wavelengths
Stop averaging: false
Number of Pixels in Spectrum: 3648
>>>>>Begin Spectral Data<<<<<
177.566	-12.41
177.785	21.95
178.005	32.24
178.225	23
178.445	-150.4
178.665	-613.13
178.885	1382.22
179.105	281.82
179.324	125.2
179.544	-26.39
179.764	12.97
179.984	42.36
180.204	37.02
180.423	9.27
180.643	8.37
180.863	-49.84
181.083	-127.85
181.302	-71.49
181.522	-53.4
181.742	-43.6
181.961	-100.8
182.181	-93.35
182.401	-215.94
182.621	-97.46
182.84	-84.57
183.06	-82.15
183.279	-29.82
183.499	-9.06
183.719	-26.76
183.938	7.68
184.158	9.93
184.377	-23.04
184.597	-8.8
184.816	3.87
185.036	-45.86
185.256	-23.65
185.475	-51.25
185.695	-97.2
185.914	-246.9
186.134	-119.84
186.353	-129.22
186.572	-138.11
186.792	-46.96
187.011	-70.87
187.231	-48.55
187.45	-2.46
187.67	-28.05
187.889	-15.67
188.108	-51.21
188.328	-18.81
188.547	-19.55
188.766	-7.36
188.986	-31.47
189.205	-50.48
189.424	-70.18
189.644	-139.1
189.863	-430.06
190.082	-1014.07
190.302	2975.81
190.521	-199.11
190.74	-160.07
190.959	-226.03
191.178	-170.06
191.398	-135.7
191.617	-148.45
191.836	-143.3
192.055	-77.26
192.274	-14.94
192.494	17.03
192.713	27.47
192.932	17.73
193.151	10.95
193.37	25.43
193.589	-651.82
193.808	-216.63
194.027	-154.24
194.246	-115.39
194.465	-24.39
194.685	-88.49
194.904	-61.88
195.123	-4.6
195.342	-20.99
195.561	19.54
195.78	40.58
195.999	16.32
196.218	23.72
196.436	17.11
196.655	28.54
196.874	23.08
197.093	26.51
197.312	32.06
197.531	-4.41
197.75	23.13
197.969	31.12
198.188	23.13
198.407	73.34
198.625	69.46
198.844	109.01
199.063	53.64
199.282	1.41
199.501	12.97
199.719	-123.73
199.938	-13.95
200.157	-13.02
200.376	-10.9
200.594	-28.8
200.813	-94.31
201.032	-25.19
201.251	-36.91
201.469	-31.76
201.688	-41.18
201.907	-50.65
202.125	-6.3
202.344	-11.37
202.563	-18
202.781	-335.76
203	-240.18
203.218	-244.14
203.437	26010
203.656	2805.81
203.874	-604.32
204.093	-432.31
204.311	-98.64
204.53	-233.39
204.748	-76.45
204.967	-97.55
205.185	-57.39
205.404	-88.45
205.622	-45.69
205.841	-49.47
206.059	-31.62
206.278	-5.07
206.496	-13.08
206.715	-16.31
206.933	-5.94
207.151	-1.48
207.37	14.94
207.588	19.99
207.806	54.65
208.025	45.04
208.243	24.85
208.461	49.7
208.68	63.79
208.898	68.99
209.116	55.78
209.335	44.39
209.553	37.34
209.771	26.9
209.989	14.42
210.208	-15.78
210.426	-29.54
210.644	13.11
210.862	-20.46
211.081	-54.95
211.299	-46.02
211.517	12.95
211.735	37.07
211.953	17.61
212.171	36.85
212.39	31.77
212.608	24.66
212.826	14.68
213.044	8.82
213.262	18.09
213.48	11.33
213.698	15.96
213.916	15.36
214.134	14.4
214.352	38.06
214.57	25
214.788	52.55
215.006	75.7
215.224	85.48
215.442	73.01
215.66	46.33
215.878	38.95
216.096	-5.56
216.314	-1.21
216.532	-6.71
216.75	-12.24
216.968	-11.95
217.185	-45.17
217.403	-91.47
217.621	-79.53
217.839	-117.73
218.057	-145.41
218.275	-78.59
218.492	-51.09
218.71	-122.91
218.928	-296.32
219.146	-235.91
219.363	-190.21
219.581	-86.47
219.799	-41.48
220.017	-35.42
220.234	-25.31
220.452	-0.13
220.67	-20.98
220.887	-26.82
221.105	-19.15
221.323	-20.93
221.54	-0.21
221.758	1.73
221.976	-9.49
222.193	-7.01
222.411	0.42
222.629	-0.29
222.846	-5.11
223.064	4.83
223.281	10.32
223.499	5.41
223.716	15.83
223.934	7.03
224.151	8.62
224.369	9.13
224.586	2.83
224.804	-2.54
225.021	3.86
225.239	-12.28
225.456	-18.5
225.674	-7.75
225.891	6.75
226.108	11.46
226.326	-1.53
226.543	-5.48
226.76	-2.62
226.978	-1.85
227.195	1.78
227.413	-1.88
227.63	6.6
227.847	7.15
228.064	6.49
228.282	1.92
228.499	-0.79
228.716	6.7
228.934	8.78
229.151	11.31
229.368	12.55
229.585	12.83
229.802	14.68
230.02	15.87
230.237	15.44
230.454	15.49
230.671	16.43
230.888	20.87
231.105	19.24
231.323	17.46
231.54	16.24
231.757	17.25
231.974	14
232.191	11.79
232.408	6.59
232.625	13.64
232.842	15.65
233.059	18.13
233.276	11.25
233.493	10.74
233.71	10.75
233.927	10.56
234.144	5.75
234.361	7.22
234.578	11
234.795	12.6
235.012	5.89
235.229	1.98
235.446	-2.86
235.663	-0.59
235.879	3.37
236.096	4.05
236.313	3.2
236.53	3.36
236.747	4.42
236.964	-1.38
237.181	1
237.397	2.79
237.614	10.78
237.831	12.83
238.048	13.6
238.264	8.29
238.481	12.48
238.698	15.29
238.915	21.61
239.131	23.31
239.348	27.35
239.565	24.49
239.781	25.34
239.998	20.44
240.215	18.4
240.431	18.63
240.648	20.74
240.865	19.95
241.081	18.06
241.298	16.92
241.514	15.58
241.731	17.02
241.947	17.96
242.164	18.73
242.38	18.55
242.597	18.36
242.814	16.76
243.03	16.16
243.246	16.04
243.463	15.48
243.679	15.52
243.896	17.46
244.112	15.97
244.329	15.92
244.545	16.01
244.762	15.59
244.978	14.46
245.194	15.58
245.411	13.66
245.627	10.92
245.843	12.28
246.06	12.82
246.276	11.45
246.492	10.89
246.709	10.72
246.925	10.18
247.141	11
247.357	11.41
247.574	12.61
247.79	12.99
248.006	14.05
248.222	13.72
248.439	12.89
248.655	13.05
248.871	13.51
249.087	12.77
249.303	12.46
249.519	12.64
249.736	14.7
249.952	11.78
250.168	13.75
250.384	12.75
250.6	11.3
250.816	13.29
251.032	13.78
251.248	12.01
251.464	10.55
251.68	10.17
251.896	7.63
252.112	6.61
252.328	9.21
252.544	9.44
252.76	10.75
252.976	12.92
253.192	12.92
253.408	12.35
253.624	13.1
253.84	16.23
254.056	16.37
254.272	17.21
254.487	16.53
254.703	12.41
254.919	7.96
255.135	8.06
255.351	4.65
255.567	4.18
255.782	4
255.998	2.14
256.214	1.01
256.43	5.18
256.646	5.16
256.861	6.47
257.077	9.05
257.293	10.56
257.508	9.63
257.724	11.12
257.94	9.66
258.155	8.83
258.371	9.96
258.587	10.34
258.802	8.56
259.018	8.53
259.234	8.12
259.449	8.82
259.665	8.81
259.88	8.84
260.096	8.95
260.312	8.88
260.527	8.66
260.743	8.67
260.958	8.25
261.174	8.37
261.389	8.49
261.605	8.76
261.82	7.37
262.036	7.04
262.251	6.71
262.466	5.76
262.682	6.57
262.897	7.77
263.113	8.43
263.328	9.73
263.543	12.66
263.759	12.77
263.974	12.28
264.189	11.91
264.405	12.72
264.62	12.6
264.835	12.34
265.051	10.59
265.266	10.49
265.481	9.9
265.696	9.38
265.912	4.87
266.127	7.13
266.342	7.15
266.557	8.11
266.773	8.09
266.988	8.01
267.203	8.57
267.418	7.75
267.633	7.36
267.848	6.91
268.064	6.09
268.279	6.67
268.494	5.86
268.709	7.23
268.924	7.38
269.139	7.62
269.354	7.24
269.569	6.84
269.784	6.77
269.999	6.64
270.214	6.14
270.429	6.66
270.644	7.16
270.859	5.86
271.074	4.91
271.289	5.35
271.504	4.66
271.719	5.44
271.934	4.03
272.149	5.32
272.363	4.96
272.578	5.51
272.793	4.4
273.008	5.15
273.223	5.61
273.438	5.59
273.653	5.7
273.867	5.62
274.082	5.16
274.297	6.22
274.512	6.03
274.726	6.11
274.941	5.36
275.156	7.98
275.371	7.83
275.585	7.81
275.8	7.61
276.015	7.08
276.229	7.96
276.444	7.25
276.659	7.68
276.873	7.54
277.088	7.86
277.302	6.49
277.517	3.79
277.732	4.16
277.946	4.24
278.161	4.03
278.375	4.55
278.59	3.17
278.804	2.84
279.019	3.04
279.233	3.96
279.448	3.34
279.662	4.98
279.877	6.5
280.091	5.89
280.306	6.71
280.52	5.65
280.735	5.65
280.949	5.77
281.163	7.61
281.378	7.83
281.592	6.24
281.806	6.13
282.021	7.35
282.235	7.01
282.449	6.93
282.664	6.56
282.878	7.99
283.092	7.9
283.307	8.66
283.521	7.42
283.735	7.25
283.949	8.2
284.164	8.56
284.378	7.95
284.592	7.78
284.806	7.04
285.02	8.47
285.234	7.98
285.449	8.58
285.663	8.57
285.877	8.5
286.091	9.26
286.305	9.04
286.519	9.32
286.733	9.51
286.947	9.51
287.161	9.7
287.375	8.47
287.589	8.06
287.803	7.85
288.017	8.34
288.231	8.82
288.445	7.83
288.659	7.87
288.873	8.31
289.087	7.35
289.301	8.05
289.515	9.41
289.729	9.77
289.943	9.71
290.157	10.49
290.371	9.95
290.584	9.79
290.798	9.54
291.012	9.17
291.226	9.64
291.44	9.56
291.654	9.77
291.867	8.64
292.081	8.46
292.295	8.47
292.509	7.06
292.722	6.91
292.936	7.4
293.15	7.18
293.364	8.42
293.577	6.87
293.791	7.79
294.005	7.34
294.218	7.22
294.432	7.51
294.645	7.67
294.859	7.7
295.073	8.78
295.286	8.34
295.5	9.51
295.713	8.89
295.927	10.09
296.14	10.5
296.354	10.24
296.568	10.83
296.781	10.15
296.994	11.38
297.208	12.63
297.421	12.25
297.635	13.11
297.848	13.25
298.062	12.83
298.275	11.79
298.489	11.6
298.702	11.7
298.915	11.09
299.129	11.52
299.342	10.92
299.555	10.03
299.769	9.81
299.982	10.02
300.195	9.7
300.409	10.92
300.622	12.4
300.835	12.9
301.048	13.99
301.262	14.85
301.475	15.37
301.688	15.11
301.901	14.96
302.115	15.14
302.328	13.64
302.541	13.56
302.754	14.05
302.967	13.82
303.18	13.4
303.393	12.09
303.607	10.85
303.82	10.46
304.033	10.74
304.246	9.61
304.459	8.95
304.672	9.38
304.885	9.73
305.098	8.63
305.311	7.96
305.524	9.26
305.737	9.52
305.95	9.65
306.163	9.34
306.376	10.3
306.589	11.18
306.802	11.55
307.015	11.95
307.228	11.54
307.44	10.85
307.653	11.09
307.866	9.72
308.079	9.6
308.292	10.82
308.505	10.19
308.718	9.42
308.93	10.09
309.143	9.48
309.356	8.91
309.569	8.5
309.781	8.57
309.994	8.56
310.207	10.07
310.42	11.61
310.632	11.87
310.845	12.76
311.058	12.13
311.27	12.7
311.483	13.9
311.696	13.85
311.908	14.62
312.121	14.85
312.333	14.64
312.546	13.7
312.759	11.86
312.971	10.04
313.184	8.52
313.396	8.54
313.609	7.77
313.821	7.42
314.034	9.07
314.246	9.21
314.459	10.06
314.671	9.23
314.884	10
315.096	10.78
315.309	12.38
315.521	14.1
315.733	14.11
315.946	13.57
316.158	13.94
316.371	14.46
316.583	15.55
316.795	14.54
317.008	16.38
317.22	16.25
317.432	16.26
317.644	15.59
317.857	16.29
318.069	17.14
318.281	17.8
318.494	16.67
318.706	15.02
318.918	12.56
319.13	12.91
319.342	10.89
319.555	10.03
319.767	10.26
319.979	11.85
320.191	10.74
320.403	9.78
320.615	9.42
320.827	9.4
321.039	9.23
321.252	10.05
321.464	10.19
321.676	13.65
321.888	13.92
322.1	12.39
322.312	9.62
322.524	9.6
322.736	10.74
322.948	10.4
323.16	9.54
323.372	9.91
323.584	10.07
323.796	9.61
324.007	8.17
324.219	8.62
324.431	9.81
324.643	11.64
324.855	11.42
325.067	11.54
325.279	12.14
325.491	13.01
325.702	13.93
325.914	14.28
326.126	15.49
326.338	14.83
326.55	13.78
326.761	13.47
326.973	13.31
327.185	13.39
327.396	12.21
327.608	12.04
327.82	12.28
328.032	10.83
328.243	10.96
328.455	9.11
328.666	9.79
328.878	9.48
329.09	8.69
329.301	8.07
329.513	8.07
329.725	9.31
329.936	9.72
330.148	10.79
330.359	11.37
330.571	10.63
330.782	12.28
330.994	11.87
331.205	13.26
331.417	14.55
331.628	15.08
331.84	14.91
332.051	15.1
332.262	15.45
332.474	14.79
332.685	13.59
332.897	13.64
333.108	14.27
333.319	13.13
333.531	13.41
333.742	13.34
333.953	12.05
334.165	12.48
334.376	12.6
334.587	10.79
334.799	10.53
335.01	12.37
335.221	12.57
335.432	11.52
335.644	11.98
335.855	10.85
336.066	10.36
336.277	10.63
336.488	10.45
336.7	10.52
336.911	11.96
337.122	12.66
337.333	11.82
337.544	11.38
337.755	11.32
337.966	12.74
338.177	13.05
338.388	13.69
338.599	14.53
338.811	14.58
339.022	14.37
339.233	14.04
339.444	12.7
339.655	13.22
339.866	13.94
340.076	12.91
340.287	12.5
340.498	12.87
340.709	12.63
340.92	12.06
341.131	12.83
341.342	12.86
341.553	11.09
341.764	11.74
341.975	11.6
342.185	11.43
342.396	12.38
342.607	11.17
342.818	12.34
343.029	12.95
343.239	13.11
343.45	12.6
343.661	12.64
343.872	14.62
344.082	13.9
344.293	13.33
344.504	13.06
344.714	13.15
344.925	13.84
345.136	13.04
345.346	11.85
345.557	12.66
345.768	12.37
345.978	11.97
346.189	11.91
346.399	12.44
346.61	12.39
346.821	11.83
347.031	12.57
347.242	12.86
347.452	12.89
347.663	13.74
347.873	14.08
348.084	14.51
348.294	14.75
348.504	14.98
348.715	14.87
348.925	15.15
349.136	15.46
349.346	15.02
349.557	13.91
349.767	12.92
349.977	13.16
350.188	12.44
350.398	12.34
350.608	12.56
350.819	11.63
351.029	11.32
351.239	11.11
351.449	12.4
351.66	12.46
351.87	13.29
352.08	14.45
352.29	14.3
352.501	14.09
352.711	13.73
352.921	13.33
353.131	13.4
353.341	13.33
353.552	13.8
353.762	12
353.972	12.2
354.182	11.89
354.392	11.37
354.602	11.95
354.812	11.44
355.022	11.81
355.232	11.43
355.442	11.28
355.652	11.66
355.862	10.62
356.072	11.16
356.282	10.43
356.492	10.35
356.702	10.81
356.912	10.26
357.122	11.06
357.332	10.78
357.542	11.29
357.752	11.59
357.962	11.96
358.171	12.37
358.381	12.18
358.591	12.34
358.801	12.44
359.011	12.24
359.221	11.94
359.43	11.87
359.64	11.54
359.85	11.29
360.06	10.94
360.269	11.15
360.479	11.08
360.689	11.5
360.899	12.19
361.108	12.43
361.318	12.59
361.528	12.67
361.737	12.67
361.947	13.58
362.156	14.23
362.366	14.82
362.576	14.36
362.785	14.59
362.995	14.25
363.204	13.64
363.414	14.11
363.623	13.83
363.833	13.54
364.042	13.37
364.252	12.37
364.461	11.47
364.671	10.76
364.88	10.37
365.09	10.23
365.299	10.89
365.509	11.14
365.718	10.87
365.927	10.82
366.137	10.96
366.346	10.97
366.555	12.24
366.765	11.69
366.974	11.74
367.183	11.86
367.393	12.53
367.602	11.75
367.811	11.95
368.021	11.76
368.23	11.13
368.439	10.66
368.648	10.13
368.857	9.06
369.067	9.55
369.276	9.7
369.485	8.84
369.694	8.24
369.903	8.64
370.112	8.04
370.321	7.95
370.531	8.41
370.74	9.02
370.949	9.52
371.158	9.41
371.367	9.4
371.576	9.29
371.785	10.53
371.994	10.73
372.203	10.73
372.412	11.33
372.621	11.4
372.83	11.09
373.039	10.64
373.248	10.77
373.457	10.84
373.666	10.95
373.874	11.23
374.083	10.47
374.292	10.37
374.501	9.98
374.71	9.18
374.919	8.51
375.128	8.4
375.336	8.71
375.545	8.28
375.754	8.16
375.963	7.59
376.171	7.36
376.38	8.24
376.589	8.34
376.798	8.38
377.006	8.45
377.215	8.46
377.424	9.08
377.632	8.98
377.841	9.25
378.05	9.45
378.258	9.3
378.467	9.39
378.675	9.07
378.884	9.23
379.093	9.61
379.301	9.38
379.51	9.79
379.718	9.72
379.927	9.88
380.135	10.05
380.344	9.84
380.552	10.06
380.761	9.76
380.969	9.34
381.177	8.86
381.386	8.42
381.594	8.04
381.803	7.68
382.011	7.96
382.219	7.9
382.428	7.12
382.636	7.01
382.845	7.19
383.053	7.35
383.261	8.18
383.469	8.39
383.678	8.36
383.886	8.59
384.094	8.47
384.302	7.85
384.511	8.06
384.719	7.8
384.927	7.93
385.135	7.96
385.343	7.85
385.552	7.35
385.76	7.16
385.968	7.17
386.176	7.51
386.384	7.95
386.592	8.44
386.8	8.13
387.008	8.66
387.216	8.57
387.424	8.59
387.633	8.36
387.841	8.5
388.049	8.66
388.257	8.49
388.465	7.79
388.672	7.78
388.88	7.49
389.088	7.14
389.296	7.02
389.504	6.91
389.712	6.54
389.92	6.67
390.128	6.22
390.336	6.09
390.544	6.64
390.751	7.05
390.959	6.85
391.167	6.99
391.375	7.27
391.583	7.1
391.79	7.2
391.998	7.41
392.206	7.58
392.414	7.74
392.621	7.71
392.829	7.66
393.037	7.67
393.244	7.72
393.452	7.4
393.66	7.72
393.867	8.01
394.075	8.14
394.283	8.33
394.49	8.15
394.698	7.82
394.905	7.78
395.113	7.64
395.32	7.5
395.528	7.42
395.735	7.5
395.943	7.33
396.15	7.19
396.358	6.71
396.565	6.4
396.773	6.54
396.98	7.1
397.188	6.9
397.395	6.6
397.602	6.63
397.81	6.16
398.017	6.36
398.225	6.21
398.432	6.13
398.639	6.48
398.847	6.49
399.054	6.22
399.261	5.89
399.468	5.89
399.676	5.8
399.883	6.25
400.09	6.27
400.297	6.29
400.505	6.27
400.712	6.5
400.919	6.41
401.126	6.54
401.333	6.79
401.54	6.91
401.748	6.9
401.955	7.02
402.162	6.59
402.369	6.6
402.576	6.25
402.783	6.28
402.99	6.03
403.197	5.8
403.404	5.57
403.611	5.54
403.818	5.25
404.025	5.23
404.232	5.29
404.439	4.95
404.646	5.09
404.853	5.17
405.06	5.23
405.267	5.34
405.474	5.76
405.681	5.98
405.887	6.07
406.094	6.07
406.301	6.28
406.508	6.52
406.715	7.08
406.922	7.4
407.128	7.47
407.335	7.16
407.542	6.68
407.749	6.56
407.955	6.61
408.162	6.47
408.369	6.73
408.575	6.8
408.782	6.81
408.989	6.63
409.195	6.41
409.402	6.41
409.609	6.58
409.815	7.06
410.022	6.75
410.228	6.57
410.435	6.45
410.642	6.46
410.848	6.46
411.055	6.29
411.261	6.19
411.468	6.22
411.674	6.01
411.881	5.98
412.087	5.97
412.294	5.96
412.5	6.01
412.706	6.26
412.913	6.18
413.119	6.03
413.326	6.02
413.532	6.17
413.738	6.14
413.945	6.35
414.151	6.33
414.357	6.28
414.564	6.56
414.77	6.54
414.976	6.2
415.182	6.17
415.389	6.13
415.595	6.11
415.801	6.33
416.007	6.58
416.214	6.44
416.42	6.39
416.626	6.17
416.832	5.85
417.038	5.9
417.244	5.83
417.45	5.98
417.657	5.95
417.863	5.83
418.069	5.65
418.275	5.52
418.481	5.58
418.687	5.5
418.893	5.74
419.099	5.89
419.305	5.9
419.511	6.15
419.717	6.09
419.923	6.02
420.129	5.99
420.335	5.89
420.541	5.81
420.746	5.71
420.952	5.64
421.158	5.49
421.364	5.49
421.57	5.42
421.776	5.41
421.982	5.27
422.187	5.32
422.393	5.33
422.599	5.29
422.805	5.18
423.01	5.16
423.216	5.26
423.422	5.28
423.628	5.26
423.833	5.2
424.039	5.08
424.245	5.11
424.45	5.13
424.656	5.18
424.862	5.16
425.067	5.38
425.273	5.34
425.478	5.46
425.684	5.42
425.889	5.47
426.095	5.46
426.301	5.45
426.506	5.58
426.712	5.55
426.917	5.52
427.123	5.58
427.328	5.46
427.533	5.5
427.739	5.3
427.944	5.55
428.15	5.46
428.355	5.5
428.561	5.47
428.766	5.2
428.971	5.19
429.177	5.36
429.382	5.3
429.587	5.05
429.793	5.2
429.998	5.14
430.203	5.02
430.408	4.87
430.614	4.88
430.819	4.89
431.024	4.88
431.229	4.76
431.434	4.5
431.64	4.56
431.845	4.84
432.05	4.66
432.255	4.8
432.46	4.58
432.665	4.55
432.87	4.59
433.076	4.76
433.281	4.98
433.486	5.18
433.691	5.46
433.896	5.64
434.101	5.57
434.306	5.81
434.511	5.7
434.716	5.82
434.921	5.96
435.126	5.9
435.331	5.78
435.535	5.42
435.74	5.28
435.945	5.12
436.15	4.98
436.355	4.88
436.56	4.68
436.765	4.8
436.97	4.78
437.174	4.91
437.379	5.07
437.584	5.06
437.789	5.2
437.993	5.25
438.198	5.06
438.403	4.99
438.608	5.08
438.812	5.07
439.017	4.92
439.222	4.94
439.426	4.82
439.631	4.8
439.836	4.78
440.04	4.89
440.245	4.81
440.45	4.86
440.654	4.94
440.859	4.98
441.063	5.02
441.268	5.09
441.472	5.04
441.677	4.95
441.881	4.89
442.086	4.97
442.29	4.9
442.495	4.95
442.699	5
442.904	4.89
443.108	4.85
443.312	4.89
443.517	4.93
443.721	5.03
443.925	5.18
444.13	5.19
444.334	5.19
444.538	5.36
444.743	5.3
444.947	5.16
445.151	5.15
445.356	5.09
445.56	5.04
445.764	5.11
445.968	5.05
446.173	5.02
446.377	5.04
446.581	4.87
446.785	4.64
446.989	4.69
447.193	4.79
447.398	4.89
447.602	5.03
447.806	5.02
448.01	4.87
448.214	4.86
448.418	4.9
448.622	4.79
448.826	4.95
449.03	5.02
449.234	5
449.438	5.11
449.642	4.94
449.846	4.71
450.05	4.79
450.254	4.77
450.458	4.93
450.662	4.87
450.866	5.01
451.069	5.05
451.273	5
451.477	5.1
451.681	4.87
451.885	4.86
452.089	4.86
452.292	4.77
452.496	5.02
452.7	4.96
452.904	5.03
453.107	5.04
453.311	4.94
453.515	4.94
453.719	4.8
453.922	4.97
454.126	5.13
454.33	5.11
454.533	5.06
454.737	4.88
454.94	5.03
455.144	5.08
455.348	4.99
455.551	5.11
455.755	5.06
455.958	4.99
456.162	4.84
456.365	4.71
456.569	4.98
456.772	5.01
456.976	5.1
457.179	4.91
457.383	4.8
457.586	4.72
457.79	4.73
457.993	4.93
458.196	5.09
458.4	5.24
458.603	5.23
458.807	5.18
459.01	5.11
459.213	4.96
459.417	5.02
459.62	4.99
459.823	5.06
460.026	4.98
460.23	5
460.433	4.99
460.636	4.9
460.839	4.89
461.042	4.91
461.246	5.06
461.449	5.16
461.652	4.95
461.855	4.91
462.058	4.98
462.261	4.95
462.464	4.9
462.668	4.79
462.871	4.93
463.074	5.11
463.277	4.97
463.48	4.78
463.683	4.72
463.886	4.78
464.089	4.75
464.292	4.78
464.495	4.85
464.698	4.97
464.901	5.17
465.104	5.07
465.306	4.94
465.509	4.82
465.712	5.03
465.915	5.01
466.118	5.15
466.321	5.33
466.524	5.15
466.726	5.27
466.929	4.98
467.132	4.94
467.335	4.93
467.538	4.84
467.74	4.77
467.943	4.71
468.146	4.79
468.348	4.87
468.551	4.74
468.754	4.89
468.956	4.67
469.159	4.91
469.362	4.88
469.564	4.95
469.767	4.9
469.969	5.19
470.172	5.09
470.375	4.96
470.577	4.89
470.78	5.12
470.982	4.97
471.185	5.06
471.387	5.02
471.59	4.99
471.792	4.67
471.995	4.85
472.197	4.82
472.399	4.87
472.602	4.95
472.804	5
473.007	4.53
473.209	4.53
473.411	4.55
473.614	4.67
473.816	4.65
474.018	4.92
474.22	5.07
474.423	5.05
474.625	5.1
474.827	5.24
475.03	5.24
475.232	5.52
475.434	5.6
475.636	5.64
475.838	5.35
476.04	5.48
476.243	5.45
476.445	5.21
476.647	4.96
476.849	4.89
477.051	4.83
477.253	4.7
477.455	4.7
477.657	4.67
477.859	4.57
478.061	4.63
478.263	4.45
478.465	4.49
478.667	4.56
478.869	4.75
479.071	4.92
479.273	4.9
479.475	4.89
479.677	4.97
479.879	5.07
480.081	5.15
480.283	5.17
480.485	5.12
480.686	5.17
480.888	5.3
481.09	5.27
481.292	5.22
481.494	5.13
481.695	5.15
481.897	4.96
482.099	4.86
482.301	4.85
482.502	4.85
482.704	4.79
482.906	4.68
483.107	4.57
483.309	4.61
483.511	4.49
483.712	4.48
483.914	4.54
484.115	4.55
484.317	4.54
484.519	4.53
484.72	4.47
484.922	4.59
485.123	4.61
485.325	4.59
485.526	4.56
485.728	4.69
485.929	4.67
486.131	4.68
486.332	4.69
486.534	4.78
486.735	4.83
486.936	4.91
487.138	4.79
487.339	4.75
487.541	4.79
487.742	4.79
487.943	4.76
488.144	4.86
488.346	4.78
488.547	4.84
488.748	4.8
488.95	4.8
489.151	4.72
489.352	4.8
489.553	4.9
489.755	4.95
489.956	5.02
490.157	5.08
490.358	5.09
490.559	5.1
490.76	5.06
490.961	5.07
491.163	5.02
491.364	5.01
491.565	5.01
491.766	4.92
491.967	4.86
492.168	4.8
492.369	4.76
492.57	4.75
492.771	4.69
492.972	4.72
493.173	4.67
493.374	4.64
493.575	4.77
493.776	4.79
493.976	4.79
494.177	4.8
494.378	4.81
494.579	4.85
494.78	4.76
494.981	4.83
495.182	4.8
495.382	4.84
495.583	4.77
495.784	4.79
495.985	4.68
496.185	4.73
496.386	4.7
496.587	4.75
496.788	4.65
496.988	4.66
497.189	4.66
497.39	4.75
497.59	4.79
497.791	4.86
497.992	4.69
498.192	4.71
498.393	4.77
498.593	4.91
498.794	4.95
498.994	5.05
499.195	5.14
499.395	5.12
499.596	5.17
499.796	5.04
499.997	5.11
500.197	5.2
500.398	5.27
500.598	5.23
500.799	5.3
500.999	5.21
501.199	5.26
501.4	5.24
501.6	5.42
501.801	5.18
502.001	5.41
502.201	5.33
502.402	5.21
502.602	5.32
502.802	5.14
503.002	5.21
503.203	5.38
503.403	5.18
503.603	5.25
503.803	5.08
504.003	5.09
504.204	5.1
504.404	5.09
504.604	5.25
504.804	5.22
505.004	5.39
505.204	5.29
505.404	5.1
505.604	5.18
505.804	5.02
506.005	5.14
506.205	5.18
506.405	5.01
506.605	5.16
506.805	5.04
507.005	5.01
507.204	4.97
507.404	5.05
507.604	5.17
507.804	5.17
508.004	5.18
508.204	5.12
508.404	5.23
508.604	5.25
508.804	5.25
509.003	5.48
509.203	5.51
509.403	5.66
509.603	5.52
509.803	5.4
510.002	5.53
510.202	5.46
510.402	5.58
510.602	5.46
510.801	5.55
511.001	5.4
511.201	5.37
511.4	5.36
511.6	5.28
511.8	5.33
511.999	5.36
512.199	5.22
512.398	5.3
512.598	5.29
512.797	5.45
512.997	5.34
513.197	5.47
513.396	5.55
513.596	5.54
513.795	5.58
513.994	5.61
514.194	5.61
514.393	5.71
514.593	5.92
514.792	5.9
514.992	5.89
515.191	5.92
515.39	5.86
515.59	5.76
515.789	5.82
515.988	5.92
516.188	5.94
516.387	5.91
516.586	5.82
516.786	5.79
516.985	5.77
517.184	5.56
517.383	5.63
517.582	5.6
517.782	5.71
517.981	5.78
518.18	5.77
518.379	5.74
518.578	5.8
518.777	5.79
518.976	5.68
519.176	5.67
519.375	5.78
519.574	5.78
519.773	5.91
519.972	5.78
520.171	5.77
520.37	5.72
520.569	5.8
520.768	5.85
520.967	6
521.166	6.22
521.365	6.29
521.564	6.26
521.762	6.4
521.961	6.5
522.16	6.51
522.359	6.45
522.558	6.41
522.757	6.4
522.956	6.38
523.154	6.3
523.353	6.2
523.552	6.06
523.751	6.21
523.949	6.36
524.148	6.06
524.347	6.24
524.546	6.19
524.744	6.28
524.943	6.32
525.142	6.34
525.34	6.45
525.539	6.54
525.737	6.59
525.936	6.7
526.135	6.63
526.333	6.87
526.532	6.78
526.73	6.78
526.929	6.82
527.127	6.89
527.326	6.94
527.524	6.81
527.723	6.81
527.921	6.91
528.12	6.87
528.318	6.81
528.516	6.79
528.715	6.85
528.913	6.91
529.112	6.86
529.31	6.87
529.508	6.88
529.707	6.94
529.905	6.91
530.103	6.94
530.301	6.89
530.5	6.94
530.698	6.91
530.896	6.91
531.094	6.93
531.293	7.04
531.491	6.99
531.689	7.04
531.887	7.1
532.085	7.12
532.283	7.18
532.481	7.34
532.68	7.33
532.878	7.37
533.076	7.37
533.274	7.39
533.472	7.4
533.67	7.46
533.868	7.44
534.066	7.56
534.264	7.62
534.462	7.53
534.66	7.47
534.858	7.6
535.056	7.73
535.253	7.83
535.451	7.94
535.649	7.95
535.847	8.06
536.045	8.07
536.243	7.99
536.441	8.08
536.638	8.24
536.836	8.4
537.034	8.44
537.232	8.41
537.43	8.37
537.627	8.31
537.825	8.4
538.023	8.38
538.22	8.58
538.418	8.69
538.616	8.71
538.813	8.59
539.011	8.59
539.209	8.61
539.406	8.86
539.604	8.93
539.801	9.03
539.999	9.02
540.196	9.16
540.394	9.14
540.591	9.18
540.789	9.31
540.986	9.5
541.184	9.64
541.381	9.75
541.579	9.67
541.776	9.8
541.974	9.85
542.171	9.96
542.368	9.94
542.566	9.97
542.763	9.96
542.96	9.95
543.158	9.92
543.355	9.91
543.552	9.95
543.75	9.98
543.947	10
544.144	10.03
544.341	10.01
544.539	10.08
544.736	10.19
544.933	10.36
545.13	10.46
545.327	10.56
545.524	10.51
545.722	10.6
545.919	10.77
546.116	10.85
546.313	11.02
546.51	11.14
546.707	11.36
546.904	11.5
547.101	11.67
547.298	11.67
547.495	11.85
547.692	11.98
547.889	12.01
548.086	12.04
548.283	12.11
548.48	12.11
548.677	12.28
548.874	12.18
549.07	12.23
549.267	12.25
549.464	12.5
549.661	12.62
549.858	12.75
550.055	12.81
550.251	12.95
550.448	12.89
550.645	12.83
550.842	13.01
551.038	13.23
551.235	13.39
551.432	13.43
551.628	13.46
551.825	13.44
552.022	13.5
552.218	13.55
552.415	13.49
552.612	13.64
552.808	13.93
553.005	13.77
553.201	13.74
553.398	13.77
553.594	13.9
553.791	13.98
553.987	14.03
554.184	14.25
554.38	14.38
554.577	14.61
554.773	14.88
554.97	14.91
555.166	15.21
555.362	15.47
555.559	15.39
555.755	15.42
555.952	15.62
556.148	15.73
556.344	15.6
556.541	15.45
556.737	15.51
556.933	15.51
557.129	15.76
557.326	15.78
557.522	15.75
557.718	15.85
557.914	15.99
558.11	16.04
558.307	16.23
558.503	16.56
558.699	17.11
558.895	17.28
559.091	17.31
559.287	17.29
559.483	17.28
559.679	17.38
559.876	17.61
560.072	17.64
560.268	17.78
560.464	18
560.66	17.98
560.856	17.88
561.052	17.9
561.247	18.12
561.443	18.13
561.639	18.47
561.835	18.68
562.031	18.84
562.227	18.99
562.423	19.16
562.619	19.25
562.815	19.28
563.01	19.33
563.206	19.75
563.402	19.88
563.598	20.03
563.793	20.16
563.989	20.56
564.185	20.62
564.381	20.68
564.576	20.54
564.772	20.44
564.968	20.54
565.163	20.74
565.359	20.56
565.555	20.64
565.75	20.79
565.946	20.91
566.141	20.8
566.337	20.75
566.532	20.91
566.728	21.15
566.923	21.3
567.119	21.38
567.314	21.46
567.51	21.53
567.705	21.64
567.901	21.75
568.096	21.72
568.292	21.53
568.487	21.61
568.682	21.64
568.878	21.68
569.073	21.68
569.268	21.82
569.464	21.87
569.659	22.04
569.854	22.11
570.05	21.94
570.245	21.93
570.44	22
570.635	22.24
570.831	22.14
571.026	22.36
571.221	22.45
571.416	22.46
571.611	22.46
571.806	22.54
572.002	22.56
572.197	22.77
572.392	22.83
572.587	23.09
572.782	23.26
572.977	23.52
573.172	23.38
573.367	23.56
573.562	23.62
573.757	23.53
573.952	23.59
574.147	23.76
574.342	23.91
574.537	24.14
574.732	24.14
574.927	24.11
575.121	24.19
575.316	24.13
575.511	24.05
575.706	24.23
575.901	24.46
576.096	24.48
576.29	24.38
576.485	24.51
576.68	24.45
576.875	24.46
577.069	24.48
577.264	24.53
577.459	24.87
577.654	24.87
577.848	24.94
578.043	24.87
578.238	24.83
578.432	24.97
578.627	24.84
578.821	24.85
579.016	25.1
579.21	25.12
579.405	25.22
579.6	25.19
579.794	25.34
579.989	25.61
580.183	25.44
580.378	25.54
580.572	25.26
580.766	25.33
580.961	25.62
581.155	25.66
581.35	25.73
581.544	25.37
581.738	25.49
581.933	25.4
582.127	25.07
582.321	25.5
582.516	25.66
582.71	25.74
582.904	25.68
583.099	25.55
583.293	25.32
583.487	25.2
583.681	25.42
583.875	25.29
584.07	25.42
584.264	25.66
584.458	25.81
584.652	25.78
584.846	26.06
585.04	26.42
585.234	26.27
585.428	26.36
585.623	26.46
585.817	26.27
586.011	26.4
586.205	26.21
586.399	26.17
586.593	26.04
586.787	26.45
586.981	26.12
587.174	25.95
587.368	26.1
587.562	26.22
587.756	26.23
587.95	26.54
588.144	26.53
588.338	26.95
588.532	26.96
588.725	27.04
588.919	26.95
589.113	27.48
589.307	27.48
589.501	27.49
589.694	27.81
589.888	28.14
590.082	28.18
590.275	27.96
590.469	27.7
590.663	27.87
590.856	27.82
591.05	27.58
591.244	27.43
591.437	27.74
591.631	27.72
591.824	27.34
592.018	26.93
592.212	27.34
592.405	27.65
592.599	27.67
592.792	27.31
592.986	27.29
593.179	27.61
593.372	27.66
593.566	27.4
593.759	27.41
593.953	27.56
594.146	27.93
594.339	27.78
594.533	27.6
594.726	27.59
594.92	27.51
595.113	27.75
595.306	27.57
595.499	27.66
595.693	27.65
595.886	27.74
596.079	27.88
596.272	27.76
596.466	27.71
596.659	27.84
596.852	27.97
597.045	28.1
597.238	28.02
597.431	27.97
597.624	27.84
597.818	27.82
598.011	27.89
598.204	27.59
598.397	27.5
598.59	27.32
598.783	27.4
598.976	27.35
599.169	27.35
599.362	27.48
599.555	27.62
599.748	27.51
599.941	27.52
600.134	27.48
600.326	27.56
600.519	27.93
600.712	28
600.905	27.85
601.098	27.99
601.291	28.1
601.483	28.03
601.676	28.01
601.869	28.13
602.062	28.27
602.255	28.02
602.447	28.08
602.64	27.77
602.833	27.81
603.025	27.9
603.218	28.04
603.411	28.1
603.603	28.08
603.796	27.98
603.989	28.05
604.181	27.94
604.374	28.15
604.566	28.31
604.759	28.39
604.951	28.24
605.144	28.33
605.336	28.14
605.529	28.25
605.721	28.18
605.914	28.14
606.106	28.18
606.299	28.35
606.491	28.35
606.683	28.28
606.876	28.21
607.068	28.44
607.26	28.41
607.453	28.65
607.645	28.41
607.837	28.3
608.03	28.59
608.222	28.5
608.414	28.2
608.606	28.43
608.799	28.34
608.991	28.5
609.183	28.58
609.375	28.64
609.567	28.69
609.759	28.99
609.952	29.29
610.144	29.02
610.336	29.07
610.528	29.18
610.72	29.09
610.912	29.08
611.104	29.15
611.296	29.03
611.488	29.08
611.68	28.78
611.872	28.59
612.064	28.31
612.256	28.65
612.448	28.66
612.64	28.72
612.832	28.39
613.023	28.61
613.215	28.41
613.407	28.6
613.599	28.36
613.791	28.65
613.983	28.77
614.174	28.8
614.366	28.58
614.558	28.72
614.75	28.83
614.941	29.16
615.133	28.91
615.325	28.98
615.516	28.98
615.708	29.12
615.9	29.12
616.091	28.96
616.283	29.08
616.475	29.17
616.666	29.25
616.858	29.27
617.049	29.15
617.241	29.38
617.432	29.67
617.624	29.44
617.815	29.32
618.007	29.12
618.198	29.11
618.39	29.11
618.581	29.34
618.773	29.35
618.964	29.29
619.155	29.16
619.347	29.28
619.538	28.87
619.729	29.08
619.921	29.31
620.112	29.66
620.303	29.84
620.494	29.92
620.686	29.54
620.877	29.37
621.068	29.61
621.259	29.73
621.451	29.54
621.642	29.83
621.833	29.97
622.024	29.65
622.215	29.46
622.406	29.45
622.597	29.34
622.788	29.5
622.98	29.15
623.171	28.96
623.362	29.04
623.553	29.01
623.744	29.06
623.935	28.74
624.126	28.97
624.317	29.08
624.508	29.11
624.698	29.08
624.889	29.11
625.08	29.44
625.271	29.32
625.462	29.46
625.653	29.31
625.844	29.22
626.034	29.44
626.225	29.46
626.416	29.25
626.607	29.14
626.798	29.32
626.988	29.14
627.179	29.43
627.37	29.38
627.56	29.35
627.751	29.65
627.942	29.56
628.132	29.41
628.323	29.46
628.514	29.81
628.704	29.93
628.895	29.81
629.085	29.98
629.276	29.89
629.466	29.94
629.657	30.01
629.847	29.93
630.038	29.88
630.228	29.79
630.419	29.76
630.609	29.51
630.8	29.51
630.99	29.65
631.181	29.71
631.371	29.36
631.561	29.24
631.752	29.23
631.942	29.04
632.132	29.04
632.323	29.4
632.513	29.4
632.703	29.36
632.893	29.31
633.084	29.36
633.274	29.38
633.464	29.43
633.654	29.74
633.844	29.36
634.034	29.53
634.225	29.73
634.415	29.55
634.605	29.47
634.795	29.45
634.985	29.33
635.175	29.32
635.365	29.22
635.555	29.37
635.745	29.24
635.935	29.67
636.125	29.7
636.315	29.73
636.505	29.67
636.695	29.98
636.885	29.94
637.075	29.97
637.265	29.98
637.455	30.09
637.644	30.12
637.834	30.45
638.024	30.05
638.214	30.25
638.404	30.17
638.593	30.15
638.783	29.97
638.973	30.21
639.163	30.02
639.352	29.75
639.542	29.65
639.732	29.39
639.921	29.13
640.111	29.68
640.301	29.36
640.49	29.09
640.68	29.33
640.87	29.34
641.059	29.16
641.249	29.44
641.438	29.35
641.628	29.37
641.817	29.69
642.007	29.39
642.196	28.89
642.386	29.01
642.575	29.11
642.764	28.68
642.954	28.55
643.143	28.64
643.333	28.29
643.522	28.87
643.711	29.06
643.901	29.09
644.09	29.38
644.279	29.76
644.469	29.39
644.658	29.55
644.847	29.81
645.036	29.8
645.226	29.76
645.415	30.02
645.604	29.91
645.793	29.73
645.982	29.24
646.171	29.34
646.361	29.05
646.55	29.58
646.739	29.7
646.928	29.69
647.117	29.78
647.306	29.72
647.495	29.94
647.684	29.62
647.873	29.88
648.062	30.31
648.251	30.35
648.44	30.54
648.629	30.82
648.818	30.76
649.007	30.73
649.196	30.76
649.384	30.93
649.573	30.67
649.762	30.66
649.951	30.19
650.14	30.23
650.328	30.31
650.517	30.5
650.706	30.19
650.895	30.18
651.083	30.11
651.272	30.18
651.461	30.37
651.65	30.65
651.838	30.63
652.027	31.17
652.216	30.92
652.404	30.97
652.593	31.11
652.781	31.17
652.97	31.18
653.158	31.31
653.347	31.53
653.535	31.34
653.724	31.44
653.912	31.52
654.101	31.2
654.289	31.46
654.478	31.26
654.666	31.44
654.855	31.08
655.043	30.97
655.231	30.51
655.42	29.84
655.608	29.82
655.796	29.53
655.985	29.89
656.173	30.07
656.361	30.07
656.55	30.15
656.738	29.64
656.926	29.82
657.114	29.82
657.302	30.15
657.491	30.55
657.679	30.33
657.867	30.21
658.055	30.01
658.243	29.92
658.431	29.61
658.619	29.87
658.807	29.85
658.996	30.16
659.184	30.36
659.372	30.61
659.56	30.62
659.748	30.8
659.936	30.99
660.124	31.29
660.311	31.41
660.499	31.61
660.687	31.4
660.875	31.53
661.063	31.47
661.251	31.23
661.439	31.23
661.627	31.41
661.814	31.22
662.002	31.08
662.19	30.67
662.378	30.56
662.565	30.98
662.753	31.19
662.941	30.79
663.129	31.13
663.316	31.2
663.504	31.28
663.692	30.99
663.879	30.92
664.067	30.67
664.254	30.64
664.442	30.53
664.63	30.23
664.817	30.12
665.005	30.33
665.192	29.56
665.38	29.92
665.567	29.53
665.755	29.65
665.942	29.82
666.13	30.08
666.317	29.93
666.504	30.29
666.692	29.94
666.879	29.89
667.067	30.36
667.254	30.76
667.441	30.66
667.629	30.7
667.816	30.72
668.003	30.89
668.19	31.14
668.378	31.85
668.565	31.23
668.752	31.65
668.939	31.39
669.127	30.88
669.314	30.62
669.501	30.46
669.688	30.4
669.875	30.75
670.062	31.03
670.249	30.26
670.436	29.47
670.623	29.63
670.81	29.78
670.997	30.21
671.184	30.23
671.371	30.48
671.558	30.63
671.745	30.47
671.932	29.85
672.119	29.57
672.306	30.21
672.493	30.6
672.68	30.85
672.867	30.45
673.054	30.16
673.24	30.34
673.427	30.07
673.614	30.07
673.801	30.34
673.988	30.37
674.174	30.4
674.361	30.38
674.548	30.54
674.734	30.42
674.921	30.45
675.108	30.2
675.294	30.2
675.481	30.08
675.668	30.16
675.854	30.4
676.041	30.33
676.227	30.33
676.414	30.26
676.601	29.86
676.787	30.11
676.974	29.68
677.16	30.16
677.347	30.3
677.533	30.71
677.719	30.74
677.906	30.39
678.092	30.12
678.279	30.19
678.465	29.83
678.651	29.88
678.838	30.33
679.024	30.99
679.21	30.84
679.397	30.74
679.583	30.69
679.769	30.65
679.955	30.57
680.142	31.22
680.328	31.34
680.514	31.67
680.7	31.99
680.886	31.6
681.073	31.07
681.259	31.23
681.445	31.31
681.631	31.19
681.817	31.24
682.003	31.36
682.189	31.05
682.375	31.03
682.561	31.05
682.747	31.11
682.933	30.99
683.119	31.35
683.305	31.36
683.491	31.12
683.677	31.29
683.863	31.18
684.049	31.28
684.235	31.52
684.42	31.25
684.606	31.18
684.792	30.82
684.978	30.85
685.164	30.88
685.349	30.85
685.535	30.8
685.721	30.39
685.907	30.37
686.092	30.05
686.278	30.08
686.464	30.02
686.649	30.21
686.835	30.42
687.021	30.54
687.206	30.51
687.392	30.4
687.577	30.61
687.763	30.8
687.948	30.45
688.134	31.02
688.319	30.63
688.505	30.85
688.69	30.97
688.876	31.2
689.061	31.19
689.247	31.45
689.432	31.62
689.618	31.66
689.803	31.57
689.988	31.77
690.174	31.46
690.359	31.3
690.544	31.5
690.73	31.45
690.915	31.14
691.1	31.12
691.285	31.31
691.471	31.1
691.656	30.89
691.841	30.68
692.026	31.32
692.211	31.3
692.396	32.04
692.582	31.77
692.767	31.94
692.952	32.01
693.137	31.93
693.322	31.82
693.507	31.94
693.692	32.64
693.877	32.86
694.062	32.68
694.247	33.14
694.432	32.44
694.617	32.07
694.802	31.45
694.987	31.24
695.172	31.27
695.357	30.97
695.541	30.6
695.726	29.95
695.911	29.76
696.096	29.36
696.281	28.93
696.466	29.47
696.65	29.92
696.835	30.06
697.02	29.88
697.204	29.89
697.389	29.89
697.574	30.18
697.759	30.01
697.943	30.46
698.128	30.24
698.312	30.33
698.497	30.54
698.682	30.5
698.866	30.78
699.051	31.26
699.235	31.53
699.42	31.61
699.604	31.88
699.789	32.23
699.973	32
700.158	32.57
700.342	32.94
700.527	32.82
700.711	32.55
700.895	32.57
701.08	31.55
701.264	32.02
701.448	32.13
701.633	31.76
701.817	31.74
702.001	31.73
702.186	31.79
702.37	30.84
702.554	31.16
702.738	31.44
702.923	30.94
703.107	31.92
703.291	31.18
703.475	31.03
703.659	31.39
703.843	30.56
704.027	31.26
704.212	30.6
704.396	31.45
704.58	31.12
704.764	31.67
704.948	31.95
705.132	32.15
705.316	32.22
705.5	32.6
705.684	31.98
705.868	32.7
706.052	32.07
706.235	31.9
706.419	31.63
706.603	31.74
706.787	31.49
706.971	30.82
707.155	30.47
707.339	30.05
707.522	30.02
707.706	30.65
707.89	30.35
708.074	30.03
708.257	30.63
708.441	30.46
708.625	30.54
708.808	30.67
708.992	30.95
709.176	31.18
709.359	31.26
709.543	31.37
709.727	31.86
709.91	32.03
710.094	32.57
710.277	32.76
710.461	31.68
710.644	31.18
710.828	30.97
711.011	31.86
711.195	31.74
711.378	32.41
711.562	32.33
711.745	31.35
711.928	31.38
712.112	30.58
712.295	30.27
712.478	31.97
712.662	31.85
712.845	31.62
713.028	30.56
713.212	30.29
713.395	29.27
713.578	29
713.761	29.12
713.945	29.41
714.128	30.02
714.311	29.71
714.494	29.22
714.677	29.52
714.86	29.38
715.043	29.55
715.227	30.42
715.41	30.62
715.593	30.33
715.776	30.36
715.959	30.06
716.142	30.1
716.325	30.39
716.508	30.07
716.691	29.63
716.874	29.87
717.057	30.96
717.239	30.32
717.422	31.01
717.605	31.54
717.788	31.89
717.971	32.61
718.154	32.11
718.337	32.89
718.519	33.59
718.702	33.72
718.885	33.34
719.068	32.1
719.25	32.31
719.433	31.18
719.616	30.33
719.798	30.28
719.981	30.1
720.164	31.05
720.346	29.58
720.529	30.01
720.712	30.64
720.894	31.2
721.077	31.17
721.259	30.72
721.442	30.77
721.624	30.7
721.807	29.75
721.989	28.66
722.172	28.48
722.354	29.34
722.537	28.17
722.719	28.23
722.901	27.51
723.084	28.03
723.266	28.46
723.448	28.56
723.631	29.34
723.813	30.49
723.995	31.17
724.178	31.64
724.36	30.55
724.542	30.71
724.724	30.36
724.907	30.41
725.089	30.83
725.271	30.74
725.453	30.35
725.635	29.48
725.817	28.47
725.999	28.15
726.181	27.44
726.364	28.47
726.546	28.68
726.728	29.23
726.91	30.03
727.092	29.24
727.274	28.85
727.456	29.79
727.638	30.44
727.819	31.25
728.001	31.07
728.183	30.41
728.365	30
728.547	30.19
728.729	29.62
728.911	29.44
729.093	29.75
729.274	30.93
729.456	30.15
729.638	30.46
729.82	29.16
730.001	29.39
730.183	30.48
730.365	30.99
730.546	30.9
730.728	30.64
730.91	30.52
731.091	30.74
731.273	29.28
731.455	29.39
731.636	29.62
731.818	31.02
731.999	31.1
732.181	31.52
732.362	31.25
732.544	31.32
732.725	31.7
732.907	32.43
733.088	32.56
733.27	32.95
733.451	33.82
733.633	32.65
733.814	31.03
733.995	30.92
734.177	29.67
734.358	29.55
734.539	28.9
734.721	29.03
734.902	28.21
735.083	27.72
735.264	27.68
735.446	27.28
735.627	26.83
735.808	27.73
735.989	27.61
736.17	27.85
736.351	28.2
736.533	28.53
736.714	28.9
736.895	28.85
737.076	28.85
737.257	29.38
737.438	30.12
737.619	31.35
737.8	31.46
737.981	31.02
738.162	30.85
738.343	30.06
738.524	29.81
738.705	29.19
738.886	29.25
739.067	29.53
739.247	29.37
739.428	28.15
739.609	27.65
739.79	27.62
739.971	27.74
740.151	29.09
740.332	28.93
740.513	30.14
740.694	28.93
740.874	28.23
741.055	27.66
741.236	27.2
741.417	27.38
741.597	27.32
741.778	27.93
741.958	28.04
742.139	26.04
742.32	26.13
742.5	25.45
742.681	25.95
742.861	26.95
743.042	27.71
743.222	26.91
743.403	26.36
743.583	26.58
743.764	27.05
743.944	26.99
744.124	28.02
744.305	28.71
744.485	29.77
744.666	30.5
744.846	29.8
745.026	28.71
745.207	28.91
745.387	29.74
745.567	30.91
745.747	31.29
745.928	31.62
746.108	31.84
746.288	32.92
746.468	32.96
746.648	33.26
746.829	34.44
747.009	35.45
747.189	36.53
747.369	35.73
747.549	34.79
747.729	34.22
747.909	35.11
748.089	33.71
748.269	31.91
748.449	31.03
748.629	30.11
748.809	29.82
748.989	30.13
749.169	29.5
749.349	30.58
749.529	29.83
749.709	30.14
749.889	28.89
750.068	29.23
750.248	29.58
750.428	28.56
750.608	29.76
750.788	30.24
750.967	30.15
751.147	30.51
751.327	29.35
751.507	30.5
751.686	30.31
751.866	30.5
752.046	30.91
752.225	30.99
752.405	32.95
752.585	32.23
752.764	31.49
752.944	31.68
753.123	31.72
753.303	32.98
753.482	32.59
753.662	31.96
753.841	32.1
754.021	32.04
754.2	32.05
754.38	29.63
754.559	29.38
754.739	29.61
754.918	27.8
755.097	27.77
755.277	27.66
755.456	28.71
755.635	27.82
755.815	27.4
755.994	26.69
756.173	26.85
756.352	28.56
756.532	28.79
756.711	27.64
756.89	28.78
757.069	28.95
757.248	30.2
757.427	31.01
757.607	31.9
757.786	31.96
757.965	33.59
758.144	32.7
758.323	32.78
758.502	32.82
758.681	32.83
758.86	32.01
759.039	30.88
759.218	29.38
759.397	27.01
759.576	25.66
759.755	25.8
759.934	25.76
760.113	26.75
760.291	26.79
760.47	27.14
760.649	27.94
760.828	28.46
761.007	29.59
761.186	29.61
761.364	30.46
761.543	32.16
761.722	31.55
761.901	31.5
762.079	31.1
762.258	31.5
762.437	32.23
762.615	32.26
762.794	31.68
762.972	31.56
763.151	31.55
763.33	30.57
763.508	30.36
763.687	31.51
763.865	30.77
764.044	30.36
764.222	30.17
764.401	29.88
764.579	29.93
764.758	30.45
764.936	30.72
765.114	31.72
765.293	32.35
765.471	31.96
765.65	31.37
765.828	32.45
766.006	33.61
766.184	33.76
766.363	32.89
766.541	32.17
766.719	32.8
766.898	32.39
767.076	30.96
767.254	30.94
767.432	31.12
767.61	31.8
767.788	30.37
767.967	29.21
768.145	27.87
768.323	27.73
768.501	27.14
768.679	27.29
768.857	28.46
769.035	28.45
769.213	28.27
769.391	28.72
769.569	27.29
769.747	27.43
769.925	28.28
770.103	28.6
770.281	30.27
770.459	30.61
770.636	29.91
770.814	29.29
770.992	29.57
771.17	29.66
771.348	30.77
771.525	31.17
771.703	30.38
771.881	30.26
772.059	30.44
772.236	29.34
772.414	30.68
772.592	31.01
772.769	30.18
772.947	29.82
773.125	30.53
773.302	31.2
773.48	33.15
773.657	33.22
773.835	31.38
774.013	31.68
774.19	29.67
774.368	29.76
774.545	29.99
774.723	29.31
774.9	29.16
775.077	28.46
775.255	27.59
775.432	23.38
775.61	23.79
775.787	23.46
775.964	23.03
776.142	23.97
776.319	23.89
776.496	23.47
776.674	22.87
776.851	21.78
777.028	19.69
777.205	15.82
777.382	19.42
777.56	20.03
777.737	21
777.914	20.43
778.091	23.13
778.268	22.99
778.445	21.9
778.622	21.7
778.8	22.8
778.977	24.41
779.154	26.97
779.331	23.89
779.508	23.91
779.685	25.51
779.862	27.42
780.038	27.09
780.215	25.82
780.392	26.3
780.569	27.49
780.746	27.54
780.923	27.78
781.1	26
781.277	29.25
781.453	30.66
781.63	30.98
781.807	27.05
781.984	25.11
782.16	24.77
782.337	26.16
782.514	24.51
782.691	25.05
782.867	27.37
783.044	26.97
783.221	25.73
783.397	24.53
783.574	21.48
783.75	26.24
783.927	27.86
784.103	29.29
784.28	27.18
784.456	31.69
784.633	29.78
784.809	27.55
784.986	31.63
785.162	31.85
785.339	31.96
785.515	34.02
785.692	31.72
785.868	29.92
786.044	31.78
786.221	32.79
786.397	29.72
786.573	30.49
786.749	31.66
786.926	29.57
787.102	30.26
787.278	30.51
787.454	32.16
787.631	32.72
787.807	34.48
787.983	33.94
788.159	35.32
788.335	35.53
788.511	35.74
788.687	33.79
788.863	34.85
789.039	33.65
789.216	31.3
789.392	29.89
789.568	31.1
789.744	28.79
789.919	28.94
790.095	28.23
790.271	27.14
790.447	26.7
790.623	26.46
790.799	24.8
790.975	27.82
791.151	29.46
791.327	29.58
791.502	27.47
791.678	29.49
791.854	28.88
792.03	25.83
792.205	27.32
792.381	27.52
792.557	30.09
792.733	30.2
792.908	27.53
793.084	25.91
793.259	24.63
793.435	26.63
793.611	23.3
793.786	22.05
793.962	22.5
794.137	24.05
794.313	26.08
794.488	22.82
794.664	20.39
794.839	21.15
795.015	19.87
795.19	22.73
795.366	21.73
795.541	21.43
795.716	21.38
795.892	23.38
796.067	25.04
796.242	23.86
796.418	25.84
796.593	29.41
796.768	29.3
796.944	32.61
797.119	30.37
797.294	30.26
797.469	33.08
797.644	33.39
797.82	33.66
797.995	33.64
798.17	34.81
798.345	34.95
798.52	32.44
798.695	31.62
798.87	33.03
799.045	32.95
799.22	33.22
799.395	35.05
799.57	36.61
799.745	37.43
799.92	32.47
800.095	30.18
800.27	27.38
800.445	28.12
800.62	30.31
800.795	28.04
800.97	26.29
801.145	24.33
801.319	23.8
801.494	21.48
801.669	22.5
801.844	25.62
802.018	28.86
802.193	31.52
802.368	31.44
802.543	32.55
802.717	30.7
802.892	33.25
803.067	33.64
803.241	32.29
803.416	32.09
803.59	30.35
803.765	29.17
803.94	25.6
804.114	28.24
804.289	28.78
804.463	28.13
804.638	28.98
804.812	30.62
804.986	34.48
805.161	34.3
805.335	35.18
805.51	33.81
805.684	33.31
805.858	35.08
806.033	31.08
806.207	28.49
806.381	26.46
806.556	26.54
806.73	21.94
806.904	17.6
807.078	13.33
807.253	12.77
807.427	10.59
807.601	12.24
807.775	12.29
807.949	14.97
808.123	22.65
808.298	20.66
808.472	19.3
808.646	22.14
808.82	24.35
808.994	30.39
809.168	28.91
809.342	31.14
809.516	31.73
809.69	33.26
809.864	31.11
810.038	27.14
810.212	28.7
810.385	29.9
810.559	26.69
810.733	24.49
810.907	21.79
811.081	23.14
811.255	22.23
811.428	21.92
811.602	17.58
811.776	22.33
811.95	19.81
812.123	20.17
812.297	22.27
812.471	25.79
812.644	26.69
812.818	25.71
812.992	29.09
813.165	32.16
813.339	29.37
813.512	34.83
813.686	32.31
813.86	31.76
814.033	32.56
814.207	30.12
814.38	27.46
814.554	26.33
814.727	28.57
814.9	26.4
815.074	24.99
815.247	28.06
815.421	24.81
815.594	24.05
815.767	19.17
815.941	17.86
816.114	19.92
816.287	22.65
816.46	18.39
816.634	15.85
816.807	13.78
816.98	6.38
817.153	4.84
817.327	2.79
817.5	3.06
817.673	8.64
817.846	14.99
818.019	13.87
818.192	14.25
818.365	17.17
818.538	18.49
818.711	21.02
818.884	27.91
819.057	31.49
819.23	34.26
819.403	35.16
819.576	34.21
819.749	28.48
819.922	26.34
820.095	26.67
820.268	29.06
820.441	30.31
820.614	31.03
820.786	31.12
820.959	30.84
821.132	29.13
821.305	29.42
821.477	31.8
821.65	32.56
821.823	34.23
821.996	33.28
822.168	32.17
822.341	32.67
822.514	32.24
822.686	31.8
822.859	31.78
823.031	32.91
823.204	33.12
823.376	33
823.549	33.41
823.722	33.19
823.894	33.59
824.067	34.09
824.239	33.27
824.411	32.47
824.584	33.15
824.756	33.27
824.929	31.19
825.101	31.05
825.273	29.73
825.446	28.45
825.618	28.8
825.79	30.28
825.963	31.12
826.135	30.86
826.307	31.38
826.479	30.36
826.652	29.36
826.824	31.51
826.996	31.39
827.168	31.87
827.34	33.29
827.512	33.16
827.684	30.96
827.856	30.56
828.029	30.88
828.201	31.02
828.373	31.36
828.545	31.69
828.717	30.59
828.889	29.33
829.061	30.73
829.232	30.13
829.404	27.64
829.576	27.94
829.748	30.13
829.92	30.6
830.092	30.29
830.264	31.7
830.436	30.53
830.607	33.5
830.779	33.74
830.951	33.24
831.123	33.81
831.294	37.12
831.466	36.93
831.638	32.07
831.809	31.68
831.981	30.33
832.153	24.76
832.324	26.82
832.496	21.92
832.667	24.76
832.839	23.06
833.011	21.2
833.182	20.23
833.354	22.95
833.525	25.22
833.697	26.76
833.868	30.85
834.039	34.31
834.211	34.35
834.382	36.04
834.554	34.55
834.725	33.11
834.896	32.1
835.068	30.1
835.239	30.9
835.41	32.6
835.581	33.51
835.753	29.67
835.924	29.51
836.095	28.93
836.266	27.09
836.438	27.11
836.609	29.42
836.78	32.56
836.951	36.06
837.122	34.95
837.293	32.31
837.464	32.03
837.635	37.76
837.806	35.9
837.977	36.78
838.148	40.7
838.319	39.44
838.49	35.55
838.661	34.69
838.832	30.89
839.003	25.89
839.174	25.49
839.345	20.07
839.516	12.72
839.687	16.43
839.857	12.84
840.028	6.4
840.199	12.12
840.37	17.98
840.54	8.44
840.711	12.33
840.882	16.04
841.053	16.42
841.223	20.41
841.394	21.59
841.564	20.05
841.735	25.3
841.906	31.19
842.076	30.41
842.247	32.82
842.417	38.51
842.588	34.71
842.758	41.62
842.929	44.62
843.099	43.31
843.27	45.09
843.44	44.05
843.611	42.76
843.781	32.96
843.951	35.32
844.122	29.56
844.292	31.75
844.462	38.37
844.633	28.5
844.803	24.71
844.973	28.49
845.144	21.74
845.314	22.83
845.484	18.63
845.654	25.46
845.824	16.51
845.995	16.57
846.165	15.11
846.335	13.48
846.505	20.55
846.675	25.76
846.845	26.38
847.015	27.64
847.185	26.48
847.355	31.42
847.525	27.06
847.695	49.49
847.865	46.01
848.035	40.8
848.205	34.94
848.375	33.84
848.545	23.42
848.715	16.24
848.884	7.39
849.054	13.11
849.224	9.35
849.394	7.15
849.564	-0.15
849.733	7.71
849.903	16.82
850.073	25.63
850.243	22.02
850.412	32.46
850.582	27.71
850.752	38.98
850.921	34.17
851.091	36.47
851.26	34.16
851.43	26.11
851.599	35.13
851.769	36.48
851.939	28.13
852.108	28.65
852.278	31.27
852.447	38.3
852.616	38.14
852.786	39.57
852.955	47.41
853.125	52.09
853.294	54.11
853.463	44.65
853.633	36.38
853.802	31.13
853.971	38.64
854.141	21.65
854.31	14.39
854.479	26.94
854.648	30.25
854.818	16.99
854.987	18.27
855.156	20.96
855.325	15.73
855.494	18.83
855.663	26.03
855.832	15.09
856.001	22.78
856.171	32.55
856.34	27.17
856.509	20.27
856.678	19.72
856.847	14.68
857.016	15.02
857.185	22.07
857.353	18.2
857.522	4.7
857.691	7.12
857.86	19.49
858.029	12.62
858.198	-2.29
858.367	5.15
858.535	12.77
858.704	18.91
858.873	20.88
859.042	24.87
859.21	29.48
859.379	36.09
859.548	29.63
859.717	8.49
859.885	18.07
860.054	25.85
860.222	19.01
860.391	9.31
860.56	11.43
860.728	-1.86
860.897	5.44
861.065	18.05
861.234	30.27
861.402	40.6
861.571	45.89
861.739	34.6
861.908	34.96
862.076	43.54
862.244	47.69
862.413	38.55
862.581	47.21
862.749	46.37
862.918	35.29
863.086	26.55
863.254	29.11
863.423	35.28
863.591	38.69
863.759	38.36
863.927	38.44
864.096	37.26
864.264	30.12
864.432	32.23
864.6	20.1
864.768	4.51
864.936	17.03
865.104	16.71
865.272	11.84
865.44	-22.16
865.608	-11.17
865.776	-10.95
865.944	-11.28
866.112	14.57
866.28	-7.27
866.448	0.07
866.616	4.18
866.784	-6.17
866.952	5.1
867.12	-4.85
867.288	21.21
867.455	25.94
867.623	29.97
867.791	35.85
867.959	11.02
868.127	24.51
868.294	23.36
868.462	27.16
868.63	39.92
868.797	39.65
868.965	47.12
869.133	42.65
869.3	32.39
869.468	24.63
869.636	31.05
869.803	33.03
869.971	30
870.138	21.39
870.306	15.86
870.473	1.41
870.641	-26.56
870.808	0.86
870.975	-15.88
871.143	-9.06
871.31	10.48
871.478	-3.08
871.645	26.5
871.812	35.01
871.98	36.47
872.147	37.52
872.314	28.64
872.482	23.24
872.649	17.1
872.816	20.34
872.983	37.76
873.15	27.09
873.318	37.52
873.485	9.27
873.652	1.72
873.819	6.91
873.986	6.26
874.153	16.04
874.32	11.59
874.487	-1.42
874.654	-5.95
874.821	-17.74
874.988	-18.82
875.155	-30.92
875.322	-4.87
875.489	2.91
875.656	2.18
875.823	16.05
875.99	16.85
876.157	24.51
876.324	26.25
876.49	23.23
876.657	20.46
876.824	27.87
876.991	33.98
877.157	22.16
877.324	21.44
877.491	29.43
877.658	15.05
877.824	9.47
877.991	2.55
878.157	11.38
878.324	24.78
878.491	31.59
878.657	20.3
878.824	6.19
878.99	23.63
879.157	22.3
879.323	6.11
879.49	21.98
879.656	19.47
879.823	24.55
879.989	29.68
880.156	13.32
880.322	-1.48
880.488	3.7
880.655	14.52
880.821	11.17
880.987	9.98
881.154	7.92
881.32	12.22
881.486	25.23
881.652	24.62
881.819	22.36
881.985	27.63
882.151	34.08
882.317	33.84
882.483	31.83
882.649	33.06
882.816	31.79
882.982	34.76
883.148	32.05
883.314	29.84
883.48	31.64
883.646	30.13
883.812	29.85
883.978	28.98
884.144	27.82
884.31	26.41
884.476	25.42
884.642	27.61
884.807	24.82
884.973	23.99
885.139	20.72
885.305	19.45
885.471	18.08
885.637	18.73
885.802	17.25
885.968	19.24
886.134	19.1
886.3	17.3
886.465	12.62
886.631	11.61
886.797	13.67
886.962	19.33
887.128	16.82
887.293	18.62
887.459	20.54
887.625	17.13
887.79	9.21
887.956	0.84
888.121	3.31
888.287	3.95
888.452	5.94
888.618	2.96
888.783	-15.62
