Data from 2937859_Reflection_1.txt Node
Date: Wed Jul 15 15:29:59 EDT 2015
User: robert
Spectrometer: USB4E03001
Autoset integration time: false
Trigger mode: 4
Integration Time (sec): 1.000000E-1
Scans to average: 10
Electric dark correction enabled: true
Nonlinearity correction enabled: false
Boxcar width: 5
Stray light correction enabled: false
XAxis mode: Wavelengths
Stop averaging: false
Number of Pixels in Spectrum: 3648
>>>>>Begin Spectral Data<<<<<
177.566	-56.18
177.785	-24.3
178.005	-6.61
178.225	1.81
178.445	-108.87
178.665	-259.22
178.885	-2213.33
179.105	671.43
179.324	199.59
179.544	65.53
179.764	54.56
179.984	94.95
180.204	96.83
180.423	181.85
180.643	190.84
180.863	169.92
181.083	178.79
181.302	185.26
181.522	180.25
181.742	167.47
181.961	197.17
182.181	239.76
182.401	231.4
182.621	198.61
182.84	231.76
183.06	189.36
183.279	208.85
183.499	199.44
183.719	250.39
183.938	349.29
184.158	237.25
184.377	171.25
184.597	138.01
184.816	129.94
185.036	147.73
185.256	77.46
185.475	124.25
185.695	53.51
185.914	-4.06
186.134	85.48
186.353	69.4
186.572	107.71
186.792	138.45
187.011	93.91
187.231	82.51
187.45	86.03
187.67	121
187.889	98.15
188.108	148.21
188.328	147.81
188.547	129.77
188.766	99.64
188.986	117.92
189.205	129.1
189.424	180.49
189.644	288.33
189.863	284.68
190.082	222.52
190.302	-56.74
190.521	6.74
190.74	-3.69
190.959	-141.65
191.178	-43.63
191.398	-77.12
191.617	-123.61
191.836	-133.97
192.055	-105.52
192.274	-67.05
192.494	4.35
192.713	28.14
192.932	4.34
193.151	28.23
193.37	135.58
193.589	3597.27
193.808	809.86
194.027	1063.17
194.246	304.19
194.465	161.61
194.685	267.7
194.904	167.68
195.123	128.66
195.342	194.24
195.561	184.03
195.78	150.82
195.999	73.53
196.218	83.14
196.436	74.97
196.655	92.37
196.874	99.72
197.093	99.47
197.312	99.25
197.531	132.31
197.75	133.19
197.969	135.92
198.188	121.34
198.407	143.4
198.625	135.85
198.844	177.87
199.063	302.59
199.282	215.62
199.501	175.57
199.719	370.25
199.938	153.69
200.157	100.75
200.376	85.59
200.594	92.56
200.813	105.61
201.032	107.7
201.251	102.19
201.469	121.02
201.688	122.93
201.907	128.09
202.125	75.73
202.344	55.07
202.563	59.97
202.781	52.68
203	30.83
203.218	43.32
203.437	7125
203.656	780.08
203.874	-265.73
204.093	-190.21
204.311	-22.87
204.53	-85.26
204.748	11.83
204.967	11.24
205.185	18.02
205.404	20.85
205.622	48.84
205.841	64.84
206.059	76.84
206.278	71.62
206.496	108.15
206.715	131.2
206.933	133.93
207.151	170.37
207.37	148.66
207.588	180.69
207.806	152.35
208.025	113.07
208.243	95.22
208.461	88.62
208.68	85.19
208.898	64.41
209.116	64.65
209.335	65.35
209.553	55.95
209.771	63.31
209.989	42.89
210.208	40.56
210.426	24.48
210.644	61.37
210.862	52.99
211.081	64.34
211.299	58.09
211.517	46.34
211.735	42.99
211.953	37.34
212.171	53.1
212.39	65.91
212.608	56.28
212.826	60.67
213.044	48.19
213.262	46.01
213.48	43.74
213.698	70.98
213.916	77.54
214.134	80
214.352	101.09
214.57	115.23
214.788	88.46
215.006	105.27
215.224	120.79
215.442	118.47
215.66	123.08
215.878	143.92
216.096	115.03
216.314	133.69
216.532	120.06
216.75	125.45
216.968	93.6
217.185	100.44
217.403	109.3
217.621	95.57
217.839	74.88
218.057	84.32
218.275	70.65
218.492	77.18
218.71	57.76
218.928	4.27
219.146	-29.63
219.363	13.68
219.581	37.87
219.799	68.11
220.017	74.79
220.234	80.12
220.452	72.36
220.67	64.83
220.887	58.39
221.105	58.8
221.323	50.19
221.54	65.68
221.758	69.81
221.976	76.5
222.193	49.37
222.411	49.96
222.629	50.15
222.846	54.8
223.064	52.03
223.281	61.05
223.499	60.81
223.716	65.78
223.934	67.28
224.151	66.13
224.369	54.37
224.586	59.55
224.804	54.02
225.021	61.85
225.239	61.54
225.456	72.5
225.674	57.9
225.891	50.71
226.108	50.53
226.326	38.79
226.543	45.99
226.76	51.28
226.978	38.83
227.195	42.26
227.413	33.47
227.63	26.53
227.847	21.01
228.064	21.12
228.282	19.03
228.499	19.12
228.716	19.73
228.934	15.84
229.151	17.56
229.368	19.5
229.585	19.22
229.802	20.98
230.02	21.01
230.237	19.56
230.454	18.41
230.671	17.41
230.888	16.77
231.105	17.3
231.323	14.55
231.54	11.56
231.757	4.03
231.974	-3.83
232.191	-3.74
232.408	-2.14
232.625	1.65
232.842	3.33
233.059	9.31
233.276	10.09
233.493	9.47
233.71	10.48
233.927	8.87
234.144	16.51
234.361	16.89
234.578	14.62
234.795	15.33
235.012	15.52
235.229	12.52
235.446	8.8
235.663	13.46
235.879	18.75
236.096	22.4
236.313	23.5
236.53	23.3
236.747	25.6
236.964	26.9
237.181	26.7
237.397	24.28
237.614	28.23
237.831	30.04
238.048	26.78
238.264	22.27
238.481	21.81
238.698	25.93
238.915	25.29
239.131	23.47
239.348	25.95
239.565	26.79
239.781	28.14
239.998	23.65
240.215	19.35
240.431	18.83
240.648	19.34
240.865	19.61
241.081	17.43
241.298	18.22
241.514	20.1
241.731	19.96
241.947	17.6
242.164	18.19
242.38	18.19
242.597	19.62
242.814	20.64
243.03	20.75
243.246	21.53
243.463	22.22
243.679	21.9
243.896	21
244.112	20.04
244.329	21.63
244.545	21.79
244.762	21.8
244.978	20.8
245.194	21.06
245.411	21.46
245.627	18.84
245.843	17.46
246.06	17.84
246.276	17.98
246.492	17.43
246.709	16.22
246.925	15.36
247.141	15.47
247.357	15.59
247.574	14.83
247.79	14.42
248.006	14.93
248.222	15.26
248.439	13.71
248.655	12.83
248.871	12.66
249.087	13.33
249.303	13.09
249.519	13
249.736	13.15
249.952	11.79
250.168	12.03
250.384	11.82
250.6	9.08
250.816	11.23
251.032	13.18
251.248	12.56
251.464	12.63
251.68	11.83
251.896	11.6
252.112	11.1
252.328	13.94
252.544	13.09
252.76	12.96
252.976	14.58
253.192	14.39
253.408	14.44
253.624	13.9
253.84	12.92
254.056	13.56
254.272	13.82
254.487	15.17
254.703	10.17
254.919	9.42
255.135	11.27
255.351	9.77
255.567	10.57
255.782	8.1
255.998	9.55
256.214	12.54
256.43	15.96
256.646	17.3
256.861	16.23
257.077	17.66
257.293	19.15
257.508	15.6
257.724	15.15
257.94	14.25
258.155	12.88
258.371	12.88
258.587	12.11
258.802	10.04
259.018	8.96
259.234	8.54
259.449	9.04
259.665	8.72
259.88	9.22
260.096	9.97
260.312	10.33
260.527	10.62
260.743	10.4
260.958	10.22
261.174	10.26
261.389	11.16
261.605	10.91
261.82	10.65
262.036	10.61
262.251	9.63
262.466	8.42
262.682	7.57
262.897	7.1
263.113	7.1
263.328	5.86
263.543	7.9
263.759	6.79
263.974	8.08
264.189	6.2
264.405	4.9
264.62	7.87
264.835	8.52
265.051	7.32
265.266	9.26
265.481	9.02
265.696	10.47
265.912	8.77
266.127	10.67
266.342	9.64
266.557	11.89
266.773	12.4
266.988	11.48
267.203	11.64
267.418	12.56
267.633	10.77
267.848	9.92
268.064	10.86
268.279	10.89
268.494	9.53
268.709	10.83
268.924	10.73
269.139	11.39
269.354	11.03
269.569	11.24
269.784	10.79
269.999	11.2
270.214	12.08
270.429	10.71
270.644	10
270.859	9.11
271.074	8.29
271.289	7.56
271.504	6.95
271.719	6.97
271.934	5.78
272.149	6.23
272.363	6.42
272.578	5.99
272.793	6.05
273.008	7.4
273.223	8.37
273.438	8.37
273.653	9.73
273.867	11.4
274.082	11.74
274.297	12.1
274.512	12.61
274.726	12.72
274.941	12.71
275.156	14.77
275.371	13.59
275.585	13.91
275.8	14.55
276.015	13.19
276.229	12.28
276.444	12.05
276.659	12.46
276.873	12.5
277.088	11.4
277.302	11.38
277.517	9.51
277.732	10.78
277.946	10.04
278.161	11.32
278.375	12.34
278.59	12.64
278.804	12.03
279.019	12.82
279.233	12.96
279.448	15.05
279.662	13.38
279.877	12.52
280.091	12.9
280.306	12.42
280.52	9.63
280.735	9.37
280.949	9.12
281.163	10.02
281.378	10.49
281.592	9.97
281.806	9.19
282.021	11.1
282.235	11.88
282.449	10.94
282.664	11.57
282.878	12.49
283.092	13.34
283.307	13.33
283.521	13.27
283.735	11.83
283.949	12.63
284.164	12.98
284.378	12.02
284.592	10.9
284.806	10.23
285.02	12.28
285.234	11.94
285.449	11.1
285.663	10.7
285.877	10.54
286.091	10.94
286.305	10.06
286.519	9.08
286.733	10.79
286.947	11.71
287.161	12.34
287.375	10.63
287.589	10.36
287.803	10.27
288.017	11.26
288.231	11.18
288.445	11.26
288.659	12.11
288.873	12.86
289.087	10.94
289.301	11.24
289.515	11.29
289.729	11.13
289.943	10.42
290.157	11.65
290.371	10.54
290.584	10.43
290.798	10.24
291.012	9.35
291.226	8.73
291.44	8.42
291.654	7.69
291.867	7.18
292.081	6.45
292.295	7.13
292.509	5.82
292.722	5.77
292.936	5.26
293.15	5.09
293.364	5.44
293.577	6.03
293.791	7.41
294.005	6.85
294.218	6.71
294.432	8.07
294.645	7.24
294.859	7.24
295.073	7.98
295.286	9.97
295.5	11.29
295.713	11.22
295.927	11.95
296.14	12.14
296.354	11.93
296.568	12.21
296.781	12.13
296.994	13.42
297.208	14
297.421	14.08
297.635	13.51
297.848	13.44
298.062	13.31
298.275	12.34
298.489	11.93
298.702	13.01
298.915	12.96
299.129	12.56
299.342	12.99
299.555	11.98
299.769	12.27
299.982	12.16
300.195	11.71
300.409	11.97
300.622	12.54
300.835	13.84
301.048	15.06
301.262	15.59
301.475	16.42
301.688	14.8
301.901	15.7
302.115	14.66
302.328	14.17
302.541	14.34
302.754	14.95
302.967	15.39
303.18	14.84
303.393	13.14
303.607	11.82
303.82	11.16
304.033	12.18
304.246	9.65
304.459	9.08
304.672	10.69
304.885	11.42
305.098	11.3
305.311	11.65
305.524	11.63
305.737	11.04
305.95	11.26
306.163	12.05
306.376	13.33
306.589	16.22
306.802	16.72
307.015	15.69
307.228	14.33
307.44	12.67
307.653	13.22
307.866	13.44
308.079	13.89
308.292	14.38
308.505	12.3
308.718	11.95
308.93	13
309.143	14.36
309.356	15.57
309.569	16.67
309.781	16.8
309.994	16.63
310.207	16.82
310.42	16.56
310.632	17.05
310.845	18.73
311.058	18.19
311.27	16.85
311.483	16.59
311.696	15.46
311.908	13.97
312.121	14.21
312.333	13.09
312.546	12.2
312.759	12.05
312.971	11.12
313.184	9.62
313.396	10.02
313.609	10.58
313.821	9.72
314.034	10.89
314.246	12.98
314.459	14.07
314.671	14.82
314.884	16.47
315.096	17.02
315.309	18.12
315.521	19.02
315.733	18.39
315.946	17.9
316.158	18.3
316.371	18.02
316.583	17.28
316.795	17.07
317.008	17.64
317.22	16.38
317.432	14.94
317.644	14.26
317.857	14.11
318.069	14.65
318.281	14.1
318.494	14.79
318.706	14.76
318.918	14.35
319.13	14.08
319.342	12.56
319.555	13.03
319.767	14.27
319.979	15.89
320.191	16.08
320.403	14.1
320.615	15.11
320.827	14.32
321.039	13.27
321.252	12.98
321.464	13.94
321.676	15.08
321.888	14.62
322.1	13.89
322.312	12.01
322.524	10.94
322.736	13.69
322.948	13.13
323.16	12.31
323.372	12.67
323.584	11.93
323.796	10.5
324.007	10.12
324.219	10.27
324.431	10.88
324.643	11.5
324.855	11.91
325.067	10.85
325.279	11.2
325.491	11.5
325.702	12.17
325.914	13.42
326.126	15.19
326.338	15.22
326.55	14.66
326.761	14.74
326.973	14.7
327.185	15.06
327.396	14.4
327.608	14.23
327.82	14.18
328.032	13.26
328.243	12.02
328.455	9.57
328.666	9.27
328.878	8.59
329.09	8.53
329.301	7.46
329.513	7.45
329.725	9.5
329.936	10.46
330.148	11.23
330.359	10.23
330.571	11.29
330.782	13.43
330.994	14.63
331.205	16.91
331.417	16.63
331.628	16.7
331.84	15.42
332.051	14.3
332.262	13.49
332.474	13.3
332.685	13.99
332.897	14.7
333.108	14.25
333.319	13.07
333.531	12.26
333.742	13.76
333.953	14.02
334.165	15.18
334.376	14.72
334.587	14.36
334.799	14.15
335.01	15.14
335.221	14.42
335.432	15
335.644	15.25
335.855	14.19
336.066	13.08
336.277	12.23
336.488	12.07
336.7	13.29
336.911	13.98
337.122	14.11
337.333	13.81
337.544	14.03
337.755	11.83
337.966	12.35
338.177	13.26
338.388	14.01
338.599	15.42
338.811	14.96
339.022	14.12
339.233	13.68
339.444	13.67
339.655	14.65
339.866	15.29
340.076	16.28
340.287	16.04
340.498	15.64
340.709	15.18
340.92	15.42
341.131	16.46
341.342	16.92
341.553	16.02
341.764	16.65
341.975	14.86
342.185	14.33
342.396	14.4
342.607	14.49
342.818	16.02
343.029	16.21
343.239	15.71
343.45	15.68
343.661	16.13
343.872	17.2
344.082	16.46
344.293	17.7
344.504	16.73
344.714	17.11
344.925	17.91
345.136	17.21
345.346	16.86
345.557	16.1
345.768	15.39
345.978	14.33
346.189	14.34
346.399	14.93
346.61	14.83
346.821	15.71
347.031	16.31
347.242	15.75
347.452	15.13
347.663	15.25
347.873	17.37
348.084	17.17
348.294	18.19
348.504	19.22
348.715	18.73
348.925	18.4
349.136	18.32
349.346	17.1
349.557	16.41
349.767	15.28
349.977	15.69
350.188	14.71
350.398	15.41
350.608	14.92
350.819	13.38
351.029	13.2
351.239	12.26
351.449	11.99
351.66	12.48
351.87	13.42
352.08	15.07
352.29	13.93
352.501	14.08
352.711	14.22
352.921	14.17
353.131	14.18
353.341	14.07
353.552	15.2
353.762	14.81
353.972	14.61
354.182	13.57
354.392	12.23
354.602	12.57
354.812	12.18
355.022	11.82
355.232	11.97
355.442	11.82
355.652	12.11
355.862	11.19
356.072	11.51
356.282	11.5
356.492	11.35
356.702	12.56
356.912	12.47
357.122	12.27
357.332	12.17
357.542	12.25
357.752	12.83
357.962	12.71
358.171	13.59
358.381	13.24
358.591	13.39
358.801	13.39
359.011	13.77
359.221	13.87
359.43	14.16
359.64	14.71
359.85	14.13
360.06	13.6
360.269	13.95
360.479	13.3
360.689	13.58
360.899	13.89
361.108	14.17
361.318	13.93
361.528	14.07
361.737	13.99
361.947	13.67
362.156	14.1
362.366	14.62
362.576	14.2
362.785	13.92
362.995	13.67
363.204	13.41
363.414	13.61
363.623	13.29
363.833	12.94
364.042	13.38
364.252	13.32
364.461	13.24
364.671	12.65
364.88	12.88
365.09	13.46
365.299	13.73
365.509	14.57
365.718	14.27
365.927	14.4
366.137	14.92
366.346	14.36
366.555	14.86
366.765	14.17
366.974	14.15
367.183	13.82
367.393	14.02
367.602	13.85
367.811	12.66
368.021	13.43
368.23	13.22
368.439	13.09
368.648	12.52
368.857	12.1
369.067	12.07
369.276	12.31
369.485	11.57
369.694	10.52
369.903	10.32
370.112	10.17
370.321	9.27
370.531	9.59
370.74	9.87
370.949	10.55
371.158	10.03
371.367	10.27
371.576	9.99
371.785	10.86
371.994	11.31
372.203	11.57
372.412	11.92
372.621	12.42
372.83	11.62
373.039	11.04
373.248	11.09
373.457	11.22
373.666	11.02
373.874	10.79
374.083	10.88
374.292	11.37
374.501	11.16
374.71	10.91
374.919	10.45
375.128	10.58
375.336	10.69
375.545	10.22
375.754	10.24
375.963	10.07
376.171	10.43
376.38	11.14
376.589	10.64
376.798	10.54
377.006	10.76
377.215	10.52
377.424	10.9
377.632	10.78
377.841	10.91
378.05	10.69
378.258	11.29
378.467	11.26
378.675	10.39
378.884	11.11
379.093	11.19
379.301	10.85
379.51	11.2
379.718	10.96
379.927	10.99
380.135	11.22
380.344	11.54
380.552	11.22
380.761	10.81
380.969	10.72
381.177	9.53
381.386	9.68
381.594	9.06
381.803	8.75
382.011	9.08
382.219	9.17
382.428	8.31
382.636	8.08
382.845	7.72
383.053	7.99
383.261	8.16
383.469	8.89
383.678	8.49
383.886	8.9
384.094	9.24
384.302	8.66
384.511	8.91
384.719	9.29
384.927	9.47
385.135	9.78
385.343	9.63
385.552	9.51
385.76	8.99
385.968	8.86
386.176	8.54
386.384	7.96
386.592	8.52
386.8	8.49
387.008	8.42
387.216	8.24
387.424	8.34
387.633	8.28
387.841	8.79
388.049	8.96
388.257	8.73
388.465	8.76
388.672	9.28
388.88	8.51
389.088	7.94
389.296	8.12
389.504	7.89
389.712	7.49
389.92	7.54
390.128	6.66
390.336	6.73
390.544	7.45
390.751	7.63
390.959	6.98
391.167	7.56
391.375	7.47
391.583	6.96
391.79	6.95
391.998	6.95
392.206	6.88
392.414	7.29
392.621	7.11
392.829	7.01
393.037	7.13
393.244	7.77
393.452	7.44
393.66	7.82
393.867	7.91
394.075	8.11
394.283	8.33
394.49	8.36
394.698	7.96
394.905	7.83
395.113	7.53
395.32	7.38
395.528	6.81
395.735	6.9
395.943	6.95
396.15	7.02
396.358	6.72
396.565	6.45
396.773	6.48
396.98	6.45
397.188	6.72
397.395	6.8
397.602	6.82
397.81	6.71
398.017	6.79
398.225	6.42
398.432	6.54
398.639	6.61
398.847	6.52
399.054	6.23
399.261	6.62
399.468	6.22
399.676	6
399.883	6.11
400.09	6.26
400.297	6.06
400.505	5.97
400.712	5.9
400.919	5.63
401.126	5.71
401.333	5.87
401.54	5.61
401.748	5.7
401.955	5.62
402.162	5.55
402.369	5.34
402.576	5.28
402.783	5.41
402.99	5.35
403.197	5.57
403.404	5.48
403.611	5.69
403.818	5.88
404.025	5.93
404.232	6.02
404.439	5.8
404.646	6.03
404.853	6.09
405.06	6.09
405.267	6.16
405.474	6.25
405.681	6.27
405.887	6.34
406.094	6
406.301	5.94
406.508	6.05
406.715	6.23
406.922	6.39
407.128	6.51
407.335	6.64
407.542	6.36
407.749	6.39
407.955	6.51
408.162	6.12
408.369	6.29
408.575	6.48
408.782	6.54
408.989	6.24
409.195	6.04
409.402	6.13
409.609	5.87
409.815	6.39
410.022	6.3
410.228	6.39
410.435	6.22
410.642	6.31
410.848	6.24
411.055	6.17
411.261	6.32
411.468	6.43
411.674	6.1
411.881	6.16
412.087	6.15
412.294	6.03
412.5	5.93
412.706	6.43
412.913	6.5
413.119	6.69
413.326	6.9
413.532	7
413.738	7.01
413.945	7.28
414.151	7.51
414.357	7.24
414.564	7.45
414.77	7.28
414.976	6.93
415.182	6.65
415.389	6.17
415.595	5.91
415.801	5.89
416.007	5.63
416.214	5.33
416.42	5.13
416.626	4.83
416.832	4.82
417.038	4.98
417.244	4.8
417.45	4.98
417.657	4.99
417.863	4.89
418.069	4.98
418.275	5.1
418.481	5.13
418.687	5.12
418.893	5.43
419.099	5.22
419.305	5.07
419.511	5.24
419.717	5.1
419.923	5.13
420.129	5.08
420.335	4.93
420.541	4.91
420.746	5.01
420.952	4.94
421.158	4.77
421.364	4.81
421.57	4.88
421.776	4.94
421.982	4.85
422.187	4.87
422.393	4.87
422.599	4.91
422.805	4.74
423.01	4.52
423.216	4.59
423.422	4.54
423.628	4.63
423.833	4.56
424.039	4.49
424.245	4.56
424.45	4.65
424.656	4.7
424.862	4.78
425.067	5.02
425.273	5.07
425.478	5.07
425.684	5.2
425.889	5.14
426.095	5.19
426.301	5.11
426.506	5.12
426.712	5.11
426.917	5.26
427.123	5.14
427.328	5.11
427.533	5.11
427.739	5.02
427.944	5.05
428.15	5.1
428.355	5.12
428.561	5.29
428.766	5.24
428.971	5.15
429.177	5.12
429.382	5.05
429.587	4.89
429.793	5
429.998	4.87
430.203	4.77
430.408	4.67
430.614	4.8
430.819	4.82
431.024	4.99
431.229	4.74
431.434	4.64
431.64	4.72
431.845	4.71
432.05	4.65
432.255	4.95
432.46	4.99
432.665	4.97
432.87	4.83
433.076	4.85
433.281	4.76
433.486	4.87
433.691	5.01
433.896	5.07
434.101	5.19
434.306	5.32
434.511	5.24
434.716	5.29
434.921	5.3
435.126	5.24
435.331	5.08
435.535	5.24
435.74	5.43
435.945	5.29
436.15	5.21
436.355	5.11
436.56	4.87
436.765	4.88
436.97	4.9
437.174	5.12
437.379	5.29
437.584	5.22
437.789	5.17
437.993	5.07
438.198	4.81
438.403	4.77
438.608	4.64
438.812	4.68
439.017	4.64
439.222	4.6
439.426	4.39
439.631	4.35
439.836	4.25
440.04	4.17
440.245	4.14
440.45	4.35
440.654	4.54
440.859	4.69
441.063	4.75
441.268	4.79
441.472	4.76
441.677	4.71
441.881	4.69
442.086	4.88
442.29	4.93
442.495	4.96
442.699	4.95
442.904	4.55
443.108	4.63
443.312	4.8
443.517	4.68
443.721	4.68
443.925	4.85
444.13	4.81
444.334	4.8
444.538	4.79
444.743	4.8
444.947	4.75
445.151	4.87
445.356	4.61
445.56	4.5
445.764	4.61
445.968	4.62
446.173	4.52
446.377	4.58
446.581	4.62
446.785	4.61
446.989	4.58
447.193	4.59
447.398	4.75
447.602	5.02
447.806	4.94
448.01	4.9
448.214	4.94
448.418	5.11
448.622	5.04
448.826	4.9
449.03	4.78
449.234	4.76
449.438	4.86
449.642	4.67
449.846	4.45
450.05	4.46
450.254	4.28
450.458	4.4
450.662	4.41
450.866	4.37
451.069	4.67
451.273	4.72
451.477	4.86
451.681	4.73
451.885	4.8
452.089	4.62
452.292	4.71
452.496	4.86
452.7	4.62
452.904	4.52
453.107	4.67
453.311	4.47
453.515	4.52
453.719	4.52
453.922	4.64
454.126	4.74
454.33	4.9
454.533	4.73
454.737	4.83
454.94	5.13
455.144	5.21
455.348	5.06
455.551	5.1
455.755	5.06
455.958	4.88
456.162	4.67
456.365	4.63
456.569	4.78
456.772	4.91
456.976	4.77
457.179	4.65
457.383	4.59
457.586	4.55
457.79	4.72
457.993	4.89
458.196	5
458.4	5.12
458.603	4.94
458.807	4.88
459.01	4.81
459.213	4.82
459.417	4.72
459.62	4.72
459.823	4.8
460.026	4.63
460.23	4.57
460.433	4.63
460.636	4.67
460.839	4.68
461.042	4.81
461.246	4.97
461.449	4.99
461.652	4.89
461.855	4.87
462.058	4.82
462.261	4.87
462.464	4.89
462.668	4.76
462.871	4.76
463.074	5.03
463.277	4.62
463.48	4.36
463.683	4.39
463.886	4.47
464.089	4.56
464.292	4.67
464.495	4.87
464.698	4.93
464.901	5.04
465.104	4.98
465.306	4.79
465.509	4.79
465.712	5
465.915	5.04
466.118	5.25
466.321	5.28
466.524	5.16
466.726	5.02
466.929	5.08
467.132	5.05
467.335	5.04
467.538	4.94
467.74	4.97
467.943	4.87
468.146	4.77
468.348	4.63
468.551	4.58
468.754	4.52
468.956	4.49
469.159	4.4
469.362	4.33
469.564	4.47
469.767	4.66
469.969	4.7
470.172	4.76
470.375	4.62
470.577	4.65
470.78	4.69
470.982	4.77
471.185	4.91
471.387	5.01
471.59	5.24
471.792	5.01
471.995	5.11
472.197	5.21
472.399	5.08
472.602	5.35
472.804	5.29
473.007	5.15
473.209	5.2
473.411	5.21
473.614	5.09
473.816	4.89
474.018	4.98
474.22	4.94
474.423	4.91
474.625	5.03
474.827	5.02
475.03	5.15
475.232	5.26
475.434	5.18
475.636	5.05
475.838	4.92
476.04	4.96
476.243	4.91
476.445	4.83
476.647	4.74
476.849	4.81
477.051	4.79
477.253	4.56
477.455	4.44
477.657	4.38
477.859	4.31
478.061	4.27
478.263	4.15
478.465	4.24
478.667	4.32
478.869	4.32
479.071	4.33
479.273	4.26
479.475	4.38
479.677	4.48
479.879	4.44
480.081	4.57
480.283	4.55
480.485	4.49
480.686	4.47
480.888	4.48
481.09	4.71
481.292	4.56
481.494	4.6
481.695	4.61
481.897	4.49
482.099	4.54
482.301	4.49
482.502	4.53
482.704	4.45
482.906	4.4
483.107	4.21
483.309	4.15
483.511	4.08
483.712	3.98
483.914	4.01
484.115	4.02
484.317	3.98
484.519	3.9
484.72	3.9
484.922	3.98
485.123	3.97
485.325	4.03
485.526	4.05
485.728	4.17
485.929	4.18
486.131	4.13
486.332	4.18
486.534	4.24
486.735	4.37
486.936	4.37
487.138	4.29
487.339	4.22
487.541	4.26
487.742	4.18
487.943	4.12
488.144	4.21
488.346	4.2
488.547	4.16
488.748	4.17
488.95	4.17
489.151	4.12
489.352	4.2
489.553	4.24
489.755	4.26
489.956	4.38
490.157	4.5
490.358	4.53
490.559	4.55
490.76	4.58
490.961	4.53
491.163	4.47
491.364	4.5
491.565	4.47
491.766	4.47
491.967	4.45
492.168	4.39
492.369	4.29
492.57	4.27
492.771	4.31
492.972	4.33
493.173	4.41
493.374	4.41
493.575	4.4
493.776	4.42
493.976	4.39
494.177	4.29
494.378	4.23
494.579	4.36
494.78	4.21
494.981	4.06
495.182	4.09
495.382	4.01
495.583	4.07
495.784	4.35
495.985	4.31
496.185	4.49
496.386	4.54
496.587	4.63
496.788	4.62
496.988	4.62
497.189	4.72
497.39	4.74
497.59	4.76
497.791	4.73
497.992	4.5
498.192	4.6
498.393	4.57
498.593	4.67
498.794	4.6
498.994	4.71
499.195	4.78
499.395	4.71
499.596	4.73
499.796	4.74
499.997	4.73
500.197	4.88
500.398	4.77
500.598	4.79
500.799	4.76
500.999	4.8
501.199	4.75
501.4	4.89
501.6	5.12
501.801	5.01
502.001	5.18
502.201	5.12
502.402	4.92
502.602	5.12
502.802	5.08
503.002	5.17
503.203	5.22
503.403	5.22
503.603	5.09
503.803	5.02
504.003	4.97
504.204	4.86
504.404	4.85
504.604	4.98
504.804	4.9
505.004	4.92
505.204	4.93
505.404	4.89
505.604	4.9
505.804	4.93
506.005	4.88
506.205	4.91
506.405	4.95
506.605	5.06
506.805	5.01
507.005	5.11
507.204	5.08
507.404	5.16
507.604	5.34
507.804	5.19
508.004	5.23
508.204	5.3
508.404	5.45
508.604	5.47
508.804	5.64
509.003	5.81
509.203	5.84
509.403	6.05
509.603	5.86
509.803	5.82
510.002	6.07
510.202	6.14
510.402	6.21
510.602	6.13
510.801	6.03
511.001	6.02
511.201	6.1
511.4	6.12
511.6	5.99
511.8	6.13
511.999	6.07
512.199	5.96
512.398	5.95
512.598	5.85
512.797	5.94
512.997	5.98
513.197	5.89
513.396	5.78
513.596	5.7
513.795	5.79
513.994	5.94
514.194	5.92
514.393	5.96
514.593	6.02
514.792	6.07
514.992	5.94
515.191	6
515.39	6.06
515.59	6.12
515.789	6.22
515.988	6.27
516.188	6.15
516.387	6.26
516.586	6.23
516.786	6.22
516.985	6.3
517.184	6.43
517.383	6.48
517.582	6.49
517.782	6.59
517.981	6.59
518.18	6.49
518.379	6.52
518.578	6.59
518.777	6.64
518.976	6.64
519.176	6.72
519.375	6.7
519.574	6.65
519.773	6.71
519.972	6.7
520.171	6.73
520.37	6.75
520.569	6.8
520.768	6.71
520.967	6.81
521.166	6.95
521.365	6.93
521.564	7.01
521.762	7.17
521.961	7.18
522.16	7.03
522.359	7.1
522.558	7.17
522.757	7.12
522.956	7.23
523.154	7.02
523.353	6.96
523.552	7.02
523.751	7.02
523.949	7.2
524.148	7.1
524.347	7.34
524.546	7.36
524.744	7.45
524.943	7.51
525.142	7.61
525.34	7.87
525.539	7.88
525.737	7.95
525.936	7.98
526.135	7.89
526.333	8.05
526.532	8.1
526.73	8.11
526.929	8.15
527.127	8.19
527.326	8.2
527.524	8.1
527.723	8.06
527.921	8.06
528.12	8.13
528.318	8.14
528.516	8.18
528.715	8.13
528.913	8.1
529.112	8.06
529.31	8.11
529.508	8.09
529.707	8.13
529.905	8.24
530.103	8.2
530.301	8.18
530.5	8.15
530.698	8.11
530.896	8.21
531.094	8.3
531.293	8.36
531.491	8.39
531.689	8.51
531.887	8.55
532.085	8.48
532.283	8.65
532.481	8.76
532.68	8.9
532.878	8.95
533.076	8.84
533.274	8.84
533.472	8.99
533.67	9.04
533.868	9.05
534.066	9.18
534.264	9.28
534.462	9.2
534.66	9.17
534.858	9.27
535.056	9.38
535.253	9.59
535.451	9.82
535.649	9.75
535.847	9.9
536.045	9.86
536.243	9.79
536.441	9.79
536.638	9.95
536.836	10
537.034	10
537.232	10.05
537.43	10.09
537.627	9.97
537.825	10.11
538.023	10.07
538.22	10.32
538.418	10.4
538.616	10.57
538.813	10.58
539.011	10.76
539.209	10.78
539.406	10.86
539.604	10.87
539.801	11.05
539.999	11.03
540.196	11.07
540.394	10.97
540.591	10.98
540.789	11.11
540.986	11.23
541.184	11.23
541.381	11.28
541.579	11.22
541.776	11.27
541.974	11.24
542.171	11.38
542.368	11.38
542.566	11.48
542.763	11.59
542.96	11.56
543.158	11.53
543.355	11.57
543.552	11.72
543.75	11.8
543.947	11.81
544.144	11.95
544.341	11.97
544.539	12.07
544.736	12.08
544.933	12.16
545.13	12.26
545.327	12.35
545.524	12.49
545.722	12.41
545.919	12.58
546.116	12.66
546.313	12.77
546.51	12.8
546.707	12.96
546.904	13.06
547.101	13.1
547.298	13.14
547.495	13.27
547.692	13.33
547.889	13.49
548.086	13.66
548.283	13.7
548.48	13.63
548.677	13.84
548.874	13.89
549.07	14.05
549.267	14.27
549.464	14.37
549.661	14.45
549.858	14.62
550.055	14.49
550.251	14.45
550.448	14.66
550.645	14.85
550.842	14.92
551.038	14.88
551.235	14.98
551.432	15.05
551.628	15.16
551.825	15.16
552.022	15.26
552.218	15.46
552.415	15.56
552.612	15.69
552.808	15.76
553.005	15.72
553.201	15.74
553.398	15.94
553.594	16.03
553.791	16.03
553.987	16.21
554.184	16.29
554.38	16.47
554.577	16.67
554.773	16.74
554.97	16.79
555.166	16.96
555.362	17.1
555.559	17.15
555.755	17.31
555.952	17.59
556.148	17.65
556.344	17.55
556.541	17.54
556.737	17.51
556.933	17.59
557.129	17.81
557.326	17.79
557.522	18.04
557.718	17.97
557.914	17.82
558.11	17.74
558.307	17.77
558.503	18
558.699	18.14
558.895	18.21
559.091	17.99
559.287	17.93
559.483	18.2
559.679	18.17
559.876	18.3
560.072	18.46
560.268	18.79
560.464	19.13
560.66	19.1
560.856	19.12
561.052	19.53
561.247	19.76
561.443	19.8
561.639	19.7
561.835	19.83
562.031	19.93
562.227	20.01
562.423	20.09
562.619	20.17
562.815	20.42
563.01	20.45
563.206	20.53
563.402	20.7
563.598	20.69
563.793	20.9
563.989	21.18
564.185	21.36
564.381	21.41
564.576	21.27
564.772	21.06
564.968	21.07
565.163	21.06
565.359	20.89
565.555	20.91
565.75	21.17
565.946	21.35
566.141	21.18
566.337	21.11
566.532	21.24
566.728	21.43
566.923	21.75
567.119	21.59
567.314	21.75
567.51	21.69
567.705	21.85
567.901	21.94
568.096	21.71
568.292	21.79
568.487	21.9
568.682	21.82
568.878	21.87
569.073	21.74
569.268	21.95
569.464	22.12
569.659	22.26
569.854	22.53
570.05	22.59
570.245	22.7
570.44	22.74
570.635	22.97
570.831	22.88
571.026	22.81
571.221	22.74
571.416	22.85
571.611	22.87
571.806	22.9
572.002	22.83
572.197	22.79
572.392	22.96
572.587	23.2
572.782	23.08
572.977	23.6
573.172	23.75
573.367	23.88
573.562	23.96
573.757	23.97
573.952	24.23
574.147	24.34
574.342	24.6
574.537	24.73
574.732	24.85
574.927	24.89
575.121	24.55
575.316	24.55
575.511	24.57
575.706	24.6
575.901	24.87
576.096	24.83
576.29	24.73
576.485	24.61
576.68	24.63
576.875	24.41
577.069	24.57
577.264	24.83
577.459	25.08
577.654	25.26
577.848	25.41
578.043	25.11
578.238	25.1
578.432	25.29
578.627	25.39
578.821	25.39
579.016	25.55
579.21	25.76
579.405	25.68
579.6	25.42
579.794	25.54
579.989	25.61
580.183	25.85
580.378	25.96
580.572	25.95
580.766	25.95
580.961	26.23
581.155	26.3
581.35	26.17
581.544	26.17
581.738	26.63
581.933	26.62
582.127	26.7
582.321	26.67
582.516	26.6
582.71	26.48
582.904	26.45
583.099	26.58
583.293	26.49
583.487	26.59
583.681	26.74
583.875	26.43
584.07	26.58
584.264	26.35
584.458	26.56
584.652	26.76
584.846	26.88
585.04	27.18
585.234	26.84
585.428	26.88
585.623	26.57
585.817	26.57
586.011	26.88
586.205	26.62
586.399	26.79
586.593	26.84
586.787	26.98
586.981	27.11
587.174	27.2
587.368	27.19
587.562	27.23
587.756	27.8
587.95	28.04
588.144	27.79
588.338	28.03
588.532	28.09
588.725	28.02
588.919	27.92
589.113	27.85
589.307	27.83
589.501	27.81
589.694	28.11
589.888	27.91
590.082	27.8
590.275	27.95
590.469	28.04
590.663	28.1
590.856	28
591.05	28.12
591.244	28.29
591.437	28.4
591.631	28.67
591.824	28.48
592.018	28.5
592.212	28.73
592.405	28.7
592.599	28.6
592.792	28.59
592.986	28.61
593.179	28.73
593.372	28.59
593.566	28.36
593.759	28.24
593.953	28.32
594.146	28.46
594.339	28.35
594.533	28.65
594.726	28.49
594.92	28.34
595.113	28.6
595.306	28.31
595.499	28.33
595.693	28.37
595.886	28.53
596.079	28.59
596.272	28.51
596.466	28.56
596.659	28.27
596.852	28.47
597.045	28.57
597.238	28.44
597.431	28.56
597.624	28.76
597.818	28.82
598.011	28.8
598.204	28.75
598.397	28.65
598.59	28.63
598.783	28.82
598.976	28.91
599.169	28.99
599.362	29.12
599.555	29.3
599.748	29.06
599.941	28.97
600.134	29.1
600.326	29.16
600.519	29.53
600.712	29.45
600.905	29.5
601.098	29.38
601.291	29.67
601.483	29.57
601.676	29.34
601.869	29.29
602.062	29.49
602.255	29.41
602.447	29.29
602.64	29.43
602.833	29.4
603.025	29.35
603.218	29.34
603.411	29.33
603.603	29.44
603.796	29.62
603.989	29.67
604.181	29.62
604.374	29.72
604.566	29.75
604.759	29.46
604.951	29.6
605.144	29.73
605.336	29.78
605.529	29.71
605.721	29.67
605.914	29.39
606.106	29.6
606.299	29.54
606.491	29.49
606.683	29.64
606.876	29.75
607.068	29.77
607.26	29.72
607.453	29.66
607.645	29.51
607.837	29.68
608.03	30.1
608.222	29.89
608.414	29.86
608.606	29.76
608.799	29.83
608.991	29.62
609.183	29.83
609.375	29.83
609.567	29.99
609.759	30.08
609.952	30.25
610.144	29.9
610.336	30.06
610.528	30.08
610.72	30.08
610.912	30.07
611.104	30.3
611.296	30.05
611.488	30.01
611.68	29.98
611.872	30.08
612.064	29.9
612.256	30.3
612.448	30.4
612.64	30.41
612.832	30.42
613.023	30.25
613.215	30.24
613.407	30.26
613.599	30.14
613.791	30.31
613.983	30.23
614.174	30.21
614.366	30.13
614.558	30.15
614.75	30.44
614.941	30.57
615.133	30.21
615.325	30.24
615.516	30.18
615.708	30.42
615.9	30.39
616.091	30.72
616.283	30.63
616.475	30.51
616.666	30.73
616.858	30.87
617.049	30.96
617.241	31.36
617.432	31.66
617.624	31.68
617.815	31.82
618.007	31.7
618.198	31.51
618.39	31.53
618.581	31.78
618.773	31.49
618.964	31.31
619.155	31.03
619.347	31.07
619.538	31
619.729	31.26
619.921	31.16
620.112	31.56
620.303	31.59
620.494	31.82
620.686	31.59
620.877	31.55
621.068	31.67
621.259	32.01
621.451	32.1
621.642	32.04
621.833	32.01
622.024	32.03
622.215	31.82
622.406	32.02
622.597	31.95
622.788	32.4
622.98	32.25
623.171	31.93
623.362	31.8
623.553	31.57
623.744	31.44
623.935	31.11
624.126	31.29
624.317	31.29
624.508	30.79
624.698	31.05
624.889	30.83
625.08	30.89
625.271	31.1
625.462	31.18
625.653	31.27
625.844	31.33
626.034	31.49
626.225	31.33
626.416	31.09
626.607	31.57
626.798	31.09
626.988	31.03
627.179	31.11
627.37	31.13
627.56	31.22
627.751	31.6
627.942	31.75
628.132	31.77
628.323	31.85
628.514	32.28
628.704	32.28
628.895	32.4
629.085	32.4
629.276	32.55
629.466	32.61
629.657	32.64
629.847	32.26
630.038	31.94
630.228	31.93
630.419	31.96
630.609	31.62
630.8	31.64
630.99	31.86
631.181	32.24
631.371	31.91
631.561	31.65
631.752	31.82
631.942	31.9
632.132	32.1
632.323	32.25
632.513	32.04
632.703	32.08
632.893	31.78
633.084	31.94
633.274	32.01
633.464	32.38
633.654	32.87
633.844	32.8
634.034	33.01
634.225	33.22
634.415	33.09
634.605	33.32
634.795	33.35
634.985	33.78
635.175	33.72
635.365	33.23
635.555	33.13
635.745	32.98
635.935	32.69
636.125	32.66
636.315	32.69
636.505	32.91
636.695	32.88
636.885	32.63
637.075	32.56
637.265	32.36
637.455	32.62
637.644	32.44
637.834	32.63
638.024	32.8
638.214	32.6
638.404	32.34
638.593	32.46
638.783	32.39
638.973	33.14
639.163	32.74
639.352	32.87
639.542	32.9
639.732	33.21
639.921	33.06
640.111	33.43
640.301	33.57
640.49	33.36
640.68	33.14
640.87	33.17
641.059	32.63
641.249	33.12
641.438	33.18
641.628	33.13
641.817	33.44
642.007	33.18
642.196	32.85
642.386	32.89
642.575	33.01
642.764	32.9
642.954	33.01
643.143	33.05
643.333	32.44
643.522	32.57
643.711	32.93
643.901	32.78
644.09	33.56
644.279	33.63
644.469	33.61
644.658	33.96
644.847	33.98
645.036	33.96
645.226	34.56
645.415	34.77
645.604	34.57
645.793	34.32
645.982	34.07
646.171	33.8
646.361	33.79
646.55	33.9
646.739	33.79
646.928	33.57
647.117	33.56
647.306	33.27
647.495	33.3
647.684	32.93
647.873	33.05
648.062	33.03
648.251	32.87
648.44	32.57
648.629	32.7
648.818	32.61
649.007	32.84
649.196	32.41
649.384	32.39
649.573	32.34
649.762	32.64
649.951	32.49
650.14	32.65
650.328	32.41
650.517	33.18
650.706	33.01
650.895	33.19
651.083	33.5
651.272	33.97
651.461	33.76
651.65	33.74
651.838	33.73
652.027	33.72
652.216	33.66
652.404	34.3
652.593	34.17
652.781	34.47
652.97	34.09
653.158	33.96
653.347	33.89
653.535	33.8
653.724	34.41
653.912	34.84
654.101	34.89
654.289	35.19
654.478	34.71
654.666	34.37
654.855	33.58
655.043	34.05
655.231	34.1
655.42	34.04
655.608	34.44
655.796	33.58
655.985	33.3
656.173	33.16
656.361	33.05
656.55	33.26
656.738	33.47
656.926	33.9
657.114	33.84
657.302	33.83
657.491	33.78
657.679	33.37
657.867	33.7
658.055	33.75
658.243	33.84
658.431	33.63
658.619	33.68
658.807	33.56
658.996	33.9
659.184	34.1
659.372	34.17
659.56	34.33
659.748	34.54
659.936	34.63
660.124	34.76
660.311	35.02
660.499	35.41
660.687	35.21
660.875	34.95
661.063	34.65
661.251	34.42
661.439	34.42
661.627	34.11
661.814	34.24
662.002	33.92
662.19	33.68
662.378	33.3
662.565	33.2
662.753	33.51
662.941	33.63
663.129	33.96
663.316	34.13
663.504	34.15
663.692	34.43
663.879	34.14
664.067	34.65
664.254	34.74
664.442	34.31
664.63	34.34
664.817	34.57
665.005	35.39
665.192	35.1
665.38	35.45
665.567	34.87
665.755	35.37
665.942	35.79
666.13	35.63
666.317	35.06
666.504	35.86
666.692	35.34
666.879	34.86
667.067	34.46
667.254	34.64
667.441	34.14
667.629	35.01
667.816	34.79
668.003	34.69
668.19	34.6
668.378	35.4
668.565	34.9
668.752	35.21
668.939	35.1
669.127	35.09
669.314	34.55
669.501	34.37
669.688	34.29
669.875	34.48
670.062	34.4
670.249	34.26
670.436	34.26
670.623	34.77
670.81	34.7
670.997	35.06
671.184	34.86
671.371	35.07
671.558	35.19
671.745	34.77
671.932	34.33
672.119	34.71
672.306	35.19
672.493	35.05
672.68	34.89
672.867	34.71
673.054	34.6
673.24	35.28
673.427	35.21
673.614	35.2
673.801	35.4
673.988	35.6
674.174	35.31
674.361	35.36
674.548	35.32
674.734	35.67
674.921	35.63
675.108	35.61
675.294	34.71
675.481	34.76
675.668	35.14
675.854	35.22
676.041	35.46
676.227	35.79
676.414	35.45
676.601	35.54
676.787	35.09
676.974	34.8
677.16	35.08
677.347	35.56
677.533	35.7
677.719	35.44
677.906	34.77
678.092	34.61
678.279	34.08
678.465	33.58
678.651	33.43
678.838	34
679.024	34.82
679.21	34.46
679.397	34.42
679.583	34.39
679.769	34.44
679.955	35.19
680.142	35.14
680.328	35.15
680.514	35.31
680.7	35.52
680.886	35.2
681.073	34.8
681.259	34.9
681.445	35.5
681.631	35.57
681.817	35.86
682.003	35.85
682.189	36.06
682.375	36.38
682.561	36.91
682.747	37.07
682.933	37.2
683.119	37.44
683.305	37.41
683.491	36.86
683.677	37.05
683.863	37.06
684.049	36.93
684.235	36.16
684.42	35.82
684.606	35.48
684.792	35.37
684.978	35.1
685.164	34.98
685.349	34.78
685.535	34.47
685.721	34.18
685.907	33.66
686.092	33.42
686.278	33.8
686.464	34.33
686.649	34.72
686.835	34.51
687.021	34.77
687.206	34.99
687.392	35.38
687.577	35.3
687.763	35.54
687.948	35.68
688.134	35.74
688.319	35.78
688.505	35.39
688.69	35.48
688.876	35.87
689.061	35.75
689.247	35.81
689.432	35.76
689.618	36.02
689.803	35.74
689.988	35.68
690.174	35.87
690.359	35.77
690.544	36.19
690.73	35.85
690.915	35.95
691.1	35.46
691.285	35.84
691.471	36.15
691.656	36.96
691.841	36.86
692.026	37.38
692.211	37.29
692.396	37.77
692.582	37.25
692.767	37.37
692.952	36.69
693.137	36.82
693.322	36.02
693.507	35.47
693.692	35.01
693.877	35.53
694.062	35.64
694.247	35.61
694.432	35.49
694.617	36.23
694.802	36.11
694.987	36.59
695.172	37.23
695.357	37.15
695.541	37.63
695.726	37.67
695.911	36.93
696.096	36.74
696.281	36.58
696.466	36.67
696.65	36.23
696.835	36.06
697.02	35.91
697.204	35.65
697.389	36
697.574	35.58
697.759	35.19
697.943	35.73
698.128	35.75
698.312	35.85
698.497	35.71
698.682	35.85
698.866	36.01
699.051	35.91
699.235	36.02
699.42	35.94
699.604	36.11
699.789	36.32
699.973	36.47
700.158	36.42
700.342	36.39
700.527	35.79
700.711	35.48
700.895	35.29
701.08	34.9
701.264	35.25
701.448	36.06
701.633	36.11
701.817	35.91
702.001	35.55
702.186	35.3
702.37	35.55
702.554	36.68
702.738	37.35
702.923	37.68
703.107	38.06
703.291	37.78
703.475	36.93
703.659	37.15
703.843	36.93
704.027	36.98
704.212	37.41
704.396	37.79
704.58	37.4
704.764	37.05
704.948	37.41
705.132	37.88
705.316	37.52
705.5	37.71
705.684	37.69
705.868	38.72
706.052	38.44
706.235	37.76
706.419	37.38
706.603	37.61
706.787	37.62
706.971	36.99
707.155	36.58
707.339	37.02
707.522	36.72
707.706	36.9
707.89	35.95
708.074	36.05
708.257	36.13
708.441	35.89
708.625	35.87
708.808	35.6
708.992	35.42
709.176	35.89
709.359	35.24
709.543	35.21
709.727	35.38
709.91	35.87
710.094	36.35
710.277	36.61
710.461	36.56
710.644	36.35
710.828	36.79
711.011	37.12
711.195	37.65
711.378	38.6
711.562	38.99
711.745	38.76
711.928	38.45
712.112	37.85
712.295	37.66
712.478	38.07
712.662	37.88
712.845	36.95
713.028	36.9
713.212	36.64
713.395	35.72
713.578	35.65
713.761	35.67
713.945	35.48
714.128	36.07
714.311	35.94
714.494	36.1
714.677	36.36
714.86	36.88
715.043	37.12
715.227	37.12
715.41	37.13
715.593	37.15
715.776	36.71
715.959	36.71
716.142	37.62
716.325	37.71
716.508	37.24
716.691	37.15
716.874	37.27
717.057	37.68
717.239	37.71
717.422	37.52
717.605	37.51
717.788	38
717.971	38.36
718.154	36.58
718.337	36.65
718.519	36.55
718.702	36.33
718.885	35.75
719.068	35.52
719.25	35.09
719.433	35.57
719.616	35.2
719.798	34.13
719.981	33.37
720.164	34.28
720.346	34.12
720.529	34.67
720.712	35.46
720.894	37.05
721.077	36
721.259	35.35
721.442	35.66
721.624	35.45
721.807	36.63
721.989	36.5
722.172	36.25
722.354	37
722.537	36.45
722.719	36.57
722.901	34.97
723.084	35.51
723.266	36.32
723.448	36.54
723.631	36.98
723.813	36.17
723.995	37.25
724.178	37.3
724.36	37.09
724.542	37.29
724.724	36.36
724.907	36.76
725.089	37.61
725.271	37.57
725.453	36.99
725.635	37.11
725.817	37.78
725.999	37.41
726.181	37.18
726.364	37.06
726.546	36.76
726.728	37.5
726.91	38.1
727.092	38.21
727.274	38.09
727.456	38.58
727.638	38.71
727.819	38.39
728.001	38.36
728.183	38.99
728.365	39.12
728.547	40.14
728.729	40.71
728.911	39.2
729.093	38.74
729.274	38.83
729.456	37.85
729.638	37.34
729.82	36.87
730.001	36.69
730.183	36.18
730.365	36.34
730.546	35.31
730.728	34.37
730.91	35.97
731.091	35.47
731.273	35.35
731.455	35.25
731.636	35.67
731.818	36.11
731.999	35.94
732.181	36.26
732.362	36.47
732.544	36.57
732.725	36.44
732.907	36.27
733.088	36.36
733.27	36.2
733.451	37.79
733.633	36.67
733.814	36.63
733.995	36.69
734.177	36.36
734.358	35.61
734.539	36.1
734.721	35.97
734.902	35.45
735.083	36.04
735.264	36.3
735.446	35.5
735.627	36.45
735.808	35.61
735.989	36.59
736.17	35.84
736.351	35.39
736.533	35.71
736.714	36.82
736.895	36.46
737.076	35.7
737.257	35.76
737.438	35.72
737.619	36.68
737.8	37.95
737.981	37.08
738.162	36.91
738.343	37.27
738.524	35.7
738.705	34.73
738.886	35.59
739.067	35.97
739.247	36.13
739.428	37.05
739.609	35.5
739.79	36.09
739.971	35.88
740.151	37.06
740.332	36.98
740.513	38.17
740.694	38.65
740.874	37.68
741.055	36.62
741.236	35.94
741.417	34.56
741.597	35.81
741.778	34.72
741.958	34.92
742.139	35.86
742.32	36.88
742.5	36.53
742.681	35.88
742.861	37.18
743.042	38.79
743.222	38.42
743.403	38.26
743.583	37.64
743.764	38.66
743.944	39.39
744.124	38.99
744.305	39.39
744.485	39.82
744.666	40.01
744.846	39.45
745.026	38.65
745.207	38.99
745.387	39.89
745.567	40.19
745.747	40.28
745.928	40.49
746.108	39.15
746.288	38.74
746.468	39.15
746.648	38.64
746.829	38.74
747.009	37.26
747.189	36.95
747.369	35.71
747.549	36.8
747.729	36.31
747.909	36.02
748.089	36.35
748.269	36.11
748.449	36.31
748.629	37.14
748.809	37.6
748.989	39.78
749.169	39.96
749.349	41.09
749.529	40.31
749.709	39.92
749.889	39.39
750.068	39.01
750.248	39.4
750.428	38.96
750.608	39.47
750.788	38.77
750.967	38.29
751.147	39.43
751.327	38.12
751.507	38.63
751.686	38.84
751.866	39.11
752.046	39.43
752.225	38.9
752.405	38.6
752.585	36.99
752.764	36.6
752.944	36.2
753.123	35.48
753.303	37.04
753.482	34.91
753.662	33.75
753.841	34.75
754.021	35.04
754.2	35.42
754.38	35.13
754.559	36.49
754.739	36.41
754.918	36.87
755.097	37.87
755.277	36.86
755.456	38.41
755.635	38.96
755.815	38.25
755.994	36.86
756.173	36.33
756.352	36.65
756.532	36.51
756.711	36.35
756.89	36.86
757.069	35.97
757.248	37.05
757.427	38.26
757.607	39.09
757.786	39.58
757.965	41.3
758.144	41.03
758.323	41.59
758.502	41.78
758.681	41.77
758.86	40.8
759.039	39.87
759.218	38.32
759.397	36.45
759.576	36.26
759.755	35.58
759.934	35.42
760.113	36.45
760.291	35.51
760.47	35.59
760.649	36.14
760.828	36.11
761.007	36.3
761.186	36.09
761.364	36.76
761.543	36.02
761.722	35.62
761.901	35.36
762.079	34.6
762.258	34.67
762.437	34.67
762.615	34.9
762.794	33.97
762.972	34.12
763.151	34.85
763.33	34.38
763.508	34.45
763.687	34.37
763.865	34.08
764.044	34.25
764.222	34.48
764.401	34.48
764.579	35.68
764.758	36.79
764.936	37.29
765.114	37.91
765.293	39.09
765.471	40.03
765.65	39.61
765.828	40.27
766.006	40.86
766.184	41.89
766.363	41.84
766.541	40.53
766.719	40.59
766.898	39.89
767.076	39
767.254	39.16
767.432	38.09
767.61	39.93
767.788	38.54
767.967	38.2
768.145	35.69
768.323	35.18
768.501	35.14
768.679	35.67
768.857	36.88
769.035	37.24
769.213	35.49
769.391	34.76
769.569	33.25
769.747	35.43
769.925	35.31
770.103	36.04
770.281	36.43
770.459	35.72
770.636	36.44
770.814	37.15
770.992	36.97
771.17	36.51
771.348	39.11
771.525	40.23
771.703	38.25
771.881	38.12
772.059	39.64
772.236	40.44
772.414	42.56
772.592	40.86
772.769	41.26
772.947	42.58
773.125	42.33
773.302	42.47
773.48	43.21
773.657	42.26
773.835	42.01
774.013	41.39
774.19	38.64
774.368	38.08
774.545	38.22
774.723	37.57
774.9	36.98
775.077	38.5
775.255	36.7
775.432	34.76
775.61	37.38
775.787	36.94
775.964	36.04
776.142	36.87
776.319	35.72
776.496	38.51
776.674	34.2
776.851	33.31
777.028	33.62
777.205	33.72
777.382	35.47
777.56	32.29
777.737	33.13
777.914	33.93
778.091	37
778.268	37.41
778.445	35.56
778.622	37.13
778.8	37.63
778.977	37.18
779.154	35.91
779.331	34.46
779.508	38.49
779.685	39.06
779.862	41.16
780.038	40.84
780.215	39.14
780.392	37.18
780.569	38.39
780.746	38.35
780.923	37.08
781.1	38.4
781.277	38.61
781.453	37.5
781.63	35.41
781.807	33.59
781.984	31.85
782.16	32.93
782.337	34.73
782.514	35.12
782.691	35.55
782.867	37.34
783.044	35.45
783.221	35.84
783.397	36.06
783.574	37.39
783.75	36.8
783.927	39.38
784.103	41.1
784.28	39.16
784.456	39.98
784.633	39.54
784.809	39.37
784.986	41.34
785.162	42.71
785.339	42.28
785.515	43.49
785.692	42.96
785.868	39.78
786.044	39.73
786.221	40.25
786.397	40.48
786.573	38.62
786.749	37.77
786.926	38.12
787.102	37.61
787.278	37.5
787.454	39.02
787.631	40.24
787.807	41.51
787.983	40.8
788.159	44.03
788.335	41.54
788.511	45.44
788.687	47.19
788.863	47.27
789.039	49.12
789.216	48.53
789.392	47.42
789.568	48.98
789.744	48.53
789.919	48.18
790.095	45.86
790.271	45.29
790.447	43.73
790.623	42.75
790.799	41.67
790.975	41.67
791.151	41.98
791.327	41.86
791.502	41.02
791.678	42.38
791.854	43.3
792.03	42.68
792.205	46.71
792.381	45.64
792.557	44.56
792.733	46.4
792.908	43.25
793.084	40.09
793.259	39.3
793.435	37.46
793.611	38.82
793.786	37.25
793.962	37.28
794.137	37.77
794.313	36.88
794.488	39.81
794.664	38.58
794.839	40.12
795.015	43.49
795.19	44.6
795.366	47.07
795.541	43.35
795.716	42.34
795.892	43.22
796.067	39.22
796.242	42.8
796.418	41.59
796.593	42.42
796.768	43.51
796.944	44.85
797.119	43.72
797.294	41.42
797.469	42.56
797.644	44.05
797.82	45.3
797.995	47.53
798.17	46.65
798.345	46.83
798.52	45.81
798.695	44.41
798.87	41.54
799.045	41.85
799.22	41.69
799.395	41.68
799.57	42.1
799.745	41.72
799.92	41.13
800.095	38.45
800.27	39.25
800.445	38.9
800.62	39.09
800.795	39.2
800.97	36.58
801.145	35.58
801.319	36.05
801.494	34.69
801.669	35.09
801.844	36.02
802.018	39.57
802.193	40.78
802.368	40.95
802.543	39.43
802.717	41.94
802.892	45.76
803.067	46.31
803.241	46.57
803.416	49.87
803.59	47.73
803.765	47.83
803.94	44.52
804.114	43.03
804.289	44.02
804.463	47.86
804.638	47.85
804.812	46.28
804.986	48.28
805.161	50.56
805.335	48.01
805.51	47.58
805.684	47.43
805.858	47.99
806.033	46.78
806.207	45.68
806.381	43.2
806.556	39.19
806.73	37.57
806.904	34.12
807.078	28.89
807.253	27.4
807.427	26.33
807.601	27.98
807.775	28.11
807.949	28.57
808.123	31.2
808.298	31.1
808.472	32.67
808.646	32.48
808.82	38.11
808.994	40.75
809.168	41.35
809.342	45.24
809.516	44.59
809.69	47.45
809.864	47.44
810.038	47.89
810.212	46.58
810.385	45.14
810.559	47.9
810.733	45.23
810.907	43.14
811.081	46.68
811.255	45.75
811.428	44.5
811.602	40.19
811.776	40.89
811.95	40.51
812.123	44.24
812.297	45.67
812.471	44.14
812.644	40.43
812.818	43.44
812.992	43.16
813.165	43.76
813.339	44.21
813.512	47.38
813.686	52.21
813.86	48.54
814.033	48.94
814.207	51.24
814.38	50.41
814.554	51.95
814.727	48.18
814.9	46.52
815.074	46.06
815.247	42.4
815.421	41.5
815.594	30.4
815.767	31.06
815.941	26.25
816.114	25.02
816.287	27.24
816.46	26.97
816.634	27.83
816.807	21.67
816.98	20.12
817.153	26.26
817.327	23.97
817.5	32.08
817.673	33.42
817.846	36.88
818.019	36.13
818.192	38.3
818.365	42.83
818.538	44.73
818.711	51.08
818.884	50.17
819.057	42.73
819.23	44.9
819.403	40.58
819.576	39.96
819.749	36.11
819.922	37.36
820.095	35.42
820.268	32.28
820.441	33.99
820.614	33.1
820.786	34.75
820.959	38.87
821.132	38.47
821.305	40.26
821.477	39.28
821.65	40.32
821.823	39.42
821.996	38.34
822.168	37.85
822.341	37.69
822.514	38.14
822.686	38.07
822.859	37.35
823.031	37.62
823.204	36.68
823.376	36.89
823.549	37.21
823.722	37.25
823.894	38.2
824.067	38.32
824.239	38.25
824.411	37.16
824.584	36.91
824.756	36.4
824.929	35.99
825.101	36.86
825.273	37.62
825.446	37.97
825.618	38.88
825.79	37.77
825.963	37.76
826.135	37.2
826.307	37.35
826.479	36.59
826.652	38.53
826.824	38.17
826.996	38.95
827.168	37.91
827.34	36.85
827.512	36.76
827.684	37.26
827.856	37.76
828.029	37.9
828.201	38.06
828.373	37.83
828.545	36.4
828.717	37.09
828.889	34.25
829.061	34.31
829.232	35.63
829.404	33.51
829.576	33.88
829.748	34.69
829.92	34.78
830.092	34.98
830.264	36.92
830.436	36.12
830.607	37.9
830.779	42.15
830.951	41.87
831.123	41.75
831.294	44.22
831.466	44.06
831.638	45.77
831.809	46.24
831.981	47.26
832.153	43.88
832.324	43.93
832.496	39.61
832.667	36.53
832.839	36.84
833.011	37.11
833.182	34.84
833.354	38.28
833.525	38.29
833.697	37.65
833.868	37.51
834.039	40.78
834.211	41.06
834.382	42.13
834.554	42.85
834.725	42.85
834.896	41.66
835.068	42.94
835.239	42.39
835.41	41.49
835.581	42.39
835.753	42.5
835.924	43.34
836.095	44.88
836.266	44.79
836.438	42.68
836.609	43.1
836.78	44.85
836.951	42.72
837.122	39.89
837.293	38.28
837.464	39.03
837.635	39.74
837.806	36.19
837.977	36.23
838.148	34.92
838.319	39.21
838.49	40.78
838.661	42.19
838.832	44.09
839.003	38.14
839.174	43.31
839.345	42.17
839.516	38.94
839.687	42.1
839.857	44.7
840.028	48.42
840.199	47.3
840.37	44.34
840.54	40.82
840.711	48.12
840.882	58.41
841.053	57.38
841.223	58.72
841.394	60.04
841.564	59.58
841.735	59.36
841.906	59.24
842.076	61.82
842.247	66.58
842.417	68.6
842.588	59.21
842.758	58.22
842.929	58.75
843.099	55
843.27	60.45
843.44	60.01
843.611	52.13
843.781	44.86
843.951	42.32
844.122	42.15
844.292	45.53
844.462	53.92
844.633	55.15
844.803	49.31
844.973	48
845.144	46.65
845.314	50.13
845.484	58.82
845.654	62.53
845.824	61.57
845.995	58.81
846.165	59.65
846.335	53.03
846.505	55.11
846.675	58.52
846.845	68.8
847.015	69.3
847.185	69.34
847.355	63.61
847.525	68.28
847.695	74.65
847.865	71.41
848.035	60.25
848.205	57.48
848.375	45.72
848.545	49.98
848.715	45.42
848.884	35.41
849.054	39.65
849.224	40.71
849.394	40.09
849.564	35.91
849.733	52.3
849.903	59.33
850.073	63.1
850.243	68.97
850.412	65.03
850.582	60.37
850.752	61.98
850.921	58.08
851.091	66.63
851.26	63.86
851.43	70
851.599	62.88
851.769	62.11
851.939	61.69
852.108	76.63
852.278	78.52
852.447	76.21
852.616	74.05
852.786	74.64
852.955	72.29
853.125	72.77
853.294	76.29
853.463	72.95
853.633	65.09
853.802	68.47
853.971	59.4
854.141	61.92
854.31	65.45
854.479	76.82
854.648	76.83
854.818	73.47
854.987	73.37
855.156	56.15
855.325	53.75
855.494	51.96
855.663	53.79
855.832	40.02
856.001	41.56
856.171	40.67
856.34	39.87
856.509	36.03
856.678	39.57
856.847	46.32
857.016	57.94
857.185	53.38
857.353	61.18
857.522	55.91
857.691	56.91
857.86	55.27
858.029	56.81
858.198	46.05
858.367	54.06
858.535	49.98
858.704	45.48
858.873	42.95
859.042	52.48
859.21	53.69
859.379	49.74
859.548	64.15
859.717	55.86
859.885	48.79
860.054	68.29
860.222	75.41
860.391	80.45
860.56	90.71
860.728	92.88
860.897	87.69
861.065	96.35
861.234	119.29
861.402	105.59
861.571	113.46
861.739	132.31
861.908	98.02
862.076	88.01
862.244	81.93
862.413	73.47
862.581	71.31
862.749	72.99
862.918	64.91
863.086	62.99
863.254	58.04
863.423	55.63
863.591	57.68
863.759	66.31
863.927	63.28
864.096	64.19
864.264	66.34
864.432	66.98
864.6	53.38
864.768	51.97
864.936	53.77
865.104	65.53
865.272	73.78
865.44	51.91
865.608	47.94
865.776	54.87
865.944	61.98
866.112	55.18
866.28	52.21
866.448	61.91
866.616	56.81
866.784	65.66
866.952	63.04
867.12	65.42
867.288	67.45
867.455	72.59
867.623	71.63
867.791	66.63
867.959	67.62
868.127	67.64
868.294	63.74
868.462	72.92
868.63	67.23
868.797	60.33
868.965	36.85
869.133	30.83
869.3	22.41
869.468	12.43
869.636	25.43
869.803	44.99
869.971	44.84
870.138	42.55
870.306	33.91
870.473	22.57
870.641	56.14
870.808	94.25
870.975	107.84
871.143	89.43
871.31	79.56
871.478	76.14
871.645	69.41
871.812	76.47
871.98	87.83
872.147	87.03
872.314	95.13
872.482	70.83
872.649	73.75
872.816	64.04
872.983	78.21
873.15	78.95
873.318	82.29
873.485	77.24
873.652	64.98
873.819	42.2
873.986	44.29
874.153	34.79
874.32	26.28
874.487	19.82
874.654	28.36
874.821	26.67
874.988	29.85
875.155	28.27
875.322	41.64
875.489	48.22
875.656	56.9
875.823	60.85
875.99	57.79
876.157	63.53
876.324	59.26
876.49	55.63
876.657	52.57
876.824	59.53
876.991	63.7
877.157	54.14
877.324	48.34
877.491	48.43
877.658	44.16
877.824	46.2
877.991	45.99
878.157	52.78
878.324	55.64
878.491	57.2
878.657	55.07
878.824	35.76
878.99	54.21
879.157	63.49
879.323	73.5
879.49	72.15
879.656	68.09
879.823	56.89
879.989	65.25
880.156	65.14
880.322	60.31
880.488	51.21
880.655	55.37
880.821	46.54
880.987	44.61
881.154	30.77
881.32	30.08
881.486	39.23
881.652	47.07
881.819	44.64
881.985	46.27
882.151	49.86
882.317	52.2
882.483	53.73
882.649	52
882.816	48.71
882.982	48.41
883.148	46.23
883.314	43.72
883.48	42.47
883.646	41.81
883.812	39.12
883.978	38.04
884.144	38.07
884.31	35.37
884.476	37.4
884.642	40.51
884.807	40.27
884.973	40.84
885.139	39.26
885.305	38.96
885.471	39.52
885.637	40.24
885.802	40.96
885.968	39.96
886.134	40.61
886.3	38.65
886.465	36.27
886.631	41.3
886.797	43.73
886.962	53.66
887.128	62.1
887.293	60.44
887.459	64.53
887.625	66.54
887.79	68.05
887.956	76.02
888.121	80.99
888.287	87.99
888.452	86.95
888.618	86.55
888.783	77.66
