Data from 2937838_Reflection_2.txt Node
Date: Wed Jul 15 16:25:16 EDT 2015
User: robert
Spectrometer: USB4E03001
Autoset integration time: false
Trigger mode: 4
Integration Time (sec): 1.000000E-1
Scans to average: 10
Electric dark correction enabled: true
Nonlinearity correction enabled: false
Boxcar width: 5
Stray light correction enabled: false
XAxis mode: Wavelengths
Stop averaging: false
Number of Pixels in Spectrum: 3648
>>>>>Begin Spectral Data<<<<<
177.566	21.07
177.785	126.32
178.005	157.94
178.225	171.21
178.445	154.97
178.665	54.95
178.885	-74.87
179.105	65.19
179.324	-55.86
179.544	71.76
179.764	35.15
179.984	-29.71
180.204	56.26
180.423	29.71
180.643	-14.05
180.863	10.14
181.083	-9.08
181.302	-18.27
181.522	-52.8
181.742	26.98
181.961	-113.52
182.181	124.42
182.401	100.23
182.621	415.52
182.84	125.47
183.06	140.6
183.279	115.64
183.499	141.04
183.719	195.18
183.938	244.14
184.158	397.86
184.377	1671.94
184.597	-4550
184.816	-950.22
185.036	-305.03
185.256	-91.64
185.475	-6.1
185.695	56.65
185.914	-5.29
186.134	69.64
186.353	-114.57
186.572	-317.11
186.792	-481.44
187.011	-2414.92
187.231	-216.73
187.45	-261.34
187.67	-239.54
187.889	-467.86
188.108	-693.5
188.328	-887.48
188.547	1469.82
188.766	1552.55
188.986	-3916.05
189.205	-509.21
189.424	-410.65
189.644	200.22
189.863	254.03
190.082	186.41
190.302	192.07
190.521	91.44
190.74	74.76
190.959	137.05
191.178	149.4
191.398	136.15
191.617	120.37
191.836	121.69
192.055	413.94
192.274	185.71
192.494	148.48
192.713	154.77
192.932	169.24
193.151	331.88
193.37	-54.81
193.589	-39.13
193.808	-39.04
194.027	-63.97
194.246	-72.6
194.465	-26.83
194.685	-94.06
194.904	-54.2
195.123	-159.55
195.342	-230.81
195.561	-228.68
195.78	721.53
195.999	195.92
196.218	134.06
196.436	110.29
196.655	132.21
196.874	122.97
197.093	180.91
197.312	147.43
197.531	-187.63
197.75	46.32
197.969	-1251.49
198.188	71.77
198.407	56.37
198.625	13.88
198.844	17.96
199.063	29.96
199.282	-76.05
199.501	1943.01
199.719	276.6
199.938	175.14
200.157	-1044.42
200.376	673.98
200.594	257.54
200.813	310.57
201.032	200.56
201.251	163.55
201.469	174.41
201.688	132.57
201.907	92.57
202.125	520
202.344	-325
202.563	128.44
202.781	-328.52
203	-192.43
203.218	-153.64
203.437	-852.88
203.656	-6009.84
203.874	608.45
204.093	-786.74
204.311	31123.53
204.53	1309.29
204.748	205.81
204.967	228.84
205.185	391.51
205.404	381.36
205.622	359.71
205.841	150.91
206.059	160.53
206.278	173.63
206.496	227.73
206.715	244.64
206.933	176.85
207.151	193.46
207.37	188.31
207.588	221.36
207.806	352.24
208.025	193.98
208.243	4616.33
208.461	737.26
208.68	-980.7
208.898	336.24
209.116	605.97
209.335	533.09
209.553	-4276.32
209.771	609.91
209.989	351.26
210.208	299.43
210.426	911.3
210.644	482.17
210.862	-292.91
211.081	-3214.55
211.299	16856.67
211.517	240.42
211.735	582.25
211.953	-95.08
212.171	-93.45
212.39	1833.58
212.608	3126.45
212.826	-914.12
213.044	-193.16
213.262	696.99
213.48	-295.87
213.698	-536.02
213.916	-584.47
214.134	2787.12
214.352	646.17
214.57	417.86
214.788	274.87
215.006	227.86
215.224	207.1
215.442	215.35
215.66	1028.53
215.878	269.24
216.096	494.19
216.314	-657.96
216.532	-1244.14
216.75	-277.26
216.968	-77.02
217.185	-70.72
217.403	-75.13
217.621	-143.69
217.839	-251.52
218.057	-737.22
218.275	2344.09
218.492	-231.92
218.71	-196.59
218.928	-67.97
219.146	-116.78
219.363	-419.9
219.581	-101.43
219.799	-90.88
220.017	-14.8
220.234	44.43
220.452	60.17
220.67	60.81
220.887	51.99
221.105	46.8
221.323	2.48
221.54	9.93
221.758	12.53
221.976	15.35
222.193	-5.29
222.411	-55.38
222.629	-152
222.846	-105.46
223.064	-97.65
223.281	-113.68
223.499	-170.15
223.716	-130.02
223.934	-84.2
224.151	-66.23
224.369	-76.32
224.586	-57.74
224.804	-19.35
225.021	4.49
225.239	12.26
225.456	11.87
225.674	5.34
225.891	10.08
226.108	14.6
226.326	6.04
226.543	-5.96
226.76	-12.53
226.978	-24.56
227.195	-17.32
227.413	-10.08
227.63	-16.45
227.847	-9.12
228.064	-11.24
228.282	-3.96
228.499	-0.06
228.716	-1.11
228.934	-0.1
229.151	-3.81
229.368	1.56
229.585	1.88
229.802	-0.04
230.02	0.39
230.237	-2.02
230.454	-4.55
230.671	-10.36
230.888	-13.53
231.105	-12.46
231.323	-9.13
231.54	-4.28
231.757	-10.89
231.974	-10.69
232.191	-11.05
232.408	-8.07
232.625	-8.2
232.842	-4.57
233.059	0.36
233.276	0.31
233.493	-6.57
233.71	-9.88
233.927	-12.09
234.144	-9.89
234.361	-20.32
234.578	-15.1
234.795	-6.07
235.012	-0.3
235.229	4.26
235.446	6.38
235.663	9.07
235.879	16
236.096	7.87
236.313	11.96
236.53	18.16
236.747	27.58
236.964	20.56
237.181	3.14
237.397	-3.9
237.614	-7.26
237.831	-8.69
238.048	-13.34
238.264	-11.85
238.481	-7.64
238.698	-7.26
238.915	-9.58
239.131	-14.45
239.348	-10.1
239.565	-4.09
239.781	-1.5
239.998	2.48
240.215	4.55
240.431	3.47
240.648	1.15
240.865	4.06
241.081	5.01
241.298	6.86
241.514	5.1
241.731	7.43
241.947	7.99
242.164	7.89
242.38	5.29
242.597	5.26
242.814	5.64
243.03	7.88
243.246	7.06
243.463	5.46
243.679	4.81
243.896	4.95
244.112	5.28
244.329	4.24
244.545	3.09
244.762	6.02
244.978	9.24
245.194	12.48
245.411	8.45
245.627	8.22
245.843	9.15
246.06	7
246.276	7.6
246.492	7.39
246.709	6.76
246.925	7.44
247.141	7.57
247.357	6.26
247.574	5.53
247.79	6.15
248.006	7.19
248.222	7
248.439	7.31
248.655	6.61
248.871	5.61
249.087	6.05
249.303	6.28
249.519	5.89
249.736	6.5
249.952	6.15
250.168	6.67
250.384	5.51
250.6	6.4
250.816	5.82
251.032	7.18
251.248	7.07
251.464	6.95
251.68	6.05
251.896	6.84
252.112	6.68
252.328	5.16
252.544	4.88
252.76	5.06
252.976	2.98
253.192	4.43
253.408	2.7
253.624	5.88
253.84	6.61
254.056	7.01
254.272	4.1
254.487	1.01
254.703	1.26
254.919	-0.94
255.135	-5.48
255.351	-2.96
255.567	-8.08
255.782	-8.52
255.998	-9.49
256.214	-5.33
256.43	-2.69
256.646	-2.03
256.861	-2.08
257.077	0.63
257.293	3.55
257.508	2.57
257.724	4.88
257.94	5.67
258.155	5.57
258.371	4.48
258.587	3.84
258.802	3.33
259.018	3.91
259.234	5.7
259.449	5.4
259.665	5.15
259.88	6.48
260.096	6.03
260.312	6.6
260.527	7.23
260.743	6.35
260.958	6.25
261.174	6.73
261.389	6.88
261.605	6.09
261.82	5.74
262.036	5.11
262.251	4.25
262.466	3.69
262.682	0.62
262.897	-0.79
263.113	-0.57
263.328	-1.87
263.543	-5.15
263.759	-5.3
263.974	-6.9
264.189	-5.22
264.405	-5.99
264.62	-0.45
264.835	-1.19
265.051	-0.05
265.266	2.34
265.481	3.64
265.696	4.32
265.912	5.25
266.127	6.59
266.342	7.87
266.557	7.91
266.773	9.06
266.988	3.94
267.203	4.87
267.418	5.99
267.633	6.52
267.848	6.63
268.064	6.05
268.279	6.21
268.494	4.85
268.709	3.54
268.924	1.47
269.139	1.99
269.354	3.06
269.569	1.82
269.784	2.97
269.999	2.43
270.214	2.11
270.429	3.9
270.644	3.8
270.859	3.45
271.074	5.03
271.289	6.26
271.504	5.25
271.719	4.42
271.934	4.19
272.149	2.91
272.363	2.19
272.578	3.48
272.793	1.57
273.008	1.21
273.223	1.67
273.438	0.83
273.653	0.06
273.867	-0.61
274.082	0.48
274.297	0.2
274.512	0.24
274.726	0.34
274.941	-1.43
275.156	0.3
275.371	0.3
275.585	-0.08
275.8	-0.28
276.015	1.29
276.229	2.84
276.444	2.3
276.659	4.43
276.873	5.77
277.088	6.48
277.302	5.15
277.517	3.93
277.732	4.19
277.946	4.35
278.161	4.72
278.375	3.64
278.59	2.1
278.804	2.39
279.019	1.06
279.233	0.61
279.448	-0.59
279.662	0.57
279.877	1.54
280.091	1.83
280.306	2.65
280.52	4.11
280.735	3.44
280.949	4.61
281.163	5.25
281.378	4.45
281.592	3.22
281.806	3.4
282.021	3.95
282.235	2.42
282.449	3.59
282.664	2.82
282.878	1.23
283.092	2.81
283.307	2.79
283.521	2.57
283.735	2.76
283.949	1.69
284.164	2.01
284.378	2.47
284.592	4.59
284.806	4.71
285.02	5.62
285.234	6.09
285.449	4.01
285.663	3.47
285.877	2.4
286.091	2.66
286.305	5.75
286.519	6.66
286.733	7.78
286.947	6.07
287.161	6.06
287.375	4.75
287.589	4.63
287.803	5.84
288.017	4.26
288.231	6.05
288.445	6.76
288.659	4.18
288.873	2.08
289.087	0.29
289.301	1.94
289.515	1.01
289.729	1.43
289.943	1.91
290.157	2.49
290.371	4.55
290.584	2.62
290.798	2.37
291.012	2.39
291.226	2.68
291.44	1.78
291.654	0.83
291.867	0.76
292.081	0.84
292.295	0.89
292.509	-0.03
292.722	1.23
292.936	3.55
293.15	2.94
293.364	3.76
293.577	3.38
293.791	5.03
294.005	5.09
294.218	5.94
294.432	6.48
294.645	5.61
294.859	5.84
295.073	5.31
295.286	5.42
295.5	6.08
295.713	6.86
295.927	7.27
296.14	6.65
296.354	6.73
296.568	6.3
296.781	5.44
296.994	4.05
297.208	4.16
297.421	3.77
297.635	3.78
297.848	3.27
298.062	2.35
298.275	2
298.489	2.21
298.702	2.31
298.915	1.78
299.129	1.8
299.342	3.77
299.555	3.19
299.769	2.3
299.982	0.79
300.195	0.12
300.409	0.84
300.622	1.64
300.835	0.95
301.048	1.5
301.262	3.54
301.475	4.47
301.688	3
301.901	3.34
302.115	3.62
302.328	4.95
302.541	6.14
302.754	5.72
302.967	5.34
303.18	5.76
303.393	4.7
303.607	3.22
303.82	2.08
304.033	3.32
304.246	2.93
304.459	3.39
304.672	2.89
304.885	3.11
305.098	2.61
305.311	2.5
305.524	2.21
305.737	2.26
305.95	1.98
306.163	2.96
306.376	2.14
306.589	1.48
306.802	1.35
307.015	-0.42
307.228	-0.31
307.44	0.08
307.653	0.46
307.866	0.11
308.079	-0.23
308.292	-1.2
308.505	-1.56
308.718	-0.24
308.93	1.26
309.143	2.23
309.356	3.23
309.569	1.58
309.781	2.49
309.994	2.62
310.207	2.82
310.42	4.82
310.632	5.45
310.845	5.69
311.058	5.25
311.27	5.16
311.483	4.54
311.696	4.79
311.908	6.64
312.121	4.68
312.333	5.39
312.546	5.91
312.759	5.34
312.971	5.37
313.184	5.93
313.396	6.51
313.609	4.97
313.821	4.55
314.034	6.23
314.246	6.53
314.459	8.59
314.671	8.13
314.884	7.9
315.096	7.84
315.309	6.96
315.521	6
315.733	5.26
315.946	7.16
316.158	7.4
316.371	5.42
316.583	4.05
316.795	2.56
317.008	0.97
317.22	0.13
317.432	0.24
317.644	1.55
317.857	2.36
318.069	2.93
318.281	2.97
318.494	2.35
318.706	1.3
318.918	-0.84
319.13	0.05
319.342	0.74
319.555	-0.61
319.767	-0.8
319.979	-0.42
320.191	-1.3
320.403	-3.4
320.615	-4.96
320.827	-4.12
321.039	-2.8
321.252	-0.67
321.464	0.77
321.676	1.37
321.888	3.6
322.1	3.08
322.312	3.18
322.524	3.88
322.736	5.28
322.948	6.45
323.16	7.96
323.372	8.01
323.584	8.1
323.796	6.93
324.007	8.23
324.219	8.56
324.431	8.41
324.643	7.92
324.855	8.05
325.067	7.3
325.279	7.36
325.491	6.49
325.702	4.55
325.914	4.52
326.126	5.77
326.338	4.72
326.55	4.9
326.761	4.93
326.973	5.26
327.185	3.53
327.396	4.25
327.608	3.08
327.82	3.16
328.032	5.52
328.243	5.59
328.455	4.17
328.666	4.28
328.878	3.24
329.09	3.82
329.301	4.49
329.513	7.1
329.725	5.22
329.936	6.14
330.148	5.7
330.359	5.25
330.571	6.43
330.782	6.63
330.994	6.47
331.205	6.34
331.417	4.84
331.628	4.33
331.84	2.26
332.051	5.02
332.262	5.1
332.474	5.05
332.685	5.2
332.897	4.96
333.108	7.42
333.319	7.56
333.531	8.92
333.742	10.02
333.953	9.55
334.165	10.57
334.376	10.89
334.587	11.11
334.799	11.41
335.01	12.09
335.221	12.29
335.432	11.29
335.644	9.81
335.855	8.85
336.066	9.48
336.277	9.49
336.488	8.73
336.7	7.55
336.911	8.29
337.122	8.58
337.333	8.16
337.544	7.5
337.755	7.82
337.966	8.92
338.177	9.38
338.388	8.74
338.599	7.95
338.811	8.76
339.022	8.41
339.233	7.5
339.444	6.88
339.655	7.01
339.866	6.62
340.076	4.76
340.287	4.69
340.498	4.13
340.709	3.17
340.92	4.63
341.131	3.77
341.342	4.98
341.553	5.04
341.764	4.09
341.975	4.07
342.185	5.09
342.396	5.29
342.607	7.24
342.818	8.36
343.029	8.12
343.239	7.26
343.45	7.97
343.661	6.51
343.872	7.13
344.082	8.9
344.293	8.77
344.504	8.43
344.714	8.77
344.925	8.08
345.136	7.77
345.346	7.82
345.557	8.06
345.768	8.32
345.978	8.7
346.189	8.17
346.399	7.33
346.61	6.68
346.821	6.58
347.031	5.98
347.242	4.97
347.452	4.79
347.663	5.18
347.873	4.62
348.084	4.68
348.294	6.01
348.504	6.24
348.715	8.57
348.925	9.25
349.136	9.39
349.346	9.62
349.557	10.46
349.767	10.71
349.977	11.35
350.188	11.73
350.398	10.83
350.608	11.34
350.819	10.87
351.029	9.49
351.239	9.54
351.449	9.89
351.66	10.24
351.87	8.71
352.08	6.87
352.29	6.38
352.501	6.65
352.711	7.93
352.921	6.77
353.131	7.66
353.341	7.02
353.552	7.64
353.762	7.14
353.972	6.3
354.182	6.91
354.392	8.35
354.602	8.97
354.812	9.15
355.022	8.5
355.232	9.35
355.442	8.8
355.652	8.6
355.862	8.36
356.072	7.94
356.282	8.64
356.492	9.03
356.702	8.83
356.912	8.62
357.122	8.46
357.332	8.36
357.542	7.78
357.752	7.59
357.962	8.22
358.171	8.12
358.381	8.65
358.591	9.16
358.801	10.09
359.011	9.83
359.221	10.35
359.43	9.72
359.64	9.88
359.85	10.85
360.06	10.63
360.269	10.81
360.479	10.74
360.689	10
360.899	9.14
361.108	8.45
361.318	8.38
361.528	7.43
361.737	7.87
361.947	7.9
362.156	7.1
362.366	7.67
362.576	7
362.785	7.27
362.995	7.73
363.204	8.1
363.414	7.93
363.623	8.48
363.833	9.1
364.042	9.3
364.252	9.27
364.461	9.25
364.671	8.46
364.88	8.57
365.09	7.9
365.299	8.5
365.509	8.7
365.718	8.77
365.927	8.37
366.137	8.42
366.346	8.58
366.555	8.36
366.765	8.64
366.974	8.78
367.183	9.56
367.393	9.57
367.602	8.65
367.811	8.59
368.021	7.08
368.23	7.5
368.439	6.61
368.648	5.96
368.857	6.14
369.067	5.35
369.276	5.54
369.485	4.96
369.694	4.25
369.903	4.23
370.112	3.33
370.321	4.57
370.531	4.9
370.74	5.78
370.949	6.14
371.158	6.09
371.367	6.92
371.576	7.2
371.785	6.72
371.994	7.84
372.203	8.39
372.412	9.27
372.621	8.96
372.83	8.33
373.039	8.2
373.248	7.7
373.457	7.99
373.666	7.63
373.874	7.27
374.083	7.14
374.292	6.43
374.501	5.43
374.71	4.35
374.919	4.45
375.128	4.05
375.336	3.57
375.545	4.58
375.754	4.23
375.963	4.12
376.171	4.26
376.38	4.33
376.589	4.63
376.798	4.92
377.006	5.21
377.215	5.8
377.424	6.51
377.632	6.92
377.841	6.8
378.05	6.95
378.258	6.21
378.467	6.59
378.675	6.51
378.884	6.16
379.093	5.83
379.301	5.7
379.51	5.24
379.718	4.85
379.927	4.05
380.135	3.56
380.344	3.68
380.552	3.99
380.761	3.21
380.969	3.49
381.177	4.13
381.386	5.38
381.594	6.08
381.803	6.31
382.011	6.38
382.219	7.1
382.428	7.14
382.636	6.94
382.845	7.77
383.053	7.87
383.261	7.83
383.469	7.92
383.678	7.03
383.886	6.83
384.094	7.16
384.302	7.54
384.511	7.33
384.719	7.28
384.927	7.41
385.135	6.93
385.343	6.9
385.552	7.54
385.76	6.97
385.968	6.87
386.176	6.33
386.384	6.38
386.592	6.01
386.8	5.94
387.008	6.11
387.216	5.41
387.424	5.43
387.633	5.38
387.841	4.78
388.049	5.35
388.257	5.85
388.465	6.3
388.672	5.47
388.88	5.17
389.088	5.02
389.296	5.26
389.504	5.37
389.712	5.47
389.92	5.81
390.128	5.68
390.336	5.43
390.544	5.33
390.751	4.91
390.959	4.78
391.167	5.44
391.375	5.46
391.583	5.51
391.79	5.97
391.998	6
392.206	5.26
392.414	5.47
392.621	5.25
392.829	5.09
393.037	5.34
393.244	5.53
393.452	5.24
393.66	5.27
393.867	5.04
394.075	5.2
394.283	5.26
394.49	5.94
394.698	5.9
394.905	5.84
395.113	5.83
395.32	5.93
395.528	5.99
395.735	5.94
395.943	6.09
396.15	5.57
396.358	5.17
396.565	5.24
396.773	5.01
396.98	4.89
397.188	5
397.395	5.04
397.602	4.93
397.81	4.66
398.017	4.49
398.225	4.18
398.432	4.78
398.639	4.65
398.847	4.39
399.054	4.51
399.261	4.58
399.468	4.6
399.676	4.66
399.883	4.57
400.09	5.07
400.297	4.98
400.505	5.2
400.712	5.27
400.919	5.49
401.126	5.71
401.333	5.76
401.54	5.75
401.748	5.72
401.955	5.61
402.162	5.78
402.369	5.45
402.576	5.66
402.783	5.36
402.99	5.47
403.197	5.52
403.404	5.36
403.611	5.03
403.818	5.15
404.025	5.21
404.232	5.15
404.439	5.23
404.646	5.42
404.853	5.14
405.06	5.2
405.267	4.78
405.474	4.72
405.681	4.59
405.887	4.84
406.094	4.56
406.301	4.3
406.508	4.53
406.715	4.46
406.922	4.46
407.128	4.66
407.335	4.75
407.542	4.59
407.749	4.59
407.955	5.05
408.162	4.84
408.369	4.92
408.575	5.2
408.782	5.06
408.989	4.97
409.195	4.74
409.402	4.83
409.609	4.87
409.815	5.35
410.022	5.28
410.228	5.09
410.435	5.33
410.642	5.06
410.848	5.13
411.055	5.39
411.261	5.19
411.468	5.02
411.674	5.29
411.881	5.57
412.087	5.59
412.294	5.5
412.5	5.62
412.706	5.71
412.913	6.25
413.119	6.42
413.326	6.36
413.532	6.69
413.738	6.93
413.945	6.52
414.151	6.13
414.357	6.03
414.564	5.8
414.77	5.57
414.976	5.45
415.182	5.34
415.389	5.19
415.595	4.99
415.801	5.12
416.007	5.17
416.214	5.38
416.42	5.71
416.626	5.95
416.832	5.96
417.038	5.93
417.244	6.06
417.45	6.1
417.657	5.88
417.863	5.82
418.069	5.66
418.275	5.76
418.481	5.58
418.687	5.19
418.893	5.09
419.099	5.33
419.305	5.46
419.511	5.36
419.717	5.15
419.923	5.29
420.129	5.3
420.335	5.47
420.541	5.51
420.746	5.59
420.952	5.69
421.158	5.63
421.364	5.63
421.57	5.56
421.776	5.47
421.982	5.7
422.187	5.63
422.393	5.8
422.599	5.6
422.805	5.55
423.01	5.46
423.216	5.53
423.422	5.54
423.628	5.65
423.833	5.74
424.039	5.78
424.245	5.66
424.45	5.7
424.656	5.63
424.862	5.7
425.067	5.6
425.273	5.66
425.478	5.82
425.684	5.75
425.889	5.56
426.095	5.54
426.301	5.57
426.506	5.58
426.712	5.56
426.917	5.49
427.123	5.54
427.328	5.51
427.533	5.49
427.739	5.24
427.944	5.15
428.15	5.28
428.355	5.09
428.561	5.11
428.766	5.06
428.971	5.19
429.177	5.05
429.382	4.87
429.587	4.93
429.793	4.94
429.998	4.91
430.203	5.14
430.408	5.12
430.614	5.01
430.819	4.86
431.024	4.79
431.229	4.68
431.434	4.75
431.64	4.72
431.845	4.71
432.05	4.69
432.255	4.79
432.46	4.91
432.665	4.84
432.87	4.88
433.076	4.91
433.281	5.03
433.486	5.09
433.691	5.22
433.896	5.44
434.101	5.57
434.306	5.7
434.511	5.72
434.716	5.59
434.921	5.69
435.126	5.96
435.331	6.03
435.535	5.99
435.74	5.96
435.945	5.85
436.15	5.8
436.355	5.77
436.56	5.66
436.765	5.61
436.97	5.6
437.174	5.45
437.379	5.18
437.584	5.24
437.789	5.13
437.993	5.05
438.198	4.9
438.403	4.74
438.608	4.57
438.812	4.4
439.017	4.47
439.222	4.41
439.426	4.41
439.631	4.34
439.836	4.35
440.04	4.52
440.245	4.34
440.45	4.48
440.654	4.61
440.859	4.56
441.063	4.73
441.268	4.65
441.472	4.73
441.677	4.83
441.881	5.1
442.086	5.12
442.29	5.13
442.495	5.4
442.699	5.55
442.904	5.49
443.108	5.65
443.312	5.75
443.517	5.7
443.721	5.75
443.925	5.72
444.13	5.48
444.334	5.37
444.538	5.41
444.743	5.37
444.947	5.05
445.151	5.13
445.356	5.16
445.56	5.02
445.764	5.14
445.968	5.12
446.173	5.13
446.377	5.19
446.581	5.24
446.785	5.21
446.989	5.2
447.193	5.29
447.398	5.31
447.602	5.26
447.806	5.39
448.01	5.42
448.214	5.34
448.418	5.31
448.622	5.39
448.826	5.26
449.03	5.2
449.234	5.14
449.438	5.1
449.642	5.03
449.846	4.9
450.05	4.93
450.254	4.93
450.458	4.89
450.662	4.6
450.866	4.38
451.069	4.61
451.273	4.54
451.477	4.65
451.681	4.65
451.885	4.63
452.089	4.88
452.292	4.67
452.496	4.52
452.7	4.6
452.904	4.89
453.107	4.97
453.311	4.62
453.515	4.66
453.719	4.49
453.922	4.71
454.126	4.84
454.33	4.7
454.533	4.67
454.737	4.66
454.94	4.69
455.144	4.64
455.348	4.59
455.551	4.69
455.755	4.7
455.958	4.86
456.162	4.8
456.365	4.79
456.569	4.98
456.772	5.2
456.976	5.17
457.179	5.08
457.383	5.02
457.586	5.16
457.79	5.29
457.993	5.25
458.196	5.21
458.4	5.17
458.603	5.18
458.807	4.98
459.01	4.8
459.213	4.96
459.417	5.04
459.62	5.05
459.823	5.02
460.026	4.95
460.23	4.97
460.433	4.86
460.636	4.82
460.839	4.71
461.042	4.73
461.246	4.8
461.449	4.58
461.652	4.58
461.855	4.57
462.058	4.46
462.261	4.49
462.464	4.4
462.668	4.5
462.871	4.59
463.074	4.54
463.277	4.6
463.48	4.72
463.683	4.98
463.886	4.9
464.089	4.82
464.292	4.9
464.495	4.9
464.698	4.97
464.901	5.06
465.104	5.06
465.306	5.14
465.509	4.9
465.712	4.78
465.915	4.54
466.118	4.52
466.321	4.7
466.524	4.74
466.726	4.91
466.929	4.9
467.132	4.9
467.335	4.82
467.538	4.72
467.74	4.93
467.943	4.75
468.146	4.76
468.348	4.66
468.551	4.62
468.754	4.57
468.956	4.64
469.159	4.63
469.362	4.66
469.564	4.6
469.767	4.55
469.969	4.49
470.172	4.59
470.375	4.72
470.577	4.9
470.78	4.87
470.982	4.74
471.185	4.32
471.387	4.41
471.59	4.39
471.792	4.42
471.995	4.52
472.197	4.66
472.399	4.83
472.602	4.89
472.804	4.97
473.007	4.97
473.209	5.06
473.411	5.39
473.614	5.29
473.816	5.19
474.018	5.17
474.22	5.3
474.423	5.13
474.625	4.98
474.827	4.99
475.03	4.93
475.232	4.93
475.434	4.97
475.636	4.94
475.838	4.98
476.04	4.92
476.243	5
476.445	4.87
476.647	4.86
476.849	5.07
477.051	4.92
477.253	4.81
477.455	5
477.657	5.14
477.859	5.11
478.061	5.08
478.263	4.96
478.465	4.93
478.667	4.9
478.869	4.99
479.071	4.84
479.273	4.99
479.475	5.13
479.677	5.11
479.879	5.03
480.081	4.88
480.283	4.88
480.485	5.12
480.686	5.16
480.888	5.38
481.09	5.24
481.292	5.26
481.494	5.19
481.695	5.03
481.897	4.98
482.099	4.85
482.301	4.88
482.502	4.95
482.704	4.98
482.906	5
483.107	4.94
483.309	4.99
483.511	5
483.712	5.03
483.914	5.07
484.115	5.06
484.317	5.13
484.519	5.13
484.72	5.12
484.922	5.04
485.123	5.04
485.325	5.03
485.526	5.04
485.728	4.98
485.929	4.96
486.131	4.92
486.332	4.86
486.534	4.83
486.735	4.87
486.936	4.84
487.138	4.92
487.339	4.98
487.541	5.03
487.742	5.06
487.943	5.05
488.144	5.08
488.346	5.14
488.547	5.18
488.748	5.19
488.95	5.23
489.151	5.25
489.352	5.3
489.553	5.21
489.755	5.11
489.956	4.98
490.157	5.03
490.358	4.92
490.559	4.91
490.76	4.9
490.961	4.93
491.163	4.94
491.364	4.99
491.565	4.92
491.766	4.87
491.967	4.92
492.168	4.97
492.369	5.01
492.57	5.03
492.771	5.03
492.972	4.97
493.173	4.88
493.374	4.89
493.575	4.93
493.776	5.01
493.976	4.95
494.177	4.96
494.378	5.07
494.579	5.03
494.78	5.12
494.981	5.19
495.182	5.33
495.382	5.46
495.583	5.46
495.784	5.17
495.985	5.08
496.185	5.25
496.386	5.31
496.587	5.21
496.788	5.12
496.988	5.02
497.189	5.03
497.39	5.05
497.59	5.11
497.791	5.1
497.992	5.31
498.192	5.26
498.393	5.19
498.593	5.08
498.794	5.16
498.994	5.19
499.195	5.19
499.395	5.04
499.596	5.09
499.796	4.93
499.997	4.97
500.197	4.87
500.398	5.03
500.598	5.11
500.799	5.17
500.999	5.03
501.199	5.12
501.4	5.14
501.6	5.27
501.801	5.15
502.001	5.24
502.201	5.23
502.402	5.24
502.602	5.09
502.802	5.05
503.002	4.99
503.203	4.99
503.403	4.9
503.603	4.81
503.803	4.68
504.003	4.83
504.204	4.87
504.404	4.71
504.604	4.69
504.804	4.76
505.004	4.87
505.204	5.02
505.404	5.03
505.604	5.14
505.804	5.34
506.005	5.34
506.205	5.24
506.405	5.23
506.605	5.29
506.805	5.31
507.005	5.34
507.204	5.21
507.404	5.19
507.604	5.2
507.804	5.27
508.004	5.33
508.204	5.47
508.404	5.35
508.604	5.35
508.804	5.39
509.003	5.36
509.203	5.38
509.403	5.43
509.603	5.25
509.803	5.54
510.002	5.58
510.202	5.42
510.402	5.4
510.602	5.45
510.801	5.39
511.001	5.38
511.201	5.5
511.4	5.48
511.6	5.49
511.8	5.69
511.999	5.48
512.199	5.39
512.398	5.48
512.598	5.38
512.797	5.48
512.997	5.51
513.197	5.6
513.396	5.39
513.596	5.5
513.795	5.58
513.994	5.52
514.194	5.69
514.393	5.77
514.593	5.86
514.792	6.01
514.992	6.07
515.191	6.18
515.39	6.07
515.59	6.19
515.789	6.09
515.988	6
516.188	6.05
516.387	5.98
516.586	5.96
516.786	5.79
516.985	5.77
517.184	5.7
517.383	5.68
517.582	5.69
517.782	5.74
517.981	5.7
518.18	5.81
518.379	5.93
518.578	5.96
518.777	5.91
518.976	5.94
519.176	5.96
519.375	5.95
519.574	5.98
519.773	6.04
519.972	6.08
520.171	6.26
520.37	6.34
520.569	6.3
520.768	6.19
520.967	6.29
521.166	6.32
521.365	6.3
521.564	6.43
521.762	6.48
521.961	6.64
522.16	6.65
522.359	6.62
522.558	6.53
522.757	6.56
522.956	6.6
523.154	6.67
523.353	6.75
523.552	6.75
523.751	6.72
523.949	6.66
524.148	6.58
524.347	6.72
524.546	6.79
524.744	6.84
524.943	6.74
525.142	6.71
525.34	6.6
525.539	6.71
525.737	6.75
525.936	6.78
526.135	6.68
526.333	6.68
526.532	6.64
526.73	6.56
526.929	6.58
527.127	6.61
527.326	6.6
527.524	6.71
527.723	6.65
527.921	6.74
528.12	6.77
528.318	6.89
528.516	6.85
528.715	6.87
528.913	6.91
529.112	6.94
529.31	6.95
529.508	6.99
529.707	7.01
529.905	7.08
530.103	7
530.301	7.01
530.5	6.93
530.698	7
530.896	6.89
531.094	6.84
531.293	6.78
531.491	6.88
531.689	6.97
531.887	6.9
532.085	6.95
532.283	6.97
532.481	7.1
532.68	7.32
532.878	7.29
533.076	7.37
533.274	7.48
533.472	7.57
533.67	7.58
533.868	7.53
534.066	7.55
534.264	7.56
534.462	7.66
534.66	7.56
534.858	7.41
535.056	7.4
535.253	7.41
535.451	7.32
535.649	7.31
535.847	7.34
536.045	7.37
536.243	7.5
536.441	7.43
536.638	7.42
536.836	7.44
537.034	7.62
537.232	7.77
537.43	7.9
537.627	7.86
537.825	7.8
538.023	7.76
538.22	7.91
538.418	7.77
538.616	7.91
538.813	8
539.011	8.04
539.209	8.02
539.406	8.09
539.604	8.1
539.801	8.12
539.999	8.09
540.196	8.06
540.394	8.12
540.591	8.17
540.789	8.15
540.986	8.11
541.184	8.11
541.381	8.02
541.579	8
541.776	8.08
541.974	8.16
542.171	8.23
542.368	8.34
542.566	8.34
542.763	8.47
542.96	8.55
543.158	8.61
543.355	8.61
543.552	8.7
543.75	8.68
543.947	8.69
544.144	8.87
544.341	9.01
544.539	9
544.736	9.03
544.933	8.94
545.13	8.73
545.327	8.75
545.524	8.88
545.722	8.98
545.919	9.06
546.116	9
546.313	8.87
546.51	8.93
546.707	8.93
546.904	8.94
547.101	8.97
547.298	9.09
547.495	9.06
547.692	8.96
547.889	8.96
548.086	8.96
548.283	9.11
548.48	9.28
548.677	9.29
548.874	9.4
549.07	9.41
549.267	9.44
549.464	9.43
549.661	9.58
549.858	9.65
550.055	9.73
550.251	9.88
550.448	9.73
550.645	9.62
550.842	9.41
551.038	9.42
551.235	9.49
551.432	9.59
551.628	9.76
551.825	9.79
552.022	9.89
552.218	9.88
552.415	9.97
552.612	10
552.808	9.96
553.005	10.19
553.201	10.24
553.398	10.22
553.594	10.31
553.791	10.33
553.987	10.34
554.184	10.25
554.38	10.25
554.577	10.22
554.773	10.28
554.97	10.36
555.166	10.31
555.362	10.25
555.559	10.29
555.755	10.16
555.952	10.11
556.148	10.13
556.344	10.5
556.541	10.46
556.737	10.36
556.933	10.45
557.129	10.5
557.326	10.39
557.522	10.48
557.718	10.45
557.914	10.7
558.11	10.71
558.307	10.72
558.503	10.65
558.699	10.78
558.895	10.83
559.091	10.73
559.287	10.72
559.483	10.78
559.679	10.84
559.876	11.08
560.072	11.06
560.268	11.28
560.464	11.41
560.66	11.28
560.856	11.36
561.052	11.39
561.247	11.47
561.443	11.42
561.639	11.56
561.835	11.43
562.031	11.4
562.227	11.64
562.423	11.64
562.619	11.84
562.815	11.79
563.01	11.83
563.206	12.09
563.402	12.12
563.598	12.24
563.793	12.38
563.989	12.33
564.185	12.25
564.381	12.14
564.576	12.36
564.772	12.35
564.968	12.58
565.163	12.79
565.359	12.67
565.555	12.78
565.75	12.8
565.946	12.63
566.141	12.93
566.337	13.07
566.532	13.11
566.728	12.94
566.923	12.91
567.119	12.96
567.314	12.95
567.51	12.98
567.705	13.01
567.901	13
568.096	13.1
568.292	12.99
568.487	13.16
568.682	13.21
568.878	13.42
569.073	13.39
569.268	13.38
569.464	13.2
569.659	13.13
569.854	13.01
570.05	13.09
570.245	13.06
570.44	13.28
570.635	13.11
570.831	13.05
571.026	13.14
571.221	13.14
571.416	13.3
571.611	13.62
571.806	13.86
572.002	14.01
572.197	13.95
572.392	14
572.587	13.83
572.782	14.03
572.977	14
573.172	13.88
573.367	13.88
573.562	13.71
573.757	13.43
573.952	13.35
574.147	13.52
574.342	13.83
574.537	13.87
574.732	14.17
574.927	13.85
575.121	13.8
575.316	13.81
575.511	13.91
575.706	13.9
575.901	14.17
576.096	14.43
576.29	14.29
576.485	14.13
576.68	14.3
576.875	14.31
577.069	14.51
577.264	14.48
577.459	14.45
577.654	14.43
577.848	14.52
578.043	14.58
578.238	14.26
578.432	14.13
578.627	14.2
578.821	14.13
579.016	13.88
579.21	13.86
579.405	14.01
579.6	13.96
579.794	14.38
579.989	14.66
580.183	14.46
580.378	14.56
580.572	14.84
580.766	14.91
580.961	14.91
581.155	15.07
581.35	15.2
581.544	15.04
581.738	15.28
581.933	15.04
582.127	15.1
582.321	14.99
582.516	15.08
582.71	15.23
582.904	15.29
583.099	15.31
583.293	15.28
583.487	15.36
583.681	15.69
583.875	15.71
584.07	15.65
584.264	15.34
584.458	15.49
584.652	15.31
584.846	15.18
585.04	15.33
585.234	15.4
585.428	15.39
585.623	15.47
585.817	15.61
586.011	15.68
586.205	15.65
586.399	15.85
586.593	15.9
586.787	16.17
586.981	16.03
587.174	15.83
587.368	15.91
587.562	16.11
587.756	16.2
587.95	15.82
588.144	15.77
588.338	15.88
588.532	15.7
588.725	15.91
588.919	15.98
589.113	16.09
589.307	16.1
589.501	16.2
589.694	16.19
589.888	15.94
590.082	16.03
590.275	16.19
590.469	16.27
590.663	16.32
590.856	16.3
591.05	16.24
591.244	16.14
591.437	16.4
591.631	16.34
591.824	16.3
592.018	16.6
592.212	16.96
592.405	16.72
592.599	16.76
592.792	16.85
592.986	16.59
593.179	16.44
593.372	16.56
593.566	16.56
593.759	16.4
593.953	16.58
594.146	16.39
594.339	16.3
594.533	16.29
594.726	16.29
594.92	16.33
595.113	16.52
595.306	16.54
595.499	16.56
595.693	16.3
595.886	16.51
596.079	16.25
596.272	16.4
596.466	16.19
596.659	16.33
596.852	16.28
597.045	16.54
597.238	16.57
597.431	16.62
597.624	16.63
597.818	16.82
598.011	16.73
598.204	16.9
598.397	16.79
598.59	16.93
598.783	16.98
598.976	16.81
599.169	16.76
599.362	16.78
599.555	16.8
599.748	16.83
599.941	16.74
600.134	16.63
600.326	16.78
600.519	16.64
600.712	16.66
600.905	16.69
601.098	16.88
601.291	16.45
601.483	16.49
601.676	16.31
601.869	16.36
602.062	16.29
602.255	16.58
602.447	16.43
602.64	16.56
602.833	16.65
603.025	16.6
603.218	16.79
603.411	17.06
603.603	17.09
603.796	17.28
603.989	17.51
604.181	17.59
604.374	17.59
604.566	17.69
604.759	17.79
604.951	17.76
605.144	17.85
605.336	17.73
605.529	17.6
605.721	17.36
605.914	17.45
606.106	17.3
606.299	17.14
606.491	17.27
606.683	17.27
606.876	17.26
607.068	17.26
607.26	17.25
607.453	17.52
607.645	17.76
607.837	18.11
608.03	17.91
608.222	17.96
608.414	17.98
608.606	17.58
608.799	17.42
608.991	17.3
609.183	17.33
609.375	17.28
609.567	17.26
609.759	17.39
609.952	17.17
610.144	17.33
610.336	17.23
610.528	17.5
610.72	17.58
610.912	17.55
611.104	17.39
611.296	17.4
611.488	17.44
611.68	17.16
611.872	16.82
612.064	16.68
612.256	16.72
612.448	16.87
612.64	16.44
612.832	16.74
613.023	17.09
613.215	17.44
613.407	17.41
613.599	17.34
613.791	17.68
613.983	17.93
614.174	18.2
614.366	18.06
614.558	18.13
614.75	18.25
614.941	18.04
615.133	17.74
615.325	17.87
615.516	18.13
615.708	18.44
615.9	18.15
616.091	18.23
616.283	18.27
616.475	18.42
616.666	18.52
616.858	18.67
617.049	18.43
617.241	18.29
617.432	18.16
617.624	18.26
617.815	17.96
618.007	17.72
618.198	17.26
618.39	17.14
618.581	17.44
618.773	17.16
618.964	17.43
619.155	17.52
619.347	17.42
619.538	17.19
619.729	16.67
619.921	16.7
620.112	16.98
620.303	17.05
620.494	16.93
620.686	16.8
620.877	16.34
621.068	16.24
621.259	16.32
621.451	16.64
621.642	16.91
621.833	17.33
622.024	17.34
622.215	17.42
622.406	17.55
622.597	18.05
622.788	17.69
622.98	17.99
623.171	18.02
623.362	18.38
623.553	18.46
623.744	18.54
623.935	18.58
624.126	18.49
624.317	18.35
624.508	18.36
624.698	18.29
624.889	18.43
625.08	18.61
625.271	18.41
625.462	18.17
625.653	18.12
625.844	18.08
626.034	17.92
626.225	17.9
626.416	18.35
626.607	18.37
626.798	18.11
626.988	18.05
627.179	18.07
627.37	18.08
627.56	18.1
627.751	18.2
627.942	18.44
628.132	18.41
628.323	18.34
628.514	18.19
628.704	18.17
628.895	18.34
629.085	18.36
629.276	17.74
629.466	17.85
629.657	17.75
629.847	17.75
630.038	17.33
630.228	17.25
630.419	17.58
630.609	17.49
630.8	17.34
630.99	17.27
631.181	17.43
631.371	17.87
631.561	17.92
631.752	18.29
631.942	17.91
632.132	17.9
632.323	17.85
632.513	18.14
632.703	18.03
632.893	18.26
633.084	18.38
633.274	17.99
633.464	18.14
633.654	18.23
633.844	18.29
634.034	18.58
634.225	18.79
634.415	18.92
634.605	18.61
634.795	18.41
634.985	18.44
635.175	18.54
635.365	18.77
635.555	18.61
635.745	18.73
635.935	18.18
636.125	18.33
636.315	18.42
636.505	18.8
636.695	18.65
636.885	19.13
637.075	18.96
637.265	19.06
637.455	19.08
637.644	19.3
637.834	18.83
638.024	19.1
638.214	18.86
638.404	18.73
638.593	18.87
638.783	19.13
638.973	18.59
639.163	19.16
639.352	19.17
639.542	19.3
639.732	19.35
639.921	19.71
640.111	20.06
640.301	20.13
640.49	20.35
640.68	20.14
640.87	19.63
641.059	19.97
641.249	19.58
641.438	19.38
641.628	19.47
641.817	19.35
642.007	19.28
642.196	18.69
642.386	18.66
642.575	18.01
642.764	17.74
642.954	18.28
643.143	18.34
643.333	18.3
643.522	18.06
643.711	17.68
643.901	17.57
644.09	17.57
644.279	17.65
644.469	17.96
644.658	18.36
644.847	18.63
645.036	18.63
645.226	19
645.415	18.87
645.604	19.01
645.793	19
645.982	19.23
646.171	19.33
646.361	19.62
646.55	19.35
646.739	19.56
646.928	19.51
647.117	19.35
647.306	18.82
647.495	19.16
647.684	19.18
647.873	19.24
648.062	19.45
648.251	19.1
648.44	19.11
648.629	18.94
648.818	18.81
649.007	18.78
649.196	18.86
649.384	18.92
649.573	18.82
649.762	18.94
649.951	18.93
650.14	18.39
650.328	18.68
650.517	18.64
650.706	18.74
650.895	18.68
651.083	18.51
651.272	18.58
651.461	18.67
651.65	18.71
651.838	18.05
652.027	18.43
652.216	18.48
652.404	18.48
652.593	18.3
652.781	18.59
652.97	18.75
653.158	18.91
653.347	18.96
653.535	19.02
653.724	19.21
653.912	19.89
654.101	20.16
654.289	20.91
654.478	21.2
654.666	20.73
654.855	20.54
655.043	20.52
655.231	20.32
655.42	20.39
655.608	20.15
655.796	19.72
655.985	20.08
656.173	19.94
656.361	19.42
656.55	18.89
656.738	19.31
656.926	18.93
657.114	18.66
657.302	19
657.491	18.71
657.679	18.93
657.867	19.01
658.055	18.66
658.243	18.49
658.431	18.36
658.619	18.43
658.807	18.85
658.996	19.1
659.184	19.17
659.372	18.96
659.56	19.39
659.748	19.7
659.936	19.62
660.124	19.75
660.311	19.82
660.499	19.91
660.687	20.01
660.875	19.83
661.063	20.11
661.251	20.23
661.439	19.85
661.627	19.62
661.814	19.12
662.002	19.18
662.19	19.27
662.378	19.48
662.565	19.59
662.753	20.14
662.941	20.23
663.129	20.2
663.316	19.91
663.504	20.11
663.692	19.97
663.879	19.81
664.067	19.61
664.254	19.23
664.442	18.77
664.63	18.92
664.817	18.53
665.005	18.32
665.192	18.17
665.38	18.84
665.567	18.96
665.755	19.44
665.942	19.63
666.13	20.48
666.317	20.81
666.504	21.29
666.692	21.04
666.879	21.37
667.067	21.26
667.254	21.02
667.441	20.48
667.629	20.79
667.816	20.28
668.003	20.34
668.19	20.51
668.378	20.13
668.565	19.87
668.752	20.2
668.939	19.98
669.127	20.88
669.314	20.88
669.501	21.11
669.688	20.85
669.875	21.5
670.062	21.22
670.249	20.75
670.436	21
670.623	20.99
670.81	20.85
670.997	20.39
671.184	19.62
671.371	20.12
671.558	20.09
671.745	20.36
671.932	20.02
672.119	20.73
672.306	20.59
672.493	20.56
672.68	20.56
672.867	20.75
673.054	21.24
673.24	21.59
673.427	21.34
673.614	21.43
673.801	21.45
673.988	21.31
674.174	21.04
674.361	20.88
674.548	20.54
674.734	20.5
674.921	20.36
675.108	20.08
675.294	19.58
675.481	19.88
675.668	20.2
675.854	19.78
676.041	19.67
676.227	19.69
676.414	19.62
676.601	20.11
676.787	20.36
676.974	20.38
677.16	20.83
677.347	20.9
677.533	20.92
677.719	20.39
677.906	20.92
678.092	21.12
678.279	21.27
678.465	21.78
678.651	21.46
678.838	21.35
679.024	21.4
679.21	21.29
679.397	21.33
679.583	21.08
679.769	21.4
679.955	21.18
680.142	20.91
680.328	20.42
680.514	20.22
680.7	20.5
680.886	20.27
681.073	19.61
681.259	19.44
681.445	19.51
681.631	19.9
681.817	19.81
682.003	19.57
682.189	19.7
682.375	20.55
682.561	20.43
682.747	20.87
682.933	20.96
683.119	21.55
683.305	21.21
683.491	21.2
683.677	20.93
683.863	20.12
684.049	20.85
684.235	20.99
684.42	20.63
684.606	20.56
684.792	20
684.978	20.46
685.164	20.18
685.349	20.21
685.535	20.32
685.721	20.22
685.907	20.86
686.092	20.48
686.278	20.35
686.464	19.99
686.649	20.46
686.835	20.36
687.021	19.8
687.206	20.41
687.392	20.88
687.577	20.93
687.763	20.73
687.948	20.56
688.134	20.58
688.319	20.68
688.505	21.35
688.69	20.88
688.876	21.06
689.061	20.93
689.247	20.94
689.432	20.61
689.618	20.56
689.803	20.73
689.988	21.1
690.174	20.96
690.359	21.18
690.544	20.7
690.73	21.05
690.915	21.46
691.1	21.79
691.285	22.11
691.471	22.06
691.656	22.22
691.841	22.26
692.026	22.12
692.211	21.46
692.396	21.14
692.582	21.16
692.767	21.09
692.952	20.86
693.137	20.66
693.322	20.19
693.507	20.62
693.692	20.16
693.877	19.95
694.062	20.52
694.247	21.47
694.432	21.02
694.617	20.69
694.802	21.02
694.987	21.24
695.172	21.93
695.357	21.93
695.541	21.82
695.726	21.79
695.911	21.84
696.096	21.41
696.281	21.63
696.466	22.38
696.65	23.54
696.835	23.32
697.02	23.18
697.204	22.57
697.389	22.38
697.574	22.71
697.759	22.83
697.943	22.96
698.128	22.93
698.312	22.93
698.497	22.9
698.682	22.25
698.866	22.4
699.051	21.89
699.235	21.87
699.42	21.91
699.604	21.8
699.789	21.72
699.973	21.78
700.158	22.05
700.342	22.15
700.527	22.35
700.711	22.5
700.895	22.26
701.08	22.88
701.264	23.11
701.448	22.47
701.633	22.47
701.817	22.51
702.001	22.39
702.186	21.85
702.37	21.22
702.554	20.47
702.738	20.73
702.923	20.66
703.107	20.02
703.291	19.8
703.475	20.96
703.659	20.21
703.843	19.85
704.027	20.06
704.212	19.83
704.396	19.97
704.58	19.67
704.764	19.35
704.948	18.86
705.132	19.31
705.316	19.66
705.5	19.23
705.684	19.11
705.868	20.05
706.052	19.56
706.235	19.95
706.419	19.5
706.603	20.34
706.787	19.9
706.971	20.74
707.155	20.88
707.339	21.33
707.522	21.59
707.706	22.26
707.89	21.57
708.074	21.93
708.257	22.41
708.441	22.81
708.625	22.21
708.808	22.47
708.992	22.26
709.176	22.36
709.359	21.68
709.543	22.07
709.727	21.71
709.91	22.33
710.094	22.31
710.277	21.97
710.461	21.55
710.644	22.31
710.828	21.75
711.011	21.27
711.195	20.87
711.378	20.98
711.562	20.75
711.745	20.6
711.928	20.27
712.112	20.38
712.295	20.67
712.478	21.19
712.662	21.16
712.845	21.13
713.028	21.41
713.212	21.61
713.395	21.37
713.578	21.19
713.761	21.71
713.945	21.5
714.128	21.52
714.311	20.92
714.494	20.67
714.677	20.16
714.86	20.92
715.043	21.82
715.227	22.05
715.41	22.5
715.593	22.93
715.776	22.88
715.959	23.68
716.142	23.24
716.325	23.75
716.508	24.72
716.691	25.14
716.874	25.23
717.057	24.4
717.239	24.07
717.422	23.54
717.605	24.06
717.788	23.9
717.971	23.43
718.154	23.58
718.337	23.59
718.519	23.13
718.702	22.96
718.885	23.14
719.068	23.26
719.25	22.79
719.433	24.54
719.616	24.37
719.798	24.39
719.981	23.76
720.164	24.41
720.346	22.98
720.529	22.79
720.712	22.83
720.894	22.72
721.077	22.58
721.259	22.71
721.442	21.76
721.624	20.26
721.807	20.38
721.989	20.56
722.172	20.51
722.354	21.13
722.537	20.1
722.719	20.05
722.901	20.18
723.084	19.51
723.266	20.53
723.448	19.97
723.631	20.94
723.813	21.6
723.995	22.05
724.178	21.27
724.36	21.79
724.542	22.18
724.724	21.81
724.907	22.04
725.089	23.55
725.271	23.62
725.453	22.97
725.635	22.71
725.817	21.86
725.999	21.69
726.181	21.64
726.364	22.31
726.546	23.11
726.728	24.31
726.91	24.22
727.092	23.59
727.274	23.86
727.456	25.56
727.638	25.85
727.819	25.96
728.001	26.53
728.183	27.14
728.365	26.62
728.547	26.9
728.729	26.09
728.911	26
729.093	26.56
729.274	25.56
729.456	24.82
729.638	24.82
729.82	24.94
730.001	24.97
730.183	25.19
730.365	24.88
730.546	25.23
730.728	25.04
730.91	25.32
731.091	24.49
731.273	24.65
731.455	23.77
731.636	22.69
731.818	23.38
731.999	23.53
732.181	22.34
732.362	22.28
732.544	21.62
732.725	21.81
732.907	22.39
733.088	21.9
733.27	20.86
733.451	21.79
733.633	23.41
733.814	23.01
733.995	21.28
734.177	22.16
734.358	22.38
734.539	21.56
734.721	21.27
734.902	19.35
735.083	19.47
735.264	20.16
735.446	19.61
735.627	18.3
735.808	18
735.989	19.18
736.17	19.52
736.351	19.51
736.533	20.01
736.714	19.63
736.895	21.16
737.076	21.88
737.257	21.93
737.438	21.56
737.619	22.56
737.8	22.37
737.981	22.2
738.162	20.59
738.343	20.77
738.524	21.59
738.705	22.92
738.886	21.74
739.067	21.5
739.247	22.61
739.428	23.67
739.609	22.32
739.79	22.1
739.971	23.03
740.151	24.09
740.332	22.87
740.513	20.86
740.694	20.43
740.874	20.17
741.055	20.39
741.236	19.68
741.417	19.19
741.597	19.08
741.778	19.02
741.958	17
742.139	17.19
742.32	17.99
742.5	19.38
742.681	19.04
742.861	19.19
743.042	19.21
743.222	19.46
743.403	20.35
743.583	22.01
743.764	21.75
743.944	22.16
744.124	22.06
744.305	23.79
744.485	24.41
744.666	24.61
744.846	24.73
745.026	24.12
745.207	23.58
745.387	22.04
745.567	20.41
745.747	21.92
745.928	23.13
746.108	23.31
746.288	20.87
746.468	19.77
746.648	18.81
746.829	20.13
747.009	19.01
747.189	19.58
747.369	19.94
747.549	21.83
747.729	20.45
747.909	19.72
748.089	20.96
748.269	23.23
748.449	24.01
748.629	24.91
748.809	23.17
748.989	25.05
749.169	24.59
749.349	24.74
749.529	23.84
749.709	25.05
749.889	25.31
750.068	24.66
750.248	24.58
750.428	24.24
750.608	24.45
750.788	26.13
750.967	24.9
751.147	24.68
751.327	24.37
751.507	25.47
751.686	25.48
751.866	24.21
752.046	22.56
752.225	21.01
752.405	20.3
752.585	20
752.764	19.23
752.944	22.17
753.123	23.11
753.303	23.08
753.482	21.77
753.662	21.18
753.841	22.07
754.021	22.74
754.2	24.23
754.38	24.75
754.559	23.23
754.739	23.12
754.918	20.11
755.097	19.63
755.277	18.81
755.456	18.34
755.635	17.97
755.815	18.75
755.994	18.18
756.173	17.49
756.352	17.16
756.532	17.92
756.711	18.19
756.89	18.34
757.069	17.79
757.248	19.04
757.427	19.4
757.607	20.23
757.786	19.96
757.965	20.23
758.144	20.19
758.323	20.54
758.502	21.04
758.681	20.21
758.86	21.19
759.039	22.83
759.218	23.4
759.397	23.02
759.576	22.66
759.755	22.54
759.934	23.38
760.113	23.09
760.291	23.85
760.47	22.62
760.649	21.59
760.828	22.77
761.007	21.5
761.186	21.4
761.364	21.82
761.543	21.84
761.722	21.7
761.901	22.48
762.079	22.72
762.258	21.71
762.437	22.92
762.615	23.82
762.794	21.85
762.972	22.93
763.151	22.16
763.33	21.94
763.508	22.23
763.687	22.14
763.865	21.1
764.044	19.72
764.222	19.9
764.401	19.88
764.579	20.28
764.758	21.07
764.936	19.77
765.114	20.43
765.293	21.89
765.471	21.45
765.65	21.41
765.828	22.22
766.006	23.89
766.184	24.04
766.363	22.9
766.541	23.94
766.719	22.88
766.898	24.36
767.076	24.1
767.254	22.47
767.432	22.13
767.61	22.26
767.788	22.05
767.967	22.63
768.145	22.99
768.323	24.11
768.501	23.55
768.679	24.52
768.857	23.93
769.035	24.04
769.213	23.36
769.391	23.98
769.569	23.72
769.747	24.23
769.925	24.89
770.103	24.64
770.281	26.03
770.459	26.52
770.636	27
770.814	25.83
770.992	25.13
771.17	26.42
771.348	27.22
771.525	28.18
771.703	30.01
771.881	28.82
772.059	28.55
772.236	28.15
772.414	27.4
772.592	27.4
772.769	26.65
772.947	26.83
773.125	26.62
773.302	27.45
773.48	28.35
773.657	23.18
773.835	22.4
774.013	22.97
774.19	21.34
774.368	21.3
774.545	18.97
774.723	20.08
774.9	18.34
775.077	17.27
775.255	14.66
775.432	12.32
775.61	15.45
775.787	14.4
775.964	14.72
776.142	12.55
776.319	13.69
776.496	14.77
776.674	13.19
776.851	15.83
777.028	17.4
777.205	19.51
777.382	19.99
777.56	20.75
777.737	23.48
777.914	23.63
778.091	25.6
778.268	23.53
778.445	23.69
778.622	25.82
778.8	25.41
778.977	23.65
779.154	20.73
779.331	22.7
779.508	23
779.685	21.19
779.862	19.5
780.038	19.96
780.215	19.73
780.392	20.74
780.569	19.46
780.746	18.2
780.923	17.76
781.1	18.22
781.277	14.51
781.453	10.52
781.63	9.68
781.807	10.32
781.984	10.94
782.16	11.92
782.337	14.33
782.514	15.09
782.691	17.42
782.867	20.63
783.044	21.32
783.221	26.41
783.397	27.58
783.574	26.54
783.75	27.42
783.927	26.78
784.103	24.76
784.28	25.33
784.456	24.87
784.633	26.95
784.809	25.71
784.986	25.55
785.162	22.83
785.339	22.43
785.515	24.51
785.692	21.52
785.868	21.58
786.044	22.12
786.221	19.77
786.397	21.32
786.573	17.36
786.749	16.19
786.926	19.01
787.102	17.63
787.278	20.63
787.454	20.66
787.631	25.64
787.807	23.6
787.983	24.8
788.159	22.45
788.335	22.55
788.511	22.67
788.687	22.94
788.863	19.72
789.039	20.89
789.216	20.84
789.392	18.93
789.568	15.23
789.744	16.85
789.919	17.69
790.095	19.64
790.271	17.53
790.447	18.77
790.623	19.56
790.799	22.22
790.975	20.94
791.151	21.19
791.327	25.69
791.502	31.09
791.678	29.21
791.854	27.35
792.03	26.69
792.205	25.99
792.381	23.62
792.557	25.03
792.733	23.22
792.908	21.41
793.084	17.79
793.259	14.31
793.435	9.45
793.611	12.98
793.786	17.38
793.962	18.38
794.137	20.3
794.313	18.45
794.488	16.66
794.664	15.16
794.839	19.56
795.015	17.83
795.19	20.95
795.366	18.78
795.541	15.75
795.716	15.02
795.892	12.28
796.067	13.5
796.242	15.49
796.418	14.52
796.593	15.25
796.768	15.66
796.944	18.7
797.119	17.26
797.294	21.08
797.469	23.39
797.644	21.15
797.82	23.71
797.995	21.67
798.17	22.88
798.345	26.89
798.52	25.3
798.695	22.44
798.87	22.31
799.045	19.51
799.22	17.77
799.395	19.28
799.57	21.35
799.745	24.28
799.92	25.12
800.095	25.49
800.27	20.75
800.445	20.82
800.62	24.14
800.795	24.91
800.97	24.11
801.145	24.57
801.319	22.68
801.494	17.38
801.669	14.72
801.844	17.43
802.018	17.19
802.193	18.44
802.368	19.23
802.543	17.87
802.717	16.65
802.892	17.39
803.067	15.4
803.241	20.29
803.416	25.03
803.59	25.21
803.765	20.77
803.94	22.02
804.114	19.68
804.289	23.19
804.463	21.85
804.638	25.29
804.812	27.93
804.986	25.54
805.161	18.3
805.335	18.71
805.51	17.94
805.684	19.71
805.858	16.4
806.033	20.13
806.207	18.62
806.381	25.37
806.556	26.02
806.73	24.95
806.904	29.57
807.078	33.21
807.253	31.73
807.427	29.33
807.601	33.36
807.775	36.12
807.949	36.81
808.123	39.02
808.298	30.22
808.472	24.2
808.646	21.38
808.82	20.55
808.994	21.37
809.168	19.8
809.342	18.86
809.516	10.74
809.69	13.8
809.864	12.03
810.038	6.58
810.212	11.43
810.385	11.43
810.559	13.53
810.733	10.26
810.907	2
811.081	5.01
811.255	8.68
811.428	16.34
811.602	16.26
811.776	18.4
811.95	20.97
812.123	20.06
812.297	20.85
812.471	23.55
812.644	21.05
812.818	20.81
812.992	20.2
813.165	22.71
813.339	19.82
813.512	20.91
813.686	18.04
813.86	19.02
814.033	19.14
814.207	19.81
814.38	17.22
814.554	22.06
814.727	21.53
814.9	23.45
815.074	19.71
815.247	16.45
815.421	12.17
815.594	10.03
815.767	6.78
815.941	10.54
816.114	11.41
816.287	10.82
816.46	4.75
816.634	14.69
816.807	9.78
816.98	7.67
817.153	11.89
817.327	16.21
817.5	19.45
817.673	22.96
817.846	20.89
818.019	24.84
818.192	24.4
818.365	31.82
818.538	27.23
818.711	25.55
818.884	29.15
819.057	25.96
819.23	25.71
819.403	24.61
819.576	22.05
819.749	23.78
819.922	19.67
820.095	23.98
820.268	19.57
820.441	21.09
820.614	23.5
820.786	23.62
820.959	24.83
821.132	22.96
821.305	23.67
821.477	24
821.65	22.88
821.823	24.6
821.996	24.38
822.168	25.47
822.341	25.85
822.514	26.23
822.686	26.15
822.859	26.07
823.031	26.27
823.204	26.94
823.376	28.04
823.549	28.28
823.722	28.4
823.894	28.54
824.067	28.4
824.239	28.58
824.411	28.3
824.584	27.89
824.756	27.82
824.929	28.73
825.101	27.67
825.273	26.62
825.446	26
825.618	24.03
825.79	24.38
825.963	25.26
826.135	24.4
826.307	24.99
826.479	26.1
826.652	27.38
826.824	25.65
826.996	25.18
827.168	24.45
827.34	24.28
827.512	25.77
827.684	26.08
827.856	25.5
828.029	25.02
828.201	25.04
828.373	25.69
828.545	24.63
828.717	26.69
828.889	28.76
829.061	29.6
829.232	30.62
829.404	31.04
829.576	29.19
829.748	30.47
829.92	31.48
830.092	31.2
830.264	29.84
830.436	29.36
830.607	28.85
830.779	27.57
830.951	27.17
831.123	25.48
831.294	20.36
831.466	20.54
831.638	18.68
831.809	18.4
831.981	19.61
832.153	20.07
832.324	18.68
832.496	16.47
832.667	14.35
832.839	12.82
833.011	14.11
833.182	21.17
833.354	20.61
833.525	23.59
833.697	24.2
833.868	21.85
834.039	19.62
834.211	22.21
834.382	24.04
834.554	24.73
834.725	26.73
834.896	28.33
835.068	26.67
835.239	27.77
835.41	26.21
835.581	26.03
835.753	27.56
835.924	29.99
836.095	25.17
836.266	22.6
836.438	23.71
836.609	24.11
836.78	23.28
836.951	23.6
837.122	23.93
837.293	17.93
837.464	19.44
837.635	22.06
837.806	20.4
837.977	26.27
838.148	27.88
838.319	32.1
838.49	26.71
838.661	24.19
838.832	20.87
839.003	20.78
839.174	25.94
839.345	22.54
839.516	17.21
839.687	16.63
839.857	18.64
840.028	24.05
840.199	14.78
840.37	17.71
840.54	17.62
840.711	20.56
840.882	22.67
841.053	22
841.223	23.84
841.394	25.5
841.564	25.19
841.735	31.33
841.906	23.61
842.076	22.57
842.247	22.56
842.417	20.23
842.588	12.72
842.758	4.36
842.929	-6.76
843.099	-2.08
843.27	6.69
843.44	5.6
843.611	2.18
843.781	-18.87
843.951	-14.45
844.122	-23.41
844.292	-22.43
844.462	-18.52
844.633	-16.27
844.803	1.63
844.973	4.78
845.144	-16.57
845.314	-19.57
845.484	-29.18
845.654	2.23
845.824	17.88
845.995	24.09
846.165	32.51
846.335	40.48
846.505	51.86
846.675	51.47
846.845	40.44
847.015	56.59
847.185	48.84
847.355	42.98
847.525	43.57
847.695	45.92
847.865	35.13
848.035	9.54
848.205	9.98
848.375	4.33
848.545	3.34
848.715	-9.99
848.884	-34.51
849.054	-25.57
849.224	-9.24
849.394	-6.32
849.564	-16.31
849.733	-11.17
849.903	-4.09
850.073	2.49
850.243	9.19
850.412	0.41
850.582	19.1
850.752	22.67
850.921	31.54
851.091	35.11
851.26	49.19
851.43	48.07
851.599	46.71
851.769	49.28
851.939	50.66
852.108	46.56
852.278	47.77
852.447	43.93
852.616	36.98
852.786	30.56
852.955	36.09
853.125	11.84
853.294	11.68
853.463	7.27
853.633	5.27
853.802	-5.87
853.971	0.94
854.141	5.68
854.31	-4.98
854.479	1.73
854.648	-14.13
854.818	-5.99
854.987	1.35
855.156	-14.91
855.325	-13.05
855.494	-5.61
855.663	-2.53
855.832	-14.44
856.001	-35.36
856.171	-33.45
856.34	-50.43
856.509	-22.32
856.678	-58.12
856.847	-50.67
857.016	-15.57
857.185	-34.99
857.353	-40.77
857.522	-36.61
857.691	-38.16
857.86	-14.02
858.029	-0
858.198	2.54
858.367	3.29
858.535	-4.92
858.704	-33.85
858.873	-47.5
859.042	-30.83
859.21	-35.41
859.379	-53.11
859.548	-37.1
859.717	-44.52
859.885	-29.05
860.054	-5.31
860.222	-15.18
860.391	4.9
860.56	14.52
860.728	14.32
860.897	11.19
861.065	13.46
861.234	11.53
861.402	-9.48
861.571	-25.88
861.739	-21.53
861.908	-46.62
862.076	-38.97
862.244	-35.99
862.413	-49.81
862.581	-43.97
862.749	-39.83
862.918	-52.87
863.086	-48.17
863.254	-25.67
863.423	-15.82
863.591	-33.13
863.759	-37.59
863.927	-44.21
864.096	-44.28
864.264	-30.68
864.432	-32.57
864.6	-35.39
864.768	-24.15
864.936	-17.46
865.104	-21.98
865.272	-31.29
865.44	-40.29
865.608	-46.13
865.776	-31.53
865.944	-42.03
866.112	-66.94
866.28	-67.09
866.448	-56.81
866.616	-49.42
866.784	-56.54
866.952	-67.82
867.12	-30.7
867.288	-27.71
867.455	-8.76
867.623	-24.56
867.791	-22.96
867.959	3.26
868.127	-14.56
868.294	-92.9
868.462	-94.39
868.63	-183.21
868.797	-95.48
868.965	-3658.99
869.133	-200.26
869.3	-101.15
869.468	-146.93
869.636	-107.64
869.803	-61.47
869.971	-35.06
870.138	-47.92
870.306	-52.31
870.473	-23.05
870.641	-75.67
870.808	-65.88
870.975	-104.93
871.143	-108.84
871.31	-1.77
871.478	-8.91
871.645	-250.64
871.812	-217.45
871.98	-85.03
872.147	-61.4
872.314	-98.17
872.482	-2.12
872.649	16.71
872.816	6.2
872.983	-15.29
873.15	-28.08
873.318	-20.73
873.485	10.39
873.652	7.79
873.819	6.54
873.986	2.26
874.153	-6.63
874.32	-14.78
874.487	-5.29
874.654	6.29
874.821	10.12
874.988	-27.94
875.155	-54.36
875.322	-61.6
875.489	-124.76
875.656	-75.31
875.823	-115.19
875.99	-72.45
876.157	-133.66
876.324	-151.2
876.49	-81.19
876.657	-42.78
876.824	-30.1
876.991	-7.99
877.157	-61.7
877.324	-52.11
877.491	-108.08
877.658	-136.03
877.824	-120.41
877.991	-22.47
878.157	6.09
878.324	-27.66
878.491	-29.9
878.657	-41.04
878.824	-27.06
878.99	-2.05
879.157	8.46
879.323	-7.29
879.49	21.27
879.656	29.89
879.823	24.22
879.989	6.46
880.156	-1.3
880.322	-23.18
880.488	-41.39
880.655	-35.17
880.821	-23.21
880.987	-30.11
881.154	-6.12
881.32	-16.72
881.486	-17.42
881.652	-11.11
881.819	-9.26
881.985	2.35
882.151	6.88
882.317	17.42
882.483	17.76
882.649	21.67
882.816	26.22
882.982	24.67
883.148	27.66
883.314	25.09
883.48	24.06
883.646	21.94
883.812	23.19
883.978	24.9
884.144	24.68
884.31	23.41
884.476	22.37
884.642	18.6
884.807	20.03
884.973	17.91
885.139	19.15
885.305	17.52
885.471	15.87
885.637	17.07
885.802	17.07
885.968	16.65
886.134	14.34
886.3	15.6
886.465	18.88
886.631	10.44
886.797	16.03
886.962	20.38
887.128	22.21
887.293	22.99
887.459	13.57
887.625	8.6
887.79	-1.33
887.956	-2.47
888.121	-13.9
888.287	-25.6
888.452	-17.73
888.618	-37.83
888.783	-65.38
