Data from 2937858_Reflection_1.txt Node
Date: Wed Jul 15 15:32:57 EDT 2015
User: robert
Spectrometer: USB4E03001
Autoset integration time: false
Trigger mode: 4
Integration Time (sec): 1.000000E-1
Scans to average: 10
Electric dark correction enabled: true
Nonlinearity correction enabled: false
Boxcar width: 5
Stray light correction enabled: false
XAxis mode: Wavelengths
Stop averaging: false
Number of Pixels in Spectrum: 3648
>>>>>Begin Spectral Data<<<<<
177.566	18.9
177.785	-6.11
178.005	-71.92
178.225	-1.56
178.445	-122.78
178.665	-622.63
178.885	1342.22
179.105	325.11
179.324	135.23
179.544	118.11
179.764	59.09
179.984	79.64
180.204	30.24
180.423	-3.51
180.643	-10.03
180.863	-33.08
181.083	-72.71
181.302	-37.53
181.522	-30.99
181.742	-26.05
181.961	-102.4
182.181	-116.72
182.401	-158.08
182.621	-60.2
182.84	-24.58
183.06	20.58
183.279	51.73
183.499	57.09
183.719	105.41
183.938	201.03
184.158	153.84
184.377	137.77
184.597	111.77
184.816	72.1
185.036	35.41
185.256	-8.55
185.475	-2.86
185.695	-93.71
185.914	-413.48
186.134	-287.27
186.353	-262.04
186.572	-169.78
186.792	-101.63
187.011	-85.35
187.231	-54.12
187.45	27.4
187.67	32.64
187.889	16.83
188.108	17.74
188.328	34.55
188.547	27.09
188.766	34.14
188.986	8.77
189.205	17.24
189.424	-4.08
189.644	-98.45
189.863	-254.16
190.082	-971.85
190.302	3691.63
190.521	-276.9
190.74	-188.73
190.959	-264.37
191.178	-189.73
191.398	-228.82
191.617	-294.96
191.836	-270.47
192.055	-160.47
192.274	-141.49
192.494	-67.02
192.713	-44.47
192.932	-75.76
193.151	-143.68
193.37	-141.36
193.589	-3918.18
193.808	-724.85
194.027	-898.21
194.246	-245.69
194.465	-106.74
194.685	-208.85
194.904	-87.04
195.123	-24.55
195.342	-31.81
195.561	-28.93
195.78	-4.74
195.999	0.38
196.218	18.68
196.436	6.71
196.655	11.07
196.874	2.88
197.093	19.64
197.312	15.44
197.531	-2.8
197.75	-37.72
197.969	6.12
198.188	-15.82
198.407	-6.14
198.625	-58.17
198.844	-100.45
199.063	-302.04
199.282	-242.5
199.501	-141.99
199.719	-361.49
199.938	-81.7
200.157	-1.25
200.376	-14.63
200.594	-23.96
200.813	-62.61
201.032	-5.46
201.251	-6.69
201.469	4.62
201.688	10.18
201.907	-45.4
202.125	-52.85
202.344	-97.71
202.563	-180.79
202.781	-694.17
203	-357.58
203.218	-484.61
203.437	34355
203.656	3104.56
203.874	-598.79
204.093	-393.67
204.311	-51.2
204.53	-55.52
204.748	4.11
204.967	-2.26
205.185	-6.21
205.404	-7.46
205.622	23.83
205.841	1.32
206.059	5.78
206.278	-1.98
206.496	-14.42
206.715	-15.02
206.933	12.34
207.151	15.58
207.37	12.12
207.588	3.81
207.806	14.15
208.025	4.68
208.243	0.65
208.461	19.92
208.68	48.85
208.898	50.52
209.116	65.05
209.335	54.99
209.553	40.69
209.771	37.46
209.989	27.75
210.208	8.9
210.426	-21.5
210.644	17.47
210.862	14.88
211.081	47.67
211.299	44.57
211.517	48.71
211.735	51.59
211.953	35.06
212.171	44.5
212.39	68.81
212.608	70.41
212.826	66.07
213.044	42
213.262	38.89
213.48	7.66
213.698	16.18
213.916	-9.51
214.134	-5.48
214.352	9.29
214.57	14.67
214.788	17.2
215.006	27.95
215.224	43.81
215.442	35.08
215.66	9.74
215.878	25.02
216.096	4.4
216.314	-14.66
216.532	-17.39
216.75	-21.71
216.968	-43.09
217.185	-43.27
217.403	-80.54
217.621	-69.73
217.839	-91.38
218.057	-72.25
218.275	-25.35
218.492	-21.5
218.71	-38.59
218.928	-161.12
219.146	-83.53
219.363	-24.82
219.581	0.29
219.799	3.07
220.017	0.55
220.234	11.98
220.452	13.87
220.67	-3.94
220.887	-1.52
221.105	9.17
221.323	17.25
221.54	13.97
221.758	-2.25
221.976	-31.09
222.193	-21.76
222.411	-10.67
222.629	-19.62
222.846	-16.58
223.064	-5.61
223.281	-4.46
223.499	-2.97
223.716	2.09
223.934	-5.77
224.151	0.33
224.369	3.29
224.586	6.78
224.804	6.83
225.021	17.64
225.239	12.68
225.456	14.39
225.674	13.41
225.891	13.55
226.108	13.51
226.326	17.46
226.543	17.19
226.76	11.03
226.978	4.03
227.195	8.06
227.413	8.38
227.63	10.23
227.847	7.48
228.064	7.32
228.282	5.16
228.499	4.96
228.716	5.58
228.934	6.01
229.151	11.54
229.368	11.77
229.585	9.31
229.802	9.64
230.02	9.78
230.237	6.61
230.454	6.04
230.671	6.6
230.888	6.61
231.105	4.6
231.323	-0.23
231.54	-4.8
231.757	-12.05
231.974	-14.65
232.191	-14.9
232.408	-20.13
232.625	-12.62
232.842	-12.56
233.059	-8.62
233.276	-10.3
233.493	-3.75
233.71	2.75
233.927	2.82
234.144	7.67
234.361	7.07
234.578	7.71
234.795	9.23
235.012	11.2
235.229	7.76
235.446	1.75
235.663	6.27
235.879	7.02
236.096	8.27
236.313	8.9
236.53	8.95
236.747	9.39
236.964	9.78
237.181	13.37
237.397	8.43
237.614	13.61
237.831	16.37
238.048	15.23
238.264	8.02
238.481	4.01
238.698	5.52
238.915	6.3
239.131	10.72
239.348	13.29
239.565	11.29
239.781	15.76
239.998	9.52
240.215	8.18
240.431	10.56
240.648	11.53
240.865	14.21
241.081	12.18
241.298	13
241.514	10.35
241.731	10.54
241.947	9.44
242.164	9.09
242.38	10.27
242.597	11.27
242.814	9.34
243.03	10.79
243.246	11.04
243.463	10.76
243.679	10.09
243.896	10.93
244.112	9.51
244.329	10.66
244.545	10.66
244.762	11.9
244.978	11.33
245.194	12.85
245.411	12.47
245.627	9.21
245.843	9.05
246.06	10.29
246.276	11.38
246.492	11.58
246.709	10.87
246.925	11.4
247.141	11.1
247.357	11.08
247.574	10.89
247.79	11.21
248.006	12.12
248.222	12.87
248.439	12.12
248.655	12.12
248.871	11.73
249.087	11.69
249.303	10.15
249.519	9.61
249.736	9.62
249.952	9.65
250.168	9.19
250.384	10.41
250.6	7.98
250.816	8.21
251.032	9.19
251.248	8.43
251.464	8.51
251.68	8.6
251.896	7.52
252.112	6.95
252.328	8.49
252.544	8.63
252.76	7.22
252.976	8.6
253.192	9.87
253.408	6.59
253.624	6.1
253.84	6.26
254.056	5.79
254.272	5.32
254.487	7.15
254.703	3.12
254.919	0.86
255.135	2.64
255.351	0.73
255.567	-0.45
255.782	2.51
255.998	4.13
256.214	5.29
256.43	7.74
256.646	10.63
256.861	9.48
257.077	11.22
257.293	11.53
257.508	7.14
257.724	8.97
257.94	8.71
258.155	7.03
258.371	6.32
258.587	5.78
258.802	5.35
259.018	5.23
259.234	5.52
259.449	5.52
259.665	5.75
259.88	6.27
260.096	6.75
260.312	6.7
260.527	6.77
260.743	6.56
260.958	5.89
261.174	5.86
261.389	6.24
261.605	6.19
261.82	4.61
262.036	4.49
262.251	4.33
262.466	2.7
262.682	1.79
262.897	0.64
263.113	1.95
263.328	3.55
263.543	4.51
263.759	2.27
263.974	0.94
264.189	3.72
264.405	1.79
264.62	3.43
264.835	2.91
265.051	3.33
265.266	5.55
265.481	4.98
265.696	6.01
265.912	3.58
266.127	5.8
266.342	7.47
266.557	6.96
266.773	7.59
266.988	6.37
267.203	7.02
267.418	6.98
267.633	5.86
267.848	5.18
268.064	4.43
268.279	5.36
268.494	5.67
268.709	4.88
268.924	5.19
269.139	6.32
269.354	6.2
269.569	6.18
269.784	6.48
269.999	6.83
270.214	7.96
270.429	7.38
270.644	6.87
270.859	5.27
271.074	5.13
271.289	3.84
271.504	3.02
271.719	2.96
271.934	2.06
272.149	1.99
272.363	2.23
272.578	1.76
272.793	1.53
273.008	2.69
273.223	2.71
273.438	2.33
273.653	3.67
273.867	3.77
274.082	4.43
274.297	4.61
274.512	4.41
274.726	4.12
274.941	3.89
275.156	6.69
275.371	6.55
275.585	6.39
275.8	6.01
276.015	5.08
276.229	5.87
276.444	5.26
276.659	6.42
276.873	6.72
277.088	6.54
277.302	4.84
277.517	1.61
277.732	1.11
277.946	1.75
278.161	3.54
278.375	4.89
278.59	4.71
278.804	4.07
279.019	4.6
279.233	5.73
279.448	4.57
279.662	6.33
279.877	6.49
280.091	7.03
280.306	6.98
280.52	5.3
280.735	4.25
280.949	4.61
281.163	7.05
281.378	6.16
281.592	5.15
281.806	5.18
282.021	5.55
282.235	6.27
282.449	5.63
282.664	5.7
282.878	6.33
283.092	7.3
283.307	7.1
283.521	6.12
283.735	6.19
283.949	6.74
284.164	7.63
284.378	7.33
284.592	8.26
284.806	8.09
285.02	9.3
285.234	8.73
285.449	8.77
285.663	8.67
285.877	8.99
286.091	9.52
286.305	8.27
286.519	8.77
286.733	9.52
286.947	8.01
287.161	7.9
287.375	6.6
287.589	7.14
287.803	6.23
288.017	7.37
288.231	6.82
288.445	6.48
288.659	7.22
288.873	7.27
289.087	6.14
289.301	8.01
289.515	8.76
289.729	8.56
289.943	7.36
290.157	8.38
290.371	7.16
290.584	7.99
290.798	7.34
291.012	7.1
291.226	7.33
291.44	6.76
291.654	6.52
291.867	7.01
292.081	6.64
292.295	7.28
292.509	7.07
292.722	6.94
292.936	5.9
293.15	6.19
293.364	7.27
293.577	6.05
293.791	6.71
294.005	4.89
294.218	2.7
294.432	4.54
294.645	4.74
294.859	4.43
295.073	5.12
295.286	4.88
295.5	5.98
295.713	5.97
295.927	7.18
296.14	7.76
296.354	7.49
296.568	9.33
296.781	8.92
296.994	9.83
297.208	9.75
297.421	9.61
297.635	10.53
297.848	10.35
298.062	10.23
298.275	9.33
298.489	9.18
298.702	9.64
298.915	8.16
299.129	8.2
299.342	8.87
299.555	8.07
299.769	8.15
299.982	7.29
300.195	7.35
300.409	6.74
300.622	6.97
300.835	7.55
301.048	8.68
301.262	10.13
301.475	9.92
301.688	8.46
301.901	10.02
302.115	9.76
302.328	8.87
302.541	9.3
302.754	9.04
302.967	8.87
303.18	8.55
303.393	7.45
303.607	6.12
303.82	5.63
304.033	5.55
304.246	3.38
304.459	1.96
304.672	3.21
304.885	2.07
305.098	2.97
305.311	3.34
305.524	4.35
305.737	4.68
305.95	5.11
306.163	6.09
306.376	7.34
306.589	8.68
306.802	10.56
307.015	10.47
307.228	10.65
307.44	10.21
307.653	9.75
307.866	8.64
308.079	8.14
308.292	8.96
308.505	8.75
308.718	8.77
308.93	9.57
309.143	8.21
309.356	7.93
309.569	8.73
309.781	8.71
309.994	9.78
310.207	10.17
310.42	11.19
310.632	11.59
310.845	11.86
311.058	10.72
311.27	10.67
311.483	10.95
311.696	11.3
311.908	10.46
312.121	10.64
312.333	9.17
312.546	8.77
312.759	8.32
312.971	6.47
313.184	5.41
313.396	4.91
313.609	5.19
313.821	5.39
314.034	5.82
314.246	6.36
314.459	6.31
314.671	7.35
314.884	8.05
315.096	8.26
315.309	9.65
315.521	10.82
315.733	11.29
315.946	10.58
316.158	10.99
316.371	10.95
316.583	9.55
316.795	8.66
317.008	9.68
317.22	9.25
317.432	8.05
317.644	8.15
317.857	8.55
318.069	10.18
318.281	9.94
318.494	10.48
318.706	11.15
318.918	12.84
319.13	13.83
319.342	11.66
319.555	12.17
319.767	12.82
319.979	12.84
320.191	11.57
320.403	9.76
320.615	9.37
320.827	8.5
321.039	7.09
321.252	6.71
321.464	6.85
321.676	9.21
321.888	9.05
322.1	9.74
322.312	8.44
322.524	9.28
322.736	9.52
322.948	9.61
323.16	9.15
323.372	10.89
323.584	11.03
323.796	10.23
324.007	10.19
324.219	8.98
324.431	9.04
324.643	9.23
324.855	8.84
325.067	9.55
325.279	9.71
325.491	9.83
325.702	8.12
325.914	8.53
326.126	9
326.338	8.53
326.55	8.81
326.761	8.5
326.973	8.49
327.185	9.31
327.396	8.72
327.608	9.92
327.82	10.61
328.032	10.72
328.243	9.86
328.455	9.14
328.666	8.71
328.878	7.29
329.09	7.52
329.301	8.4
329.513	6.9
329.725	8.33
329.936	7.55
330.148	7.28
330.359	7.3
330.571	7.2
330.782	8.79
330.994	10.37
331.205	11.68
331.417	11.9
331.628	11.01
331.84	11.07
332.051	9.56
332.262	9.27
332.474	9.97
332.685	10.13
332.897	11
333.108	11.44
333.319	8.95
333.531	9.31
333.742	10.18
333.953	11.17
334.165	12.11
334.376	12.78
334.587	12.97
334.799	12.27
335.01	13.43
335.221	13.5
335.432	14.02
335.644	15.36
335.855	14.93
336.066	14.08
336.277	12.63
336.488	11.88
336.7	12.24
336.911	13.08
337.122	13.28
337.333	12.8
337.544	12.47
337.755	10.53
337.966	10.84
338.177	11
338.388	10.46
338.599	11.22
338.811	11.1
339.022	10.02
339.233	9.04
339.444	9.21
339.655	9.05
339.866	9.71
340.076	8.96
340.287	8.32
340.498	8.51
340.709	8.77
340.92	8.39
341.131	10
341.342	10.49
341.553	9.08
341.764	9.04
341.975	7.93
342.185	7.05
342.396	8.12
342.607	8.06
342.818	8.48
343.029	9.03
343.239	9.48
343.45	8.1
343.661	8.6
343.872	9.74
344.082	9.16
344.293	10.32
344.504	10.18
344.714	10.26
344.925	10.77
345.136	11.25
345.346	10.35
345.557	10.73
345.768	11.09
345.978	9.94
346.189	10.71
346.399	11.09
346.61	11.74
346.821	12.23
347.031	13.09
347.242	12.57
347.452	11.85
347.663	12.78
347.873	13.42
348.084	13.22
348.294	14.37
348.504	13.89
348.715	14.24
348.925	13.09
349.136	13.05
349.346	11.79
349.557	11.76
349.767	11.35
349.977	11.25
350.188	10.17
350.398	9.95
350.608	10.14
350.819	9.17
351.029	8.86
351.239	9.46
351.449	9.65
351.66	10.48
351.87	10.94
352.08	12.78
352.29	12.02
352.501	11.96
352.711	11.65
352.921	11.08
353.131	11.33
353.341	9.88
353.552	9.14
353.762	9.07
353.972	9.3
354.182	8.93
354.392	7.15
354.602	7.48
354.812	8.21
355.022	9.53
355.232	9.95
355.442	10.47
355.652	11.37
355.862	11.16
356.072	10.47
356.282	10.02
356.492	10.3
356.702	10.8
356.912	11.42
357.122	11.02
357.332	10.33
357.542	9.71
357.752	9.37
357.962	9.49
358.171	10.07
358.381	10.35
358.591	10.4
358.801	9.96
359.011	10.3
359.221	10.55
359.43	11.22
359.64	10.18
359.85	10.29
360.06	10.37
360.269	10.43
360.479	9.69
360.689	10.18
360.899	10.64
361.108	10.76
361.318	10.32
361.528	9.6
361.737	9.25
361.947	10.12
362.156	11.06
362.366	11.63
362.576	11.75
362.785	11.82
362.995	11.63
363.204	11.25
363.414	11.68
363.623	11.45
363.833	11.75
364.042	11.39
364.252	11.5
364.461	9.88
364.671	8.59
364.88	8.63
365.09	9.18
365.299	9.51
365.509	9.48
365.718	9.36
365.927	8.94
366.137	8.69
366.346	8.54
366.555	8.93
366.765	9.06
366.974	9.11
367.183	9.4
367.393	9.68
367.602	8.63
367.811	8.52
368.021	8.64
368.23	9.2
368.439	8.87
368.648	8.25
368.857	6.94
369.067	7.11
369.276	7.89
369.485	6.98
369.694	6.84
369.903	6.66
370.112	6.2
370.321	5.4
370.531	5.67
370.74	6.44
370.949	6.58
371.158	6.85
371.367	6.62
371.576	6.88
371.785	6.85
371.994	6.54
372.203	7.25
372.412	7.96
372.621	8.49
372.83	8.01
373.039	7.76
373.248	8.56
373.457	8.87
373.666	9.22
373.874	8.32
374.083	8.98
374.292	9.52
374.501	9.41
374.71	8.64
374.919	8.4
375.128	8.39
375.336	8.51
375.545	7.99
375.754	7.99
375.963	8.05
376.171	8.02
376.38	8.81
376.589	8.24
376.798	7.94
377.006	8.26
377.215	7.82
377.424	8.39
377.632	8
377.841	7.91
378.05	7.55
378.258	7.4
378.467	7.99
378.675	7.24
378.884	7.37
379.093	7.78
379.301	7.69
379.51	8.21
379.718	7.83
379.927	8.03
380.135	8.63
380.344	9.02
380.552	9.35
380.761	9.11
380.969	8.93
381.177	8.49
381.386	7.79
381.594	7.54
381.803	7.39
382.011	7.77
382.219	7.93
382.428	7.15
382.636	6.81
382.845	6.43
383.053	6.57
383.261	6.73
383.469	7.1
383.678	7.42
383.886	7.75
384.094	7.69
384.302	7.16
384.511	7.27
384.719	7.44
384.927	7.47
385.135	7.82
385.343	7.62
385.552	7.68
385.76	7.3
385.968	7.25
386.176	6.73
386.384	6.91
386.592	7.1
386.8	7.03
387.008	7.07
387.216	7.08
387.424	6.86
387.633	6.45
387.841	6.24
388.049	6.46
388.257	6.47
388.465	6.35
388.672	6.37
388.88	6.13
389.088	5.56
389.296	5.88
389.504	5.78
389.712	5.49
389.92	5.87
390.128	5.72
390.336	5.92
390.544	6.2
390.751	6.55
390.959	6.28
391.167	6.52
391.375	6.78
391.583	6.33
391.79	6.6
391.998	6.65
392.206	6.82
392.414	6.75
392.621	6.51
392.829	6.29
393.037	6.42
393.244	6.64
393.452	6.36
393.66	6.77
393.867	6.79
394.075	6.7
394.283	7.11
394.49	7.17
394.698	7.23
394.905	7.12
395.113	7.14
395.32	6.98
395.528	6.84
395.735	7.21
395.943	6.9
396.15	6.91
396.358	7.28
396.565	6.94
396.773	6.73
396.98	7
397.188	7.04
397.395	6.74
397.602	6.61
397.81	6.32
398.017	6.38
398.225	6.26
398.432	6.48
398.639	6.06
398.847	6.17
399.054	5.93
399.261	5.58
399.468	5.73
399.676	6.27
399.883	6.5
400.09	6.52
400.297	6.23
400.505	5.8
400.712	5.49
400.919	5.42
401.126	5.02
401.333	5.23
401.54	5.47
401.748	5.27
401.955	4.81
402.162	4.85
402.369	4.57
402.576	4.89
402.783	5.2
402.99	5.32
403.197	5.24
403.404	5.62
403.611	5.7
403.818	5.43
404.025	5.44
404.232	5.41
404.439	5.39
404.646	5.57
404.853	5.47
405.06	5.7
405.267	5.92
405.474	6.2
405.681	6.3
405.887	6.27
406.094	6.5
406.301	6.59
406.508	6.95
406.715	7.05
406.922	7.68
407.128	7.54
407.335	7.42
407.542	7.17
407.749	6.82
407.955	6.6
408.162	6.59
408.369	6.52
408.575	6.75
408.782	6.44
408.989	6.33
409.195	5.94
409.402	6.11
409.609	6
409.815	6.29
410.022	6.32
410.228	6.6
410.435	6.48
410.642	6.49
410.848	6.33
411.055	6.65
411.261	6.58
411.468	6.48
411.674	6.21
411.881	6.37
412.087	6.44
412.294	6.48
412.5	6.18
412.706	6.41
412.913	6.38
413.119	6.3
413.326	6.23
413.532	6.02
413.738	6.21
413.945	6.54
414.151	6.56
414.357	6.35
414.564	6.34
414.77	6.17
414.976	5.94
415.182	5.91
415.389	5.87
415.595	5.98
415.801	6.33
416.007	6.19
416.214	6.01
416.42	5.87
416.626	5.75
416.832	5.73
417.038	5.95
417.244	5.82
417.45	6.18
417.657	6.17
417.863	5.77
418.069	5.61
418.275	5.8
418.481	5.81
418.687	5.94
418.893	6.24
419.099	6.34
419.305	6.41
419.511	6.53
419.717	6.26
419.923	6.14
420.129	6.3
420.335	6.29
420.541	6.32
420.746	6.32
420.952	6.23
421.158	5.89
421.364	5.91
421.57	5.85
421.776	5.98
421.982	5.88
422.187	6
422.393	5.94
422.599	6.08
422.805	5.92
423.01	5.91
423.216	5.99
423.422	5.96
423.628	5.98
423.833	5.92
424.039	5.81
424.245	6
424.45	5.95
424.656	5.95
424.862	5.81
425.067	6.05
425.273	6.1
425.478	6.12
425.684	6.38
425.889	6.33
426.095	6.27
426.301	6.25
426.506	6.19
426.712	6.3
426.917	6.46
427.123	6.46
427.328	6.27
427.533	6.1
427.739	6.03
427.944	5.97
428.15	5.89
428.355	6.06
428.561	6.12
428.766	5.88
428.971	6.01
429.177	5.95
429.382	5.98
429.587	5.84
429.793	6.12
429.998	5.98
430.203	5.91
430.408	6.01
430.614	5.92
430.819	5.92
431.024	6.08
431.229	5.67
431.434	5.62
431.64	5.63
431.845	5.74
432.05	5.61
432.255	5.71
432.46	5.83
432.665	5.57
432.87	5.64
433.076	5.7
433.281	5.74
433.486	6.07
433.691	6.16
433.896	6.2
434.101	6.2
434.306	6.18
434.511	6.26
434.716	6.25
434.921	6.4
435.126	6.23
435.331	6.12
435.535	6.07
435.74	6.03
435.945	5.95
436.15	5.98
436.355	5.79
436.56	5.7
436.765	5.57
436.97	5.52
437.174	5.66
437.379	5.75
437.584	5.79
437.789	5.91
437.993	5.94
438.198	5.68
438.403	5.55
438.608	5.64
438.812	5.64
439.017	5.54
439.222	5.49
439.426	5.37
439.631	5.57
439.836	5.51
440.04	5.57
440.245	5.5
440.45	5.64
440.654	5.62
440.859	5.69
441.063	5.94
441.268	6.09
441.472	6.08
441.677	6.08
441.881	5.93
442.086	5.93
442.29	5.8
442.495	5.91
442.699	5.9
442.904	5.94
443.108	5.79
443.312	5.58
443.517	5.47
443.721	5.6
443.925	5.7
444.13	5.67
444.334	5.68
444.538	5.76
444.743	5.6
444.947	5.6
445.151	5.69
445.356	5.69
445.56	5.65
445.764	5.71
445.968	5.78
446.173	5.75
446.377	5.84
446.581	5.83
446.785	5.82
446.989	5.91
447.193	5.97
447.398	5.94
447.602	6.12
447.806	6.17
448.01	6.05
448.214	6.02
448.418	6.02
448.622	5.97
448.826	6.01
449.03	5.87
449.234	5.77
449.438	5.88
449.642	5.73
449.846	5.7
450.05	5.67
450.254	5.77
450.458	5.74
450.662	5.73
450.866	5.71
451.069	5.67
451.273	5.62
451.477	5.65
451.681	5.5
451.885	5.61
452.089	5.39
452.292	5.26
452.496	5.4
452.7	5.31
452.904	5.36
453.107	5.43
453.311	5.49
453.515	5.5
453.719	5.55
453.922	5.58
454.126	5.76
454.33	5.87
454.533	5.92
454.737	5.75
454.94	5.86
455.144	5.93
455.348	5.87
455.551	5.76
455.755	5.75
455.958	5.45
456.162	5.24
456.365	4.96
456.569	5.08
456.772	5.13
456.976	5.04
457.179	4.9
457.383	4.85
457.586	4.71
457.79	4.81
457.993	5.04
458.196	5.3
458.4	5.5
458.603	5.55
458.807	5.51
459.01	5.48
459.213	5.65
459.417	5.71
459.62	5.69
459.823	5.74
460.026	5.75
460.23	5.79
460.433	5.78
460.636	5.84
460.839	5.81
461.042	5.86
461.246	5.97
461.449	5.93
461.652	5.76
461.855	5.83
462.058	5.93
462.261	6.12
462.464	6.06
462.668	5.96
462.871	5.9
463.074	6.28
463.277	6.03
463.48	5.91
463.683	5.75
463.886	5.83
464.089	5.73
464.292	5.83
464.495	5.64
464.698	5.73
464.901	5.88
465.104	5.92
465.306	5.8
465.509	5.86
465.712	5.92
465.915	6.13
466.118	6.4
466.321	6.13
466.524	6
466.726	6.07
466.929	5.9
467.132	5.88
467.335	5.84
467.538	5.67
467.74	5.55
467.943	5.59
468.146	5.39
468.348	5.13
468.551	5.27
468.754	5.24
468.956	5.25
469.159	5.39
469.362	5.27
469.564	5.3
469.767	5.3
469.969	5.49
470.172	5.55
470.375	5.63
470.577	5.8
470.78	5.97
470.982	5.87
471.185	5.73
471.387	5.46
471.59	5.44
471.792	5.25
471.995	5.47
472.197	5.33
472.399	5.3
472.602	5.43
472.804	5.3
473.007	5.25
473.209	5.34
473.411	5.43
473.614	5.67
473.816	5.79
474.018	5.84
474.22	5.72
474.423	5.71
474.625	5.62
474.827	5.62
475.03	5.82
475.232	5.82
475.434	5.78
475.636	5.62
475.838	5.49
476.04	5.57
476.243	5.56
476.445	5.51
476.647	5.47
476.849	5.58
477.051	5.64
477.253	5.44
477.455	5.35
477.657	5.56
477.859	5.56
478.061	5.58
478.263	5.37
478.465	5.48
478.667	5.39
478.869	5.45
479.071	5.31
479.273	5.18
479.475	5.24
479.677	5.31
479.879	5.23
480.081	5.41
480.283	5.37
480.485	5.43
480.686	5.47
480.888	5.76
481.09	5.77
481.292	5.76
481.494	5.74
481.695	5.72
481.897	5.62
482.099	5.57
482.301	5.52
482.502	5.6
482.704	5.54
482.906	5.44
483.107	5.33
483.309	5.39
483.511	5.33
483.712	5.3
483.914	5.34
484.115	5.36
484.317	5.36
484.519	5.34
484.72	5.32
484.922	5.38
485.123	5.45
485.325	5.45
485.526	5.46
485.728	5.57
485.929	5.58
486.131	5.58
486.332	5.62
486.534	5.75
486.735	5.75
486.936	5.78
487.138	5.74
487.339	5.67
487.541	5.68
487.742	5.69
487.943	5.68
488.144	5.75
488.346	5.74
488.547	5.7
488.748	5.58
488.95	5.64
489.151	5.57
489.352	5.58
489.553	5.61
489.755	5.66
489.956	5.61
490.157	5.71
490.358	5.72
490.559	5.72
490.76	5.79
490.961	5.81
491.163	5.73
491.364	5.75
491.565	5.79
491.766	5.78
491.967	5.73
492.168	5.71
492.369	5.63
492.57	5.58
492.771	5.58
492.972	5.54
493.173	5.51
493.374	5.56
493.575	5.51
493.776	5.5
493.976	5.57
494.177	5.56
494.378	5.58
494.579	5.6
494.78	5.53
494.981	5.41
495.182	5.48
495.382	5.6
495.583	5.68
495.784	5.89
495.985	5.83
496.185	5.82
496.386	5.88
496.587	5.94
496.788	5.89
496.988	6.07
497.189	6.19
497.39	6.11
497.59	6.02
497.791	5.92
497.992	5.82
498.192	5.87
498.393	5.78
498.593	5.83
498.794	5.83
498.994	5.92
499.195	5.79
499.395	5.65
499.596	5.85
499.796	5.91
499.997	5.89
500.197	5.92
500.398	5.84
500.598	6.06
500.799	6
500.999	5.89
501.199	5.94
501.4	6.11
501.6	6.28
501.801	6.05
502.001	6.09
502.201	6.17
502.402	6.12
502.602	6.23
502.802	5.99
503.002	6.03
503.203	6.23
503.403	6.14
503.603	6.16
503.803	6.16
504.003	6.18
504.204	6.25
504.404	6.09
504.604	6.2
504.804	6.35
505.004	6.34
505.204	6.32
505.404	6.1
505.604	6.1
505.804	5.99
506.005	5.9
506.205	5.96
506.405	5.83
506.605	5.99
506.805	6.05
507.005	5.85
507.204	5.96
507.404	6.05
507.604	6.28
507.804	6.23
508.004	6.28
508.204	6.32
508.404	6.4
508.604	6.4
508.804	6.46
509.003	6.51
509.203	6.54
509.403	6.59
509.603	6.52
509.803	6.48
510.002	6.66
510.202	6.68
510.402	6.76
510.602	6.7
510.801	6.78
511.001	6.75
511.201	6.68
511.4	6.78
511.6	6.75
511.8	6.85
511.999	6.87
512.199	6.82
512.398	6.75
512.598	6.69
512.797	6.76
512.997	6.75
513.197	6.77
513.396	6.79
513.596	6.85
513.795	6.97
513.994	6.96
514.194	6.92
514.393	6.96
514.593	7.2
514.792	7.29
514.992	7.32
515.191	7.28
515.39	7.39
515.59	7.4
515.789	7.33
515.988	7.31
516.188	7.37
516.387	7.26
516.586	7.26
516.786	7.06
516.985	7.21
517.184	7.25
517.383	7.27
517.582	7.14
517.782	7.23
517.981	7.31
518.18	7.33
518.379	7.25
518.578	7.4
518.777	7.32
518.976	7.38
519.176	7.34
519.375	7.29
519.574	7.33
519.773	7.51
519.972	7.46
520.171	7.51
520.37	7.46
520.569	7.51
520.768	7.48
520.967	7.65
521.166	7.83
521.365	7.83
521.564	7.94
521.762	8.06
521.961	8.05
522.16	7.99
522.359	7.91
522.558	8
522.757	8.18
522.956	8.29
523.154	8.12
523.353	8.16
523.552	8.19
523.751	8.26
523.949	8.4
524.148	8.35
524.347	8.5
524.546	8.51
524.744	8.58
524.943	8.56
525.142	8.62
525.34	8.74
525.539	8.79
525.737	8.86
525.936	8.85
526.135	8.82
526.333	8.99
526.532	9.04
526.73	9.12
526.929	9.15
527.127	9.13
527.326	9.13
527.524	9.12
527.723	9.1
527.921	9.1
528.12	9.15
528.318	9.15
528.516	9.05
528.715	9.06
528.913	9.08
529.112	9.03
529.31	9.04
529.508	9.03
529.707	9.06
529.905	8.99
530.103	8.97
530.301	8.92
530.5	8.83
530.698	8.86
530.896	8.84
531.094	8.89
531.293	9.03
531.491	9.09
531.689	9.26
531.887	9.27
532.085	9.25
532.283	9.35
532.481	9.51
532.68	9.59
532.878	9.57
533.076	9.51
533.274	9.54
533.472	9.54
533.67	9.56
533.868	9.52
534.066	9.57
534.264	9.74
534.462	9.71
534.66	9.61
534.858	9.68
535.056	9.86
535.253	9.96
535.451	9.94
535.649	9.91
535.847	9.98
536.045	10.01
536.243	10.07
536.441	10.06
536.638	10.22
536.836	10.25
537.034	10.25
537.232	10.2
537.43	10.23
537.627	10.19
537.825	10.24
538.023	10.24
538.22	10.14
538.418	10.13
538.616	10.2
538.813	10.05
539.011	10.14
539.209	10.29
539.406	10.38
539.604	10.52
539.801	10.67
539.999	10.69
540.196	10.84
540.394	10.99
540.591	11
540.789	10.99
540.986	11.1
541.184	11.15
541.381	11.19
541.579	11.22
541.776	11.29
541.974	11.29
542.171	11.32
542.368	11.29
542.566	11.31
542.763	11.29
542.96	11.45
543.158	11.47
543.355	11.42
543.552	11.42
543.75	11.4
543.947	11.32
544.144	11.38
544.341	11.53
544.539	11.46
544.736	11.57
544.933	11.75
545.13	11.55
545.327	11.44
545.524	11.57
545.722	11.55
545.919	11.74
546.116	11.82
546.313	12
546.51	11.84
546.707	12.06
546.904	12.02
547.101	12.02
547.298	12.17
547.495	12.38
547.692	12.47
547.889	12.62
548.086	12.59
548.283	12.55
548.48	12.46
548.677	12.62
548.874	12.57
549.07	12.59
549.267	12.69
549.464	12.7
549.661	12.81
549.858	12.75
550.055	12.58
550.251	12.63
550.448	12.79
550.645	12.75
550.842	12.99
551.038	13.11
551.235	13.29
551.432	13.29
551.628	13.25
551.825	13.18
552.022	13.29
552.218	13.52
552.415	13.49
552.612	13.54
552.808	13.55
553.005	13.43
553.201	13.25
553.398	13.38
553.594	13.46
553.791	13.6
553.987	13.66
554.184	13.66
554.38	13.66
554.577	13.75
554.773	13.78
554.97	13.83
555.166	14.14
555.362	14.49
555.559	14.23
555.755	14.25
555.952	14.42
556.148	14.44
556.344	14.41
556.541	14.35
556.737	14.3
556.933	14.39
557.129	14.66
557.326	14.56
557.522	14.45
557.718	14.62
557.914	14.59
558.11	14.48
558.307	14.68
558.503	14.96
558.699	15.3
558.895	15.38
559.091	15.37
559.287	15.13
559.483	15.06
559.679	15.14
559.876	14.94
560.072	15.18
560.268	15.37
560.464	15.29
560.66	15.25
560.856	15.28
561.052	15.41
561.247	15.52
561.443	15.63
561.639	15.73
561.835	15.73
562.031	15.83
562.227	15.74
562.423	15.69
562.619	16.02
562.815	15.93
563.01	15.81
563.206	15.86
563.402	15.95
563.598	16
563.793	16.05
563.989	16.49
564.185	16.63
564.381	16.7
564.576	16.62
564.772	16.5
564.968	16.79
565.163	16.88
565.359	16.93
565.555	16.89
565.75	16.86
565.946	16.96
566.141	16.71
566.337	16.91
566.532	17.1
566.728	17.25
566.923	17.22
567.119	17.17
567.314	17.21
567.51	17.19
567.705	17.25
567.901	17.43
568.096	17.26
568.292	17.35
568.487	17.18
568.682	17.02
568.878	17
569.073	17.25
569.268	17.21
569.464	17.27
569.659	17.41
569.854	17.55
570.05	17.61
570.245	17.84
570.44	17.73
570.635	17.96
570.831	18.11
571.026	18.08
571.221	17.95
571.416	17.98
571.611	18.06
571.806	17.98
572.002	17.99
572.197	18
572.392	18.11
572.587	18.33
572.782	18.27
572.977	18.24
573.172	18.45
573.367	18.31
573.562	18.26
573.757	18.09
573.952	18.23
574.147	18.44
574.342	18.51
574.537	18.34
574.732	18.38
574.927	18.42
575.121	18.36
575.316	18.35
575.511	18.33
575.706	18.65
575.901	18.82
576.096	18.72
576.29	18.49
576.485	18.44
576.68	18.57
576.875	18.5
577.069	18.71
577.264	18.85
577.459	19.06
577.654	19.47
577.848	19.21
578.043	19.4
578.238	19.56
578.432	19.67
578.627	19.66
578.821	19.88
579.016	20.19
579.21	20.18
579.405	20.24
579.6	20.08
579.794	20.03
579.989	20.4
580.183	20.12
580.378	20.02
580.572	19.78
580.766	20.07
580.961	19.95
581.155	19.59
581.35	19.54
581.544	19.54
581.738	19.58
581.933	19.6
582.127	19.41
582.321	19.59
582.516	19.84
582.71	19.89
582.904	19.71
583.099	19.95
583.293	20.09
583.487	20.01
583.681	20.11
583.875	20.11
584.07	20.1
584.264	20.24
584.458	20.08
584.652	20.14
584.846	20.33
585.04	20.5
585.234	20.29
585.428	20.24
585.623	20.05
585.817	19.85
586.011	19.97
586.205	19.83
586.399	19.78
586.593	20.04
586.787	19.97
586.981	20.08
587.174	20.24
587.368	20.16
587.562	20.38
587.756	20.84
587.95	21.15
588.144	21.15
588.338	21.32
588.532	21.37
588.725	21.4
588.919	21.21
589.113	21.28
589.307	21.16
589.501	21.02
589.694	21.15
589.888	21.09
590.082	21.07
590.275	20.98
590.469	20.87
590.663	20.93
590.856	20.58
591.05	20.82
591.244	20.85
591.437	20.89
591.631	21.32
591.824	21.21
592.018	21.27
592.212	21.37
592.405	21.46
592.599	21.68
592.792	21.6
592.986	22.06
593.179	22.15
593.372	22.14
593.566	22.04
593.759	21.82
593.953	21.83
594.146	21.9
594.339	21.88
594.533	22.04
594.726	22.02
594.92	22.14
595.113	22.19
595.306	21.91
595.499	22.04
595.693	22.06
595.886	22.07
596.079	22.11
596.272	21.85
596.466	21.88
596.659	21.88
596.852	22.02
597.045	21.83
597.238	21.72
597.431	22.04
597.624	21.89
597.818	22.16
598.011	22.37
598.204	22.3
598.397	22.36
598.59	22.26
598.783	21.93
598.976	21.72
599.169	21.77
599.362	21.82
599.555	21.57
599.748	21.63
599.941	21.11
600.134	20.94
600.326	20.89
600.519	21.29
600.712	21.38
600.905	21.76
601.098	22.14
601.291	22.13
601.483	22.03
601.676	21.96
601.869	21.86
602.062	22.21
602.255	22.07
602.447	22.27
602.64	22.11
602.833	22.15
603.025	22.13
603.218	21.9
603.411	22.11
603.603	22.37
603.796	22.41
603.989	22.5
604.181	22.41
604.374	22.65
604.566	22.67
604.759	22.53
604.951	22.42
605.144	22.46
605.336	22.51
605.529	22.6
605.721	22.54
605.914	22.45
606.106	22.55
606.299	22.49
606.491	22.37
606.683	22.34
606.876	22.47
607.068	22.59
607.26	22.6
607.453	22.72
607.645	22.44
607.837	22.31
608.03	22.61
608.222	22.44
608.414	22.51
608.606	22.53
608.799	22.38
608.991	22.46
609.183	22.68
609.375	22.51
609.567	22.59
609.759	22.89
609.952	22.92
610.144	22.69
610.336	22.71
610.528	22.71
610.72	22.79
610.912	22.83
611.104	22.68
611.296	22.37
611.488	22.67
611.68	22.52
611.872	22.32
612.064	22.48
612.256	22.58
612.448	22.63
612.64	22.37
612.832	22.22
613.023	22.21
613.215	22.53
613.407	22.58
613.599	22.34
613.791	22.4
613.983	22.34
614.174	22.23
614.366	22.4
614.558	22.57
614.75	23
614.941	23.05
615.133	23
615.325	22.54
615.516	22.74
615.708	22.96
615.9	23
616.091	23.2
616.283	23.44
616.475	23.39
616.666	23.51
616.858	23.69
617.049	24.04
617.241	24.13
617.432	24.55
617.624	24.33
617.815	24.21
618.007	24.12
618.198	24.19
618.39	23.91
618.581	24.12
618.773	24.01
618.964	23.8
619.155	23.33
619.347	23.21
619.538	23.07
619.729	23.14
619.921	23.09
620.112	23.15
620.303	23.08
620.494	23.1
620.686	22.94
620.877	23.16
621.068	23.35
621.259	23.58
621.451	23.87
621.642	23.89
621.833	24
622.024	24.21
622.215	24.29
622.406	24.37
622.597	24.2
622.788	24.26
622.98	23.65
623.171	23.59
623.362	23.75
623.553	23.47
623.744	23.43
623.935	23.47
624.126	23.45
624.317	23.62
624.508	23.62
624.698	23.93
624.889	23.85
625.08	24.18
625.271	24.13
625.462	23.95
625.653	23.97
625.844	24.12
626.034	24.02
626.225	23.93
626.416	23.55
626.607	23.63
626.798	23.51
626.988	23.57
627.179	23.66
627.37	23.7
627.56	23.66
627.751	24.13
627.942	24.06
628.132	24.38
628.323	24.21
628.514	24.52
628.704	24.34
628.895	24.41
629.085	24.28
629.276	24.54
629.466	24.56
629.657	24.65
629.847	24.09
630.038	24.09
630.228	23.57
630.419	24.02
630.609	23.83
630.8	23.82
630.99	23.75
631.181	23.98
631.371	23.5
631.561	23.32
631.752	23.56
631.942	23.77
632.132	23.72
632.323	24.03
632.513	23.71
632.703	23.54
632.893	23.79
633.084	24.02
633.274	24.04
633.464	24.27
633.654	24.44
633.844	24.3
634.034	24.34
634.225	24.34
634.415	24.01
634.605	24.21
634.795	24.4
634.985	24.38
635.175	24.26
635.365	24.13
635.555	23.94
635.745	23.82
635.935	23.6
636.125	23.65
636.315	24.01
636.505	24.19
636.695	24.07
636.885	24.15
637.075	23.83
637.265	24.03
637.455	24.23
637.644	24.51
637.834	24.85
638.024	24.81
638.214	24.64
638.404	24.26
638.593	24.54
638.783	24.73
638.973	24.77
639.163	24.84
639.352	24.48
639.542	24.46
639.732	24.23
639.921	23.88
640.111	24.22
640.301	24.54
640.49	24.43
640.68	24.19
640.87	24.08
641.059	23.93
641.249	23.82
641.438	24.19
641.628	23.88
641.817	23.71
642.007	23.55
642.196	23.31
642.386	23.39
642.575	23.43
642.764	23.82
642.954	23.59
643.143	23.64
643.333	23.88
643.522	23.9
643.711	24.21
643.901	24.21
644.09	24.79
644.279	24.86
644.469	24.43
644.658	24.76
644.847	24.39
645.036	24.32
645.226	24.58
645.415	24.56
645.604	24.41
645.793	24.45
645.982	24.7
646.171	24.87
646.361	25
646.55	25.11
646.739	25.18
646.928	25.4
647.117	25.51
647.306	25.51
647.495	25.63
647.684	25.3
647.873	25.4
648.062	25.81
648.251	25.28
648.44	25.24
648.629	25.08
648.818	25.26
649.007	24.96
649.196	24.89
649.384	24.58
649.573	24.53
649.762	24.86
649.951	24.52
650.14	23.91
650.328	24.52
650.517	24.85
650.706	25.4
650.895	25.15
651.083	25.69
651.272	25.87
651.461	25.75
651.65	25.66
651.838	25.6
652.027	25.73
652.216	26.01
652.404	25.55
652.593	25.32
652.781	25.21
652.97	24.9
653.158	24.67
653.347	24.73
653.535	24.75
653.724	24.66
653.912	24.59
654.101	24.55
654.289	24.8
654.478	24.99
654.666	25.51
654.855	25.33
655.043	25.49
655.231	25.32
655.42	25.11
655.608	25.66
655.796	26.03
655.985	26.35
656.173	26.54
656.361	26.26
656.55	26.02
656.738	25.56
656.926	25.5
657.114	25.47
657.302	25.75
657.491	26.05
657.679	25.87
657.867	25.77
658.055	25.77
658.243	25.5
658.431	25.52
658.619	25.85
658.807	25.66
658.996	26.06
659.184	26.32
659.372	26.21
659.56	26.18
659.748	26.07
659.936	26.06
660.124	25.96
660.311	26.12
660.499	26.13
660.687	25.78
660.875	25.96
661.063	25.71
661.251	25.47
661.439	25.61
661.627	25.37
661.814	25.26
662.002	25.19
662.19	25.15
662.378	25.15
662.565	25.49
662.753	26.03
662.941	25.67
663.129	26.33
663.316	26.29
663.504	26.52
663.692	26.59
663.879	26.62
664.067	26.47
664.254	26.34
664.442	26.02
664.63	25.72
664.817	25.3
665.005	25.7
665.192	24.75
665.38	25.11
665.567	24.64
665.755	24.73
665.942	24.78
666.13	25.29
666.317	25.32
666.504	25.61
666.692	25.52
666.879	25.64
667.067	26.08
667.254	26.6
667.441	26.58
667.629	26.69
667.816	26.84
668.003	27.09
668.19	26.84
668.378	26.83
668.565	26.45
668.752	26.55
668.939	26.43
669.127	26.37
669.314	26.26
669.501	25.88
669.688	25.75
669.875	25.93
670.062	26.49
670.249	26.26
670.436	26.44
670.623	27.01
670.81	27.04
670.997	27.09
671.184	26.61
671.371	26.53
671.558	26.66
671.745	26.67
671.932	26.34
672.119	25.78
672.306	26.24
672.493	26.61
672.68	26.71
672.867	25.68
673.054	25.72
673.24	25.73
673.427	25.56
673.614	25.45
673.801	25.46
673.988	25.12
674.174	24.84
674.361	24.73
674.548	24.47
674.734	24.18
674.921	25.26
675.108	25.4
675.294	25.39
675.481	25.22
675.668	25.55
675.854	25.66
676.041	26.35
676.227	26.55
676.414	26.37
676.601	26.2
676.787	26.15
676.974	25.88
677.16	25.85
677.347	26
677.533	26.52
677.719	26.65
677.906	26.21
678.092	26.02
678.279	26.08
678.465	26.26
678.651	26.25
678.838	26.58
679.024	26.93
679.21	26.79
679.397	26.6
679.583	26.54
679.769	26.63
679.955	26.99
680.142	27.19
680.328	27.17
680.514	26.9
680.7	27.2
680.886	27.43
681.073	27.1
681.259	26.99
681.445	26.89
681.631	27.19
681.817	27.11
682.003	27.32
682.189	26.95
682.375	26.89
682.561	27.19
682.747	27.13
682.933	26.75
683.119	26.89
683.305	26.88
683.491	27.38
683.677	27
683.863	27.12
684.049	27.13
684.235	27.17
684.42	27.23
684.606	27.37
684.792	27.24
684.978	27.25
685.164	27.33
685.349	27.77
685.535	27.65
685.721	27.3
685.907	27.2
686.092	26.71
686.278	27.02
686.464	26.92
686.649	27.06
686.835	26.92
687.021	26.6
687.206	26.41
687.392	26.34
687.577	26.14
687.763	26.42
687.948	26.09
688.134	26.06
688.319	26.05
688.505	26
688.69	25.55
688.876	25.69
689.061	25.73
689.247	26.3
689.432	26.23
689.618	26.05
689.803	25.78
689.988	25.8
690.174	26.67
690.359	26.11
690.544	26.66
690.73	26.67
690.915	26.61
691.1	26.83
691.285	26.42
691.471	26.24
691.656	26.79
691.841	26.95
692.026	27.12
692.211	26.54
692.396	27.28
692.582	26.87
692.767	27.07
692.952	26.93
693.137	26.84
693.322	26.53
693.507	26.91
693.692	27.14
693.877	26.96
694.062	27.76
694.247	28.22
694.432	27.59
694.617	28
694.802	27.97
694.987	28.53
695.172	28.66
695.357	28.62
695.541	28.6
695.726	28.24
695.911	28.43
696.096	27.28
696.281	26.83
696.466	27.12
696.65	27.41
696.835	26.7
697.02	26.62
697.204	26.71
697.389	26.98
697.574	27.08
697.759	26.58
697.943	26.3
698.128	26.86
698.312	26.5
698.497	26.89
698.682	25.97
698.866	26.56
699.051	26.53
699.235	26.62
699.42	26.85
699.604	26.71
699.789	26.98
699.973	27.32
700.158	27.18
700.342	27.72
700.527	27.15
700.711	28.06
700.895	28.32
701.08	28.39
701.264	28.33
701.448	28.5
701.633	28.76
701.817	29.34
702.001	29.42
702.186	29.04
702.37	28.83
702.554	29.33
702.738	28.55
702.923	28.16
703.107	27.83
703.291	28.23
703.475	28
703.659	27.15
703.843	26.69
704.027	26.35
704.212	26.88
704.396	26.84
704.58	27.15
704.764	27.66
704.948	28.1
705.132	28.61
705.316	28.46
705.5	28.43
705.684	29.03
705.868	28.95
706.052	28.96
706.235	28.52
706.419	29.29
706.603	29.28
706.787	28.86
706.971	28.11
707.155	27.81
707.339	26.8
707.522	26.73
707.706	26.79
707.89	26.92
708.074	27.53
708.257	27.64
708.441	26.55
708.625	25.77
708.808	26.43
708.992	26.87
709.176	27.04
709.359	28.07
709.543	28.01
709.727	28.2
709.91	28.33
710.094	28.35
710.277	28.33
710.461	27.73
710.644	28.07
710.828	28.23
711.011	28.65
711.195	28.75
711.378	28.55
711.562	28.45
711.745	27.23
711.928	27.37
712.112	27.16
712.295	27.83
712.478	29.22
712.662	29.11
712.845	28.64
713.028	28.33
713.212	28.42
713.395	28.53
713.578	28.51
713.761	29.87
713.945	29.77
714.128	29.55
714.311	28.97
714.494	28.69
714.677	28.39
714.86	28.36
715.043	28.43
715.227	28.53
715.41	28.41
715.593	28.2
715.776	27.4
715.959	27.2
716.142	27.32
716.325	26.93
716.508	26.91
716.691	26.97
716.874	26.49
717.057	26.53
717.239	25.79
717.422	25.29
717.605	26.1
717.788	26.5
717.971	27.12
718.154	26.69
718.337	26.74
718.519	26.55
718.702	26.37
718.885	26.26
719.068	26.38
719.25	27.05
719.433	27.77
719.616	27.79
719.798	27.47
719.981	27.02
720.164	28.51
720.346	29.23
720.529	29.7
720.712	29.72
720.894	30.56
721.077	30.06
721.259	30.54
721.442	30.01
721.624	29.93
721.807	29.59
721.989	29.16
722.172	28.24
722.354	27.59
722.537	27.08
722.719	27.45
722.901	27.18
723.084	26.83
723.266	26.16
723.448	26.73
723.631	25.81
723.813	26.25
723.995	25.63
724.178	25.19
724.36	25.1
724.542	24.66
724.724	25.04
724.907	25
725.089	25.47
725.271	25.87
725.453	23.72
725.635	24.18
725.817	23.75
725.999	25.46
726.181	26.08
726.364	25.38
726.546	26
726.728	24.9
726.91	24.85
727.092	24.84
727.274	24.87
727.456	26.96
727.638	27.13
727.819	28.15
728.001	26.39
728.183	26.39
728.365	27.76
728.547	28.18
728.729	29.79
728.911	29.82
729.093	29.59
729.274	29.25
729.456	28.2
729.638	27.56
729.82	26.41
730.001	26.57
730.183	27.01
730.365	27.18
730.546	26.71
730.728	25.89
730.91	25.64
731.091	25.97
731.273	25.78
731.455	26.41
731.636	27.47
731.818	27.82
731.999	28.07
732.181	27.88
732.362	28.03
732.544	27.36
732.725	27.17
732.907	27.8
733.088	27.79
733.27	27.73
733.451	27.67
733.633	26.69
733.814	27.32
733.995	27.58
734.177	27.12
734.358	26.68
734.539	27.42
734.721	27.97
734.902	27.63
735.083	27.15
735.264	27.07
735.446	27
735.627	27.37
735.808	26.6
735.989	27.62
736.17	27.29
736.351	27.03
736.533	27.54
736.714	27.46
736.895	27.13
737.076	27.75
737.257	28.05
737.438	29.08
737.619	29.32
737.8	29.51
737.981	28.25
738.162	28.66
738.343	27.91
738.524	26.06
738.705	24.8
738.886	25.43
739.067	24.21
739.247	23.6
739.428	22.78
739.609	22.5
739.79	22.29
739.971	22.42
740.151	23.69
740.332	24.66
740.513	25.83
740.694	26.16
740.874	25.75
741.055	25.84
741.236	26.39
741.417	25.43
741.597	26.04
741.778	25.19
741.958	24.71
742.139	22.95
742.32	22.86
742.5	22.69
742.681	22.58
742.861	23.03
743.042	23.63
743.222	22.9
743.403	24.24
743.583	23.67
743.764	24.9
743.944	24.64
744.124	25.02
744.305	23.89
744.485	23.39
744.666	24.49
744.846	22.74
745.026	21.58
745.207	22.39
745.387	21.62
745.567	21.42
745.747	22.18
745.928	24.39
746.108	23.94
746.288	25.74
746.468	27.45
746.648	27.72
746.829	28.32
747.009	29.6
747.189	29.05
747.369	28.94
747.549	29.77
747.729	29.26
747.909	27.8
748.089	27.37
748.269	26.74
748.449	26.39
748.629	25.44
748.809	26.48
748.989	26.61
749.169	27.11
749.349	27.57
749.529	25.63
749.709	25.53
749.889	24.67
750.068	24.6
750.248	25.36
750.428	24.18
750.608	24.95
750.788	24.08
750.967	23.73
751.147	24.03
751.327	23.36
751.507	24.48
751.686	24.13
751.866	26.25
752.046	27.97
752.225	26
752.405	26.93
752.585	25.94
752.764	26.67
752.944	26.81
753.123	26.81
753.303	26.03
753.482	25.92
753.662	26.98
753.841	27.02
754.021	25.15
754.2	26.45
754.38	26.07
754.559	26.66
754.739	26.51
754.918	25.28
755.097	25.26
755.277	26.98
755.456	28
755.635	26.9
755.815	26.4
755.994	26.74
756.173	27.19
756.352	27.7
756.532	27.69
756.711	26.82
756.89	29.13
757.069	28.92
757.248	30.18
757.427	30.35
757.607	31.4
757.786	29.66
757.965	31.8
758.144	30.29
758.323	29.52
758.502	29.22
758.681	30.34
758.86	28.85
759.039	28.08
759.218	27
759.397	25.71
759.576	24.43
759.755	24.79
759.934	23.53
760.113	24.71
760.291	25.79
760.47	26.57
760.649	25.68
760.828	26.16
761.007	26.14
761.186	25.56
761.364	26.65
761.543	27.16
761.722	27.77
761.901	28.62
762.079	27.82
762.258	27.5
762.437	26.48
762.615	27.22
762.794	26.9
762.972	26.99
763.151	27.77
763.33	26.51
763.508	26.68
763.687	26.78
763.865	25.64
764.044	25.76
764.222	25.41
764.401	25.15
764.579	25.65
764.758	26.4
764.936	26.08
765.114	26.52
765.293	27.05
765.471	27.05
765.65	26.67
765.828	27.63
766.006	28.49
766.184	28.81
766.363	28.36
766.541	27.39
766.719	26.59
766.898	27.48
767.076	25.94
767.254	26.35
767.432	26.28
767.61	26.72
767.788	25.73
767.967	24.59
768.145	23.3
768.323	24.85
768.501	23.82
768.679	24.65
768.857	24.9
769.035	25.06
769.213	24.52
769.391	23.88
769.569	22.66
769.747	23.9
769.925	24.34
770.103	25.2
770.281	25.46
770.459	25.24
770.636	24.47
770.814	24
770.992	23.03
771.17	22.7
771.348	24.34
771.525	25.35
771.703	22.81
771.881	22.96
772.059	21.54
772.236	19.86
772.414	22.76
772.592	22.12
772.769	21.37
772.947	23.12
773.125	24.01
773.302	24.16
773.48	25.61
773.657	26.34
773.835	25.6
774.013	28.35
774.19	27.89
774.368	25.15
774.545	26.53
774.723	26.13
774.9	26.11
775.077	25.88
775.255	24.47
775.432	23.91
775.61	23.74
775.787	23.06
775.964	21.21
776.142	21.74
776.319	23.11
776.496	23.24
776.674	21.9
776.851	21.85
777.028	20
777.205	20.1
777.382	19.36
777.56	18.67
777.737	18.78
777.914	20.49
778.091	23.46
778.268	23.03
778.445	22.31
778.622	22.8
778.8	22.07
778.977	23.24
779.154	23.27
779.331	22.34
779.508	24.69
779.685	26.95
779.862	27.16
780.038	27.61
780.215	28.79
780.392	27.66
780.569	31.07
780.746	29.27
780.923	29.31
781.1	29.22
781.277	31.29
781.453	27.93
781.63	27.96
781.807	26.66
781.984	24.61
782.16	23.68
782.337	23.55
782.514	22.21
782.691	25.96
782.867	27.53
783.044	26.96
783.221	24.93
783.397	28.17
783.574	26.21
783.75	25.75
783.927	25.98
784.103	27.21
784.28	26.21
784.456	25.31
784.633	23.4
784.809	21.44
784.986	22.42
785.162	22.47
785.339	23.53
785.515	24.09
785.692	26.64
785.868	26.42
786.044	26.43
786.221	28.76
786.397	28.57
786.573	28.05
786.749	29.49
786.926	31.3
787.102	32.34
787.278	32.14
787.454	34.56
787.631	31.4
787.807	32.7
787.983	32.32
788.159	34.15
788.335	34.53
788.511	34.09
788.687	33.61
788.863	32.64
789.039	31.53
789.216	30.95
789.392	28.97
789.568	29.65
789.744	28.92
789.919	28.98
790.095	25.89
790.271	25.59
790.447	28.44
790.623	29.73
790.799	26.07
790.975	28.01
791.151	28.75
791.327	29.84
791.502	31.79
791.678	32.03
791.854	32.45
792.03	33.16
792.205	34.64
792.381	31.9
792.557	27.75
792.733	30.12
792.908	28.85
793.084	28.29
793.259	26.23
793.435	23.57
793.611	23.25
793.786	21.43
793.962	20.24
794.137	18.22
794.313	19.89
794.488	23.08
794.664	21.38
794.839	23.69
795.015	20.96
795.19	20.88
795.366	24.71
795.541	23.98
795.716	20.07
795.892	18.73
796.067	22.7
796.242	22.08
796.418	20.81
796.593	23.5
796.768	23.72
796.944	25.54
797.119	25.86
797.294	22.08
797.469	20.84
797.644	26.75
797.82	31.04
797.995	29.37
798.17	29.45
798.345	31.2
798.52	29.97
798.695	27.15
798.87	26.76
799.045	25.06
799.22	28.39
799.395	29.19
799.57	26.99
799.745	26.83
799.92	22.77
800.095	21.74
800.27	21.37
800.445	23.66
800.62	25.52
800.795	27.1
800.97	27.64
801.145	23.76
801.319	26.34
801.494	25.01
801.669	23.1
801.844	24.92
802.018	29
802.193	29.03
802.368	25.77
802.543	28.62
802.717	27.04
802.892	28.79
803.067	30.8
803.241	30.08
803.416	31.63
803.59	32.77
803.765	29.58
803.94	26.27
804.114	26.3
804.289	25.31
804.463	22.38
804.638	21.74
804.812	25.77
804.986	26.28
805.161	26.78
805.335	27.53
805.51	25.64
805.684	31.57
805.858	31.8
806.033	31.53
806.207	32.31
806.381	28.91
806.556	30.84
806.73	28.27
806.904	26.94
807.078	23.01
807.253	20.92
807.427	19.83
807.601	19.48
807.775	19.56
807.949	19.34
808.123	22.13
808.298	24.24
808.472	21.04
808.646	18.2
808.82	20.63
808.994	21.32
809.168	21.8
809.342	22.9
809.516	18.98
809.69	18.88
809.864	18.56
810.038	16.94
810.212	16.57
810.385	15.95
810.559	15.63
810.733	12.75
810.907	14.17
811.081	13.35
811.255	14.04
811.428	16.22
811.602	17.76
811.776	22.65
811.95	19.6
812.123	20.28
812.297	22.77
812.471	24.46
812.644	26.51
812.818	26.98
812.992	29.48
813.165	28.33
813.339	29.2
813.512	29.83
813.686	26.18
813.86	27.87
814.033	25.41
814.207	24.07
814.38	20.81
814.554	20.47
814.727	21.06
814.9	17.38
815.074	21.24
815.247	19.08
815.421	15.97
815.594	15.13
815.767	13.84
815.941	20.95
816.114	25.52
816.287	29.89
816.46	24
816.634	26.35
816.807	25.83
816.98	22.05
817.153	20.73
817.327	19.24
817.5	20.59
817.673	19.15
817.846	18.13
818.019	17.02
818.192	15.92
818.365	20.35
818.538	17.41
818.711	18.73
818.884	20.86
819.057	23.79
819.23	28.58
819.403	28.88
819.576	30.26
819.749	27.6
819.922	22.41
820.095	24.94
820.268	25.46
820.441	25.48
820.614	26.8
820.786	27.06
820.959	26.89
821.132	26.06
821.305	26.64
821.477	28.24
821.65	28.8
821.823	31.06
821.996	30.68
822.168	30.22
822.341	30.39
822.514	30.27
822.686	29.58
822.859	29.6
823.031	30.18
823.204	30.06
823.376	30.19
823.549	30.93
823.722	30.83
823.894	30.7
824.067	30.69
824.239	29.85
824.411	29.96
824.584	30.54
824.756	30.59
824.929	29.51
825.101	29.98
825.273	29.34
825.446	28.14
825.618	27.85
825.79	28.11
825.963	28.86
826.135	29.28
826.307	29.05
826.479	28.47
826.652	28.59
826.824	28.75
826.996	28.38
827.168	27.6
827.34	27.14
827.512	26.51
827.684	24.45
827.856	24.57
828.029	25.14
828.201	23.17
828.373	23.11
828.545	22.55
828.717	22.24
828.889	21.09
829.061	21.61
829.232	22.13
829.404	22.19
829.576	23.85
829.748	24.57
829.92	25.22
830.092	28.2
830.264	28.83
830.436	27.38
830.607	28.16
830.779	27.68
830.951	25.77
831.123	26.42
831.294	25.72
831.466	26.73
831.638	25.66
831.809	22.85
831.981	20.63
832.153	18.69
832.324	20.64
832.496	16.8
832.667	18.67
832.839	23.16
833.011	24.39
833.182	25.4
833.354	25.37
833.525	24.75
833.697	25
833.868	27.66
834.039	28.98
834.211	26.55
834.382	27.19
834.554	25.44
834.725	24.91
834.896	23.78
835.068	24.08
835.239	23.92
835.41	25.75
835.581	25.87
835.753	24.17
835.924	27.04
836.095	29.48
836.266	30.09
836.438	28.67
836.609	30.94
836.78	32.01
836.951	31.77
837.122	33.48
837.293	30.03
837.464	31.22
837.635	32.83
837.806	28.04
837.977	29
838.148	29.62
838.319	31.58
838.49	30.18
838.661	29.31
838.832	28.05
839.003	22.15
839.174	27.14
839.345	24.17
839.516	23.06
839.687	25.81
839.857	24.68
840.028	23.35
840.199	19.94
840.37	17.89
840.54	18.94
840.711	23.31
840.882	28.96
841.053	26.24
841.223	30.36
841.394	32.12
841.564	31.66
841.735	31.68
841.906	35.39
842.076	40.49
842.247	43.9
842.417	40
842.588	32.3
842.758	31.57
842.929	32.09
843.099	31.33
843.27	30.09
843.44	30.12
843.611	25.95
843.781	17.82
843.951	19.14
844.122	15.24
844.292	16.08
844.462	24.29
844.633	15.3
844.803	15.67
844.973	18.15
845.144	16.21
845.314	10.62
845.484	12
845.654	22.42
845.824	20.01
845.995	11.55
846.165	6.05
846.335	2
846.505	15.09
846.675	11.31
846.845	4.65
847.015	4.65
847.185	18.32
847.355	17.12
847.525	9.5
847.695	14.02
847.865	25.32
848.035	33.31
848.205	22.98
848.375	16.07
848.545	17.78
848.715	12.19
848.884	9.16
849.054	3.55
849.224	7.31
849.394	-1.68
849.564	0.24
849.733	4.54
849.903	8.05
850.073	24.46
850.243	27.81
850.412	28.5
850.582	28.15
850.752	16.81
850.921	17.66
851.091	16.79
851.26	33.46
851.43	42.66
851.599	46.61
851.769	41.46
851.939	35.32
852.108	28.89
852.278	31.64
852.447	42.87
852.616	56.65
852.786	51.63
852.955	55.83
853.125	50.62
853.294	44.53
853.463	32.25
853.633	32.12
853.802	27.4
853.971	30.91
854.141	23.57
854.31	15.19
854.479	13.24
854.648	13.2
854.818	6.46
854.987	9.29
855.156	8.33
855.325	11.05
855.494	8.19
855.663	15.03
855.832	12.36
856.001	22.02
856.171	27.85
856.34	31.9
856.509	35.2
856.678	43.67
856.847	47.97
857.016	62
857.185	65.97
857.353	64.2
857.522	59.95
857.691	58.83
857.86	45.67
858.029	46.93
858.198	38.51
858.367	36.87
858.535	21.08
858.704	10.88
858.873	-1.42
859.042	-2.86
859.21	-1.06
859.379	-6.41
859.548	-13.72
859.717	-17.86
859.885	-15.9
860.054	-11.15
860.222	-10.61
860.391	-14.72
860.56	-22.13
860.728	-14.41
860.897	-13.33
861.065	-27.96
861.234	-12.55
861.402	2.2
861.571	-18.36
861.739	-25.33
861.908	-23.8
862.076	-30.56
862.244	-16.95
862.413	-15.69
862.581	-10.68
862.749	3.21
862.918	9.14
863.086	12.91
863.254	16.98
863.423	16.86
863.591	18.67
863.759	26.18
863.927	26.05
864.096	17.42
864.264	10.53
864.432	19.89
864.6	-2.56
864.768	-14.22
864.936	-26.53
865.104	-21.85
865.272	-3.28
865.44	-23.98
865.608	-28.93
865.776	-13.69
865.944	-7.47
866.112	16.74
866.28	-5.18
866.448	3.23
866.616	16.31
866.784	24.61
866.952	31.21
867.12	16.18
867.288	30
867.455	27.76
867.623	31.37
867.791	26.28
867.959	5.87
868.127	9.59
868.294	13.94
868.462	-11.33
868.63	-9.26
868.797	-20.3
868.965	-16.23
869.133	-40.85
869.3	-37.83
869.468	-50.35
869.636	-14.73
869.803	3.71
869.971	1.3
870.138	-2.46
870.306	4.88
870.473	5.34
870.641	20.22
870.808	36.57
870.975	57.81
871.143	52.19
871.31	56.95
871.478	45.93
871.645	29.42
871.812	41.56
871.98	49.4
872.147	36.64
872.314	32.47
872.482	19.1
872.649	22.19
872.816	7.57
872.983	15.94
873.15	16.79
873.318	19.13
873.485	8.99
873.652	4.65
873.819	2.72
873.986	21.41
874.153	7.49
874.32	-1.52
874.487	-1.68
874.654	7.68
874.821	-2.79
874.988	-11.16
875.155	-8.16
875.322	13.51
875.489	17.31
875.656	22.05
875.823	28.09
875.99	33.98
876.157	39.88
876.324	31.25
876.49	34.5
876.657	35.5
876.824	32.71
876.991	34.95
877.157	24.39
877.324	17.59
877.491	16.91
877.658	1.06
877.824	-11.71
877.991	-21.03
878.157	-1.61
878.324	-27.37
878.491	-28.28
878.657	-15.88
878.824	-13.26
878.99	-1.87
879.157	13.42
879.323	10
879.49	18.81
879.656	28.55
879.823	33.1
879.989	29.94
880.156	43.56
880.322	31.75
880.488	25.17
880.655	22.62
880.821	10.01
880.987	11.62
881.154	15.1
881.32	21.03
881.486	27.12
881.652	23.81
881.819	23.13
881.985	22.09
882.151	24.09
882.317	27.84
882.483	27.92
882.649	29.34
882.816	28.32
882.982	29.72
883.148	30.02
883.314	27.9
883.48	28.21
883.646	27.64
883.812	27.66
883.978	28.15
884.144	28.42
884.31	27.1
884.476	28.11
884.642	28.17
884.807	25.68
884.973	21.9
885.139	20.88
885.305	19.8
885.471	18.33
885.637	18.85
885.802	19.25
885.968	21.15
886.134	22.33
886.3	18.96
886.465	17.81
886.631	15.58
886.797	19.65
886.962	27.09
887.128	36.41
887.293	40.56
887.459	45.79
887.625	44.08
887.79	38.55
887.956	39.27
888.121	49.16
888.287	55.99
888.452	68.66
888.618	77.99
888.783	79.02
