Data from 2937830_Reflection_2.txt Node
Date: Wed Jul 15 16:48:14 EDT 2015
User: robert
Spectrometer: USB4E03001
Autoset integration time: false
Trigger mode: 4
Integration Time (sec): 1.000000E-1
Scans to average: 10
Electric dark correction enabled: true
Nonlinearity correction enabled: false
Boxcar width: 5
Stray light correction enabled: false
XAxis mode: Wavelengths
Stop averaging: false
Number of Pixels in Spectrum: 3648
>>>>>Begin Spectral Data<<<<<
177.566	-3633.93
177.785	-6429.82
178.005	359.74
178.225	425.45
178.445	493.4
178.665	152.56
178.885	239.92
179.105	684.25
179.324	-600.99
179.544	-262.75
179.764	-160.18
179.984	-270.33
180.204	-184.25
180.423	-288.04
180.643	-291.21
180.863	-93.75
181.083	-222.06
181.302	1260.27
181.522	-1145.39
181.742	203.73
181.961	209.35
182.181	230.93
182.401	262.62
182.621	117.72
182.84	130.16
183.06	241.56
183.279	585.97
183.499	654.49
183.719	-75.58
183.938	-78.09
184.158	-21.66
184.377	-23.11
184.597	-22.09
184.816	14.65
185.036	-7.3
185.256	-6.38
185.475	17.98
185.695	46.63
185.914	59.17
186.134	52.41
186.353	76.54
186.572	82.53
186.792	74.59
187.011	176.27
187.231	45.06
187.45	56.81
187.67	28.02
187.889	61.18
188.108	22.55
188.328	-11.52
188.547	-0.52
188.766	-33.71
188.986	-90.73
189.205	-90.25
189.424	-118.88
189.644	-96.08
189.863	-182.74
190.082	-92.38
190.302	-148.37
190.521	-64.22
190.74	-72.24
190.959	-213.24
191.178	-404.12
191.398	-110.76
191.617	-66.12
191.836	-66.57
192.055	-23.31
192.274	-28.84
192.494	10.83
192.713	21.05
192.932	21.54
193.151	103.48
193.37	127.05
193.589	126.08
193.808	141.93
194.027	103.21
194.246	80.53
194.465	86.18
194.685	103.9
194.904	37.22
195.123	30.55
195.342	19.55
195.561	20.82
195.78	31.67
195.999	55.93
196.218	37.36
196.436	37.97
196.655	55.75
196.874	37.06
197.093	35.14
197.312	50.63
197.531	33.72
197.75	8.32
197.969	13.39
198.188	-48.69
198.407	-153
198.625	-344
198.844	-328.92
199.063	-204.96
199.282	-77.04
199.501	-62.62
199.719	-96.43
199.938	-35.48
200.157	-22.06
200.376	-97.54
200.594	-40.88
200.813	-150.9
201.032	-196.57
201.251	-38.24
201.469	-25.59
201.688	-22.35
201.907	-30.17
202.125	-49.71
202.344	-64.17
202.563	-55.26
202.781	-77.24
203	-65.86
203.218	-68.38
203.437	-53.09
203.656	-74.04
203.874	-150.45
204.093	-262.4
204.311	-416.27
204.53	-342.44
204.748	-255.82
204.967	-336.62
205.185	-199.36
205.404	-483.2
205.622	-318.28
205.841	-410.9
206.059	-675.97
206.278	-445.63
206.496	-181.2
206.715	-82.03
206.933	-65.09
207.151	-17.09
207.37	16.79
207.588	20
207.806	41.74
208.025	41.48
208.243	45.99
208.461	31.81
208.68	51.56
208.898	44.58
209.116	36.49
209.335	38.55
209.553	22.2
209.771	-0.57
209.989	-33.98
210.208	-79.38
210.426	-58.41
210.644	-76.43
210.862	-55.43
211.081	-66.89
211.299	-81.08
211.517	-110.45
211.735	-49.31
211.953	-73.61
212.171	21.37
212.39	50.47
212.608	78.84
212.826	84.31
213.044	22.96
213.262	46.83
213.48	73.97
213.698	62.23
213.916	64.51
214.134	57.29
214.352	48.36
214.57	-10.7
214.788	-21.3
215.006	-53.83
215.224	-40.98
215.442	-27.14
215.66	-26.68
215.878	-14.91
216.096	-27.58
216.314	-17.48
216.532	2.49
216.75	19.86
216.968	15.33
217.185	7.68
217.403	15.02
217.621	10.69
217.839	17.66
218.057	26.37
218.275	11.4
218.492	30.3
218.71	25.19
218.928	23.96
219.146	21.58
219.363	45.38
219.581	53.04
219.799	66.26
220.017	62.06
220.234	63.63
220.452	67.84
220.67	99.32
220.887	95.5
221.105	85.69
221.323	67.27
221.54	71.06
221.758	78.33
221.976	75.85
222.193	35.78
222.411	157.33
222.629	98.33
222.846	56.02
223.064	28.28
223.281	5.42
223.499	23.7
223.716	13.03
223.934	-7.8
224.151	-23.96
224.369	-2.2
224.586	22.04
224.804	17.95
225.021	19.64
225.239	32.05
225.456	29.81
225.674	24.18
225.891	14.68
226.108	22.41
226.326	25.11
226.543	14.57
226.76	14.82
226.978	5.13
227.195	8.55
227.413	9.87
227.63	5.1
227.847	7.65
228.064	15.43
228.282	16.98
228.499	17.98
228.716	17.79
228.934	22.25
229.151	17.88
229.368	16.64
229.585	17.26
229.802	17.58
230.02	17.98
230.237	16.22
230.454	12.55
230.671	12.59
230.888	12.3
231.105	10.36
231.323	7.31
231.54	11.21
231.757	7.77
231.974	9.12
232.191	5.52
232.408	8.4
232.625	6.55
232.842	7.34
233.059	6.05
233.276	6.99
233.493	8.83
233.71	14.66
233.927	21.53
234.144	29.98
234.361	28.4
234.578	30.57
234.795	29.05
235.012	30.97
235.229	27.66
235.446	26.8
235.663	25.41
235.879	22.71
236.096	15.27
236.313	8.55
236.53	9.55
236.747	7.26
236.964	-0.54
237.181	-5.68
237.397	-3.54
237.614	-0.15
237.831	3.78
238.048	1.56
238.264	-1.38
238.481	-0.03
238.698	-9.7
238.915	-15.53
239.131	-8.77
239.348	4.55
239.565	10.89
239.781	8.23
239.998	9.42
240.215	8.82
240.431	10.46
240.648	8.33
240.865	11.79
241.081	19.63
241.298	22.13
241.514	19.71
241.731	17.48
241.947	16.56
242.164	15.01
242.38	18.12
242.597	18.56
242.814	17.28
243.03	19.55
243.246	21.01
243.463	17.21
243.679	15.46
243.896	15.44
244.112	14.95
244.329	13.14
244.545	11.67
244.762	5.83
244.978	4.4
245.194	6.22
245.411	7.36
245.627	6.32
245.843	9.88
246.06	10.82
246.276	11.18
246.492	11.16
246.709	12.99
246.925	14.59
247.141	14.96
247.357	15.02
247.574	14.4
247.79	13.82
248.006	13.77
248.222	12.84
248.439	13.13
248.655	13.55
248.871	13.39
249.087	12.07
249.303	12.01
249.519	12.85
249.736	14.15
249.952	13.78
250.168	15.73
250.384	14.83
250.6	15.54
250.816	13.69
251.032	11.89
251.248	12.96
251.464	12.85
251.68	14.12
251.896	13.93
252.112	12.53
252.328	13.1
252.544	13.43
252.76	11.78
252.976	11.33
253.192	8.32
253.408	10.77
253.624	10.04
253.84	11.16
254.056	8.23
254.272	5.97
254.487	3.46
254.703	2.68
254.919	-5.73
255.135	-3.07
255.351	-4.62
255.567	-1.02
255.782	-7.65
255.998	-6.89
256.214	-8.48
256.43	-7
256.646	-4.5
256.861	-5.17
257.077	-1.48
257.293	1.46
257.508	-0.42
257.724	2.09
257.94	1.12
258.155	2.41
258.371	3.4
258.587	3.15
258.802	4.2
259.018	5.38
259.234	7.3
259.449	7.36
259.665	7.86
259.88	8.98
260.096	9.44
260.312	9.39
260.527	9.75
260.743	10.24
260.958	11.12
261.174	10.89
261.389	10.57
261.605	10.25
261.82	9.28
262.036	9.5
262.251	10.71
262.466	10.17
262.682	11.95
262.897	12.29
263.113	9.47
263.328	9.51
263.543	9.55
263.759	8.94
263.974	7.86
264.189	7.51
264.405	7.33
264.62	6.08
264.835	7.75
265.051	5.93
265.266	6.26
265.481	9.71
265.696	11.63
265.912	11.67
266.127	13.46
266.342	12.65
266.557	12.31
266.773	11.98
266.988	10.2
267.203	7.35
267.418	6.22
267.633	4.6
267.848	5.3
268.064	2.85
268.279	1.82
268.494	2.01
268.709	3.12
268.924	2.53
269.139	1.29
269.354	1.66
269.569	1.94
269.784	3.62
269.999	4.84
270.214	3.91
270.429	7.03
270.644	8.78
270.859	7.98
271.074	7.99
271.289	8.83
271.504	11.45
271.719	10.87
271.934	11.22
272.149	11.45
272.363	11.47
272.578	11.38
272.793	9.95
273.008	9.31
273.223	8.43
273.438	9.35
273.653	9.9
273.867	8.67
274.082	10.24
274.297	10.64
274.512	10.55
274.726	9.21
274.941	8.2
275.156	8.84
275.371	8.74
275.585	10.86
275.8	8.69
276.015	9.07
276.229	9.73
276.444	9.71
276.659	8.26
276.873	8.28
277.088	10.32
277.302	8.81
277.517	6.63
277.732	6.52
277.946	4.56
278.161	5.34
278.375	4.65
278.59	2.79
278.804	1.39
279.019	2.02
279.233	3.23
279.448	2.87
279.662	5.16
279.877	6.37
280.091	6.42
280.306	6.96
280.52	6.75
280.735	7.45
280.949	8.14
281.163	9.81
281.378	11.16
281.592	8.83
281.806	9.08
282.021	10.52
282.235	9.6
282.449	11.4
282.664	10.04
282.878	11.06
283.092	11.39
283.307	11.38
283.521	10.06
283.735	11.77
283.949	12.96
284.164	12.94
284.378	10.54
284.592	12.58
284.806	11.39
285.02	14.45
285.234	14.84
285.449	13.17
285.663	12.92
285.877	12.7
286.091	10.4
286.305	11.64
286.519	11.16
286.733	11.9
286.947	10.25
287.161	10.47
287.375	9.22
287.589	7.71
287.803	7.08
288.017	7.01
288.231	6.76
288.445	8.47
288.659	7.29
288.873	8.37
289.087	7.79
289.301	8.12
289.515	8.7
289.729	8.02
289.943	8.7
290.157	9.5
290.371	9.78
290.584	10.29
290.798	8.8
291.012	9.22
291.226	7.8
291.44	9.19
291.654	8.8
291.867	6.7
292.081	5.94
292.295	6.06
292.509	7.56
292.722	7.55
292.936	6.73
293.15	5.33
293.364	4.44
293.577	4.1
293.791	4.55
294.005	4.92
294.218	5.89
294.432	7.94
294.645	8.6
294.859	8.26
295.073	8.46
295.286	8.5
295.5	10.34
295.713	11.12
295.927	13.26
296.14	12.19
296.354	13.16
296.568	13.07
296.781	12.07
296.994	11.1
297.208	10.62
297.421	10.66
297.635	11.22
297.848	10.71
298.062	9.46
298.275	8.77
298.489	9.95
298.702	9.7
298.915	10.4
299.129	11.19
299.342	13.3
299.555	13.47
299.769	13.02
299.982	12.39
300.195	11.53
300.409	13.28
300.622	12.71
300.835	11.97
301.048	11.12
301.262	10.93
301.475	11.68
301.688	10.11
301.901	10.65
302.115	10.88
302.328	11.61
302.541	12.72
302.754	10.96
302.967	11.69
303.18	11.88
303.393	13.05
303.607	11.71
303.82	9.95
304.033	9.42
304.246	9.06
304.459	11.72
304.672	12.71
304.885	11
305.098	10.77
305.311	9.27
305.524	7.62
305.737	5.71
305.95	6.75
306.163	9.01
306.376	8.75
306.589	9.02
306.802	6.57
307.015	4.25
307.228	5.76
307.44	5.94
307.653	7.34
307.866	7.61
308.079	10.71
308.292	8.47
308.505	6.62
308.718	8.32
308.93	7.05
309.143	8.56
309.356	9.23
309.569	10.34
309.781	11.98
309.994	12.01
310.207	13.59
310.42	10.52
310.632	12.44
310.845	12.36
311.058	10.62
311.27	11.17
311.483	9.51
311.696	9.24
311.908	9.49
312.121	8.43
312.333	8.27
312.546	7.16
312.759	9.31
312.971	9
313.184	8.52
313.396	9.85
313.609	8.86
313.821	9.36
314.034	9.8
314.246	8.54
314.459	9.47
314.671	9.02
314.884	8.15
315.096	7.03
315.309	6.29
315.521	7.88
315.733	7.8
315.946	7.81
316.158	6.63
316.371	5.07
316.583	5.16
316.795	4.38
317.008	4.79
317.22	6.65
317.432	4.81
317.644	6.81
317.857	5.41
318.069	6.57
318.281	8.06
318.494	9.04
318.706	10.32
318.918	9.7
319.13	10.44
319.342	9.98
319.555	10.34
319.767	11.4
319.979	10.32
320.191	8.86
320.403	7.34
320.615	7.63
320.827	7.31
321.039	6.22
321.252	7.31
321.464	6.34
321.676	5.25
321.888	4.69
322.1	5.07
322.312	7.12
322.524	9.96
322.736	9.19
322.948	9.2
323.16	9.55
323.372	10.81
323.584	10.67
323.796	12.06
324.007	13.19
324.219	13.21
324.431	13.59
324.643	12.46
324.855	12.46
325.067	12.06
325.279	11.38
325.491	11.31
325.702	10.31
325.914	10.09
326.126	10.21
326.338	10.61
326.55	10.08
326.761	10.33
326.973	9.58
327.185	8.53
327.396	9.47
327.608	9.49
327.82	9.84
328.032	11.95
328.243	11.08
328.455	10.71
328.666	10.89
328.878	9.01
329.09	9.12
329.301	9.31
329.513	9.43
329.725	10.53
329.936	10.25
330.148	11.95
330.359	10.62
330.571	11.16
330.782	10.39
330.994	10.88
331.205	13.54
331.417	14.78
331.628	15.16
331.84	15.44
332.051	15.76
332.262	15.3
332.474	14
332.685	14.7
332.897	15.34
333.108	17.54
333.319	17.15
333.531	17.41
333.742	16.81
333.953	16.62
334.165	16.75
334.376	16.58
334.587	16.3
334.799	16.17
335.01	16.56
335.221	16.72
335.432	15.46
335.644	14.05
335.855	13.29
336.066	13.49
336.277	13.07
336.488	12.62
336.7	10.65
336.911	11.41
337.122	11.32
337.333	10.64
337.544	10.46
337.755	10.15
337.966	11.67
338.177	12.78
338.388	12.59
338.599	12.66
338.811	12.77
339.022	12.38
339.233	11.74
339.444	10.1
339.655	10.04
339.866	10.23
340.076	9.39
340.287	10.02
340.498	8.51
340.709	6.89
340.92	7.54
341.131	7.98
341.342	10.56
341.553	13.18
341.764	13.94
341.975	13.43
342.185	12.91
342.396	14.79
342.607	14.18
342.818	15.08
343.029	16.41
343.239	16.05
343.45	14.49
343.661	13.9
343.872	11.85
344.082	13.16
344.293	13.72
344.504	14.82
344.714	15
344.925	15.14
345.136	15.71
345.346	16.25
345.557	16.92
345.768	16.68
345.978	16.4
346.189	16.45
346.399	15.4
346.61	16.65
346.821	16.39
347.031	15.37
347.242	15.22
347.452	14.26
347.663	13.59
347.873	14.53
348.084	14.47
348.294	13.77
348.504	14.15
348.715	14.73
348.925	14.01
349.136	13.66
349.346	13.95
349.557	14.76
349.767	14.92
349.977	14.23
350.188	13.33
350.398	15.5
350.608	16.63
350.819	16.73
351.029	16.47
351.239	15.74
351.449	15.6
351.66	13.89
351.87	12.79
352.08	13
352.29	12.93
352.501	12.94
352.711	12.28
352.921	10.82
353.131	12.27
353.341	11.74
353.552	11.76
353.762	10.82
353.972	11.99
354.182	11.51
354.392	12.05
354.602	12.72
354.812	12.02
355.022	11.93
355.232	13.83
355.442	13.34
355.652	14.09
355.862	14.18
356.072	14.5
356.282	14.44
356.492	15.33
356.702	14.81
356.912	14.55
357.122	13.92
357.332	14.82
357.542	14.72
357.752	14.66
357.962	14.79
358.171	15.03
358.381	14.79
358.591	14.31
358.801	14.37
359.011	14.34
359.221	14.52
359.43	14.46
359.64	13.09
359.85	11.99
360.06	11.64
360.269	11.12
360.479	11.28
360.689	11.95
360.899	12.81
361.108	12.19
361.318	11.44
361.528	10.53
361.737	10.8
361.947	11.18
362.156	11.85
362.366	12.03
362.576	12.24
362.785	11.59
362.995	11.38
363.204	11.29
363.414	11.51
363.623	12.59
363.833	12.3
364.042	12.58
364.252	12.91
364.461	12.16
364.671	12.14
364.88	11.7
365.09	12.25
365.299	11.39
365.509	10.63
365.718	10.73
365.927	10.54
366.137	11.77
366.346	11.9
366.555	11.69
366.765	11.41
366.974	10.74
367.183	10.53
367.393	9.39
367.602	10.61
367.811	11.69
368.021	11.98
368.23	11.94
368.439	10.97
368.648	10.38
368.857	9.27
369.067	9.74
369.276	10.31
369.485	10.28
369.694	11.53
369.903	10.79
370.112	9.74
370.321	9.96
370.531	9.49
370.74	10.43
370.949	10.6
371.158	11.87
371.367	12.58
371.576	12.6
371.785	13.02
371.994	12.61
372.203	12.81
372.412	13.07
372.621	11.7
372.83	11.46
373.039	11.3
373.248	11.38
373.457	10.8
373.666	9.9
373.874	9.7
374.083	9.48
374.292	9.32
374.501	9.9
374.71	9.56
374.919	9.93
375.128	10.13
375.336	9.88
375.545	9.86
375.754	10.09
375.963	10.19
376.171	10.12
376.38	10.25
376.589	10.02
376.798	10.36
377.006	10.22
377.215	11.13
377.424	10.89
377.632	11.4
377.841	11.22
378.05	10.85
378.258	11.11
378.467	10.98
378.675	10.86
378.884	11.04
379.093	10.48
379.301	11.44
379.51	10.71
379.718	10.32
379.927	9.59
380.135	9.2
380.344	9.05
380.552	8.76
380.761	9.02
380.969	9.1
381.177	9.14
381.386	8.32
381.594	7.73
381.803	7.97
382.011	8.56
382.219	8.22
382.428	8.41
382.636	8.37
382.845	8.36
383.053	8.09
383.261	8.32
383.469	8.41
383.678	8.66
383.886	8.87
384.094	8.73
384.302	8.77
384.511	9.74
384.719	9.25
384.927	9.72
385.135	9.48
385.343	9.46
385.552	8.71
385.76	8.36
385.968	8.35
386.176	8.01
386.384	7.58
386.592	7.47
386.8	6.67
387.008	6.86
387.216	6.47
387.424	6.75
387.633	6.82
387.841	7.37
388.049	7.73
388.257	7.98
388.465	8.07
388.672	8.15
388.88	8.28
389.088	9.1
389.296	9.06
389.504	8.98
389.712	8.61
389.92	8.41
390.128	8.32
390.336	7.69
390.544	7.53
390.751	7.18
390.959	6.97
391.167	6.66
391.375	5.93
391.583	6.49
391.79	6.55
391.998	6.77
392.206	6.62
392.414	6.26
392.621	6.38
392.829	6.53
393.037	6.71
393.244	7.24
393.452	7.4
393.66	7.54
393.867	7.22
394.075	7.21
394.283	7.22
394.49	7.21
394.698	7.53
394.905	7.51
395.113	7.59
395.32	7.24
395.528	6.95
395.735	7.06
395.943	7.07
396.15	7.22
396.358	7.5
396.565	7.16
396.773	7.37
396.98	7.46
397.188	7.71
397.395	7.8
397.602	8.27
397.81	8.15
398.017	8.14
398.225	8.01
398.432	7.75
398.639	7.59
398.847	7.98
399.054	7.6
399.261	7.53
399.468	7.37
399.676	6.96
399.883	6.77
400.09	6.97
400.297	6.96
400.505	7.02
400.712	7.37
400.919	7.5
401.126	7.4
401.333	7.35
401.54	7.45
401.748	7.56
401.955	7.5
402.162	7.48
402.369	7.25
402.576	6.78
402.783	6.71
402.99	6.53
403.197	6.38
403.404	6.2
403.611	6.1
403.818	6.22
404.025	6.38
404.232	6.29
404.439	6.25
404.646	6.49
404.853	6.87
405.06	7.09
405.267	7.31
405.474	7.22
405.681	7.21
405.887	7.79
406.094	7.72
406.301	7.67
406.508	7.76
406.715	7.72
406.922	7.72
407.128	7.81
407.335	7.64
407.542	7.67
407.749	7.93
407.955	8.01
408.162	7.65
408.369	7.35
408.575	6.88
408.782	6.85
408.989	7.1
409.195	7.18
409.402	6.58
409.609	6.85
409.815	6.41
410.022	6.47
410.228	6.6
410.435	6.66
410.642	6.57
410.848	6.79
411.055	7.02
411.261	7.21
411.468	6.87
411.674	7.26
411.881	7.47
412.087	7.56
412.294	7.14
412.5	7.2
412.706	7.62
412.913	7.61
413.119	7.57
413.326	7.44
413.532	6.91
413.738	7.05
413.945	7.1
414.151	6.81
414.357	6.73
414.564	6.94
414.77	6.89
414.976	6.63
415.182	6.91
415.389	6.87
415.595	6.65
415.801	7.21
416.007	7.4
416.214	7.29
416.42	7.15
416.626	7.36
416.832	7.36
417.038	7.09
417.244	6.99
417.45	7.04
417.657	7.15
417.863	7.26
418.069	6.76
418.275	6.49
418.481	6.4
418.687	6.47
418.893	6.44
419.099	6.32
419.305	6.48
419.511	6.53
419.717	6.52
419.923	6.53
420.129	6.41
420.335	6.46
420.541	6.48
420.746	6.47
420.952	6.38
421.158	6.39
421.364	6.36
421.57	6.37
421.776	6.37
421.982	6.28
422.187	6.28
422.393	6.32
422.599	6.37
422.805	6.39
423.01	6.48
423.216	6.43
423.422	6.43
423.628	6.46
423.833	6.46
424.039	6.22
424.245	6.24
424.45	6.13
424.656	6.22
424.862	6.18
425.067	6.33
425.273	6.32
425.478	6.34
425.684	6.18
425.889	6.27
426.095	6.28
426.301	6.48
426.506	6.44
426.712	6.53
426.917	6.48
427.123	6.29
427.328	6.22
427.533	6.05
427.739	6.15
427.944	6.2
428.15	6.06
428.355	6.05
428.561	6.15
428.766	6.19
428.971	6.21
429.177	6.04
429.382	6.18
429.587	6.02
429.793	6.32
429.998	6.36
430.203	6.39
430.408	6.39
430.614	6.11
430.819	6.06
431.024	6.08
431.229	6.02
431.434	6.42
431.64	6.53
431.845	6.58
432.05	6.41
432.255	6.38
432.46	6.25
432.665	6.08
432.87	6.26
433.076	6.17
433.281	6.21
433.486	6.18
433.691	5.9
433.896	5.88
434.101	5.85
434.306	5.95
434.511	5.9
434.716	6.23
434.921	6.54
435.126	6.67
435.331	6.74
435.535	6.52
435.74	6.45
435.945	6.56
436.15	6.61
436.355	6.64
436.56	6.54
436.765	6.52
436.97	6.17
437.174	6.04
437.379	5.75
437.584	5.75
437.789	5.76
437.993	6.02
438.198	5.96
438.403	6.09
438.608	6.01
438.812	5.83
439.017	5.89
439.222	6.07
439.426	6.01
439.631	6.02
439.836	5.92
440.04	6.07
440.245	5.91
440.45	5.95
440.654	5.89
440.859	5.75
441.063	5.9
441.268	5.85
441.472	5.79
441.677	5.83
441.881	6.02
442.086	5.97
442.29	6.03
442.495	6.03
442.699	6.02
442.904	5.87
443.108	6.13
443.312	6.07
443.517	6.14
443.721	5.96
443.925	5.97
444.13	5.75
444.334	5.89
444.538	5.87
444.743	5.9
444.947	5.86
445.151	5.99
445.356	6.07
445.56	6.18
445.764	6.23
445.968	6.3
446.173	6.36
446.377	6.39
446.581	6.29
446.785	6.32
446.989	6.29
447.193	6.38
447.398	6.28
447.602	6.11
447.806	6.12
448.01	6.04
448.214	6.05
448.418	5.95
448.622	5.93
448.826	6.01
449.03	5.91
449.234	5.98
449.438	6.01
449.642	6.11
449.846	5.98
450.05	5.67
450.254	5.66
450.458	5.65
450.662	5.96
450.866	6.13
451.069	6.22
451.273	6.27
451.477	6.14
451.681	6.04
451.885	5.96
452.089	6
452.292	6.16
452.496	6.18
452.7	6
452.904	5.71
453.107	5.71
453.311	5.54
453.515	5.53
453.719	5.56
453.922	5.63
454.126	5.66
454.33	5.98
454.533	6.07
454.737	6
454.94	6.29
455.144	6.32
455.348	6.13
455.551	6.15
455.755	6
455.958	6.14
456.162	6
456.365	5.98
456.569	5.97
456.772	5.84
456.976	5.85
457.179	5.91
457.383	5.8
457.586	5.85
457.79	6.02
457.993	5.91
458.196	5.65
458.4	5.67
458.603	5.81
458.807	5.8
459.01	5.8
459.213	5.69
459.417	5.56
459.62	5.69
459.823	5.69
460.026	5.59
460.23	5.72
460.433	6.07
460.636	5.99
460.839	5.79
461.042	5.68
461.246	5.83
461.449	5.96
461.652	5.97
461.855	6.03
462.058	6.15
462.261	6.2
462.464	6.09
462.668	5.67
462.871	5.83
463.074	6.1
463.277	6.24
463.48	6.03
463.683	6.22
463.886	6.27
464.089	6.08
464.292	5.88
464.495	5.71
464.698	5.99
464.901	6.1
465.104	6.26
465.306	6.05
465.509	5.84
465.712	5.81
465.915	5.63
466.118	5.69
466.321	5.51
466.524	5.57
466.726	5.61
466.929	5.4
467.132	5.4
467.335	5.21
467.538	5.27
467.74	5.36
467.943	5.49
468.146	5.59
468.348	5.45
468.551	5.62
468.754	5.58
468.956	5.65
469.159	5.5
469.362	5.62
469.564	5.57
469.767	5.59
469.969	5.57
470.172	5.54
470.375	5.47
470.577	5.53
470.78	5.67
470.982	5.8
471.185	5.89
471.387	6.25
471.59	6.17
471.792	6.29
471.995	6.26
472.197	6.22
472.399	6.39
472.602	6.29
472.804	6.28
473.007	6.36
473.209	6.28
473.411	6.29
473.614	6
473.816	5.94
474.018	6.07
474.22	6.07
474.423	6.02
474.625	6.04
474.827	6.19
475.03	6.28
475.232	6.07
475.434	6.22
475.636	5.97
475.838	6.13
476.04	6.17
476.243	5.86
476.445	5.82
476.647	5.92
476.849	5.81
477.051	5.82
477.253	5.76
477.455	5.78
477.657	5.66
477.859	5.78
478.061	5.74
478.263	5.8
478.465	5.95
478.667	5.95
478.869	5.81
479.071	5.83
479.273	5.85
479.475	5.88
479.677	5.8
479.879	5.83
480.081	5.93
480.283	5.96
480.485	5.8
480.686	5.86
480.888	5.92
481.09	6.11
481.292	5.9
481.494	5.87
481.695	5.9
481.897	6
482.099	5.89
482.301	5.83
482.502	5.67
482.704	5.68
482.906	5.63
483.107	5.62
483.309	5.62
483.511	5.6
483.712	5.56
483.914	5.53
484.115	5.47
484.317	5.45
484.519	5.5
484.72	5.54
484.922	5.59
485.123	5.62
485.325	5.6
485.526	5.59
485.728	5.65
485.929	5.68
486.131	5.67
486.332	5.71
486.534	5.84
486.735	5.83
486.936	5.91
487.138	5.87
487.339	5.83
487.541	5.78
487.742	5.77
487.943	5.79
488.144	5.78
488.346	5.8
488.547	5.76
488.748	5.71
488.95	5.64
489.151	5.57
489.352	5.64
489.553	5.46
489.755	5.46
489.956	5.37
490.157	5.32
490.358	5.3
490.559	5.26
490.76	5.25
490.961	5.29
491.163	5.42
491.364	5.45
491.565	5.35
491.766	5.46
491.967	5.53
492.168	5.56
492.369	5.52
492.57	5.39
492.771	5.43
492.972	5.52
493.173	5.48
493.374	5.37
493.575	5.4
493.776	5.48
493.976	5.55
494.177	5.72
494.378	5.58
494.579	5.76
494.78	5.87
494.981	5.75
495.182	5.62
495.382	5.52
495.583	5.61
495.784	5.58
495.985	5.58
496.185	5.67
496.386	5.56
496.587	5.76
496.788	5.75
496.988	5.95
497.189	6.15
497.39	6.31
497.59	6.42
497.791	6.31
497.992	6.23
498.192	6.38
498.393	6.34
498.593	6.15
498.794	6.14
498.994	5.95
499.195	5.74
499.395	5.56
499.596	5.56
499.796	5.61
499.997	5.49
500.197	5.39
500.398	5.13
500.598	5.11
500.799	5.18
500.999	5.21
501.199	5.16
501.4	5.46
501.6	5.63
501.801	5.35
502.001	5.3
502.201	5.4
502.402	5.73
502.602	5.78
502.802	5.85
503.002	6.07
503.203	5.97
503.403	6.23
503.603	6.12
503.803	5.94
504.003	6.26
504.204	6.28
504.404	6.4
504.604	6.28
504.804	6.34
505.004	6.37
505.204	6.5
505.404	6.68
505.604	6.61
505.804	6.63
506.005	6.73
506.205	6.48
506.405	6.38
506.605	6.3
506.805	6.21
507.005	6.22
507.204	6.15
507.404	6
507.604	5.96
507.804	6.06
508.004	6.01
508.204	6
508.404	6.23
508.604	6.39
508.804	6.62
509.003	6.73
509.203	6.65
509.403	6.55
509.603	6.42
509.803	6.38
510.002	6.39
510.202	6.56
510.402	6.61
510.602	6.48
510.801	6.45
511.001	6.36
511.201	6.3
511.4	6.47
511.6	6.68
511.8	6.86
511.999	6.88
512.199	7.06
512.398	6.99
512.598	6.99
512.797	7.21
512.997	7.2
513.197	7.22
513.396	7.21
513.596	7.07
513.795	6.96
513.994	6.89
514.194	7.03
514.393	6.82
514.593	6.73
514.792	6.86
514.992	6.74
515.191	6.8
515.39	6.9
515.59	6.99
515.789	6.98
515.988	7.18
516.188	7.21
516.387	7.13
516.586	7.23
516.786	7.36
516.985	7.19
517.184	7.21
517.383	7.19
517.582	7.18
517.782	7.28
517.981	7.48
518.18	7.35
518.379	7.35
518.578	7.4
518.777	7.31
518.976	7.27
519.176	7.34
519.375	7.28
519.574	7.32
519.773	7.36
519.972	7.3
520.171	7.26
520.37	7.25
520.569	7.35
520.768	7.29
520.967	7.6
521.166	7.69
521.365	7.77
521.564	7.97
521.762	8
521.961	8.02
522.16	8.22
522.359	8.22
522.558	8.1
522.757	7.87
522.956	8.15
523.154	8.01
523.353	8.02
523.552	8.04
523.751	8.08
523.949	8.13
524.148	8.04
524.347	7.89
524.546	7.91
524.744	8.22
524.943	8.25
525.142	8.17
525.34	8.18
525.539	8.16
525.737	8.27
525.936	8.26
526.135	8.23
526.333	8.22
526.532	8.26
526.73	8.35
526.929	8.34
527.127	8.38
527.326	8.55
527.524	8.58
527.723	8.71
527.921	8.67
528.12	8.66
528.318	8.67
528.516	8.79
528.715	8.85
528.913	8.88
529.112	8.87
529.31	8.92
529.508	8.85
529.707	8.79
529.905	8.72
530.103	8.79
530.301	8.77
530.5	8.7
530.698	8.59
530.896	8.57
531.094	8.46
531.293	8.53
531.491	8.6
531.689	8.58
531.887	8.69
532.085	8.8
532.283	8.76
532.481	8.86
532.68	9.02
532.878	9.11
533.076	9.18
533.274	9.23
533.472	9.28
533.67	9.34
533.868	9.4
534.066	9.43
534.264	9.51
534.462	9.6
534.66	9.54
534.858	9.64
535.056	9.75
535.253	9.73
535.451	9.79
535.649	9.65
535.847	9.63
536.045	9.65
536.243	9.69
536.441	9.66
536.638	9.65
536.836	9.83
537.034	9.75
537.232	9.71
537.43	9.84
537.627	9.85
537.825	9.96
538.023	10.06
538.22	10.2
538.418	10.13
538.616	10.15
538.813	10.09
539.011	10.15
539.209	10.22
539.406	10.08
539.604	10.08
539.801	10.22
539.999	10.34
540.196	10.44
540.394	10.4
540.591	10.51
540.789	10.54
540.986	10.62
541.184	10.71
541.381	10.75
541.579	10.97
541.776	10.99
541.974	10.98
542.171	11.01
542.368	10.97
542.566	11.02
542.763	11.06
542.96	11.18
543.158	11.16
543.355	11.09
543.552	11.06
543.75	11.02
543.947	11.08
544.144	11.15
544.341	11.2
544.539	11.21
544.736	11.22
544.933	11.29
545.13	11.18
545.327	11.35
545.524	11.54
545.722	11.56
545.919	11.6
546.116	11.7
546.313	11.78
546.51	11.81
546.707	11.89
546.904	11.81
547.101	11.8
547.298	11.83
547.495	11.77
547.692	11.75
547.889	11.87
548.086	11.82
548.283	11.68
548.48	11.68
548.677	11.75
548.874	11.85
549.07	12.11
549.267	12.28
549.464	12.51
549.661	12.73
549.858	12.69
550.055	12.84
550.251	13.01
550.448	13.04
550.645	12.78
550.842	12.69
551.038	12.69
551.235	12.8
551.432	12.9
551.628	12.81
551.825	12.7
552.022	12.85
552.218	12.88
552.415	13
552.612	13.09
552.808	13.39
553.005	13.6
553.201	13.69
553.398	13.79
553.594	13.82
553.791	14.03
553.987	14.04
554.184	13.86
554.38	14.01
554.577	14.02
554.773	14.1
554.97	14.18
555.166	13.9
555.362	13.87
555.559	13.66
555.755	13.71
555.952	13.63
556.148	13.89
556.344	14.21
556.541	14.07
556.737	14.22
556.933	14.35
557.129	14.32
557.326	14.76
557.522	14.99
557.718	14.9
557.914	14.92
558.11	14.75
558.307	14.62
558.503	14.64
558.699	14.84
558.895	14.89
559.091	15.07
559.287	15.12
559.483	15.19
559.679	14.94
559.876	15.44
560.072	15.62
560.268	15.9
560.464	15.96
560.66	16.03
560.856	16.34
561.052	16.38
561.247	16.48
561.443	16.88
561.639	16.87
561.835	17.19
562.031	17.12
562.227	17.02
562.423	17.12
562.619	17.19
562.815	17.3
563.01	17.09
563.206	17.07
563.402	17.24
563.598	16.89
563.793	16.79
563.989	16.63
564.185	16.64
564.381	16.78
564.576	16.84
564.772	16.99
564.968	17.01
565.163	17.07
565.359	17.09
565.555	16.8
565.75	17.01
565.946	17.18
566.141	17.37
566.337	17.42
566.532	17.43
566.728	17.44
566.923	17.43
567.119	17.5
567.314	17.55
567.51	17.74
567.705	18
567.901	17.94
568.096	18.3
568.292	18.45
568.487	18.53
568.682	18.68
568.878	18.73
569.073	19.03
569.268	19.26
569.464	19.44
569.659	19.33
569.854	19.42
570.05	19.57
570.245	19.15
570.44	19.1
570.635	18.99
570.831	18.98
571.026	19.09
571.221	19.14
571.416	19.04
571.611	19.07
571.806	19.25
572.002	19.29
572.197	19.4
572.392	19.53
572.587	19.55
572.782	19.72
572.977	19.92
573.172	20.09
573.367	19.88
573.562	20.03
573.757	19.98
573.952	19.97
574.147	19.91
574.342	19.77
574.537	19.96
574.732	20.08
574.927	20.2
575.121	20.25
575.316	20.22
575.511	20.56
575.706	20.46
575.901	20.63
576.096	20.81
576.29	21.04
576.485	21.24
576.68	21.19
576.875	21.34
577.069	21.27
577.264	21.07
577.459	21.03
577.654	20.75
577.848	20.82
578.043	20.67
578.238	20.57
578.432	20.25
578.627	20.24
578.821	20.15
579.016	20.25
579.21	20.18
579.405	20.54
579.6	20.67
579.794	20.96
579.989	21.04
580.183	21.3
580.378	21.39
580.572	21.51
580.766	21.29
580.961	21.72
581.155	21.69
581.35	21.74
581.544	21.54
581.738	21.5
581.933	21.42
582.127	21.28
582.321	20.88
582.516	20.53
582.71	20.66
582.904	20.64
583.099	20.36
583.293	20.13
583.487	20.18
583.681	20.25
583.875	20.33
584.07	20.62
584.264	21.02
584.458	21.41
584.652	21.58
584.846	21.8
585.04	22.27
585.234	22.2
585.428	22.25
585.623	22.17
585.817	22.19
586.011	22.26
586.205	22.29
586.399	22.24
586.593	22.3
586.787	22.53
586.981	22.13
587.174	21.81
587.368	21.86
587.562	22.13
587.756	22.37
587.95	22.45
588.144	22.22
588.338	22.29
588.532	22.22
588.725	22.13
588.919	22.23
589.113	22.71
589.307	22.98
589.501	23.18
589.694	23.27
589.888	23.21
590.082	23.21
590.275	23.32
590.469	23.13
590.663	23.3
590.856	23.24
591.05	23.02
591.244	22.67
591.437	22.48
591.631	22.6
591.824	22.53
592.018	22.66
592.212	22.66
592.405	22.93
592.599	22.94
592.792	22.56
592.986	22.76
593.179	22.6
593.372	22.91
593.566	23.16
593.759	23.13
593.953	22.82
594.146	22.95
594.339	23.19
594.533	22.92
594.726	22.76
594.92	22.9
595.113	23.12
595.306	23.68
595.499	23.7
595.693	23.82
595.886	23.76
596.079	23.99
596.272	23.94
596.466	23.83
596.659	23.99
596.852	24.31
597.045	24.4
597.238	24.2
597.431	24.02
597.624	24.04
597.818	23.7
598.011	23.5
598.204	23.39
598.397	23.23
598.59	23.2
598.783	22.78
598.976	22.5
599.169	22.65
599.362	22.52
599.555	22.55
599.748	22.49
599.941	22.87
600.134	22.85
600.326	22.83
600.519	23.23
600.712	23.15
600.905	23.58
601.098	23.51
601.291	23.4
601.483	23.69
601.676	23.62
601.869	23.61
602.062	23.81
602.255	24.2
602.447	24.22
602.64	23.92
602.833	23.98
603.025	24.04
603.218	24.29
603.411	24.33
603.603	24.39
603.796	24.47
603.989	24.67
604.181	24.56
604.374	24.29
604.566	24.47
604.759	24.63
604.951	24.73
605.144	24.69
605.336	24.71
605.529	24.74
605.721	24.78
605.914	24.71
606.106	24.72
606.299	24.68
606.491	25.15
606.683	25.18
606.876	25.07
607.068	24.85
607.26	25.03
607.453	25.08
607.645	25.15
607.837	25
608.03	24.91
608.222	24.84
608.414	24.71
608.606	24.45
608.799	24.37
608.991	24.52
609.183	24.7
609.375	24.58
609.567	24.42
609.759	24.21
609.952	24.09
610.144	24.14
610.336	24.13
610.528	24.17
610.72	24.12
610.912	24.11
611.104	24.12
611.296	23.92
611.488	24.02
611.68	23.95
611.872	24.16
612.064	24.12
612.256	24.04
612.448	23.97
612.64	24.04
612.832	23.95
613.023	24.04
613.215	23.8
613.407	23.95
613.599	23.89
613.791	23.91
613.983	23.78
614.174	24.08
614.366	24.19
614.558	24.21
614.75	24.37
614.941	24.45
615.133	24.43
615.325	24.65
615.516	24.98
615.708	25
615.9	25.16
616.091	25.13
616.283	25.16
616.475	25.46
616.666	25.13
616.858	24.91
617.049	25.19
617.241	25.15
617.432	24.92
617.624	24.61
617.815	24.62
618.007	24.57
618.198	24.97
618.39	24.9
618.581	24.72
618.773	25.02
618.964	25.04
619.155	25.14
619.347	24.97
619.538	25.28
619.729	25.11
619.921	24.89
620.112	24.93
620.303	24.69
620.494	24.55
620.686	24.72
620.877	24.73
621.068	24.75
621.259	24.81
621.451	25.29
621.642	25.36
621.833	25.64
622.024	25.83
622.215	25.75
622.406	25.96
622.597	25.95
622.788	25.96
622.98	25.84
623.171	25.8
623.362	25.64
623.553	25.52
623.744	25.32
623.935	25.33
624.126	25.32
624.317	25.38
624.508	25.47
624.698	25.91
624.889	25.75
625.08	25.84
625.271	25.96
625.462	26.1
625.653	26.06
625.844	26.12
626.034	26.05
626.225	26.23
626.416	26.33
626.607	26.33
626.798	26.39
626.988	26.62
627.179	26.79
627.37	26.77
627.56	26.59
627.751	26.68
627.942	26.62
628.132	26.84
628.323	26.88
628.514	26.85
628.704	26.72
628.895	26.58
629.085	26.38
629.276	26.5
629.466	26.86
629.657	26.86
629.847	26.62
630.038	26.6
630.228	26.42
630.419	26.32
630.609	26.54
630.8	26.34
630.99	26.14
631.181	26.12
631.371	25.79
631.561	25.39
631.752	25.73
631.942	26.18
632.132	26.35
632.323	26.53
632.513	26.27
632.703	26.1
632.893	26.13
633.084	26.14
633.274	26.43
633.464	26.66
633.654	26.77
633.844	26.57
634.034	26.33
634.225	26.16
634.415	25.76
634.605	26.08
634.795	26.1
634.985	26.22
635.175	26.28
635.365	26.36
635.555	26.19
635.745	26.15
635.935	25.87
636.125	25.91
636.315	26.49
636.505	26.83
636.695	26.72
636.885	26.89
637.075	26.82
637.265	26.98
637.455	26.61
637.644	26.52
637.834	26.64
638.024	26.78
638.214	26.7
638.404	26.41
638.593	26.5
638.783	26.66
638.973	26.4
639.163	26.41
639.352	26.42
639.542	26.79
639.732	27.03
639.921	26.79
640.111	26.73
640.301	26.87
640.49	26.83
640.68	26.97
640.87	26.78
641.059	26.59
641.249	26.47
641.438	26.32
641.628	25.98
641.817	26.02
642.007	26.19
642.196	26.65
642.386	26.47
642.575	26.43
642.764	26.24
642.954	26.28
643.143	26.57
643.333	26.8
643.522	26.57
643.711	26.58
643.901	26.7
644.09	27.11
644.279	26.98
644.469	27.01
644.658	26.83
644.847	26.99
645.036	27.37
645.226	27.19
645.415	27.14
645.604	27.58
645.793	27.32
645.982	27
646.171	26.94
646.361	26.64
646.55	27.21
646.739	27.37
646.928	27.18
647.117	27.18
647.306	27.34
647.495	27.67
647.684	27.88
647.873	28.1
648.062	28.32
648.251	28.1
648.44	28.3
648.629	27.95
648.818	27.72
649.007	27.46
649.196	27.35
649.384	27.73
649.573	27.29
649.762	26.81
649.951	27.01
650.14	26.93
650.328	27.18
650.517	27.18
650.706	27.21
650.895	26.86
651.083	27.39
651.272	27.56
651.461	26.93
651.65	27.46
651.838	27.74
652.027	27.71
652.216	27.73
652.404	27.64
652.593	27.77
652.781	27.89
652.97	28.25
653.158	28.15
653.347	28.06
653.535	28.51
653.724	27.74
653.912	27.83
654.101	27.75
654.289	27.41
654.478	27.49
654.666	27.39
654.855	27.02
655.043	27.2
655.231	26.59
655.42	26.31
655.608	26.18
655.796	26.91
655.985	27.11
656.173	27.09
656.361	27.31
656.55	26.92
656.738	26.87
656.926	27.23
657.114	27.45
657.302	27.88
657.491	28.22
657.679	28.34
657.867	27.88
658.055	28.2
658.243	28.33
658.431	28.43
658.619	28.5
658.807	28.81
658.996	29.01
659.184	28.91
659.372	28.91
659.56	29.12
659.748	28.82
659.936	29.4
660.124	28.79
660.311	29.02
660.499	29.31
660.687	29.73
660.875	29.69
661.063	29.24
661.251	29.15
661.439	29.22
661.627	28.86
661.814	29.27
662.002	28.7
662.19	28.56
662.378	28.35
662.565	28.28
662.753	27.99
662.941	28.15
663.129	28.51
663.316	28.46
663.504	28.14
663.692	27.75
663.879	27.39
664.067	27.37
664.254	27.69
664.442	26.97
664.63	26.94
664.817	27.09
665.005	26.51
665.192	26.62
665.38	26.94
665.567	27.16
665.755	27.45
665.942	27.77
666.13	28.14
666.317	28.41
666.504	28.62
666.692	28.13
666.879	27.4
667.067	27.88
667.254	27.58
667.441	27.48
667.629	27.67
667.816	27.64
668.003	27.64
668.19	27.88
668.378	27.79
668.565	28.34
668.752	28.86
668.939	29.43
669.127	29.48
669.314	29.44
669.501	29.19
669.688	28.7
669.875	28.8
670.062	28.76
670.249	28.65
670.436	28.72
670.623	28.74
670.81	28.69
670.997	28.33
671.184	27.92
671.371	27.71
671.558	28.32
671.745	28.94
671.932	28.7
672.119	28.37
672.306	28.14
672.493	27.79
672.68	27.74
672.867	28.13
673.054	28.54
673.24	28.86
673.427	29.45
673.614	29.15
673.801	28.84
673.988	29.31
674.174	29.49
674.361	30.01
674.548	30.17
674.734	30.02
674.921	29.28
675.108	29.13
675.294	29.02
675.481	28.93
675.668	28.99
675.854	29.49
676.041	28.46
676.227	28.95
676.414	28.65
676.601	29
676.787	29
676.974	29.21
677.16	29.26
677.347	29.24
677.533	28.98
677.719	29.07
677.906	28.67
678.092	29.73
678.279	29.4
678.465	28.7
678.651	28.42
678.838	28.27
679.024	28.42
679.21	28.5
679.397	28.18
679.583	28.46
679.769	28.61
679.955	28.8
680.142	28.53
680.328	28.72
680.514	29.59
680.7	29.48
680.886	29.82
681.073	29.57
681.259	29.14
681.445	29.24
681.631	29.06
681.817	28.86
682.003	28.92
682.189	28.61
682.375	28.67
682.561	28.13
682.747	28.17
682.933	28.19
683.119	28.13
683.305	28.39
683.491	29.15
683.677	29.14
683.863	29.3
684.049	29.61
684.235	30.67
684.42	30.59
684.606	30.48
684.792	30.79
684.978	30.91
685.164	31.08
685.349	31.44
685.535	30.82
685.721	31.02
685.907	30.56
686.092	30.52
686.278	30.21
686.464	29.76
686.649	30.02
686.835	30.43
687.021	30.19
687.206	29.93
687.392	29.54
687.577	29.47
687.763	29.29
687.948	29.7
688.134	29.21
688.319	29.31
688.505	29.82
688.69	30.03
688.876	29.44
689.061	29.44
689.247	29.4
689.432	30.1
689.618	30.34
689.803	30.65
689.988	30.81
690.174	30.83
690.359	30.61
690.544	30.62
690.73	30.28
690.915	30.2
691.1	30.03
691.285	30.69
691.471	29.96
691.656	30.29
691.841	30.36
692.026	29.92
692.211	30.36
692.396	30.63
692.582	30.21
692.767	30.39
692.952	30.11
693.137	30.22
693.322	30.13
693.507	30.78
693.692	30.09
693.877	30.12
694.062	29.91
694.247	29.85
694.432	29.33
694.617	29.61
694.802	30.3
694.987	30.69
695.172	30.64
695.357	31.14
695.541	31.43
695.726	32.23
695.911	32.22
696.096	32.97
696.281	33.35
696.466	33.72
696.65	33.47
696.835	32.35
697.02	32.48
697.204	32.14
697.389	31.55
697.574	30.84
697.759	30.63
697.943	30.33
698.128	30.42
698.312	29.88
698.497	30.06
698.682	30.29
698.866	30.7
699.051	30.35
699.235	30.44
699.42	30.72
699.604	30.83
699.789	30.4
699.973	30.51
700.158	29.94
700.342	30.1
700.527	29.64
700.711	29.39
700.895	28.94
701.08	29.16
701.264	29.11
701.448	28.61
701.633	28.21
701.817	28.71
702.001	28.54
702.186	28.49
702.37	28.28
702.554	28.18
702.738	28.08
702.923	28.48
703.107	28.47
703.291	28.97
703.475	29.16
703.659	29.4
703.843	29.83
704.027	30.98
704.212	31.99
704.396	31.68
704.58	31.72
704.764	31.63
704.948	31.61
705.132	31.85
705.316	31.52
705.5	32.26
705.684	32.51
705.868	32.12
706.052	31.07
706.235	30.17
706.419	30.7
706.603	30.94
706.787	30.56
706.971	30.9
707.155	30.7
707.339	31.3
707.522	30.03
707.706	30.2
707.89	30.35
708.074	30.49
708.257	30.86
708.441	30.71
708.625	30.44
708.808	31.11
708.992	29.59
709.176	29.02
709.359	29.45
709.543	29.47
709.727	29.64
709.91	29.87
710.094	30.07
710.277	30
710.461	30.03
710.644	30
710.828	30.22
711.011	31.51
711.195	32.42
711.378	31.37
711.562	32.28
711.745	32.12
711.928	31.58
712.112	31.54
712.295	32.02
712.478	31.99
712.662	32.28
712.845	32.26
713.028	31.14
713.212	30.57
713.395	31.04
713.578	30.53
713.761	30.35
713.945	29.69
714.128	29.46
714.311	28.78
714.494	29.12
714.677	29.23
714.86	29.31
715.043	30.35
715.227	31.01
715.41	30.36
715.593	30.69
715.776	31.05
715.959	31.76
716.142	31.63
716.325	31.54
716.508	31.04
716.691	31.22
716.874	30.86
717.057	31.23
717.239	30.66
717.422	31
717.605	31
717.788	30.55
717.971	30.44
718.154	30.49
718.337	30.92
718.519	31.89
718.702	31.73
718.885	30.65
719.068	29.87
719.25	30.46
719.433	31.18
719.616	31.16
719.798	31.65
719.981	32.13
720.164	31.85
720.346	31.66
720.529	30.5
720.712	30.72
720.894	31.61
721.077	32.59
721.259	31.84
721.442	31.48
721.624	32.55
721.807	32.55
721.989	32.05
722.172	32.85
722.354	33.79
722.537	34.89
722.719	34.74
722.901	34.97
723.084	34.32
723.266	34.81
723.448	34.65
723.631	32.52
723.813	31.54
723.995	31.09
724.178	31.21
724.36	31.21
724.542	31.84
724.724	32.37
724.907	32.28
725.089	31.79
725.271	30.78
725.453	29.94
725.635	30.52
725.817	30.83
725.999	31.18
726.181	32.09
726.364	31.42
726.546	29.26
726.728	28.43
726.91	28.94
727.092	29.52
727.274	29.78
727.456	29.95
727.638	30.29
727.819	29.5
728.001	31.3
728.183	29.25
728.365	28.66
728.547	29.6
728.729	30.3
728.911	29.96
729.093	30.87
729.274	30.93
729.456	31.43
729.638	32.04
729.82	33.39
730.001	32.21
730.183	33.69
730.365	34.03
730.546	33.5
730.728	32.27
730.91	32.4
731.091	32.45
731.273	32.67
731.455	32.72
731.636	32.33
731.818	31.37
731.999	30.48
732.181	30.03
732.362	30.52
732.544	30.58
732.725	31.84
732.907	31.46
733.088	30.57
733.27	30.63
733.451	30.41
733.633	30.44
733.814	30.92
733.995	31.63
734.177	31.03
734.358	29.86
734.539	29.74
734.721	29.34
734.902	28.73
735.083	28.53
735.264	28.18
735.446	29.75
735.627	29.31
735.808	29.36
735.989	29.08
736.17	30.16
736.351	31.47
736.533	32.27
736.714	30.22
736.895	31.2
737.076	31.22
737.257	32.45
737.438	30.82
737.619	31.15
737.8	30.87
737.981	30.37
738.162	30.75
738.343	30.39
738.524	29.27
738.705	30.79
738.886	30.93
739.067	30.27
739.247	30.01
739.428	29.78
739.609	29.42
739.79	29.84
739.971	30.76
740.151	29.06
740.332	29.35
740.513	30.76
740.694	31.03
740.874	31.32
741.055	31.84
741.236	31.53
741.417	32.49
741.597	32.8
741.778	33.24
741.958	32.4
742.139	33.18
742.32	34.1
742.5	34.33
742.681	33.78
742.861	33.6
743.042	33.77
743.222	34.09
743.403	34.58
743.583	33.91
743.764	32.47
743.944	34.06
744.124	32.24
744.305	30.7
744.485	31.12
744.666	32.26
744.846	32.48
745.026	33.28
745.207	31.91
745.387	30.91
745.567	30.92
745.747	31.2
745.928	30.14
746.108	32.11
746.288	33.98
746.468	34.92
746.648	34.01
746.829	33.35
747.009	32.88
747.189	33.94
747.369	35.24
747.549	36.01
747.729	36.31
747.909	35.73
748.089	34.57
748.269	32.57
748.449	30.42
748.629	30.14
748.809	30.09
748.989	29.12
749.169	28.76
749.349	28.12
749.529	28.04
749.709	27.12
749.889	28.15
750.068	28.95
750.248	30.5
750.428	30.11
750.608	31.68
750.788	34.3
750.967	34.96
751.147	33.77
751.327	32.82
751.507	32.7
751.686	33.53
751.866	33.48
752.046	35.03
752.225	33.32
752.405	34.55
752.585	34.35
752.764	33.49
752.944	33.81
753.123	35.36
753.303	36.55
753.482	36.93
753.662	37.26
753.841	36.43
754.021	33.98
754.2	35.55
754.38	35.05
754.559	33.9
754.739	33.15
754.918	33.85
755.097	33.01
755.277	31.83
755.456	31.05
755.635	31.44
755.815	32.21
755.994	33.58
756.173	33.66
756.352	34.23
756.532	33.55
756.711	34.22
756.89	33.68
757.069	36.27
757.248	37.36
757.427	36.94
757.607	36.99
757.786	36.55
757.965	36.26
758.144	36.33
758.323	34.83
758.502	35.4
758.681	35.23
758.86	35.89
759.039	33.59
759.218	34.86
759.397	34.96
759.576	34.33
759.755	35.31
759.934	36
760.113	34.9
760.291	35.48
760.47	35.73
760.649	36.14
760.828	35.38
761.007	36.23
761.186	35.14
761.364	34.81
761.543	34.93
761.722	33.62
761.901	32.58
762.079	33.09
762.258	32.67
762.437	33.3
762.615	32.67
762.794	33.45
762.972	32.45
763.151	31.95
763.33	31.8
763.508	32.37
763.687	32.49
763.865	33.09
764.044	33.14
764.222	34.26
764.401	34.32
764.579	33.81
764.758	33.03
764.936	33.68
765.114	32.92
765.293	32.65
765.471	32.17
765.65	31.9
765.828	31.66
766.006	30.69
766.184	29.55
766.363	29.17
766.541	28.5
766.719	30.18
766.898	30.39
767.076	31.38
767.254	32.52
767.432	32.75
767.61	33.66
767.788	34.22
767.967	34.63
768.145	35.72
768.323	35.08
768.501	35
768.679	33.22
768.857	32.59
769.035	33.82
769.213	33.77
769.391	33.93
769.569	32.96
769.747	31.21
769.925	32.05
770.103	31.5
770.281	32.65
770.459	35.5
770.636	35.28
770.814	36.14
770.992	37.36
771.17	37.15
771.348	37.25
771.525	38.42
771.703	38.33
771.881	37.33
772.059	37.24
772.236	38.01
772.414	34.7
772.592	34.82
772.769	33.79
772.947	30.28
773.125	30.56
773.302	31.68
773.48	30.45
773.657	30.83
773.835	32.49
774.013	30.25
774.19	27.77
774.368	31.64
774.545	32.16
774.723	31.37
774.9	33.71
775.077	31.63
775.255	29.42
775.432	31.05
775.61	33.92
775.787	33.88
775.964	36.64
776.142	39.67
776.319	36.99
776.496	35.4
776.674	35.92
776.851	35.98
777.028	38.95
777.205	38
777.382	39.49
777.56	38.14
777.737	35.03
777.914	36.03
778.091	32.78
778.268	33.02
778.445	33.47
778.622	36.54
778.8	34.95
778.977	35.02
779.154	39.06
779.331	36.73
779.508	36.54
779.685	41.07
779.862	39.02
780.038	41.21
780.215	38.96
780.392	40.16
780.569	36.65
780.746	36.01
780.923	34.37
781.1	30.86
781.277	30.42
781.453	29.49
781.63	27.15
781.807	26.84
781.984	29.57
782.16	31.54
782.337	29.42
782.514	26.58
782.691	29.82
782.867	32.04
783.044	31.9
783.221	33.05
783.397	34.04
783.574	34.37
783.75	35.05
783.927	31.02
784.103	33.16
784.28	30.75
784.456	35.02
784.633	34.81
784.809	35.51
784.986	35.44
785.162	34.92
785.339	36.14
785.515	38.22
785.692	36.89
785.868	35.23
786.044	34.19
786.221	37.42
786.397	35.94
786.573	33.3
786.749	29.28
786.926	26.82
787.102	24.5
787.278	24.48
787.454	24.15
787.631	23.5
787.807	23.05
787.983	21.02
788.159	24.01
788.335	25.1
788.511	27
788.687	29.29
788.863	32.22
789.039	33.49
789.216	31.81
789.392	30.11
789.568	32.37
789.744	34.17
789.919	36.95
790.095	34.55
790.271	34.71
790.447	34.87
790.623	35.28
790.799	35.65
790.975	35.31
791.151	35.48
791.327	34.86
791.502	34.9
791.678	35.94
791.854	34.32
792.03	34.61
792.205	34.23
792.381	34.16
792.557	30.78
792.733	27.93
792.908	31.46
793.084	31.5
793.259	31.39
793.435	34.07
793.611	34.85
793.786	35.03
793.962	35.95
794.137	35.68
794.313	35.24
794.488	35.4
794.664	36.56
794.839	35.85
795.015	36.66
795.19	37.95
795.366	33.34
795.541	32.39
795.716	29.56
795.892	28.7
796.067	29.38
796.242	28
796.418	27.39
796.593	29.31
796.768	28.66
796.944	30.19
797.119	30.02
797.294	29.89
797.469	26.06
797.644	25.72
797.82	23.49
797.995	21.93
798.17	22.46
798.345	21.78
798.52	20.55
798.695	20.34
798.87	15.96
799.045	14
799.22	15.87
799.395	18.86
799.57	20.29
799.745	21.03
799.92	23.88
800.095	24.05
800.27	26.3
800.445	25.39
800.62	24.04
800.795	24.52
800.97	23.45
801.145	22.75
801.319	25.81
801.494	27.23
801.669	29.56
801.844	25.11
802.018	28.39
802.193	32.49
802.368	31.82
802.543	30.11
802.717	30.78
802.892	34.33
803.067	36.86
803.241	35.75
803.416	37
803.59	32.33
803.765	35.14
803.94	31.68
804.114	28.66
804.289	30.19
804.463	32.82
804.638	34.05
804.812	27.7
804.986	22.6
805.161	20.56
805.335	15.89
805.51	21.89
805.684	21.86
805.858	23.37
806.033	21.82
806.207	26.35
806.381	23.53
806.556	22.07
806.73	27.22
806.904	29.28
807.078	32.18
807.253	34.42
807.427	32.56
807.601	32.68
807.775	35.98
807.949	36.47
808.123	31.38
808.298	30.75
808.472	33.97
808.646	31.17
808.82	31.96
808.994	28.71
809.168	27.69
809.342	28.95
809.516	27.78
809.69	25.56
809.864	27.29
810.038	30
810.212	27.55
810.385	25.95
810.559	29.77
810.733	27.61
810.907	29.51
811.081	30.03
811.255	28.21
811.428	28.19
811.602	23.44
811.776	23.04
811.95	22.82
812.123	29.54
812.297	29.69
812.471	28.3
812.644	30.51
812.818	29.86
812.992	28.78
813.165	25.96
813.339	26.13
813.512	29.39
813.686	26.5
813.86	25.59
814.033	23.04
814.207	25.41
814.38	31.59
814.554	32.25
814.727	28.19
814.9	25.96
815.074	27.53
815.247	28.35
815.421	24.35
815.594	26.89
815.767	28.36
815.941	26.07
816.114	22.01
816.287	19.64
816.46	16.92
816.634	23.75
816.807	26.16
816.98	28.22
817.153	29.45
817.327	30.79
817.5	28.89
817.673	26.91
817.846	32.53
818.019	34.41
818.192	27.52
818.365	27.29
818.538	23.64
818.711	27.17
818.884	27.53
819.057	22.01
819.23	21.15
819.403	25.12
819.576	25.42
819.749	23.87
819.922	23.49
820.095	29.46
820.268	31.15
820.441	31.78
820.614	28.14
820.786	31.26
820.959	30.97
821.132	32.4
821.305	32.45
821.477	34.24
821.65	33.79
821.823	33.41
821.996	32.69
822.168	32.76
822.341	32.57
822.514	33.4
822.686	32.69
822.859	34.13
823.031	34.4
823.204	32.56
823.376	31.89
823.549	31.99
823.722	32.33
823.894	31.93
824.067	31.65
824.239	31.37
824.411	31.54
824.584	31.75
824.756	31.97
824.929	30.24
825.101	31.64
825.273	31.46
825.446	30.33
825.618	29.47
825.79	29.98
825.963	29.89
826.135	30.37
826.307	30.32
826.479	29.27
826.652	29.4
826.824	30.37
826.996	30.3
827.168	29.92
827.34	31.17
827.512	32.08
827.684	31.08
827.856	31.46
828.029	31.4
828.201	29.67
828.373	31.13
828.545	29.76
828.717	31.4
828.889	30.26
829.061	32.12
829.232	30.24
829.404	30.53
829.576	30
829.748	28.64
829.92	26.17
830.092	28.92
830.264	25.59
830.436	26.09
830.607	26.95
830.779	30.59
830.951	25.95
831.123	29.59
831.294	29.71
831.466	33.77
831.638	33.54
831.809	38.73
831.981	36.03
832.153	39.31
832.324	36
832.496	31.96
832.667	27.88
832.839	28.83
833.011	28.84
833.182	26.37
833.354	22.47
833.525	26.37
833.697	25.52
833.868	28.82
834.039	25.93
834.211	26.02
834.382	30.03
834.554	31.34
834.725	32.41
834.896	34.47
835.068	34.31
835.239	33.95
835.41	31.17
835.581	29.76
835.753	26.07
835.924	29.1
836.095	30.48
836.266	23.47
836.438	21.98
836.609	18.48
836.78	13.74
836.951	10.76
837.122	10.66
837.293	11.68
837.464	14.43
837.635	14.6
837.806	9.86
837.977	10.07
838.148	14.68
838.319	14.82
838.49	22.21
838.661	19.68
838.832	31.42
839.003	38.53
839.174	41.21
839.345	32
839.516	38.17
839.687	38.21
839.857	33.09
840.028	34.32
840.199	33.38
840.37	30.34
840.54	35.91
840.711	29.51
840.882	23
841.053	22.69
841.223	21.2
841.394	17.31
841.564	18.42
841.735	23.44
841.906	29.68
842.076	33.88
842.247	31.96
842.417	21.76
842.588	19.46
842.758	26.86
842.929	19.63
843.099	30.77
843.27	35.05
843.44	35.83
843.611	34.26
843.781	17.48
843.951	9.11
844.122	5.82
844.292	10.49
844.462	16.36
844.633	14.35
844.803	17.22
844.973	14.57
845.144	9.44
845.314	4.4
845.484	5.52
845.654	15.86
845.824	13.73
845.995	18.04
846.165	15.59
846.335	16.45
846.505	16
846.675	13.39
846.845	16.8
847.015	15.64
847.185	16.69
847.355	9.52
847.525	8.53
847.695	24.67
847.865	30.96
848.035	41.22
848.205	45.96
848.375	44.25
848.545	46.19
848.715	63.83
848.884	61.54
849.054	57.13
849.224	65.97
849.394	51.77
849.564	46.86
849.733	38.64
849.903	29.86
850.073	19.73
850.243	24.92
850.412	33.49
850.582	14.28
850.752	21.52
850.921	27.66
851.091	27.63
851.26	36.61
851.43	45.5
851.599	49.7
851.769	62.53
851.939	70.95
852.108	58.95
852.278	43.92
852.447	43.94
852.616	48.8
852.786	45.76
852.955	45.67
853.125	34.47
853.294	25.04
853.463	34.88
853.633	23.37
853.802	13.55
853.971	21.28
854.141	36.19
854.31	35.16
854.479	30.18
854.648	38.13
854.818	31.55
854.987	39.83
855.156	45.48
855.325	30.13
855.494	26.84
855.663	30.4
855.832	28.8
856.001	21.68
856.171	31.9
856.34	28.35
856.509	-3.62
856.678	-23.35
856.847	-38.33
857.016	-48.4
857.185	-28.08
857.353	-9.79
857.522	9.23
857.691	27.47
857.86	18.67
858.029	14.07
858.198	-4.21
858.367	11.19
858.535	18.79
858.704	18.01
858.873	22.82
859.042	9.05
859.21	10.1
859.379	-6.91
859.548	-49.53
859.717	-37.1
859.885	-15
860.054	-9.85
860.222	-0.75
860.391	-2.24
860.56	-5.76
860.728	-8.44
860.897	6.85
861.065	5.37
861.234	12.55
861.402	24.33
861.571	33.8
861.739	37.91
861.908	39.9
862.076	26.79
862.244	39.89
862.413	35.43
862.581	45.32
862.749	47.78
862.918	40.53
863.086	40.11
863.254	25.89
863.423	30.32
863.591	3.52
863.759	42.8
863.927	51.36
864.096	42.1
864.264	45
864.432	26.89
864.6	22.51
864.768	27.65
864.936	25.44
865.104	33.98
865.272	33.73
865.44	34.44
865.608	26.62
865.776	17.1
865.944	11.17
866.112	9.48
866.28	17.12
866.448	16.52
866.616	11.16
866.784	8.99
866.952	-6.41
867.12	-7.67
867.288	-11.07
867.455	-36.61
867.623	-41.62
867.791	-32.38
867.959	-22.07
868.127	-14.29
868.294	-13.03
868.462	1.66
868.63	-5.67
868.797	5.82
868.965	2.39
869.133	0.73
869.3	20.47
869.468	27.87
869.636	13.13
869.803	13.78
869.971	4.58
870.138	16.85
870.306	4.87
870.473	12.38
870.641	12.86
870.808	14.36
870.975	23.8
871.143	35.87
871.31	35.91
871.478	46.27
871.645	42.53
871.812	39.46
871.98	31.43
872.147	46.03
872.314	39.86
872.482	38.79
872.649	43.42
872.816	42
872.983	24.03
873.15	28.65
873.318	17.6
873.485	20.62
873.652	27.51
873.819	14.69
873.986	25.49
874.153	17.28
874.32	20.11
874.487	7.03
874.654	16.02
874.821	15.63
874.988	21.15
875.155	30.57
875.322	33.24
875.489	39.31
875.656	40.75
875.823	44.9
875.99	42.99
876.157	40.17
876.324	32.36
876.49	24.22
876.657	32.47
876.824	26.36
876.991	22.5
877.157	13.56
877.324	16.86
877.491	25.4
877.658	10.27
877.824	14.8
877.991	18.87
878.157	26.92
878.324	31.14
878.491	32.36
878.657	18.38
878.824	6.22
878.99	-5.3
879.157	-12.87
879.323	-25.22
879.49	-10.16
879.656	-5.44
879.823	-4.07
879.989	-3.09
880.156	11.46
880.322	6.99
880.488	14.54
880.655	19.71
880.821	33.72
880.987	46.41
881.154	44.92
881.32	51.9
881.486	44.89
881.652	51.75
881.819	48.61
881.985	40.61
882.151	43.6
882.317	41.13
882.483	38.81
882.649	37.34
882.816	30.43
882.982	32.76
883.148	30.28
883.314	30.35
883.48	27.81
883.646	28.4
883.812	27.79
883.978	29.38
884.144	31.27
884.31	34.22
884.476	35.71
884.642	37.68
884.807	36.25
884.973	34.59
885.139	38.3
885.305	42.39
885.471	41.13
885.637	42.66
885.802	36.06
885.968	33.04
886.134	32.06
886.3	26.64
886.465	29.79
886.631	30.86
886.797	29.31
886.962	26.34
887.128	22.64
887.293	30.73
887.459	30.41
887.625	35.72
887.79	32.96
887.956	29.62
888.121	32.89
888.287	29.44
888.452	27.39
888.618	30.47
888.783	26.44
