Data from 2937822_Reflection_1.txt Node
Date: Wed Jul 15 17:16:14 EDT 2015
User: robert
Spectrometer: USB4E03001
Autoset integration time: false
Trigger mode: 4
Integration Time (sec): 1.000000E-1
Scans to average: 10
Electric dark correction enabled: true
Nonlinearity correction enabled: false
Boxcar width: 5
Stray light correction enabled: false
XAxis mode: Wavelengths
Stop averaging: false
Number of Pixels in Spectrum: 3648
>>>>>Begin Spectral Data<<<<<
177.566	-77.06
177.785	-13.99
178.005	-80.3
178.225	2552.5
178.445	-99.29
178.665	-54.92
178.885	21.09
179.105	13.09
179.324	-179.53
179.544	-372.26
179.764	22.21
179.984	-141.77
180.204	-26.86
180.423	-124.28
180.643	-777.89
180.863	-134.2
181.083	-126.08
181.302	-311.62
181.522	-515.38
181.742	-88.45
181.961	-341.07
182.181	-720.3
182.401	6611.9
182.621	372.36
182.84	-252.66
183.06	-86.6
183.279	-44.31
183.499	-13.75
183.719	22.15
183.938	19.3
184.158	-30.67
184.377	11.93
184.597	42.55
184.816	45.63
185.036	48.41
185.256	15.55
185.475	14.66
185.695	-43.59
185.914	-67.67
186.134	-34.87
186.353	-11.77
186.572	2.04
186.792	29.53
187.011	-45.67
187.231	-21.16
187.45	-47.61
187.67	-33.35
187.889	-47.11
188.108	-170.28
188.328	-232.69
188.547	-776.83
188.766	333.68
188.986	386.64
189.205	425.81
189.424	-29.89
189.644	-113.56
189.863	-115.26
190.082	-57.65
190.302	-61.46
190.521	20.87
190.74	8.83
190.959	4.46
191.178	0.47
191.398	-4.2
191.617	-32.62
191.836	-50.08
192.055	-26.38
192.274	-23.22
192.494	-14.59
192.713	-11.22
192.932	-60.2
193.151	-8.52
193.37	-16.18
193.589	-1
193.808	-15.61
194.027	12.22
194.246	8.08
194.465	4.67
194.685	2.16
194.904	-25.35
195.123	-16.47
195.342	-48.52
195.561	-80.3
195.78	-63.99
195.999	-70.51
196.218	-69.32
196.436	-197.91
196.655	-164.26
196.874	-290.71
197.093	-226.54
197.312	-181.18
197.531	-459.68
197.75	-186.38
197.969	-226.64
198.188	-7727.06
198.407	324.84
198.625	330.86
198.844	358.06
199.063	283.4
199.282	346.85
199.501	236.05
199.719	215.25
199.938	130.23
200.157	184.91
200.376	230.16
200.594	239.7
200.813	1244.83
201.032	-618.78
201.251	-24390
201.469	-1477.28
201.688	-212.04
201.907	-166.85
202.125	-170.01
202.344	-54.08
202.563	-601.71
202.781	-224.4
203	-241.28
203.218	-45.71
203.437	-8.84
203.656	-45.78
203.874	-71.47
204.093	-61.35
204.311	-41.19
204.53	-16.49
204.748	-46.29
204.967	0.81
205.185	0.55
205.404	17.91
205.622	-5.36
205.841	-53.12
206.059	-31.56
206.278	-8.44
206.496	-18.04
206.715	-33.1
206.933	-112.67
207.151	-27.05
207.37	-25.24
207.588	36.1
207.806	36.88
208.025	18.28
208.243	39.96
208.461	191.3
208.68	57.8
208.898	101.52
209.116	38.26
209.335	-16.93
209.553	26.88
209.771	77.07
209.989	164.63
210.208	174.03
210.426	179.53
210.644	756.52
210.862	868.65
211.081	647.34
211.299	-63185.71
211.517	-129
211.735	-106.55
211.953	-54.41
212.171	-87.34
212.39	-233.07
212.608	-154.01
212.826	-150.64
213.044	-71.2
213.262	-77.61
213.48	-43.48
213.698	-39.66
213.916	-46.77
214.134	-57.08
214.352	-70.29
214.57	-53.2
214.788	-26.26
215.006	-18.36
215.224	-8.67
215.442	-17.76
215.66	-4.9
215.878	15.86
216.096	16
216.314	17.28
216.532	6.47
216.75	10.12
216.968	22.79
217.185	30.69
217.403	0.39
217.621	-68.43
217.839	-81.96
218.057	-250.54
218.275	-498.44
218.492	-180.98
218.71	-1888.25
218.928	416.46
219.146	204.49
219.363	148.59
219.581	164
219.799	216.82
220.017	154.49
220.234	82.47
220.452	239.13
220.67	484.43
220.887	292.59
221.105	298.17
221.323	350.35
221.54	352.26
221.758	257.75
221.976	217.21
222.193	331.06
222.411	399.51
222.629	200.48
222.846	108.05
223.064	127.82
223.281	104.56
223.499	119.37
223.716	161.39
223.934	165.55
224.151	145.21
224.369	136.72
224.586	76.1
224.804	81.95
225.021	108.41
225.239	140.74
225.456	78.19
225.674	107.08
225.891	81.49
226.108	69.3
226.326	56.16
226.543	39.03
226.76	43.57
226.978	44.15
227.195	38.62
227.413	30.44
227.63	29.46
227.847	35.03
228.064	23.99
228.282	15.55
228.499	14.75
228.716	11.8
228.934	15.76
229.151	16.25
229.368	16.67
229.585	15.41
229.802	17.73
230.02	18.04
230.237	16.64
230.454	20.16
230.671	24.94
230.888	26.37
231.105	25.87
231.323	23.61
231.54	18.14
231.757	16.34
231.974	21.35
232.191	17.93
232.408	21.46
232.625	17.61
232.842	14.07
233.059	0.85
233.276	3.18
233.493	18.11
233.71	16.19
233.927	33.75
234.144	42.1
234.361	43.94
234.578	49.16
234.795	47.1
235.012	48.22
235.229	54.06
235.446	60.32
235.663	52.47
235.879	44.76
236.096	50.65
236.313	46.41
236.53	43.58
236.747	35.97
236.964	36.98
237.181	36.18
237.397	32.61
237.614	26.98
237.831	31.75
238.048	35.72
238.264	38.11
238.481	38.15
238.698	33.46
238.915	34.4
239.131	37.32
239.348	32.19
239.565	34.26
239.781	32.39
239.998	31.1
240.215	24.97
240.431	25.69
240.648	25.12
240.865	22.85
241.081	22.77
241.298	21.17
241.514	19.74
241.731	18.08
241.947	16.33
242.164	17.29
242.38	19.48
242.597	19.48
242.814	18.07
243.03	16.04
243.246	16.34
243.463	16.05
243.679	17.63
243.896	17.38
244.112	19.18
244.329	18.8
244.545	19.4
244.762	17.47
244.978	19.76
245.194	17.58
245.411	18.48
245.627	20.21
245.843	21.35
246.06	17.99
246.276	18.39
246.492	17.83
246.709	17.55
246.925	16.36
247.141	15.66
247.357	14.77
247.574	15.13
247.79	15.3
248.006	14.3
248.222	13.35
248.439	14.3
248.655	13.02
248.871	11.67
249.087	11.45
249.303	13.16
249.519	12.77
249.736	12.04
249.952	13.05
250.168	14.69
250.384	14.67
250.6	14.93
250.816	13.57
251.032	18.21
251.248	19.04
251.464	20.01
251.68	18.99
251.896	18.29
252.112	19.03
252.328	18.61
252.544	16.42
252.76	16.72
252.976	15.99
253.192	18.35
253.408	16.14
253.624	16.17
253.84	17.36
254.056	18.13
254.272	19.11
254.487	20.16
254.703	17.56
254.919	17.14
255.135	16.9
255.351	20.53
255.567	13.76
255.782	15.34
255.998	16.87
256.214	11.94
256.43	10.36
256.646	11.76
256.861	7.71
257.077	12.39
257.293	9.97
257.508	9.87
257.724	7.69
257.94	9.34
258.155	7.13
258.371	5.67
258.587	7.49
258.802	8.24
259.018	8.49
259.234	9.75
259.449	8.81
259.665	10.75
259.88	11.15
260.096	11.06
260.312	11.26
260.527	11.7
260.743	12.37
260.958	11.86
261.174	11.13
261.389	10.9
261.605	10.39
261.82	11.64
262.036	10.78
262.251	10.1
262.466	11.25
262.682	11.39
262.897	12.1
263.113	13
263.328	14.21
263.543	13.37
263.759	11.4
263.974	12.75
264.189	11.37
264.405	10.45
264.62	12.41
264.835	11.28
265.051	9.89
265.266	11.35
265.481	9.92
265.696	8.58
265.912	10.34
266.127	11.85
266.342	10.93
266.557	12.19
266.773	14.59
266.988	13.21
267.203	13.23
267.418	13.84
267.633	12.41
267.848	14.14
268.064	14.39
268.279	14.72
268.494	14.41
268.709	14.66
268.924	12.99
269.139	11.42
269.354	10.17
269.569	10.76
269.784	11.12
269.999	10.69
270.214	8.25
270.429	6.22
270.644	6.57
270.859	7.24
271.074	6.56
271.289	7.07
271.504	7.4
271.719	7.98
271.934	7.16
272.149	6.77
272.363	7.04
272.578	7.33
272.793	9.28
273.008	8.87
273.223	9.26
273.438	10.13
273.653	9.22
273.867	9.36
274.082	10.75
274.297	11.41
274.512	12.03
274.726	12.05
274.941	12.05
275.156	11.19
275.371	9.99
275.585	9.76
275.8	9.06
276.015	11.11
276.229	10.63
276.444	8.51
276.659	8.68
276.873	9.19
277.088	8.87
277.302	9.61
277.517	8.24
277.732	8.41
277.946	9.58
278.161	9.3
278.375	8.3
278.59	7.4
278.804	9.59
279.019	8.34
279.233	9.52
279.448	9.92
279.662	9.46
279.877	12.01
280.091	13.76
280.306	11.89
280.52	10.38
280.735	11.11
280.949	10.5
281.163	8.32
281.378	8.39
281.592	8.55
281.806	8.56
282.021	8.09
282.235	8.23
282.449	7.29
282.664	8.15
282.878	9.7
283.092	9.28
283.307	11.03
283.521	12.44
283.735	11.86
283.949	10.22
284.164	8.6
284.378	9.2
284.592	8.83
284.806	9.02
285.02	7.86
285.234	8.36
285.449	8.35
285.663	8.99
285.877	7.84
286.091	10.08
286.305	9.99
286.519	10.15
286.733	9.68
286.947	9.01
287.161	9.81
287.375	10.38
287.589	10.48
287.803	11.52
288.017	9.73
288.231	9.77
288.445	8.81
288.659	8.79
288.873	11.34
289.087	10.32
289.301	11.48
289.515	10.1
289.729	11.03
289.943	11.73
290.157	11.82
290.371	13.55
290.584	14.65
290.798	15.01
291.012	15.36
291.226	13.22
291.44	13.76
291.654	14.11
291.867	16.17
292.081	16.55
292.295	15.51
292.509	14.9
292.722	13.69
292.936	13.95
293.15	13.93
293.364	14.98
293.577	15.04
293.791	17.53
294.005	15
294.218	12.9
294.432	11.47
294.645	13.01
294.859	13.51
295.073	13.94
295.286	12.97
295.5	12.95
295.713	12.04
295.927	13.02
296.14	11.72
296.354	13.55
296.568	13.66
296.781	13.72
296.994	13.59
297.208	12.99
297.421	12.77
297.635	12.32
297.848	12.49
298.062	12.75
298.275	13.32
298.489	13.26
298.702	12.27
298.915	12.41
299.129	13.05
299.342	13.27
299.555	13.16
299.769	13.15
299.982	13.86
300.195	13.99
300.409	13.73
300.622	12.18
300.835	11.63
301.048	13.29
301.262	12.75
301.475	12.79
301.688	12.64
301.901	11.64
302.115	11.28
302.328	11.08
302.541	9.69
302.754	9.77
302.967	9.52
303.18	9.89
303.393	8.62
303.607	8.85
303.82	7.19
304.033	5.83
304.246	7.92
304.459	7.06
304.672	8.66
304.885	10.76
305.098	10.33
305.311	10.96
305.524	11.47
305.737	11.06
305.95	11.86
306.163	14.47
306.376	15.05
306.589	14.14
306.802	15.5
307.015	14.2
307.228	12.02
307.44	9.08
307.653	8.89
307.866	7.63
308.079	8.15
308.292	6.86
308.505	6.13
308.718	7.25
308.93	6
309.143	6.79
309.356	8.17
309.569	8.81
309.781	11.05
309.994	12.42
310.207	13.06
310.42	12.8
310.632	12.95
310.845	12.32
311.058	11.25
311.27	12.34
311.483	12.04
311.696	10.78
311.908	10.65
312.121	11.76
312.333	11.54
312.546	11.69
312.759	11.95
312.971	13.3
313.184	13.6
313.396	14.19
313.609	13.3
313.821	14.21
314.034	14.17
314.246	13.2
314.459	13.84
314.671	14
314.884	15.28
315.096	14.91
315.309	14.11
315.521	14.71
315.733	15.48
315.946	14.44
316.158	13.94
316.371	16
316.583	16.11
316.795	14.3
317.008	14.24
317.22	13.64
317.432	15.55
317.644	15.69
317.857	16.06
318.069	16.29
318.281	18.3
318.494	18.43
318.706	17
318.918	18.28
319.13	17.34
319.342	15.28
319.555	15.33
319.767	13.55
319.979	13.22
320.191	13.03
320.403	10.63
320.615	11.19
320.827	10.11
321.039	10.56
321.252	8.51
321.464	10.52
321.676	12.16
321.888	11.36
322.1	12.74
322.312	11.7
322.524	11.8
322.736	13.34
322.948	13.74
323.16	15.32
323.372	14.41
323.584	15.68
323.796	16.51
324.007	15.53
324.219	15.42
324.431	13.39
324.643	13.69
324.855	12.64
325.067	11.97
325.279	11.36
325.491	10.76
325.702	11.25
325.914	11.55
326.126	10.79
326.338	11.06
326.55	11.29
326.761	11.03
326.973	10.85
327.185	11.8
327.396	13.1
327.608	12.95
327.82	13.32
328.032	14.03
328.243	12.64
328.455	11.63
328.666	11.27
328.878	12.07
329.09	14.39
329.301	14.82
329.513	16.07
329.725	14.3
329.936	15.97
330.148	15.21
330.359	14.03
330.571	15.74
330.782	16.35
330.994	16.95
331.205	16.32
331.417	15.44
331.628	16.83
331.84	15.01
332.051	15.93
332.262	14.49
332.474	14.87
332.685	16.34
332.897	16.25
333.108	16.59
333.319	16.78
333.531	16.88
333.742	18.45
333.953	17.77
334.165	16.67
334.376	17.26
334.587	16.96
334.799	16.67
335.01	15.58
335.221	16.55
335.432	18
335.644	18.86
335.855	19.27
336.066	18.63
336.277	18.82
336.488	20.01
336.7	19.14
336.911	20.09
337.122	21.03
337.333	21.77
337.544	21.74
337.755	20.98
337.966	20.95
338.177	21.29
338.388	22.04
338.599	23.58
338.811	22.82
339.022	22.32
339.233	21.29
339.444	19.82
339.655	18.36
339.866	17.49
340.076	17.46
340.287	17.5
340.498	16.3
340.709	15.12
340.92	14.08
341.131	15.48
341.342	15.87
341.553	16.98
341.764	17.56
341.975	18.64
342.185	19.24
342.396	19.86
342.607	20.3
342.818	20.87
343.029	20.46
343.239	19.95
343.45	18.95
343.661	19.99
343.872	18.26
344.082	19.28
344.293	20.15
344.504	19.65
344.714	18.14
344.925	17.49
345.136	18.67
345.346	18.6
345.557	18.19
345.768	18.73
345.978	17.76
346.189	19.13
346.399	18.42
346.61	17.91
346.821	17.86
347.031	18.24
347.242	17.87
347.452	16.77
347.663	16.93
347.873	16.72
348.084	16.66
348.294	17.04
348.504	17.75
348.715	17.16
348.925	17.4
349.136	17.67
349.346	18.39
349.557	17.03
349.767	15.65
349.977	16.93
350.188	17.62
350.398	18.29
350.608	18.14
350.819	16.48
351.029	16.89
351.239	16.46
351.449	16.13
351.66	15.32
351.87	16.53
352.08	17.19
352.29	16.68
352.501	17.86
352.711	18.22
352.921	19.93
353.131	21.24
353.341	20
353.552	19.76
353.762	18.75
353.972	18.42
354.182	18.47
354.392	19.53
354.602	19.66
354.812	18.28
355.022	16.37
355.232	14.82
355.442	14.32
355.652	14.1
355.862	13.8
356.072	14.87
356.282	15.35
356.492	15.75
356.702	15.1
356.912	15.31
357.122	15.09
357.332	15.91
357.542	16.02
357.752	16.83
357.962	17.85
358.171	18.03
358.381	17.88
358.591	18.03
358.801	17.64
359.011	16.79
359.221	16.13
359.43	15.73
359.64	16
359.85	15.38
360.06	13.8
360.269	13.59
360.479	13.46
360.689	12.94
360.899	12.44
361.108	11.85
361.318	12.98
361.528	13.44
361.737	13.3
361.947	12.82
362.156	13.19
362.366	14.5
362.576	14.06
362.785	14.28
362.995	14.2
363.204	13.51
363.414	14.32
363.623	13.78
363.833	13.53
364.042	14.55
364.252	14.49
364.461	14.21
364.671	13.05
364.88	13.87
365.09	14.09
365.299	13.66
365.509	14.94
365.718	14.5
365.927	14.19
366.137	13.39
366.346	12.42
366.555	12.05
366.765	11.52
366.974	11.93
367.183	11.51
367.393	9.7
367.602	10.65
367.811	11
368.021	11.01
368.23	11.28
368.439	12.36
368.648	13.03
368.857	13.44
369.067	13.82
369.276	14.53
369.485	14.22
369.694	16.25
369.903	15.98
370.112	15.35
370.321	15.55
370.531	16.42
370.74	15.86
370.949	15.26
371.158	15.16
371.367	15.66
371.576	14.42
371.785	15.28
371.994	13.99
372.203	14.11
372.412	13.46
372.621	12.61
372.83	11.54
373.039	11.23
373.248	11.74
373.457	11.56
373.666	10.83
373.874	10.41
374.083	9.55
374.292	9.69
374.501	9.59
374.71	9.53
374.919	9.38
375.128	8.67
375.336	9.18
375.545	8.53
375.754	8.6
375.963	8.17
376.171	8.68
376.38	8.85
376.589	8.76
376.798	8.75
377.006	9.63
377.215	10.03
377.424	10.54
377.632	10.14
377.841	10.28
378.05	10.07
378.258	11.26
378.467	11.38
378.675	11
378.884	11.55
379.093	11.47
379.301	10.78
379.51	10.8
379.718	10.92
379.927	10.9
380.135	11.24
380.344	11.02
380.552	10.75
380.761	10.09
380.969	10.18
381.177	9.93
381.386	10
381.594	10.36
381.803	10.88
382.011	10.53
382.219	10.05
382.428	10.08
382.636	10.44
382.845	10.09
383.053	10.47
383.261	10.82
383.469	10.77
383.678	10.38
383.886	10.24
384.094	9.18
384.302	9.31
384.511	9.56
384.719	9.03
384.927	9.46
385.135	9.58
385.343	9.7
385.552	9.45
385.76	9.29
385.968	9.15
386.176	8.86
386.384	9.48
386.592	9.42
386.8	9.5
387.008	9.84
387.216	9.45
387.424	9.06
387.633	9
387.841	9.17
388.049	9.34
388.257	9.77
388.465	9.27
388.672	9.02
388.88	9.2
389.088	8.97
389.296	8.54
389.504	8.74
389.712	9.16
389.92	9.15
390.128	8.98
390.336	8.3
390.544	8.19
390.751	8.88
390.959	8.96
391.167	9.02
391.375	8.95
391.583	8.97
391.79	8.35
391.998	7.98
392.206	7.48
392.414	7.38
392.621	7.85
392.829	7.55
393.037	7.82
393.244	7.88
393.452	7.68
393.66	7.78
393.867	7.91
394.075	8.34
394.283	8.31
394.49	8.65
394.698	9.06
394.905	9
395.113	9.28
395.32	8.78
395.528	8.83
395.735	8.56
395.943	8.64
396.15	8.16
396.358	8.03
396.565	7.95
396.773	7.88
396.98	7.46
397.188	7.17
397.395	6.75
397.602	6.93
397.81	6.59
398.017	6.71
398.225	6.54
398.432	6.97
398.639	7.27
398.847	7.23
399.054	7.57
399.261	7.38
399.468	8.01
399.676	8.67
399.883	8.07
400.09	8.24
400.297	8.41
400.505	8.43
400.712	8.49
400.919	8.31
401.126	8.52
401.333	8.06
401.54	8.23
401.748	7.87
401.955	7.68
402.162	8.21
402.369	8.09
402.576	7.94
402.783	7.83
402.99	7.45
403.197	7.3
403.404	7.29
403.611	7.53
403.818	7.49
404.025	7.32
404.232	6.86
404.439	6.6
404.646	6.45
404.853	6.55
405.06	6.53
405.267	6.47
405.474	6.67
405.681	6.63
405.887	6.44
406.094	6.43
406.301	6.57
406.508	6.84
406.715	7.14
406.922	7.56
407.128	7.31
407.335	6.86
407.542	6.89
407.749	5.95
407.955	6
408.162	5.89
408.369	6.16
408.575	5.78
408.782	5.91
408.989	5.55
409.195	5.36
409.402	5.26
409.609	5.97
409.815	6.26
410.022	6.82
410.228	6.75
410.435	6.72
410.642	6.3
410.848	6.58
411.055	6.7
411.261	7.28
411.468	7.23
411.674	7.67
411.881	7.34
412.087	6.95
412.294	7.02
412.5	6.96
412.706	7.16
412.913	7.41
413.119	7.54
413.326	7.17
413.532	6.97
413.738	7.06
413.945	6.91
414.151	7.11
414.357	7.6
414.564	7.78
414.77	7.64
414.976	7.61
415.182	7.65
415.389	7.73
415.595	7.85
415.801	7.5
416.007	7.33
416.214	7.43
416.42	7.34
416.626	7.31
416.832	7.16
417.038	7.09
417.244	7.18
417.45	7.16
417.657	7.01
417.863	6.87
418.069	6.96
418.275	6.87
418.481	6.82
418.687	6.87
418.893	6.9
419.099	6.89
419.305	7.06
419.511	6.95
419.717	6.92
419.923	7
420.129	7.14
420.335	7.18
420.541	7.35
420.746	7.45
420.952	7.44
421.158	7.41
421.364	7.39
421.57	7.34
421.776	7.3
421.982	7.41
422.187	7.32
422.393	7.21
422.599	7.26
422.805	7.2
423.01	7.07
423.216	7.05
423.422	6.94
423.628	6.97
423.833	6.98
424.039	6.96
424.245	6.93
424.45	6.92
424.656	7.07
424.862	6.92
425.067	6.82
425.273	6.88
425.478	6.88
425.684	6.82
425.889	6.83
426.095	6.81
426.301	6.93
426.506	6.67
426.712	6.56
426.917	6.56
427.123	6.56
427.328	6.64
427.533	6.67
427.739	6.69
427.944	6.64
428.15	6.45
428.355	6.39
428.561	6.52
428.766	6.57
428.971	6.65
429.177	6.35
429.382	6.38
429.587	6.46
429.793	6.18
429.998	6.14
430.203	6.31
430.408	6.68
430.614	6.92
430.819	6.47
431.024	6.46
431.229	6.57
431.434	6.79
431.64	6.72
431.845	6.91
432.05	7.01
432.255	7.07
432.46	7.17
432.665	6.81
432.87	6.65
433.076	6.9
433.281	6.99
433.486	7.01
433.691	7.01
433.896	7.17
434.101	6.99
434.306	6.81
434.511	6.61
434.716	6.63
434.921	6.72
435.126	6.58
435.331	6.4
435.535	6.63
435.74	6.78
435.945	6.49
436.15	6.42
436.355	6.49
436.56	6.6
436.765	6.84
436.97	6.93
437.174	7.07
437.379	7.22
437.584	7.58
437.789	7.48
437.993	7.37
438.198	7.54
438.403	7.58
438.608	7.47
438.812	7.54
439.017	7.42
439.222	7.23
439.426	7.31
439.631	7.32
439.836	7.15
440.04	7.09
440.245	7.11
440.45	7.15
440.654	7.09
440.859	7.17
441.063	7.24
441.268	7.41
441.472	7.43
441.677	7.26
441.881	7.29
442.086	7.31
442.29	7.36
442.495	7.33
442.699	7.31
442.904	7.37
443.108	7.42
443.312	7.22
443.517	7.1
443.721	7.17
443.925	7.24
444.13	7.21
444.334	7.22
444.538	7.03
444.743	7.13
444.947	7.11
445.151	6.97
445.356	6.74
445.56	6.64
445.764	6.59
445.968	6.8
446.173	6.71
446.377	6.77
446.581	6.8
446.785	6.82
446.989	6.64
447.193	6.52
447.398	6.72
447.602	6.81
447.806	6.93
448.01	6.91
448.214	6.93
448.418	6.94
448.622	6.96
448.826	6.76
449.03	6.83
449.234	6.97
449.438	7.14
449.642	6.95
449.846	6.92
450.05	6.96
450.254	6.86
450.458	6.35
450.662	6.46
450.866	6.47
451.069	6.72
451.273	6.72
451.477	6.55
451.681	6.56
451.885	6.66
452.089	6.74
452.292	6.66
452.496	6.93
452.7	7.21
452.904	7.02
453.107	7.01
453.311	6.83
453.515	6.85
453.719	6.93
453.922	6.71
454.126	6.65
454.33	6.63
454.533	6.74
454.737	6.57
454.94	6.42
455.144	6.67
455.348	6.49
455.551	6.65
455.755	6.47
455.958	6.29
456.162	6.47
456.365	6.38
456.569	6.37
456.772	6.33
456.976	6.43
457.179	6.47
457.383	6.59
457.586	6.67
457.79	6.57
457.993	6.65
458.196	6.77
458.4	6.79
458.603	6.8
458.807	6.78
459.01	6.82
459.213	6.72
459.417	6.76
459.62	6.66
459.823	6.6
460.026	6.61
460.23	6.62
460.433	6.54
460.636	6.68
460.839	6.65
461.042	6.79
461.246	6.83
461.449	6.92
461.652	6.95
461.855	6.85
462.058	6.88
462.261	7.02
462.464	7.04
462.668	7.13
462.871	7.08
463.074	7.25
463.277	7.05
463.48	7
463.683	7.24
463.886	7.1
464.089	7.49
464.292	7.47
464.495	7.55
464.698	7.56
464.901	7.82
465.104	7.52
465.306	7.38
465.509	7.47
465.712	7.38
465.915	7.16
466.118	7.16
466.321	6.8
466.524	6.67
466.726	6.54
466.929	6.56
467.132	6.47
467.335	6.52
467.538	6.6
467.74	6.65
467.943	6.64
468.146	6.68
468.348	6.78
468.551	6.93
468.754	7.05
468.956	6.99
469.159	7.06
469.362	6.92
469.564	6.99
469.767	6.98
469.969	6.92
470.172	7.21
470.375	7.09
470.577	7.06
470.78	6.94
470.982	6.97
471.185	6.73
471.387	6.66
471.59	6.84
471.792	6.93
471.995	6.9
472.197	6.84
472.399	6.7
472.602	6.84
472.804	6.93
473.007	7.02
473.209	7.25
473.411	7.56
473.614	7.54
473.816	7.45
474.018	7.36
474.22	7.39
474.423	7.58
474.625	7.37
474.827	7.55
475.03	7.49
475.232	7.71
475.434	7.39
475.636	7.34
475.838	7.55
476.04	7.45
476.243	7.33
476.445	7.24
476.647	7.3
476.849	7.35
477.051	7.22
477.253	7.29
477.455	7.04
477.657	7.11
477.859	7.23
478.061	7.13
478.263	7.16
478.465	7.42
478.667	7.36
478.869	7.11
479.071	7.33
479.273	7.4
479.475	7.21
479.677	7.19
479.879	7.28
480.081	7.02
480.283	6.92
480.485	6.93
480.686	6.83
480.888	6.89
481.09	7.01
481.292	6.95
481.494	6.91
481.695	7.03
481.897	7.08
482.099	7.09
482.301	7.17
482.502	7.06
482.704	7.09
482.906	7.03
483.107	6.99
483.309	6.88
483.511	6.77
483.712	6.72
483.914	6.68
484.115	6.64
484.317	6.6
484.519	6.55
484.72	6.55
484.922	6.54
485.123	6.53
485.325	6.59
485.526	6.64
485.728	6.71
485.929	6.64
486.131	6.59
486.332	6.62
486.534	6.62
486.735	6.62
486.936	6.72
487.138	6.7
487.339	6.68
487.541	6.62
487.742	6.59
487.943	6.52
488.144	6.58
488.346	6.63
488.547	6.66
488.748	6.63
488.95	6.76
489.151	6.71
489.352	6.73
489.553	6.71
489.755	6.76
489.956	6.72
490.157	6.72
490.358	6.75
490.559	6.81
490.76	6.67
490.961	6.7
491.163	6.66
491.364	6.68
491.565	6.54
491.766	6.49
491.967	6.47
492.168	6.5
492.369	6.62
492.57	6.64
492.771	6.63
492.972	6.67
493.173	6.59
493.374	6.45
493.575	6.45
493.776	6.65
493.976	6.73
494.177	6.69
494.378	6.71
494.579	6.48
494.78	6.42
494.981	6.43
495.182	6.61
495.382	6.74
495.583	6.81
495.784	6.69
495.985	6.59
496.185	6.57
496.386	6.8
496.587	6.84
496.788	7.1
496.988	7.13
497.189	7.03
497.39	6.93
497.59	7
497.791	6.84
497.992	6.85
498.192	6.84
498.393	7.06
498.593	6.93
498.794	7.05
498.994	6.82
499.195	6.87
499.395	6.86
499.596	6.81
499.796	6.82
499.997	7.08
500.197	7.22
500.398	7.31
500.598	7.11
500.799	6.99
500.999	6.75
501.199	6.94
501.4	6.95
501.6	7
501.801	7.13
502.001	7.17
502.201	7.08
502.402	7.08
502.602	6.96
502.802	7.15
503.002	7.2
503.203	7.44
503.403	7.39
503.603	7.45
503.803	7.6
504.003	7.57
504.204	7.48
504.404	7.39
504.604	7.35
504.804	7.59
505.004	7.45
505.204	7.69
505.404	7.63
505.604	7.6
505.804	7.44
506.005	7.41
506.205	7.37
506.405	7.27
506.605	7.31
506.805	7.41
507.005	7.1
507.204	7.24
507.404	7.13
507.604	7.14
507.804	7.23
508.004	7.42
508.204	7.43
508.404	7.4
508.604	7.5
508.804	7.36
509.003	7.42
509.203	7.76
509.403	7.8
509.603	7.78
509.803	7.89
510.002	7.93
510.202	7.8
510.402	7.72
510.602	7.88
510.801	8.01
511.001	8.3
511.201	8.15
511.4	7.98
511.6	7.98
511.8	8.01
511.999	7.99
512.199	7.88
512.398	7.89
512.598	7.87
512.797	7.7
512.997	7.51
513.197	7.53
513.396	7.64
513.596	7.62
513.795	7.53
513.994	7.52
514.194	7.42
514.393	7.44
514.593	7.48
514.792	7.55
514.992	7.65
515.191	7.71
515.39	7.69
515.59	7.74
515.789	7.8
515.988	7.98
516.188	7.9
516.387	7.92
516.586	7.85
516.786	7.79
516.985	7.79
517.184	7.9
517.383	7.93
517.582	7.89
517.782	7.71
517.981	7.76
518.18	7.8
518.379	7.96
518.578	7.96
518.777	8.15
518.976	8.23
519.176	8.28
519.375	8.3
519.574	8.36
519.773	8.42
519.972	8.51
520.171	8.56
520.37	8.52
520.569	8.5
520.768	8.47
520.967	8.23
521.166	8.19
521.365	8.2
521.564	8.17
521.762	8.2
521.961	8.21
522.16	8.39
522.359	8.29
522.558	8.22
522.757	8.21
522.956	8.44
523.154	8.67
523.353	8.81
523.552	8.87
523.751	8.89
523.949	8.79
524.148	8.87
524.347	8.74
524.546	8.94
524.744	9.02
524.943	9.04
525.142	8.88
525.34	8.85
525.539	8.69
525.737	8.57
525.936	8.5
526.135	8.53
526.333	8.48
526.532	8.56
526.73	8.39
526.929	8.45
527.127	8.4
527.326	8.5
527.524	8.59
527.723	8.63
527.921	8.71
528.12	8.74
528.318	8.7
528.516	8.73
528.715	8.71
528.913	8.75
529.112	8.67
529.31	8.75
529.508	8.75
529.707	8.71
529.905	8.81
530.103	8.82
530.301	8.81
530.5	8.95
530.698	8.96
530.896	9.04
531.094	9.16
531.293	9.19
531.491	9.11
531.689	9.17
531.887	9.1
532.085	9
532.283	9.01
532.481	9.17
532.68	9.09
532.878	9.1
533.076	9.05
533.274	9.03
533.472	9.08
533.67	9.19
533.868	9.15
534.066	9.19
534.264	9.3
534.462	9.4
534.66	9.32
534.858	9.48
535.056	9.45
535.253	9.53
535.451	9.46
535.649	9.67
535.847	9.62
536.045	9.65
536.243	9.92
536.441	9.89
536.638	9.76
536.836	9.81
537.034	9.72
537.232	9.83
537.43	9.86
537.627	9.93
537.825	9.75
538.023	9.78
538.22	9.76
538.418	9.74
538.616	9.67
538.813	9.72
539.011	9.68
539.209	9.75
539.406	9.89
539.604	9.88
539.801	10
539.999	10.16
540.196	10.28
540.394	10.31
540.591	10.38
540.789	10.37
540.986	10.5
541.184	10.62
541.381	10.6
541.579	10.53
541.776	10.64
541.974	10.63
542.171	10.63
542.368	10.67
542.566	10.72
542.763	10.71
542.96	10.86
543.158	10.82
543.355	10.83
543.552	10.93
543.75	10.91
543.947	10.9
544.144	10.96
544.341	11.04
544.539	11.06
544.736	11.1
544.933	10.99
545.13	11.09
545.327	11.12
545.524	11.11
545.722	11.21
545.919	11.39
546.116	11.56
546.313	11.56
546.51	11.6
546.707	11.7
546.904	11.81
547.101	12.11
547.298	12.06
547.495	12.13
547.692	12.26
547.889	12.26
548.086	12.28
548.283	12.24
548.48	12.45
548.677	12.6
548.874	12.48
549.07	12.72
549.267	12.54
549.464	12.67
549.661	12.81
549.858	12.91
550.055	12.95
550.251	13.03
550.448	13.06
550.645	13.15
550.842	13.11
551.038	13.42
551.235	13.3
551.432	13.28
551.628	13.15
551.825	13.3
552.022	13.24
552.218	13.18
552.415	13.15
552.612	13.11
552.808	12.93
553.005	12.95
553.201	12.89
553.398	12.91
553.594	13.25
553.791	13.47
553.987	13.57
554.184	13.66
554.38	13.71
554.577	13.86
554.773	14.08
554.97	14.39
555.166	14.48
555.362	14.55
555.559	14.58
555.755	14.52
555.952	14.56
556.148	14.44
556.344	14.75
556.541	15.16
556.737	15.34
556.933	15.45
557.129	15.41
557.326	15.63
557.522	15.42
557.718	15.53
557.914	15.52
558.11	15.54
558.307	15.57
558.503	15.58
558.699	15.32
558.895	15.34
559.091	15.28
559.287	15.25
559.483	15.17
559.679	15.36
559.876	15.39
560.072	15.52
560.268	15.69
560.464	15.69
560.66	15.54
560.856	15.88
561.052	15.94
561.247	16.11
561.443	16.35
561.639	16.43
561.835	16.69
562.031	17.06
562.227	16.98
562.423	17.17
562.619	17.43
562.815	17.61
563.01	17.37
563.206	17.26
563.402	16.98
563.598	17.26
563.793	17.33
563.989	17.31
564.185	17.24
564.381	17.49
564.576	17.4
564.772	17.28
564.968	17.48
565.163	17.7
565.359	18.01
565.555	18.34
565.75	18.29
565.946	18.25
566.141	18.34
566.337	18.12
566.532	17.9
566.728	17.93
566.923	18.12
567.119	18.02
567.314	18.17
567.51	18.06
567.705	18.14
567.901	18.05
568.096	18.31
568.292	18.4
568.487	18.64
568.682	19.21
568.878	19.29
569.073	19.4
569.268	19.42
569.464	19.4
569.659	19.84
569.854	19.76
570.05	19.83
570.245	19.75
570.44	20.05
570.635	20.08
570.831	19.87
571.026	20.05
571.221	19.95
571.416	20.15
571.611	20.28
571.806	19.94
572.002	20.04
572.197	20.06
572.392	20.1
572.587	19.85
572.782	19.97
572.977	20.31
573.172	20.31
573.367	20.51
573.562	20.57
573.757	20.67
573.952	20.89
574.147	21.12
574.342	21.2
574.537	21.46
574.732	21.68
574.927	21.83
575.121	21.61
575.316	21.68
575.511	21.57
575.706	21.7
575.901	21.64
576.096	21.6
576.29	21.33
576.485	21.34
576.68	21.2
576.875	21.17
577.069	21.1
577.264	20.9
577.459	20.97
577.654	21.18
577.848	20.89
578.043	20.92
578.238	21.1
578.432	21.56
578.627	21.61
578.821	21.71
579.016	21.87
579.21	21.9
579.405	22.1
579.6	21.96
579.794	22.1
579.989	22.56
580.183	22.62
580.378	22.72
580.572	22.71
580.766	22.68
580.961	22.63
581.155	22.51
581.35	22.9
581.544	23.11
581.738	22.97
581.933	23.01
582.127	22.79
582.321	22.69
582.516	22.35
582.71	22.33
582.904	22.7
583.099	23.1
583.293	22.93
583.487	22.75
583.681	22.57
583.875	22.87
584.07	22.75
584.264	22.81
584.458	22.9
584.652	23.11
584.846	23.25
585.04	23.09
585.234	22.77
585.428	23.04
585.623	22.86
585.817	23.26
586.011	23.01
586.205	23.24
586.399	23.48
586.593	23.72
586.787	24.22
586.981	24.01
587.174	24.11
587.368	24.17
587.562	24.15
587.756	24.27
587.95	24.13
588.144	24.63
588.338	24.38
588.532	24.42
588.725	24.3
588.919	24.01
589.113	24.03
589.307	24.19
589.501	24.29
589.694	24.52
589.888	24.7
590.082	24.76
590.275	24.43
590.469	24.8
590.663	24.68
590.856	24.83
591.05	24.89
591.244	25.13
591.437	25.07
591.631	25.15
591.824	25.16
592.018	25.15
592.212	25.32
592.405	25.34
592.599	25.16
592.792	25.38
592.986	25.54
593.179	25.5
593.372	25.63
593.566	25.47
593.759	25.21
593.953	25.15
594.146	24.98
594.339	24.93
594.533	25.08
594.726	25.2
594.92	24.91
595.113	24.77
595.306	24.95
595.499	24.55
595.693	24.63
595.886	24.83
596.079	24.79
596.272	24.92
596.466	24.87
596.659	25.04
596.852	25.02
597.045	25.14
597.238	25.19
597.431	25.21
597.624	25.42
597.818	25.57
598.011	25.69
598.204	25.64
598.397	25.64
598.59	25.61
598.783	25.71
598.976	25.79
599.169	25.89
599.362	26
599.555	25.81
599.748	25.83
599.941	25.5
600.134	25.04
600.326	25.31
600.519	25.57
600.712	25.59
600.905	25.38
601.098	25.27
601.291	25.27
601.483	25.36
601.676	25.43
601.869	25.74
602.062	25.94
602.255	26.51
602.447	26.61
602.64	26.5
602.833	26.64
603.025	26.65
603.218	26.77
603.411	26.67
603.603	26.44
603.796	26.66
603.989	26.56
604.181	26.77
604.374	26.49
604.566	26.43
604.759	26.36
604.951	26.5
605.144	26.72
605.336	26.67
605.529	26.58
605.721	26.71
605.914	26.65
606.106	26.57
606.299	26.31
606.491	26.59
606.683	26.61
606.876	26.72
607.068	26.44
607.26	26.28
607.453	26.32
607.645	26.45
607.837	26.45
608.03	26.27
608.222	26.23
608.414	25.97
608.606	25.82
608.799	25.71
608.991	25.9
609.183	25.88
609.375	25.85
609.567	25.74
609.759	25.72
609.952	25.62
610.144	25.73
610.336	25.83
610.528	26.14
610.72	26.13
610.912	26.24
611.104	26.06
611.296	26.07
611.488	26.18
611.68	26.53
611.872	26.82
612.064	26.88
612.256	26.83
612.448	27.04
612.64	27.1
612.832	27.18
613.023	27.75
613.215	27.39
613.407	27.49
613.599	27.29
613.791	26.89
613.983	26.59
614.174	26.77
614.366	26.48
614.558	26.25
614.75	26.42
614.941	26.24
615.133	25.65
615.325	26.13
615.516	26.07
615.708	26.5
615.9	26.39
616.091	26.7
616.283	26.73
616.475	27.09
616.666	27.23
616.858	27.15
617.049	27.26
617.241	27.22
617.432	27.17
617.624	27.35
617.815	27.32
618.007	27.41
618.198	27.35
618.39	27.24
618.581	27.25
618.773	27.12
618.964	27.06
619.155	27.08
619.347	27.26
619.538	27.63
619.729	27.61
619.921	27.54
620.112	27.61
620.303	27.52
620.494	27.69
620.686	27.51
620.877	27.6
621.068	27.41
621.259	27.77
621.451	27.54
621.642	27.06
621.833	27.29
622.024	27.12
622.215	27.39
622.406	27.41
622.597	27.45
622.788	27.68
622.98	27.81
623.171	28.16
623.362	28.18
623.553	28.33
623.744	28.67
623.935	28.78
624.126	28.74
624.317	28.75
624.508	28.84
624.698	28.82
624.889	28.96
625.08	28.87
625.271	28.74
625.462	28.26
625.653	28.1
625.844	27.74
626.034	27.6
626.225	27.68
626.416	27.63
626.607	28
626.798	27.84
626.988	27.71
627.179	27.39
627.37	27.47
627.56	27.74
627.751	27.63
627.942	27.87
628.132	27.83
628.323	27.9
628.514	27.85
628.704	27.36
628.895	27.63
629.085	27.58
629.276	27.72
629.466	27.75
629.657	27.65
629.847	27.92
630.038	27.73
630.228	27.47
630.419	27.41
630.609	27.61
630.8	27.38
630.99	27.14
631.181	27.27
631.371	27.33
631.561	27.43
631.752	27.54
631.942	27.67
632.132	27.86
632.323	28.3
632.513	28.45
632.703	28.25
632.893	28.58
633.084	28.98
633.274	29.04
633.464	29.22
633.654	29.17
633.844	29.26
634.034	29.02
634.225	29.02
634.415	29.06
634.605	29.18
634.795	29.37
634.985	29.58
635.175	29.32
635.365	29.16
635.555	28.88
635.745	28.71
635.935	28.33
636.125	28.53
636.315	28.47
636.505	28.38
636.695	28.36
636.885	28.28
637.075	28.36
637.265	28.44
637.455	28.96
637.644	29.03
637.834	29.34
638.024	29.62
638.214	29.5
638.404	29.44
638.593	29.35
638.783	29.22
638.973	29.4
639.163	29.12
639.352	29.08
639.542	28.24
639.732	28.49
639.921	28.19
640.111	28.09
640.301	28.21
640.49	28.47
640.68	28.69
640.87	28.7
641.059	28.42
641.249	28.24
641.438	28.17
641.628	29.12
641.817	29.42
642.007	29.88
642.196	30
642.386	30.35
642.575	30.58
642.764	30.48
642.954	30.28
643.143	30.37
643.333	31
643.522	31.35
643.711	30.72
643.901	30.29
644.09	29.66
644.279	29.91
644.469	29.53
644.658	29.32
644.847	29.39
645.036	29.12
645.226	28.93
645.415	28.42
645.604	27.78
645.793	27.88
645.982	27.64
646.171	28.11
646.361	28.37
646.55	28.62
646.739	28.44
646.928	27.86
647.117	28.38
647.306	28.54
647.495	28.31
647.684	28.9
647.873	29.06
648.062	29.87
648.251	29.71
648.44	29.37
648.629	29.16
648.818	29.68
649.007	30.31
649.196	30.17
649.384	29.95
649.573	30.3
649.762	30.05
649.951	29.88
650.14	29.84
650.328	29.95
650.517	30.2
650.706	30.09
650.895	29.69
651.083	29.5
651.272	29.76
651.461	30.59
651.65	30.66
651.838	30.81
652.027	30.52
652.216	30.34
652.404	30.47
652.593	30.2
652.781	30.06
652.97	29.93
653.158	30.28
653.347	30.12
653.535	29.41
653.724	29.16
653.912	28.96
654.101	29.19
654.289	29.29
654.478	29.31
654.666	28.91
654.855	29.36
655.043	29.62
655.231	29.23
655.42	29.52
655.608	29.86
655.796	30.56
655.985	30.74
656.173	31.27
656.361	30.87
656.55	30.41
656.738	30.86
656.926	30.56
657.114	30.43
657.302	30.75
657.491	30.35
657.679	29.92
657.867	29
658.055	28.67
658.243	28.33
658.431	28.12
658.619	28.2
658.807	28.41
658.996	28.51
659.184	28.74
659.372	28.61
659.56	28.91
659.748	29.47
659.936	30.07
660.124	30.32
660.311	30.5
660.499	30.53
660.687	30.71
660.875	30.59
661.063	30.93
661.251	30.63
661.439	30.67
661.627	30.37
661.814	29.78
662.002	29.69
662.19	29.53
662.378	29.57
662.565	29.97
662.753	30.36
662.941	30.25
663.129	29.84
663.316	29.88
663.504	30.16
663.692	30.25
663.879	30.25
664.067	29.83
664.254	29.93
664.442	29.7
664.63	30.01
664.817	29.62
665.005	29.78
665.192	29.92
665.38	29.95
665.567	29.62
665.755	29.27
665.942	29.36
666.13	29.82
666.317	29.49
666.504	29.66
666.692	29.66
666.879	29.41
667.067	28.79
667.254	29.08
667.441	29.25
667.629	29.45
667.816	29.94
668.003	30.21
668.19	30.23
668.378	30.66
668.565	30.62
668.752	30.32
668.939	30.84
669.127	31.54
669.314	31.29
669.501	30.98
669.688	30.88
669.875	30.89
670.062	30.21
670.249	29.91
670.436	30.2
670.623	30.53
670.81	31.08
670.997	30.74
671.184	31.14
671.371	30.95
671.558	31.38
671.745	31.33
671.932	31.49
672.119	32.11
672.306	31.92
672.493	31.39
672.68	31.11
672.867	31.03
673.054	30.86
673.24	30.06
673.427	30.38
673.614	30.12
673.801	29.88
673.988	29.55
674.174	29.69
674.361	30.51
674.548	30.81
674.734	31.25
674.921	30.94
675.108	31.01
675.294	31.49
675.481	31.5
675.668	31.75
675.854	32.01
676.041	32.25
676.227	32.02
676.414	31.23
676.601	31.05
676.787	30.61
676.974	30.5
677.16	30.78
677.347	30.33
677.533	30.2
677.719	29.85
677.906	29.93
678.092	30.17
678.279	30.12
678.465	30.05
678.651	30.47
678.838	30.4
679.024	30.67
679.21	30.44
679.397	30.55
679.583	30.33
679.769	30.43
679.955	30.27
680.142	29.73
680.328	30
680.514	30.38
680.7	30.43
680.886	30.83
681.073	30.89
681.259	31.19
681.445	31.08
681.631	31.53
681.817	31.84
682.003	31.82
682.189	31.69
682.375	31.47
682.561	31.48
682.747	31.24
682.933	30.93
683.119	30.64
683.305	30.8
683.491	31.19
683.677	30.95
683.863	30.72
684.049	30.96
684.235	31.57
684.42	32.23
684.606	31.85
684.792	31.91
684.978	31.55
685.164	31.39
685.349	30.72
685.535	30.17
685.721	30.3
685.907	30.41
686.092	30.48
686.278	30.32
686.464	29.51
686.649	29.96
686.835	29.55
687.021	29.8
687.206	29.81
687.392	29.83
687.577	30.12
687.763	30.23
687.948	30.19
688.134	29.8
688.319	30.01
688.505	30.15
688.69	30.83
688.876	30.72
689.061	30.72
689.247	31.02
689.432	31.01
689.618	31.42
689.803	31.66
689.988	31.49
690.174	32.16
690.359	32.01
690.544	32.42
690.73	32.29
690.915	33.36
691.1	33.85
691.285	33.52
691.471	33.88
691.656	33.82
691.841	33.17
692.026	33.81
692.211	33.05
692.396	33.35
692.582	33.35
692.767	32.65
692.952	31.53
693.137	30.99
693.322	31.99
693.507	32.55
693.692	32.34
693.877	33.34
694.062	32.51
694.247	32.98
694.432	32.69
694.617	32.39
694.802	32.81
694.987	33.71
695.172	34.19
695.357	33.13
695.541	32.95
695.726	33.47
695.911	32.42
696.096	32.63
696.281	32.3
696.466	31.88
696.65	32.26
696.835	31.71
697.02	31.44
697.204	31.21
697.389	31.31
697.574	31.05
697.759	30.63
697.943	30.45
698.128	30.59
698.312	30.97
698.497	31.23
698.682	31.35
698.866	31.44
699.051	31.21
699.235	31.54
699.42	31.6
699.604	31.54
699.789	31.56
699.973	32.19
700.158	32.14
700.342	31.87
700.527	32.03
700.711	30.97
700.895	31.24
701.08	31.56
701.264	31
701.448	31.15
701.633	30.94
701.817	30.77
702.001	30.34
702.186	30.26
702.37	30.53
702.554	30.42
702.738	32.05
702.923	32.3
703.107	31.88
703.291	31.71
703.475	31.37
703.659	32.04
703.843	32.33
704.027	32.48
704.212	32.47
704.396	32.69
704.58	33.18
704.764	32.91
704.948	32.55
705.132	33.01
705.316	32.57
705.5	33.01
705.684	32.15
705.868	32.15
706.052	31.55
706.235	32.01
706.419	31.94
706.603	32.01
706.787	31.36
706.971	31.22
707.155	30.94
707.339	31.86
707.522	31.27
707.706	31.13
707.89	30.79
708.074	31.46
708.257	31.58
708.441	31.76
708.625	31.3
708.808	31.67
708.992	31.29
709.176	31.48
709.359	32.27
709.543	32.85
709.727	33.96
709.91	33.69
710.094	33.02
710.277	33.29
710.461	33
710.644	33.23
710.828	33.4
711.011	34.28
711.195	33.73
711.378	33.05
711.562	32.61
711.745	31.63
711.928	32.23
712.112	32.42
712.295	31.58
712.478	31.7
712.662	31.37
712.845	30.39
713.028	29.89
713.212	30.13
713.395	29.23
713.578	29.51
713.761	29.73
713.945	29.43
714.128	30.63
714.311	31.3
714.494	30.86
714.677	31.91
714.86	32.48
715.043	32.49
715.227	32.62
715.41	33.18
715.593	33.3
715.776	33.8
715.959	33.82
716.142	33.35
716.325	32.54
716.508	32.38
716.691	31.03
716.874	30.66
717.057	30.5
717.239	30.17
717.422	30.45
717.605	29.64
717.788	30.14
717.971	30.36
718.154	30.52
718.337	31.58
718.519	32.93
718.702	34.1
718.885	34.77
719.068	34.41
719.25	34.96
719.433	35.15
719.616	35.42
719.798	35.1
719.981	35.45
720.164	35.32
720.346	35.63
720.529	33.93
720.712	33.5
720.894	33.06
721.077	33.12
721.259	33.38
721.442	33.45
721.624	34.6
721.807	34.3
721.989	33.71
722.172	33.08
722.354	30.77
722.537	30.94
722.719	30.69
722.901	31.3
723.084	31.39
723.266	29.91
723.448	29.62
723.631	29.54
723.813	29.3
723.995	30.49
724.178	31.19
724.36	33.29
724.542	34.27
724.724	33.69
724.907	33.81
725.089	34.92
725.271	36.37
725.453	36.3
725.635	34.36
725.817	35.17
725.999	33.99
726.181	33.54
726.364	31.57
726.546	30.41
726.728	30.47
726.91	29.9
727.092	29.05
727.274	28.85
727.456	29.44
727.638	30.9
727.819	31.06
728.001	31.2
728.183	31.68
728.365	32.83
728.547	33.59
728.729	34.29
728.911	33.39
729.093	33.42
729.274	33.2
729.456	32.63
729.638	31.84
729.82	31.27
730.001	30.75
730.183	30.35
730.365	29.72
730.546	30.24
730.728	29.72
730.91	30.54
731.091	31.31
731.273	31.64
731.455	31.24
731.636	31.34
731.818	30.62
731.999	30.69
732.181	30.21
732.362	31.16
732.544	30.36
732.725	29.82
732.907	30.86
733.088	30.63
733.27	29.83
733.451	30.91
733.633	31.43
733.814	32.38
733.995	33.19
734.177	33.28
734.358	33.48
734.539	33.79
734.721	34.63
734.902	34.32
735.083	34.18
735.264	35.85
735.446	34.43
735.627	34.57
735.808	33.33
735.989	32.7
736.17	33.38
736.351	32.18
736.533	32.61
736.714	32.75
736.895	31.67
737.076	31.13
737.257	30.45
737.438	31.56
737.619	30.75
737.8	31.92
737.981	33.22
738.162	32.78
738.343	34.44
738.524	32.68
738.705	32.78
738.886	33.75
739.067	34.33
739.247	34.69
739.428	35.22
739.609	36.13
739.79	35.71
739.971	34.55
740.151	35.42
740.332	34.6
740.513	35.99
740.694	35.82
740.874	35.13
741.055	34.5
741.236	33.17
741.417	32.33
741.597	32.31
741.778	31.5
741.958	31.7
742.139	31.24
742.32	31.22
742.5	31.45
742.681	32.6
742.861	32.75
743.042	33.05
743.222	33.96
743.403	34.1
743.583	33.86
743.764	36.05
743.944	36.21
744.124	36.06
744.305	35.53
744.485	34.31
744.666	32.41
744.846	31.47
745.026	32.46
745.207	32.48
745.387	32.47
745.567	32.79
745.747	30.75
745.928	31.31
746.108	30.71
746.288	32.4
746.468	31.79
746.648	32.24
746.829	33.01
747.009	31.62
747.189	31.76
747.369	31.96
747.549	31.13
747.729	31.68
747.909	29.11
748.089	29.14
748.269	27.46
748.449	29.1
748.629	29.59
748.809	29.13
748.989	28.89
749.169	28.38
749.349	28.9
749.529	28.78
749.709	29.24
749.889	30.2
750.068	30.72
750.248	30.86
750.428	30.41
750.608	30.3
750.788	31.56
750.967	32.47
751.147	32.18
751.327	32.17
751.507	34.17
751.686	33.89
751.866	34.99
752.046	35.03
752.225	35.03
752.405	35.8
752.585	35.1
752.764	34.24
752.944	34.91
753.123	36.9
753.303	37.35
753.482	36.53
753.662	37.23
753.841	37.41
754.021	37.61
754.2	37.65
754.38	38.37
754.559	39.2
754.739	38.92
754.918	37.97
755.097	35.53
755.277	35.01
755.456	35.21
755.635	33.89
755.815	35.17
755.994	35.48
756.173	37.35
756.352	35.74
756.532	35.54
756.711	37.1
756.89	36.44
757.069	35.54
757.248	35.18
757.427	34.3
757.607	36.57
757.786	35.21
757.965	35.34
758.144	32.88
758.323	32.17
758.502	33.88
758.681	33.05
758.86	34.17
759.039	36.81
759.218	36.96
759.397	36.78
759.576	35.94
759.755	35.64
759.934	34.94
760.113	36.35
760.291	37.81
760.47	35.28
760.649	36.41
760.828	36.81
761.007	36.19
761.186	36.17
761.364	36.38
761.543	35.03
761.722	36.33
761.901	36.02
762.079	36.38
762.258	36.13
762.437	37.72
762.615	35.8
762.794	35.97
762.972	35.48
763.151	35.58
763.33	35.85
763.508	35.54
763.687	34.87
763.865	34.9
764.044	33.8
764.222	33.73
764.401	33
764.579	34.59
764.758	33.42
764.936	33.4
765.114	33.67
765.293	33.19
765.471	33.79
765.65	34.87
765.828	35.17
766.006	36.85
766.184	37.31
766.363	37.53
766.541	36.61
766.719	37.04
766.898	36.99
767.076	35.37
767.254	36.2
767.432	35.21
767.61	32.91
767.788	33.54
767.967	32.58
768.145	30.55
768.323	28.7
768.501	27.48
768.679	28.95
768.857	28.54
769.035	29.29
769.213	28.76
769.391	29.43
769.569	30.08
769.747	29.64
769.925	29.09
770.103	32.34
770.281	32.34
770.459	32.95
770.636	32.54
770.814	34.95
770.992	37.13
771.17	37.7
771.348	38.3
771.525	35.99
771.703	36.45
771.881	36.89
772.059	37.46
772.236	39.12
772.414	41.51
772.592	39.42
772.769	39.61
772.947	37.96
773.125	37.12
773.302	36.99
773.48	39.61
773.657	38.52
773.835	41.07
774.013	40.17
774.19	42.11
774.368	40.4
774.545	43.57
774.723	42.21
774.9	43.02
775.077	44.49
775.255	45.59
775.432	46.74
775.61	45.73
775.787	41.42
775.964	41.4
776.142	40.64
776.319	40.84
776.496	39.49
776.674	40.57
776.851	36.88
777.028	36.47
777.205	37.25
777.382	35.22
777.56	38.01
777.737	39.84
777.914	39.54
778.091	39.62
778.268	40.82
778.445	41.27
778.622	40.82
778.8	42.36
778.977	42.51
779.154	41.53
779.331	42.81
779.508	42.75
779.685	42.88
779.862	40.7
780.038	38.99
780.215	39.43
780.392	37.14
780.569	37.78
780.746	36.98
780.923	38.09
781.1	33.66
781.277	33.7
781.453	32.92
781.63	34.37
781.807	35.43
781.984	37.07
782.16	36.75
782.337	38.94
782.514	39.06
782.691	42.33
782.867	38.79
783.044	41.38
783.221	42.67
783.397	41.2
783.574	38.43
783.75	38.64
783.927	39.71
784.103	37.82
784.28	36.45
784.456	35.53
784.633	34.94
784.809	37.64
784.986	41.09
785.162	36.93
785.339	34.49
785.515	37.01
785.692	38.7
785.868	37.2
786.044	32.99
786.221	34.99
786.397	37.08
786.573	36.99
786.749	36.17
786.926	34.54
787.102	39.29
787.278	40.43
787.454	39.64
787.631	38.99
787.807	39.76
787.983	45.88
788.159	44.05
788.335	41.34
788.511	38.02
788.687	39.68
788.863	40.32
789.039	38.74
789.216	42.87
789.392	40.15
789.568	40.76
789.744	37.92
789.919	34.21
790.095	35.02
790.271	34.79
790.447	38.05
790.623	33.7
790.799	32.23
790.975	34.52
791.151	31.95
791.327	35.93
791.502	35.34
791.678	39.72
791.854	41.15
792.03	38.51
792.205	38.61
792.381	35.98
792.557	37.11
792.733	40.11
792.908	37.12
793.084	38.07
793.259	35.41
793.435	34.18
793.611	29.79
793.786	29.02
793.962	31.43
794.137	32.31
794.313	34.02
794.488	35.43
794.664	35.03
794.839	35.46
795.015	32.63
795.19	36.62
795.366	39.91
795.541	37.12
795.716	36.88
795.892	36.16
796.067	35.76
796.242	33.99
796.418	33.62
796.593	33.53
796.768	32.74
796.944	35.58
797.119	33.22
797.294	32.59
797.469	34.41
797.644	35.56
797.82	36.89
797.995	38.71
798.17	43.37
798.345	42.07
798.52	42.01
798.695	43.11
798.87	40.93
799.045	37.95
799.22	36.64
799.395	34.46
799.57	35.91
799.745	36.49
799.92	32.11
800.095	30.88
800.27	33.18
800.445	30.48
800.62	30.53
800.795	34.89
800.97	38.15
801.145	37.79
801.319	39.76
801.494	42.16
801.669	40.9
801.844	43.79
802.018	40.55
802.193	42.23
802.368	45.45
802.543	45.87
802.717	40.82
802.892	45.11
803.067	47.81
803.241	53.61
803.416	50.64
803.59	51.45
803.765	49.41
803.94	51.34
804.114	49.24
804.289	49.55
804.463	43.82
804.638	46.8
804.812	45.24
804.986	40.66
805.161	35.58
805.335	36.06
805.51	37.12
805.684	42.32
805.858	43.07
806.033	44.23
806.207	42.08
806.381	47.61
806.556	46.44
806.73	44.73
806.904	44.07
807.078	41.1
807.253	39.17
807.427	37.4
807.601	36.12
807.775	34.5
807.949	31.43
808.123	30.55
808.298	34.04
808.472	35.93
808.646	36
808.82	35.32
808.994	41.85
809.168	39.25
809.342	39.58
809.516	40.61
809.69	45.41
809.864	46.47
810.038	41.48
810.212	35.34
810.385	37.87
810.559	38.32
810.733	40.1
810.907	38.48
811.081	42.95
811.255	43.37
811.428	40.59
811.602	37.46
811.776	36.64
811.95	39.66
812.123	39.8
812.297	37.52
812.471	42.2
812.644	41.12
812.818	40.96
812.992	38.74
813.165	38.82
813.339	37.36
813.512	32.08
813.686	33.79
813.86	35.16
814.033	37.31
814.207	37.66
814.38	32.52
814.554	33.89
814.727	30.36
814.9	32.19
815.074	32.64
815.247	36.78
815.421	44.38
815.594	42.53
815.767	43.92
815.941	43.72
816.114	40.98
816.287	38.2
816.46	39.52
816.634	38.31
816.807	39.17
816.98	40.82
817.153	45.31
817.327	40.91
817.5	42.44
817.673	40.94
817.846	38.65
818.019	38.26
818.192	37.66
818.365	37.31
818.538	38.67
818.711	36.01
818.884	34.77
819.057	26.7
819.23	30.46
819.403	34.64
819.576	32.53
819.749	32.92
819.922	32.01
820.095	34.74
820.268	36.1
820.441	33.8
820.614	35.12
820.786	35.46
820.959	36.62
821.132	35.61
821.305	33.35
821.477	34.89
821.65	34.91
821.823	36.24
821.996	35.56
822.168	35.06
822.341	37.24
822.514	37.32
822.686	36.79
822.859	37.15
823.031	36.7
823.204	37.48
823.376	38.04
823.549	38.07
823.722	37.47
823.894	37.62
824.067	37.77
824.239	36.33
824.411	36.89
824.584	38
824.756	37.62
824.929	37.94
825.101	37.99
825.273	38.47
825.446	38.19
825.618	38.09
825.79	37.36
825.963	38.42
826.135	39.53
826.307	38.98
826.479	38.01
826.652	37.71
826.824	38.85
826.996	38.39
827.168	36.59
827.34	36.27
827.512	37.47
827.684	38.3
827.856	37.52
828.029	39.33
828.201	38.95
828.373	39.3
828.545	39.39
828.717	39.08
828.889	38.75
829.061	40.41
829.232	42.76
829.404	42.39
829.576	43.29
829.748	44.86
829.92	41.82
830.092	42.43
830.264	43.08
830.436	43.97
830.607	41.99
830.779	43.26
830.951	42.26
831.123	41.7
831.294	40.6
831.466	40.59
831.638	36.98
831.809	40.57
831.981	39.22
832.153	35.27
832.324	31.88
832.496	32.69
832.667	29.72
832.839	28.71
833.011	29.45
833.182	29.09
833.354	27.84
833.525	30.55
833.697	28.04
833.868	31.72
834.039	31.77
834.211	33.05
834.382	34.5
834.554	33.81
834.725	34.81
834.896	34.14
835.068	37
835.239	37.01
835.41	37.4
835.581	39.5
835.753	37.18
835.924	39.4
836.095	41.72
836.266	40.5
836.438	42.92
836.609	44
836.78	45.12
836.951	39.84
837.122	41.34
837.293	39.8
837.464	37.21
837.635	34.42
837.806	39.63
837.977	38.43
838.148	46.65
838.319	50.45
838.49	47.99
838.661	43.96
838.832	43.43
839.003	43.67
839.174	44.54
839.345	42.88
839.516	49.83
839.687	43.62
839.857	50.52
840.028	37.91
840.199	29.22
840.37	25.57
840.54	34.5
840.711	37.86
840.882	39.36
841.053	38.43
841.223	43.39
841.394	48.87
841.564	48.84
841.735	41.33
841.906	50.09
842.076	49.05
842.247	50.59
842.417	52.97
842.588	62.25
842.758	71.45
842.929	71.35
843.099	61.39
843.27	50.88
843.44	52.42
843.611	61.67
843.781	59.54
843.951	71.42
844.122	77.04
844.292	71.79
844.462	66.68
844.633	66.45
844.803	59.12
844.973	76.57
845.144	75.36
845.314	86.76
845.484	94.2
845.654	103.88
845.824	91.4
845.995	96.07
846.165	84.23
846.335	76.64
846.505	67.58
846.675	92
846.845	62.68
847.015	79.45
847.185	64.03
847.355	56.73
847.525	50.83
847.695	68.09
847.865	74.68
848.035	95.71
848.205	87.48
848.375	99.21
848.545	91.19
848.715	100.07
848.884	94.53
849.054	112.77
849.224	132.16
849.394	134.69
849.564	138.66
849.733	114.34
849.903	89.45
850.073	129.47
850.243	108.75
850.412	143.27
850.582	132.28
850.752	122.47
850.921	129.69
851.091	122.96
851.26	106.26
851.43	101.63
851.599	126.76
851.769	117.18
851.939	105.38
852.108	109.23
852.278	96.08
852.447	109
852.616	126.95
852.786	107.63
852.955	108.16
853.125	159.97
853.294	171.22
853.463	160.34
853.633	162.14
853.802	256.03
853.971	196.05
854.141	172.42
854.31	171.72
854.479	158.02
854.648	148.81
854.818	118.57
854.987	102.42
855.156	93.25
855.325	85.95
855.494	102.93
855.663	98.75
855.832	112.05
856.001	94.67
856.171	103.38
856.34	103.73
856.509	106.73
856.678	236.26
856.847	322.4
857.016	-231.12
857.185	110.77
857.353	89.63
857.522	55.29
857.691	31.63
857.86	31.28
858.029	-43.28
858.198	-59.81
858.367	-24.98
858.535	4.07
858.704	7.39
858.873	1.72
859.042	18.57
859.21	-66.18
859.379	-9
859.548	77.88
859.717	27.25
859.885	65.82
860.054	110.55
860.222	181.36
860.391	122.19
860.56	71.33
860.728	87.29
860.897	82.12
861.065	80.65
861.234	90.17
861.402	96.62
861.571	170.2
861.739	157.64
861.908	130.77
862.076	140.69
862.244	121.63
862.413	138.68
862.581	147.15
862.749	118.06
862.918	121.55
863.086	96.03
863.254	88.84
863.423	75.81
863.591	80.16
863.759	77.58
863.927	58.48
864.096	63.77
864.264	42.36
864.432	43.39
864.6	47.11
864.768	54.35
864.936	38.27
865.104	32
865.272	50.35
865.44	49.06
865.608	23.35
865.776	80.26
865.944	99.88
866.112	121.17
866.28	125.17
866.448	158.42
866.616	435.94
866.784	283.69
866.952	216.06
867.12	158.89
867.288	165.38
867.455	159.75
867.623	142.63
867.791	122.06
867.959	135.39
868.127	141.67
868.294	139.48
868.462	68.85
868.63	59.91
868.797	72.67
868.965	140.15
869.133	59.35
869.3	40.15
869.468	26.17
869.636	17.5
869.803	54.29
869.971	71.5
870.138	94.02
870.306	199.16
870.473	112.67
870.641	126.5
870.808	77.18
870.975	120.06
871.143	108.36
871.31	159.41
871.478	166.77
871.645	150.97
871.812	135.83
871.98	102.22
872.147	81.07
872.314	104.38
872.482	119.83
872.649	129.36
872.816	120.76
872.983	129.24
873.15	82.18
873.318	73.08
873.485	153.51
873.652	159.61
873.819	135.43
873.986	121.46
874.153	98.19
874.32	75.52
874.487	80.44
874.654	74.97
874.821	75.21
874.988	94.85
875.155	101.68
875.322	81.94
875.489	78.2
875.656	134.75
875.823	120.07
875.99	93.1
876.157	76.83
876.324	61.85
876.49	69.59
876.657	106.23
876.824	140.31
876.991	213.9
877.157	161.07
877.324	159.45
877.491	93.76
877.658	135.98
877.824	273.92
877.991	177.81
878.157	298.23
878.324	481.66
878.491	990.18
878.657	405.41
878.824	1289.12
878.99	196.34
879.157	139.33
879.323	264.39
879.49	318.1
879.656	172.96
879.823	239.94
879.989	119.87
880.156	87.41
880.322	89.23
880.488	64.81
880.655	66.9
880.821	76.84
880.987	82.63
881.154	73.07
881.32	88.37
881.486	80.86
881.652	72.27
881.819	71
881.985	66.99
882.151	60.13
882.317	58.44
882.483	52.55
882.649	48.36
882.816	43.54
882.982	41.3
883.148	34.8
883.314	35.22
883.48	34.51
883.646	34.63
883.812	34.35
883.978	36.3
884.144	35.44
884.31	34.92
884.476	37.05
884.642	41.42
884.807	43.19
884.973	43.04
885.139	43.48
885.305	46.38
885.471	41.7
885.637	42.85
885.802	42.41
885.968	49.08
886.134	54.2
886.3	61.14
886.465	56.39
886.631	52.09
886.797	64.77
886.962	62.81
887.128	60.83
887.293	78.33
887.459	78.14
887.625	79.64
887.79	63.26
887.956	61.45
888.121	56.48
888.287	56.03
888.452	64.61
888.618	58.2
888.783	61.36
