Data from 2937888_Reflection_1.txt Node
Date: Wed Jul 15 14:25:35 EDT 2015
User: robert
Spectrometer: USB4E03001
Autoset integration time: false
Trigger mode: 4
Integration Time (sec): 1.000000E-1
Scans to average: 10
Electric dark correction enabled: true
Nonlinearity correction enabled: false
Boxcar width: 5
Stray light correction enabled: false
XAxis mode: Wavelengths
Stop averaging: false
Number of Pixels in Spectrum: 3648
>>>>>Begin Spectral Data<<<<<
177.566	6948.89
177.785	-420.78
178.005	-48.81
178.225	-22.86
178.445	-129.7
178.665	-68.79
178.885	-508.57
179.105	-521.13
179.324	-208.11
179.544	-2110.94
179.764	412.63
179.984	-113.92
180.204	-51.85
180.423	5.81
180.643	-0.82
180.863	2.52
181.083	-11.35
181.302	-18.82
181.522	-11.47
181.742	-29.03
181.961	-18.66
182.181	-35.58
182.401	-46.67
182.621	-32.54
182.84	-57.52
183.06	-55.95
183.279	-62.62
183.499	-48.61
183.719	-60.74
183.938	-26.84
184.158	-16.5
184.377	-24.66
184.597	-8.53
184.816	-13.23
185.036	-23.29
185.256	-17.84
185.475	-35.9
185.695	-46.24
185.914	-47.58
186.134	-51.09
186.353	-106.51
186.572	-119.87
186.792	-137.95
187.011	-188.54
187.231	-304.52
187.45	-321.9
187.67	-365.6
187.889	-147.63
188.108	-226.36
188.328	-198.1
188.547	-161.52
188.766	-109.13
188.986	-141.79
189.205	-143.33
189.424	-66.04
189.644	-38.29
189.863	-50.11
190.082	-76.27
190.302	-82.08
190.521	-34.36
190.74	-40.32
190.959	-67.02
191.178	-105.9
191.398	-105.24
191.617	-152.08
191.836	-324.63
192.055	-319.4
192.274	-140.67
192.494	-112.89
192.713	-180.75
192.932	-261.03
193.151	-348.29
193.37	-234.45
193.589	-193.32
193.808	-140.68
194.027	-127.16
194.246	-76.42
194.465	-67.35
194.685	-158.66
194.904	-185.05
195.123	-279.08
195.342	-194.72
195.561	-97.84
195.78	-90.62
195.999	-79.45
196.218	-74.18
196.436	-34.02
196.655	-24.13
196.874	-48.25
197.093	-22.84
197.312	-15.18
197.531	9.39
197.75	16.43
197.969	21.15
198.188	36.92
198.407	45.54
198.625	31.93
198.844	5.38
199.063	-29.94
199.282	-18.09
199.501	-0.51
199.719	16.93
199.938	-52.98
200.157	-130.71
200.376	-205.13
200.594	-416.24
200.813	-234.84
201.032	-314.31
201.251	-168.55
201.469	-945.85
201.688	-3548.23
201.907	2845.09
202.125	5031.9
202.344	988.62
202.563	737.35
202.781	670.97
203	588.83
203.218	648.87
203.437	-326
203.656	419800
203.874	-397.83
204.093	-578.23
204.311	-369.77
204.53	-617.5
204.748	-132.27
204.967	-116.92
205.185	-141.7
205.404	-156.59
205.622	-145.55
205.841	-191.97
206.059	-125.1
206.278	-120.75
206.496	-146.5
206.715	-119.53
206.933	-85.52
207.151	-144.87
207.37	-191.16
207.588	-192.46
207.806	-281.61
208.025	-119.09
208.243	-141.66
208.461	-176.24
208.68	-125.01
208.898	-66.41
209.116	-151.27
209.335	-160.33
209.553	-129.87
209.771	-203.71
209.989	-128.04
210.208	-70.96
210.426	-616.89
210.644	-1049.88
210.862	-480.88
211.081	-643.12
211.299	-579.92
211.517	-85.2
211.735	-123.26
211.953	-794.36
212.171	-688.1
212.39	-1497.57
212.608	-292.27
212.826	-197.38
213.044	-121.08
213.262	-119.38
213.48	-551.21
213.698	-927.77
213.916	-848.88
214.134	-169.71
214.352	-134.57
214.57	-115.71
214.788	-113.63
215.006	-253.15
215.224	-566.97
215.442	-1043.27
215.66	-426.65
215.878	-284.12
216.096	-384.49
216.314	-2870.71
216.532	1278.2
216.75	389.46
216.968	950.87
217.185	457.14
217.403	559.98
217.621	349.14
217.839	311.87
218.057	148.11
218.275	-86.93
218.492	-174.83
218.71	-100.45
218.928	-217.65
219.146	-141.55
219.363	-768.7
219.581	-276.9
219.799	-503.02
220.017	-804.98
220.234	-1125.11
220.452	-1620.62
220.67	532.74
220.887	1847.74
221.105	-642.33
221.323	-354.31
221.54	-331.33
221.758	-142.95
221.976	-213.09
222.193	-91.3
222.411	-17.38
222.629	-3.68
222.846	-0.77
223.064	-153.41
223.281	-134.02
223.499	244.32
223.716	12.78
223.934	69.33
224.151	72.85
224.369	80.21
224.586	98.63
224.804	80.47
225.021	70.74
225.239	72.54
225.456	71.97
225.674	56.29
225.891	63
226.108	75.59
226.326	65.09
226.543	52.93
226.76	44.85
226.978	33.92
227.195	29.88
227.413	28.7
227.63	28.35
227.847	29.49
228.064	33.07
228.282	32.64
228.499	31.16
228.716	31.47
228.934	30.95
229.151	29.15
229.368	31.57
229.585	33.29
229.802	33.26
230.02	34.18
230.237	34.33
230.454	32.74
230.671	33.47
230.888	31.81
231.105	31.04
231.323	32.64
231.54	30.78
231.757	23.72
231.974	23.56
232.191	26.54
232.408	20.92
232.625	12.82
232.842	21.11
233.059	19
233.276	18.35
233.493	13.11
233.71	10.4
233.927	16.05
234.144	24.88
234.361	20.35
234.578	17.59
234.795	15.35
235.012	14.14
235.229	9.45
235.446	11.91
235.663	15.2
235.879	18.46
236.096	13.62
236.313	15.63
236.53	14.42
236.747	22.5
236.964	20.77
237.181	27.89
237.397	26.59
237.614	33.53
237.831	28.34
238.048	24.1
238.264	28.53
238.481	33.08
238.698	34.71
238.915	36.15
239.131	30.6
239.348	32.51
239.565	26.94
239.781	27.51
239.998	31.39
240.215	32.43
240.431	33.95
240.648	27.52
240.865	25.72
241.081	25.99
241.298	22.32
241.514	21.29
241.731	20.77
241.947	19.96
242.164	19.49
242.38	16.79
242.597	17.08
242.814	17.49
243.03	16.96
243.246	19.44
243.463	17.87
243.679	20.53
243.896	21.03
244.112	20.95
244.329	21.93
244.545	22.22
244.762	21.75
244.978	21.1
245.194	21.32
245.411	23.59
245.627	18.77
245.843	19.23
246.06	16.65
246.276	15.27
246.492	14.06
246.709	14.42
246.925	15.02
247.141	14.94
247.357	14.87
247.574	14.52
247.79	13.55
248.006	14.64
248.222	13.61
248.439	13.74
248.655	14.19
248.871	14.01
249.087	13.99
249.303	13.97
249.519	13.42
249.736	15.85
249.952	15.52
250.168	15.41
250.384	15.24
250.6	16.18
250.816	17.03
251.032	15.28
251.248	16.8
251.464	16.82
251.68	15.92
251.896	14.89
252.112	12.26
252.328	11.55
252.544	13.7
252.76	11.73
252.976	12.56
253.192	13.08
253.408	14.57
253.624	14.45
253.84	14.49
254.056	13.92
254.272	15.43
254.487	15.58
254.703	18.73
254.919	19.03
255.135	20.72
255.351	22.15
255.567	22.73
255.782	20.9
255.998	20.91
256.214	19.25
256.43	18.84
256.646	18.71
256.861	20.46
257.077	19.43
257.293	22.27
257.508	22.74
257.724	19.08
257.94	17.52
258.155	18.57
258.371	17.36
258.587	18.63
258.802	19.08
259.018	18.12
259.234	17.02
259.449	15.27
259.665	13.45
259.88	12.55
260.096	12.92
260.312	12.5
260.527	12.06
260.743	11.61
260.958	10.73
261.174	9.9
261.389	10.38
261.605	9.27
261.82	9.59
262.036	10.85
262.251	11.97
262.466	12.42
262.682	13.27
262.897	15.11
263.113	15.77
263.328	16.05
263.543	17.44
263.759	16.75
263.974	16.82
264.189	17.72
264.405	16.35
264.62	16.01
264.835	13.61
265.051	9.47
265.266	10.11
265.481	13.28
265.696	14.23
265.912	13.51
266.127	11.99
266.342	13.52
266.557	14.05
266.773	13.31
266.988	13.15
267.203	14.16
267.418	17.13
267.633	15.49
267.848	14.55
268.064	14.25
268.279	15.26
268.494	15.21
268.709	14.39
268.924	13.73
269.139	14.3
269.354	15.41
269.569	15.21
269.784	13.65
269.999	12.94
270.214	12.07
270.429	12.35
270.644	9.77
270.859	11.56
271.074	11.78
271.289	12.77
271.504	13.98
271.719	12.75
271.934	13.22
272.149	13.34
272.363	13.51
272.578	13.87
272.793	13.49
273.008	15.25
273.223	15.14
273.438	15.52
273.653	16.16
273.867	14.55
274.082	15.7
274.297	15.47
274.512	16.97
274.726	16.09
274.941	17.05
275.156	18.18
275.371	17.63
275.585	17.62
275.8	17.65
276.015	16.03
276.229	16.31
276.444	15.59
276.659	15.74
276.873	14.21
277.088	16.44
277.302	16.57
277.517	15.53
277.732	15.9
277.946	15.97
278.161	16.27
278.375	16.26
278.59	16.34
278.804	15.41
279.019	16.5
279.233	17.68
279.448	17.27
279.662	17.23
279.877	17.51
280.091	16.85
280.306	15.19
280.52	14.41
280.735	15.16
280.949	15.6
281.163	15.81
281.378	14.99
281.592	13.84
281.806	12.78
282.021	11.53
282.235	10.37
282.449	12.13
282.664	12.92
282.878	12.47
283.092	12.36
283.307	12.45
283.521	11.48
283.735	12.37
283.949	13.32
284.164	14.12
284.378	14.28
284.592	14.45
284.806	13.13
285.02	12.58
285.234	13.25
285.449	12.72
285.663	11.7
285.877	12.1
286.091	11.87
286.305	11.7
286.519	11.62
286.733	11.35
286.947	11.34
287.161	11.8
287.375	11.57
287.589	10.84
287.803	9.97
288.017	11.55
288.231	11.12
288.445	11.09
288.659	11.6
288.873	11.03
289.087	10.49
289.301	11.42
289.515	11.27
289.729	11.63
289.943	12.61
290.157	14.09
290.371	12.67
290.584	14.3
290.798	14.78
291.012	13.83
291.226	13.91
291.44	14.54
291.654	13.77
291.867	13.29
292.081	13.31
292.295	12.48
292.509	10.29
292.722	10.17
292.936	9.38
293.15	8.78
293.364	8.12
293.577	9.05
293.791	10.51
294.005	11.51
294.218	11.9
294.432	11.59
294.645	12.39
294.859	14.26
295.073	14.54
295.286	14.27
295.5	13.59
295.713	14.02
295.927	13.59
296.14	12.77
296.354	12.64
296.568	11.08
296.781	10.86
296.994	10.94
297.208	10.13
297.421	10.31
297.635	10.74
297.848	10.66
298.062	10.97
298.275	11.37
298.489	11.44
298.702	11.97
298.915	13.48
299.129	14.42
299.342	14.4
299.555	14.54
299.769	14.28
299.982	14.6
300.195	14.65
300.409	13.96
300.622	13.25
300.835	12.19
301.048	10.15
301.262	9.77
301.475	10.15
301.688	9.8
301.901	10.71
302.115	11.37
302.328	11.24
302.541	10.66
302.754	12.03
302.967	11.32
303.18	11.84
303.393	13.19
303.607	13.05
303.82	12.32
304.033	13.41
304.246	12.89
304.459	12.98
304.672	12.77
304.885	14.96
305.098	15.61
305.311	16.82
305.524	16.55
305.737	16.16
305.95	16.43
306.163	16.93
306.376	15.32
306.589	15.1
306.802	14.96
307.015	15.12
307.228	13.91
307.44	12.68
307.653	12.5
307.866	11.51
308.079	12.4
308.292	13.13
308.505	13.8
308.718	15.56
308.93	16.17
309.143	15.17
309.356	15.87
309.569	16.54
309.781	16.06
309.994	16.74
310.207	18.36
310.42	17.94
310.632	17.63
310.845	17.28
311.058	16.22
311.27	16.58
311.483	17.55
311.696	16.77
311.908	16.41
312.121	15.96
312.333	14.79
312.546	14.57
312.759	15.05
312.971	14.92
313.184	15.16
313.396	15.1
313.609	14.21
313.821	13.85
314.034	13.82
314.246	13.95
314.459	16.04
314.671	17.16
314.884	16.41
315.096	15.3
315.309	15.72
315.521	13.92
315.733	13.96
315.946	14.65
316.158	13.32
316.371	13.58
316.583	12.69
316.795	11.71
317.008	10.7
317.22	11.7
317.432	12.66
317.644	12.82
317.857	13.53
318.069	13.7
318.281	13.55
318.494	17.13
318.706	17.33
318.918	17.53
319.13	16.41
319.342	17.8
319.555	19.53
319.767	19.48
319.979	18.76
320.191	20.59
320.403	21.52
320.615	21.7
320.827	18.99
321.039	19.27
321.252	18.77
321.464	19.78
321.676	19.33
321.888	17.47
322.1	17.46
322.312	19.01
322.524	18.61
322.736	18.07
322.948	18.27
323.16	17.71
323.372	16.03
323.584	16.02
323.796	17.04
324.007	16
324.219	15.38
324.431	14.6
324.643	13.09
324.855	11.65
325.067	11.1
325.279	10.24
325.491	11.51
325.702	11.59
325.914	12.32
326.126	10.32
326.338	11.88
326.55	12.85
326.761	13.14
326.973	14.04
327.185	15.41
327.396	14.92
327.608	15.42
327.82	15.77
328.032	15.54
328.243	15.65
328.455	17.51
328.666	17.1
328.878	16.61
329.09	16.23
329.301	13.82
329.513	13.89
329.725	15.9
329.936	15.51
330.148	14.92
330.359	16.86
330.571	17.41
330.782	16.51
330.994	15.85
331.205	15.63
331.417	16.79
331.628	18.8
331.84	18.78
332.051	18.33
332.262	20.57
332.474	20.1
332.685	18.89
332.897	18.42
333.108	18.19
333.319	18.02
333.531	18.8
333.742	18.78
333.953	17.39
334.165	16.93
334.376	17.45
334.587	15.13
334.799	15.36
335.01	15.2
335.221	14.3
335.432	14.23
335.644	14.35
335.855	13.86
336.066	12.56
336.277	13.29
336.488	13.55
336.7	12.17
336.911	14.4
337.122	14.22
337.333	14.89
337.544	16.29
337.755	16.36
337.966	15.93
338.177	15.58
338.388	15.58
338.599	16.38
338.811	15.31
339.022	15.31
339.233	14.29
339.444	14.18
339.655	12.95
339.866	11.37
340.076	11.55
340.287	11.73
340.498	12.75
340.709	11.1
340.92	9.54
341.131	10.14
341.342	10.04
341.553	9.53
341.764	9.67
341.975	10.88
342.185	10.74
342.396	10.77
342.607	11.25
342.818	10.76
343.029	14.07
343.239	15.05
343.45	15.68
343.661	16.77
343.872	16.33
344.082	15.54
344.293	14.85
344.504	15.5
344.714	15.72
344.925	15.24
345.136	15.34
345.346	15.01
345.557	14.44
345.768	13.93
345.978	12.95
346.189	13.96
346.399	13.98
346.61	13.93
346.821	13.93
347.031	13.64
347.242	13.45
347.452	13.25
347.663	13.15
347.873	12.93
348.084	13.42
348.294	14.03
348.504	12.92
348.715	14.23
348.925	15.04
349.136	15.47
349.346	14.99
349.557	14.56
349.767	14.42
349.977	13.55
350.188	14.3
350.398	14.19
350.608	13.52
350.819	13.64
351.029	12.6
351.239	12.23
351.449	11.4
351.66	11.66
351.87	11.57
352.08	10.76
352.29	10.43
352.501	10.54
352.711	9.37
352.921	9.95
353.131	9.82
353.341	11.14
353.552	10.75
353.762	10.22
353.972	9.75
354.182	10.98
354.392	11.01
354.602	12.59
354.812	12.25
355.022	13.69
355.232	12.81
355.442	13.72
355.652	12.77
355.862	12.97
356.072	12.94
356.282	13.16
356.492	13.28
356.702	13.28
356.912	12.3
357.122	12.51
357.332	12.11
357.542	12.49
357.752	12.02
357.962	12.07
358.171	12.18
358.381	12.46
358.591	13.18
358.801	12.75
359.011	13.32
359.221	12.74
359.43	12.62
359.64	12.89
359.85	12.27
360.06	11.39
360.269	10.64
360.479	10.79
360.689	10.57
360.899	9.96
361.108	9.69
361.318	9.55
361.528	9.21
361.737	9.24
361.947	8.24
362.156	8.69
362.366	9.34
362.576	9.58
362.785	9.59
362.995	9.76
363.204	9.64
363.414	9.94
363.623	10.03
363.833	10.08
364.042	10.07
364.252	10.44
364.461	10.46
364.671	10.03
364.88	9.99
365.09	9.53
365.299	9.6
365.509	9.99
365.718	10.43
365.927	10.01
366.137	10.81
366.346	10.73
366.555	11.03
366.765	11.18
366.974	10.68
367.183	10.95
367.393	10.96
367.602	11.15
367.811	10.57
368.021	9.82
368.23	9.8
368.439	8.93
368.648	8.74
368.857	8.3
369.067	8.81
369.276	9.89
369.485	10.11
369.694	10.65
369.903	10.41
370.112	10.61
370.321	11.11
370.531	11.24
370.74	11.52
370.949	11.36
371.158	11.42
371.367	10.84
371.576	9.99
371.785	9.8
371.994	9.58
372.203	10.14
372.412	10.3
372.621	9.45
372.83	9.62
373.039	10
373.248	10.3
373.457	9.81
373.666	9.43
373.874	10.31
374.083	10.45
374.292	10.47
374.501	9.8
374.71	9.76
374.919	11.38
375.128	10.52
375.336	10.35
375.545	9.97
375.754	10.54
375.963	10.54
376.171	10.31
376.38	10.07
376.589	10.17
376.798	9.74
377.006	9.32
377.215	8.33
377.424	9.11
377.632	9.14
377.841	9.29
378.05	9.96
378.258	10.13
378.467	10.46
378.675	10.93
378.884	10.46
379.093	10.52
379.301	10.55
379.51	10.62
379.718	10.22
379.927	9.97
380.135	9.8
380.344	9.29
380.552	9.26
380.761	7.99
380.969	7.59
381.177	6.98
381.386	7.8
381.594	8.37
381.803	7.57
382.011	7.48
382.219	7.3
382.428	6.96
382.636	6.73
382.845	6.53
383.053	7.32
383.261	7.39
383.469	8
383.678	7.41
383.886	7.14
384.094	7.4
384.302	7.33
384.511	7.41
384.719	7.82
384.927	7.55
385.135	7.65
385.343	7.23
385.552	7.25
385.76	7.08
385.968	7.06
386.176	7.06
386.384	6.97
386.592	6.97
386.8	7.3
387.008	7.2
387.216	7.04
387.424	6.86
387.633	7.07
387.841	6.75
388.049	7.25
388.257	6.81
388.465	6.72
388.672	6.96
388.88	7.22
389.088	7.03
389.296	6.99
389.504	7
389.712	7.51
389.92	7.48
390.128	7.82
390.336	7.27
390.544	7.9
390.751	7.65
390.959	8.07
391.167	7.9
391.375	7.89
391.583	8.1
391.79	8.47
391.998	8.03
392.206	8.01
392.414	7.74
392.621	7.94
392.829	7.57
393.037	7.74
393.244	7.39
393.452	7.36
393.66	6.92
393.867	6.64
394.075	6.59
394.283	6.5
394.49	6.11
394.698	6.42
394.905	6.09
395.113	6.71
395.32	6.72
395.528	6.28
395.735	6.25
395.943	6.56
396.15	6.57
396.358	6.32
396.565	6.55
396.773	6.97
396.98	6.64
397.188	6.97
397.395	6.59
397.602	6.6
397.81	6.62
398.017	6.71
398.225	6.77
398.432	6.8
398.639	6.93
398.847	6.69
399.054	6.42
399.261	6.14
399.468	5.88
399.676	5.78
399.883	5.94
400.09	6.13
400.297	5.94
400.505	6.19
400.712	6.32
400.919	6.38
401.126	6.27
401.333	6.51
401.54	6.74
401.748	6.77
401.955	6.45
402.162	6.17
402.369	6.37
402.576	6.72
402.783	6.39
402.99	6.35
403.197	6.26
403.404	6.4
403.611	6.41
403.818	6.2
404.025	6.16
404.232	6.34
404.439	6.58
404.646	6.44
404.853	6.27
405.06	6.49
405.267	6.58
405.474	6.46
405.681	6.28
405.887	6.3
406.094	6.53
406.301	6.69
406.508	6.33
406.715	5.96
406.922	5.99
407.128	5.93
407.335	5.5
407.542	4.98
407.749	5.02
407.955	5.21
408.162	4.99
408.369	4.8
408.575	4.78
408.782	5.11
408.989	5.3
409.195	5.29
409.402	5.31
409.609	5.28
409.815	5.6
410.022	5.62
410.228	5.81
410.435	5.75
410.642	6.27
410.848	6.02
411.055	6.2
411.261	6.09
411.468	5.94
411.674	5.88
411.881	6.04
412.087	6.01
412.294	5.95
412.5	5.71
412.706	5.7
412.913	5.14
413.119	5.31
413.326	4.97
413.532	5.2
413.738	5.46
413.945	5.46
414.151	5.33
414.357	5.4
414.564	5.35
414.77	5.46
414.976	5.57
415.182	5.44
415.389	5.68
415.595	6.06
415.801	5.89
416.007	5.85
416.214	6.05
416.42	6.09
416.626	5.91
416.832	5.93
417.038	5.99
417.244	5.84
417.45	5.99
417.657	5.66
417.863	5.54
418.069	5.58
418.275	5.51
418.481	5.42
418.687	5.37
418.893	5.64
419.099	5.65
419.305	5.59
419.511	5.6
419.717	5.64
419.923	5.82
420.129	5.81
420.335	5.77
420.541	5.79
420.746	5.7
420.952	5.82
421.158	5.49
421.364	5.49
421.57	5.54
421.776	5.68
421.982	5.59
422.187	5.41
422.393	5.27
422.599	5.21
422.805	5.33
423.01	5.34
423.216	5.23
423.422	5.33
423.628	5.25
423.833	5.18
424.039	5.2
424.245	5.49
424.45	5.62
424.656	5.69
424.862	5.77
425.067	5.63
425.273	5.61
425.478	5.78
425.684	5.81
425.889	5.76
426.095	5.94
426.301	5.8
426.506	5.51
426.712	5.3
426.917	5.45
427.123	5.43
427.328	5.35
427.533	5.33
427.739	5.11
427.944	5.11
428.15	5.19
428.355	4.88
428.561	4.85
428.766	4.75
428.971	4.97
429.177	4.79
429.382	4.75
429.587	4.79
429.793	4.87
429.998	5.06
430.203	5.14
430.408	5.21
430.614	5.33
430.819	5.63
431.024	5.68
431.229	5.6
431.434	5.64
431.64	5.67
431.845	5.68
432.05	5.67
432.255	5.25
432.46	5.24
432.665	5.23
432.87	5.13
433.076	4.97
433.281	5.08
433.486	5.01
433.691	5.02
433.896	4.78
434.101	4.73
434.306	4.77
434.511	5.17
434.716	5.41
434.921	5.61
435.126	5.61
435.331	5.58
435.535	5.53
435.74	5.71
435.945	5.74
436.15	6.07
436.355	6.3
436.56	6.19
436.765	6.13
436.97	6.04
437.174	5.88
437.379	5.84
437.584	5.9
437.789	6.03
437.993	6.08
438.198	6.04
438.403	5.81
438.608	5.65
438.812	5.67
439.017	5.6
439.222	5.39
439.426	5.52
439.631	5.56
439.836	5.52
440.04	5.33
440.245	5.24
440.45	5.25
440.654	5.42
440.859	5.51
441.063	5.6
441.268	5.35
441.472	5.34
441.677	5.32
441.881	5.32
442.086	5.31
442.29	5.31
442.495	5.26
442.699	5.15
442.904	5.04
443.108	4.94
443.312	4.97
443.517	5.24
443.721	5.11
443.925	4.95
444.13	5.12
444.334	5.16
444.538	5.23
444.743	5.18
444.947	5.3
445.151	5.15
445.356	5.21
445.56	5.34
445.764	5.13
445.968	5.22
446.173	5.24
446.377	5.13
446.581	5.14
446.785	5.16
446.989	5.21
447.193	5.23
447.398	5.39
447.602	5.35
447.806	5.17
448.01	5.47
448.214	5.46
448.418	5.42
448.622	5.43
448.826	5.26
449.03	5.21
449.234	5.33
449.438	5.24
449.642	5.09
449.846	5.1
450.05	4.86
450.254	4.6
450.458	4.81
450.662	4.78
450.866	4.6
451.069	4.71
451.273	4.59
451.477	4.46
451.681	4.49
451.885	4.5
452.089	4.35
452.292	4.46
452.496	4.52
452.7	4.43
452.904	4.56
453.107	4.82
453.311	4.84
453.515	5.09
453.719	5.24
453.922	5.26
454.126	5.38
454.33	5.56
454.533	5.72
454.737	5.72
454.94	5.86
455.144	5.82
455.348	5.68
455.551	5.54
455.755	5.4
455.958	5.17
456.162	5.13
456.365	5.18
456.569	5.1
456.772	4.94
456.976	4.94
457.179	4.59
457.383	4.77
457.586	4.86
457.79	4.89
457.993	5.02
458.196	5.06
458.4	5.15
458.603	5.03
458.807	5.1
459.01	5.04
459.213	5.02
459.417	5.1
459.62	4.93
459.823	4.89
460.026	4.99
460.23	4.89
460.433	4.68
460.636	4.71
460.839	4.71
461.042	4.66
461.246	4.71
461.449	4.83
461.652	4.83
461.855	5
462.058	4.97
462.261	4.86
462.464	5
462.668	5.25
462.871	5.06
463.074	5.2
463.277	5.25
463.48	5.44
463.683	5.34
463.886	5.56
464.089	5.27
464.292	5.35
464.495	5.36
464.698	5.11
464.901	4.99
465.104	5.09
465.306	5.02
465.509	4.95
465.712	4.83
465.915	4.71
466.118	4.6
466.321	4.67
466.524	4.58
466.726	4.73
466.929	4.86
467.132	4.83
467.335	4.61
467.538	4.54
467.74	4.56
467.943	4.72
468.146	4.8
468.348	4.58
468.551	4.52
468.754	4.55
468.956	4.51
469.159	4.34
469.362	4.51
469.564	4.91
469.767	5.03
469.969	5
470.172	4.94
470.375	4.88
470.577	5.03
470.78	5.08
470.982	4.96
471.185	4.8
471.387	4.99
471.59	4.8
471.792	4.6
471.995	4.52
472.197	4.49
472.399	4.34
472.602	4.45
472.804	4.43
473.007	4.41
473.209	4.59
473.411	4.85
473.614	4.84
473.816	4.97
474.018	5.01
474.22	4.94
474.423	5.03
474.625	5.12
474.827	5.01
475.03	4.95
475.232	5.21
475.434	5.08
475.636	4.82
475.838	4.72
476.04	4.98
476.243	4.88
476.445	4.9
476.647	4.9
476.849	4.65
477.051	4.86
477.253	5.04
477.455	4.89
477.657	4.99
477.859	5.15
478.061	5.13
478.263	5.12
478.465	5.28
478.667	5.39
478.869	5.39
479.071	5.51
479.273	5.32
479.475	5.28
479.677	5.26
479.879	5.1
480.081	4.99
480.283	4.99
480.485	4.91
480.686	4.77
480.888	4.62
481.09	4.6
481.292	4.77
481.494	4.73
481.695	4.72
481.897	4.68
482.099	4.83
482.301	4.85
482.502	4.79
482.704	4.75
482.906	4.82
483.107	4.8
483.309	4.73
483.511	4.71
483.712	4.7
483.914	4.7
484.115	4.7
484.317	4.67
484.519	4.64
484.72	4.67
484.922	4.64
485.123	4.58
485.325	4.57
485.526	4.52
485.728	4.48
485.929	4.46
486.131	4.45
486.332	4.44
486.534	4.38
486.735	4.37
486.936	4.34
487.138	4.33
487.339	4.32
487.541	4.33
487.742	4.42
487.943	4.39
488.144	4.43
488.346	4.44
488.547	4.5
488.748	4.55
488.95	4.6
489.151	4.63
489.352	4.67
489.553	4.71
489.755	4.72
489.956	4.72
490.157	4.77
490.358	4.82
490.559	4.76
490.76	4.57
490.961	4.52
491.163	4.52
491.364	4.49
491.565	4.53
491.766	4.5
491.967	4.52
492.168	4.58
492.369	4.53
492.57	4.52
492.771	4.51
492.972	4.63
493.173	4.61
493.374	4.75
493.575	4.83
493.776	4.92
493.976	4.97
494.177	4.89
494.378	4.81
494.579	4.98
494.78	4.92
494.981	5.04
495.182	5.14
495.382	5.29
495.583	5.11
495.784	5.05
495.985	4.93
496.185	5.01
496.386	5.12
496.587	5.03
496.788	4.92
496.988	4.87
497.189	4.88
497.39	4.79
497.59	4.72
497.791	4.69
497.992	4.69
498.192	4.62
498.393	4.61
498.593	4.69
498.794	4.93
498.994	5.01
499.195	5.22
499.395	5.18
499.596	5.3
499.796	5.4
499.997	5.46
500.197	5.38
500.398	5.46
500.598	5.44
500.799	5.63
500.999	5.46
501.199	5.47
501.4	5.26
501.6	5.21
501.801	5.19
502.001	5.1
502.201	5.18
502.402	5.4
502.602	5.26
502.802	5.22
503.002	4.83
503.203	4.97
503.403	5.02
503.603	5.16
503.803	5.38
504.003	5.28
504.204	5.23
504.404	5.36
504.604	5.23
504.804	5.48
505.004	5.67
505.204	6.04
505.404	6.04
505.604	6.01
505.804	5.95
506.005	5.78
506.205	5.88
506.405	6.04
506.605	5.78
506.805	5.77
507.005	5.75
507.204	5.76
507.404	5.48
507.604	5.5
507.804	5.44
508.004	5.6
508.204	5.82
508.404	5.87
508.604	5.95
508.804	5.95
509.003	6.08
509.203	6.2
509.403	6.22
509.603	6.37
509.803	6.41
510.002	6.42
510.202	6.42
510.402	6.22
510.602	6.23
510.801	6.16
511.001	6.24
511.201	6.29
511.4	6.2
511.6	6.1
511.8	6.17
511.999	6.06
512.199	6.07
512.398	5.9
512.598	6.07
512.797	6.14
512.997	6.29
513.197	6.41
513.396	6.34
513.596	6.37
513.795	6.51
513.994	6.49
514.194	6.54
514.393	6.53
514.593	6.71
514.792	6.66
514.992	6.56
515.191	6.46
515.39	6.36
515.59	6.52
515.789	6.48
515.988	6.39
516.188	6.42
516.387	6.64
516.586	6.73
516.786	6.77
516.985	6.67
517.184	6.76
517.383	6.72
517.582	6.84
517.782	6.84
517.981	6.87
518.18	6.93
518.379	6.92
518.578	6.82
518.777	6.85
518.976	6.9
519.176	6.93
519.375	6.9
519.574	6.96
519.773	6.86
519.972	6.87
520.171	6.91
520.37	6.83
520.569	6.9
520.768	6.91
520.967	6.86
521.166	6.92
521.365	7.12
521.564	7.2
521.762	7.28
521.961	7.34
522.16	7.36
522.359	7.33
522.558	7.4
522.757	7.26
522.956	7.31
523.154	7.47
523.353	7.34
523.552	7.31
523.751	7.38
523.949	7.4
524.148	7.47
524.347	7.55
524.546	7.46
524.744	7.33
524.943	7.4
525.142	7.48
525.34	7.43
525.539	7.36
525.737	7.34
525.936	7.28
526.135	7.33
526.333	7.36
526.532	7.33
526.73	7.48
526.929	7.64
527.127	7.73
527.326	7.66
527.524	7.75
527.723	7.85
527.921	7.86
528.12	7.93
528.318	7.88
528.516	7.88
528.715	7.87
528.913	7.87
529.112	7.81
529.31	7.78
529.508	7.81
529.707	7.77
529.905	7.75
530.103	7.74
530.301	7.67
530.5	7.62
530.698	7.6
530.896	7.65
531.094	7.7
531.293	7.83
531.491	7.94
531.689	7.94
531.887	8.04
532.085	8.11
532.283	8.22
532.481	8.3
532.68	8.43
532.878	8.55
533.076	8.55
533.274	8.54
533.472	8.51
533.67	8.41
533.868	8.52
534.066	8.53
534.264	8.57
534.462	8.59
534.66	8.65
534.858	8.65
535.056	8.65
535.253	8.71
535.451	8.79
535.649	8.89
535.847	8.96
536.045	8.9
536.243	8.89
536.441	8.89
536.638	8.91
536.836	8.9
537.034	8.94
537.232	8.93
537.43	8.93
537.627	8.95
537.825	8.91
538.023	9.05
538.22	9.17
538.418	9.22
538.616	9.2
538.813	9.12
539.011	9.01
539.209	9.17
539.406	9.13
539.604	9.12
539.801	9.12
539.999	9.18
540.196	9.23
540.394	9.35
540.591	9.51
540.789	9.68
540.986	9.67
541.184	9.77
541.381	9.76
541.579	9.85
541.776	9.86
541.974	9.86
542.171	9.94
542.368	9.91
542.566	9.95
542.763	9.79
542.96	9.78
543.158	9.88
543.355	9.88
543.552	9.9
543.75	9.9
543.947	10.04
544.144	10.02
544.341	10.02
544.539	10.02
544.736	9.99
544.933	10.15
545.13	10.05
545.327	10.08
545.524	10.19
545.722	10.14
545.919	10.25
546.116	10.29
546.313	10.26
546.51	10.28
546.707	10.44
546.904	10.42
547.101	10.43
547.298	10.49
547.495	10.47
547.692	10.37
547.889	10.38
548.086	10.33
548.283	10.3
548.48	10.56
548.677	10.65
548.874	10.67
549.07	10.69
549.267	10.8
549.464	11
549.661	10.99
549.858	11.04
550.055	11.12
550.251	11.09
550.448	11.05
550.645	10.94
550.842	11.23
551.038	11.15
551.235	11.35
551.432	11.43
551.628	11.45
551.825	11.66
552.022	11.87
552.218	11.95
552.415	12.05
552.612	12.09
552.808	12.25
553.005	12
553.201	12.06
553.398	11.93
553.594	11.94
553.791	12.05
553.987	11.94
554.184	11.82
554.38	11.97
554.577	11.86
554.773	12.16
554.97	12.27
555.166	12.38
555.362	12.37
555.559	12.67
555.755	12.56
555.952	12.49
556.148	12.77
556.344	12.96
556.541	13.09
556.737	13.21
556.933	13.17
557.129	13.07
557.326	13.17
557.522	13.22
557.718	13.25
557.914	13.52
558.11	13.58
558.307	13.43
558.503	13.42
558.699	13.18
558.895	13.23
559.091	13.11
559.287	13.08
559.483	12.89
559.679	12.86
559.876	12.62
560.072	12.39
560.268	12.41
560.464	12.5
560.66	12.63
560.856	12.76
561.052	12.86
561.247	12.92
561.443	12.76
561.639	12.94
561.835	13.12
562.031	13.24
562.227	13.59
562.423	13.51
562.619	13.66
562.815	13.62
563.01	13.56
563.206	13.56
563.402	13.72
563.598	14.01
563.793	13.85
563.989	13.73
564.185	13.75
564.381	13.54
564.576	13.7
564.772	13.62
564.968	13.5
565.163	13.48
565.359	13.35
565.555	13.39
565.75	13.33
565.946	13.36
566.141	13.52
566.337	13.6
566.532	13.72
566.728	13.67
566.923	13.69
567.119	13.67
567.314	13.96
567.51	13.99
567.705	13.94
567.901	13.93
568.096	14.05
568.292	13.94
568.487	13.76
568.682	13.65
568.878	13.71
569.073	13.7
569.268	13.93
569.464	13.88
569.659	14.04
569.854	14.01
570.05	14.2
570.245	14.28
570.44	14.32
570.635	14.31
570.831	14.45
571.026	14.37
571.221	14.15
571.416	14.26
571.611	14.18
571.806	14.27
572.002	14.29
572.197	14.28
572.392	14.22
572.587	14.19
572.782	14.27
572.977	14.2
573.172	14.4
573.367	14.65
573.562	14.52
573.757	14.43
573.952	14.48
574.147	14.42
574.342	14.37
574.537	14.3
574.732	14.32
574.927	14.34
575.121	14.26
575.316	14.32
575.511	14.39
575.706	14.49
575.901	14.54
576.096	14.51
576.29	14.57
576.485	14.65
576.68	14.85
576.875	15.09
577.069	15.17
577.264	15.33
577.459	15.04
577.654	15.02
577.848	15.03
578.043	15.07
578.238	15.11
578.432	14.95
578.627	14.85
578.821	14.98
579.016	15.03
579.21	15.1
579.405	15.04
579.6	15.2
579.794	15.29
579.989	15.09
580.183	15.08
580.378	15.13
580.572	15.46
580.766	15.51
580.961	15.28
581.155	15.09
581.35	15.17
581.544	15.57
581.738	15.83
581.933	15.69
582.127	16.01
582.321	16.09
582.516	16.02
582.71	15.86
582.904	16.24
583.099	16.26
583.293	16.21
583.487	16.02
583.681	15.69
583.875	15.36
584.07	15.36
584.264	15.22
584.458	15.32
584.652	15.44
584.846	15.67
585.04	15.53
585.234	15.5
585.428	15.68
585.623	15.76
585.817	15.84
586.011	15.83
586.205	15.81
586.399	15.87
586.593	15.96
586.787	15.65
586.981	15.51
587.174	15.43
587.368	15.82
587.562	15.8
587.756	15.66
587.95	15.84
588.144	16.14
588.338	16.32
588.532	16.35
588.725	15.92
588.919	16.02
589.113	16.05
589.307	16.03
589.501	15.71
589.694	15.71
589.888	16.12
590.082	16
590.275	15.63
590.469	15.51
590.663	15.65
590.856	15.91
591.05	15.94
591.244	15.67
591.437	15.76
591.631	15.84
591.824	15.85
592.018	15.51
592.212	15.47
592.405	15.73
592.599	15.58
592.792	15.44
592.986	15.63
593.179	15.97
593.372	16.25
593.566	16.17
593.759	16.04
593.953	16.08
594.146	16.2
594.339	16.21
594.533	16.19
594.726	16.3
594.92	16.25
595.113	16
595.306	16.01
595.499	16.21
595.693	16.35
595.886	16.6
596.079	16.74
596.272	16.86
596.466	17.06
596.659	17.34
596.852	17.46
597.045	17.39
597.238	17.35
597.431	17.13
597.624	17.3
597.818	17.07
598.011	16.97
598.204	17.04
598.397	16.9
598.59	16.45
598.783	16.16
598.976	16.27
599.169	16.23
599.362	16.62
599.555	16.62
599.748	16.26
599.941	16.53
600.134	16.75
600.326	16.41
600.519	16.49
600.712	17.11
600.905	17.04
601.098	16.82
601.291	17.14
601.483	17.09
601.676	17.12
601.869	17.2
602.062	17.08
602.255	17.01
602.447	16.99
602.64	16.95
602.833	16.72
603.025	16.83
603.218	16.88
603.411	16.84
603.603	16.62
603.796	16.8
603.989	16.71
604.181	16.68
604.374	16.69
604.566	16.8
604.759	16.73
604.951	16.67
605.144	16.77
605.336	16.89
605.529	16.9
605.721	16.83
605.914	16.5
606.106	16.7
606.299	16.88
606.491	16.72
606.683	16.89
606.876	16.94
607.068	17.16
607.26	17.17
607.453	17.22
607.645	17.3
607.837	17.52
608.03	17.53
608.222	17.12
608.414	17.19
608.606	17.21
608.799	17.06
608.991	17.08
609.183	16.86
609.375	16.77
609.567	16.66
609.759	16.56
609.952	16.54
610.144	16.67
610.336	16.68
610.528	16.38
610.72	16.44
610.912	16.35
611.104	16.32
611.296	16.22
611.488	16.2
611.68	16.09
611.872	16.17
612.064	16.12
612.256	15.96
612.448	15.97
612.64	16.32
612.832	16.33
613.023	16.51
613.215	16.43
613.407	16.81
613.599	16.85
613.791	16.87
613.983	16.93
614.174	17.16
614.366	17.2
614.558	17.04
614.75	16.77
614.941	16.8
615.133	16.82
615.325	16.96
615.516	16.89
615.708	16.89
615.9	16.92
616.091	16.69
616.283	16.73
616.475	17.18
616.666	17.33
616.858	17.26
617.049	17.21
617.241	17.13
617.432	17.27
617.624	17.31
617.815	17.54
618.007	17.68
618.198	17.84
618.39	17.65
618.581	17.65
618.773	17.8
618.964	17.98
619.155	18.07
619.347	18.31
619.538	18.06
619.729	18.17
619.921	17.59
620.112	17.6
620.303	17.29
620.494	17.37
620.686	17.22
620.877	17.05
621.068	17.09
621.259	17.02
621.451	16.6
621.642	16.74
621.833	16.45
622.024	16.89
622.215	16.59
622.406	16.81
622.597	16.82
622.788	16.78
622.98	17.07
623.171	17.09
623.362	17.22
623.553	17.55
623.744	17.77
623.935	17.85
624.126	17.73
624.317	17.82
624.508	17.78
624.698	17.54
624.889	17.65
625.08	17.88
625.271	17.96
625.462	17.81
625.653	17.58
625.844	17.39
626.034	17.53
626.225	17.79
626.416	17.98
626.607	18.07
626.798	18.12
626.988	18.05
627.179	17.94
627.37	17.81
627.56	17.69
627.751	17.3
627.942	17.38
628.132	17.31
628.323	17.31
628.514	17.22
628.704	17.1
628.895	17.45
629.085	17.37
629.276	17.36
629.466	17.31
629.657	17.57
629.847	18.2
630.038	18.14
630.228	18.1
630.419	17.95
630.609	18.21
630.8	18.38
630.99	17.96
631.181	18.31
631.371	18.01
631.561	18.26
631.752	18.34
631.942	18.06
632.132	18.03
632.323	18.3
632.513	18.22
632.703	17.84
632.893	17.75
633.084	17.99
633.274	17.93
633.464	18.14
633.654	18.08
633.844	18.03
634.034	17.99
634.225	18.15
634.415	18.04
634.605	17.89
634.795	18
634.985	18.29
635.175	18.17
635.365	18.02
635.555	17.89
635.745	17.74
635.935	17.64
636.125	17.54
636.315	17.43
636.505	17.43
636.695	17.22
636.885	17.05
637.075	16.68
637.265	16.67
637.455	16.42
637.644	16.58
637.834	16.6
638.024	16.7
638.214	16.64
638.404	16.73
638.593	16.71
638.783	17.24
638.973	17.36
639.163	17.43
639.352	17.62
639.542	18.08
639.732	18.12
639.921	18.23
640.111	18.05
640.301	18.45
640.49	18.38
640.68	18.28
640.87	17.72
641.059	17.91
641.249	18.07
641.438	18.16
641.628	17.66
641.817	17.31
642.007	17.12
642.196	17.59
642.386	17.76
642.575	18.04
642.764	18.37
642.954	19.12
643.143	19.16
643.333	18.85
643.522	18.64
643.711	18.76
643.901	19.41
644.09	19.77
644.279	19.35
644.469	19.18
644.658	18.82
644.847	18.56
645.036	18.73
645.226	18.53
645.415	18.83
645.604	19.09
645.793	19.29
645.982	18.76
646.171	18.73
646.361	18.99
646.55	18.85
646.739	18.99
646.928	19.01
647.117	18.48
647.306	18.53
647.495	18.05
647.684	17.78
647.873	17.93
648.062	18.38
648.251	17.96
648.44	17.49
648.629	17.56
648.818	17.72
649.007	17.74
649.196	18.01
649.384	17.92
649.573	18.58
649.762	18.66
649.951	18.52
650.14	18.31
650.328	18.64
650.517	19.12
650.706	19.23
650.895	18.91
651.083	18.38
651.272	18.11
651.461	18.22
651.65	18.48
651.838	18.37
652.027	18.45
652.216	18.29
652.404	18.2
652.593	18.3
652.781	18.2
652.97	18.37
653.158	18.63
653.347	19.19
653.535	19.3
653.724	18.76
653.912	18.95
654.101	18.9
654.289	19.07
654.478	19.16
654.666	18.75
654.855	18.78
655.043	18.66
655.231	18.76
655.42	18.62
655.608	18.49
655.796	18.68
655.985	18.82
656.173	18.7
656.361	18.77
656.55	19.06
656.738	19.33
656.926	19.38
657.114	19.9
657.302	20.21
657.491	19.66
657.679	19.75
657.867	19.62
658.055	19.33
658.243	19.38
658.431	18.99
658.619	18.43
658.807	18.26
658.996	18.23
659.184	17.83
659.372	17.94
659.56	18.16
659.748	18.2
659.936	18.03
660.124	18.21
660.311	18.42
660.499	18.65
660.687	18.97
660.875	18.9
661.063	18.79
661.251	18.76
661.439	18.75
661.627	18.74
661.814	19.15
662.002	19.14
662.19	19.05
662.378	18.78
662.565	18.67
662.753	19.12
662.941	19.17
663.129	19.39
663.316	19.5
663.504	19.65
663.692	19.35
663.879	18.49
664.067	18.4
664.254	17.92
664.442	17.96
664.63	18.35
664.817	17.9
665.005	18.05
665.192	18.04
665.38	18.28
665.567	17.98
665.755	18.28
665.942	18.67
666.13	19.17
666.317	19.56
666.504	19.44
666.692	19
666.879	19.04
667.067	18.74
667.254	18.77
667.441	18.59
667.629	18.53
667.816	18.61
668.003	18.24
668.19	17.72
668.378	17.65
668.565	17.97
668.752	18.14
668.939	18.46
669.127	18.98
669.314	18.87
669.501	18.97
669.688	18.72
669.875	18.76
670.062	19.33
670.249	19.64
670.436	19.9
670.623	19.35
670.81	19.49
670.997	19.18
671.184	18.94
671.371	19.28
671.558	19.42
671.745	19.68
671.932	19.58
672.119	19.19
672.306	19.26
672.493	19.48
672.68	20.28
672.867	20.14
673.054	20.23
673.24	20.93
673.427	20.72
673.614	20.31
673.801	19.97
673.988	19.94
674.174	19.61
674.361	19.8
674.548	19.21
674.734	18.74
674.921	18.98
675.108	19.2
675.294	18.28
675.481	18.18
675.668	18.73
675.854	18.87
676.041	18.84
676.227	18.87
676.414	19.34
676.601	20.07
676.787	20.7
676.974	20.15
677.16	19.45
677.347	19.81
677.533	19.78
677.719	19.81
677.906	19.76
678.092	20.08
678.279	20.33
678.465	19.93
678.651	19.26
678.838	18.84
679.024	19.33
679.21	19.38
679.397	19.3
679.583	19.85
679.769	19.51
679.955	19.59
680.142	19.31
680.328	19.3
680.514	19.01
680.7	19.03
680.886	19.08
681.073	19.13
681.259	19.33
681.445	19.15
681.631	18.59
681.817	18.67
682.003	18.46
682.189	18.4
682.375	18.31
682.561	18.57
682.747	18.73
682.933	18.68
683.119	18.26
683.305	18.6
683.491	18.98
683.677	19.35
683.863	18.93
684.049	19.06
684.235	19.1
684.42	19.41
684.606	19.28
684.792	19.56
684.978	19.83
685.164	20.34
685.349	20.29
685.535	20.15
685.721	19.95
685.907	19.92
686.092	20.08
686.278	20.23
686.464	20.51
686.649	20.18
686.835	19.95
687.021	20.45
687.206	20.23
687.392	19.67
687.577	19.53
687.763	19.52
687.948	19.89
688.134	20.11
688.319	20.12
688.505	19.85
688.69	20.55
688.876	20.51
689.061	19.56
689.247	19.42
689.432	19.5
689.618	19.12
689.803	19.34
689.988	19.51
690.174	19.39
690.359	19.43
690.544	19.94
690.73	19.68
690.915	19.91
691.1	19.94
691.285	20.51
691.471	20.63
691.656	21
691.841	20.86
692.026	20.77
692.211	20.54
692.396	20.55
692.582	19.64
692.767	19.84
692.952	19.72
693.137	20.06
693.322	19.62
693.507	19.59
693.692	19.6
693.877	19.12
694.062	19.88
694.247	20.48
694.432	20.52
694.617	21.02
694.802	20.96
694.987	20.88
695.172	20.62
695.357	20.69
695.541	21.24
695.726	21.36
695.911	21.33
696.096	20.74
696.281	19.74
696.466	19.45
696.65	19.3
696.835	19.65
697.02	19.72
697.204	19.61
697.389	19.68
697.574	19.24
697.759	19.28
697.943	19.49
698.128	19.64
698.312	20.1
698.497	20.19
698.682	19.93
698.866	19.66
699.051	19.74
699.235	19.96
699.42	19.93
699.604	20.1
699.789	20.08
699.973	20.41
700.158	19.92
700.342	20.07
700.527	20.44
700.711	21.23
700.895	21.28
701.08	21.49
701.264	21.91
701.448	21.79
701.633	21.38
701.817	22.24
702.001	22.09
702.186	23.17
702.37	23.56
702.554	23
702.738	22.17
702.923	22.42
703.107	21.75
703.291	21.05
703.475	21.5
703.659	22.29
703.843	21.2
704.027	21.66
704.212	20.36
704.396	20.04
704.58	20.63
704.764	21.93
704.948	21.31
705.132	22.13
705.316	21.64
705.5	21.9
705.684	22.43
705.868	23.17
706.052	22.4
706.235	22.84
706.419	22.33
706.603	22.19
706.787	21.7
706.971	21.89
707.155	21.23
707.339	21.21
707.522	20.51
707.706	19.99
707.89	19.61
708.074	20.65
708.257	20.98
708.441	20.92
708.625	20.56
708.808	20.8
708.992	20.79
709.176	20.93
709.359	21.35
709.543	21.84
709.727	21.86
709.91	22.11
710.094	20.94
710.277	20.78
710.461	21.82
710.644	21.99
710.828	21.27
711.011	21.7
711.195	21.76
711.378	21.82
711.562	21.27
711.745	20.99
711.928	19.98
712.112	20.65
712.295	20.03
712.478	18.51
712.662	19.25
712.845	19.97
713.028	19.71
713.212	19.97
713.395	20.32
713.578	20.94
713.761	20.75
713.945	22.09
714.128	21.98
714.311	22.1
714.494	22.68
714.677	21.95
714.86	20.96
715.043	20.64
715.227	20.33
715.41	20.25
715.593	19.53
715.776	19.75
715.959	19.44
716.142	19.64
716.325	19.76
716.508	20.63
716.691	20.77
716.874	21.29
717.057	21.4
717.239	21.85
717.422	22.15
717.605	22.85
717.788	22.37
717.971	22.29
718.154	22.45
718.337	23.3
718.519	22.77
718.702	22.95
718.885	22.75
719.068	22.68
719.25	23.19
719.433	22.84
719.616	22.31
719.798	22.91
719.981	22.44
720.164	21.61
720.346	21.57
720.529	22.55
720.712	22.59
720.894	23.91
721.077	24.02
721.259	23.38
721.442	23.21
721.624	23.24
721.807	23.2
721.989	23.51
722.172	24.61
722.354	24.51
722.537	23.29
722.719	23.21
722.901	23.02
723.084	23.26
723.266	22.65
723.448	23.11
723.631	22.73
723.813	22.16
723.995	21.88
724.178	20.64
724.36	21.47
724.542	21.7
724.724	21.51
724.907	20.48
725.089	20.61
725.271	22.23
725.453	23.41
725.635	24.73
725.817	25.69
725.999	26.08
726.181	26.14
726.364	25.41
726.546	25.96
726.728	26.91
726.91	27.56
727.092	25.74
727.274	24.99
727.456	23.87
727.638	23.31
727.819	23.96
728.001	23.42
728.183	23.57
728.365	24.01
728.547	23.29
728.729	22.47
728.911	21.59
729.093	22.17
729.274	21.46
729.456	21.47
729.638	21.36
729.82	20.04
730.001	20.68
730.183	20.08
730.365	18.79
730.546	19.01
730.728	19.12
730.91	19.65
731.091	21.44
731.273	21.51
731.455	21.94
731.636	22.7
731.818	23.13
731.999	22.67
732.181	23.33
732.362	23.68
732.544	23.86
732.725	23.38
732.907	22.46
733.088	21.44
733.27	22.18
733.451	21.75
733.633	21.07
733.814	20.87
733.995	20.29
734.177	20.1
734.358	20.95
734.539	21.04
734.721	22.1
734.902	23.05
735.083	21.86
735.264	21.88
735.446	21.82
735.627	22.09
735.808	21.93
735.989	23.28
736.17	24.18
736.351	22.62
736.533	22.02
736.714	20.5
736.895	19.93
737.076	21.17
737.257	20.29
737.438	20.36
737.619	20.39
737.8	22.01
737.981	21.52
738.162	21.36
738.343	21.74
738.524	22.2
738.705	23.21
738.886	24.07
739.067	24.59
739.247	26.03
739.428	26.9
739.609	26.17
739.79	25.06
739.971	26.11
740.151	26.13
740.332	27.67
740.513	27.14
740.694	26.53
740.874	25.57
741.055	26.21
741.236	25.9
741.417	25.26
741.597	26.85
741.778	26.2
741.958	25.84
742.139	25.78
742.32	25.73
742.5	25.02
742.681	25.74
742.861	26.36
743.042	26.23
743.222	25.04
743.403	25.23
743.583	23.99
743.764	25.67
743.944	25.04
744.124	24.69
744.305	23.03
744.485	24.52
744.666	25.08
744.846	23.91
745.026	23.58
745.207	24.48
745.387	24.15
745.567	24.91
745.747	24.21
745.928	24.56
746.108	24.62
746.288	26.07
746.468	26.93
746.648	26.08
746.829	28.93
747.009	28.52
747.189	28.01
747.369	27.62
747.549	25.54
747.729	24.4
747.909	23.81
748.089	24.42
748.269	24.52
748.449	23.6
748.629	23.96
748.809	22.52
748.989	21.75
749.169	22.85
749.349	23.15
749.529	23.98
749.709	24.85
749.889	24.73
750.068	24.19
750.248	23.3
750.428	23.73
750.608	23.18
750.788	23.23
750.967	23.87
751.147	23.95
751.327	23.32
751.507	24.51
751.686	24.33
751.866	24.1
752.046	24.61
752.225	24.36
752.405	23.47
752.585	23.93
752.764	23.16
752.944	23.17
753.123	23.59
753.303	23.87
753.482	23.23
753.662	23.48
753.841	24.28
754.021	23.04
754.2	24.02
754.38	24.47
754.559	24.48
754.739	24.61
754.918	23.5
755.097	20.85
755.277	20.76
755.456	21.42
755.635	20.5
755.815	19.33
755.994	20.82
756.173	19.18
756.352	17.95
756.532	17.56
756.711	17.41
756.89	17.4
757.069	19.51
757.248	19.69
757.427	19.31
757.607	21.96
757.786	22.61
757.965	23.08
758.144	24.89
758.323	26.3
758.502	26.14
758.681	26.69
758.86	28.52
759.039	28.6
759.218	29.94
759.397	31.46
759.576	30.2
759.755	30.05
759.934	29.46
760.113	27.97
760.291	27.12
760.47	26.96
760.649	26.63
760.828	25.11
761.007	25.13
761.186	23.59
761.364	22.61
761.543	21.74
761.722	22.87
761.901	21.99
762.079	22.61
762.258	23.28
762.437	24.69
762.615	24.58
762.794	25.2
762.972	23.93
763.151	23.87
763.33	23.52
763.508	23.81
763.687	22.83
763.865	23.01
764.044	22.75
764.222	22.51
764.401	21.44
764.579	21.48
764.758	22.41
764.936	24.1
765.114	24.22
765.293	24.1
765.471	25.53
765.65	27.05
765.828	27.68
766.006	28.75
766.184	28.32
766.363	29.11
766.541	28.64
766.719	28.17
766.898	29.25
767.076	28.85
767.254	29.43
767.432	29.61
767.61	28.78
767.788	27.44
767.967	25.72
768.145	26.34
768.323	26.98
768.501	28.52
768.679	28.43
768.857	25.05
769.035	26.22
769.213	25.54
769.391	21.91
769.569	21.96
769.747	25.47
769.925	25.73
770.103	25.47
770.281	22.52
770.459	22.88
770.636	20.93
770.814	21.24
770.992	20.65
771.17	20.72
771.348	23.66
771.525	22.24
771.703	21.91
771.881	22.07
772.059	24.4
772.236	28.02
772.414	24.94
772.592	26.75
772.769	29.11
772.947	30.32
773.125	30.39
773.302	29.28
773.48	32.69
773.657	32.52
773.835	32.23
774.013	30.83
774.19	31.26
774.368	33.4
774.545	32.13
774.723	30.63
774.9	30.18
775.077	29.26
775.255	29.8
775.432	29.12
775.61	27.95
775.787	28.68
775.964	28.45
776.142	26.83
776.319	26.36
776.496	26.99
776.674	25.68
776.851	25.61
777.028	27.2
777.205	26.17
777.382	24.08
777.56	24.36
777.737	24.85
777.914	22.92
778.091	23.38
778.268	23.54
778.445	24.34
778.622	24.57
778.8	25.25
778.977	24.97
779.154	26.18
779.331	26.92
779.508	24.58
779.685	22.42
779.862	25.85
780.038	21.93
780.215	24.02
780.392	22.33
780.569	21.74
780.746	21.52
780.923	21.95
781.1	21.72
781.277	23.13
781.453	23.84
781.63	25.57
781.807	24.88
781.984	25.9
782.16	23.61
782.337	25.3
782.514	28.58
782.691	28.61
782.867	26.83
783.044	26.45
783.221	25.13
783.397	27.21
783.574	26.59
783.75	26.99
783.927	28.22
784.103	30.44
784.28	31.48
784.456	27
784.633	29.74
784.809	32.75
784.986	30.79
785.162	29.65
785.339	29.87
785.515	31.87
785.692	31.65
785.868	35.42
786.044	35.04
786.221	30.16
786.397	31.83
786.573	30.55
786.749	29.82
786.926	29.47
787.102	31.17
787.278	29.02
787.454	27.6
787.631	28.64
787.807	27.37
787.983	27.68
788.159	31.4
788.335	31.05
788.511	29.94
788.687	31.23
788.863	35.52
789.039	34.65
789.216	37.07
789.392	39.83
789.568	36.75
789.744	37.66
789.919	36.17
790.095	34.08
790.271	35.54
790.447	34.92
790.623	33.67
790.799	31.44
790.975	29.85
791.151	25.31
791.327	23
791.502	26.57
791.678	25.9
791.854	26.16
792.03	28.19
792.205	30.18
792.381	32.12
792.557	30.63
792.733	29.98
792.908	34.37
793.084	36.05
793.259	35.11
793.435	31.79
793.611	27.38
793.786	29.8
793.962	28.83
794.137	29.51
794.313	27.92
794.488	30.56
794.664	31.78
794.839	31.03
795.015	30.25
795.19	30.76
795.366	31.21
795.541	31.58
795.716	30.53
795.892	33.46
796.067	31.81
796.242	31.83
796.418	27.62
796.593	25.96
796.768	24.17
796.944	26.99
797.119	29.68
797.294	32.19
797.469	32.01
797.644	32.09
797.82	28.09
797.995	26.77
798.17	28.56
798.345	30.51
798.52	31.29
798.695	34.08
798.87	29.63
799.045	29.72
799.22	28.91
799.395	30.02
799.57	30.8
799.745	32.19
799.92	32.33
800.095	30.77
800.27	30.88
800.445	30.3
800.62	30.34
800.795	35.91
800.97	34.03
801.145	33.01
801.319	32.72
801.494	35.01
801.669	39.53
801.844	41.15
802.018	38.93
802.193	43.02
802.368	45.04
802.543	42.78
802.717	42.61
802.892	47.44
803.067	48.19
803.241	52.45
803.416	45.52
803.59	43.36
803.765	44.53
803.94	48.39
804.114	48.09
804.289	50.92
804.463	50.11
804.638	47.26
804.812	43.55
804.986	41.77
805.161	37.99
805.335	37.71
805.51	32.97
805.684	29.11
805.858	29.04
806.033	21.61
806.207	18.2
806.381	18.47
806.556	21.19
806.73	21.44
806.904	23.11
807.078	23.31
807.253	25.78
807.427	26.21
807.601	27.72
807.775	24.23
807.949	25.8
808.123	26.68
808.298	30.32
808.472	27.84
808.646	23.66
808.82	21.35
808.994	22.72
809.168	17.37
809.342	22.09
809.516	25.31
809.69	30.97
809.864	31.8
810.038	31.71
810.212	27.59
810.385	32.06
810.559	33.46
810.733	30.49
810.907	32.55
811.081	34.63
811.255	37.29
811.428	38.61
811.602	37.68
811.776	39.14
811.95	42.42
812.123	42.78
812.297	36.21
812.471	41.28
812.644	50.45
812.818	46.18
812.992	47.59
813.165	43.3
813.339	41.95
813.512	39.66
813.686	42.24
813.86	34.24
814.033	36.1
814.207	36.62
814.38	29.77
814.554	22.24
814.727	26.76
814.9	24.19
815.074	14.39
815.247	12.05
815.421	6.39
815.594	4.03
815.767	11.57
815.941	13.76
816.114	20.98
816.287	24.95
816.46	25.92
816.634	23.82
816.807	25.67
816.98	34.36
817.153	35.04
817.327	38.31
817.5	42.67
817.673	48.05
817.846	45.97
818.019	43.01
818.192	49.62
818.365	51.21
818.538	51.66
818.711	54.65
818.884	50.06
819.057	50.01
819.23	48.97
819.403	47.26
819.576	42.15
819.749	40.88
819.922	38.98
820.095	34.45
820.268	36.86
820.441	32.32
820.614	32.95
820.786	32.9
820.959	29.6
821.132	29.79
821.305	28.34
821.477	28.31
821.65	29.07
821.823	28.67
821.996	27.29
822.168	25.76
822.341	26.07
822.514	25.09
822.686	26.52
822.859	27.03
823.031	26.47
823.204	26.96
823.376	27.08
823.549	26.03
823.722	25.5
823.894	25.46
824.067	25.53
824.239	25.31
824.411	25.96
824.584	24.66
824.756	24.02
824.929	23.76
825.101	23.89
825.273	24.11
825.446	24.62
825.618	26.14
825.79	26.47
825.963	27.48
826.135	27.49
826.307	26.66
826.479	26.7
826.652	26.56
826.824	26.49
826.996	25.2
827.168	25.15
827.34	26.86
827.512	27.38
827.684	28.78
827.856	28.75
828.029	29.68
828.201	30.13
828.373	30.23
828.545	30.96
828.717	31.25
828.889	33.31
829.061	34.87
829.232	32.58
829.404	32.24
829.576	33.65
829.748	34.51
829.92	36.47
830.092	39.49
830.264	39.39
830.436	41.18
830.607	43.84
830.779	42.44
830.951	40.03
831.123	42.42
831.294	42.82
831.466	39.26
831.638	34.21
831.809	29.03
831.981	29.16
832.153	27.84
832.324	26.05
832.496	25.47
832.667	26.07
832.839	26.14
833.011	28.08
833.182	26.24
833.354	27.59
833.525	30.27
833.697	33.49
833.868	28.05
834.039	26.29
834.211	28.48
834.382	30.13
834.554	28.5
834.725	25.82
834.896	21.85
835.068	20.84
835.239	20.42
835.41	21.07
835.581	20.32
835.753	22.72
835.924	25.21
836.095	25.37
836.266	25.41
836.438	27.13
836.609	34.2
836.78	36.22
836.951	37.72
837.122	38.69
837.293	38.84
837.464	36.89
837.635	43.89
837.806	47.63
837.977	48.96
838.148	47.93
838.319	50.72
838.49	45.15
838.661	46.48
838.832	50.3
839.003	49.79
839.174	50.37
839.345	52.87
839.516	49.38
839.687	40.15
839.857	27.87
840.028	25.48
840.199	23.56
840.37	29.96
840.54	31.31
840.711	26.49
840.882	29.36
841.053	35.65
841.223	33.87
841.394	24.04
841.564	28.88
841.735	33.43
841.906	38.41
842.076	35.43
842.247	34.21
842.417	35.57
842.588	46.71
842.758	46.74
842.929	41.56
843.099	49.65
843.27	56.02
843.44	66.29
843.611	64.18
843.781	69.84
843.951	78.49
844.122	71.7
844.292	74.69
844.462	71.64
844.633	66.48
844.803	75.77
844.973	71.13
845.144	77.75
845.314	80.89
845.484	85.1
845.654	86.16
845.824	84.51
845.995	99.52
846.165	118.16
846.335	94.56
846.505	104.33
846.675	79.68
846.845	82.81
847.015	72.31
847.185	86.63
847.355	93.86
847.525	101.08
847.695	105.22
847.865	118.35
848.035	113.29
848.205	165.79
848.375	173.38
848.545	169.41
848.715	243.68
848.884	177.06
849.054	123.7
849.224	95.85
849.394	60.95
849.564	75.5
849.733	71.52
849.903	65.63
850.073	69.92
850.243	81.13
850.412	99.58
850.582	81.18
850.752	101.45
850.921	74.65
851.091	88.59
851.26	90.47
851.43	72.93
851.599	69.73
851.769	62.58
851.939	59.9
852.108	83.8
852.278	52.09
852.447	40.34
852.616	66.02
852.786	102.45
852.955	96.57
853.125	107
853.294	97.88
853.463	97.06
853.633	81.61
853.802	71.52
853.971	59.84
854.141	56.95
854.31	85.26
854.479	62.09
854.648	56.15
854.818	86.75
854.987	80.08
855.156	84.35
855.325	85.68
855.494	103.44
855.663	109.63
855.832	128.2
856.001	144
856.171	141.69
856.34	204.1
856.509	263.7
856.678	237.63
856.847	451.3
857.016	267.55
857.185	818.13
857.353	422.34
857.522	280.68
857.691	171.86
857.86	129.89
858.029	124.33
858.198	105.01
858.367	100.97
858.535	85.04
858.704	86.01
858.873	72.21
859.042	67.61
859.21	69.66
859.379	67.37
859.548	79.36
859.717	87.14
859.885	102.16
860.054	114.05
860.222	111.03
860.391	118.26
860.56	138.75
860.728	153.52
860.897	151.91
861.065	149.14
861.234	139.42
861.402	139.59
861.571	156.59
861.739	162.19
861.908	150.57
862.076	170.89
862.244	318.46
862.413	223.63
862.581	193.01
862.749	208.34
862.918	197.52
863.086	216.71
863.254	245.09
863.423	254.67
863.591	241.57
863.759	269.79
863.927	272.04
864.096	144.05
864.264	120.76
864.432	130.81
864.6	132.8
864.768	89.62
864.936	75.65
865.104	56.22
865.272	51.79
865.44	45.96
865.608	45.2
865.776	38.05
865.944	50.03
866.112	51.59
866.28	56.94
866.448	64.81
866.616	102.22
866.784	114.65
866.952	117.15
867.12	115.06
867.288	135.88
867.455	130.24
867.623	106.33
867.791	116.43
867.959	113.68
868.127	95.02
868.294	67.51
868.462	45.98
868.63	32.3
868.797	51.45
868.965	111.17
869.133	127.35
869.3	97.12
869.468	42
869.636	-138.82
869.803	52.38
869.971	93.22
870.138	141.23
870.306	122.89
870.473	85.26
870.641	602.55
870.808	174.69
870.975	281.2
871.143	220.97
871.31	-893.87
871.478	2187.86
871.645	427.15
871.812	419.06
871.98	201.92
872.147	219.82
872.314	214.74
872.482	130.76
872.649	118.59
872.816	108.08
872.983	98.39
873.15	82.66
873.318	74.09
873.485	86.78
873.652	90.54
873.819	111.67
873.986	116.54
874.153	103.68
874.32	105.64
874.487	104.71
874.654	118.8
874.821	103.23
874.988	139.06
875.155	147.36
875.322	117.23
875.489	102.27
875.656	134.17
875.823	152.12
875.99	452.39
876.157	-239.13
876.324	-262.5
876.49	-3513.91
876.657	-841.61
876.824	189.3
876.991	129.6
877.157	109.28
877.324	134.8
877.491	91.92
877.658	94.5
877.824	75.8
877.991	72.44
878.157	59.35
878.324	52
878.491	66.8
878.657	83.14
878.824	91.94
878.99	126.23
879.157	144.3
879.323	187.43
879.49	422.52
879.656	2520.88
879.823	-395.3
879.989	2068.11
880.156	-288.1
880.322	-275.02
880.488	1105.5
880.655	316.98
880.821	150.75
880.987	96
881.154	100.3
881.32	68.74
881.486	62.33
881.652	51.32
881.819	56
881.985	51.97
882.151	51.09
882.317	47.43
882.483	46.51
882.649	44.17
882.816	43.47
882.982	35.47
883.148	37.6
883.314	33.99
883.48	37.5
883.646	38.66
883.812	39.03
883.978	37.37
884.144	34.91
884.31	33.52
884.476	33.74
884.642	34.02
884.807	35.97
884.973	37.52
885.139	37.77
885.305	35.76
885.471	37.32
885.637	36.14
885.802	39.36
885.968	42.87
886.134	46.76
886.3	50.24
886.465	51.94
886.631	52.63
886.797	54.56
886.962	60.12
887.128	66.75
887.293	63.26
887.459	68
887.625	65.64
887.79	85.48
887.956	92.28
888.121	87.71
888.287	86.06
888.452	92.75
888.618	89.08
888.783	94.97
