Data from 2937818_Reflection_2.txt Node
Date: Wed Jul 15 17:26:58 EDT 2015
User: robert
Spectrometer: USB4E03001
Autoset integration time: false
Trigger mode: 4
Integration Time (sec): 1.000000E-1
Scans to average: 10
Electric dark correction enabled: true
Nonlinearity correction enabled: false
Boxcar width: 5
Stray light correction enabled: false
XAxis mode: Wavelengths
Stop averaging: false
Number of Pixels in Spectrum: 3648
>>>>>Begin Spectral Data<<<<<
177.566	750.45
177.785	245.88
178.005	125.36
178.225	262.13
178.445	51.4
178.665	136.89
178.885	-39.61
179.105	-140.85
179.324	-36.62
179.544	59.14
179.764	264.68
179.984	223.25
180.204	137.64
180.423	93.41
180.643	131.82
180.863	115.21
181.083	101.19
181.302	80.5
181.522	82.49
181.742	93.64
181.961	113.67
182.181	146.71
182.401	127.1
182.621	115.19
182.84	115.06
183.06	127.34
183.279	207.54
183.499	280.09
183.719	328.59
183.938	923.4
184.158	263.77
184.377	536.25
184.597	5541.3
184.816	-293.32
185.036	-289.76
185.256	4628.67
185.475	431.25
185.695	485.08
185.914	764.39
186.134	-211.96
186.353	386.56
186.572	100.62
186.792	166.82
187.011	85.15
187.231	52.05
187.45	34.97
187.67	34.1
187.889	9.5
188.108	32.97
188.328	45.53
188.547	45.91
188.766	8.52
188.986	22.86
189.205	32.61
189.424	52.28
189.644	148.93
189.863	348.57
190.082	33.01
190.302	-29.29
190.521	-63.89
190.74	-71.13
190.959	-145
191.178	-406.73
191.398	-539.48
191.617	-772.47
191.836	-2766.52
192.055	3347.64
192.274	1116.5
192.494	3424.51
192.713	1651.34
192.932	-2150.47
193.151	-662.98
193.37	-605.82
193.589	-204.54
193.808	-190.1
194.027	-125.44
194.246	-143.47
194.465	-96.08
194.685	-115.71
194.904	-11500
195.123	-544.47
195.342	6027.06
195.561	262.53
195.78	-1039.43
195.999	245.84
196.218	599.4
196.436	156.74
196.655	319.97
196.874	188.19
197.093	160.42
197.312	178.04
197.531	100.17
197.75	117.51
197.969	183.45
198.188	119.92
198.407	97.28
198.625	88.93
198.844	161.07
199.063	340.11
199.282	-541.26
199.501	-49.36
199.719	-33.27
199.938	-377.35
200.157	-465.68
200.376	2038.74
200.594	-709.28
200.813	-154.14
201.032	-276.23
201.251	-144.85
201.469	235.69
201.688	106.89
201.907	97.43
202.125	129.61
202.344	64.46
202.563	76.55
202.781	159.71
203	83.11
203.218	73.97
203.437	93.9
203.656	145.62
203.874	101.46
204.093	911.32
204.311	-524.8
204.53	183.5
204.748	340.36
204.967	194.32
205.185	155.46
205.404	135.25
205.622	134.08
205.841	109.78
206.059	87.94
206.278	110.41
206.496	110.23
206.715	111.35
206.933	155.45
207.151	129.52
207.37	366.76
207.588	157.9
207.806	-5784.48
208.025	-210.19
208.243	-569.45
208.461	452.47
208.68	851.36
208.898	591.28
209.116	268.2
209.335	220.41
209.553	158.72
209.771	158.83
209.989	180.45
210.208	132.71
210.426	105.35
210.644	117.88
210.862	110.59
211.081	136.69
211.299	139.22
211.517	174.42
211.735	244.08
211.953	-392.71
212.171	-158.27
212.39	-71.85
212.608	-94.63
212.826	-56.72
213.044	-50.07
213.262	-57.6
213.48	-208.93
213.698	-220.23
213.916	-108.27
214.134	-200.86
214.352	-432.98
214.57	-359.56
214.788	-905.69
215.006	-1157.4
215.224	-707.44
215.442	-443.25
215.66	-454.98
215.878	-515.05
216.096	-962.25
216.314	297.32
216.532	298.98
216.75	174.45
216.968	175.04
217.185	108.28
217.403	137.66
217.621	88.4
217.839	65.79
218.057	63.69
218.275	70.5
218.492	54.16
218.71	74.23
218.928	108.04
219.146	111.5
219.363	96.27
219.581	1615.32
219.799	2425.23
220.017	-84.68
220.234	-58.91
220.452	-471.91
220.67	-2770.56
220.887	2303.73
221.105	-481.3
221.323	-1064.18
221.54	-354.27
221.758	3438.6
221.976	1398.77
222.193	-1125.49
222.411	-2355.43
222.629	856.59
222.846	-159.44
223.064	-38.61
223.281	-30.39
223.499	-68.83
223.716	-133.94
223.934	-777.38
224.151	-332.88
224.369	-253.07
224.586	-221.4
224.804	-391.52
225.021	-246.16
225.239	-144.95
225.456	-199.48
225.674	-339.86
225.891	-249.44
226.108	-127.29
226.326	-115.57
226.543	-80.23
226.76	-57.99
226.978	-63.38
227.195	-49.47
227.413	-22.6
227.63	-30.77
227.847	-11.79
228.064	-5.81
228.282	3.18
228.499	10.42
228.716	13.89
228.934	8.54
229.151	6.37
229.368	9.68
229.585	5.12
229.802	1.45
230.02	4.3
230.237	1.92
230.454	1.53
230.671	0.37
230.888	0.82
231.105	4.56
231.323	4.93
231.54	0.92
231.757	-0.44
231.974	12.49
232.191	17.9
232.408	7.21
232.625	6.47
232.842	11.84
233.059	6.89
233.276	4.87
233.493	7.26
233.71	8.2
233.927	8.19
234.144	-1.11
234.361	-8.21
234.578	-10.43
234.795	1.09
235.012	6.17
235.229	8.34
235.446	18.07
235.663	21.16
235.879	20.63
236.096	15.72
236.313	21.43
236.53	24.2
236.747	24.83
236.964	19.27
237.181	20.85
237.397	14.44
237.614	8.75
237.831	7.93
238.048	-2.83
238.264	-15.17
238.481	-10.88
238.698	-13.83
238.915	-14.33
239.131	-14.08
239.348	-0.34
239.565	-5.79
239.781	0.27
239.998	-4.11
240.215	-6.4
240.431	-1.66
240.648	-2.17
240.865	0.92
241.081	5.41
241.298	8.25
241.514	9.96
241.731	5.92
241.947	6.32
242.164	6.58
242.38	9.63
242.597	9.81
242.814	11.02
243.03	13.25
243.246	13.44
243.463	12.53
243.679	12.04
243.896	11.95
244.112	11.96
244.329	13.24
244.545	14.3
244.762	12.5
244.978	15.18
245.194	13.17
245.411	11.62
245.627	9.55
245.843	9.34
246.06	11.26
246.276	11.9
246.492	13.41
246.709	14.77
246.925	15.69
247.141	16.15
247.357	14.43
247.574	15.29
247.79	15.14
248.006	15.71
248.222	16.55
248.439	16.12
248.655	14.85
248.871	13.48
249.087	12.02
249.303	8.55
249.519	8.09
249.736	9.16
249.952	5.28
250.168	3.89
250.384	3.78
250.6	5.44
250.816	7.91
251.032	10.79
251.248	9.46
251.464	10.81
251.68	12.89
251.896	9.11
252.112	7.91
252.328	9.77
252.544	10.97
252.76	11.08
252.976	8.43
253.192	6.28
253.408	7.11
253.624	7.52
253.84	7.39
254.056	7.43
254.272	5.36
254.487	3.18
254.703	3.94
254.919	7.21
255.135	4.91
255.351	-0.89
255.567	-4.46
255.782	-3.33
255.998	1.96
256.214	1.19
256.43	1.23
256.646	8.43
256.861	12.28
257.077	14.56
257.293	11.64
257.508	9.57
257.724	12.68
257.94	12.81
258.155	10.67
258.371	7.71
258.587	5.59
258.802	6.94
259.018	8.7
259.234	8.08
259.449	6.67
259.665	6.06
259.88	8.16
260.096	8.89
260.312	9.25
260.527	9.36
260.743	10.78
260.958	11.37
261.174	10.39
261.389	7.43
261.605	6.76
261.82	6.25
262.036	6.44
262.251	4.68
262.466	3.38
262.682	1.72
262.897	-2.28
263.113	-5.2
263.328	-4.3
263.543	-4.62
263.759	-3.96
263.974	-3.94
264.189	-4.07
264.405	-1.96
264.62	-0.86
264.835	-1.29
265.051	0.49
265.266	6.6
265.481	7.35
265.696	6.2
265.912	6.49
266.127	8.72
266.342	6.77
266.557	7.54
266.773	5.29
266.988	2.78
267.203	4.67
267.418	5.64
267.633	4.56
267.848	5.86
268.064	5.1
268.279	4.87
268.494	4.08
268.709	6.26
268.924	6.19
269.139	7.3
269.354	8.03
269.569	5.77
269.784	3.13
269.999	1.35
270.214	0.19
270.429	2.44
270.644	3.35
270.859	5.12
271.074	5.47
271.289	6.11
271.504	8.26
271.719	9.14
271.934	9.56
272.149	10.91
272.363	11.4
272.578	10.65
272.793	8
273.008	8.28
273.223	8.99
273.438	8.49
273.653	6.64
273.867	3.14
274.082	2.44
274.297	0.12
274.512	-1.81
274.726	-0.25
274.941	-1.03
275.156	2.65
275.371	2.37
275.585	-0.1
275.8	1.01
276.015	3.45
276.229	6.23
276.444	7.86
276.659	10.6
276.873	14.19
277.088	11.75
277.302	13.86
277.517	10.73
277.732	10.4
277.946	9.68
278.161	8.54
278.375	9.2
278.59	8.4
278.804	9.06
279.019	6.02
279.233	3.13
279.448	3.28
279.662	3.11
279.877	5.93
280.091	5.34
280.306	6.05
280.52	3.77
280.735	3.21
280.949	2.19
281.163	1.04
281.378	4.67
281.592	5.5
281.806	6.13
282.021	6.07
282.235	6.32
282.449	7.24
282.664	8.48
282.878	11.28
283.092	10.29
283.307	11.7
283.521	10.92
283.735	10.64
283.949	10.34
284.164	10.91
284.378	9.81
284.592	9.52
284.806	8.92
285.02	8.35
285.234	8.83
285.449	8.75
285.663	9.01
285.877	10.54
286.091	10.91
286.305	10.99
286.519	10.77
286.733	10.55
286.947	10.69
287.161	10.59
287.375	9.8
287.589	10.04
287.803	10.4
288.017	8.43
288.231	6.55
288.445	3.89
288.659	3.57
288.873	3.1
289.087	2.51
289.301	1.47
289.515	2.02
289.729	1.91
289.943	1.17
290.157	0.57
290.371	-0.16
290.584	1.33
290.798	1.89
291.012	1.13
291.226	1.15
291.44	3.54
291.654	4.44
291.867	4.54
292.081	4.46
292.295	2.04
292.509	4.45
292.722	6.05
292.936	5.01
293.15	6.02
293.364	3.99
293.577	5.78
293.791	3.5
294.005	3.22
294.218	1.9
294.432	3.97
294.645	8.91
294.859	6.3
295.073	7.46
295.286	6.74
295.5	7.84
295.713	10.1
295.927	7.86
296.14	11.33
296.354	11.47
296.568	11.41
296.781	11.95
296.994	10.88
297.208	11.29
297.421	11.35
297.635	13
297.848	12.93
298.062	13.5
298.275	14.02
298.489	11.9
298.702	11.67
298.915	12.62
299.129	11.72
299.342	10.3
299.555	11.47
299.769	10.53
299.982	9.04
300.195	8.64
300.409	8.77
300.622	10.12
300.835	10.56
301.048	10.86
301.262	11.96
301.475	11.45
301.688	11.65
301.901	11.07
302.115	11.92
302.328	12
302.541	9.56
302.754	10.53
302.967	8.14
303.18	6.51
303.393	4.92
303.607	5.17
303.82	3.85
304.033	4.83
304.246	5.41
304.459	6.09
304.672	5.63
304.885	8.79
305.098	7.82
305.311	8.18
305.524	8.37
305.737	9.15
305.95	8.3
306.163	8.67
306.376	7.07
306.589	7.15
306.802	5.76
307.015	4.53
307.228	3.63
307.44	2.52
307.653	3.8
307.866	5.71
308.079	6.08
308.292	5.23
308.505	5.92
308.718	7.42
308.93	7.34
309.143	7.16
309.356	7.48
309.569	7.42
309.781	7.66
309.994	8.8
310.207	7.49
310.42	7.39
310.632	7.59
310.845	8.25
311.058	8.27
311.27	9.98
311.483	9.26
311.696	10.61
311.908	9.93
312.121	9.66
312.333	7.34
312.546	7.63
312.759	7.02
312.971	6.43
313.184	6.31
313.396	5.27
313.609	0.01
313.821	1.94
314.034	0.88
314.246	2.03
314.459	3.32
314.671	4.73
314.884	5.19
315.096	7.62
315.309	7.44
315.521	6.68
315.733	6.52
315.946	8.36
316.158	9.16
316.371	9.29
316.583	8.2
316.795	5.94
317.008	6.04
317.22	6.95
317.432	6.99
317.644	7.75
317.857	8.11
318.069	7.19
318.281	6.01
318.494	4.31
318.706	1.8
318.918	1.5
319.13	2.49
319.342	1.9
319.555	0.21
319.767	-0.36
319.979	0.45
320.191	-0.41
320.403	-0.48
320.615	1.84
320.827	1.39
321.039	4.24
321.252	5.64
321.464	5.71
321.676	6.65
321.888	6.14
322.1	3.43
322.312	1.43
322.524	3.36
322.736	5.29
322.948	4.2
323.16	4.42
323.372	5.09
323.584	3.35
323.796	5.31
324.007	6.37
324.219	7.4
324.431	8.94
324.643	8.87
324.855	8.45
325.067	8.87
325.279	10.21
325.491	10.75
325.702	11.5
325.914	13.25
326.126	11.54
326.338	10.13
326.55	10.71
326.761	10.74
326.973	10.14
327.185	11.21
327.396	9.99
327.608	9.35
327.82	8.63
328.032	5.69
328.243	6.01
328.455	7.25
328.666	8.11
328.878	8.14
329.09	9.08
329.301	10.46
329.513	9.15
329.725	6.09
329.936	4.9
330.148	7.1
330.359	8.68
330.571	6.67
330.782	5.06
330.994	5.01
331.205	3.6
331.417	3.54
331.628	2.29
331.84	2.02
332.051	4.34
332.262	6.53
332.474	4.49
332.685	5.8
332.897	5.97
333.108	6.57
333.319	4.33
333.531	5.68
333.742	4.67
333.953	5.52
334.165	5.27
334.376	4.87
334.587	4.57
334.799	4.46
335.01	2.36
335.221	3.52
335.432	3.47
335.644	5.19
335.855	4.98
336.066	5.85
336.277	6.15
336.488	6.01
336.7	7.28
336.911	6.61
337.122	7.23
337.333	7.67
337.544	7.35
337.755	7.09
337.966	7.54
338.177	7.48
338.388	6.56
338.599	6.97
338.811	8.29
339.022	8.23
339.233	8.2
339.444	7.63
339.655	7.99
339.866	6.86
340.076	5.64
340.287	4.52
340.498	3.86
340.709	4.27
340.92	4
341.131	2.84
341.342	3.13
341.553	3.68
341.764	4.37
341.975	4.78
342.185	6.05
342.396	8.49
342.607	8.79
342.818	10.4
343.029	9.63
343.239	9.58
343.45	10.09
343.661	10.22
343.872	9.6
344.082	9.94
344.293	10.24
344.504	10.35
344.714	10.07
344.925	9.91
345.136	9.08
345.346	10.56
345.557	10.08
345.768	9.58
345.978	10.9
346.189	11.46
346.399	11.08
346.61	10.52
346.821	10.14
347.031	9.3
347.242	10.01
347.452	9.9
347.663	10.59
347.873	11.5
348.084	12.98
348.294	11.68
348.504	10.29
348.715	9.84
348.925	9.35
349.136	9.5
349.346	10.62
349.557	11.61
349.767	10.83
349.977	10.19
350.188	8.2
350.398	5.43
350.608	5.8
350.819	7.03
351.029	5.86
351.239	6.22
351.449	5.44
351.66	5.67
351.87	3.69
352.08	3.06
352.29	2.04
352.501	4.14
352.711	6.41
352.921	4.29
353.131	4.1
353.341	5.78
353.552	5.08
353.762	6.81
353.972	5.48
354.182	5.07
354.392	5.29
354.602	6.44
354.812	6.3
355.022	6.18
355.232	7.54
355.442	8.09
355.652	7.28
355.862	8.27
356.072	7.61
356.282	7.97
356.492	8.98
356.702	9.26
356.912	8.77
357.122	9.57
357.332	10.58
357.542	11.09
357.752	10.34
357.962	10.45
358.171	11.38
358.381	10.96
358.591	10.35
358.801	9.68
359.011	10.05
359.221	11.19
359.43	9.61
359.64	8.51
359.85	7.43
360.06	7.17
360.269	7.57
360.479	7.17
360.689	7.95
360.899	8.14
361.108	8.58
361.318	9.18
361.528	8.36
361.737	9.31
361.947	9.25
362.156	8.86
362.366	8.95
362.576	8.41
362.785	8.69
362.995	8.38
363.204	9.18
363.414	8.93
363.623	8.38
363.833	9.28
364.042	7.91
364.252	8.13
364.461	8.77
364.671	9.32
364.88	10.17
365.09	9.97
365.299	9.34
365.509	8.5
365.718	9.05
365.927	9.11
366.137	8.16
366.346	9.24
366.555	9.14
366.765	8.55
366.974	8.31
367.183	7.77
367.393	6.92
367.602	6.92
367.811	7.22
368.021	5.92
368.23	4.86
368.439	4.33
368.648	2.33
368.857	2.94
369.067	2.63
369.276	3.55
369.485	4.59
369.694	5.17
369.903	6.84
370.112	6.14
370.321	7.61
370.531	9.06
370.74	9.57
370.949	10.54
371.158	9.21
371.367	10.66
371.576	10.59
371.785	9.93
371.994	8.75
372.203	8.06
372.412	8.9
372.621	7.98
372.83	7
373.039	6.51
373.248	7.22
373.457	7.1
373.666	6.48
373.874	5.87
374.083	6.03
374.292	6.71
374.501	6.3
374.71	6.15
374.919	6.96
375.128	7.41
375.336	7.14
375.545	7.46
375.754	7.98
375.963	8.41
376.171	7.43
376.38	7.79
376.589	7.81
376.798	7.18
377.006	7.24
377.215	7.15
377.424	6.89
377.632	6.83
377.841	6.44
378.05	6.63
378.258	6.07
378.467	6.22
378.675	6.07
378.884	5.42
379.093	5.75
379.301	4.66
379.51	4.38
379.718	4.62
379.927	4.82
380.135	4.39
380.344	4.19
380.552	3.63
380.761	4.51
380.969	4.27
381.177	4.38
381.386	4.55
381.594	4.72
381.803	4.54
382.011	4.36
382.219	4
382.428	4.04
382.636	3.9
382.845	4.41
383.053	4.11
383.261	3.73
383.469	3.33
383.678	3.34
383.886	4.33
384.094	4.65
384.302	4.52
384.511	4.43
384.719	4.99
384.927	5.31
385.135	5.59
385.343	5.28
385.552	5.73
385.76	6.07
385.968	6.22
386.176	6.06
386.384	6.08
386.592	6.05
386.8	6.41
387.008	5.66
387.216	5.47
387.424	5.36
387.633	5.7
387.841	4.87
388.049	4.67
388.257	4.09
388.465	4.09
388.672	3.62
388.88	4.15
389.088	4.1
389.296	4.39
389.504	4.71
389.712	4.35
389.92	4.01
390.128	4.6
390.336	5.12
390.544	5.36
390.751	5.28
390.959	5.35
391.167	5.06
391.375	4.76
391.583	5
391.79	4.57
391.998	4.52
392.206	4.55
392.414	4.69
392.621	4.79
392.829	4.42
393.037	4.59
393.244	4.8
393.452	4.31
393.66	4.29
393.867	4.24
394.075	4.53
394.283	5.04
394.49	5.27
394.698	5.3
394.905	4.73
395.113	4.89
395.32	4.61
395.528	4.51
395.735	4.56
395.943	4.41
396.15	3.95
396.358	3.8
396.565	3.69
396.773	3.7
396.98	3.38
397.188	3.56
397.395	3.81
397.602	4.06
397.81	4.08
398.017	4.53
398.225	5.09
398.432	5.27
398.639	4.88
398.847	4.74
399.054	4.42
399.261	4.47
399.468	4.81
399.676	5.04
399.883	5.04
400.09	4.85
400.297	5.14
400.505	4.54
400.712	4.64
400.919	5.07
401.126	4.74
401.333	4.79
401.54	4.6
401.748	4.1
401.955	3.97
402.162	3.3
402.369	3.15
402.576	2.45
402.783	2.72
402.99	2.59
403.197	2.33
403.404	2.48
403.611	2.69
403.818	2.66
404.025	3.01
404.232	2.7
404.439	3.17
404.646	3.24
404.853	3.48
405.06	3.55
405.267	3.82
405.474	4.19
405.681	4.54
405.887	4.55
406.094	4.41
406.301	4.01
406.508	4.15
406.715	3.96
406.922	3.92
407.128	3.79
407.335	4.14
407.542	3.85
407.749	3.84
407.955	3.44
408.162	3.31
408.369	3.61
408.575	3.85
408.782	3.85
408.989	3.82
409.195	4.23
409.402	4.35
409.609	4.22
409.815	4.22
410.022	4.17
410.228	4.22
410.435	4.35
410.642	4.3
410.848	4.55
411.055	4.5
411.261	4.51
411.468	4.33
411.674	4.28
411.881	4.08
412.087	3.96
412.294	3.74
412.5	3.78
412.706	3.92
412.913	3.9
413.119	3.75
413.326	3.76
413.532	4.05
413.738	4.03
413.945	3.8
414.151	3.59
414.357	3.86
414.564	3.63
414.77	3.71
414.976	3.42
415.182	3.34
415.389	3.31
415.595	3.35
415.801	2.99
416.007	3.03
416.214	3.27
416.42	3.65
416.626	3.43
416.832	3.74
417.038	3.44
417.244	3.38
417.45	3.54
417.657	3.62
417.863	3.72
418.069	3.89
418.275	3.76
418.481	3.69
418.687	3.59
418.893	3.76
419.099	3.82
419.305	3.98
419.511	4.15
419.717	4.1
419.923	3.89
420.129	3.8
420.335	3.91
420.541	4.09
420.746	4.22
420.952	4.13
421.158	4.07
421.364	3.96
421.57	3.93
421.776	3.72
421.982	3.78
422.187	3.85
422.393	3.95
422.599	3.69
422.805	3.39
423.01	3.43
423.216	3.48
423.422	3.54
423.628	3.59
423.833	3.57
424.039	3.64
424.245	3.7
424.45	3.56
424.656	3.5
424.862	3.54
425.067	3.71
425.273	3.58
425.478	3.75
425.684	3.8
425.889	3.86
426.095	3.97
426.301	4.14
426.506	3.83
426.712	4.13
426.917	4.08
427.123	4.12
427.328	4.2
427.533	4.27
427.739	4.32
427.944	4.19
428.15	3.95
428.355	3.91
428.561	3.77
428.766	4.15
428.971	4.42
429.177	4.22
429.382	4.16
429.587	4.14
429.793	4.2
429.998	3.75
430.203	3.62
430.408	3.8
430.614	3.62
430.819	3.53
431.024	3.55
431.229	3.12
431.434	3.37
431.64	3.61
431.845	3.72
432.05	3.57
432.255	3.91
432.46	3.92
432.665	3.86
432.87	3.91
433.076	3.98
433.281	3.81
433.486	4.01
433.691	3.85
433.896	3.64
434.101	3.37
434.306	3.31
434.511	3.28
434.716	3.45
434.921	3.46
435.126	3.4
435.331	3.51
435.535	3.44
435.74	3.43
435.945	3.55
436.15	3.52
436.355	3.59
436.56	3.86
436.765	3.77
436.97	3.62
437.174	3.71
437.379	3.94
437.584	3.73
437.789	3.74
437.993	3.61
438.198	3.61
438.403	3.65
438.608	3.82
438.812	3.67
439.017	3.55
439.222	3.67
439.426	3.65
439.631	3.71
439.836	3.85
440.04	3.96
440.245	4.05
440.45	4.03
440.654	4.3
440.859	4.22
441.063	4.05
441.268	4.03
441.472	4.21
441.677	3.99
441.881	3.8
442.086	3.91
442.29	4.03
442.495	3.93
442.699	4.02
442.904	3.87
443.108	3.64
443.312	3.95
443.517	4.14
443.721	3.92
443.925	4.16
444.13	4.37
444.334	4.18
444.538	4.01
444.743	4.05
444.947	4.04
445.151	4.1
445.356	4.33
445.56	4.26
445.764	4.22
445.968	4.13
446.173	3.92
446.377	3.78
446.581	3.78
446.785	3.79
446.989	3.79
447.193	3.74
447.398	3.56
447.602	3.4
447.806	3.25
448.01	3.03
448.214	3.15
448.418	3.45
448.622	3.5
448.826	3.4
449.03	3.4
449.234	3.36
449.438	3.31
449.642	3.36
449.846	3.41
450.05	3.47
450.254	3.71
450.458	3.63
450.662	3.47
450.866	3.39
451.069	3.37
451.273	3.32
451.477	3.14
451.681	3.07
451.885	3.08
452.089	3.11
452.292	3.1
452.496	3.09
452.7	2.98
452.904	2.89
453.107	2.88
453.311	3.07
453.515	3.04
453.719	3.26
453.922	3.16
454.126	3.07
454.33	2.93
454.533	3.09
454.737	2.96
454.94	3.13
455.144	3.27
455.348	3.16
455.551	3.04
455.755	3.21
455.958	2.98
456.162	2.91
456.365	2.87
456.569	2.83
456.772	2.55
456.976	2.6
457.179	2.49
457.383	2.25
457.586	2.47
457.79	2.42
457.993	2.29
458.196	2.62
458.4	2.97
458.603	3.18
458.807	3.42
459.01	3.58
459.213	3.44
459.417	3.56
459.62	3.6
459.823	3.49
460.026	3.61
460.23	3.69
460.433	3.57
460.636	3.57
460.839	3.45
461.042	3.42
461.246	3.31
461.449	3.39
461.652	3.43
461.855	3.53
462.058	3.65
462.261	3.52
462.464	3.3
462.668	3.38
462.871	3.26
463.074	3.27
463.277	3.19
463.48	3.37
463.683	3.4
463.886	3.15
464.089	3.04
464.292	2.84
464.495	3.08
464.698	3.11
464.901	2.97
465.104	3.03
465.306	2.96
465.509	2.98
465.712	3.02
465.915	2.93
466.118	3.05
466.321	3.18
466.524	3.19
466.726	3.02
466.929	3.32
467.132	3.21
467.335	3.2
467.538	3.26
467.74	3.24
467.943	3.3
468.146	3.37
468.348	3.33
468.551	3.24
468.754	3.37
468.956	3.39
469.159	3.32
469.362	3.56
469.564	3.53
469.767	3.66
469.969	3.82
470.172	3.77
470.375	3.7
470.577	3.68
470.78	4
470.982	4.14
471.185	4.11
471.387	3.98
471.59	3.82
471.792	3.73
471.995	3.66
472.197	3.57
472.399	3.32
472.602	3.28
472.804	3.33
473.007	3.14
473.209	2.87
473.411	2.78
473.614	2.82
473.816	2.89
474.018	3.07
474.22	2.99
474.423	2.77
474.625	3.06
474.827	3.28
475.03	3.12
475.232	2.94
475.434	3.22
475.636	3.28
475.838	3.38
476.04	3.35
476.243	3.26
476.445	3.46
476.647	3.56
476.849	3.48
477.051	3.29
477.253	3.33
477.455	3.41
477.657	3.31
477.859	3.23
478.061	3.07
478.263	3.23
478.465	3.35
478.667	3.15
478.869	3.2
479.071	3.11
479.273	3.27
479.475	3.35
479.677	3.56
479.879	3.3
480.081	3.47
480.283	3.6
480.485	3.42
480.686	3.41
480.888	3.48
481.09	3.48
481.292	3.52
481.494	3.56
481.695	3.53
481.897	3.46
482.099	3.62
482.301	3.62
482.502	3.55
482.704	3.6
482.906	3.57
483.107	3.51
483.309	3.62
483.511	3.7
483.712	3.68
483.914	3.66
484.115	3.65
484.317	3.67
484.519	3.63
484.72	3.71
484.922	3.71
485.123	3.66
485.325	3.72
485.526	3.67
485.728	3.58
485.929	3.55
486.131	3.56
486.332	3.52
486.534	3.54
486.735	3.58
486.936	3.48
487.138	3.46
487.339	3.52
487.541	3.48
487.742	3.49
487.943	3.49
488.144	3.52
488.346	3.57
488.547	3.5
488.748	3.5
488.95	3.52
489.151	3.54
489.352	3.57
489.553	3.52
489.755	3.55
489.956	3.52
490.157	3.53
490.358	3.44
490.559	3.33
490.76	3.5
490.961	3.39
491.163	3.35
491.364	3.37
491.565	3.34
491.766	3.3
491.967	3.28
492.168	3.31
492.369	3.36
492.57	3.38
492.771	3.38
492.972	3.28
493.173	3.3
493.374	3.31
493.575	3.3
493.776	3.22
493.976	3.37
494.177	3.38
494.378	3.35
494.579	3.18
494.78	3.29
494.981	3.45
495.182	3.6
495.382	3.51
495.583	3.53
495.784	3.54
495.985	3.76
496.185	3.68
496.386	3.63
496.587	3.57
496.788	3.65
496.988	3.63
497.189	3.62
497.39	3.52
497.59	3.5
497.791	3.48
497.992	3.43
498.192	3.26
498.393	3.35
498.593	3.4
498.794	3.4
498.994	3.39
499.195	3.33
499.395	3.28
499.596	3.28
499.796	3.55
499.997	3.52
500.197	3.66
500.398	3.82
500.598	3.73
500.799	3.56
500.999	3.43
501.199	3.43
501.4	3.26
501.6	3.41
501.801	3.57
502.001	3.38
502.201	3.42
502.402	3.4
502.602	3.32
502.802	3.17
503.002	3.27
503.203	3.54
503.403	3.47
503.603	3.74
503.803	3.52
504.003	3.23
504.204	3.2
504.404	3.09
504.604	3.04
504.804	2.97
505.004	3.1
505.204	3.22
505.404	3.17
505.604	3.14
505.804	3.08
506.005	3.13
506.205	3.3
506.405	3.46
506.605	3.69
506.805	3.57
507.005	3.59
507.204	3.58
507.404	3.61
507.604	3.55
507.804	3.59
508.004	3.56
508.204	3.59
508.404	3.56
508.604	3.34
508.804	3.29
509.003	3.48
509.203	3.56
509.403	3.61
509.603	3.57
509.803	3.54
510.002	3.54
510.202	3.59
510.402	3.67
510.602	3.74
510.801	3.9
511.001	3.99
511.201	3.84
511.4	3.97
511.6	3.82
511.8	3.78
511.999	3.99
512.199	4.01
512.398	3.87
512.598	3.67
512.797	3.65
512.997	3.63
513.197	3.45
513.396	3.4
513.596	3.2
513.795	3.35
513.994	3.45
514.194	3.42
514.393	3.56
514.593	3.72
514.792	3.93
514.992	3.97
515.191	4.14
515.39	4.14
515.59	4.26
515.789	4.5
515.988	4.59
516.188	4.59
516.387	4.57
516.586	4.52
516.786	4.53
516.985	4.48
517.184	4.46
517.383	4.41
517.582	4.51
517.782	4.49
517.981	4.22
518.18	4.16
518.379	4.23
518.578	4.19
518.777	4.18
518.976	4.23
519.176	4.39
519.375	4.51
519.574	4.52
519.773	4.36
519.972	4.46
520.171	4.59
520.37	4.63
520.569	4.44
520.768	4.36
520.967	4.22
521.166	4.11
521.365	3.95
521.564	3.7
521.762	3.53
521.961	3.52
522.16	3.62
522.359	3.6
522.558	3.67
522.757	3.71
522.956	3.77
523.154	3.86
523.353	3.9
523.552	3.93
523.751	4.07
523.949	4.22
524.148	4.42
524.347	4.28
524.546	4.25
524.744	4.22
524.943	4.46
525.142	4.6
525.34	4.71
525.539	4.71
525.737	4.61
525.936	4.69
526.135	4.63
526.333	4.64
526.532	4.61
526.73	4.75
526.929	4.73
527.127	4.78
527.326	4.7
527.524	4.66
527.723	4.73
527.921	4.82
528.12	4.69
528.318	4.77
528.516	4.8
528.715	4.81
528.913	4.82
529.112	4.91
529.31	4.86
529.508	4.91
529.707	4.94
529.905	4.92
530.103	4.91
530.301	5.09
530.5	5.14
530.698	5.18
530.896	5.21
531.094	5.23
531.293	5.14
531.491	5.15
531.689	5.22
531.887	5.27
532.085	5.37
532.283	5.42
532.481	5.33
532.68	5.23
532.878	5.17
533.076	5.26
533.274	5.28
533.472	5.34
533.67	5.3
533.868	5.21
534.066	5.22
534.264	5.1
534.462	5.21
534.66	5.31
534.858	5.32
535.056	5.3
535.253	5.31
535.451	5.35
535.649	5.25
535.847	5.38
536.045	5.36
536.243	5.41
536.441	5.59
536.638	5.42
536.836	5.35
537.034	5.52
537.232	5.67
537.43	5.65
537.627	5.56
537.825	5.73
538.023	5.73
538.22	5.79
538.418	5.76
538.616	5.65
538.813	5.73
539.011	5.79
539.209	5.83
539.406	5.81
539.604	5.99
539.801	6.17
539.999	6.22
540.196	6.23
540.394	6.35
540.591	6.28
540.789	6.39
540.986	6.42
541.184	6.44
541.381	6.46
541.579	6.47
541.776	6.5
541.974	6.46
542.171	6.43
542.368	6.51
542.566	6.52
542.763	6.7
542.96	6.67
543.158	6.65
543.355	6.68
543.552	6.65
543.75	6.65
543.947	6.53
544.144	6.54
544.341	6.62
544.539	6.59
544.736	6.67
544.933	6.68
545.13	6.71
545.327	6.85
545.524	6.8
545.722	6.81
545.919	6.85
546.116	7.16
546.313	7.27
546.51	7.31
546.707	7.28
546.904	7.07
547.101	7.14
547.298	7.21
547.495	7.13
547.692	7.28
547.889	7.3
548.086	7.45
548.283	7.26
548.48	7.29
548.677	7.47
548.874	7.47
549.07	7.73
549.267	7.63
549.464	7.53
549.661	7.7
549.858	7.5
550.055	7.64
550.251	7.64
550.448	7.63
550.645	7.67
550.842	7.53
551.038	7.66
551.235	7.76
551.432	7.91
551.628	8.14
551.825	8.14
552.022	8.36
552.218	8.41
552.415	8.46
552.612	8.53
552.808	8.43
553.005	8.29
553.201	8.31
553.398	8.44
553.594	8.41
553.791	8.46
553.987	8.51
554.184	8.42
554.38	8.35
554.577	8.38
554.773	8.58
554.97	8.68
555.166	8.87
555.362	8.97
555.559	8.83
555.755	8.98
555.952	9.14
556.148	9.26
556.344	9.43
556.541	9.57
556.737	9.47
556.933	9.35
557.129	9.68
557.326	9.66
557.522	9.77
557.718	9.97
557.914	9.95
558.11	9.9
558.307	9.84
558.503	10.01
558.699	10.16
558.895	10.44
559.091	10.36
559.287	10.1
559.483	10.29
559.679	10.13
559.876	10.07
560.072	10.18
560.268	10.27
560.464	10.34
560.66	10.34
560.856	10.17
561.052	10.15
561.247	10.54
561.443	10.67
561.639	10.59
561.835	11.05
562.031	11.31
562.227	11.21
562.423	11.34
562.619	11.33
562.815	11.21
563.01	11.41
563.206	11.28
563.402	11.14
563.598	11.26
563.793	11.4
563.989	11.39
564.185	11.26
564.381	11.4
564.576	11.6
564.772	11.73
564.968	12.08
565.163	12.26
565.359	12.37
565.555	12.6
565.75	12.68
565.946	12.94
566.141	12.81
566.337	12.96
566.532	13.09
566.728	13.03
566.923	13.09
567.119	13.06
567.314	13.01
567.51	13.23
567.705	13.19
567.901	13.25
568.096	13.43
568.292	13.53
568.487	13.56
568.682	13.5
568.878	13.48
569.073	13.55
569.268	13.67
569.464	13.7
569.659	13.73
569.854	13.66
570.05	13.67
570.245	13.35
570.44	13.42
570.635	13.55
570.831	13.84
571.026	13.79
571.221	13.92
571.416	13.92
571.611	14.22
571.806	14.21
572.002	14.3
572.197	14.36
572.392	14.48
572.587	14.63
572.782	14.48
572.977	14.44
573.172	14.69
573.367	14.64
573.562	14.77
573.757	14.53
573.952	14.71
574.147	15
574.342	15.04
574.537	15.16
574.732	15.21
574.927	15.47
575.121	15.46
575.316	15.49
575.511	15.71
575.706	15.86
575.901	15.94
576.096	16
576.29	16
576.485	16.02
576.68	15.93
576.875	15.95
577.069	16.15
577.264	16.29
577.459	16.39
577.654	16.36
577.848	16.26
578.043	16.43
578.238	16.36
578.432	16.42
578.627	16.67
578.821	16.95
579.016	16.74
579.21	16.51
579.405	16.37
579.6	16.36
579.794	16.4
579.989	16.44
580.183	16.77
580.378	17.07
580.572	17.1
580.766	17.17
580.961	17.2
581.155	17.35
581.35	17.51
581.544	17.81
581.738	18.14
581.933	18.14
582.127	18.11
582.321	17.78
582.516	17.64
582.71	17.44
582.904	17.24
583.099	17.34
583.293	17.41
583.487	17.25
583.681	17.26
583.875	17.24
584.07	17.17
584.264	17.27
584.458	17.2
584.652	17.27
584.846	17.57
585.04	17.71
585.234	17.55
585.428	18.04
585.623	18.4
585.817	18.37
586.011	18.3
586.205	18.45
586.399	18.61
586.593	18.92
586.787	18.77
586.981	18.58
587.174	18.91
587.368	19.14
587.562	19.03
587.756	18.82
587.95	19.02
588.144	19.09
588.338	19.17
588.532	19.43
588.725	19.55
588.919	19.5
589.113	19.6
589.307	19.25
589.501	19.2
589.694	19.03
589.888	18.91
590.082	18.74
590.275	18.65
590.469	18.77
590.663	18.65
590.856	18.5
591.05	18.84
591.244	18.97
591.437	19.13
591.631	19.3
591.824	19.4
592.018	19.93
592.212	19.84
592.405	19.81
592.599	19.72
592.792	19.54
592.986	19.25
593.179	19.39
593.372	19.21
593.566	19.32
593.759	19.15
593.953	19.46
594.146	19.49
594.339	19.64
594.533	19.49
594.726	19.44
594.92	19.56
595.113	19.73
595.306	19.42
595.499	19.84
595.693	19.74
595.886	19.86
596.079	19.71
596.272	19.67
596.466	19.86
596.659	20.19
596.852	20.22
597.045	20.38
597.238	20.43
597.431	20.42
597.624	20.24
597.818	20.3
598.011	20.47
598.204	20.32
598.397	20.05
598.59	20.09
598.783	20.01
598.976	20.05
599.169	19.81
599.362	19.95
599.555	20.25
599.748	20.31
599.941	20.47
600.134	20.28
600.326	20.27
600.519	20.66
600.712	20.34
600.905	20.49
601.098	20.51
601.291	20.73
601.483	20.67
601.676	20.36
601.869	20.44
602.062	20.45
602.255	20.58
602.447	20.92
602.64	20.98
602.833	21.15
603.025	21.08
603.218	21.3
603.411	21.22
603.603	21.24
603.796	21.36
603.989	21.29
604.181	21.25
604.374	21.26
604.566	21.18
604.759	21.07
604.951	21.12
605.144	21.17
605.336	21
605.529	21.06
605.721	21.09
605.914	21.14
606.106	21.08
606.299	20.92
606.491	20.93
606.683	20.79
606.876	20.78
607.068	20.78
607.26	20.7
607.453	20.69
607.645	20.49
607.837	20.58
608.03	20.74
608.222	20.96
608.414	21.32
608.606	21.26
608.799	21.31
608.991	21.2
609.183	21.46
609.375	21.6
609.567	21.53
609.759	21.69
609.952	21.59
610.144	21.42
610.336	21.44
610.528	21.32
610.72	21.29
610.912	21.39
611.104	21.66
611.296	21.6
611.488	21.43
611.68	21.46
611.872	21.47
612.064	21.65
612.256	21.68
612.448	21.63
612.64	21.67
612.832	21.59
613.023	21.6
613.215	21.5
613.407	21.04
613.599	21.18
613.791	21.52
613.983	21.69
614.174	21.82
614.366	21.9
614.558	22.03
614.75	22.04
614.941	22.12
615.133	22.17
615.325	21.99
615.516	22.2
615.708	22.23
615.9	22.12
616.091	22.01
616.283	21.92
616.475	22.06
616.666	21.89
616.858	22.03
617.049	22.21
617.241	22.31
617.432	22.63
617.624	22.63
617.815	22.39
618.007	22.16
618.198	22.31
618.39	22.48
618.581	22.54
618.773	22.74
618.964	22.49
619.155	22.5
619.347	22.05
619.538	22.09
619.729	22.3
619.921	22.57
620.112	22.87
620.303	22.78
620.494	22.38
620.686	22.29
620.877	22.19
621.068	22.28
621.259	22.18
621.451	22.64
621.642	22.41
621.833	22.6
622.024	22.39
622.215	22.3
622.406	22.2
622.597	22.64
622.788	22.69
622.98	22.83
623.171	22.89
623.362	23.01
623.553	23.05
623.744	23.1
623.935	23.22
624.126	23.35
624.317	23.25
624.508	23.46
624.698	23.29
624.889	23.04
625.08	22.98
625.271	23.31
625.462	23.32
625.653	23.34
625.844	23.45
626.034	23.21
626.225	23.17
626.416	23.5
626.607	23.38
626.798	23.19
626.988	23.49
627.179	23.33
627.37	23.08
627.56	23.15
627.751	23.2
627.942	23.26
628.132	23.35
628.323	23.37
628.514	23.3
628.704	23.6
628.895	23.95
629.085	23.99
629.276	24.26
629.466	24.36
629.657	24.18
629.847	24.17
630.038	23.85
630.228	23.91
630.419	23.84
630.609	24.09
630.8	23.96
630.99	23.75
631.181	23.93
631.371	23.68
631.561	23.62
631.752	24.01
631.942	24.07
632.132	24.32
632.323	24.16
632.513	24.43
632.703	24.01
632.893	24
633.084	24.29
633.274	24.17
633.464	24.41
633.654	24.39
633.844	24.49
634.034	24.43
634.225	24.63
634.415	24.55
634.605	24.37
634.795	24.44
634.985	24.58
635.175	24.43
635.365	24.51
635.555	24.54
635.745	24.88
635.935	24.71
636.125	24.68
636.315	24.62
636.505	25.07
636.695	25.19
636.885	25.15
637.075	25.33
637.265	25.1
637.455	24.95
637.644	24.96
637.834	24.84
638.024	24.85
638.214	24.89
638.404	25.03
638.593	24.77
638.783	24.74
638.973	24.5
639.163	23.88
639.352	24.33
639.542	24.23
639.732	24.17
639.921	23.84
640.111	23.42
640.301	23.56
640.49	23.41
640.68	23.48
640.87	23.65
641.059	24.44
641.249	24.71
641.438	24.44
641.628	24.63
641.817	24.75
642.007	25.19
642.196	25.57
642.386	25.2
642.575	25.56
642.764	24.93
642.954	24.9
643.143	24.82
643.333	24.72
643.522	24.9
643.711	24.94
643.901	24.72
644.09	24.31
644.279	24.29
644.469	24.27
644.658	24.15
644.847	24.83
645.036	25.13
645.226	25.18
645.415	25.2
645.604	25.63
645.793	25.55
645.982	25.4
646.171	25.97
646.361	26.09
646.55	26.16
646.739	26.41
646.928	26.61
647.117	26.59
647.306	26.31
647.495	26.52
647.684	26.31
647.873	26.5
648.062	26.35
648.251	26.09
648.44	26.1
648.629	26.7
648.818	26.07
649.007	25.53
649.196	24.99
649.384	24.74
649.573	24.96
649.762	24.52
649.951	24.52
650.14	24.82
650.328	24.5
650.517	24.63
650.706	24.15
650.895	24.29
651.083	24.47
651.272	24.89
651.461	25.72
651.65	25.21
651.838	25.35
652.027	25.61
652.216	25.79
652.404	26.28
652.593	26.22
652.781	26.27
652.97	26.11
653.158	26.31
653.347	26.53
653.535	25.95
653.724	26.35
653.912	26.23
654.101	25.66
654.289	25.73
654.478	26.03
654.666	26.15
654.855	26.17
655.043	26.69
655.231	26.53
655.42	26.53
655.608	26.64
655.796	26.89
655.985	27.19
656.173	27.67
656.361	27.49
656.55	26.85
656.738	26.71
656.926	26.92
657.114	26.91
657.302	27.07
657.491	26.98
657.679	27
657.867	26.38
658.055	26.44
658.243	26.19
658.431	26.85
658.619	26.84
658.807	26.65
658.996	26.54
659.184	26.6
659.372	26.46
659.56	26.67
659.748	26.61
659.936	26.82
660.124	27
660.311	27.23
660.499	27.1
660.687	27.39
660.875	27.52
661.063	27.62
661.251	27.75
661.439	27.89
661.627	27.46
661.814	27.57
662.002	27.8
662.19	27.53
662.378	27.59
662.565	27.3
662.753	27.58
662.941	27.49
663.129	27.56
663.316	27.3
663.504	27.57
663.692	27.62
663.879	27.21
664.067	27.03
664.254	26.87
664.442	26.98
664.63	26.7
664.817	26.4
665.005	26.48
665.192	26.24
665.38	26.01
665.567	25.92
665.755	26.11
665.942	26.38
666.13	26.43
666.317	26.63
666.504	26.23
666.692	26.32
666.879	26.06
667.067	26.28
667.254	26.52
667.441	26.69
667.629	26.42
667.816	26.51
668.003	26.54
668.19	27.08
668.378	27.1
668.565	26.91
668.752	26.95
668.939	26.97
669.127	26.72
669.314	26.5
669.501	26.41
669.688	26.54
669.875	26.52
670.062	26.82
670.249	26.56
670.436	26.83
670.623	27.42
670.81	27.28
670.997	27.5
671.184	27.84
671.371	28.15
671.558	28.27
671.745	28.51
671.932	28.57
672.119	28.51
672.306	28.37
672.493	28.2
672.68	27.72
672.867	27.82
673.054	27.63
673.24	27.52
673.427	26.94
673.614	26.9
673.801	26.54
673.988	26.71
674.174	26.63
674.361	26.65
674.548	26.08
674.734	26.01
674.921	26.29
675.108	26.82
675.294	26.54
675.481	27.13
675.668	26.91
675.854	27.1
676.041	27.16
676.227	26.97
676.414	26.92
676.601	27.02
676.787	27.16
676.974	26.56
677.16	26.47
677.347	27.26
677.533	27.34
677.719	27.27
677.906	26.99
678.092	26.34
678.279	26.78
678.465	26.8
678.651	27.2
678.838	27.69
679.024	27.48
679.21	27.5
679.397	27.01
679.583	27.19
679.769	27.6
679.955	27.79
680.142	28
680.328	27.85
680.514	27.82
680.7	28.11
680.886	27.84
681.073	28.53
681.259	28.46
681.445	28.65
681.631	28.62
681.817	28.39
682.003	28.6
682.189	28.94
682.375	28.85
682.561	29.05
682.747	28.9
682.933	28.77
683.119	28.31
683.305	28.56
683.491	28.48
683.677	27.92
683.863	28.04
684.049	28.04
684.235	28
684.42	27.93
684.606	27.74
684.792	27.79
684.978	27.81
685.164	28.23
685.349	28.03
685.535	28.03
685.721	28.62
685.907	28.28
686.092	28.11
686.278	27.75
686.464	27.85
686.649	28.03
686.835	27.84
687.021	28.56
687.206	28.4
687.392	28.41
687.577	28.34
687.763	27.59
687.948	28.11
688.134	27.95
688.319	28.6
688.505	28.43
688.69	28.28
688.876	28.44
689.061	27.59
689.247	27.44
689.432	27.54
689.618	27.3
689.803	28.27
689.988	28.44
690.174	28.93
690.359	28.64
690.544	28.87
690.73	29.04
690.915	28.52
691.1	28.29
691.285	28.53
691.471	28.13
691.656	28.45
691.841	28.12
692.026	27.99
692.211	27.56
692.396	27.78
692.582	27.87
692.767	28.31
692.952	29.28
693.137	29.77
693.322	29.55
693.507	30.22
693.692	30.05
693.877	29.79
694.062	29.93
694.247	30.21
694.432	29.65
694.617	29.13
694.802	28.35
694.987	27.45
695.172	27.56
695.357	28.16
695.541	27.68
695.726	27.79
695.911	27.89
696.096	27.17
696.281	27.04
696.466	27.1
696.65	28.18
696.835	28.62
697.02	28.35
697.204	28.39
697.389	28.11
697.574	27.92
697.759	28.28
697.943	28.36
698.128	28.41
698.312	28.36
698.497	28.41
698.682	28.15
698.866	27.78
699.051	28.36
699.235	28.2
699.42	28.44
699.604	28.25
699.789	28.02
699.973	28.03
700.158	28.41
700.342	28.43
700.527	28.64
700.711	28.73
700.895	29.13
701.08	28.91
701.264	29.53
701.448	29.51
701.633	29.58
701.817	29.94
702.001	30.23
702.186	30.29
702.37	30.27
702.554	30.01
702.738	30.44
702.923	30.17
703.107	30.47
703.291	29.47
703.475	29.26
703.659	29.41
703.843	29.61
704.027	29.52
704.212	29.47
704.396	29.69
704.58	30.43
704.764	29.36
704.948	29.63
705.132	29.37
705.316	30.2
705.5	29.4
705.684	30.07
705.868	29.04
706.052	28.92
706.235	28.85
706.419	28.42
706.603	28.05
706.787	28.02
706.971	27.81
707.155	27.62
707.339	27.38
707.522	28.49
707.706	28.29
707.89	28.98
708.074	28.75
708.257	27.99
708.441	28.02
708.625	27.72
708.808	28.44
708.992	28.81
709.176	28.9
709.359	28.56
709.543	28.37
709.727	28.41
709.91	28.51
710.094	28.3
710.277	29.22
710.461	29.16
710.644	28.66
710.828	27.78
711.011	26.81
711.195	26.98
711.378	27.12
711.562	27.31
711.745	26.86
711.928	26.36
712.112	26.26
712.295	25.55
712.478	26.49
712.662	27.09
712.845	27.73
713.028	28.12
713.212	28.06
713.395	28.42
713.578	27.73
713.761	28.5
713.945	28.15
714.128	29.09
714.311	29.33
714.494	28.82
714.677	28.96
714.86	28.55
715.043	28.9
715.227	29.12
715.41	29.53
715.593	29.61
715.776	30.13
715.959	30.83
716.142	30.48
716.325	30.72
716.508	30.82
716.691	30.71
716.874	30.77
717.057	30.51
717.239	30.31
717.422	29.56
717.605	29.98
717.788	29.37
717.971	29.13
718.154	29.3
718.337	29.27
718.519	29.62
718.702	29.93
718.885	31.17
719.068	31.27
719.25	31.41
719.433	31.58
719.616	31.78
719.798	31.37
719.981	31.54
720.164	30.09
720.346	29.84
720.529	30.07
720.712	29.6
720.894	28.92
721.077	29.55
721.259	29.35
721.442	28.36
721.624	29.53
721.807	28.98
721.989	29.94
722.172	30.49
722.354	30
722.537	29.74
722.719	29.64
722.901	29.6
723.084	29.11
723.266	29.26
723.448	30.71
723.631	30.03
723.813	30.75
723.995	29.19
724.178	29.49
724.36	29.67
724.542	30.01
724.724	30.61
724.907	30.47
725.089	31.29
725.271	31.5
725.453	30.58
725.635	29.71
725.817	30.09
725.999	31.68
726.181	30.91
726.364	32.12
726.546	31.01
726.728	30.77
726.91	30.8
727.092	30.26
727.274	30.19
727.456	29.93
727.638	30.91
727.819	31.1
728.001	29.48
728.183	31.38
728.365	30.92
728.547	31.69
728.729	31.07
728.911	32
729.093	32.08
729.274	32.04
729.456	33.12
729.638	32.24
729.82	31.57
730.001	32.22
730.183	31.27
730.365	31.05
730.546	30.48
730.728	30.98
730.91	29.34
731.091	28.62
731.273	27.62
731.455	27.15
731.636	26.4
731.818	26.95
731.999	26.16
732.181	26.2
732.362	26.77
732.544	27.4
732.725	27.2
732.907	27.53
733.088	28.85
733.27	29.96
733.451	29.75
733.633	29.59
733.814	29.67
733.995	29.99
734.177	30.56
734.358	30.12
734.539	29.58
734.721	30.32
734.902	30.92
735.083	30.1
735.264	30
735.446	30.07
735.627	30.96
735.808	30.92
735.989	31.62
736.17	32.05
736.351	32.67
736.533	32.73
736.714	32.11
736.895	32.33
737.076	31.94
737.257	31.37
737.438	32.94
737.619	33.45
737.8	33.3
737.981	33.92
738.162	32.36
738.343	31.91
738.524	31.24
738.705	31.55
738.886	31.33
739.067	31.19
739.247	30.61
739.428	29.86
739.609	29.05
739.79	28.98
739.971	28.38
740.151	28.79
740.332	28.54
740.513	29.5
740.694	28.64
740.874	28.19
741.055	28.52
741.236	30.21
741.417	29.62
741.597	30.45
741.778	30.1
741.958	29.42
742.139	28.87
742.32	28.3
742.5	29.26
742.681	29.21
742.861	29.79
743.042	30.43
743.222	30.74
743.403	30.87
743.583	29.62
743.764	28.26
743.944	28.88
744.124	30.25
744.305	30.12
744.485	27.94
744.666	27.54
744.846	28.53
745.026	28.18
745.207	27.67
745.387	28.76
745.567	28.9
745.747	32.36
745.928	31.96
746.108	31.2
746.288	31.86
746.468	32.92
746.648	33.08
746.829	31.58
747.009	31.46
747.189	30.46
747.369	30
747.549	29.78
747.729	28.11
747.909	27.98
748.089	26.84
748.269	27.03
748.449	26.76
748.629	27.71
748.809	28.82
748.989	28.31
749.169	26.92
749.349	25.83
749.529	27.03
749.709	27.39
749.889	27.67
750.068	28.98
750.248	30
750.428	30.72
750.608	30.21
750.788	28.61
750.967	29.3
751.147	31.09
751.327	30.64
751.507	31.28
751.686	29.61
751.866	29.78
752.046	30.36
752.225	30.55
752.405	29.95
752.585	31.05
752.764	30.56
752.944	30.6
753.123	30.33
753.303	30
753.482	29.94
753.662	31.16
753.841	31.45
754.021	31.58
754.2	30.12
754.38	29.41
754.559	29.02
754.739	29.6
754.918	30.04
755.097	30.24
755.277	31.95
755.456	30.91
755.635	30.81
755.815	29.43
755.994	29.69
756.173	29.46
756.352	29.41
756.532	28.56
756.711	29.22
756.89	29.16
757.069	28.89
757.248	30.1
757.427	30.72
757.607	30.07
757.786	30.62
757.965	28.97
758.144	30.59
758.323	30.62
758.502	31.76
758.681	30.16
758.86	28.77
759.039	28.99
759.218	27.38
759.397	26.79
759.576	26.46
759.755	26.52
759.934	26.09
760.113	26.33
760.291	26.26
760.47	25.81
760.649	26.32
760.828	28.32
761.007	28.91
761.186	28.78
761.364	28.48
761.543	29.31
761.722	29.36
761.901	30.65
762.079	29.95
762.258	29.7
762.437	29.59
762.615	30.42
762.794	29.31
762.972	29.17
763.151	29.36
763.33	30.4
763.508	30.34
763.687	30.28
763.865	30.11
764.044	29.8
764.222	31.14
764.401	30.96
764.579	30.71
764.758	31.11
764.936	31.34
765.114	31.07
765.293	30
765.471	30.41
765.65	30.63
765.828	31.24
766.006	30.85
766.184	29.16
766.363	28.86
766.541	29.52
766.719	29.64
766.898	29.61
767.076	30.25
767.254	29.99
767.432	29.22
767.61	28.92
767.788	27.2
767.967	26.89
768.145	28.1
768.323	28.21
768.501	27.43
768.679	27.97
768.857	28.37
769.035	28.5
769.213	29.13
769.391	29.34
769.569	31.4
769.747	31
769.925	33.17
770.103	34.44
770.281	34.54
770.459	35.19
770.636	34.37
770.814	33.09
770.992	33.17
771.17	33.25
771.348	32.98
771.525	32.3
771.703	34.55
771.881	33.08
772.059	31.68
772.236	32.64
772.414	32.51
772.592	33.43
772.769	32.01
772.947	29.94
773.125	29.59
773.302	30.96
773.48	30.68
773.657	28.84
773.835	28.13
774.013	29.21
774.19	28.04
774.368	26.54
774.545	22.4
774.723	22.95
774.9	25.11
775.077	26.67
775.255	27.05
775.432	27.64
775.61	28.18
775.787	29.76
775.964	28.09
776.142	28.96
776.319	29.98
776.496	31.3
776.674	33.48
776.851	32.71
777.028	34.01
777.205	30.83
777.382	29.19
777.56	27.61
777.737	26.19
777.914	27.56
778.091	26.44
778.268	27.25
778.445	28.22
778.622	27.58
778.8	27.71
778.977	27.73
779.154	29.6
779.331	30.09
779.508	33.2
779.685	31.75
779.862	30.57
780.038	31.37
780.215	29.52
780.392	28.39
780.569	26.65
780.746	25.31
780.923	24.38
781.1	21.58
781.277	22.32
781.453	21.4
781.63	22.91
781.807	24.62
781.984	20.46
782.16	19.66
782.337	21.19
782.514	23.46
782.691	25.39
782.867	24.19
783.044	27.78
783.221	23.91
783.397	24.25
783.574	22.95
783.75	20.12
783.927	26.9
784.103	30.51
784.28	33.69
784.456	32.22
784.633	31.25
784.809	29.04
784.986	29.6
785.162	30.6
785.339	32.17
785.515	35.72
785.692	38.69
785.868	36.06
786.044	37.69
786.221	32.95
786.397	32.43
786.573	31.03
786.749	29.41
786.926	29.74
787.102	26.8
787.278	25.14
787.454	20.71
787.631	20.09
787.807	21.03
787.983	17.73
788.159	20.35
788.335	20.59
788.511	22.84
788.687	26.58
788.863	24.93
789.039	29.64
789.216	29.69
789.392	35.05
789.568	34.96
789.744	35.79
789.919	34.64
790.095	32.43
790.271	33.39
790.447	30.32
790.623	28.71
790.799	32.15
790.975	31.06
791.151	31.78
791.327	30.31
791.502	29.96
791.678	29.89
791.854	30.23
792.03	33.63
792.205	31.97
792.381	34.37
792.557	32.91
792.733	28.04
792.908	24.13
793.084	26.01
793.259	23.54
793.435	22.41
793.611	24.27
793.786	23.61
793.962	23.26
794.137	24.57
794.313	23.26
794.488	27.71
794.664	26.64
794.839	29.95
795.015	26.19
795.19	27.47
795.366	27.62
795.541	24.14
795.716	27.93
795.892	26.9
796.067	25.05
796.242	25.92
796.418	25.53
796.593	26.72
796.768	25.86
796.944	29.45
797.119	27.1
797.294	27.25
797.469	27.88
797.644	26.02
797.82	26.69
797.995	28
798.17	29.21
798.345	25.86
798.52	24.76
798.695	26.8
798.87	24.45
799.045	23.81
799.22	24.12
799.395	23.3
799.57	23.79
799.745	22.59
799.92	23.96
800.095	23.14
800.27	23.58
800.445	27.98
800.62	25.69
800.795	22.3
800.97	24.52
801.145	25.61
801.319	25.77
801.494	26.51
801.669	27.49
801.844	23.8
802.018	25.92
802.193	31.62
802.368	29.63
802.543	26.42
802.717	27.68
802.892	31.32
803.067	28.77
803.241	28.01
803.416	29.75
803.59	30.44
803.765	32.52
803.94	30.87
804.114	26.46
804.289	22.46
804.463	26.45
804.638	28.94
804.812	26.27
804.986	28.97
805.161	30.18
805.335	31.47
805.51	29.3
805.684	24.14
805.858	25.24
806.033	24.44
806.207	30.74
806.381	33.83
806.556	33.01
806.73	33.21
806.904	29.57
807.078	31.55
807.253	25.65
807.427	29.06
807.601	33.26
807.775	29.12
807.949	29.44
808.123	27.11
808.298	24.25
808.472	23.74
808.646	22.18
808.82	27.36
808.994	23.58
809.168	23.73
809.342	17.45
809.516	20.68
809.69	22.3
809.864	24.81
810.038	20.17
810.212	25.57
810.385	22.8
810.559	21.18
810.733	16.81
810.907	17.97
811.081	20.41
811.255	21.14
811.428	19.5
811.602	21.43
811.776	15.52
811.95	14.35
812.123	7.92
812.297	10.75
812.471	8.34
812.644	9.58
812.818	8.42
812.992	6.13
813.165	5.68
813.339	1.31
813.512	0.88
813.686	2.99
813.86	2.37
814.033	-2.41
814.207	-4.46
814.38	1.77
814.554	7.73
814.727	10.12
814.9	11.51
815.074	16.53
815.247	20.91
815.421	21.85
815.594	24.68
815.767	27.36
815.941	33.48
816.114	32.37
816.287	30.93
816.46	22.79
816.634	24.8
816.807	26.89
816.98	21
817.153	15.69
817.327	17.66
817.5	18.03
817.673	19.5
817.846	16.48
818.019	18.13
818.192	17.64
818.365	22.91
818.538	15.78
818.711	13.36
818.884	17.56
819.057	18.77
819.23	14.95
819.403	13.08
819.576	16.85
819.749	19.22
819.922	20.52
820.095	23.44
820.268	21.93
820.441	25.6
820.614	26.85
820.786	29.41
820.959	28.58
821.132	29.26
821.305	32.29
821.477	30.65
821.65	30.45
821.823	30.54
821.996	30.47
822.168	31.13
822.341	31.56
822.514	31.18
822.686	31.89
822.859	33
823.031	32.77
823.204	31.91
823.376	32.61
823.549	33.5
823.722	33.82
823.894	33.91
824.067	34.56
824.239	33.88
824.411	33.98
824.584	32.74
824.756	32.34
824.929	32.46
825.101	32.63
825.273	32.77
825.446	32.01
825.618	31.38
825.79	30.43
825.963	28.9
826.135	29.56
826.307	31.68
826.479	31.5
826.652	32.95
826.824	32.84
826.996	32.54
827.168	32.56
827.34	31.36
827.512	32.31
827.684	33.31
827.856	33.54
828.029	32.55
828.201	29.66
828.373	29.72
828.545	28.99
828.717	29.06
828.889	29.07
829.061	26.76
829.232	27.87
829.404	25.92
829.576	25.83
829.748	26.39
829.92	27.61
830.092	27.61
830.264	24.07
830.436	18.99
830.607	18.47
830.779	17.63
830.951	19.81
831.123	18.21
831.294	18.08
831.466	14.63
831.638	11.16
831.809	9.58
831.981	11.27
832.153	16.18
832.324	22.93
832.496	25.54
832.667	26.88
832.839	27.25
833.011	23.64
833.182	23.95
833.354	27.3
833.525	27.88
833.697	25.2
833.868	25.94
834.039	27.86
834.211	26.14
834.382	23.38
834.554	23.91
834.725	22.61
834.896	25.45
835.068	26.67
835.239	25.15
835.41	23.32
835.581	23.87
835.753	21.04
835.924	20.96
836.095	21.05
836.266	19.25
836.438	17.35
836.609	18.57
836.78	18.7
836.951	11.6
837.122	9.27
837.293	11.02
837.464	9.26
837.635	10.44
837.806	2.26
837.977	2.37
838.148	3.16
838.319	10.6
838.49	8.42
838.661	5.9
838.832	13.52
839.003	15.88
839.174	15.44
839.345	20.08
839.516	26.77
839.687	31.47
839.857	25.89
840.028	33.52
840.199	23.83
840.37	14.8
840.54	11.93
840.711	8.83
840.882	10.93
841.053	6.74
841.223	0.24
841.394	-4.67
841.564	-7.56
841.735	1.01
841.906	-8.43
842.076	-5.7
842.247	-5.19
842.417	-9.35
842.588	-8.12
842.758	-14.16
842.929	-6.48
843.099	-12.17
843.27	-18.82
843.44	-26.16
843.611	-40.36
843.781	-35.1
843.951	-36.37
844.122	-25.34
844.292	-21.4
844.462	-23.97
844.633	-19.47
844.803	-49.2
844.973	-68.59
845.144	-88.79
845.314	-41.53
845.484	-42.16
845.654	-35.04
845.824	-83.34
845.995	-90.95
846.165	-71.45
846.335	-115.16
846.505	-181.44
846.675	-77.83
846.845	-60.75
847.015	-35.81
847.185	-58.39
847.355	-80.17
847.525	-84.32
847.695	-44.1
847.865	-76.64
848.035	-125.76
848.205	-49.83
848.375	-41.2
848.545	-81
848.715	-32.78
848.884	-20.35
849.054	-28.89
849.224	-15.7
849.394	-60.3
849.564	-20.56
849.733	4.57
849.903	16.28
850.073	-18.21
850.243	-121.47
850.412	-83.64
850.582	-112.43
850.752	-110.17
850.921	-109.74
851.091	-50.68
851.26	-42.53
851.43	-31.36
851.599	-35.82
851.769	-35.97
851.939	-17.18
852.108	-17.99
852.278	-19.11
852.447	-132.47
852.616	-320.38
852.786	-170.92
852.955	-279.86
853.125	-86.49
853.294	-58.69
853.463	-155.9
853.633	-138.84
853.802	-90.51
853.971	-16.09
854.141	0.46
854.31	14.33
854.479	25.4
854.648	16.88
854.818	28.54
854.987	33.64
855.156	20.71
855.325	37.74
855.494	25.98
855.663	27.42
855.832	36.46
856.001	19.08
856.171	25.77
856.34	21.89
856.509	9.17
856.678	-21.72
856.847	-17.57
857.016	5.57
857.185	-8.98
857.353	26.23
857.522	9.81
857.691	-25.05
857.86	-10.8
858.029	-8.16
858.198	4.53
858.367	10.11
858.535	-0.45
858.704	-38.37
858.873	-46.76
859.042	-89.28
859.21	-74.7
859.379	-43.42
859.548	-120.04
859.717	-261.4
859.885	-352.09
860.054	-1292.2
860.222	-280.83
860.391	-255.15
860.56	-91.15
860.728	-136.52
860.897	-66.94
861.065	-46.09
861.234	-52.59
861.402	-28.35
861.571	-1.03
861.739	30.2
861.908	28.04
862.076	33.74
862.244	49.37
862.413	45.34
862.581	27.51
862.749	8.37
862.918	-6.19
863.086	-3.51
863.254	7.85
863.423	-4.01
863.591	-5.41
863.759	-23.89
863.927	-71.93
864.096	-137.83
864.264	-184.49
864.432	-127.84
864.6	-67.52
864.768	-70.81
864.936	-86.29
865.104	-102.97
865.272	-154.18
865.44	-151.97
865.608	-100.92
865.776	-81.63
865.944	-31.86
866.112	-35.96
866.28	-20.12
866.448	-48.33
866.616	-36.12
866.784	-7.46
866.952	-35
867.12	-24.3
867.288	-110.63
867.455	-868.6
867.623	-493.08
867.791	1857.8
867.959	2224.29
868.127	737.35
868.294	557.31
868.462	648.6
868.63	582.95
868.797	1648.62
868.965	15447.46
869.133	-1158.57
869.3	-478.65
869.468	-374.34
869.636	-270.42
869.803	-980.9
869.971	-383.5
870.138	-46.6
870.306	6.91
870.473	14.89
870.641	-28.11
870.808	-67.31
870.975	-46.79
871.143	-84.15
871.31	-41.91
871.478	-6.62
871.645	4.71
871.812	-6.76
871.98	-2.66
872.147	3.31
872.314	-2.52
872.482	14.31
872.649	22.91
872.816	46.16
872.983	28.32
873.15	5.29
873.318	-7.79
873.485	0.77
873.652	11.9
873.819	-24.04
873.986	-47.08
874.153	-29.6
874.32	-42.13
874.487	-70.21
874.654	-104.44
874.821	-126.76
874.988	-84.4
875.155	-50.18
875.322	-93.38
875.489	-38.31
875.656	-4.39
875.823	15.1
875.99	35.05
876.157	22.32
876.324	26.43
876.49	45.23
876.657	27.6
876.824	40.32
876.991	36.75
877.157	47.3
877.324	64.9
877.491	46.07
877.658	25.74
877.824	36.46
877.991	59.23
878.157	47.54
878.324	18.14
878.491	46.72
878.657	22.46
878.824	62.95
878.99	26.37
879.157	6.11
879.323	-22.39
879.49	2.82
879.656	-43.83
879.823	-81.3
879.989	-51.01
880.156	-33.22
880.322	-31.05
880.488	-26.34
880.655	-64.96
880.821	-23.78
880.987	-12.4
881.154	17.53
881.32	28.15
881.486	20.84
881.652	19.31
881.819	21.49
881.985	23.12
882.151	25.62
882.317	29.01
882.483	37.43
882.649	39.33
882.816	35.34
882.982	31.16
883.148	27.6
883.314	31.05
883.48	32.22
883.646	34.24
883.812	36.8
883.978	35.59
884.144	36.88
884.31	36.48
884.476	34.2
884.642	33.27
884.807	30.98
884.973	32.23
885.139	30.14
885.305	29.25
885.471	26.81
885.637	20.44
885.802	14.46
885.968	11.01
886.134	3.98
886.3	2.04
886.465	4.71
886.631	9.58
886.797	5.03
886.962	6.43
887.128	6.65
887.293	2.39
887.459	2.82
887.625	0.49
887.79	0.1
887.956	0.22
888.121	-12.96
888.287	-17.15
888.452	-21.02
888.618	-15.03
888.783	-20.99
