Data from 2937841_Reflection_2.txt Node
Date: Wed Jul 15 16:17:02 EDT 2015
User: robert
Spectrometer: USB4E03001
Autoset integration time: false
Trigger mode: 4
Integration Time (sec): 1.000000E-1
Scans to average: 10
Electric dark correction enabled: true
Nonlinearity correction enabled: false
Boxcar width: 5
Stray light correction enabled: false
XAxis mode: Wavelengths
Stop averaging: false
Number of Pixels in Spectrum: 3648
>>>>>Begin Spectral Data<<<<<
177.566	81.78
177.785	116.31
178.005	-109.6
178.225	264.84
178.445	324.43
178.665	433.27
178.885	788.13
179.105	79.4
179.324	36.44
179.544	1407.81
179.764	-3.11
179.984	-89.91
180.204	25.21
180.423	-6.44
180.643	23.05
180.863	57.64
181.083	110.34
181.302	166.79
181.522	12.85
181.742	-88.96
181.961	-118.63
182.181	-14411.11
182.401	-433.3
182.621	-419.98
182.84	-3683.05
183.06	-128.43
183.279	-13.27
183.499	-27.46
183.719	-39.59
183.938	0.62
184.158	-9.82
184.377	-1.31
184.597	8.63
184.816	5.28
185.036	32.41
185.256	13.12
185.475	-53.05
185.695	-44.51
185.914	-30.15
186.134	-85.26
186.353	-2062.03
186.572	-18.46
186.792	-27.68
187.011	-42.33
187.231	-291.67
187.45	-239.77
187.67	-146.28
187.889	-33.15
188.108	-90.04
188.328	-99.16
188.547	-189.4
188.766	-283.18
188.986	-429.72
189.205	579.68
189.424	357.27
189.644	439.53
189.863	496.62
190.082	330.41
190.302	214.76
190.521	203.59
190.74	200.2
190.959	182.51
191.178	233.01
191.398	165.17
191.617	-4634.85
191.836	1721.94
192.055	-7.46
192.274	-22.35
192.494	-233.66
192.713	-2091.33
192.932	357.45
193.151	203.82
193.37	354.44
193.589	207.13
193.808	567.84
194.027	187.89
194.246	169.58
194.465	273.73
194.685	-16455
194.904	-716.16
195.123	722.42
195.342	-1009.57
195.561	-10.33
195.78	-29.99
195.999	27.35
196.218	3705.26
196.436	56.21
196.655	41.69
196.874	152.13
197.093	1092.59
197.312	293.07
197.531	55.71
197.75	32.86
197.969	-1.85
198.188	-1.2
198.407	-0.2
198.625	8.28
198.844	-9
199.063	-35.24
199.282	-40.1
199.501	-8.61
199.719	-9.78
199.938	-41.44
200.157	-80.34
200.376	-98.26
200.594	-161.12
200.813	1194.45
201.032	393.12
201.251	312.76
201.469	592.15
201.688	285.45
201.907	149.08
202.125	-802.09
202.344	139.7
202.563	212.07
202.781	5892
203	183.55
203.218	209.31
203.437	221.48
203.656	167.69
203.874	150.32
204.093	192.09
204.311	179.24
204.53	154.83
204.748	418.95
204.967	4716.13
205.185	-475.39
205.404	-129.92
205.622	-42.59
205.841	9.72
206.059	10.14
206.278	29.03
206.496	18.14
206.715	66.09
206.933	91.09
207.151	102.26
207.37	72.26
207.588	82.95
207.806	62.67
208.025	48.92
208.243	17.72
208.461	14.7
208.68	3.93
208.898	26.88
209.116	-21.18
209.335	-7.71
209.553	-8.58
209.771	7.07
209.989	-0.05
210.208	-27.4
210.426	-64.93
210.644	-110.49
210.862	-97.12
211.081	-173.8
211.299	-179.25
211.517	-137.53
211.735	-1136.67
211.953	-2143.53
212.171	173.53
212.39	291.86
212.608	-3209.32
212.826	-1163.4
213.044	-46.58
213.262	-81.85
213.48	-189.1
213.698	2702.58
213.916	-218.29
214.134	-103.28
214.352	-261.24
214.57	-648.51
214.788	517.36
215.006	354.5
215.224	-1195.39
215.442	-1201.37
215.66	346.18
215.878	212.56
216.096	761.13
216.314	352.8
216.532	279.87
216.75	492.44
216.968	-2648.65
217.185	-186.74
217.403	-234.55
217.621	1315.13
217.839	918.62
218.057	729.34
218.275	-1558.93
218.492	-1796.93
218.71	-971.41
218.928	-458.17
219.146	-67.58
219.363	-14.48
219.581	-24.33
219.799	23.65
220.017	11.09
220.234	-12.48
220.452	20.08
220.67	7.1
220.887	-1.31
221.105	-11.39
221.323	-26.23
221.54	-42.51
221.758	-102.32
221.976	-72.14
222.193	-138.02
222.411	-16.85
222.629	-1.87
222.846	-37.78
223.064	-4.7
223.281	-0.08
223.499	31.94
223.716	34.14
223.934	41.06
224.151	46.95
224.369	13.43
224.586	28.78
224.804	0.13
225.021	-15.76
225.239	-7.96
225.456	-17.1
225.674	-14.54
225.891	-40.05
226.108	-34.52
226.326	-30.82
226.543	-8.3
226.76	-10.86
226.978	-23.2
227.195	-18.32
227.413	-1.28
227.63	-0.8
227.847	4.17
228.064	4.72
228.282	10.18
228.499	12.12
228.716	13.02
228.934	11.99
229.151	15.92
229.368	15.37
229.585	16.12
229.802	13.31
230.02	15.12
230.237	13
230.454	9.82
230.671	9.02
230.888	3.46
231.105	2.12
231.323	2.05
231.54	1.23
231.757	1.65
231.974	2.95
232.191	4.89
232.408	4.15
232.625	6.3
232.842	7.68
233.059	-4.65
233.276	5.18
233.493	3.27
233.71	-0.33
233.927	-2.34
234.144	2.31
234.361	-3.03
234.578	-9.58
234.795	-10.03
235.012	-9.9
235.229	-1.87
235.446	3.58
235.663	1.32
235.879	3.46
236.096	9.14
236.313	2.78
236.53	4.34
236.747	3.62
236.964	12.96
237.181	11.58
237.397	12.57
237.614	4.01
237.831	1.92
238.048	-6
238.264	-9.49
238.481	-15.23
238.698	0.17
238.915	2.46
239.131	10.21
239.348	8.06
239.565	11.55
239.781	11.23
239.998	16.29
240.215	20.89
240.431	24.42
240.648	22.42
240.865	21.1
241.081	20.28
241.298	17.54
241.514	17.27
241.731	18.87
241.947	19.43
242.164	18.7
242.38	16.2
242.597	14.88
242.814	14.65
243.03	17.18
243.246	19.67
243.463	18.17
243.679	20.54
243.896	20.86
244.112	18.95
244.329	16.23
244.545	17.26
244.762	18.21
244.978	18.03
245.194	17.74
245.411	15.1
245.627	15.37
245.843	15.79
246.06	15.58
246.276	17.48
246.492	17.73
246.709	19.01
246.925	18.87
247.141	19.86
247.357	20.81
247.574	20.48
247.79	19.91
248.006	19.51
248.222	19.74
248.439	19.88
248.655	17.91
248.871	17.91
249.087	17.81
249.303	17.44
249.519	16.69
249.736	13.75
249.952	13.7
250.168	15.76
250.384	13.03
250.6	12.83
250.816	12.54
251.032	14.28
251.248	14.17
251.464	13.89
251.68	12.9
251.896	13.48
252.112	14.08
252.328	15.35
252.544	15.3
252.76	17.35
252.976	16.51
253.192	14.63
253.408	14.65
253.624	11.96
253.84	12.84
254.056	14.05
254.272	12.25
254.487	14.33
254.703	16.86
254.919	16.31
255.135	16.85
255.351	15.12
255.567	17.97
255.782	17.95
255.998	20.36
256.214	17.21
256.43	18.06
256.646	16.29
256.861	16.5
257.077	14.1
257.293	13.94
257.508	11.25
257.724	12.17
257.94	13.31
258.155	13.2
258.371	13.89
258.587	12.9
258.802	13.2
259.018	12.98
259.234	12.66
259.449	13.44
259.665	13.62
259.88	13.65
260.096	14.21
260.312	12.82
260.527	12.2
260.743	12.68
260.958	13.97
261.174	13.29
261.389	14.73
261.605	14.34
261.82	13.55
262.036	13.95
262.251	14.3
262.466	15.02
262.682	15.56
262.897	16.84
263.113	14.11
263.328	12.79
263.543	14.3
263.759	12.83
263.974	12.38
264.189	12.64
264.405	11.23
264.62	13.4
264.835	12.19
265.051	13.42
265.266	13.51
265.481	16.7
265.696	15.8
265.912	13.34
266.127	13.33
266.342	13.99
266.557	13.02
266.773	12.16
266.988	9.82
267.203	9.08
267.418	9.95
267.633	6.92
267.848	6.39
268.064	7.2
268.279	8.37
268.494	10.72
268.709	9.88
268.924	10.57
269.139	12.09
269.354	12.34
269.569	12.1
269.784	13.8
269.999	16.74
270.214	15.52
270.429	16.29
270.644	15.56
270.859	15.63
271.074	16.55
271.289	18.71
271.504	17.68
271.719	18.54
271.934	19.65
272.149	17.58
272.363	16.98
272.578	16.93
272.793	15.49
273.008	17.17
273.223	16.18
273.438	14.84
273.653	13.2
273.867	12.85
274.082	12.93
274.297	12.06
274.512	10.64
274.726	10.2
274.941	9.76
275.156	10.73
275.371	9.31
275.585	6.66
275.8	7.47
276.015	7.64
276.229	8.03
276.444	6.14
276.659	4.61
276.873	7.01
277.088	8.01
277.302	10.54
277.517	11.53
277.732	9.9
277.946	11.93
278.161	13.17
278.375	12.71
278.59	13.9
278.804	13.19
279.019	12.07
279.233	10.35
279.448	10.97
279.662	8.45
279.877	8.74
280.091	9.08
280.306	8.39
280.52	8.69
280.735	6.25
280.949	5.48
281.163	7.46
281.378	9.9
281.592	10.59
281.806	8.37
282.021	7.94
282.235	7.52
282.449	6.97
282.664	7.53
282.878	5.58
283.092	7.76
283.307	7.83
283.521	8.56
283.735	7.28
283.949	7.51
284.164	9.85
284.378	9.98
284.592	8.81
284.806	9.5
285.02	10.34
285.234	12.2
285.449	11.59
285.663	12.51
285.877	11.82
286.091	11.5
286.305	11.79
286.519	10.26
286.733	11.63
286.947	12.06
287.161	12.55
287.375	11.33
287.589	11.94
287.803	12.29
288.017	13.28
288.231	12.55
288.445	14.06
288.659	13.53
288.873	14.38
289.087	14.36
289.301	14.29
289.515	15.39
289.729	14.36
289.943	13.4
290.157	13.11
290.371	10.91
290.584	11.2
290.798	10.33
291.012	10.2
291.226	9.91
291.44	9.29
291.654	10.13
291.867	9.23
292.081	11.01
292.295	12.68
292.509	13.99
292.722	14.8
292.936	14.63
293.15	16.62
293.364	17.58
293.577	18.21
293.791	18.53
294.005	18.47
294.218	17.21
294.432	16.47
294.645	14.44
294.859	14.54
295.073	13.39
295.286	14.56
295.5	13.36
295.713	13.57
295.927	14.22
296.14	13.78
296.354	14.14
296.568	14.77
296.781	15.73
296.994	15.82
297.208	15.15
297.421	15.01
297.635	15.94
297.848	15.78
298.062	16.62
298.275	16.68
298.489	17.77
298.702	18.56
298.915	18.81
299.129	19.79
299.342	20.4
299.555	21.29
299.769	22.64
299.982	21.45
300.195	21.87
300.409	21.65
300.622	20.43
300.835	18.81
301.048	17.44
301.262	16.33
301.475	14.68
301.688	15.53
301.901	15.64
302.115	15.94
302.328	16.13
302.541	15.65
302.754	15.22
302.967	15.6
303.18	16.13
303.393	15.37
303.607	15.9
303.82	15.81
304.033	15.1
304.246	15.38
304.459	14.44
304.672	14.22
304.885	14.24
305.098	13.73
305.311	14.87
305.524	15.3
305.737	16.78
305.95	17.16
306.163	18.14
306.376	17.72
306.589	17.67
306.802	18.36
307.015	19.19
307.228	19.44
307.44	18.43
307.653	17.75
307.866	17.87
308.079	16.13
308.292	18.23
308.505	17.62
308.718	16.48
308.93	16.08
309.143	16.07
309.356	15.92
309.569	15.2
309.781	14.55
309.994	16.1
310.207	16.18
310.42	18.29
310.632	18.22
310.845	19.67
311.058	20.01
311.27	21.13
311.483	21.79
311.696	21.26
311.908	23.42
312.121	23.83
312.333	22.39
312.546	23.62
312.759	23.58
312.971	22.9
313.184	21.96
313.396	23.26
313.609	21.26
313.821	20.76
314.034	21.29
314.246	19.37
314.459	20.5
314.671	22.15
314.884	20.34
315.096	21.14
315.309	21.7
315.521	20.43
315.733	19.24
315.946	19.76
316.158	19.1
316.371	19.67
316.583	20.32
316.795	21.64
317.008	20.55
317.22	20.55
317.432	18.47
317.644	16.72
317.857	18.79
318.069	18.66
318.281	18.51
318.494	20.89
318.706	18.92
318.918	18.87
319.13	18.28
319.342	19.54
319.555	20.83
319.767	19.76
319.979	21.6
320.191	20.77
320.403	22.5
320.615	22.36
320.827	20.63
321.039	22.44
321.252	21.49
321.464	21.28
321.676	19.83
321.888	20.54
322.1	19.96
322.312	20.29
322.524	20.61
322.736	19.34
322.948	18.69
323.16	17.96
323.372	16.64
323.584	18.89
323.796	19.47
324.007	19.06
324.219	16.88
324.431	18.78
324.643	18.2
324.855	16.77
325.067	18.55
325.279	19.56
325.491	20.61
325.702	21.79
325.914	20.82
326.126	20.51
326.338	20.63
326.55	22.89
326.761	23.51
326.973	22.01
327.185	22.19
327.396	21.71
327.608	20.06
327.82	19.72
328.032	19.14
328.243	20
328.455	19.73
328.666	19.63
328.878	18.82
329.09	17.48
329.301	19.49
329.513	20.35
329.725	19.43
329.936	19.99
330.148	21.27
330.359	22.35
330.571	22.11
330.782	22.41
330.994	22.25
331.205	20.95
331.417	21.93
331.628	19.67
331.84	18.45
332.051	18.77
332.262	19.89
332.474	20.82
332.685	19.53
332.897	17.78
333.108	16.71
333.319	17.42
333.531	19.14
333.742	19.03
333.953	21.96
334.165	21.6
334.376	21.85
334.587	22.58
334.799	21.05
335.01	20.71
335.221	21.04
335.432	21
335.644	22.64
335.855	21.66
336.066	22.64
336.277	20.13
336.488	22.39
336.7	22.49
336.911	23.54
337.122	23.5
337.333	23.55
337.544	24.06
337.755	25.31
337.966	23.93
338.177	25.61
338.388	24.52
338.599	25.07
338.811	24.12
339.022	23.89
339.233	22.01
339.444	22.71
339.655	23.93
339.866	24.7
340.076	24.06
340.287	24.51
340.498	23.45
340.709	23.17
340.92	23.14
341.131	22.55
341.342	23.25
341.553	23.52
341.764	23.26
341.975	22.43
342.185	22.32
342.396	21.65
342.607	21.97
342.818	22.93
343.029	24.4
343.239	25.74
343.45	25.55
343.661	24.34
343.872	25.04
344.082	24.7
344.293	25.55
344.504	26.16
344.714	26.12
344.925	25.58
345.136	24.79
345.346	22.98
345.557	22.22
345.768	23.4
345.978	22.77
346.189	21.88
346.399	22.16
346.61	22.05
346.821	20.84
347.031	22.98
347.242	22.84
347.452	22.61
347.663	23.32
347.873	23.38
348.084	22.5
348.294	24.38
348.504	25.01
348.715	23.7
348.925	23.7
349.136	23.67
349.346	21.68
349.557	22.63
349.767	21.65
349.977	20.69
350.188	20.69
350.398	20.53
350.608	20.75
350.819	20.55
351.029	21.12
351.239	21.52
351.449	22.85
351.66	23.86
351.87	23.35
352.08	24.83
352.29	24.76
352.501	24.06
352.711	25.87
352.921	24.33
353.131	24.61
353.341	24.67
353.552	23.1
353.762	21.69
353.972	21.96
354.182	22.81
354.392	22.96
354.602	23.07
354.812	23.18
355.022	21.63
355.232	22.19
355.442	21.85
355.652	22.05
355.862	22.96
356.072	22.82
356.282	22.05
356.492	21.19
356.702	20.54
356.912	20.48
357.122	21.15
357.332	20.77
357.542	20.4
357.752	19.95
357.962	19.79
358.171	20.06
358.381	20.86
358.591	21.14
358.801	22
359.011	22.85
359.221	23.74
359.43	22.75
359.64	23.38
359.85	23.45
360.06	23.74
360.269	23.65
360.479	23.21
360.689	22.37
360.899	21.88
361.108	21.23
361.318	20.83
361.528	20.57
361.737	20.58
361.947	20.38
362.156	20.56
362.366	20.43
362.576	20.38
362.785	19.91
362.995	20.57
363.204	20.55
363.414	20.8
363.623	20.21
363.833	20.68
364.042	21.8
364.252	21.6
364.461	21.38
364.671	21.95
364.88	22.29
365.09	23.25
365.299	22.84
365.509	22.42
365.718	22.65
365.927	22.44
366.137	21.01
366.346	19.81
366.555	19.54
366.765	19.98
366.974	19.18
367.183	18.36
367.393	18.08
367.602	17.54
367.811	17.43
368.021	16.18
368.23	16.56
368.439	17.38
368.648	17.96
368.857	18.14
369.067	17.8
369.276	17.41
369.485	17.61
369.694	17.59
369.903	18.2
370.112	19.52
370.321	20.13
370.531	20.04
370.74	19.74
370.949	19.76
371.158	19.01
371.367	19.05
371.576	19.62
371.785	19.19
371.994	18.88
372.203	18.44
372.412	17.39
372.621	17.02
372.83	17.24
373.039	17.42
373.248	17.02
373.457	18.17
373.666	17.44
373.874	17.52
374.083	17.98
374.292	17.67
374.501	16.86
374.71	17.38
374.919	17.01
375.128	16.56
375.336	16
375.545	16.48
375.754	15.98
375.963	16.42
376.171	15.95
376.38	16.23
376.589	15.54
376.798	16.75
377.006	15.98
377.215	16
377.424	15.74
377.632	16.05
377.841	15.54
378.05	15.69
378.258	15.45
378.467	15.82
378.675	15.9
378.884	17.03
379.093	16.66
379.301	17.68
379.51	18.2
379.718	17.96
379.927	18.45
380.135	18.36
380.344	18.26
380.552	18.46
380.761	18.61
380.969	18.45
381.177	17.62
381.386	17.49
381.594	16.63
381.803	15.26
382.011	15.43
382.219	14.91
382.428	15.36
382.636	15.49
382.845	15.08
383.053	14.77
383.261	14.67
383.469	15.87
383.678	15.98
383.886	15.94
384.094	16.84
384.302	16.78
384.511	16.47
384.719	16.13
384.927	16.18
385.135	16.16
385.343	16.19
385.552	15.63
385.76	15.07
385.968	14.72
386.176	14.54
386.384	14.22
386.592	14.39
386.8	14.44
387.008	14.19
387.216	13.99
387.424	14.07
387.633	13.72
387.841	13.85
388.049	13.74
388.257	13.48
388.465	14
388.672	13.87
388.88	13.8
389.088	13.51
389.296	13.86
389.504	13.26
389.712	12.89
389.92	12.77
390.128	12.73
390.336	12.45
390.544	12.53
390.751	12.27
390.959	12.26
391.167	12.04
391.375	12.4
391.583	11.92
391.79	12.03
391.998	12.38
392.206	12.23
392.414	12.12
392.621	12.11
392.829	12.23
393.037	12.11
393.244	12.54
393.452	12.56
393.66	12.22
393.867	12.26
394.075	12.72
394.283	12.8
394.49	13.17
394.698	13.14
394.905	13.08
395.113	12.99
395.32	12.92
395.528	12.48
395.735	12.48
395.943	12.23
396.15	12.37
396.358	11.98
396.565	11.56
396.773	11.2
396.98	10.92
397.188	10.87
397.395	10.78
397.602	10.83
397.81	10.82
398.017	10.92
398.225	11.24
398.432	11.33
398.639	11.32
398.847	11.48
399.054	10.98
399.261	10.94
399.468	10.45
399.676	10.32
399.883	9.92
400.09	9.67
400.297	9.59
400.505	9.45
400.712	9.57
400.919	9.72
401.126	9.59
401.333	10.31
401.54	10.7
401.748	10.94
401.955	11.08
402.162	11.29
402.369	11.4
402.576	11.17
402.783	11.04
402.99	11.09
403.197	10.98
403.404	10.97
403.611	10.72
403.818	10.59
404.025	10.86
404.232	10.89
404.439	11.23
404.646	11.15
404.853	11.17
405.06	11.57
405.267	11.29
405.474	11.11
405.681	11.56
405.887	11.43
406.094	11.46
406.301	11.18
406.508	11.29
406.715	10.88
406.922	11.16
407.128	11.23
407.335	11.23
407.542	11.45
407.749	11.54
407.955	11.02
408.162	11.23
408.369	11.2
408.575	11.35
408.782	11.34
408.989	11.54
409.195	10.98
409.402	10.73
409.609	10.05
409.815	9.55
410.022	9.66
410.228	9.88
410.435	9.59
410.642	9.56
410.848	9.47
411.055	9.15
411.261	9.05
411.468	9.22
411.674	9.32
411.881	9.65
412.087	10.11
412.294	10.11
412.5	10.08
412.706	10.34
412.913	10.43
413.119	10.43
413.326	10.13
413.532	9.92
413.738	10.17
413.945	10.24
414.151	10.55
414.357	10.27
414.564	10.01
414.77	9.96
414.976	10.03
415.182	9.96
415.389	9.93
415.595	10.42
415.801	10.63
416.007	10.51
416.214	10.6
416.42	10.18
416.626	10.16
416.832	10.12
417.038	10.19
417.244	10.26
417.45	10.14
417.657	10.2
417.863	9.97
418.069	9.85
418.275	9.9
418.481	9.86
418.687	10
418.893	9.97
419.099	10.15
419.305	10.24
419.511	10.02
419.717	9.99
419.923	9.95
420.129	9.9
420.335	9.9
420.541	9.88
420.746	9.79
420.952	9.8
421.158	9.92
421.364	9.63
421.57	9.47
421.776	9.64
421.982	9.74
422.187	9.75
422.393	9.83
422.599	9.75
422.805	9.81
423.01	9.88
423.216	9.8
423.422	9.71
423.628	10.08
423.833	10.18
424.039	10.06
424.245	10.14
424.45	10.14
424.656	10.2
424.862	10.34
425.067	10.28
425.273	10.21
425.478	10.27
425.684	10.42
425.889	10.2
426.095	9.91
426.301	9.92
426.506	9.68
426.712	9.71
426.917	9.54
427.123	9.37
427.328	9.32
427.533	9.36
427.739	9.37
427.944	9.15
428.15	9.15
428.355	9.33
428.561	9.47
428.766	9.56
428.971	9.48
429.177	9.63
429.382	9.78
429.587	9.83
429.793	9.95
429.998	9.95
430.203	9.86
430.408	9.86
430.614	9.71
430.819	9.61
431.024	9.65
431.229	9.61
431.434	9.74
431.64	9.84
431.845	9.86
432.05	9.59
432.255	9.66
432.46	9.76
432.665	9.73
432.87	9.94
433.076	10
433.281	9.98
433.486	9.98
433.691	9.91
433.896	9.8
434.101	9.76
434.306	9.74
434.511	9.55
434.716	9.48
434.921	9.48
435.126	9.4
435.331	9.25
435.535	9.25
435.74	9.42
435.945	9.25
436.15	9.33
436.355	9.27
436.56	9.24
436.765	9.09
436.97	9.14
437.174	9.37
437.379	9.35
437.584	9.25
437.789	9.27
437.993	9.13
438.198	9.27
438.403	9.24
438.608	9.24
438.812	9.17
439.017	9.47
439.222	9.55
439.426	9.23
439.631	9.26
439.836	9.39
440.04	9.4
440.245	9.35
440.45	9.33
440.654	9.2
440.859	9.15
441.063	9.49
441.268	9.31
441.472	9.3
441.677	9.41
441.881	9.39
442.086	9.39
442.29	9.29
442.495	9.22
442.699	9.05
442.904	9.18
443.108	9.06
443.312	8.88
443.517	8.99
443.721	8.91
443.925	8.98
444.13	8.92
444.334	8.77
444.538	8.95
444.743	8.95
444.947	9.07
445.151	9.01
445.356	9.15
445.56	9.07
445.764	9.17
445.968	9.11
446.173	9.08
446.377	9.23
446.581	9.29
446.785	9.26
446.989	9.42
447.193	9.52
447.398	9.39
447.602	9.54
447.806	9.5
448.01	9.23
448.214	9.16
448.418	9.1
448.622	8.9
448.826	8.91
449.03	8.91
449.234	8.8
449.438	8.8
449.642	8.91
449.846	8.69
450.05	8.86
450.254	9.18
450.458	9.26
450.662	9.24
450.866	9.51
451.069	9.56
451.273	9.56
451.477	9.45
451.681	9.41
451.885	9.44
452.089	9.33
452.292	9.29
452.496	9.2
452.7	9.27
452.904	9.24
453.107	9.01
453.311	9
453.515	8.91
453.719	8.95
453.922	8.71
454.126	8.55
454.33	8.59
454.533	8.56
454.737	8.59
454.94	8.42
455.144	8.45
455.348	8.43
455.551	8.26
455.755	8.2
455.958	8.23
456.162	8.36
456.365	8.46
456.569	8.7
456.772	8.69
456.976	8.61
457.179	8.59
457.383	8.82
457.586	8.75
457.79	8.7
457.993	8.69
458.196	8.79
458.4	8.79
458.603	8.87
458.807	8.8
459.01	8.9
459.213	8.93
459.417	9.02
459.62	9.02
459.823	9.14
460.026	9.36
460.23	9.47
460.433	9.5
460.636	9.62
460.839	9.38
461.042	9.34
461.246	9.19
461.449	9.13
461.652	9
461.855	8.95
462.058	8.89
462.261	8.81
462.464	8.69
462.668	8.5
462.871	8.31
463.074	8.68
463.277	8.82
463.48	8.77
463.683	8.84
463.886	9.03
464.089	8.95
464.292	9.02
464.495	8.88
464.698	8.84
464.901	8.86
465.104	9.17
465.306	9.15
465.509	8.98
465.712	8.88
465.915	9.07
466.118	9.14
466.321	8.95
466.524	8.95
466.726	8.97
466.929	8.83
467.132	8.86
467.335	8.49
467.538	8.59
467.74	8.57
467.943	8.94
468.146	8.81
468.348	8.48
468.551	8.72
468.754	8.77
468.956	8.73
469.159	8.92
469.362	9
469.564	9.07
469.767	9.03
469.969	9.05
470.172	8.82
470.375	8.83
470.577	9.22
470.78	9.19
470.982	9.09
471.185	9.13
471.387	9.12
471.59	8.85
471.792	8.94
471.995	8.92
472.197	8.86
472.399	8.98
472.602	8.93
472.804	8.9
473.007	8.94
473.209	8.88
473.411	8.76
473.614	8.7
473.816	8.9
474.018	8.8
474.22	8.75
474.423	8.88
474.625	8.89
474.827	8.83
475.03	8.6
475.232	8.51
475.434	8.63
475.636	8.74
475.838	8.97
476.04	8.88
476.243	8.98
476.445	8.85
476.647	8.67
476.849	8.59
477.051	8.61
477.253	8.71
477.455	8.83
477.657	8.66
477.859	8.72
478.061	8.55
478.263	8.51
478.465	8.44
478.667	8.4
478.869	8.55
479.071	8.7
479.273	8.62
479.475	8.65
479.677	8.43
479.879	8.47
480.081	8.48
480.283	8.45
480.485	8.51
480.686	8.44
480.888	8.5
481.09	8.62
481.292	8.46
481.494	8.6
481.695	8.59
481.897	8.75
482.099	8.78
482.301	8.67
482.502	8.68
482.704	8.73
482.906	8.7
483.107	8.72
483.309	8.75
483.511	8.81
483.712	8.86
483.914	8.86
484.115	8.77
484.317	8.78
484.519	8.82
484.72	8.81
484.922	8.79
485.123	8.79
485.325	8.8
485.526	8.79
485.728	8.72
485.929	8.71
486.131	8.66
486.332	8.73
486.534	8.76
486.735	8.74
486.936	8.76
487.138	8.86
487.339	8.93
487.541	8.93
487.742	8.96
487.943	8.98
488.144	8.92
488.346	8.96
488.547	8.91
488.748	8.86
488.95	8.9
489.151	8.91
489.352	8.8
489.553	8.84
489.755	8.88
489.956	8.69
490.157	8.63
490.358	8.65
490.559	8.63
490.76	8.65
490.961	8.67
491.163	8.7
491.364	8.67
491.565	8.76
491.766	8.81
491.967	8.84
492.168	8.89
492.369	8.95
492.57	8.95
492.771	8.84
492.972	8.92
493.173	8.83
493.374	8.8
493.575	8.79
493.776	8.84
493.976	8.77
494.177	8.66
494.378	8.69
494.579	8.53
494.78	8.57
494.981	8.89
495.182	8.8
495.382	9
495.583	9.02
495.784	9.05
495.985	8.87
496.185	8.75
496.386	8.66
496.587	8.62
496.788	8.76
496.988	8.77
497.189	8.61
497.39	8.6
497.59	8.54
497.791	8.59
497.992	8.58
498.192	8.66
498.393	8.67
498.593	8.77
498.794	8.89
498.994	9.06
499.195	8.98
499.395	9.02
499.596	9.15
499.796	9.09
499.997	9.06
500.197	9.16
500.398	9.11
500.598	9.09
500.799	9.03
500.999	8.89
501.199	8.81
501.4	8.91
501.6	8.99
501.801	8.88
502.001	9.09
502.201	9.1
502.402	9.06
502.602	9.14
502.802	9.17
503.002	9.19
503.203	9.28
503.403	9.2
503.603	9.06
503.803	8.97
504.003	8.98
504.204	9.09
504.404	9.14
504.604	9.2
504.804	9.1
505.004	9.27
505.204	9.32
505.404	9.26
505.604	9.26
505.804	9.49
506.005	9.68
506.205	9.66
506.405	9.55
506.605	9.5
506.805	9.34
507.005	9.3
507.204	9.16
507.404	9.24
507.604	9.35
507.804	9.37
508.004	9.3
508.204	9.01
508.404	9.03
508.604	9.08
508.804	9.11
509.003	9.33
509.203	9.47
509.403	9.48
509.603	9.57
509.803	9.6
510.002	9.66
510.202	9.59
510.402	9.8
510.602	9.73
510.801	9.56
511.001	9.65
511.201	9.58
511.4	9.53
511.6	9.52
511.8	9.41
511.999	9.38
512.199	9.33
512.398	9.36
512.598	9.38
512.797	9.54
512.997	9.62
513.197	9.58
513.396	9.72
513.596	9.76
513.795	9.91
513.994	9.97
514.194	9.82
514.393	9.95
514.593	10
514.792	9.83
514.992	9.72
515.191	9.8
515.39	9.77
515.59	9.59
515.789	9.56
515.988	9.45
516.188	9.57
516.387	9.72
516.586	9.72
516.786	9.78
516.985	9.89
517.184	9.97
517.383	10.02
517.582	10.12
517.782	10.27
517.981	10.3
518.18	10.35
518.379	10.28
518.578	10.39
518.777	10.3
518.976	10.36
519.176	10.51
519.375	10.5
519.574	10.52
519.773	10.52
519.972	10.49
520.171	10.62
520.37	10.64
520.569	10.66
520.768	10.65
520.967	10.68
521.166	10.61
521.365	10.58
521.564	10.61
521.762	10.51
521.961	10.55
522.16	10.59
522.359	10.46
522.558	10.53
522.757	10.74
522.956	10.66
523.154	10.69
523.353	10.71
523.552	10.63
523.751	10.77
523.949	10.9
524.148	10.86
524.347	10.94
524.546	11.1
524.744	11.06
524.943	10.96
525.142	11.03
525.34	11.07
525.539	11.15
525.737	11.3
525.936	11.18
526.135	11.27
526.333	11.32
526.532	11.28
526.73	11.39
526.929	11.45
527.127	11.51
527.326	11.53
527.524	11.57
527.723	11.62
527.921	11.57
528.12	11.66
528.318	11.63
528.516	11.59
528.715	11.62
528.913	11.52
529.112	11.58
529.31	11.6
529.508	11.6
529.707	11.62
529.905	11.56
530.103	11.6
530.301	11.65
530.5	11.78
530.698	11.81
530.896	11.9
531.094	11.89
531.293	11.83
531.491	11.87
531.689	11.92
531.887	12.1
532.085	12.25
532.283	12.3
532.481	12.26
532.68	12.16
532.878	12.29
533.076	12.3
533.274	12.44
533.472	12.58
533.67	12.63
533.868	12.67
534.066	12.62
534.264	12.7
534.462	12.66
534.66	12.71
534.858	12.8
535.056	12.7
535.253	12.61
535.451	12.6
535.649	12.61
535.847	12.57
536.045	12.69
536.243	12.68
536.441	12.75
536.638	12.85
536.836	12.93
537.034	12.95
537.232	13.08
537.43	13.21
537.627	13.16
537.825	13.14
538.023	13.16
538.22	13.22
538.418	13.3
538.616	13.24
538.813	13.25
539.011	13.35
539.209	13.26
539.406	13.28
539.604	13.25
539.801	13.48
539.999	13.46
540.196	13.5
540.394	13.42
540.591	13.46
540.789	13.39
540.986	13.31
541.184	13.27
541.381	13.4
541.579	13.48
541.776	13.56
541.974	13.53
542.171	13.59
542.368	13.69
542.566	13.81
542.763	13.78
542.96	13.81
543.158	14
543.355	14.04
543.552	14
543.75	13.96
543.947	13.92
544.144	13.97
544.341	14.02
544.539	14.06
544.736	13.95
544.933	13.9
545.13	14.05
545.327	14.12
545.524	14.19
545.722	14.2
545.919	14.37
546.116	14.45
546.313	14.59
546.51	14.71
546.707	14.58
546.904	14.68
547.101	14.82
547.298	14.84
547.495	14.68
547.692	14.82
547.889	15.01
548.086	15.05
548.283	15.21
548.48	15.11
548.677	15.02
548.874	15.08
549.07	15.13
549.267	15.25
549.464	15.22
549.661	15.5
549.858	15.38
550.055	15.36
550.251	15.28
550.448	15.23
550.645	15.34
550.842	15.39
551.038	15.52
551.235	15.43
551.432	15.35
551.628	15.46
551.825	15.46
552.022	15.54
552.218	15.37
552.415	15.55
552.612	15.65
552.808	15.68
553.005	15.6
553.201	15.72
553.398	15.78
553.594	15.83
553.791	15.81
553.987	15.83
554.184	15.92
554.38	16.23
554.577	16.26
554.773	16.34
554.97	16.55
555.166	16.84
555.362	16.79
555.559	16.99
555.755	17.14
555.952	17.33
556.148	17.49
556.344	17.58
556.541	17.52
556.737	17.43
556.933	17.26
557.129	17.04
557.326	16.97
557.522	17.19
557.718	17.18
557.914	17.37
558.11	17.37
558.307	17.27
558.503	17.21
558.699	17.38
558.895	17.52
559.091	17.65
559.287	17.91
559.483	18.01
559.679	17.93
559.876	17.99
560.072	17.97
560.268	18.03
560.464	17.94
560.66	18.1
560.856	17.97
561.052	18.05
561.247	18.01
561.443	17.8
561.639	17.83
561.835	17.98
562.031	17.97
562.227	17.87
562.423	17.91
562.619	17.97
562.815	18.01
563.01	18.19
563.206	18.17
563.402	18.32
563.598	18.6
563.793	18.65
563.989	18.65
564.185	18.64
564.381	18.93
564.576	18.97
564.772	19.32
564.968	19.22
565.163	19.2
565.359	19.13
565.555	19.16
565.75	19.2
565.946	19.42
566.141	19.51
566.337	19.81
566.532	19.73
566.728	19.69
566.923	19.61
567.119	19.72
567.314	19.74
567.51	20.01
567.705	20.02
567.901	20.06
568.096	19.82
568.292	19.83
568.487	19.54
568.682	19.56
568.878	19.66
569.073	19.73
569.268	19.8
569.464	20.13
569.659	20.33
569.854	20.54
570.05	20.7
570.245	20.9
570.44	20.97
570.635	20.96
570.831	21.07
571.026	21.29
571.221	21.35
571.416	21.37
571.611	21.17
571.806	21.08
572.002	20.96
572.197	20.85
572.392	20.88
572.587	20.95
572.782	21.08
572.977	21.14
573.172	20.89
573.367	20.8
573.562	20.73
573.757	20.82
573.952	20.78
574.147	20.81
574.342	20.94
574.537	20.99
574.732	20.94
574.927	21.06
575.121	20.89
575.316	21.26
575.511	21.42
575.706	21.66
575.901	21.77
576.096	21.62
576.29	21.88
576.485	21.75
576.68	21.94
576.875	21.87
577.069	21.82
577.264	21.81
577.459	21.7
577.654	21.63
577.848	21.61
578.043	21.32
578.238	21.45
578.432	21.28
578.627	21.52
578.821	21.26
579.016	21.34
579.21	21.45
579.405	21.79
579.6	21.77
579.794	21.8
579.989	21.82
580.183	21.73
580.378	21.96
580.572	22.06
580.766	21.72
580.961	21.83
581.155	21.81
581.35	22.02
581.544	21.81
581.738	21.93
581.933	22.24
582.127	22.27
582.321	22.72
582.516	22.76
582.71	22.74
582.904	23.04
583.099	22.91
583.293	22.98
583.487	22.86
583.681	23.21
583.875	23.07
584.07	22.63
584.264	22.42
584.458	22.43
584.652	22.14
584.846	22.19
585.04	22.23
585.234	22.48
585.428	22.64
585.623	22.83
585.817	22.57
586.011	22.42
586.205	22.5
586.399	22.92
586.593	22.93
586.787	23.14
586.981	22.85
587.174	22.92
587.368	22.64
587.562	22.69
587.756	22.81
587.95	22.93
588.144	23.02
588.338	23.06
588.532	22.8
588.725	22.73
588.919	22.75
589.113	22.97
589.307	23.04
589.501	23.26
589.694	23.24
589.888	22.99
590.082	23.01
590.275	22.95
590.469	23
590.663	23.19
590.856	23.26
591.05	23.17
591.244	23.06
591.437	22.93
591.631	22.85
591.824	22.83
592.018	22.72
592.212	22.79
592.405	22.96
592.599	23.11
592.792	22.95
592.986	23.08
593.179	23.04
593.372	23.28
593.566	23.25
593.759	23.4
593.953	23.57
594.146	23.49
594.339	23.58
594.533	23.58
594.726	23.52
594.92	23.63
595.113	23.58
595.306	23.56
595.499	23.7
595.693	23.95
595.886	23.84
596.079	23.68
596.272	23.96
596.466	23.98
596.659	24.03
596.852	24.16
597.045	24.1
597.238	24.02
597.431	24.21
597.624	24.18
597.818	24.1
598.011	24.11
598.204	24.09
598.397	24.03
598.59	23.95
598.783	23.96
598.976	24.01
599.169	23.95
599.362	24.29
599.555	24.33
599.748	24.41
599.941	24.18
600.134	24.29
600.326	24.26
600.519	24.44
600.712	24.34
600.905	24.26
601.098	23.91
601.291	24.16
601.483	23.83
601.676	23.75
601.869	23.8
602.062	23.88
602.255	23.73
602.447	23.82
602.64	23.6
602.833	23.52
603.025	23.86
603.218	24.04
603.411	24.2
603.603	24.33
603.796	24.33
603.989	24.02
604.181	24.33
604.374	24.54
604.566	24.52
604.759	24.72
604.951	24.92
605.144	25
605.336	25.04
605.529	24.88
605.721	24.98
605.914	25.2
606.106	25.56
606.299	25.31
606.491	25.42
606.683	25.47
606.876	25.43
607.068	25.53
607.26	25.21
607.453	25.38
607.645	25.63
607.837	25.62
608.03	25.55
608.222	25.35
608.414	25.54
608.606	25.35
608.799	25.55
608.991	25.5
609.183	25.41
609.375	25.59
609.567	25.53
609.759	25.42
609.952	25.26
610.144	25.3
610.336	25.29
610.528	25.25
610.72	25.4
610.912	25.12
611.104	25.16
611.296	25.32
611.488	25.21
611.68	25.3
611.872	25.28
612.064	25.41
612.256	25.28
612.448	25.42
612.64	25.45
612.832	25.65
613.023	26
613.215	26.17
613.407	25.97
613.599	26.13
613.791	25.95
613.983	25.91
614.174	25.54
614.366	25.7
614.558	25.54
614.75	25.39
614.941	25.06
615.133	24.97
615.325	24.77
615.516	24.87
615.708	24.83
615.9	24.9
616.091	25.04
616.283	25.26
616.475	25.02
616.666	25.28
616.858	25.36
617.049	25.53
617.241	25.54
617.432	25.31
617.624	25.53
617.815	25.89
618.007	26.05
618.198	26.1
618.39	26.23
618.581	26.39
618.773	26.28
618.964	26.4
619.155	26.44
619.347	26.43
619.538	26.66
619.729	26.38
619.921	26.1
620.112	25.94
620.303	25.63
620.494	25.4
620.686	25.38
620.877	25.38
621.068	25.19
621.259	25.34
621.451	25.11
621.642	25.05
621.833	25.01
622.024	24.93
622.215	24.93
622.406	25.02
622.597	25.5
622.788	25.99
622.98	26.15
623.171	25.88
623.362	25.62
623.553	25.95
623.744	26.37
623.935	26.53
624.126	26.68
624.317	26.87
624.508	26.91
624.698	26.54
624.889	25.77
625.08	25.7
625.271	26.1
625.462	26
625.653	26.01
625.844	25.68
626.034	25.54
626.225	25.41
626.416	25.32
626.607	25.19
626.798	25.49
626.988	25.84
627.179	26.01
627.37	25.92
627.56	26.06
627.751	26.28
627.942	26.56
628.132	26.74
628.323	26.77
628.514	26.85
628.704	26.87
628.895	26.54
629.085	26.75
629.276	26.69
629.466	26.85
629.657	27.19
629.847	26.91
630.038	26.96
630.228	26.92
630.419	26.98
630.609	27.18
630.8	27.42
630.99	27.8
631.181	27.62
631.371	27.43
631.561	27.25
631.752	26.63
631.942	26.73
632.132	26.24
632.323	26.28
632.513	26.31
632.703	25.99
632.893	25.8
633.084	25.65
633.274	25.61
633.464	25.71
633.654	25.87
633.844	25.94
634.034	25.75
634.225	26.19
634.415	26.11
634.605	25.96
634.795	25.92
634.985	26.11
635.175	26.22
635.365	26.17
635.555	26.27
635.745	26.21
635.935	26.23
636.125	26.43
636.315	26.13
636.505	26.35
636.695	26.56
636.885	26.64
637.075	26.42
637.265	26.47
637.455	26.43
637.644	26.11
637.834	26.53
638.024	26.69
638.214	26.44
638.404	26.53
638.593	26.5
638.783	26.44
638.973	26.61
639.163	26.83
639.352	26.67
639.542	26.59
639.732	26.95
639.921	26.97
640.111	27.01
640.301	27.24
640.49	27.12
640.68	26.69
640.87	26.61
641.059	26.65
641.249	26.54
641.438	26.86
641.628	27.53
641.817	27.53
642.007	27.04
642.196	26.87
642.386	26.62
642.575	27.07
642.764	27.03
642.954	27.2
643.143	26.62
643.333	26.33
643.522	26.39
643.711	25.91
643.901	25.66
644.09	25.89
644.279	26.07
644.469	26.21
644.658	26.27
644.847	26.4
645.036	26
645.226	26.25
645.415	26.59
645.604	26.62
645.793	26.54
645.982	26.76
646.171	26.66
646.361	26.52
646.55	26.73
646.739	26.67
646.928	27
647.117	27.26
647.306	27.41
647.495	27.35
647.684	26.95
647.873	27.2
648.062	27.18
648.251	27.44
648.44	27.49
648.629	27.9
648.818	27.82
649.007	27.57
649.196	27.38
649.384	27.98
649.573	27.67
649.762	27.87
649.951	27.93
650.14	27.92
650.328	27.17
650.517	26.94
650.706	26.01
650.895	26.15
651.083	26.56
651.272	26.82
651.461	26.41
651.65	26.56
651.838	26.92
652.027	26.38
652.216	25.84
652.404	26.64
652.593	27.42
652.781	27.67
652.97	27.28
653.158	26.94
653.347	27.16
653.535	27.36
653.724	27.56
653.912	27.03
654.101	27.36
654.289	27.86
654.478	27.52
654.666	27.12
654.855	27.68
655.043	27.62
655.231	27.77
655.42	27.38
655.608	27.23
655.796	27.75
655.985	27.88
656.173	27.47
656.361	27.19
656.55	27.06
656.738	26.7
656.926	26.24
657.114	26.44
657.302	26.14
657.491	25.89
657.679	26.05
657.867	25.79
658.055	25.87
658.243	26.12
658.431	26.44
658.619	26.58
658.807	26.64
658.996	26.6
659.184	26.97
659.372	27.11
659.56	27.29
659.748	26.86
659.936	27.03
660.124	27.05
660.311	27.04
660.499	27.35
660.687	27.53
660.875	27.84
661.063	28.06
661.251	27.98
661.439	28.29
661.627	28.25
661.814	28.67
662.002	28.22
662.19	27.89
662.378	28.22
662.565	27.64
662.753	27.07
662.941	26.92
663.129	26.74
663.316	26.48
663.504	26.45
663.692	27.07
663.879	27.24
664.067	28.05
664.254	28.27
664.442	28.35
664.63	28.44
664.817	28.96
665.005	28.99
665.192	28.97
665.38	28.74
665.567	28.46
665.755	27.9
665.942	27.26
666.13	26.8
666.317	26.97
666.504	26.77
666.692	26.99
666.879	26.81
667.067	26.48
667.254	26.84
667.441	27.11
667.629	27.31
667.816	27.91
668.003	28.16
668.19	28.07
668.378	28.1
668.565	27.74
668.752	28.11
668.939	27.89
669.127	27.81
669.314	27.87
669.501	27.93
669.688	27.96
669.875	27.7
670.062	27.86
670.249	28.07
670.436	27.94
670.623	28.3
670.81	27.38
670.997	27.76
671.184	28.31
671.371	28.16
671.558	28.46
671.745	28.3
671.932	28.42
672.119	28.2
672.306	27.92
672.493	27.87
672.68	27.8
672.867	28.07
673.054	27.62
673.24	26.95
673.427	26.42
673.614	25.48
673.801	25.77
673.988	25.87
674.174	26.55
674.361	26.56
674.548	26.39
674.734	26.11
674.921	26.82
675.108	27.24
675.294	28.42
675.481	28.78
675.668	29.4
675.854	29.35
676.041	29.08
676.227	28.87
676.414	28.6
676.601	29.35
676.787	28.89
676.974	28.39
677.16	28.53
677.347	27.97
677.533	28.24
677.719	28.85
677.906	28.76
678.092	29.02
678.279	28.61
678.465	28.71
678.651	28.42
678.838	29.25
679.024	29.4
679.21	29.31
679.397	29.37
679.583	28.75
679.769	28.22
679.955	28.16
680.142	28.1
680.328	28.2
680.514	28.27
680.7	28.75
680.886	28.77
681.073	28.32
681.259	27.97
681.445	27.75
681.631	28.21
681.817	27.92
682.003	27.97
682.189	28.16
682.375	27.91
682.561	28.31
682.747	28.13
682.933	28.14
683.119	28.37
683.305	28.57
683.491	28.6
683.677	28.66
683.863	28.99
684.049	29.17
684.235	28.84
684.42	28.99
684.606	28.74
684.792	28.18
684.978	28.01
685.164	28.63
685.349	28.91
685.535	29.37
685.721	29.54
685.907	29.39
686.092	29.43
686.278	29.25
686.464	29.48
686.649	29.82
686.835	29.81
687.021	29.99
687.206	30.01
687.392	29.86
687.577	29.79
687.763	29.32
687.948	29.23
688.134	29.1
688.319	29.25
688.505	28.66
688.69	28.17
688.876	27.92
689.061	27.36
689.247	26.71
689.432	26.5
689.618	25.92
689.803	26.43
689.988	26.5
690.174	26.91
690.359	26.51
690.544	26.59
690.73	27.11
690.915	27.86
691.1	28.4
691.285	28.53
691.471	28.45
691.656	28.62
691.841	28.04
692.026	28.07
692.211	27.31
692.396	28.35
692.582	28.22
692.767	27.57
692.952	27.64
693.137	27.83
693.322	27.31
693.507	27.58
693.692	27.44
693.877	27.58
694.062	27.48
694.247	27.58
694.432	27.76
694.617	28.47
694.802	28.51
694.987	27.82
695.172	27.42
695.357	27.88
695.541	28.52
695.726	28.52
695.911	28.92
696.096	28.58
696.281	28.13
696.466	27.72
696.65	27.15
696.835	27.5
697.02	27.73
697.204	28.03
697.389	28.44
697.574	27.84
697.759	28.27
697.943	28.17
698.128	28.01
698.312	28.28
698.497	28.74
698.682	29.15
698.866	29.03
699.051	28.77
699.235	28.35
699.42	28.19
699.604	28.86
699.789	28.64
699.973	28.76
700.158	29.08
700.342	29.26
700.527	28.51
700.711	28.38
700.895	28.21
701.08	28.39
701.264	29.15
701.448	28.98
701.633	28.31
701.817	28.29
702.001	28.09
702.186	28.1
702.37	27.82
702.554	28.1
702.738	28.18
702.923	28.59
703.107	28.67
703.291	28.22
703.475	27.96
703.659	28.16
703.843	28.02
704.027	27.97
704.212	28.29
704.396	28.05
704.58	27.96
704.764	28.14
704.948	27.58
705.132	27.65
705.316	27.75
705.5	27.81
705.684	27.56
705.868	27.1
706.052	26.86
706.235	26.55
706.419	27.72
706.603	27.82
706.787	27.87
706.971	28.87
707.155	28.41
707.339	28
707.522	28.12
707.706	27.84
707.89	27.81
708.074	27.57
708.257	28.23
708.441	27.29
708.625	26.57
708.808	25.91
708.992	25.46
709.176	26.05
709.359	26.39
709.543	26.82
709.727	27.1
709.91	27.96
710.094	28.49
710.277	28.17
710.461	28.47
710.644	28.61
710.828	28.62
711.011	28.71
711.195	29.15
711.378	28.58
711.562	27.87
711.745	28.64
711.928	28.1
712.112	27.9
712.295	28.37
712.478	28.68
712.662	28.65
712.845	28.7
713.028	28.12
713.212	26.85
713.395	28.29
713.578	29.12
713.761	28.65
713.945	29.12
714.128	29.25
714.311	28.63
714.494	28.14
714.677	27.96
714.86	28.27
715.043	29.29
715.227	30.09
715.41	29.13
715.593	28.55
715.776	28.2
715.959	27.87
716.142	28.52
716.325	28.33
716.508	28.67
716.691	29.19
716.874	28.93
717.057	27.37
717.239	27.75
717.422	27.99
717.605	27.83
717.788	28.03
717.971	28.88
718.154	28.69
718.337	29.2
718.519	28.96
718.702	28.51
718.885	28.37
719.068	28.94
719.25	28.28
719.433	27.73
719.616	28.79
719.798	28.5
719.981	28.07
720.164	27.35
720.346	27.14
720.529	27.29
720.712	28.54
720.894	28.74
721.077	28.75
721.259	28.98
721.442	29.82
721.624	28.71
721.807	28.64
721.989	28.32
722.172	28.88
722.354	28.95
722.537	29
722.719	28.8
722.901	28.84
723.084	28.64
723.266	28.17
723.448	27.41
723.631	27.39
723.813	27.08
723.995	27.59
724.178	26.91
724.36	26.71
724.542	26.57
724.724	25.59
724.907	25.52
725.089	25.65
725.271	26.49
725.453	27.36
725.635	28.26
725.817	28.77
725.999	28.19
726.181	28.78
726.364	29.76
726.546	29.37
726.728	29.22
726.91	30.75
727.092	30.53
727.274	30.19
727.456	28.9
727.638	28.96
727.819	28.74
728.001	28.68
728.183	28.64
728.365	28.19
728.547	27.71
728.729	28.76
728.911	28.15
729.093	29.11
729.274	28.96
729.456	29.99
729.638	30.07
729.82	29.95
730.001	29.91
730.183	29.51
730.365	29.47
730.546	30.33
730.728	29.54
730.91	28.53
731.091	29.13
731.273	30.18
731.455	30.1
731.636	30.31
731.818	30.42
731.999	30.87
732.181	30.52
732.362	30.31
732.544	31.26
732.725	31.4
732.907	30.99
733.088	29.55
733.27	28.94
733.451	28.26
733.633	27.89
733.814	26.8
733.995	25.88
734.177	26.11
734.358	25.77
734.539	24.36
734.721	24.39
734.902	25.28
735.083	25.99
735.264	24.79
735.446	25.61
735.627	24.7
735.808	26.24
735.989	26.63
736.17	27.57
736.351	27.23
736.533	27.17
736.714	27.57
736.895	28.2
737.076	27.2
737.257	28.7
737.438	27.73
737.619	27.47
737.8	27.13
737.981	28
738.162	27.43
738.343	28.46
738.524	28.16
738.705	27.42
738.886	26.88
739.067	28.05
739.247	26.88
739.428	28.68
739.609	29.86
739.79	30.44
739.971	29.04
740.151	29.27
740.332	28.1
740.513	28.56
740.694	28.19
740.874	29.15
741.055	28.98
741.236	29.32
741.417	28.25
741.597	28.63
741.778	28.37
741.958	29.97
742.139	30.01
742.32	30.97
742.5	31.64
742.681	33.78
742.861	32.95
743.042	31.99
743.222	31.09
743.403	31.22
743.583	30.69
743.764	29.21
743.944	29.71
744.124	29.95
744.305	29.1
744.485	28.77
744.666	26.82
744.846	26.55
745.026	25.9
745.207	27.92
745.387	26.95
745.567	25.9
745.747	27.5
745.928	26.21
746.108	26.92
746.288	26.63
746.468	26.91
746.648	26.87
746.829	27.66
747.009	29.83
747.189	29.42
747.369	29.27
747.549	30.01
747.729	29.95
747.909	30.01
748.089	28.5
748.269	28.29
748.449	27.02
748.629	26.59
748.809	26.54
748.989	24.82
749.169	24.33
749.349	24.93
749.529	25.22
749.709	26.06
749.889	26.36
750.068	27.4
750.248	28.11
750.428	27.3
750.608	27.92
750.788	29.7
750.967	30.8
751.147	31.31
751.327	31.25
751.507	31.53
751.686	31.05
751.866	30.34
752.046	29.58
752.225	29.94
752.405	31.56
752.585	32.39
752.764	30.42
752.944	30.76
753.123	30.26
753.303	29.13
753.482	28.66
753.662	27.22
753.841	28.76
754.021	28.88
754.2	28.27
754.38	27.03
754.559	26.8
754.739	26.82
754.918	25.89
755.097	25.3
755.277	26.85
755.456	25.49
755.635	27.02
755.815	24.31
755.994	25.42
756.173	26.18
756.352	28.76
756.532	29.43
756.711	28.9
756.89	30.58
757.069	31.4
757.248	31.53
757.427	32.77
757.607	32.5
757.786	34.09
757.965	32.6
758.144	32.03
758.323	30.73
758.502	29.35
758.681	30
758.86	29.97
759.039	30.35
759.218	29.45
759.397	28.81
759.576	28.54
759.755	30.28
759.934	30.87
760.113	30.28
760.291	29.52
760.47	29.83
760.649	28.76
760.828	26.62
761.007	26.24
761.186	26.71
761.364	27.56
761.543	27.27
761.722	24.14
761.901	24.35
762.079	25.35
762.258	26.53
762.437	26.73
762.615	27.99
762.794	29.14
762.972	29.06
763.151	28.35
763.33	29.23
763.508	29.57
763.687	31.11
763.865	30.27
764.044	29.85
764.222	29.65
764.401	28.73
764.579	27.93
764.758	27.42
764.936	26.85
765.114	28.04
765.293	27.12
765.471	27.7
765.65	27.33
765.828	27.7
766.006	28.86
766.184	28.62
766.363	29.45
766.541	29.39
766.719	29.66
766.898	30.09
767.076	29.07
767.254	29.45
767.432	28.34
767.61	26.94
767.788	26.39
767.967	26.83
768.145	26.69
768.323	26.56
768.501	26.45
768.679	27.09
768.857	28.12
769.035	29.23
769.213	27.44
769.391	28.15
769.569	27.92
769.747	29.78
769.925	29.93
770.103	29.9
770.281	30.22
770.459	30.87
770.636	29.32
770.814	27.83
770.992	27.08
771.17	29.54
771.348	29.69
771.525	29.82
771.703	28.63
771.881	24.81
772.059	25.83
772.236	25.7
772.414	27.78
772.592	29.24
772.769	28.7
772.947	26.9
773.125	23.3
773.302	25.63
773.48	27.46
773.657	25.25
773.835	26.16
774.013	25.91
774.19	26.29
774.368	25.47
774.545	24.67
774.723	25.19
774.9	25.92
775.077	29.67
775.255	26.74
775.432	27.81
775.61	31.32
775.787	31.55
775.964	30.52
776.142	31.01
776.319	30.39
776.496	29.11
776.674	27.6
776.851	30.74
777.028	27.5
777.205	27.27
777.382	25.21
777.56	24.55
777.737	24.13
777.914	25.68
778.091	23.96
778.268	23.13
778.445	23.74
778.622	26.32
778.8	23.2
778.977	21.2
779.154	23.56
779.331	24.43
779.508	22.53
779.685	23.53
779.862	23.48
780.038	24.03
780.215	23.33
780.392	27.35
780.569	27.49
780.746	27.99
780.923	31.45
781.1	28.77
781.277	27.79
781.453	29.68
781.63	31.14
781.807	30.45
781.984	31.86
782.16	33.31
782.337	30.42
782.514	28.88
782.691	28.53
782.867	29.68
783.044	31.78
783.221	34.35
783.397	32.64
783.574	33.15
783.75	32.13
783.927	31.32
784.103	30.87
784.28	30.15
784.456	32.91
784.633	34.89
784.809	32.93
784.986	31.45
785.162	28.57
785.339	32.31
785.515	32.3
785.692	34.25
785.868	33.25
786.044	33.17
786.221	35.33
786.397	34.07
786.573	32.58
786.749	34.01
786.926	34.14
787.102	36.93
787.278	32.17
787.454	30.84
787.631	27.03
787.807	27.78
787.983	28.72
788.159	27.22
788.335	28.15
788.511	28.65
788.687	27.66
788.863	28.83
789.039	29
789.216	29.22
789.392	29.83
789.568	31.87
789.744	31.79
789.919	29.58
790.095	29.72
790.271	28.6
790.447	26.59
790.623	25.39
790.799	23.49
790.975	21.76
791.151	23.41
791.327	23.25
791.502	23.68
791.678	24.68
791.854	26.57
792.03	25.51
792.205	24.44
792.381	26.28
792.557	28.88
792.733	27.64
792.908	28.25
793.084	31.64
793.259	29.68
793.435	29.67
793.611	31.69
793.786	31.98
793.962	31.71
794.137	32.43
794.313	31.15
794.488	29.13
794.664	33.17
794.839	31.2
795.015	31.52
795.19	28.4
795.366	26.06
795.541	22.8
795.716	20.4
795.892	22.11
796.067	20.67
796.242	21.56
796.418	21.78
796.593	19.81
796.768	19.17
796.944	15.81
797.119	20.44
797.294	21.74
797.469	25.01
797.644	28.42
797.82	28.7
797.995	32.02
798.17	32.16
798.345	34.81
798.52	35.94
798.695	37.67
798.87	38.44
799.045	35.1
799.22	35.48
799.395	31.46
799.57	31.27
799.745	30.09
799.92	25.16
800.095	25.39
800.27	20.32
800.445	22.39
800.62	22.84
800.795	23.33
800.97	24.94
801.145	25.52
801.319	24.44
801.494	21.67
801.669	21.95
801.844	24.33
802.018	25.19
802.193	28.03
802.368	25.18
802.543	21.01
802.717	22.09
802.892	24.56
803.067	24.6
803.241	25.86
803.416	25.24
803.59	20.94
803.765	22
803.94	21.74
804.114	19.69
804.289	20.14
804.463	20.46
804.638	21.59
804.812	21.86
804.986	21.87
805.161	22.19
805.335	22.83
805.51	26.29
805.684	25.62
805.858	22.33
806.033	22.17
806.207	19.26
806.381	25.01
806.556	21.68
806.73	18.18
806.904	18.12
807.078	17.19
807.253	16.72
807.427	14.56
807.601	16.82
807.775	18.91
807.949	20.84
808.123	24.65
808.298	18.63
808.472	17.5
808.646	20.11
808.82	20.31
808.994	20.3
809.168	19.7
809.342	27.65
809.516	28.06
809.69	28.96
809.864	24.93
810.038	21.66
810.212	20.22
810.385	22.23
810.559	20.95
810.733	19
810.907	21.81
811.081	22.76
811.255	14.91
811.428	14.43
811.602	17.26
811.776	24.27
811.95	26.9
812.123	31.69
812.297	30.54
812.471	30.37
812.644	34.06
812.818	33.54
812.992	34.38
813.165	39.18
813.339	38.39
813.512	40.85
813.686	39.68
813.86	39.22
814.033	40.96
814.207	44.58
814.38	45.15
814.554	46.1
814.727	47.46
814.9	46.87
815.074	36.66
815.247	35.15
815.421	29.98
815.594	26.23
815.767	28.46
815.941	27.72
816.114	23.13
816.287	22.54
816.46	14.82
816.634	11.15
816.807	12.79
816.98	23.79
817.153	21.86
817.327	22.05
817.5	29.37
817.673	26.68
817.846	26.94
818.019	29.65
818.192	28.96
818.365	29.42
818.538	29.09
818.711	28.46
818.884	27.12
819.057	26.45
819.23	29.75
819.403	28.47
819.576	30.44
819.749	28.66
819.922	27.56
820.095	29.21
820.268	31.33
820.441	32.55
820.614	30.41
820.786	29.56
820.959	30.33
821.132	30.93
821.305	30.48
821.477	29.44
821.65	30.28
821.823	29.71
821.996	28.81
822.168	29.07
822.341	28.89
822.514	29.78
822.686	29.92
822.859	30.68
823.031	30.13
823.204	30.26
823.376	29.96
823.549	30.57
823.722	31.27
823.894	31.38
824.067	31.06
824.239	30.75
824.411	30.8
824.584	31.28
824.756	30.56
824.929	29.48
825.101	27.83
825.273	28.72
825.446	28.26
825.618	28.07
825.79	28.32
825.963	29.13
826.135	29.27
826.307	29.59
826.479	29.58
826.652	28.74
826.824	30.83
826.996	33.28
827.168	32.34
827.34	30.75
827.512	30.62
827.684	30.3
827.856	29.58
828.029	29.23
828.201	28.12
828.373	28.3
828.545	29.47
828.717	26.89
828.889	25.18
829.061	25.59
829.232	27.28
829.404	27.33
829.576	26.5
829.748	27.1
829.92	27.66
830.092	28.56
830.264	25.19
830.436	24.8
830.607	26.16
830.779	25.21
830.951	24.75
831.123	21.42
831.294	17.96
831.466	22.47
831.638	22.17
831.809	22.66
831.981	22.66
832.153	25.07
832.324	21.56
832.496	20.2
832.667	23.73
832.839	23.83
833.011	24.92
833.182	29.19
833.354	25.77
833.525	22.17
833.697	24.28
833.868	24.63
834.039	26.94
834.211	30.16
834.382	34.33
834.554	35.17
834.725	38.5
834.896	38.02
835.068	35.03
835.239	33.38
835.41	35.42
835.581	33.42
835.753	32.59
835.924	30.77
836.095	29.27
836.266	25.18
836.438	23.64
836.609	20.67
836.78	21.69
836.951	24.17
837.122	27.83
837.293	26.22
837.464	23.29
837.635	22.32
837.806	25.25
837.977	25.38
838.148	26.77
838.319	23.29
838.49	19.16
838.661	18.58
838.832	22.63
839.003	18.79
839.174	22.44
839.345	27.53
839.516	23.96
839.687	18.46
839.857	15.78
840.028	17.59
840.199	23.62
840.37	23.8
840.54	27.77
840.711	13.95
840.882	16.33
841.053	9.09
841.223	5.95
841.394	8.11
841.564	5.97
841.735	10.11
841.906	10.83
842.076	12.33
842.247	11.57
842.417	8.72
842.588	10.09
842.758	8.81
842.929	16.73
843.099	20.66
843.27	32.34
843.44	33.47
843.611	40.83
843.781	31.94
843.951	18.02
844.122	20.98
844.292	21.44
844.462	24.42
844.633	25.52
844.803	21.94
844.973	-0.77
845.144	-25.48
845.314	-4.3
845.484	-7.5
845.654	-6.19
845.824	15.93
845.995	18
846.165	23.76
846.335	28.89
846.505	28.56
846.675	32.07
846.845	38.32
847.015	40.22
847.185	34.63
847.355	29.75
847.525	29.48
847.695	32.78
847.865	29.59
848.035	16.62
848.205	9.25
848.375	7.08
848.545	-3.12
848.715	-3.82
848.884	-15.97
849.054	-27.8
849.224	-41.49
849.394	-41.32
849.564	-50.49
849.733	-64.21
849.903	-41.95
850.073	-24.01
850.243	-18.47
850.412	-7.7
850.582	-4.02
850.752	7.03
850.921	10.32
851.091	10.28
851.26	12.31
851.43	11.87
851.599	18.51
851.769	28.18
851.939	28.27
852.108	25.15
852.278	20.16
852.447	19.41
852.616	14.33
852.786	17.38
852.955	24.84
853.125	20.45
853.294	24.75
853.463	21.09
853.633	7.66
853.802	7.6
853.971	-6.04
854.141	6.54
854.31	9.74
854.479	12.85
854.648	8.73
854.818	-1.77
854.987	5.57
855.156	-3.18
855.325	-5.89
855.494	10.12
855.663	16.15
855.832	21.1
856.001	21.54
856.171	19.01
856.34	12.28
856.509	11.21
856.678	2.34
856.847	-5.92
857.016	-7.53
857.185	-3.46
857.353	-9.19
857.522	0.16
857.691	1.94
857.86	-5.27
858.029	-14.09
858.198	-0.31
858.367	9.51
858.535	21.62
858.704	27.42
858.873	22.2
859.042	23.87
859.21	15.38
859.379	7.31
859.548	2.03
859.717	11.28
859.885	23.84
860.054	21.08
860.222	19.67
860.391	16.36
860.56	19.56
860.728	29.97
860.897	24.09
861.065	43.33
861.234	39.8
861.402	50.26
861.571	28.52
861.739	21.52
861.908	15.71
862.076	15.19
862.244	8.35
862.413	13.42
862.581	-4.48
862.749	16.77
862.918	22.71
863.086	2.92
863.254	-8.66
863.423	15.45
863.591	2.27
863.759	18.85
863.927	25.58
864.096	30.11
864.264	23.83
864.432	25.84
864.6	16.46
864.768	13.25
864.936	40.29
865.104	34.83
865.272	17.71
865.44	37.32
865.608	17.16
865.776	16.26
865.944	14.3
866.112	11.39
866.28	2.83
866.448	-2.45
866.616	-18.62
866.784	-62.22
866.952	-44.35
867.12	-23.02
867.288	-32.59
867.455	-23.49
867.623	-42.64
867.791	-20.91
867.959	-13.4
868.127	-13.4
868.294	-16.16
868.462	-24.36
868.63	-8.45
868.797	-12
868.965	-6.7
869.133	-11.12
869.3	-19.12
869.468	-25.15
869.636	-41.09
869.803	-35.92
869.971	-19.78
870.138	-18.87
870.306	8.44
870.473	-3.32
870.641	31.23
870.808	0.97
870.975	9.49
871.143	53.35
871.31	57.11
871.478	54.71
871.645	54.91
871.812	36.02
871.98	45.63
872.147	28.28
872.314	50.21
872.482	29.94
872.649	33.58
872.816	35.88
872.983	27.05
873.15	20.38
873.318	14.99
873.485	1.73
873.652	23.69
873.819	31.61
873.986	56.6
874.153	36.34
874.32	30.01
874.487	27.4
874.654	20.77
874.821	25.14
874.988	18.24
875.155	33.88
875.322	33.55
875.489	18.61
875.656	-3.41
875.823	-11.8
875.99	-8.13
876.157	4.14
876.324	-10.72
876.49	-19.62
876.657	-51.71
876.824	-44.66
876.991	-47.85
877.157	-35.14
877.324	-66.95
877.491	-45.82
877.658	-42.81
877.824	-45.42
877.991	-15.09
878.157	10.71
878.324	3.03
878.491	7.94
878.657	17.88
878.824	23.74
878.99	22.04
879.157	29.53
879.323	20.96
879.49	7.78
879.656	9.6
879.823	-23.42
879.989	-78.35
880.156	-69.64
880.322	-30.3
880.488	-19.06
880.655	-36.84
880.821	-6.47
880.987	1.63
881.154	2.67
881.32	12.91
881.486	15.46
881.652	21.42
881.819	25.07
881.985	28.17
882.151	25.6
882.317	25.32
882.483	27.07
882.649	26.45
882.816	26.4
882.982	21.71
883.148	21.35
883.314	23.07
883.48	24.13
883.646	22.69
883.812	21.37
883.978	17.35
884.144	16.4
884.31	17.54
884.476	17.52
884.642	17.85
884.807	22.76
884.973	21.88
885.139	21.16
885.305	22.28
885.471	23.13
885.637	21.38
885.802	31.67
885.968	33.82
886.134	29.8
886.3	27.14
886.465	33.2
886.631	30.6
886.797	35.27
886.962	28.27
887.128	24.04
887.293	26.89
887.459	34.39
887.625	22.52
887.79	21.25
887.956	29.68
888.121	33.46
888.287	25.94
888.452	26.69
888.618	20.75
888.783	32.18
