Data from 2937857_Reflection_1.txt Node
Date: Wed Jul 15 15:36:22 EDT 2015
User: robert
Spectrometer: USB4E03001
Autoset integration time: false
Trigger mode: 4
Integration Time (sec): 1.000000E-1
Scans to average: 10
Electric dark correction enabled: true
Nonlinearity correction enabled: false
Boxcar width: 5
Stray light correction enabled: false
XAxis mode: Wavelengths
Stop averaging: false
Number of Pixels in Spectrum: 3648
>>>>>Begin Spectral Data<<<<<
177.566	-311.6
177.785	-4020.95
178.005	290.08
178.225	267.78
178.445	398.01
178.665	437.65
178.885	194.43
179.105	95.43
179.324	214.4
179.544	-252.58
179.764	-1544.38
179.984	347.85
180.204	371.91
180.423	87.11
180.643	102.99
180.863	87.85
181.083	73.58
181.302	46.08
181.522	70.03
181.742	37.99
181.961	4.62
182.181	5.08
182.401	-4.97
182.621	13.17
182.84	8.9
183.06	13.19
183.279	23.56
183.499	23.16
183.719	-23.42
183.938	-46.23
184.158	-56.82
184.377	-102.38
184.597	-611.65
184.816	-160.58
185.036	-128.28
185.256	-227.41
185.475	-186.02
185.695	-166.71
185.914	-202.97
186.134	-98.16
186.353	-151.16
186.572	-142.09
186.792	50.43
187.011	25.99
187.231	-1.57
187.45	-14.47
187.67	18.42
187.889	157.62
188.108	190.71
188.328	105.07
188.547	216.97
188.766	21809.09
188.986	442.68
189.205	191.75
189.424	120.12
189.644	171
189.863	251.57
190.082	246.65
190.302	280.24
190.521	216.23
190.74	243.38
190.959	235.34
191.178	111.75
191.398	87.13
191.617	113.29
191.836	176.93
192.055	-21.88
192.274	97.24
192.494	-6.85
192.713	36.22
192.932	-14.63
193.151	-6.86
193.37	-43.68
193.589	-40.48
193.808	-34.85
194.027	-64.2
194.246	-39.73
194.465	-0.9
194.685	34.66
194.904	51.65
195.123	120.44
195.342	9.98
195.561	92.34
195.78	190.52
195.999	61.14
196.218	3.39
196.436	-34.44
196.655	-25088.24
196.874	430.53
197.093	71.41
197.312	83.55
197.531	274.42
197.75	142.88
197.969	79.78
198.188	-30.53
198.407	28.87
198.625	60.06
198.844	69.79
199.063	89.07
199.282	89.62
199.501	51.32
199.719	70.91
199.938	1.38
200.157	-34.03
200.376	-12.31
200.594	19.17
200.813	101.14
201.032	92.11
201.251	194.73
201.469	3532.43
201.688	211.79
201.907	56.61
202.125	102.05
202.344	103.81
202.563	87.24
202.781	40.85
203	124.6
203.218	253.21
203.437	1084.79
203.656	117.42
203.874	106.35
204.093	115.98
204.311	230.95
204.53	284.21
204.748	197.43
204.967	80.56
205.185	88.82
205.404	62.22
205.622	79.36
205.841	83.13
206.059	100.61
206.278	62.74
206.496	97.36
206.715	50.5
206.933	74.22
207.151	190.39
207.37	-48.23
207.588	-87.55
207.806	-101.99
208.025	7.79
208.243	-30.24
208.461	165.68
208.68	51.67
208.898	279.43
209.116	-223
209.335	281.33
209.553	123.24
209.771	72.64
209.989	69.27
210.208	60.69
210.426	-508.4
210.644	19.08
210.862	41.26
211.081	-81.05
211.299	-531.79
211.517	-136.02
211.735	22.83
211.953	31.45
212.171	11.75
212.39	-12.43
212.608	-54.45
212.826	-64.7
213.044	-183.54
213.262	1030.55
213.48	-0.08
213.698	1.33
213.916	-66.2
214.134	-30.62
214.352	-720.66
214.57	222.19
214.788	184.99
215.006	96.22
215.224	-301.01
215.442	143.44
215.66	145.68
215.878	187.35
216.096	233.89
216.314	-5182.61
216.532	448.53
216.75	119.46
216.968	97.6
217.185	107.05
217.403	106.41
217.621	70.62
217.839	68.3
218.057	73.67
218.275	37.62
218.492	27.42
218.71	6.42
218.928	-25.13
219.146	-16.93
219.363	-43.19
219.581	-197.29
219.799	-261.68
220.017	8684.06
220.234	554.57
220.452	296.07
220.67	919.27
220.887	595.56
221.105	2686.57
221.323	219.82
221.54	-238.25
221.758	-81.3
221.976	-40.77
222.193	-58.96
222.411	44.76
222.629	70.57
222.846	39.05
223.064	49.3
223.281	24.15
223.499	29.4
223.716	16.82
223.934	9.25
224.151	-3.68
224.369	9.8
224.586	66.34
224.804	49.45
225.021	151.85
225.239	461.31
225.456	-213.93
225.674	1600
225.891	-186.42
226.108	-309.49
226.326	90.52
226.543	52.06
226.76	46.67
226.978	18.64
227.195	15.96
227.413	1.42
227.63	0.5
227.847	-0.62
228.064	0.71
228.282	-1.38
228.499	2
228.716	0.22
228.934	-1.57
229.151	2.2
229.368	5.51
229.585	3.74
229.802	5.67
230.02	4.78
230.237	2.98
230.454	3.42
230.671	10.57
230.888	13.31
231.105	16.77
231.323	16.1
231.54	14.17
231.757	12.17
231.974	15.26
232.191	12.34
232.408	17.3
232.625	26.17
232.842	27.01
233.059	23.78
233.276	28.04
233.493	25.83
233.71	29.94
233.927	32.24
234.144	33.69
234.361	34.19
234.578	35.16
234.795	29.82
235.012	25.83
235.229	29.98
235.446	30.58
235.663	25.7
235.879	27.18
236.096	24.46
236.313	22.17
236.53	21.25
236.747	16.52
236.964	16.46
237.181	17.95
237.397	6.08
237.614	-6.57
237.831	-1.09
238.048	-1.74
238.264	0.78
238.481	4.6
238.698	1.94
238.915	7.01
239.131	13.05
239.348	16.69
239.565	18.45
239.781	24.01
239.998	26.64
240.215	24.39
240.431	22.81
240.648	18.22
240.865	16.51
241.081	17.44
241.298	15.47
241.514	15.42
241.731	14.86
241.947	13.77
242.164	12.92
242.38	12.74
242.597	13.91
242.814	12.34
243.03	13.55
243.246	13.35
243.463	12.15
243.679	12.66
243.896	11.12
244.112	11.19
244.329	9.18
244.545	9.56
244.762	8.97
244.978	7.85
245.194	8.1
245.411	8.52
245.627	10.29
245.843	11.86
246.06	11.51
246.276	13.27
246.492	14.27
246.709	15.42
246.925	14.34
247.141	13.88
247.357	13.3
247.574	13.73
247.79	13.66
248.006	13.51
248.222	13.8
248.439	13.62
248.655	12.07
248.871	10
249.087	9.13
249.303	9.49
249.519	9.08
249.736	9.31
249.952	8.29
250.168	8.51
250.384	6.9
250.6	6.16
250.816	4.94
251.032	7.43
251.248	9.78
251.464	10.89
251.68	11.96
251.896	14.34
252.112	13.57
252.328	15.22
252.544	15.4
252.76	15.97
252.976	14.88
253.192	16.98
253.408	18.02
253.624	18.29
253.84	18.09
254.056	15.94
254.272	15.34
254.487	16.62
254.703	15.69
254.919	15.16
255.135	13.11
255.351	13.83
255.567	10.52
255.782	9.66
255.998	5.81
256.214	6.81
256.43	7.26
256.646	8.29
256.861	11.1
257.077	9.98
257.293	8.58
257.508	10.36
257.724	9.89
257.94	11.62
258.155	9.31
258.371	8.88
258.587	8.12
258.802	9.02
259.018	8.98
259.234	8.38
259.449	9.12
259.665	10.23
259.88	10.76
260.096	10.28
260.312	8.83
260.527	8.84
260.743	9.75
260.958	9.83
261.174	9.8
261.389	8.12
261.605	8.18
261.82	7.38
262.036	7.37
262.251	7
262.466	8.31
262.682	10.32
262.897	10.52
263.113	10.43
263.328	10.47
263.543	10.03
263.759	13.57
263.974	13.71
264.189	15.74
264.405	12.75
264.62	12.02
264.835	12.45
265.051	12.02
265.266	14.32
265.481	14.6
265.696	14.7
265.912	15.42
266.127	14.39
266.342	13.59
266.557	12.9
266.773	14.15
266.988	14.62
267.203	13.77
267.418	13.06
267.633	11.53
267.848	11.53
268.064	11.11
268.279	12.56
268.494	12.5
268.709	12.2
268.924	11.28
269.139	11.43
269.354	9.65
269.569	10.8
269.784	10.43
269.999	11.1
270.214	10.92
270.429	11.78
270.644	10.91
270.859	11.03
271.074	11.58
271.289	11.61
271.504	11.63
271.719	12.07
271.934	10.64
272.149	10.23
272.363	10.43
272.578	10.25
272.793	9.35
273.008	9.36
273.223	9.79
273.438	9.27
273.653	8.59
273.867	7.96
274.082	7.31
274.297	8.93
274.512	10.61
274.726	9.07
274.941	8.28
275.156	10.48
275.371	9.79
275.585	10.48
275.8	10.96
276.015	13.23
276.229	13.52
276.444	15.22
276.659	15.74
276.873	14.19
277.088	15.94
277.302	16.81
277.517	13.96
277.732	14.47
277.946	13.86
278.161	14.41
278.375	12.7
278.59	11
278.804	8.38
279.019	6.89
279.233	7.17
279.448	8.15
279.662	6.86
279.877	8.04
280.091	7.78
280.306	7.62
280.52	6.31
280.735	7.74
280.949	8.29
281.163	9.39
281.378	8.59
281.592	8.59
281.806	7.78
282.021	9.08
282.235	9.36
282.449	9.72
282.664	9.27
282.878	9.8
283.092	10.65
283.307	11.39
283.521	11.04
283.735	12.24
283.949	11.49
284.164	11.06
284.378	11.55
284.592	12.03
284.806	11.77
285.02	12.03
285.234	11.43
285.449	9.33
285.663	8.02
285.877	8.28
286.091	7.46
286.305	8.12
286.519	8.33
286.733	8.11
286.947	7.22
287.161	7.58
287.375	6.52
287.589	6.87
287.803	8
288.017	9.32
288.231	8.79
288.445	9.16
288.659	9.12
288.873	9.35
289.087	8.16
289.301	8.07
289.515	8.12
289.729	9.4
289.943	9.95
290.157	9.01
290.371	10.95
290.584	12.42
290.798	12.8
291.012	13.59
291.226	13.54
291.44	15.35
291.654	17.1
291.867	17.21
292.081	17.79
292.295	18.3
292.509	19.2
292.722	17.7
292.936	17.94
293.15	16.54
293.364	16.8
293.577	17.53
293.791	16.91
294.005	16.88
294.218	17.06
294.432	18.17
294.645	17.63
294.859	17.1
295.073	16.39
295.286	14.76
295.5	15.86
295.713	15.11
295.927	14.34
296.14	13.72
296.354	12.91
296.568	11.16
296.781	8.88
296.994	8.44
297.208	8.61
297.421	9.32
297.635	10.17
297.848	10.59
298.062	11.04
298.275	11.07
298.489	11.77
298.702	12.05
298.915	12.26
299.129	12.89
299.342	12.57
299.555	13.49
299.769	11.94
299.982	12.42
300.195	11.83
300.409	10.78
300.622	9.91
300.835	9.66
301.048	7.54
301.262	9.01
301.475	9.75
301.688	12.23
301.901	12.7
302.115	13.64
302.328	13.82
302.541	13.87
302.754	14.68
302.967	16.31
303.18	15.27
303.393	16.15
303.607	17.23
303.82	17.18
304.033	15.61
304.246	14.41
304.459	15.06
304.672	14.84
304.885	13.93
305.098	13.42
305.311	12.81
305.524	12.24
305.737	12.14
305.95	9.4
306.163	10.05
306.376	11.58
306.589	11.95
306.802	12.23
307.015	12.51
307.228	14.11
307.44	14
307.653	13.89
307.866	14.73
308.079	15.88
308.292	17.08
308.505	15.74
308.718	15.4
308.93	16.28
309.143	16.11
309.356	15.8
309.569	16.5
309.781	17.58
309.994	17.34
310.207	17.67
310.42	17.95
310.632	17.55
310.845	18.2
311.058	18.93
311.27	17.86
311.483	19.15
311.696	18.9
311.908	18.64
312.121	18.64
312.333	18.98
312.546	19.01
312.759	18.26
312.971	18.75
313.184	19.47
313.396	17.47
313.609	17.36
313.821	17.39
314.034	18.03
314.246	17.5
314.459	18
314.671	18.83
314.884	18.07
315.096	19.53
315.309	20.54
315.521	18.87
315.733	20.14
315.946	21.18
316.158	21.04
316.371	19.47
316.583	19.39
316.795	18.13
317.008	16.26
317.22	16.69
317.432	15.69
317.644	14.99
317.857	15.37
318.069	15.39
318.281	14.25
318.494	12.49
318.706	13.47
318.918	11.28
319.13	10.42
319.342	11.71
319.555	12.26
319.767	11.96
319.979	11.26
320.191	12.64
320.403	12.14
320.615	15.1
320.827	15.12
321.039	16.18
321.252	17.35
321.464	19.44
321.676	18.87
321.888	18.69
322.1	17.88
322.312	16.86
322.524	16.87
322.736	15.96
322.948	12.88
323.16	11.62
323.372	10.83
323.584	12.7
323.796	13.05
324.007	13.55
324.219	14.02
324.431	14.8
324.643	17.09
324.855	15.21
325.067	16.14
325.279	18.09
325.491	20.02
325.702	19.69
325.914	19.32
326.126	18.28
326.338	18.29
326.55	18.62
326.761	17.56
326.973	17.56
327.185	18.55
327.396	19.25
327.608	18.21
327.82	16.8
328.032	17.53
328.243	16.6
328.455	16.86
328.666	17.76
328.878	17.2
329.09	17.69
329.301	17.5
329.513	17.64
329.725	17.07
329.936	17.27
330.148	18.2
330.359	18.73
330.571	17.7
330.782	18.1
330.994	16.1
331.205	16.84
331.417	18.02
331.628	17.17
331.84	17.14
332.051	17.94
332.262	18.55
332.474	18.64
332.685	19.32
332.897	21.65
333.108	21.57
333.319	22.85
333.531	21.9
333.742	23.77
333.953	23.71
334.165	24.14
334.376	24.08
334.587	23.8
334.799	24.76
335.01	23.25
335.221	22.1
335.432	21.68
335.644	21.73
335.855	22.31
336.066	21.33
336.277	21.23
336.488	20.79
336.7	19.94
336.911	20.93
337.122	18.7
337.333	19.96
337.544	21.77
337.755	21.88
337.966	20.16
338.177	19.77
338.388	19.57
338.599	21.11
338.811	20.46
339.022	19.9
339.233	19.65
339.444	21.4
339.655	20.7
339.866	19.17
340.076	19.11
340.287	20.79
340.498	21.54
340.709	21.15
340.92	19.62
341.131	20.36
341.342	20.77
341.553	19.97
341.764	19.29
341.975	20.26
342.185	20.16
342.396	20.55
342.607	20
342.818	20.18
343.029	20
343.239	20.65
343.45	21.46
343.661	23.2
343.872	23.15
344.082	23.01
344.293	23.35
344.504	23.06
344.714	21.88
344.925	22.72
345.136	21.51
345.346	20.68
345.557	20.4
345.768	20.06
345.978	18.48
346.189	18.65
346.399	20.05
346.61	19.18
346.821	20.12
347.031	19.89
347.242	19.38
347.452	19.78
347.663	20.77
347.873	22.08
348.084	22.27
348.294	22.81
348.504	23
348.715	22.03
348.925	21.56
349.136	20.99
349.346	20.82
349.557	20.07
349.767	20.62
349.977	20.93
350.188	20.41
350.398	20.15
350.608	20.63
350.819	20.49
351.029	19.82
351.239	20.23
351.449	20.71
351.66	22.51
351.87	23.02
352.08	23.61
352.29	23.25
352.501	21.86
352.711	21.27
352.921	19.58
353.131	20.18
353.341	20.09
353.552	18.77
353.762	17.88
353.972	17.09
354.182	17.19
354.392	16.37
354.602	17.12
354.812	17.33
355.022	17.89
355.232	19.88
355.442	19.05
355.652	18.91
355.862	19.36
356.072	19.78
356.282	19.77
356.492	19.96
356.702	19.23
356.912	18.38
357.122	18.94
357.332	18.56
357.542	17.7
357.752	17.77
357.962	17.3
358.171	18.13
358.381	17.75
358.591	18.15
358.801	17.96
359.011	17.98
359.221	18.65
359.43	18.16
359.64	18.8
359.85	18.27
360.06	18.17
360.269	18.71
360.479	18.03
360.689	18.26
360.899	17.88
361.108	18.01
361.318	18.05
361.528	17.37
361.737	17.38
361.947	17.41
362.156	17.06
362.366	16.33
362.576	16.3
362.785	16.06
362.995	15.51
363.204	15.13
363.414	14.65
363.623	14.4
363.833	13.84
364.042	14.45
364.252	13.38
364.461	13.58
364.671	14.75
364.88	15.17
365.09	15.76
365.299	16.04
365.509	17.02
365.718	17.63
365.927	17.78
366.137	18.35
366.346	17.53
366.555	17.07
366.765	16.88
366.974	16.49
367.183	15.42
367.393	14.99
367.602	15.1
367.811	14.42
368.021	14.1
368.23	15.25
368.439	15.27
368.648	14.79
368.857	15.57
369.067	15.96
369.276	15.67
369.485	16.01
369.694	15.21
369.903	14.86
370.112	14.61
370.321	13.5
370.531	12.82
370.74	12.27
370.949	12.6
371.158	12.32
371.367	12.92
371.576	12.84
371.785	13.7
371.994	14.12
372.203	14.58
372.412	14.47
372.621	15.21
372.83	15.62
373.039	15.27
373.248	15.16
373.457	15.01
373.666	13.66
373.874	13.48
374.083	12.95
374.292	13.33
374.501	13.95
374.71	13.7
374.919	13.62
375.128	12.9
375.336	12.44
375.545	12.85
375.754	12.78
375.963	13.55
376.171	13.35
376.38	13.19
376.589	13
376.798	12.9
377.006	13.39
377.215	13.33
377.424	13.63
377.632	14.51
377.841	14.33
378.05	15.12
378.258	14.47
378.467	15.06
378.675	14.76
378.884	14.51
379.093	13.98
379.301	13.39
379.51	12.95
379.718	12.4
379.927	12.11
380.135	12.22
380.344	11.54
380.552	11.45
380.761	11.82
380.969	11.81
381.177	11.39
381.386	10.97
381.594	11.08
381.803	11.56
382.011	11.35
382.219	11.35
382.428	11.04
382.636	10.63
382.845	11.17
383.053	10.02
383.261	10.14
383.469	10.57
383.678	10.41
383.886	11.12
384.094	11.05
384.302	11.51
384.511	11.61
384.719	11.74
384.927	12.26
385.135	12.02
385.343	12.38
385.552	12.33
385.76	11.57
385.968	11.55
386.176	10.8
386.384	10.74
386.592	10.57
386.8	10.57
387.008	10.43
387.216	10
387.424	9.94
387.633	9.83
387.841	9.83
388.049	10.28
388.257	10.29
388.465	10.32
388.672	9.88
388.88	9.64
389.088	9.35
389.296	8.98
389.504	8.98
389.712	9.14
389.92	9.14
390.128	9.02
390.336	9.28
390.544	9.89
390.751	9.76
390.959	9.99
391.167	9.96
391.375	9.93
391.583	9.96
391.79	9.98
391.998	10.13
392.206	10.05
392.414	10.06
392.621	9.67
392.829	8.73
393.037	9.04
393.244	8.85
393.452	9.02
393.66	9.22
393.867	9.54
394.075	9.62
394.283	9.38
394.49	9.08
394.698	9.08
394.905	9.17
395.113	9.67
395.32	9.43
395.528	9.3
395.735	8.79
395.943	8.45
396.15	8.4
396.358	8.39
396.565	8.25
396.773	8.51
396.98	8.59
397.188	8.62
397.395	8.64
397.602	8.8
397.81	9.01
398.017	9.46
398.225	9.38
398.432	8.93
398.639	8.99
398.847	9.37
399.054	9.51
399.261	9.09
399.468	9.09
399.676	8.79
399.883	8.53
400.09	8.95
400.297	8.95
400.505	9.07
400.712	9.28
400.919	9.17
401.126	8.75
401.333	8.62
401.54	8.86
401.748	8.74
401.955	9.02
402.162	9.11
402.369	8.61
402.576	8.29
402.783	8.4
402.99	8.31
403.197	8.05
403.404	8.25
403.611	8.19
403.818	8.28
404.025	8.32
404.232	8.1
404.439	8.19
404.646	8.26
404.853	8.32
405.06	8.44
405.267	8.49
405.474	8.65
405.681	8.43
405.887	8.55
406.094	8.41
406.301	8.53
406.508	8.78
406.715	8.88
406.922	8.88
407.128	8.75
407.335	8.6
407.542	8.6
407.749	8.46
407.955	8.24
408.162	8.35
408.369	8.59
408.575	8.33
408.782	8.08
408.989	7.87
409.195	7.88
409.402	8.19
409.609	8.23
409.815	8.17
410.022	8.28
410.228	8.63
410.435	8.38
410.642	8.42
410.848	8.52
411.055	8.56
411.261	8.63
411.468	8.58
411.674	8.3
411.881	8.33
412.087	8.4
412.294	8.44
412.5	8.21
412.706	8.13
412.913	7.97
413.119	8.06
413.326	8.32
413.532	8.18
413.738	8.21
413.945	8.32
414.151	8.2
414.357	8.33
414.564	7.87
414.77	8.06
414.976	8.05
415.182	7.96
415.389	7.76
415.595	7.71
415.801	7.57
416.007	7.69
416.214	7.64
416.42	7.53
416.626	7.58
416.832	7.93
417.038	7.96
417.244	8.03
417.45	8.26
417.657	8.31
417.863	8.11
418.069	8.25
418.275	7.96
418.481	8.09
418.687	8.17
418.893	7.94
419.099	8.04
419.305	7.89
419.511	8
419.717	7.77
419.923	7.74
420.129	7.66
420.335	7.73
420.541	7.91
420.746	7.9
420.952	7.96
421.158	7.95
421.364	7.87
421.57	7.82
421.776	7.72
421.982	7.79
422.187	7.91
422.393	7.99
422.599	8
422.805	7.96
423.01	7.84
423.216	7.74
423.422	7.76
423.628	7.75
423.833	7.84
424.039	7.95
424.245	7.88
424.45	7.73
424.656	7.86
424.862	7.72
425.067	7.73
425.273	7.67
425.478	7.57
425.684	7.5
425.889	7.49
426.095	7.39
426.301	7.19
426.506	7.29
426.712	7.29
426.917	7.03
427.123	6.89
427.328	6.73
427.533	6.74
427.739	6.84
427.944	7.04
428.15	7.03
428.355	7.21
428.561	7.4
428.766	7.36
428.971	7.26
429.177	7.41
429.382	7.53
429.587	7.67
429.793	7.9
429.998	7.99
430.203	7.91
430.408	7.72
430.614	7.72
430.819	7.58
431.024	7.33
431.229	7.56
431.434	7.45
431.64	7.49
431.845	7.41
432.05	7.36
432.255	7.54
432.46	7.58
432.665	7.58
432.87	7.4
433.076	7.47
433.281	7.74
433.486	7.83
433.691	7.78
433.896	7.76
434.101	7.74
434.306	7.85
434.511	7.76
434.716	7.82
434.921	7.85
435.126	8.03
435.331	8.07
435.535	7.95
435.74	7.95
435.945	8.04
436.15	8.18
436.355	8.27
436.56	8.28
436.765	8.16
436.97	8.23
437.174	8.25
437.379	8.15
437.584	8.13
437.789	8.11
437.993	7.98
438.198	7.86
438.403	7.73
438.608	7.81
438.812	7.73
439.017	7.76
439.222	7.7
439.426	7.55
439.631	7.41
439.836	7.34
440.04	7.27
440.245	7.24
440.45	7.38
440.654	7.46
440.859	7.32
441.063	7.12
441.268	7.06
441.472	7.08
441.677	7.3
441.881	7.44
442.086	7.53
442.29	7.64
442.495	7.6
442.699	7.5
442.904	7.51
443.108	7.65
443.312	7.84
443.517	7.94
443.721	7.83
443.925	7.86
444.13	7.81
444.334	7.66
444.538	7.68
444.743	7.67
444.947	7.66
445.151	7.46
445.356	7.47
445.56	7.47
445.764	7.54
445.968	7.48
446.173	7.5
446.377	7.52
446.581	7.5
446.785	7.42
446.989	7.54
447.193	7.53
447.398	7.63
447.602	7.45
447.806	7.47
448.01	7.25
448.214	7.18
448.418	7.01
448.622	7
448.826	7.18
449.03	7.17
449.234	7.12
449.438	7.1
449.642	6.91
449.846	7.15
450.05	7.08
450.254	7.17
450.458	7.01
450.662	7.11
450.866	7.06
451.069	6.88
451.273	6.7
451.477	6.72
451.681	6.93
451.885	7.16
452.089	7.16
452.292	7.25
452.496	7.22
452.7	7.66
452.904	7.58
453.107	7.65
453.311	7.55
453.515	7.84
453.719	7.81
453.922	7.58
454.126	7.71
454.33	7.45
454.533	7.46
454.737	7.35
454.94	7.15
455.144	7.29
455.348	7.27
455.551	7.26
455.755	7.32
455.958	7.36
456.162	7.52
456.365	7.37
456.569	7.59
456.772	7.5
456.976	7.6
457.179	7.57
457.383	7.57
457.586	7.63
457.79	7.8
457.993	7.59
458.196	7.52
458.4	7.48
458.603	7.53
458.807	7.56
459.01	7.58
459.213	7.52
459.417	7.46
459.62	7.31
459.823	7.1
460.026	7.08
460.23	7.16
460.433	7.19
460.636	7.1
460.839	7.06
461.042	6.99
461.246	6.81
461.449	6.95
461.652	7.17
461.855	7.09
462.058	7.32
462.261	7.19
462.464	7.26
462.668	7.27
462.871	7.32
463.074	7.28
463.277	7.12
463.48	7.37
463.683	7.31
463.886	7.16
464.089	7.33
464.292	7.28
464.495	7.39
464.698	7.16
464.901	7.07
465.104	7.18
465.306	7
465.509	6.97
465.712	6.85
465.915	6.96
466.118	6.91
466.321	6.97
466.524	6.88
466.726	6.74
466.929	6.87
467.132	6.88
467.335	6.83
467.538	7.12
467.74	7.21
467.943	7.22
468.146	7.07
468.348	6.99
468.551	7.01
468.754	6.96
468.956	6.95
469.159	6.87
469.362	6.8
469.564	6.8
469.767	6.86
469.969	6.91
470.172	6.96
470.375	6.96
470.577	7.05
470.78	7
470.982	7.14
471.185	7.1
471.387	7.4
471.59	7.55
471.792	7.43
471.995	7.06
472.197	7.04
472.399	7.09
472.602	7.08
472.804	7.02
473.007	6.91
473.209	6.97
473.411	7.24
473.614	6.9
473.816	6.86
474.018	7.02
474.22	7.19
474.423	7.33
474.625	7.34
474.827	7.23
475.03	7.27
475.232	7.34
475.434	7.41
475.636	7.39
475.838	7.54
476.04	7.39
476.243	7.37
476.445	7.35
476.647	7.08
476.849	7.02
477.051	7.21
477.253	7.03
477.455	7.09
477.657	6.96
477.859	6.9
478.061	6.94
478.263	6.92
478.465	6.85
478.667	6.81
478.869	6.66
479.071	6.57
479.273	6.63
479.475	6.64
479.677	6.68
479.879	6.72
480.081	6.68
480.283	6.49
480.485	6.46
480.686	6.55
480.888	6.61
481.09	6.89
481.292	6.92
481.494	6.82
481.695	6.9
481.897	6.78
482.099	6.82
482.301	6.84
482.502	6.92
482.704	7.01
482.906	6.94
483.107	6.96
483.309	6.92
483.511	6.94
483.712	6.91
483.914	6.94
484.115	7.04
484.317	7.01
484.519	6.98
484.72	7
484.922	6.98
485.123	6.97
485.325	6.94
485.526	6.99
485.728	6.98
485.929	6.98
486.131	6.94
486.332	6.88
486.534	6.88
486.735	6.95
486.936	6.94
487.138	6.97
487.339	7.04
487.541	7.1
487.742	7.11
487.943	7.17
488.144	7.22
488.346	7.21
488.547	7.17
488.748	7.17
488.95	7.17
489.151	7.18
489.352	7.18
489.553	7.11
489.755	7.06
489.956	6.97
490.157	6.94
490.358	6.94
490.559	7.01
490.76	7.05
490.961	7.05
491.163	7.01
491.364	7.05
491.565	7.02
491.766	7.12
491.967	7.09
492.168	7.11
492.369	7.12
492.57	7.14
492.771	7.17
492.972	7.18
493.173	7.2
493.374	7.2
493.575	7.13
493.776	7.19
493.976	7.19
494.177	7.23
494.378	7.22
494.579	7.26
494.78	7.27
494.981	7.1
495.182	7.15
495.382	7.15
495.583	7.13
495.784	7.18
495.985	7.18
496.185	7.19
496.386	7.23
496.587	7.28
496.788	7.24
496.988	7.22
497.189	7.45
497.39	7.43
497.59	7.34
497.791	7.55
497.992	7.52
498.192	7.47
498.393	7.49
498.593	7.55
498.794	7.61
498.994	7.6
499.195	7.54
499.395	7.48
499.596	7.56
499.796	7.77
499.997	7.56
500.197	7.67
500.398	7.83
500.598	7.79
500.799	7.71
500.999	7.58
501.199	7.55
501.4	7.77
501.6	7.62
501.801	7.65
502.001	7.48
502.201	7.64
502.402	7.57
502.602	7.6
502.802	7.54
503.002	7.52
503.203	7.62
503.403	7.68
503.603	7.59
503.803	7.63
504.003	7.59
504.204	7.83
504.404	7.71
504.604	7.81
504.804	7.74
505.004	7.79
505.204	7.87
505.404	8.02
505.604	8.21
505.804	8.22
506.005	8.33
506.205	8.32
506.405	8.28
506.605	8.34
506.805	8.38
507.005	8.42
507.204	8.52
507.404	8.54
507.604	8.58
507.804	8.45
508.004	8.41
508.204	8.4
508.404	8.41
508.604	8.3
508.804	8.39
509.003	8.31
509.203	8.39
509.403	8.21
509.603	8.17
509.803	8.15
510.002	8.26
510.202	8.25
510.402	8.17
510.602	8.12
510.801	8.18
511.001	8.11
511.201	8.18
511.4	7.93
511.6	8.16
511.8	8.21
511.999	8.08
512.199	8.05
512.398	8.17
512.598	8.35
512.797	8.34
512.997	8.19
513.197	8.19
513.396	8.17
513.596	8.31
513.795	8.16
513.994	8.16
514.194	8.31
514.393	8.32
514.593	8.34
514.792	8.24
514.992	8.39
515.191	8.46
515.39	8.52
515.59	8.47
515.789	8.59
515.988	8.77
516.188	9
516.387	8.93
516.586	8.86
516.786	8.75
516.985	8.83
517.184	8.74
517.383	8.95
517.582	8.87
517.782	8.91
517.981	8.9
518.18	8.9
518.379	8.69
518.578	8.63
518.777	8.69
518.976	8.62
519.176	8.57
519.375	8.6
519.574	8.43
519.773	8.43
519.972	8.46
520.171	8.38
520.37	8.36
520.569	8.47
520.768	8.51
520.967	8.5
521.166	8.59
521.365	8.69
521.564	8.87
521.762	8.95
521.961	9.19
522.16	9.2
522.359	9.24
522.558	9.12
522.757	9.04
522.956	9.08
523.154	9.03
523.353	9.04
523.552	9.03
523.751	8.93
523.949	9.07
524.148	9.04
524.347	9.05
524.546	9.03
524.744	9.11
524.943	9.2
525.142	9.19
525.34	9.19
525.539	9.38
525.737	9.43
525.936	9.44
526.135	9.39
526.333	9.48
526.532	9.39
526.73	9.55
526.929	9.61
527.127	9.66
527.326	9.7
527.524	9.8
527.723	9.71
527.921	9.7
528.12	9.72
528.318	9.74
528.516	9.69
528.715	9.77
528.913	9.74
529.112	9.79
529.31	9.78
529.508	9.84
529.707	9.9
529.905	9.94
530.103	9.99
530.301	9.97
530.5	10.04
530.698	9.98
530.896	9.97
531.094	10.03
531.293	10.05
531.491	10.21
531.689	10.16
531.887	10.12
532.085	10.15
532.283	10.1
532.481	10.18
532.68	10.1
532.878	10.21
533.076	10.22
533.274	10.28
533.472	10.23
533.67	10.2
533.868	10.27
534.066	10.34
534.264	10.34
534.462	10.47
534.66	10.51
534.858	10.73
535.056	10.81
535.253	10.92
535.451	10.97
535.649	11.02
535.847	10.96
536.045	10.92
536.243	10.74
536.441	10.86
536.638	10.68
536.836	10.72
537.034	10.74
537.232	10.75
537.43	10.78
537.627	10.78
537.825	10.85
538.023	10.95
538.22	11
538.418	11.27
538.616	11.24
538.813	11.42
539.011	11.5
539.209	11.44
539.406	11.6
539.604	11.59
539.801	11.53
539.999	11.55
540.196	11.58
540.394	11.62
540.591	11.53
540.789	11.55
540.986	11.64
541.184	11.61
541.381	11.68
541.579	11.63
541.776	11.58
541.974	11.6
542.171	11.55
542.368	11.56
542.566	11.59
542.763	11.67
542.96	11.64
543.158	11.59
543.355	11.63
543.552	11.51
543.75	11.53
543.947	11.61
544.144	11.64
544.341	11.69
544.539	11.75
544.736	11.7
544.933	11.63
545.13	11.77
545.327	11.88
545.524	11.89
545.722	12.12
545.919	12.18
546.116	12.32
546.313	12.39
546.51	12.45
546.707	12.42
546.904	12.51
547.101	12.66
547.298	12.72
547.495	12.69
547.692	12.72
547.889	12.59
548.086	12.55
548.283	12.48
548.48	12.5
548.677	12.72
548.874	12.93
549.07	13.07
549.267	12.94
549.464	12.86
549.661	12.96
549.858	13.15
550.055	13.18
550.251	13.36
550.448	13.41
550.645	13.69
550.842	13.59
551.038	13.58
551.235	13.52
551.432	13.64
551.628	13.61
551.825	13.63
552.022	13.3
552.218	13.45
552.415	13.46
552.612	13.58
552.808	13.47
553.005	13.67
553.201	13.53
553.398	13.67
553.594	13.9
553.791	13.9
553.987	13.93
554.184	14.22
554.38	14.54
554.577	14.58
554.773	14.61
554.97	14.48
555.166	14.26
555.362	14.28
555.559	14.2
555.755	14.15
555.952	14.21
556.148	14.32
556.344	14.29
556.541	14.11
556.737	14.2
556.933	14.36
557.129	14.73
557.326	14.84
557.522	15.04
557.718	14.95
557.914	14.85
558.11	14.97
558.307	14.79
558.503	15.03
558.699	15.16
558.895	15.28
559.091	15.3
559.287	15.18
559.483	15.62
559.679	15.68
559.876	15.77
560.072	15.86
560.268	15.89
560.464	16.16
560.66	16.08
560.856	15.92
561.052	15.7
561.247	15.84
561.443	16.03
561.639	15.8
561.835	16.04
562.031	16.04
562.227	16.09
562.423	16.33
562.619	16.33
562.815	16.21
563.01	16.45
563.206	16.46
563.402	16.19
563.598	16.23
563.793	16.2
563.989	15.98
564.185	16.21
564.381	16.52
564.576	16.48
564.772	16.64
564.968	16.73
565.163	16.52
565.359	16.68
565.555	16.75
565.75	16.6
565.946	16.57
566.141	16.49
566.337	16.44
566.532	16.34
566.728	16.49
566.923	16.53
567.119	16.59
567.314	16.69
567.51	16.8
567.705	17.08
567.901	17.32
568.096	17.34
568.292	17.53
568.487	17.73
568.682	17.71
568.878	17.66
569.073	17.67
569.268	17.96
569.464	18.01
569.659	18.09
569.854	18.15
570.05	18.07
570.245	18.3
570.44	18.4
570.635	18.47
570.831	18.49
571.026	18.33
571.221	18.24
571.416	18.13
571.611	18.22
571.806	18.2
572.002	18.13
572.197	18.21
572.392	18.05
572.587	18
572.782	17.87
572.977	17.99
573.172	18.13
573.367	18.23
573.562	18.17
573.757	18.18
573.952	18.19
574.147	18.07
574.342	18.04
574.537	18.13
574.732	18.16
574.927	18.25
575.121	18.09
575.316	18.09
575.511	18.12
575.706	18.41
575.901	18.37
576.096	18.38
576.29	18.58
576.485	18.74
576.68	18.87
576.875	18.79
577.069	18.71
577.264	18.68
577.459	18.69
577.654	18.88
577.848	18.74
578.043	19.07
578.238	19.01
578.432	19.02
578.627	18.9
578.821	18.82
579.016	18.92
579.21	19.13
579.405	19.67
579.6	19.95
579.794	19.92
579.989	19.93
580.183	19.67
580.378	19.86
580.572	19.9
580.766	19.81
580.961	19.76
581.155	19.82
581.35	19.84
581.544	19.51
581.738	19.35
581.933	19.26
582.127	19.24
582.321	19.46
582.516	19.58
582.71	19.68
582.904	19.75
583.099	19.97
583.293	20.08
583.487	19.85
583.681	19.73
583.875	19.81
584.07	19.79
584.264	19.66
584.458	19.52
584.652	19.37
584.846	19.39
585.04	19.56
585.234	19.48
585.428	19.42
585.623	19.92
585.817	20.35
586.011	20.58
586.205	20.61
586.399	21.08
586.593	21.22
586.787	21.18
586.981	21.08
587.174	20.92
587.368	21.01
587.562	21.17
587.756	21.22
587.95	20.79
588.144	20.45
588.338	20.67
588.532	20.72
588.725	20.47
588.919	20.47
589.113	20.49
589.307	20.44
589.501	20.38
589.694	20.31
589.888	20.07
590.082	20.08
590.275	20.19
590.469	20.06
590.663	19.64
590.856	19.8
591.05	19.7
591.244	19.69
591.437	19.89
591.631	19.9
591.824	20.02
592.018	20.17
592.212	20.28
592.405	20.37
592.599	20.47
592.792	20.64
592.986	20.6
593.179	20.63
593.372	20.73
593.566	20.84
593.759	20.9
593.953	20.91
594.146	20.8
594.339	21.16
594.533	21.28
594.726	21.09
594.92	21.03
595.113	21.04
595.306	21.18
595.499	21.05
595.693	20.77
595.886	20.55
596.079	20.44
596.272	20.51
596.466	20.44
596.659	20.38
596.852	20.47
597.045	20.44
597.238	20.47
597.431	20.5
597.624	20.6
597.818	20.95
598.011	21.11
598.204	21.13
598.397	21.31
598.59	21.19
598.783	21.22
598.976	21.21
599.169	21.28
599.362	21.19
599.555	21.19
599.748	21.14
599.941	20.88
600.134	21.03
600.326	21.08
600.519	20.79
600.712	20.84
600.905	20.71
601.098	20.76
601.291	20.85
601.483	20.98
601.676	21.11
601.869	21.42
602.062	21.52
602.255	21.51
602.447	21.66
602.64	21.56
602.833	21.5
603.025	21.77
603.218	21.79
603.411	21.95
603.603	21.95
603.796	21.89
603.989	21.53
604.181	21.56
604.374	21.37
604.566	21.45
604.759	21.65
604.951	21.75
605.144	21.43
605.336	21.61
605.529	21.37
605.721	21.48
605.914	21.64
606.106	21.73
606.299	21.59
606.491	21.68
606.683	21.27
606.876	21.1
607.068	20.94
607.26	21.27
607.453	21.31
607.645	21.54
607.837	21.56
608.03	21.45
608.222	21.57
608.414	21.76
608.606	21.81
608.799	22.08
608.991	22.26
609.183	22.45
609.375	22.31
609.567	22.13
609.759	22.08
609.952	22.12
610.144	21.85
610.336	21.76
610.528	21.74
610.72	21.82
610.912	21.84
611.104	21.73
611.296	21.6
611.488	21.63
611.68	21.45
611.872	21.34
612.064	21.15
612.256	21.35
612.448	21.49
612.64	21.4
612.832	21.44
613.023	21.3
613.215	21.33
613.407	21.23
613.599	21.26
613.791	21.33
613.983	21.43
614.174	21.45
614.366	21.56
614.558	21.78
614.75	21.69
614.941	21.66
615.133	21.96
615.325	22.35
615.516	22.76
615.708	22.88
615.9	22.97
616.091	22.9
616.283	22.71
616.475	22.84
616.666	22.6
616.858	22.66
617.049	22.39
617.241	22.31
617.432	21.84
617.624	21.68
617.815	21.61
618.007	21.68
618.198	21.83
618.39	22.19
618.581	21.92
618.773	21.9
618.964	22.14
619.155	22.39
619.347	22.35
619.538	22.26
619.729	22.15
619.921	22.29
620.112	22.32
620.303	22.38
620.494	22.45
620.686	22.56
620.877	22.77
621.068	22.58
621.259	22.49
621.451	22.54
621.642	23.02
621.833	23.32
622.024	23.09
622.215	22.83
622.406	22.42
622.597	22.33
622.788	22.27
622.98	22.29
623.171	22.33
623.362	22.53
623.553	22.48
623.744	22.09
623.935	22.14
624.126	22.31
624.317	22.5
624.508	22.93
624.698	22.95
624.889	22.92
625.08	23
625.271	22.9
625.462	22.71
625.653	22.72
625.844	22.97
626.034	22.68
626.225	22.44
626.416	22.45
626.607	22.17
626.798	22.13
626.988	22.33
627.179	22.37
627.37	22.55
627.56	22.59
627.751	22.45
627.942	22.53
628.132	22.33
628.323	22.59
628.514	22.57
628.704	22.9
628.895	22.63
629.085	22.59
629.276	22.5
629.466	22.62
629.657	22.79
629.847	22.95
630.038	22.64
630.228	23.34
630.419	23.01
630.609	23.13
630.8	23.13
630.99	23.38
631.181	23.3
631.371	23.09
631.561	22.84
631.752	22.78
631.942	22.8
632.132	22.89
632.323	22.34
632.513	22.79
632.703	22.54
632.893	22.62
633.084	22.48
633.274	22.53
633.464	22.8
633.654	22.7
633.844	22.85
634.034	22.93
634.225	22.86
634.415	23.13
634.605	22.61
634.795	22.92
634.985	22.69
635.175	23.11
635.365	23.16
635.555	22.82
635.745	23.08
635.935	23.06
636.125	23.06
636.315	23.14
636.505	22.95
636.695	23.4
636.885	23.16
637.075	23.06
637.265	23.03
637.455	22.84
637.644	23.09
637.834	22.84
638.024	22.61
638.214	22.49
638.404	22.78
638.593	22.71
638.783	22.82
638.973	22.38
639.163	22.72
639.352	22.48
639.542	22.88
639.732	23.07
639.921	23
640.111	23.24
640.301	23.28
640.49	22.79
640.68	22.96
640.87	22.54
641.059	22.77
641.249	22.26
641.438	22.4
641.628	21.88
641.817	21.76
642.007	21.85
642.196	21.73
642.386	21.69
642.575	21.72
642.764	21.84
642.954	22.51
643.143	23.08
643.333	23.45
643.522	23.44
643.711	23.38
643.901	22.99
644.09	23.35
644.279	23.21
644.469	23.52
644.658	23.68
644.847	23.73
645.036	23.48
645.226	23.3
645.415	23.08
645.604	22.95
645.793	23.41
645.982	23.66
646.171	23.39
646.361	23.52
646.55	23.25
646.739	23.8
646.928	23.88
647.117	23.22
647.306	23.38
647.495	23.63
647.684	23.69
647.873	23.62
648.062	24
648.251	24.21
648.44	24.49
648.629	24.49
648.818	24.22
649.007	23.8
649.196	24.32
649.384	24.23
649.573	24.18
649.762	24.34
649.951	24.14
650.14	24.19
650.328	23.73
650.517	23.65
650.706	23.92
650.895	23.66
651.083	23.94
651.272	23.82
651.461	24.03
651.65	24.24
651.838	24.63
652.027	25.05
652.216	24.8
652.404	24.95
652.593	24.97
652.781	25.13
652.97	25.16
653.158	25.3
653.347	25.49
653.535	25.51
653.724	25.55
653.912	24.95
654.101	25.1
654.289	24.95
654.478	25.37
654.666	25.25
654.855	24.81
655.043	25.13
655.231	24.93
655.42	25.14
655.608	25.06
655.796	25.08
655.985	25.31
656.173	24.92
656.361	24.97
656.55	24.88
656.738	24.9
656.926	25.17
657.114	25.18
657.302	25.13
657.491	25
657.679	24.55
657.867	24.16
658.055	24.04
658.243	24.11
658.431	24.17
658.619	24.11
658.807	24.27
658.996	23.95
659.184	23.79
659.372	23.84
659.56	23.5
659.748	23.53
659.936	23.53
660.124	23.3
660.311	23.35
660.499	23.07
660.687	23.13
660.875	22.85
661.063	23.08
661.251	23.41
661.439	23.21
661.627	23.17
661.814	23.59
662.002	23.87
662.19	24.26
662.378	23.96
662.565	24.51
662.753	24.8
662.941	24.96
663.129	25.1
663.316	24.81
663.504	25.09
663.692	25.31
663.879	25.21
664.067	25.58
664.254	25.52
664.442	25.86
664.63	25.71
664.817	25.09
665.005	25.1
665.192	25
665.38	25.08
665.567	25.44
665.755	25.83
665.942	25.8
666.13	25.22
666.317	25.14
666.504	25.38
666.692	25.68
666.879	26.11
667.067	26.3
667.254	26.43
667.441	26.3
667.629	25.89
667.816	25.81
668.003	25.88
668.19	26.19
668.378	26.14
668.565	25.76
668.752	25.27
668.939	24.7
669.127	24.05
669.314	24.13
669.501	24.23
669.688	24.48
669.875	24.66
670.062	24.58
670.249	24.5
670.436	24.75
670.623	25.31
670.81	25.13
670.997	25.3
671.184	26
671.371	26.18
671.558	26.04
671.745	25.73
671.932	25.7
672.119	25.8
672.306	25.63
672.493	25.33
672.68	24.64
672.867	25.39
673.054	25.87
673.24	25.47
673.427	24.83
673.614	24.95
673.801	25.35
673.988	25.26
674.174	25.27
674.361	25.03
674.548	25
674.734	25.27
674.921	25.25
675.108	25.33
675.294	25.76
675.481	26.01
675.668	25.88
675.854	25.81
676.041	25.76
676.227	26.17
676.414	27.01
676.601	27.33
676.787	27.21
676.974	26.6
677.16	26.21
677.347	25.99
677.533	26.25
677.719	25.91
677.906	25.71
678.092	25.66
678.279	25.1
678.465	24.8
678.651	24.86
678.838	25.28
679.024	25.09
679.21	25.36
679.397	25.36
679.583	25.17
679.769	25.43
679.955	25.87
680.142	26
680.328	25.98
680.514	25.83
680.7	25.5
680.886	25.11
681.073	25.69
681.259	25.57
681.445	25.68
681.631	25.57
681.817	25.91
682.003	25.74
682.189	25.66
682.375	26.1
682.561	26.23
682.747	26.47
682.933	27.12
683.119	27.08
683.305	27.2
683.491	27.27
683.677	27.65
683.863	27.17
684.049	26.74
684.235	26.09
684.42	25.71
684.606	25.67
684.792	25.47
684.978	24.47
685.164	24.71
685.349	24.82
685.535	24.28
685.721	23.86
685.907	23.82
686.092	23.7
686.278	24.25
686.464	23.81
686.649	23.98
686.835	24.69
687.021	25.55
687.206	25.06
687.392	25.22
687.577	25.65
687.763	25.69
687.948	25.69
688.134	25.98
688.319	26.21
688.505	26.73
688.69	26.18
688.876	25.96
689.061	25.66
689.247	25.7
689.432	25.48
689.618	25.46
689.803	25.84
689.988	26.37
690.174	26.43
690.359	26.47
690.544	26.15
690.73	26.31
690.915	26.22
691.1	26.05
691.285	25.85
691.471	24.99
691.656	24.16
691.841	24.04
692.026	23.19
692.211	23.7
692.396	23.81
692.582	24.02
692.767	24.23
692.952	24.24
693.137	24.67
693.322	24.66
693.507	25.86
693.692	26.7
693.877	26.3
694.062	26.77
694.247	25.83
694.432	25.68
694.617	25.93
694.802	26.32
694.987	26.34
695.172	25.8
695.357	26.46
695.541	26.05
695.726	26.5
695.911	26.28
696.096	26.48
696.281	27.23
696.466	26.66
696.65	26.49
696.835	25.92
697.02	25.8
697.204	26.02
697.389	25.5
697.574	25.95
697.759	25.81
697.943	26.04
698.128	26.52
698.312	25.99
698.497	26.28
698.682	26.63
698.866	26.55
699.051	26.68
699.235	26.47
699.42	26.79
699.604	26.25
699.789	26.19
699.973	26.37
700.158	26.1
700.342	26.74
700.527	26.59
700.711	26.37
700.895	26.72
701.08	26.59
701.264	27.02
701.448	26.95
701.633	27.31
701.817	27.51
702.001	27.5
702.186	27.5
702.37	27.08
702.554	27.56
702.738	27.33
702.923	27.44
703.107	27.47
703.291	27.53
703.475	27.53
703.659	27.86
703.843	27.06
704.027	27.48
704.212	27.11
704.396	27.25
704.58	27.07
704.764	27.98
704.948	27.86
705.132	28.1
705.316	27.76
705.5	27.71
705.684	26.89
705.868	27.17
706.052	26.59
706.235	26.11
706.419	26.17
706.603	26.46
706.787	25.76
706.971	26
707.155	26.11
707.339	25.89
707.522	25.78
707.706	26.26
707.89	27.16
708.074	27.71
708.257	27.76
708.441	27.25
708.625	26.98
708.808	26.75
708.992	26.18
709.176	25.61
709.359	26.44
709.543	26.54
709.727	26.53
709.91	25.16
710.094	25.02
710.277	25.55
710.461	25.38
710.644	24.93
710.828	25.14
711.011	25.91
711.195	26.72
711.378	26.41
711.562	26.6
711.745	26.34
711.928	26.99
712.112	26.85
712.295	26.71
712.478	27.09
712.662	27.49
712.845	26.92
713.028	26.66
713.212	25.84
713.395	25.46
713.578	25.1
713.761	25.77
713.945	25.62
714.128	26.18
714.311	26.85
714.494	26.99
714.677	27.54
714.86	27.75
715.043	27.38
715.227	27.64
715.41	27.66
715.593	27.89
715.776	27.59
715.959	27.43
716.142	27.26
716.325	27.3
716.508	26.97
716.691	26.62
716.874	27.24
717.057	27.87
717.239	28.03
717.422	27.85
717.605	28.47
717.788	28
717.971	28.42
718.154	27.77
718.337	27.12
718.519	28.12
718.702	27.69
718.885	27.22
719.068	27.37
719.25	27.65
719.433	28.19
719.616	26.92
719.798	27.46
719.981	27.18
720.164	27.5
720.346	27.79
720.529	27.99
720.712	28.82
720.894	28.87
721.077	28.3
721.259	27.79
721.442	27.35
721.624	28.13
721.807	27.7
721.989	27.48
722.172	26.75
722.354	26.82
722.537	26.42
722.719	26.36
722.901	26.64
723.084	26.49
723.266	26.18
723.448	26.84
723.631	26.94
723.813	27.63
723.995	27.96
724.178	28.52
724.36	27.84
724.542	27.16
724.724	26.25
724.907	25.9
725.089	26.35
725.271	25.74
725.453	25.24
725.635	24.78
725.817	24.52
725.999	25.16
726.181	25.39
726.364	26.12
726.546	25.82
726.728	26.49
726.91	26.1
727.092	25.18
727.274	26.28
727.456	25.93
727.638	25.85
727.819	27.14
728.001	26.97
728.183	26.95
728.365	26.86
728.547	26.89
728.729	26.74
728.911	26.56
729.093	26.76
729.274	27.4
729.456	28.03
729.638	28.67
729.82	27.07
730.001	26.81
730.183	27.13
730.365	26.04
730.546	26.44
730.728	26.72
730.91	27.51
731.091	27.6
731.273	26.28
731.455	25.91
731.636	26.13
731.818	27.21
731.999	27.44
732.181	26.6
732.362	27.43
732.544	27.05
732.725	26.88
732.907	27.01
733.088	27.49
733.27	28.29
733.451	28.48
733.633	27.76
733.814	26.87
733.995	27.08
734.177	27.67
734.358	28.49
734.539	28.8
734.721	28.32
734.902	27.71
735.083	26.89
735.264	27.36
735.446	28.04
735.627	28.59
735.808	28.06
735.989	27.93
736.17	28.69
736.351	27.33
736.533	26.89
736.714	27.24
736.895	27.81
737.076	28.74
737.257	27.99
737.438	27.75
737.619	27.56
737.8	28.95
737.981	28.19
738.162	27.87
738.343	28.52
738.524	28.86
738.705	29.45
738.886	28.54
739.067	28.08
739.247	28.21
739.428	26.8
739.609	25.53
739.79	24.7
739.971	25.16
740.151	23.97
740.332	23.92
740.513	24.66
740.694	24.17
740.874	24.67
741.055	25.82
741.236	26.68
741.417	28.46
741.597	28.54
741.778	28.46
741.958	29.28
742.139	30.32
742.32	30.24
742.5	29.89
742.681	31.02
742.861	32.05
743.042	31.16
743.222	30.03
743.403	28.52
743.583	30.46
743.764	31.57
743.944	31.87
744.124	31.66
744.305	31.44
744.485	31.48
744.666	30.07
744.846	29.96
745.026	31.24
745.207	32.13
745.387	33.03
745.567	32.9
745.747	31.74
745.928	31.44
746.108	29.49
746.288	29.57
746.468	29.12
746.648	30.11
746.829	29.56
747.009	28.91
747.189	27.79
747.369	27.76
747.549	26.13
747.729	26.78
747.909	25.99
748.089	27.64
748.269	27.26
748.449	27.49
748.629	26.7
748.809	27.91
748.989	28.11
749.169	27.8
749.349	28.57
749.529	29.06
749.709	28.61
749.889	29.93
750.068	29.72
750.248	30.63
750.428	30.61
750.608	30.45
750.788	29.87
750.967	27.96
751.147	29.12
751.327	28.09
751.507	28.56
751.686	27.96
751.866	26.97
752.046	27.48
752.225	27.59
752.405	27.76
752.585	28.54
752.764	28.08
752.944	29.08
753.123	28.21
753.303	28.78
753.482	29.06
753.662	30.32
753.841	29.13
754.021	30.18
754.2	30.04
754.38	30.86
754.559	31.27
754.739	32.87
754.918	32.91
755.097	35.11
755.277	34.36
755.456	34
755.635	35.4
755.815	36.32
755.994	34.34
756.173	34.94
756.352	34.17
756.532	33.79
756.711	32.25
756.89	32.01
757.069	30.23
757.248	32.49
757.427	31.58
757.607	30.41
757.786	29.81
757.965	30.54
758.144	30.02
758.323	30.65
758.502	30.46
758.681	30.02
758.86	30.14
759.039	30.04
759.218	28.46
759.397	29.69
759.576	29.17
759.755	29.18
759.934	28.48
760.113	27.66
760.291	26.35
760.47	26
760.649	27.02
760.828	27.08
761.007	27.31
761.186	26.07
761.364	25.93
761.543	25.72
761.722	28.01
761.901	28.36
762.079	27.41
762.258	26.95
762.437	26.88
762.615	27.87
762.794	27.66
762.972	27.92
763.151	27.81
763.33	28
763.508	28.74
763.687	27.61
763.865	28.08
764.044	30.2
764.222	31.7
764.401	32.07
764.579	31.39
764.758	30.52
764.936	30.8
765.114	31.69
765.293	32.13
765.471	31.45
765.65	31.7
765.828	31.51
766.006	30.48
766.184	29.59
766.363	28.09
766.541	26.26
766.719	27.53
766.898	26.24
767.076	25.89
767.254	24.93
767.432	25.26
767.61	23.94
767.788	24.23
767.967	23.78
768.145	23.6
768.323	25.58
768.501	26.67
768.679	26.87
768.857	28.45
769.035	28.97
769.213	27.94
769.391	26.29
769.569	27.7
769.747	29.31
769.925	28.96
770.103	30.18
770.281	29.36
770.459	29.67
770.636	31.63
770.814	30.11
770.992	29.26
771.17	31.8
771.348	32.04
771.525	32.44
771.703	32.18
771.881	32.21
772.059	30.4
772.236	29.14
772.414	31.33
772.592	28.88
772.769	29.09
772.947	28.31
773.125	28.28
773.302	30.11
773.48	30.96
773.657	30.66
773.835	31.76
774.013	32.48
774.19	34.69
774.368	31.72
774.545	34.39
774.723	34.5
774.9	35.33
775.077	33.36
775.255	32.88
775.432	30.81
775.61	29.99
775.787	29.8
775.964	32.33
776.142	31.71
776.319	32.9
776.496	29.95
776.674	31.06
776.851	30.34
777.028	29.31
777.205	27.28
777.382	27.92
777.56	25.38
777.737	23.53
777.914	21.22
778.091	21.24
778.268	23.28
778.445	23.84
778.622	22.95
778.8	25.53
778.977	27.91
779.154	31.53
779.331	33.11
779.508	36.18
779.685	39.08
779.862	39.19
780.038	39.81
780.215	39.95
780.392	40.69
780.569	40.12
780.746	38.65
780.923	40.08
781.1	38.64
781.277	35.74
781.453	34.24
781.63	34.41
781.807	33.61
781.984	32.41
782.16	30.22
782.337	27.89
782.514	28.84
782.691	28.81
782.867	26.62
783.044	27.84
783.221	31.65
783.397	30.88
783.574	28.46
783.75	29.14
783.927	30.21
784.103	28.85
784.28	29.84
784.456	30.89
784.633	31.41
784.809	30.28
784.986	27.31
785.162	25.33
785.339	26.56
785.515	26.45
785.692	25.56
785.868	24.12
786.044	24.3
786.221	23.46
786.397	21.61
786.573	19.96
786.749	17.02
786.926	19.72
787.102	19.29
787.278	20.31
787.454	22.47
787.631	24.54
787.807	24.45
787.983	26.45
788.159	26.14
788.335	25.46
788.511	29.69
788.687	33.3
788.863	34.42
789.039	33.59
789.216	31.85
789.392	28.74
789.568	26.51
789.744	26.06
789.919	26.48
790.095	28.07
790.271	29.75
790.447	26.98
790.623	27.28
790.799	22.33
790.975	23.43
791.151	23.61
791.327	24.67
791.502	27.47
791.678	29.27
791.854	28.53
792.03	30.12
792.205	29.3
792.381	30.96
792.557	28.69
792.733	31.08
792.908	28.85
793.084	29.05
793.259	29.84
793.435	24.93
793.611	26.47
793.786	25.62
793.962	22.39
794.137	22.88
794.313	22.08
794.488	21.74
794.664	20.76
794.839	23.31
795.015	25.05
795.19	25.51
795.366	26.46
795.541	24.53
795.716	23.67
795.892	26.9
796.067	28.03
796.242	27.16
796.418	27.62
796.593	27.71
796.768	26.57
796.944	25.93
797.119	24.1
797.294	24.47
797.469	25.24
797.644	28.68
797.82	26.84
797.995	27.24
798.17	26.85
798.345	28.32
798.52	30.26
798.695	30.8
798.87	29.03
799.045	28.79
799.22	32.94
799.395	32.59
799.57	31.63
799.745	32.8
799.92	31.02
800.095	31.11
800.27	28.75
800.445	29.62
800.62	30.88
800.795	34.55
800.97	38.26
801.145	35.14
801.319	36.8
801.494	32.19
801.669	33.65
801.844	31.62
802.018	34.17
802.193	33.88
802.368	29.04
802.543	26.68
802.717	24.48
802.892	20.84
803.067	23.75
803.241	18.71
803.416	23.68
803.59	20.6
803.765	24.25
803.94	25.98
804.114	28.26
804.289	31.03
804.463	33.78
804.638	35.12
804.812	37.86
804.986	36.87
805.161	39.95
805.335	38.66
805.51	39.81
805.684	39.01
805.858	38.19
806.033	37.95
806.207	37.99
806.381	36.2
806.556	33.97
806.73	32.9
806.904	32.48
807.078	31.71
807.253	33.43
807.427	34.14
807.601	32.21
807.775	32.45
807.949	33.84
808.123	34.4
808.298	34.47
808.472	33.52
808.646	35.08
808.82	37.28
808.994	37.4
809.168	36.42
809.342	33.8
809.516	35.28
809.69	33.26
809.864	31.34
810.038	30.48
810.212	29.53
810.385	33.23
810.559	31.51
810.733	31.84
810.907	30.74
811.081	28.19
811.255	23.31
811.428	24.54
811.602	21.53
811.776	22.24
811.95	22.63
812.123	29.01
812.297	29.71
812.471	30.04
812.644	23.19
812.818	25.02
812.992	30.2
813.165	36.07
813.339	33.55
813.512	36.23
813.686	38.02
813.86	37.43
814.033	30.45
814.207	26.72
814.38	34.81
814.554	39.68
814.727	39.6
814.9	37.89
815.074	41.11
815.247	43.54
815.421	40.88
815.594	38.6
815.767	44.95
815.941	43.22
816.114	45.88
816.287	36.38
816.46	37.35
816.634	37.47
816.807	35.08
816.98	29.24
817.153	30.59
817.327	32.79
817.5	30.93
817.673	24.28
817.846	30.21
818.019	26.36
818.192	24.84
818.365	26.83
818.538	26
818.711	24.37
818.884	25.55
819.057	27.01
819.23	26.76
819.403	32.85
819.576	35.05
819.749	35.27
819.922	34.88
820.095	39.03
820.268	35.36
820.441	30.63
820.614	32.14
820.786	31.19
820.959	30.87
821.132	31.39
821.305	29.1
821.477	27.93
821.65	29.32
821.823	30.6
821.996	29.9
822.168	30.07
822.341	31.58
822.514	31.06
822.686	30.5
822.859	30.97
823.031	30.34
823.204	30.29
823.376	30.7
823.549	29.24
823.722	28.89
823.894	28.46
824.067	28.87
824.239	28.98
824.411	29.22
824.584	30.45
824.756	28.84
824.929	29.94
825.101	29.57
825.273	29.23
825.446	30.67
825.618	31.23
825.79	31.31
825.963	30.3
826.135	30.32
826.307	29.95
826.479	29.54
826.652	30.98
826.824	29.32
826.996	31.15
827.168	30.71
827.34	29.29
827.512	28.35
827.684	29.97
827.856	30.76
828.029	31.51
828.201	30.27
828.373	31.09
828.545	31.63
828.717	32.66
828.889	31.78
829.061	32.23
829.232	32.77
829.404	33.66
829.576	31.25
829.748	32.85
829.92	30.19
830.092	31.49
830.264	31.43
830.436	29.91
830.607	31.17
830.779	28.99
830.951	31.08
831.123	30.93
831.294	30.26
831.466	32.78
831.638	30.21
831.809	33.95
831.981	31.58
832.153	31.49
832.324	31.9
832.496	29.96
832.667	30.11
832.839	29.79
833.011	31.93
833.182	32.9
833.354	32.74
833.525	36.09
833.697	34.73
833.868	37.42
834.039	38.16
834.211	38.41
834.382	37.44
834.554	38.65
834.725	38.91
834.896	38.33
835.068	38.53
835.239	37.25
835.41	33.74
835.581	36.92
835.753	37.12
835.924	37.02
836.095	37.55
836.266	41.99
836.438	41.17
836.609	41.29
836.78	41.99
836.951	39.07
837.122	40.31
837.293	43.91
837.464	40.52
837.635	43.32
837.806	40.62
837.977	37.59
838.148	38.18
838.319	43.35
838.49	42.5
838.661	40.34
838.832	47.15
839.003	49.62
839.174	45.76
839.345	44.26
839.516	42.09
839.687	42.88
839.857	44.48
840.028	36.78
840.199	38.59
840.37	39.3
840.54	43.28
840.711	40.4
840.882	41.48
841.053	45.05
841.223	47.74
841.394	43.24
841.564	43.68
841.735	49.41
841.906	50.9
842.076	46.44
842.247	46.47
842.417	43.36
842.588	43.28
842.758	41.64
842.929	43.5
843.099	39.16
843.27	43.39
843.44	39.05
843.611	32.43
843.781	30.62
843.951	26.23
844.122	22.13
844.292	21.9
844.462	25.97
844.633	18.78
844.803	7.19
844.973	18.12
845.144	20.51
845.314	32.67
845.484	34.36
845.654	39.33
845.824	35.74
845.995	28.43
846.165	23.58
846.335	16.85
846.505	19.63
846.675	20.41
846.845	9.67
847.015	2.02
847.185	1
847.355	-2.28
847.525	2.48
847.695	14.72
847.865	25.56
848.035	34.44
848.205	29.56
848.375	40.96
848.545	52.58
848.715	49.38
848.884	62.67
849.054	69.61
849.224	76.24
849.394	63.5
849.564	54.46
849.733	53.07
849.903	44.81
850.073	53.07
850.243	33.62
850.412	23.28
850.582	26.71
850.752	5.56
850.921	11.44
851.091	14.13
851.26	11.75
851.43	17.54
851.599	-2.86
851.769	-9.81
851.939	-0.3
852.108	25.72
852.278	12.67
852.447	18.81
852.616	11.38
852.786	-7.79
852.955	-2.59
853.125	0.57
853.294	19.47
853.463	36.82
853.633	26.27
853.802	25.2
853.971	-2.68
854.141	10.07
854.31	9.61
854.479	30.87
854.648	22.03
854.818	31.21
854.987	53.1
855.156	19.41
855.325	28.32
855.494	36.91
855.663	37.51
855.832	38.2
856.001	45.81
856.171	46.89
856.34	42.6
856.509	44.38
856.678	43
856.847	34.47
857.016	46.28
857.185	46.22
857.353	45.58
857.522	52.51
857.691	55.4
857.86	49.17
858.029	40.17
858.198	44.84
858.367	42.82
858.535	29.99
858.704	25.72
858.873	21.02
859.042	0.64
859.21	-4.41
859.379	-19.47
859.548	-46.29
859.717	-24.65
859.885	7.54
860.054	-5.81
860.222	5.01
860.391	17.73
860.56	23.76
860.728	26.31
860.897	36.32
861.065	40.23
861.234	31.32
861.402	38.83
861.571	39.01
861.739	23.26
861.908	28.6
862.076	35.29
862.244	33.32
862.413	36.52
862.581	42.62
862.749	32.03
862.918	31.12
863.086	41.61
863.254	47.58
863.423	47.66
863.591	61.42
863.759	81.85
863.927	56.76
864.096	54.68
864.264	55.28
864.432	50.63
864.6	55.45
864.768	66.5
864.936	57.43
865.104	57.61
865.272	62.82
865.44	4.47
865.608	-12.9
865.776	27.99
865.944	47.29
866.112	43.46
866.28	40.58
866.448	87.52
866.616	135.22
866.784	191.9
866.952	129.02
867.12	121.93
867.288	188.18
867.455	224.81
867.623	162.76
867.791	78.01
867.959	65.33
868.127	72.33
868.294	44.91
868.462	30.73
868.63	35.25
868.797	44.97
868.965	39.87
869.133	26.51
869.3	23.21
869.468	24.73
869.636	25.71
869.803	31.25
869.971	28.18
870.138	34.79
870.306	29.25
870.473	0.78
870.641	-50.41
870.808	-44.03
870.975	-24.26
871.143	14.85
871.31	12.05
871.478	-39.66
871.645	-31.12
871.812	-6.98
871.98	-7.4
872.147	-12.52
872.314	25.95
872.482	28.96
872.649	31.13
872.816	26.11
872.983	22.02
873.15	27.55
873.318	39.18
873.485	32.77
873.652	22.39
873.819	10.68
873.986	15.27
874.153	9.54
874.32	8.72
874.487	11.68
874.654	14.88
874.821	9.65
874.988	1.35
875.155	6.86
875.322	18.91
875.489	25.78
875.656	21.05
875.823	12.86
875.99	27.13
876.157	23.6
876.324	32.59
876.49	42.21
876.657	41.73
876.824	54.83
876.991	54.69
877.157	50.39
877.324	56.97
877.491	64.35
877.658	83.19
877.824	61.47
877.991	67.74
878.157	56.18
878.324	64.31
878.491	71.23
878.657	72.19
878.824	71.04
878.99	77.14
879.157	67.75
879.323	71.55
879.49	63.49
879.656	76.72
879.823	70.14
879.989	70.23
880.156	57.24
880.322	64.4
880.488	61.54
880.655	72.34
880.821	54.36
880.987	56.25
881.154	47.62
881.32	44.24
881.486	40.54
881.652	35.49
881.819	31.63
881.985	34.44
882.151	25.83
882.317	28.5
882.483	26.95
882.649	32.24
882.816	30.66
882.982	30.15
883.148	33.24
883.314	32.54
883.48	33.21
883.646	33.87
883.812	34.25
883.978	34.53
884.144	31.16
884.31	31.64
884.476	29.77
884.642	28.3
884.807	26.78
884.973	24.46
885.139	25.88
885.305	25.17
885.471	25.24
885.637	22.96
885.802	22.38
885.968	26.41
886.134	21.84
886.3	20.84
886.465	23.06
886.631	23.69
886.797	31.86
886.962	32.34
887.128	42.26
887.293	43.03
887.459	37.99
887.625	47.14
887.79	41.64
887.956	46.17
888.121	46.75
888.287	47.42
888.452	55.29
888.618	41.52
888.783	35.47
