Data from 2937836_Reflection_2.txt Node
Date: Wed Jul 15 16:30:27 EDT 2015
User: robert
Spectrometer: USB4E03001
Autoset integration time: false
Trigger mode: 4
Integration Time (sec): 1.000000E-1
Scans to average: 10
Electric dark correction enabled: true
Nonlinearity correction enabled: false
Boxcar width: 5
Stray light correction enabled: false
XAxis mode: Wavelengths
Stop averaging: false
Number of Pixels in Spectrum: 3648
>>>>>Begin Spectral Data<<<<<
177.566	283.44
177.785	450.89
178.005	-364.31
178.225	1.25
178.445	38.97
178.665	-29.21
178.885	108.7
179.105	183.99
179.324	128.47
179.544	129.56
179.764	116.35
179.984	124.93
180.204	-54.6
180.423	19.6
180.643	135.08
180.863	123.14
181.083	150.48
181.302	-312.82
181.522	-194.31
181.742	46.73
181.961	35.39
182.181	47.52
182.401	33.71
182.621	-682.62
182.84	-30.73
183.06	-34.97
183.279	-19.33
183.499	-39.74
183.719	-15.36
183.938	-20.6
184.158	-53.15
184.377	-25.52
184.597	-42.57
184.816	-14.99
185.036	-20.09
185.256	-35.51
185.475	-36.58
185.695	-16.34
185.914	18.41
186.134	45.25
186.353	63.56
186.572	58.75
186.792	52.45
187.011	65.35
187.231	68.4
187.45	76.06
187.67	71.12
187.889	52.55
188.108	56.73
188.328	59.63
188.547	44.32
188.766	33.41
188.986	48.82
189.205	30
189.424	33.93
189.644	27.8
189.863	33.34
190.082	23.33
190.302	23.1
190.521	32.33
190.74	2.59
190.959	22.55
191.178	3.95
191.398	-198.42
191.617	-90.26
191.836	-101.91
192.055	-117.62
192.274	-198.25
192.494	-125.44
192.713	-110.92
192.932	-293.48
193.151	-39.96
193.37	-22.34
193.589	23.46
193.808	8.77
194.027	27.3
194.246	33.39
194.465	26.06
194.685	30.75
194.904	41.34
195.123	43.99
195.342	42.6
195.561	43.94
195.78	21.68
195.999	-20.7
196.218	101.9
196.436	171.21
196.655	79.51
196.874	133.62
197.093	-1273.85
197.312	-73.74
197.531	261.22
197.75	266.59
197.969	252.68
198.188	98.59
198.407	74.41
198.625	-64.58
198.844	-32.11
199.063	-16.62
199.282	1.05
199.501	8.57
199.719	12.68
199.938	0.39
200.157	39.03
200.376	32.39
200.594	30.85
200.813	31.39
201.032	42.83
201.251	45.35
201.469	48.33
201.688	42.5
201.907	53.84
202.125	57.74
202.344	67.77
202.563	60.6
202.781	64.34
203	54.5
203.218	63.82
203.437	62.26
203.656	60.53
203.874	67.83
204.093	74.49
204.311	66.12
204.53	60.49
204.748	63.66
204.967	57.5
205.185	64.17
205.404	63.1
205.622	59.74
205.841	62.85
206.059	68.75
206.278	59.79
206.496	63.1
206.715	74.76
206.933	104.21
207.151	-92.31
207.37	2282.69
207.588	315.51
207.806	2.54
208.025	-145.77
208.243	-194.47
208.461	-163.92
208.68	-119.9
208.898	-133.99
209.116	-26.71
209.335	13.84
209.553	52.34
209.771	-16.02
209.989	62.33
210.208	46.67
210.426	40.47
210.644	20.79
210.862	35.69
211.081	35.33
211.299	18.14
211.517	-0.04
211.735	6.77
211.953	34.06
212.171	32.56
212.39	28.71
212.608	30.75
212.826	37.32
213.044	51.58
213.262	30.63
213.48	32.26
213.698	34.77
213.916	53.86
214.134	52.47
214.352	32.18
214.57	39.03
214.788	25.24
215.006	29.91
215.224	42.66
215.442	37.09
215.66	55.1
215.878	60.44
216.096	52
216.314	37.1
216.532	37.83
216.75	49.31
216.968	52.01
217.185	44.09
217.403	28.41
217.621	25.03
217.839	-21.57
218.057	-10.84
218.275	-16.63
218.492	37.23
218.71	36.34
218.928	16.74
219.146	8.6
219.363	11.94
219.581	44.21
219.799	60.1
220.017	91.53
220.234	98.02
220.452	107.9
220.67	103.34
220.887	116.17
221.105	116.61
221.323	111.4
221.54	112.43
221.758	101.79
221.976	105.57
222.193	72.02
222.411	28.24
222.629	38.42
222.846	18.22
223.064	8.95
223.281	-5.83
223.499	-5.47
223.716	13.13
223.934	-29.73
224.151	-38.26
224.369	-22.97
224.586	-20.92
224.804	5.23
225.021	1.23
225.239	12.76
225.456	-0.39
225.674	-1.93
225.891	11.14
226.108	8.25
226.326	16.74
226.543	23.12
226.76	21.95
226.978	27.05
227.195	21.52
227.413	22.94
227.63	17.95
227.847	19.88
228.064	15.85
228.282	16.11
228.499	15.15
228.716	15.68
228.934	18.83
229.151	19.49
229.368	18.94
229.585	17.81
229.802	14.72
230.02	16.31
230.237	15.18
230.454	19.67
230.671	19.94
230.888	18.38
231.105	19.13
231.323	13.51
231.54	8.22
231.757	8.62
231.974	8.5
232.191	9.29
232.408	8.92
232.625	12.85
232.842	3.19
233.059	-10.47
233.276	2.61
233.493	2.71
233.71	7.32
233.927	16.73
234.144	12.49
234.361	14.11
234.578	11.74
234.795	10.35
235.012	5.29
235.229	5.8
235.446	9.47
235.663	2.98
235.879	3.21
236.096	4.4
236.313	4.57
236.53	9.43
236.747	12.75
236.964	18.45
237.181	15.19
237.397	19.49
237.614	18.83
237.831	22.07
238.048	21.87
238.264	20.01
238.481	19.09
238.698	16.89
238.915	13.88
239.131	14.06
239.348	9.22
239.565	10.18
239.781	11.61
239.998	14.34
240.215	15
240.431	18.58
240.648	20.85
240.865	22.5
241.081	23.69
241.298	23.85
241.514	22.82
241.731	24.58
241.947	26.65
242.164	24.31
242.38	24.8
242.597	24.79
242.814	25.31
243.03	23.03
243.246	22
243.463	21.72
243.679	21.84
243.896	22.02
244.112	22.67
244.329	21.21
244.545	22.88
244.762	22.15
244.978	20.99
245.194	18.51
245.411	18.68
245.627	18.43
245.843	17.06
246.06	15.84
246.276	16.25
246.492	15.3
246.709	16.09
246.925	14.71
247.141	15.01
247.357	14.47
247.574	14.95
247.79	15.3
248.006	15.2
248.222	14.48
248.439	14.97
248.655	14.41
248.871	13.37
249.087	13.5
249.303	14.8
249.519	14.36
249.736	15.78
249.952	14.91
250.168	13.09
250.384	12.53
250.6	12.93
250.816	12.55
251.032	12.29
251.248	13.65
251.464	12.14
251.68	11.69
251.896	12.56
252.112	13.78
252.328	15.11
252.544	17.14
252.76	15.35
252.976	16.22
253.192	15.55
253.408	16.11
253.624	18.69
253.84	19.09
254.056	16.9
254.272	16.34
254.487	14.94
254.703	13.15
254.919	13.29
255.135	19.18
255.351	17.67
255.567	19.69
255.782	20.7
255.998	16.26
256.214	14.78
256.43	20.32
256.646	19.7
256.861	15.84
257.077	18.15
257.293	17.2
257.508	12.92
257.724	13.45
257.94	13.37
258.155	11.64
258.371	12.42
258.587	13.12
258.802	11.79
259.018	12.56
259.234	14.61
259.449	12.46
259.665	12.43
259.88	12.29
260.096	12.1
260.312	12.53
260.527	12.44
260.743	11.55
260.958	11.5
261.174	11.06
261.389	10.88
261.605	10.22
261.82	11.05
262.036	11.05
262.251	12.01
262.466	11.88
262.682	10.2
262.897	9.76
263.113	10.35
263.328	10.46
263.543	11.14
263.759	11.24
263.974	11.75
264.189	10.09
264.405	9.79
264.62	10.86
264.835	12.79
265.051	13.84
265.266	15.6
265.481	17.19
265.696	17.06
265.912	18.45
266.127	18
266.342	15.77
266.557	17.38
266.773	16.9
266.988	16.88
267.203	15.71
267.418	15.5
267.633	15.01
267.848	14.68
268.064	15.23
268.279	15.39
268.494	14.08
268.709	14.92
268.924	13.61
269.139	13.09
269.354	10.6
269.569	9.47
269.784	8.23
269.999	8.33
270.214	8.38
270.429	8.05
270.644	7.42
270.859	8.92
271.074	8.61
271.289	10.7
271.504	13.13
271.719	14.79
271.934	15.49
272.149	15.15
272.363	15.24
272.578	16.34
272.793	17.15
273.008	16.76
273.223	16.89
273.438	17.51
273.653	16.44
273.867	14.3
274.082	12.41
274.297	12.14
274.512	13.7
274.726	13.66
274.941	13.58
275.156	11.33
275.371	11.1
275.585	10.14
275.8	9.44
276.015	11.36
276.229	11.41
276.444	13.32
276.659	13.31
276.873	12.64
277.088	12.9
277.302	10.26
277.517	11.01
277.732	10.38
277.946	8.66
278.161	10.07
278.375	7.44
278.59	7.34
278.804	6.82
279.019	7.74
279.233	7.66
279.448	7.03
279.662	8.56
279.877	9.81
280.091	10.66
280.306	12.86
280.52	12.9
280.735	13.5
280.949	14.95
281.163	14.93
281.378	15.27
281.592	16.46
281.806	14.98
282.021	14.04
282.235	13.76
282.449	14.86
282.664	13.83
282.878	14.09
283.092	14.32
283.307	15.5
283.521	15.68
283.735	16.09
283.949	14.93
284.164	16.54
284.378	16.22
284.592	15.07
284.806	14.6
285.02	14.18
285.234	13.42
285.449	13.06
285.663	11.54
285.877	12.92
286.091	11.85
286.305	11.93
286.519	11.4
286.733	11.83
286.947	12.07
287.161	11.09
287.375	11.82
287.589	12.56
287.803	12.49
288.017	11.96
288.231	10.28
288.445	10.86
288.659	12.53
288.873	12.41
289.087	12.74
289.301	12.97
289.515	12.94
289.729	13.28
289.943	11.65
290.157	12.34
290.371	13.28
290.584	13.69
290.798	12.93
291.012	10.7
291.226	10.79
291.44	10.4
291.654	9.35
291.867	9.81
292.081	10.29
292.295	10.96
292.509	10.38
292.722	10.82
292.936	10.04
293.15	11.18
293.364	13.2
293.577	13.71
293.791	15.55
294.005	17.64
294.218	17.35
294.432	17.55
294.645	18.21
294.859	19.17
295.073	18.95
295.286	19.31
295.5	19.25
295.713	19.37
295.927	20.12
296.14	18.17
296.354	17.65
296.568	18.01
296.781	17.05
296.994	16.22
297.208	15.83
297.421	14.58
297.635	14.01
297.848	13.98
298.062	14.07
298.275	13.75
298.489	14.51
298.702	14.6
298.915	13.58
299.129	14.13
299.342	15.8
299.555	14.4
299.769	16.37
299.982	17.19
300.195	17.56
300.409	15.15
300.622	14.36
300.835	13.42
301.048	13.54
301.262	15.07
301.475	14.87
301.688	13.86
301.901	15.02
302.115	13.7
302.328	12.35
302.541	11.54
302.754	12.4
302.967	13.49
303.18	13.62
303.393	13.76
303.607	12.59
303.82	12.36
304.033	11.35
304.246	10.33
304.459	11.31
304.672	12.42
304.885	12.68
305.098	12.72
305.311	12.46
305.524	12.79
305.737	12.01
305.95	12.81
306.163	12.72
306.376	15.52
306.589	15.28
306.802	15.24
307.015	17.78
307.228	19.59
307.44	19.14
307.653	18.16
307.866	18.82
308.079	21.45
308.292	20.53
308.505	21.41
308.718	19.29
308.93	20.75
309.143	20.37
309.356	18.75
309.569	17.81
309.781	18.28
309.994	18.58
310.207	17.46
310.42	15.47
310.632	16.19
310.845	15.01
311.058	15.26
311.27	15.61
311.483	15.21
311.696	15.49
311.908	14.95
312.121	14.87
312.333	14.86
312.546	15.28
312.759	15.44
312.971	16.12
313.184	16.15
313.396	15.55
313.609	14.56
313.821	12.99
314.034	11.18
314.246	9.7
314.459	9.85
314.671	9.47
314.884	8.34
315.096	7.89
315.309	6.06
315.521	7.79
315.733	7.06
315.946	7.52
316.158	9.56
316.371	11.8
316.583	12.05
316.795	11.44
317.008	11.94
317.22	14.25
317.432	14.29
317.644	16.07
317.857	15.66
318.069	16.94
318.281	16.28
318.494	15.96
318.706	14.93
318.918	15.32
319.13	15.1
319.342	13.1
319.555	12.93
319.767	13.97
319.979	13.32
320.191	13.3
320.403	13.06
320.615	13.02
320.827	13.73
321.039	14.15
321.252	14.31
321.464	15.22
321.676	15.51
321.888	14.97
322.1	16.44
322.312	17.44
322.524	17.66
322.736	18.88
322.948	18.69
323.16	17.23
323.372	17.89
323.584	18.5
323.796	17.77
324.007	18.98
324.219	19.76
324.431	17.45
324.643	15.36
324.855	14.86
325.067	13.94
325.279	14.08
325.491	13.38
325.702	11.88
325.914	12.08
326.126	12.57
326.338	12.54
326.55	11.33
326.761	11.28
326.973	11.66
327.185	11.12
327.396	10.61
327.608	10.35
327.82	12.51
328.032	11.75
328.243	11.96
328.455	12.56
328.666	13.23
328.878	13.68
329.09	16.22
329.301	16.87
329.513	17.77
329.725	17.94
329.936	17.42
330.148	17.95
330.359	18.44
330.571	17.9
330.782	18.04
330.994	17.87
331.205	17.45
331.417	14.01
331.628	13.79
331.84	14.97
332.051	13.93
332.262	14.2
332.474	14.23
332.685	16.96
332.897	16.18
333.108	16.69
333.319	15.18
333.531	15.07
333.742	16.96
333.953	16.03
334.165	14.56
334.376	15.16
334.587	16.85
334.799	16.1
335.01	13.28
335.221	14.38
335.432	13.84
335.644	14.87
335.855	14.94
336.066	13.86
336.277	15.09
336.488	16.43
336.7	17.26
336.911	16.67
337.122	17.38
337.333	18.55
337.544	17.14
337.755	16.75
337.966	14.95
338.177	14.84
338.388	15.61
338.599	15.78
338.811	13.87
339.022	13.65
339.233	12.95
339.444	13.41
339.655	14.65
339.866	16.26
340.076	17.25
340.287	19.78
340.498	20.55
340.709	20.73
340.92	20.13
341.131	21.39
341.342	20.95
341.553	20.66
341.764	19.81
341.975	18.18
342.185	17.32
342.396	17.95
342.607	17.19
342.818	16.45
343.029	17.07
343.239	16.04
343.45	14.85
343.661	14.92
343.872	14.98
344.082	14.12
344.293	14.81
344.504	15.32
344.714	13.37
344.925	13.39
345.136	13.09
345.346	11.81
345.557	12.07
345.768	12.7
345.978	13.37
346.189	13.53
346.399	14.11
346.61	13.22
346.821	12.91
347.031	14.39
347.242	12.92
347.452	12.6
347.663	12.72
347.873	12.86
348.084	13.34
348.294	11.62
348.504	11.03
348.715	10.8
348.925	11.31
349.136	11.25
349.346	10.16
349.557	11.14
349.767	12.44
349.977	13.23
350.188	14.29
350.398	14.43
350.608	16.31
350.819	17.56
351.029	18.36
351.239	17.75
351.449	17.1
351.66	16.61
351.87	15.73
352.08	15.04
352.29	14.61
352.501	14.74
352.711	14.01
352.921	12.85
353.131	12.12
353.341	12.04
353.552	12.92
353.762	14.3
353.972	15.21
354.182	17.15
354.392	18.42
354.602	17.93
354.812	16.5
355.022	17.05
355.232	16.8
355.442	17.29
355.652	16.85
355.862	15.49
356.072	15.06
356.282	15.14
356.492	13.92
356.702	12.23
356.912	12.62
357.122	13.71
357.332	12.99
357.542	13.46
357.752	13.38
357.962	13.3
358.171	14.06
358.381	13.81
358.591	14.15
358.801	14.88
359.011	15.1
359.221	14.42
359.43	14.26
359.64	14.37
359.85	13.09
360.06	13.72
360.269	12.94
360.479	12.43
360.689	12.42
360.899	12.1
361.108	12.3
361.318	13.13
361.528	13.71
361.737	14.27
361.947	14.05
362.156	15.66
362.366	15.33
362.576	15.61
362.785	16.01
362.995	16.59
363.204	16.39
363.414	16.19
363.623	15.17
363.833	15.17
364.042	14.29
364.252	14.94
364.461	13.48
364.671	13.77
364.88	14.08
365.09	14.84
365.299	14.45
365.509	14.59
365.718	14.51
365.927	15.65
366.137	14.48
366.346	14.39
366.555	13.61
366.765	14.75
366.974	14.2
367.183	13.82
367.393	12.41
367.602	11.35
367.811	11.33
368.021	11.7
368.23	10.88
368.439	11.25
368.648	11.71
368.857	12.53
369.067	11.11
369.276	10.28
369.485	10.53
369.694	10.8
369.903	11.66
370.112	11.5
370.321	11.2
370.531	11.43
370.74	11.4
370.949	11.74
371.158	11.46
371.367	12.64
371.576	13.57
371.785	14.06
371.994	14.44
372.203	14.14
372.412	14.02
372.621	13.29
372.83	13.58
373.039	14.23
373.248	12.99
373.457	12.77
373.666	12.56
373.874	12.33
374.083	12.61
374.292	11.87
374.501	12.18
374.71	12.01
374.919	12.58
375.128	12.25
375.336	12.35
375.545	12.48
375.754	12.35
375.963	11.47
376.171	11.47
376.38	10.82
376.589	11.08
376.798	11.08
377.006	11.58
377.215	10.79
377.424	10.55
377.632	10.21
377.841	10.55
378.05	10.97
378.258	11.31
378.467	11.44
378.675	11.25
378.884	11.14
379.093	10.95
379.301	10.89
379.51	11.17
379.718	11.32
379.927	11.79
380.135	11.71
380.344	10.75
380.552	11.43
380.761	10.95
380.969	10.55
381.177	10.93
381.386	10.76
381.594	9.84
381.803	10.47
382.011	10.74
382.219	10.46
382.428	10.28
382.636	10.81
382.845	10.23
383.053	10.03
383.261	10.44
383.469	10.29
383.678	10.11
383.886	10.59
384.094	10.15
384.302	9.62
384.511	10
384.719	10.36
384.927	10.61
385.135	10.32
385.343	10.37
385.552	10.21
385.76	10.11
385.968	9.76
386.176	9.83
386.384	9.66
386.592	10.03
386.8	9.46
387.008	9.23
387.216	8.98
387.424	9.34
387.633	9.47
387.841	9.38
388.049	9.14
388.257	9.64
388.465	9.15
388.672	9.34
388.88	9.11
389.088	8.94
389.296	8.6
389.504	8.13
389.712	7.05
389.92	6.62
390.128	6.6
390.336	6.84
390.544	6.64
390.751	6.4
390.959	5.99
391.167	5.83
391.375	5.73
391.583	5.92
391.79	6.27
391.998	7.01
392.206	6.83
392.414	6.82
392.621	6.81
392.829	6.88
393.037	7.2
393.244	7.45
393.452	7.41
393.66	7.43
393.867	7.47
394.075	7.43
394.283	7.31
394.49	7.93
394.698	7.76
394.905	7.56
395.113	7.51
395.32	7.41
395.528	7.36
395.735	7.54
395.943	7.39
396.15	7.19
396.358	7.19
396.565	7.27
396.773	6.92
396.98	7.81
397.188	7.37
397.395	7.38
397.602	7.27
397.81	7.33
398.017	6.98
398.225	7.18
398.432	7.41
398.639	7.8
398.847	7.37
399.054	7.51
399.261	6.42
399.468	7.02
399.676	6.77
399.883	7.04
400.09	7.09
400.297	6.78
400.505	6.9
400.712	7.05
400.919	6.37
401.126	6.37
401.333	6.11
401.54	6.54
401.748	6.59
401.955	6.7
402.162	6.48
402.369	6.54
402.576	6.89
402.783	6.63
402.99	6.41
403.197	6.59
403.404	6.99
403.611	6.95
403.818	6.77
404.025	6.57
404.232	6.73
404.439	6.65
404.646	6.73
404.853	6.85
405.06	6.93
405.267	7.04
405.474	7.3
405.681	7.02
405.887	7.23
406.094	7.37
406.301	7.14
406.508	7.25
406.715	7.55
406.922	7.13
407.128	7.29
407.335	7.01
407.542	6.6
407.749	6.25
407.955	6.43
408.162	6.42
408.369	6.74
408.575	7.26
408.782	6.86
408.989	6.51
409.195	6.6
409.402	6.65
409.609	6.85
409.815	7.02
410.022	7.15
410.228	6.88
410.435	6.81
410.642	6.4
410.848	6.08
411.055	6.51
411.261	6.6
411.468	6.29
411.674	6.25
411.881	6.39
412.087	6.51
412.294	6.44
412.5	6.76
412.706	6.58
412.913	6.75
413.119	6.82
413.326	6.41
413.532	6.59
413.738	6.69
413.945	6.44
414.151	6.31
414.357	6.28
414.564	6.17
414.77	5.79
414.976	5.9
415.182	5.55
415.389	5.8
415.595	5.72
415.801	5.83
416.007	6.01
416.214	5.91
416.42	5.94
416.626	5.85
416.832	5.84
417.038	6.08
417.244	5.99
417.45	6.14
417.657	5.92
417.863	6.1
418.069	5.94
418.275	5.88
418.481	6.09
418.687	6.19
418.893	6.1
419.099	6.12
419.305	6.1
419.511	6.12
419.717	6.03
419.923	6.21
420.129	6.28
420.335	6.23
420.541	6.43
420.746	6.47
420.952	6.48
421.158	6.56
421.364	6.59
421.57	6.64
421.776	6.74
421.982	6.85
422.187	6.69
422.393	6.64
422.599	6.71
422.805	6.59
423.01	6.42
423.216	6.37
423.422	6.3
423.628	6.26
423.833	6.13
424.039	5.95
424.245	6.01
424.45	6.12
424.656	6.1
424.862	6.12
425.067	5.98
425.273	6.04
425.478	6.22
425.684	6.25
425.889	6.16
426.095	6.22
426.301	6.37
426.506	6.16
426.712	6.05
426.917	6.02
427.123	6.01
427.328	6.2
427.533	6.26
427.739	5.91
427.944	6.03
428.15	6.3
428.355	6.28
428.561	6.52
428.766	6.61
428.971	6.45
429.177	6.38
429.382	6.3
429.587	6.2
429.793	6.17
429.998	6.14
430.203	5.94
430.408	5.71
430.614	5.51
430.819	5.16
431.024	5.11
431.229	5.26
431.434	5.41
431.64	5.36
431.845	5.33
432.05	5.31
432.255	5.37
432.46	5.51
432.665	5.66
432.87	5.78
433.076	5.75
433.281	5.96
433.486	6.07
433.691	5.92
433.896	6.17
434.101	6.19
434.306	6.19
434.511	6.2
434.716	6.33
434.921	6.29
435.126	6.35
435.331	6.57
435.535	6.24
435.74	6.33
435.945	6.45
436.15	6.11
436.355	6.07
436.56	6
436.765	6.06
436.97	5.97
437.174	6.04
437.379	5.94
437.584	5.79
437.789	5.98
437.993	5.67
438.198	5.57
438.403	5.67
438.608	5.79
438.812	5.73
439.017	5.66
439.222	5.46
439.426	5.37
439.631	5.3
439.836	5.38
440.04	5.47
440.245	5.48
440.45	5.51
440.654	5.46
440.859	5.5
441.063	5.58
441.268	5.49
441.472	5.67
441.677	5.61
441.881	5.66
442.086	5.51
442.29	5.29
442.495	5.35
442.699	5.27
442.904	5.28
443.108	5.1
443.312	5.09
443.517	5.25
443.721	5.14
443.925	5.15
444.13	5.34
444.334	5.45
444.538	5.59
444.743	5.65
444.947	5.88
445.151	5.81
445.356	5.95
445.56	5.88
445.764	5.81
445.968	5.88
446.173	5.85
446.377	5.84
446.581	5.89
446.785	5.87
446.989	5.88
447.193	5.67
447.398	5.62
447.602	5.48
447.806	5.46
448.01	5.58
448.214	5.4
448.418	5.32
448.622	5.39
448.826	5.18
449.03	5.12
449.234	5.02
449.438	4.97
449.642	5.12
449.846	5.09
450.05	5.27
450.254	5.28
450.458	5.32
450.662	5.27
450.866	5.14
451.069	5.08
451.273	4.94
451.477	4.98
451.681	5.07
451.885	5.3
452.089	5.46
452.292	5.33
452.496	5.07
452.7	5.14
452.904	5.33
453.107	5.32
453.311	5.5
453.515	5.59
453.719	5.47
453.922	5.31
454.126	5.1
454.33	5.01
454.533	5.2
454.737	5.31
454.94	5.3
455.144	5.22
455.348	5
455.551	5.05
455.755	5.14
455.958	5.29
456.162	5.42
456.365	5.4
456.569	5.49
456.772	5.28
456.976	5.28
457.179	5.18
457.383	5.21
457.586	5.29
457.79	5.18
457.993	5.13
458.196	5.23
458.4	5.21
458.603	5.11
458.807	5.15
459.01	5.07
459.213	5.12
459.417	5.19
459.62	5.21
459.823	5.27
460.026	5.27
460.23	5.21
460.433	4.97
460.636	5.08
460.839	5.21
461.042	5.17
461.246	5.26
461.449	5.14
461.652	5.23
461.855	5.33
462.058	5.19
462.261	5.17
462.464	5.21
462.668	5.39
462.871	5.36
463.074	5.31
463.277	5.37
463.48	5.28
463.683	5.32
463.886	5.19
464.089	5.16
464.292	5.12
464.495	5.26
464.698	5.38
464.901	5.45
465.104	5.45
465.306	5.28
465.509	5.16
465.712	5.24
465.915	5.25
466.118	5.2
466.321	4.96
466.524	5.01
466.726	4.88
466.929	4.98
467.132	4.84
467.335	4.86
467.538	4.94
467.74	4.98
467.943	4.97
468.146	4.9
468.348	5.18
468.551	5.29
468.754	5.39
468.956	5.57
469.159	5.4
469.362	5.4
469.564	5.53
469.767	5.75
469.969	5.57
470.172	5.58
470.375	5.53
470.577	5.29
470.78	5.43
470.982	5.63
471.185	5.58
471.387	5.47
471.59	5.58
471.792	5.43
471.995	5.22
472.197	5.49
472.399	5.41
472.602	5.59
472.804	5.64
473.007	5.64
473.209	5.36
473.411	5.21
473.614	5.31
473.816	5.34
474.018	5.37
474.22	5.4
474.423	5.32
474.625	5.53
474.827	5.53
475.03	5.42
475.232	5.34
475.434	5.43
475.636	5.3
475.838	5.35
476.04	5.19
476.243	5.38
476.445	5.39
476.647	5.37
476.849	5.38
477.051	5.48
477.253	5.55
477.455	5.53
477.657	5.58
477.859	5.76
478.061	5.82
478.263	6.02
478.465	5.7
478.667	5.76
478.869	5.68
479.071	5.51
479.273	5.33
479.475	5.39
479.677	5.49
479.879	5.68
480.081	5.67
480.283	5.44
480.485	5.3
480.686	5.43
480.888	5.47
481.09	5.49
481.292	5.37
481.494	5.38
481.695	5.25
481.897	5.12
482.099	4.96
482.301	5.04
482.502	5.01
482.704	5.04
482.906	5.13
483.107	5.06
483.309	5.07
483.511	5.11
483.712	5.08
483.914	5.12
484.115	5.15
484.317	5.13
484.519	5.09
484.72	5.16
484.922	5.15
485.123	5.12
485.325	5.1
485.526	5.14
485.728	5.18
485.929	5.18
486.131	5.14
486.332	5.11
486.534	5.11
486.735	5.12
486.936	5.13
487.138	5.14
487.339	5.03
487.541	5.03
487.742	5
487.943	4.95
488.144	5
488.346	5.04
488.547	5.03
488.748	5.02
488.95	5.05
489.151	4.95
489.352	4.93
489.553	4.97
489.755	5.02
489.956	5.1
490.157	5.24
490.358	5.24
490.559	5.27
490.76	5.32
490.961	5.34
491.163	5.33
491.364	5.41
491.565	5.43
491.766	5.37
491.967	5.4
492.168	5.31
492.369	5.19
492.57	5.22
492.771	5.2
492.972	5.23
493.173	5.29
493.374	5.33
493.575	5.29
493.776	5.36
493.976	5.44
494.177	5.5
494.378	5.61
494.579	5.61
494.78	5.5
494.981	5.45
495.182	5.44
495.382	5.37
495.583	5.38
495.784	5.45
495.985	5.36
496.185	5.39
496.386	5.3
496.587	5.35
496.788	5.39
496.988	5.41
497.189	5.44
497.39	5.36
497.59	5.32
497.791	5.16
497.992	5.06
498.192	4.87
498.393	4.83
498.593	4.69
498.794	4.6
498.994	4.8
499.195	4.78
499.395	4.85
499.596	4.81
499.796	4.76
499.997	4.79
500.197	4.86
500.398	5.1
500.598	5.26
500.799	5.5
500.999	5.42
501.199	5.26
501.4	5.46
501.6	5.46
501.801	5.58
502.001	5.71
502.201	5.94
502.402	5.86
502.602	5.82
502.802	5.73
503.002	5.65
503.203	5.81
503.403	5.77
503.603	5.65
503.803	5.8
504.003	5.72
504.204	5.83
504.404	5.59
504.604	5.87
504.804	5.86
505.004	5.9
505.204	6.07
505.404	5.94
505.604	5.87
505.804	5.92
506.005	5.57
506.205	5.45
506.405	5.46
506.605	5.68
506.805	5.69
507.005	5.73
507.204	5.7
507.404	5.45
507.604	5.45
507.804	5.52
508.004	5.53
508.204	5.81
508.404	5.76
508.604	5.68
508.804	5.48
509.003	5.42
509.203	5.47
509.403	5.45
509.603	5.52
509.803	5.47
510.002	5.51
510.202	5.49
510.402	5.48
510.602	5.64
510.801	5.74
511.001	5.83
511.201	5.7
511.4	5.68
511.6	5.74
511.8	5.63
511.999	5.76
512.199	5.86
512.398	5.81
512.598	5.76
512.797	5.74
512.997	5.83
513.197	5.92
513.396	6.14
513.596	6.17
513.795	6.21
513.994	6.41
514.194	6.35
514.393	6.28
514.593	6.41
514.792	6.57
514.992	6.61
515.191	6.6
515.39	6.65
515.59	6.6
515.789	6.7
515.988	6.75
516.188	6.88
516.387	6.93
516.586	6.9
516.786	6.88
516.985	6.71
517.184	6.77
517.383	6.65
517.582	6.64
517.782	6.58
517.981	6.53
518.18	6.6
518.379	6.53
518.578	6.61
518.777	6.61
518.976	6.58
519.176	6.62
519.375	6.68
519.574	6.64
519.773	6.63
519.972	6.6
520.171	6.6
520.37	6.47
520.569	6.57
520.768	6.58
520.967	6.73
521.166	6.84
521.365	6.85
521.564	6.6
521.762	6.78
521.961	6.83
522.16	7.06
522.359	7.06
522.558	7.22
522.757	7.06
522.956	6.85
523.154	6.85
523.353	6.86
523.552	6.88
523.751	7.1
523.949	7.09
524.148	7.09
524.347	6.99
524.546	6.9
524.744	6.94
524.943	6.96
525.142	7.16
525.34	7.07
525.539	7.19
525.737	7.19
525.936	7.16
526.135	7.16
526.333	7.24
526.532	7.2
526.73	7.36
526.929	7.33
527.127	7.33
527.326	7.27
527.524	7.34
527.723	7.28
527.921	7.42
528.12	7.45
528.318	7.41
528.516	7.37
528.715	7.4
528.913	7.38
529.112	7.46
529.31	7.55
529.508	7.62
529.707	7.64
529.905	7.66
530.103	7.62
530.301	7.72
530.5	7.81
530.698	7.89
530.896	7.91
531.094	7.96
531.293	7.92
531.491	7.83
531.689	7.89
531.887	7.87
532.085	7.97
532.283	7.97
532.481	7.94
532.68	8.03
532.878	8.15
533.076	8.16
533.274	8.19
533.472	8.17
533.67	8.28
533.868	8.3
534.066	8.34
534.264	8.29
534.462	8.43
534.66	8.47
534.858	8.49
535.056	8.3
535.253	8.41
535.451	8.4
535.649	8.37
535.847	8.42
536.045	8.39
536.243	8.44
536.441	8.41
536.638	8.37
536.836	8.43
537.034	8.39
537.232	8.52
537.43	8.62
537.627	8.65
537.825	8.86
538.023	8.89
538.22	8.98
538.418	8.97
538.616	9.18
538.813	9.1
539.011	9.06
539.209	9.14
539.406	9.16
539.604	9.15
539.801	9.28
539.999	9.23
540.196	9.19
540.394	9.19
540.591	9.27
540.789	9.36
540.986	9.55
541.184	9.7
541.381	9.77
541.579	9.8
541.776	9.8
541.974	9.9
542.171	9.99
542.368	10.03
542.566	10.17
542.763	10.22
542.96	10.2
543.158	10.18
543.355	10.12
543.552	10.07
543.75	10.12
543.947	10.08
544.144	10.05
544.341	10.06
544.539	10.03
544.736	9.96
544.933	10.14
545.13	10.15
545.327	10.24
545.524	10.28
545.722	10.39
545.919	10.34
546.116	10.59
546.313	10.5
546.51	10.61
546.707	10.85
546.904	10.91
547.101	10.83
547.298	10.85
547.495	10.91
547.692	11.04
547.889	11.1
548.086	11.36
548.283	11.35
548.48	11.47
548.677	11.35
548.874	11.16
549.07	11.17
549.267	11.33
549.464	11.39
549.661	11.44
549.858	11.49
550.055	11.69
550.251	11.91
550.448	12.09
550.645	12.25
550.842	12.59
551.038	12.83
551.235	12.74
551.432	12.56
551.628	12.77
551.825	12.63
552.022	12.6
552.218	12.5
552.415	12.23
552.612	12.21
552.808	12.25
553.005	12.22
553.201	12.26
553.398	12.38
553.594	12.67
553.791	12.68
553.987	12.87
554.184	12.97
554.38	13
554.577	13.01
554.773	12.99
554.97	13.1
555.166	13.17
555.362	13.28
555.559	13.5
555.755	13.39
555.952	13.47
556.148	13.37
556.344	13.38
556.541	13.33
556.737	13.73
556.933	13.86
557.129	13.94
557.326	14
557.522	14.01
557.718	13.95
557.914	14.05
558.11	14.06
558.307	14.23
558.503	14.39
558.699	14.47
558.895	14.32
559.091	14.31
559.287	14.37
559.483	14.62
559.679	14.82
559.876	15.04
560.072	15.26
560.268	15.4
560.464	15.42
560.66	15.47
560.856	15.75
561.052	15.99
561.247	16.03
561.443	16.16
561.639	16.11
561.835	16.22
562.031	16.07
562.227	16.02
562.423	16.14
562.619	16.28
562.815	16.32
563.01	16.47
563.206	16.48
563.402	16.52
563.598	16.44
563.793	16.7
563.989	16.58
564.185	16.85
564.381	16.92
564.576	16.74
564.772	16.66
564.968	16.78
565.163	16.73
565.359	16.91
565.555	17.25
565.75	17.53
565.946	17.46
566.141	17.52
566.337	17.56
566.532	17.82
566.728	17.94
566.923	18.05
567.119	18.01
567.314	18.1
567.51	18.16
567.705	18.09
567.901	18.03
568.096	18.08
568.292	18.06
568.487	18.24
568.682	18.03
568.878	18.2
569.073	18.47
569.268	18.84
569.464	18.91
569.659	19.03
569.854	19.14
570.05	19.27
570.245	19.26
570.44	19.53
570.635	19.51
570.831	19.65
571.026	19.66
571.221	19.67
571.416	19.43
571.611	19.47
571.806	19.2
572.002	19.28
572.197	19.3
572.392	19.38
572.587	19.36
572.782	19.34
572.977	19.34
573.172	19.41
573.367	19.31
573.562	19.42
573.757	19.34
573.952	19.65
574.147	19.7
574.342	19.74
574.537	19.86
574.732	20.01
574.927	20.04
575.121	20.17
575.316	20.21
575.511	20.43
575.706	20.51
575.901	20.61
576.096	20.74
576.29	20.91
576.485	20.86
576.68	20.75
576.875	20.68
577.069	20.76
577.264	20.69
577.459	20.93
577.654	20.79
577.848	20.79
578.043	20.81
578.238	20.64
578.432	20.41
578.627	20.5
578.821	20.69
579.016	20.82
579.21	20.79
579.405	20.97
579.6	20.71
579.794	21.03
579.989	21.15
580.183	21.48
580.378	21.56
580.572	21.57
580.766	21.7
580.961	21.74
581.155	21.72
581.35	21.76
581.544	21.72
581.738	22.05
581.933	22.16
582.127	22.06
582.321	22.15
582.516	22.14
582.71	22.35
582.904	22.25
583.099	22.18
583.293	22.29
583.487	22.29
583.681	22.25
583.875	22.14
584.07	21.93
584.264	22.22
584.458	21.98
584.652	21.76
584.846	21.42
585.04	21.57
585.234	21.45
585.428	21.35
585.623	21.52
585.817	21.77
586.011	21.64
586.205	21.61
586.399	21.14
586.593	21
586.787	21.25
586.981	21.59
587.174	21.4
587.368	21.72
587.562	21.68
587.756	21.63
587.95	21.59
588.144	21.89
588.338	22.23
588.532	22.61
588.725	22.84
588.919	22.88
589.113	22.98
589.307	22.9
589.501	23.07
589.694	23.06
589.888	22.92
590.082	22.71
590.275	22.43
590.469	22.25
590.663	22.02
590.856	22.18
591.05	22.35
591.244	22.55
591.437	22.77
591.631	22.92
591.824	22.98
592.018	23.23
592.212	23.52
592.405	23.79
592.599	23.77
592.792	24.13
592.986	23.81
593.179	23.91
593.372	23.75
593.566	24.07
593.759	23.85
593.953	23.98
594.146	24.11
594.339	24.11
594.533	24.15
594.726	24.12
594.92	24.15
595.113	24.31
595.306	23.96
595.499	23.95
595.693	23.72
595.886	23.62
596.079	23.83
596.272	23.73
596.466	23.67
596.659	23.59
596.852	23.61
597.045	23.7
597.238	23.71
597.431	23.86
597.624	23.75
597.818	23.8
598.011	23.52
598.204	23.35
598.397	23.35
598.59	23.45
598.783	23.5
598.976	23.7
599.169	23.51
599.362	23.44
599.555	23.38
599.748	23.49
599.941	23.29
600.134	23.54
600.326	23.66
600.519	23.56
600.712	23.48
600.905	23.46
601.098	23.4
601.291	23.26
601.483	23.69
601.676	23.73
601.869	23.52
602.062	23.97
602.255	24.27
602.447	24.17
602.64	24.22
602.833	24.37
603.025	24.43
603.218	24.76
603.411	24.81
603.603	24.49
603.796	24.57
603.989	24.85
604.181	24.68
604.374	24.7
604.566	24.78
604.759	24.93
604.951	25.17
605.144	25.14
605.336	24.84
605.529	24.75
605.721	24.84
605.914	24.78
606.106	24.91
606.299	24.91
606.491	24.88
606.683	24.99
606.876	24.78
607.068	24.3
607.26	24.51
607.453	24.65
607.645	24.98
607.837	25.03
608.03	25.35
608.222	24.99
608.414	25.1
608.606	24.94
608.799	24.66
608.991	24.86
609.183	25.06
609.375	24.79
609.567	24.63
609.759	24.54
609.952	24.27
610.144	24.09
610.336	24.26
610.528	24.15
610.72	24.24
610.912	24.44
611.104	24.28
611.296	24.31
611.488	24.43
611.68	24.4
611.872	24.58
612.064	24.89
612.256	24.95
612.448	24.81
612.64	24.63
612.832	24.38
613.023	24.16
613.215	24.26
613.407	24.21
613.599	24.38
613.791	24.14
613.983	23.87
614.174	24.19
614.366	24.07
614.558	24.05
614.75	24.15
614.941	24.35
615.133	24.38
615.325	24.4
615.516	24.18
615.708	24.06
615.9	24.51
616.091	25
616.283	24.67
616.475	24.79
616.666	25.21
616.858	25.36
617.049	25.44
617.241	25.44
617.432	25.63
617.624	25.8
617.815	25.99
618.007	26.17
618.198	25.7
618.39	25.67
618.581	25.51
618.773	25.49
618.964	25.77
619.155	25.95
619.347	26.12
619.538	26.24
619.729	26.1
619.921	25.84
620.112	25.73
620.303	25.55
620.494	25.76
620.686	26.18
620.877	25.78
621.068	25.43
621.259	25.01
621.451	25.14
621.642	25.09
621.833	25.51
622.024	25.59
622.215	25.48
622.406	25.75
622.597	25.6
622.788	25.13
622.98	25.32
623.171	25.45
623.362	25.67
623.553	25.49
623.744	25.52
623.935	25.48
624.126	25.7
624.317	25.74
624.508	25.85
624.698	26
624.889	26.26
625.08	26.47
625.271	26.55
625.462	26.75
625.653	26.73
625.844	26.47
626.034	26.54
626.225	26.63
626.416	26.77
626.607	26.94
626.798	27.2
626.988	27.19
627.179	27.09
627.37	26.97
627.56	26.97
627.751	26.93
627.942	26.9
628.132	26.56
628.323	26.36
628.514	26.18
628.704	26.11
628.895	25.99
629.085	26.32
629.276	26.51
629.466	26.78
629.657	26.7
629.847	27.06
630.038	27.48
630.228	27.9
630.419	27.97
630.609	28.09
630.8	28.04
630.99	27.92
631.181	27.62
631.371	27.46
631.561	27.31
631.752	27.46
631.942	27.14
632.132	27.06
632.323	26.74
632.513	26.88
632.703	26.8
632.893	26.97
633.084	27.07
633.274	27.23
633.464	27.34
633.654	27.16
633.844	27.39
634.034	27.68
634.225	27.56
634.415	27.72
634.605	27.83
634.795	27.91
634.985	27.81
635.175	27.56
635.365	27.59
635.555	27.57
635.745	27.75
635.935	27.51
636.125	27.53
636.315	27.56
636.505	27.5
636.695	27.46
636.885	27.66
637.075	27.31
637.265	27.53
637.455	27.45
637.644	27.63
637.834	27.5
638.024	27.71
638.214	27.52
638.404	27.38
638.593	27.47
638.783	27.46
638.973	27.39
639.163	27.96
639.352	27.8
639.542	27.65
639.732	27.32
639.921	27.2
640.111	26.78
640.301	26.69
640.49	26.64
640.68	26.79
640.87	26.64
641.059	26.59
641.249	26.41
641.438	26.61
641.628	26.89
641.817	27.23
642.007	27.68
642.196	27.88
642.386	27.79
642.575	27.96
642.764	27.52
642.954	27.88
643.143	28.01
643.333	28.21
643.522	27.72
643.711	27.36
643.901	26.84
644.09	26.93
644.279	26.73
644.469	26.78
644.658	26.57
644.847	27.02
645.036	26.44
645.226	26.43
645.415	25.86
645.604	25.91
645.793	25.96
645.982	26.48
646.171	26.33
646.361	26.66
646.55	26.69
646.739	27.1
646.928	27.25
647.117	27.3
647.306	27.37
647.495	27.66
647.684	28.09
647.873	28.2
648.062	27.9
648.251	27.79
648.44	27.47
648.629	27.88
648.818	27.85
649.007	27.42
649.196	27.77
649.384	28.4
649.573	28.59
649.762	28.36
649.951	28.15
650.14	28.37
650.328	28.4
650.517	28.68
650.706	28.8
650.895	28.26
651.083	28.47
651.272	27.9
651.461	27.45
651.65	27.3
651.838	27.25
652.027	27.34
652.216	27.37
652.404	27.17
652.593	27.13
652.781	26.99
652.97	27.59
653.158	27.59
653.347	27.84
653.535	27.55
653.724	27.34
653.912	27.62
654.101	27.92
654.289	27.86
654.478	28.44
654.666	28.71
654.855	28.74
655.043	28.79
655.231	28.32
655.42	28.62
655.608	28.34
655.796	28.67
655.985	28.7
656.173	28.42
656.361	28.14
656.55	27.7
656.738	27.27
656.926	27.56
657.114	27.41
657.302	28.13
657.491	27.74
657.679	27.64
657.867	27.46
658.055	26.97
658.243	27.32
658.431	27.43
658.619	27.61
658.807	27.62
658.996	27.32
659.184	27.51
659.372	26.87
659.56	27.33
659.748	27.81
659.936	28.31
660.124	28.72
660.311	28.35
660.499	28.67
660.687	28.56
660.875	28.69
661.063	28.64
661.251	28.22
661.439	28.47
661.627	28.23
661.814	27.79
662.002	27.26
662.19	27.11
662.378	27.36
662.565	27.39
662.753	27.97
662.941	28.32
663.129	28.4
663.316	28.62
663.504	28.73
663.692	29.01
663.879	29.59
664.067	29.55
664.254	29.36
664.442	28.98
664.63	28.62
664.817	27.87
665.005	27.79
665.192	27.51
665.38	27.17
665.567	26.83
665.755	26.38
665.942	25.95
666.13	25.75
666.317	26.28
666.504	26.31
666.692	26.36
666.879	26.51
667.067	25.96
667.254	26.35
667.441	26.74
667.629	27.24
667.816	27.45
668.003	27.24
668.19	27.11
668.378	27.23
668.565	27.59
668.752	26.97
668.939	27.02
669.127	27.17
669.314	27.55
669.501	27.61
669.688	27.43
669.875	27.39
670.062	27.82
670.249	28.21
670.436	28.31
670.623	28.44
670.81	29.61
670.997	29.83
671.184	29.62
671.371	29.54
671.558	29.83
671.745	30.1
671.932	30.19
672.119	30.12
672.306	30.49
672.493	30.08
672.68	30.17
672.867	29.27
673.054	28.75
673.24	29.14
673.427	28.9
673.614	28.44
673.801	28.2
673.988	28.73
674.174	28.45
674.361	28.15
674.548	28.67
674.734	28.39
674.921	28.68
675.108	29.6
675.294	29.56
675.481	29.43
675.668	30.04
675.854	30
676.041	29.07
676.227	29.81
676.414	29.29
676.601	28.9
676.787	28.98
676.974	29.21
677.16	28.44
677.347	28.76
677.533	28.28
677.719	28.11
677.906	28.7
678.092	28.75
678.279	28.36
678.465	28.74
678.651	29.3
678.838	29.03
679.024	29.01
679.21	29.61
679.397	29.54
679.583	29.78
679.769	29.62
679.955	29.17
680.142	29.18
680.328	29.22
680.514	29.36
680.7	28.67
680.886	28.62
681.073	28.73
681.259	28.71
681.445	28.6
681.631	28.65
681.817	28.47
682.003	28.4
682.189	28.31
682.375	28.91
682.561	29.2
682.747	29.01
682.933	29.47
683.119	29.26
683.305	28.9
683.491	28.77
683.677	28.99
683.863	29.47
684.049	29.64
684.235	29.58
684.42	28.99
684.606	28.51
684.792	28.96
684.978	28.89
685.164	29
685.349	28.76
685.535	28.96
685.721	28.88
685.907	28.65
686.092	28.67
686.278	29.47
686.464	28.91
686.649	28.96
686.835	28.37
687.021	27.88
687.206	27.98
687.392	28.24
687.577	27.78
687.763	27.6
687.948	27.26
688.134	27.42
688.319	27.2
688.505	27.47
688.69	27.86
688.876	28.86
689.061	28.87
689.247	28.75
689.432	28.22
689.618	28.8
689.803	28.71
689.988	29.11
690.174	28.67
690.359	28.83
690.544	28.19
690.73	28.04
690.915	27.39
691.1	28.44
691.285	28.69
691.471	28.8
691.656	28.5
691.841	29.25
692.026	28.97
692.211	28.99
692.396	28.59
692.582	29.56
692.767	29.18
692.952	29.3
693.137	28.92
693.322	28.5
693.507	28.74
693.692	28.95
693.877	28.07
694.062	28.53
694.247	29.04
694.432	29.62
694.617	29.64
694.802	29.98
694.987	30.12
695.172	29.2
695.357	29.6
695.541	29.87
695.726	29.87
695.911	30.33
696.096	30.25
696.281	30.28
696.466	29.5
696.65	29.61
696.835	29.9
697.02	30.13
697.204	30.41
697.389	29.54
697.574	29.2
697.759	28.99
697.943	28.91
698.128	28.8
698.312	28.76
698.497	29.48
698.682	29.57
698.866	29.78
699.051	29.21
699.235	29.27
699.42	29.91
699.604	29.99
699.789	29.85
699.973	29.69
700.158	29.62
700.342	29.2
700.527	28.75
700.711	28.46
700.895	27.81
701.08	28.18
701.264	28.26
701.448	27.95
701.633	28.51
701.817	28.71
702.001	29.13
702.186	29.26
702.37	29.63
702.554	29.48
702.738	28.9
702.923	28.69
703.107	28.69
703.291	28.59
703.475	29.15
703.659	28.03
703.843	28.21
704.027	27.36
704.212	27.54
704.396	27.22
704.58	27.86
704.764	28.25
704.948	28.3
705.132	27.51
705.316	27.34
705.5	26.48
705.684	27.05
705.868	26.51
706.052	26.66
706.235	26.09
706.419	26.83
706.603	26.4
706.787	27.19
706.971	27.67
707.155	28.29
707.339	28.1
707.522	27.44
707.706	27.7
707.89	28.68
708.074	29.01
708.257	29.51
708.441	29.15
708.625	28.55
708.808	28.45
708.992	27.74
709.176	27.7
709.359	28.54
709.543	29.43
709.727	29.37
709.91	28.55
710.094	28.62
710.277	28.59
710.461	29.07
710.644	29.38
710.828	29.05
711.011	29.31
711.195	30.34
711.378	29.52
711.562	29.63
711.745	29.49
711.928	29.48
712.112	29.06
712.295	28.8
712.478	28.48
712.662	28.86
712.845	28.69
713.028	29.1
713.212	29
713.395	29.01
713.578	28.27
713.761	28.58
713.945	28.98
714.128	29.66
714.311	29.12
714.494	29.34
714.677	28.93
714.86	28.98
715.043	28.73
715.227	27.78
715.41	27.85
715.593	28.38
715.776	28.15
715.959	28.26
716.142	28.35
716.325	28.99
716.508	29.14
716.691	30.04
716.874	30.29
717.057	31.32
717.239	31.89
717.422	32.37
717.605	33.25
717.788	33.54
717.971	33.94
718.154	34.44
718.337	34.98
718.519	34.44
718.702	33.67
718.885	33.76
719.068	32.56
719.25	32.73
719.433	32.29
719.616	31.68
719.798	31.13
719.981	30.53
720.164	30.5
720.346	29.31
720.529	28.96
720.712	30.13
720.894	29.31
721.077	29.3
721.259	29.27
721.442	29.39
721.624	29.65
721.807	30.66
721.989	31.22
722.172	30.06
722.354	30.26
722.537	30.95
722.719	28.84
722.901	29.43
723.084	29.74
723.266	30.23
723.448	31.06
723.631	30.51
723.813	29.14
723.995	28.24
724.178	28.42
724.36	28.87
724.542	29.64
724.724	30.67
724.907	30.91
725.089	30.76
725.271	30.07
725.453	30.44
725.635	30.26
725.817	31.96
725.999	32.18
726.181	32.78
726.364	33.39
726.546	31.83
726.728	32.32
726.91	32.14
727.092	32.48
727.274	32.14
727.456	31.42
727.638	31.61
727.819	29.8
728.001	30.4
728.183	30.93
728.365	29.29
728.547	29.42
728.729	28.53
728.911	28.75
729.093	28.61
729.274	29.34
729.456	29.23
729.638	29.86
729.82	31.57
730.001	31.51
730.183	29.9
730.365	31.18
730.546	32.44
730.728	32.44
730.91	32.72
731.091	32.71
731.273	32.57
731.455	32.33
731.636	31.78
731.818	30.38
731.999	30.49
732.181	30.91
732.362	30.58
732.544	29.02
732.725	28.68
732.907	27.4
733.088	27.43
733.27	26.43
733.451	25.53
733.633	25.37
733.814	24.81
733.995	23.73
734.177	24.71
734.358	24.4
734.539	25.73
734.721	26.06
734.902	26.51
735.083	26.74
735.264	28.35
735.446	29.41
735.627	29.03
735.808	30
735.989	30.55
736.17	29.58
736.351	29.92
736.533	28.24
736.714	28.51
736.895	29.34
737.076	28.87
737.257	28.3
737.438	29.05
737.619	30.81
737.8	30.88
737.981	31.61
738.162	31.79
738.343	31.63
738.524	33.51
738.705	33.64
738.886	33.49
739.067	33.76
739.247	33.63
739.428	32.73
739.609	32.33
739.79	32.7
739.971	31.91
740.151	31.59
740.332	32.16
740.513	32.31
740.694	32.75
740.874	32.22
741.055	31.61
741.236	31.46
741.417	32.48
741.597	32.1
741.778	31.47
741.958	32.17
742.139	33.25
742.32	32.08
742.5	30.97
742.681	30.75
742.861	31.3
743.042	31.78
743.222	31.97
743.403	30.85
743.583	29.78
743.764	30.12
743.944	28.92
744.124	27.96
744.305	29.44
744.485	29.97
744.666	31.2
744.846	29.8
745.026	29.41
745.207	28.52
745.387	30.12
745.567	32.05
745.747	33.87
745.928	34.53
746.108	34.71
746.288	34.19
746.468	33.07
746.648	31.93
746.829	32.76
747.009	32.6
747.189	32.95
747.369	31.32
747.549	30.56
747.729	27.65
747.909	26.2
748.089	26.61
748.269	27.3
748.449	28.51
748.629	27.82
748.809	27.16
748.989	28.56
749.169	28.62
749.349	29.75
749.529	29.84
749.709	31.35
749.889	32.29
750.068	32.06
750.248	31.32
750.428	30.78
750.608	31
750.788	31.89
750.967	31.2
751.147	30.34
751.327	30.11
751.507	27.8
751.686	27.68
751.866	26.81
752.046	27.61
752.225	27.93
752.405	28.95
752.585	27.91
752.764	27.87
752.944	27.15
753.123	28.01
753.303	27.36
753.482	28.78
753.662	28.17
753.841	29.79
754.021	28.03
754.2	27.29
754.38	26.75
754.559	28.01
754.739	28.86
754.918	29.45
755.097	30.44
755.277	32.4
755.456	33.26
755.635	33.11
755.815	33.73
755.994	34.11
756.173	34.16
756.352	34.09
756.532	34.74
756.711	35.39
756.89	36.24
757.069	35.13
757.248	33.21
757.427	33.67
757.607	35.07
757.786	34.6
757.965	36.18
758.144	36.7
758.323	36.25
758.502	35.78
758.681	34.36
758.86	32.45
759.039	33
759.218	33.04
759.397	30.64
759.576	29.35
759.755	29.16
759.934	26.81
760.113	26.6
760.291	26.99
760.47	26.71
760.649	27.05
760.828	26.7
761.007	25.2
761.186	25.25
761.364	26.93
761.543	26.59
761.722	26.17
761.901	27.91
762.079	28.95
762.258	30.54
762.437	30.24
762.615	29.72
762.794	31.11
762.972	31.52
763.151	31.58
763.33	31.59
763.508	31.61
763.687	31.22
763.865	31.75
764.044	30.22
764.222	29.36
764.401	29.11
764.579	30.14
764.758	30.11
764.936	30.16
765.114	31.19
765.293	31.03
765.471	32.46
765.65	32.86
765.828	31.45
766.006	33.13
766.184	32.87
766.363	34.18
766.541	33.24
766.719	33.07
766.898	33.16
767.076	32.48
767.254	32.17
767.432	32.2
767.61	32.25
767.788	32.48
767.967	31.6
768.145	32.6
768.323	32.06
768.501	32.15
768.679	31.23
768.857	31.5
769.035	31.1
769.213	32.96
769.391	32.22
769.569	31.98
769.747	34.87
769.925	36.75
770.103	35.9
770.281	36.32
770.459	37.43
770.636	38.34
770.814	39.43
770.992	39.35
771.17	37.55
771.348	38.41
771.525	40.01
771.703	38.95
771.881	36.41
772.059	36.67
772.236	36.37
772.414	35.84
772.592	35.73
772.769	33.09
772.947	33.16
773.125	34.84
773.302	31.92
773.48	31.69
773.657	31.26
773.835	31.85
774.013	31.06
774.19	29.39
774.368	28.04
774.545	27.62
774.723	29.41
774.9	29.1
775.077	28.54
775.255	30.66
775.432	27.62
775.61	25.15
775.787	25.71
775.964	23.03
776.142	24.25
776.319	24.96
776.496	26.79
776.674	27.65
776.851	27.7
777.028	28.24
777.205	26.71
777.382	30
777.56	30.61
777.737	30.26
777.914	33.85
778.091	31.38
778.268	31.58
778.445	31.46
778.622	30.51
778.8	30.83
778.977	30.74
779.154	33.55
779.331	30.95
779.508	31.79
779.685	31.71
779.862	30.84
780.038	35.27
780.215	36.1
780.392	34.61
780.569	32.18
780.746	31.86
780.923	32.36
781.1	30.25
781.277	31.68
781.453	31.21
781.63	29.92
781.807	29.62
781.984	29.73
782.16	30.54
782.337	31.32
782.514	35.09
782.691	35.48
782.867	33.94
783.044	36.69
783.221	36.14
783.397	37.29
783.574	39.43
783.75	37.95
783.927	36.29
784.103	34.87
784.28	34.28
784.456	34.06
784.633	33.31
784.809	31.47
784.986	28.78
785.162	30.15
785.339	30.89
785.515	29.36
785.692	30.42
785.868	31.43
786.044	29.99
786.221	32.53
786.397	33.07
786.573	34.46
786.749	36.29
786.926	36.71
787.102	35.38
787.278	31.69
787.454	34.55
787.631	33.54
787.807	31.5
787.983	30.82
788.159	28.95
788.335	28.76
788.511	26.52
788.687	26.64
788.863	26.76
789.039	27.84
789.216	29.27
789.392	29.73
789.568	31.48
789.744	31.39
789.919	31.88
790.095	32.13
790.271	30.33
790.447	32.36
790.623	34.4
790.799	33.12
790.975	30.47
791.151	30.16
791.327	29.47
791.502	29.72
791.678	27.26
791.854	25.83
792.03	23.62
792.205	25.87
792.381	25.38
792.557	23.06
792.733	25.86
792.908	30.11
793.084	33.4
793.259	31.08
793.435	31.94
793.611	35.77
793.786	38.59
793.962	39.7
794.137	38.08
794.313	38.56
794.488	38.72
794.664	35.74
794.839	35.42
795.015	34.06
795.19	34.95
795.366	32.97
795.541	31.17
795.716	30.85
795.892	30.04
796.067	31.62
796.242	30.13
796.418	30.08
796.593	32.24
796.768	30.27
796.944	32.45
797.119	32.79
797.294	33.44
797.469	34.54
797.644	34.37
797.82	37.4
797.995	37.39
798.17	35.89
798.345	33.92
798.52	33.05
798.695	32.72
798.87	28.76
799.045	27.99
799.22	28.05
799.395	25.45
799.57	23.12
799.745	20.5
799.92	20.99
800.095	22.06
800.27	22.51
800.445	20.67
800.62	20.97
800.795	19.62
800.97	17.85
801.145	16.33
801.319	17.96
801.494	21
801.669	20.94
801.844	14.83
802.018	14.91
802.193	14.47
802.368	12.77
802.543	11.32
802.717	17.01
802.892	16.87
803.067	17.49
803.241	15.64
803.416	17.71
803.59	20.77
803.765	22.91
803.94	22.51
804.114	23.07
804.289	26.03
804.463	26.88
804.638	24.93
804.812	26.77
804.986	28.98
805.161	31.85
805.335	29
805.51	26.29
805.684	26.51
805.858	28.44
806.033	26.88
806.207	27.28
806.381	28.27
806.556	32.81
806.73	31.8
806.904	30.03
807.078	25.79
807.253	25.14
807.427	28.07
807.601	31.7
807.775	28.22
807.949	27.78
808.123	26.07
808.298	25.67
808.472	20.94
808.646	23.83
808.82	27.68
808.994	34.99
809.168	40.43
809.342	40.82
809.516	39.95
809.69	40.46
809.864	42.73
810.038	44.02
810.212	43.81
810.385	44.78
810.559	44.47
810.733	37.84
810.907	30.89
811.081	24.77
811.255	23.26
811.428	23.25
811.602	21.97
811.776	21.74
811.95	18.63
812.123	20.64
812.297	16.62
812.471	17.95
812.644	20.97
812.818	22.61
812.992	23.52
813.165	23.36
813.339	24.05
813.512	27.37
813.686	28.36
813.86	34.64
814.033	33.32
814.207	37.14
814.38	40.1
814.554	39.86
814.727	39.75
814.9	39.59
815.074	40.62
815.247	40.78
815.421	41.14
815.594	41.66
815.767	43.19
815.941	41.31
816.114	39.98
816.287	36.37
816.46	34.31
816.634	34.42
816.807	38.42
816.98	36.92
817.153	38.21
817.327	36.99
817.5	39.2
817.673	35.03
817.846	39.05
818.019	37.45
818.192	35.07
818.365	38.38
818.538	36.61
818.711	34.1
818.884	33.2
819.057	29.08
819.23	29.87
819.403	29.14
819.576	29.6
819.749	27.94
819.922	30.22
820.095	31.01
820.268	31.94
820.441	34.91
820.614	33.09
820.786	35.55
820.959	35.8
821.132	34.93
821.305	34.58
821.477	34.24
821.65	32.87
821.823	32.29
821.996	31.33
822.168	32.12
822.341	32.67
822.514	32.96
822.686	32.23
822.859	32.86
823.031	32.9
823.204	32.45
823.376	31.71
823.549	32.52
823.722	32.44
823.894	33.04
824.067	32.44
824.239	31.71
824.411	32.05
824.584	32.9
824.756	32.8
824.929	33.93
825.101	33.9
825.273	35.1
825.446	34.63
825.618	34.16
825.79	34.35
825.963	35.07
826.135	35.31
826.307	35.1
826.479	34.25
826.652	32.66
826.824	31.81
826.996	32.56
827.168	31.96
827.34	32.32
827.512	33.2
827.684	35.05
827.856	33
828.029	31.92
828.201	31.75
828.373	32.07
828.545	31.57
828.717	32.23
828.889	31.43
829.061	31.02
829.232	30.69
829.404	30.55
829.576	27.8
829.748	31.61
829.92	31.36
830.092	33.38
830.264	31.72
830.436	32.98
830.607	29.02
830.779	29.95
830.951	33.37
831.123	33.65
831.294	34.52
831.466	34.56
831.638	29.83
831.809	31.29
831.981	26.67
832.153	28.3
832.324	28.99
832.496	32
832.667	29.95
832.839	27.65
833.011	27.63
833.182	26.69
833.354	24.31
833.525	26.15
833.697	28.92
833.868	29.28
834.039	27.73
834.211	28.68
834.382	27.76
834.554	29.5
834.725	28.62
834.896	28.63
835.068	31.3
835.239	32.21
835.41	31.8
835.581	27.56
835.753	27.39
835.924	28.76
836.095	29.7
836.266	30.23
836.438	26.55
836.609	28.05
836.78	29.83
836.951	27.9
837.122	30
837.293	29.84
837.464	34.96
837.635	37.52
837.806	35.07
837.977	34.27
838.148	36.22
838.319	39.71
838.49	44.02
838.661	40.84
838.832	39.69
839.003	36.44
839.174	30.03
839.345	30.01
839.516	26.21
839.687	30.41
839.857	29.49
840.028	25.51
840.199	26.3
840.37	22.34
840.54	25.05
840.711	17.33
840.882	25.55
841.053	29.22
841.223	22.08
841.394	28.64
841.564	24.89
841.735	27.15
841.906	29.06
842.076	28.41
842.247	22.34
842.417	21.33
842.588	28.41
842.758	25.43
842.929	34.3
843.099	37.28
843.27	32.78
843.44	35.02
843.611	35.42
843.781	35.46
843.951	38.15
844.122	58.35
844.292	50.19
844.462	52.73
844.633	38.12
844.803	24.48
844.973	34.71
845.144	40.49
845.314	47.79
845.484	46.23
845.654	46.41
845.824	36.81
845.995	15.45
846.165	18.88
846.335	10.41
846.505	20.85
846.675	33.08
846.845	35.75
847.015	37.74
847.185	34.84
847.355	32.45
847.525	27.67
847.695	34.95
847.865	41.98
848.035	42.09
848.205	48.86
848.375	38.49
848.545	29.71
848.715	30.48
848.884	32.43
849.054	26.56
849.224	20.78
849.394	16.11
849.564	15.47
849.733	8.68
849.903	6.77
850.073	10.69
850.243	27.71
850.412	30.29
850.582	24.15
850.752	16.96
850.921	21.65
851.091	23.71
851.26	34.63
851.43	32.74
851.599	35.44
851.769	38.7
851.939	41.6
852.108	26.76
852.278	21.13
852.447	27.74
852.616	34.68
852.786	17.35
852.955	23.03
853.125	12.13
853.294	6.59
853.463	-2.27
853.633	6.86
853.802	-11.58
853.971	2.78
854.141	11.08
854.31	20.21
854.479	26.01
854.648	45.07
854.818	35.2
854.987	43.27
855.156	47.4
855.325	55.2
855.494	45.07
855.663	55.25
855.832	52.76
856.001	48.94
856.171	43.96
856.34	32.37
856.509	14.56
856.678	25.63
856.847	14.99
857.016	9.08
857.185	0.59
857.353	-1.54
857.522	-11.17
857.691	-6.01
857.86	-1.6
858.029	-4.88
858.198	0.99
858.367	-1.94
858.535	0.61
858.704	-1.17
858.873	-1.62
859.042	10.56
859.21	16.69
859.379	24.22
859.548	19.4
859.717	17.12
859.885	18.62
860.054	14.68
860.222	29.12
860.391	22.79
860.56	18.18
860.728	23.26
860.897	14.5
861.065	9.63
861.234	4.94
861.402	11.16
861.571	6.95
861.739	-2.98
861.908	16.84
862.076	9.88
862.244	25.39
862.413	36.1
862.581	29.3
862.749	37.97
862.918	59.79
863.086	37.94
863.254	51.54
863.423	50.91
863.591	49.54
863.759	48.07
863.927	62.28
864.096	50.96
864.264	40.77
864.432	40.23
864.6	44.7
864.768	33.93
864.936	37.15
865.104	23.68
865.272	15.41
865.44	27.88
865.608	8.73
865.776	-5.11
865.944	8.71
866.112	30.73
866.28	34.41
866.448	25.6
866.616	27.92
866.784	56.76
866.952	61.44
867.12	56.22
867.288	43.91
867.455	54.8
867.623	51.19
867.791	49.71
867.959	32.56
868.127	31.07
868.294	41.66
868.462	27.42
868.63	16.7
868.797	10.72
868.965	35.11
869.133	46.01
869.3	44.5
869.468	45.73
869.636	53.62
869.803	56.21
869.971	67.34
870.138	63.58
870.306	82.68
870.473	91.17
870.641	87.49
870.808	63.57
870.975	65.32
871.143	51.66
871.31	23.29
871.478	-4.27
871.645	3.84
871.812	5.79
871.98	15.96
872.147	16.27
872.314	7.87
872.482	-14.39
872.649	-12.07
872.816	-15.27
872.983	-14.88
873.15	6.6
873.318	-2.05
873.485	3.89
873.652	-11.95
873.819	-8.61
873.986	10.76
874.153	44.73
874.32	58.62
874.487	54.56
874.654	49.67
874.821	59.39
874.988	57.55
875.155	55.4
875.322	44.45
875.489	47.28
875.656	49.18
875.823	40.56
875.99	39.24
876.157	23.86
876.324	13.86
876.49	26.84
876.657	27.29
876.824	34.89
876.991	35.57
877.157	48.67
877.324	52.28
877.491	60.28
877.658	60.07
877.824	41.87
877.991	51.52
878.157	65.77
878.324	53.4
878.491	47.29
878.657	47.95
878.824	44.57
878.99	39.32
879.157	37.26
879.323	35.73
879.49	38.41
879.656	49.98
879.823	39.77
879.989	31.38
880.156	31.31
880.322	48.27
880.488	37.89
880.655	44.22
880.821	49.48
880.987	39.15
881.154	33.36
881.32	30
881.486	26.43
881.652	35.66
881.819	32.2
881.985	27.53
882.151	20.74
882.317	25.81
882.483	24.48
882.649	19.6
882.816	24.62
882.982	25.19
883.148	25.51
883.314	26.7
883.48	28.17
883.646	28.47
883.812	30.84
883.978	34.44
884.144	32.03
884.31	35.69
884.476	35.47
884.642	34.69
884.807	32.15
884.973	32.53
885.139	34.85
885.305	32.8
885.471	34.67
885.637	36.36
885.802	30.75
885.968	35.17
886.134	30.57
886.3	31.22
886.465	32.7
886.631	34.92
886.797	37.22
886.962	33.45
887.128	22.26
887.293	27.48
887.459	29.53
887.625	33.84
887.79	28.94
887.956	41.89
888.121	47.17
888.287	47.57
888.452	52.07
888.618	52.71
888.783	58.24
