Data from 2937824_Reflection_1.txt Node
Date: Wed Jul 15 17:08:23 EDT 2015
User: robert
Spectrometer: USB4E03001
Autoset integration time: false
Trigger mode: 4
Integration Time (sec): 1.000000E-1
Scans to average: 10
Electric dark correction enabled: true
Nonlinearity correction enabled: false
Boxcar width: 5
Stray light correction enabled: false
XAxis mode: Wavelengths
Stop averaging: false
Number of Pixels in Spectrum: 3648
>>>>>Begin Spectral Data<<<<<
177.566	63.33
177.785	84.45
178.005	89.84
178.225	93.17
178.445	98.73
178.665	104.79
178.885	200
179.105	65.95
179.324	53.48
179.544	56.3
179.764	71.99
179.984	58.23
180.204	67.73
180.423	76.69
180.643	80.94
180.863	74.9
181.083	72.11
181.302	65.93
181.522	68.58
181.742	76.17
181.961	64.18
182.181	60.89
182.401	72.2
182.621	97.44
182.84	80.19
183.06	75.88
183.279	78.29
183.499	66.85
183.719	59.22
183.938	50.87
184.158	80.36
184.377	101.16
184.597	128.62
184.816	185.83
185.036	220.97
185.256	820.67
185.475	482.61
185.695	332.64
185.914	620.94
186.134	527.61
186.353	371.26
186.572	272.49
186.792	248.31
187.011	152.58
187.231	112.9
187.45	83.77
187.67	64.42
187.889	52.69
188.108	64
188.328	74.14
188.547	114.72
188.766	79.85
188.986	106.49
189.205	81.87
189.424	125.05
189.644	109.09
189.863	121.92
190.082	197.63
190.302	201.16
190.521	184.07
190.74	200.36
190.959	114.58
191.178	170.89
191.398	149.92
191.617	190.92
191.836	166.69
192.055	194.07
192.274	234.95
192.494	163.08
192.713	155.5
192.932	168.55
193.151	186.23
193.37	228.22
193.589	176.53
193.808	170.73
194.027	129.02
194.246	129.47
194.465	119.15
194.685	77.49
194.904	111.3
195.123	213.64
195.342	152.33
195.561	144.89
195.78	421.88
195.999	211.66
196.218	355.92
196.436	992.95
196.655	-894.23
196.874	-4707.33
197.093	-1026.88
197.312	-636.88
197.531	704.5
197.75	628.55
197.969	344.58
198.188	267.58
198.407	231.78
198.625	187.48
198.844	148.68
199.063	129.16
199.282	122.74
199.501	98.83
199.719	74.9
199.938	81.92
200.157	82.07
200.376	45.54
200.594	46.29
200.813	54.43
201.032	60.71
201.251	73.13
201.469	75.27
201.688	80.63
201.907	90.87
202.125	100.5
202.344	111.37
202.563	106.62
202.781	247.49
203	221.89
203.218	238.5
203.437	187.83
203.656	179.61
203.874	153.37
204.093	139.3
204.311	131.37
204.53	132.78
204.748	103.83
204.967	161.92
205.185	106.8
205.404	-603.11
205.622	-188.73
205.841	4493.02
206.059	-23.07
206.278	174.26
206.496	92.88
206.715	88.31
206.933	112.91
207.151	-40.17
207.37	112.33
207.588	-24.11
207.806	73.88
208.025	-18.09
208.243	4.49
208.461	48
208.68	55.31
208.898	60.21
209.116	56.99
209.335	68.92
209.553	56.73
209.771	63.49
209.989	73.16
210.208	39.58
210.426	56.04
210.644	37.42
210.862	36.46
211.081	56.51
211.299	55.18
211.517	42.32
211.735	38.62
211.953	47.09
212.171	32.58
212.39	60.36
212.608	87.83
212.826	122.78
213.044	124.2
213.262	307.6
213.48	213.4
213.698	1374.62
213.916	-567.82
214.134	-448.81
214.352	-404.71
214.57	884.41
214.788	-535.44
215.006	-257.72
215.224	41.42
215.442	-8.96
215.66	-48.75
215.878	-45.66
216.096	73.43
216.314	64.69
216.532	71.86
216.75	90.34
216.968	89.53
217.185	67.51
217.403	89.61
217.621	146.66
217.839	188.27
218.057	148.2
218.275	128.67
218.492	105.26
218.71	95.45
218.928	117.18
219.146	116.46
219.363	139.43
219.581	139.57
219.799	135.52
220.017	191.08
220.234	201.98
220.452	408.56
220.67	-677.83
220.887	-123.76
221.105	-43.5
221.323	-12.26
221.54	4.74
221.758	-13.33
221.976	-20.62
222.193	-215.33
222.411	198.06
222.629	251.25
222.846	1141.73
223.064	912.29
223.281	460.59
223.499	523.2
223.716	-308.54
223.934	1220.25
224.151	-364.38
224.369	-139.69
224.586	-110.11
224.804	-85.07
225.021	-96.34
225.239	-106.09
225.456	-239.05
225.674	-287.58
225.891	-237.98
226.108	3750.47
226.326	-6318.71
226.543	8126.83
226.76	-680.65
226.978	-1190.46
227.195	-236.18
227.413	-186.55
227.63	-95.79
227.847	-37.65
228.064	-4.34
228.282	11.07
228.499	11.99
228.716	11.92
228.934	3.85
229.151	9.61
229.368	10.13
229.585	8.31
229.802	13.98
230.02	11.61
230.237	9.25
230.454	7
230.671	1.18
230.888	3.81
231.105	4.83
231.323	7.65
231.54	2.63
231.757	6.38
231.974	7.57
232.191	-6.2
232.408	-9.82
232.625	-7.54
232.842	-14.15
233.059	-11.62
233.276	-25
233.493	-24.02
233.71	-20.78
233.927	-24.62
234.144	-20.12
234.361	-14.77
234.578	-6.8
234.795	5
235.012	2.74
235.229	0.32
235.446	-6.76
235.663	-3.56
235.879	-11.54
236.096	-18.35
236.313	-10.87
236.53	-29.06
236.747	-30.72
236.964	-44.14
237.181	-42.98
237.397	-33.44
237.614	-13.18
237.831	-13.59
238.048	-5.49
238.264	1.81
238.481	13.11
238.698	20.07
238.915	28.45
239.131	28.88
239.348	30.58
239.565	25.35
239.781	29.92
239.998	21.68
240.215	26.14
240.431	25.31
240.648	20.8
240.865	19.43
241.081	15.39
241.298	19.04
241.514	15
241.731	13.22
241.947	9.25
242.164	9.17
242.38	9.24
242.597	9.36
242.814	9.08
243.03	10.68
243.246	12.48
243.463	10.5
243.679	8.91
243.896	8.98
244.112	7.63
244.329	11.8
244.545	9.42
244.762	10.36
244.978	9.55
245.194	11.39
245.411	11.88
245.627	9.3
245.843	10.01
246.06	7.56
246.276	12.09
246.492	15.58
246.709	12.68
246.925	12.87
247.141	12.25
247.357	12.6
247.574	10.6
247.79	9.41
248.006	8.75
248.222	9.17
248.439	8.23
248.655	7.57
248.871	7.17
249.087	8.53
249.303	5.7
249.519	4.11
249.736	0.67
249.952	-0.44
250.168	1.55
250.384	4.16
250.6	4.76
250.816	6.45
251.032	3.32
251.248	-1.14
251.464	-2.33
251.68	0.14
251.896	2.19
252.112	5.45
252.328	8.15
252.544	7.75
252.76	4.82
252.976	5.02
253.192	6.99
253.408	7.78
253.624	9.97
253.84	10.39
254.056	12.33
254.272	12.95
254.487	9.65
254.703	8.16
254.919	4.13
255.135	6.8
255.351	4.43
255.567	-0.64
255.782	-0.23
255.998	-2.51
256.214	0.99
256.43	1.54
256.646	5.58
256.861	7.42
257.077	6.31
257.293	6.51
257.508	5.57
257.724	6.85
257.94	8.19
258.155	8
258.371	7.48
258.587	7.37
258.802	7.61
259.018	8.01
259.234	9.68
259.449	10.57
259.665	11.31
259.88	11.74
260.096	11.61
260.312	11.98
260.527	11.34
260.743	12.24
260.958	11
261.174	10.94
261.389	10.21
261.605	8.77
261.82	8.7
262.036	7.64
262.251	7.34
262.466	6.8
262.682	6.68
262.897	6.71
263.113	4.71
263.328	5.55
263.543	5.59
263.759	5.7
263.974	5.97
264.189	5.61
264.405	5.05
264.62	5.78
264.835	5.38
265.051	4.48
265.266	5.32
265.481	6.97
265.696	8.15
265.912	6.49
266.127	7.28
266.342	5.99
266.557	5.95
266.773	3.85
266.988	2.78
267.203	1.87
267.418	0.91
267.633	0.31
267.848	1.2
268.064	-0.99
268.279	-0.54
268.494	-4.46
268.709	-3.95
268.924	-3.1
269.139	1.04
269.354	-1.25
269.569	-0.44
269.784	-2.39
269.999	-1.51
270.214	-2.34
270.429	-2.03
270.644	-2.71
270.859	-1
271.074	0.5
271.289	1.1
271.504	1.36
271.719	2.94
271.934	4.81
272.149	6.58
272.363	5.78
272.578	6.38
272.793	7.11
273.008	9.52
273.223	10.35
273.438	9.19
273.653	7.36
273.867	6.93
274.082	6.09
274.297	5.3
274.512	4
274.726	5.07
274.941	3.36
275.156	4.52
275.371	0.48
275.585	-0.85
275.8	1.34
276.015	0.92
276.229	0.18
276.444	-0.48
276.659	-1.85
276.873	0.87
277.088	-2.14
277.302	-0.15
277.517	-1.42
277.732	0.85
277.946	2.06
278.161	-1.26
278.375	0.76
278.59	0.97
278.804	1.35
279.019	1.84
279.233	-0.5
279.448	3.43
279.662	2.94
279.877	3.17
280.091	1.96
280.306	1.4
280.52	1.71
280.735	3.01
280.949	3.01
281.163	4.09
281.378	4.12
281.592	3.86
281.806	4.86
282.021	4.31
282.235	4.85
282.449	4.73
282.664	2.97
282.878	2.25
283.092	1.52
283.307	1.34
283.521	2.96
283.735	2.99
283.949	3.83
284.164	1.01
284.378	2.31
284.592	3.13
284.806	3.19
285.02	6.49
285.234	7.94
285.449	8.61
285.663	8.87
285.877	8.73
286.091	7.85
286.305	8.6
286.519	9.88
286.733	9.7
286.947	8.35
287.161	9.6
287.375	7.43
287.589	7.1
287.803	5.7
288.017	5.66
288.231	3.41
288.445	5.19
288.659	2.62
288.873	0.07
289.087	-0.65
289.301	1.18
289.515	2.82
289.729	2.81
289.943	5.03
290.157	5.05
290.371	6.47
290.584	7.31
290.798	7.25
291.012	7.89
291.226	10.02
291.44	9.05
291.654	10.45
291.867	8.02
292.081	7.5
292.295	7.96
292.509	8.21
292.722	8.19
292.936	9.19
293.15	10.06
293.364	10.53
293.577	10.44
293.791	12.22
294.005	10.66
294.218	10.79
294.432	11.95
294.645	9.12
294.859	8.53
295.073	8.04
295.286	6.71
295.5	5.59
295.713	8.28
295.927	6.82
296.14	7.23
296.354	6.27
296.568	6.32
296.781	7.86
296.994	10.31
297.208	11.54
297.421	11.02
297.635	11.97
297.848	12.2
298.062	11.72
298.275	11.99
298.489	11.4
298.702	11.58
298.915	12.19
299.129	10.77
299.342	9.04
299.555	8.83
299.769	9.54
299.982	9.83
300.195	10.28
300.409	9.96
300.622	10.95
300.835	11.09
301.048	11.3
301.262	11.38
301.475	11.3
301.688	12.89
301.901	11.94
302.115	9.86
302.328	7.5
302.541	8.86
302.754	5.7
302.967	6.48
303.18	6.13
303.393	5.62
303.607	4.71
303.82	6.41
304.033	5.6
304.246	5.93
304.459	6.91
304.672	9.83
304.885	8.38
305.098	9.9
305.311	7.03
305.524	9.22
305.737	10.55
305.95	11.54
306.163	10.91
306.376	10.52
306.589	11.16
306.802	12.88
307.015	9.98
307.228	8.55
307.44	9.05
307.653	11.49
307.866	8.49
308.079	6.84
308.292	6.03
308.505	4.5
308.718	4.32
308.93	4.63
309.143	4.91
309.356	7.34
309.569	7.33
309.781	9.31
309.994	8.94
310.207	9.9
310.42	11.1
310.632	12.5
310.845	13.48
311.058	13.32
311.27	12.6
311.483	11.55
311.696	9.14
311.908	9.56
312.121	6.7
312.333	7.02
312.546	6.72
312.759	5.49
312.971	5.21
313.184	3.79
313.396	2.85
313.609	5.41
313.821	5.37
314.034	5.51
314.246	6.27
314.459	7.55
314.671	8.69
314.884	9.76
315.096	11.3
315.309	9.33
315.521	8.87
315.733	9.53
315.946	6.01
316.158	5.95
316.371	7.97
316.583	7.93
316.795	8.47
317.008	5.62
317.22	5.65
317.432	5.37
317.644	7.55
317.857	10.55
318.069	10.38
318.281	12.46
318.494	15.47
318.706	16.77
318.918	16.41
319.13	16.68
319.342	17.05
319.555	16.34
319.767	15.8
319.979	13.35
320.191	12.07
320.403	11.14
320.615	10.58
320.827	6.59
321.039	3.56
321.252	3.64
321.464	3.98
321.676	2.87
321.888	2.64
322.1	0.4
322.312	1.84
322.524	3.34
322.736	4.92
322.948	3.03
323.16	5.5
323.372	6.68
323.584	6.74
323.796	6.15
324.007	6.12
324.219	4.55
324.431	4.68
324.643	4.32
324.855	3.89
325.067	2.92
325.279	4.4
325.491	3.83
325.702	4.31
325.914	4.12
326.126	4.37
326.338	5.23
326.55	7.48
326.761	7.95
326.973	7.95
327.185	6.95
327.396	8.65
327.608	8.97
327.82	10.3
328.032	8.56
328.243	7.3
328.455	8.83
328.666	9.99
328.878	7.36
329.09	7.22
329.301	8.52
329.513	8.91
329.725	7.73
329.936	5.77
330.148	5.35
330.359	3.89
330.571	4.48
330.782	0.38
330.994	-0.52
331.205	1.62
331.417	1.92
331.628	0.2
331.84	0.15
332.051	1
332.262	2.15
332.474	0.88
332.685	3.04
332.897	3.14
333.108	4.94
333.319	6.23
333.531	6.78
333.742	7.71
333.953	8.79
334.165	10.55
334.376	11.28
334.587	10.54
334.799	9.26
335.01	9.2
335.221	7.88
335.432	9.32
335.644	7.93
335.855	6.26
336.066	7.36
336.277	8.17
336.488	7.88
336.7	7.61
336.911	7.7
337.122	9
337.333	7.67
337.544	8.38
337.755	7.11
337.966	5.8
338.177	6.75
338.388	5.27
338.599	2.9
338.811	3.6
339.022	1.32
339.233	2.06
339.444	2.2
339.655	3.66
339.866	3.73
340.076	3.04
340.287	4.71
340.498	5.4
340.709	6.23
340.92	7.41
341.131	5.46
341.342	6.2
341.553	4.81
341.764	3.44
341.975	3.47
342.185	4.15
342.396	6.2
342.607	6.97
342.818	6.11
343.029	5.18
343.239	6.19
343.45	5.08
343.661	6.58
343.872	6.76
344.082	7.61
344.293	7.04
344.504	7.66
344.714	5.78
344.925	4.83
345.136	5.99
345.346	5.99
345.557	4.97
345.768	6.79
345.978	5.49
346.189	6.26
346.399	5.39
346.61	6.2
346.821	5.69
347.031	6.56
347.242	5.58
347.452	4.17
347.663	2.82
347.873	2.66
348.084	1.65
348.294	2.54
348.504	2.47
348.715	4.01
348.925	5.56
349.136	7.53
349.346	6.77
349.557	8.36
349.767	8.51
349.977	9.83
350.188	11.14
350.398	11.07
350.608	11.07
350.819	10.81
351.029	10.22
351.239	9.7
351.449	8.81
351.66	10.35
351.87	10.01
352.08	10.33
352.29	9.73
352.501	9.09
352.711	10.25
352.921	11.22
353.131	11.17
353.341	10.17
353.552	9.18
353.762	8.04
353.972	7.55
354.182	7.94
354.392	8.38
354.602	9.74
354.812	9.24
355.022	8.8
355.232	7.7
355.442	8.1
355.652	8.91
355.862	10.05
356.072	10.41
356.282	10.34
356.492	10.59
356.702	10.13
356.912	9.56
357.122	10.92
357.332	10.7
357.542	9.49
357.752	9.47
357.962	8.39
358.171	8.22
358.381	8.09
358.591	7.48
358.801	7.59
359.011	7.16
359.221	7.62
359.43	6.35
359.64	7.3
359.85	8.65
360.06	9.21
360.269	11.65
360.479	11
360.689	10.61
360.899	10.86
361.108	10.47
361.318	11.15
361.528	10.45
361.737	10.24
361.947	9.23
362.156	9.38
362.366	9.01
362.576	7.48
362.785	7.37
362.995	7.89
363.204	8.01
363.414	7.53
363.623	7.71
363.833	8.62
364.042	8.59
364.252	8.76
364.461	8.24
364.671	8.39
364.88	9.44
365.09	9.61
365.299	9.64
365.509	9.47
365.718	10.49
365.927	9.42
366.137	8.69
366.346	9.31
366.555	9.58
366.765	9.92
366.974	9.67
367.183	9.26
367.393	9.94
367.602	10.71
367.811	10.52
368.021	9.68
368.23	9.94
368.439	10.76
368.648	9.8
368.857	8.82
369.067	7.86
369.276	6.99
369.485	6.78
369.694	6.56
369.903	4.84
370.112	4.66
370.321	4.83
370.531	5.73
370.74	4.96
370.949	6.46
371.158	6.88
371.367	6.87
371.576	8.15
371.785	8.63
371.994	7.56
372.203	7.51
372.412	7.72
372.621	7.68
372.83	8.17
373.039	9.06
373.248	8.83
373.457	8.86
373.666	9.29
373.874	9.2
374.083	8.29
374.292	8.04
374.501	7.62
374.71	7.49
374.919	8.18
375.128	7.65
375.336	7.43
375.545	6.56
375.754	6.97
375.963	6.56
376.171	6.55
376.38	6.18
376.589	6.33
376.798	6.49
377.006	6.59
377.215	6.28
377.424	6.54
377.632	5.15
377.841	5.37
378.05	4.92
378.258	5.24
378.467	4.32
378.675	4.42
378.884	4.86
379.093	5.52
379.301	5.89
379.51	6.1
379.718	5.66
379.927	6.68
380.135	7.39
380.344	7.3
380.552	8.27
380.761	8.92
380.969	8.86
381.177	9.21
381.386	8.86
381.594	8
381.803	7.38
382.011	7.32
382.219	7.19
382.428	6.31
382.636	6.34
382.845	4.68
383.053	4.18
383.261	4.38
383.469	4.75
383.678	5.08
383.886	5.36
384.094	5.34
384.302	4.89
384.511	5.04
384.719	4.68
384.927	4.94
385.135	4.85
385.343	5.08
385.552	5.55
385.76	4.89
385.968	4.28
386.176	4.38
386.384	4.16
386.592	4.02
386.8	3.88
387.008	4.3
387.216	4.32
387.424	4.92
387.633	4.9
387.841	4.42
388.049	4.62
388.257	5.12
388.465	5.27
388.672	6.03
388.88	6.26
389.088	5.88
389.296	5.74
389.504	5.08
389.712	5.14
389.92	5.15
390.128	5.62
390.336	5.79
390.544	5.57
390.751	5.59
390.959	4.76
391.167	4.57
391.375	4.75
391.583	4.87
391.79	5.21
391.998	5.03
392.206	5.12
392.414	4.74
392.621	4.63
392.829	4.75
393.037	4.25
393.244	4.5
393.452	4.92
393.66	4.87
393.867	4.99
394.075	4.99
394.283	5.03
394.49	4.62
394.698	4.79
394.905	4.5
395.113	4.58
395.32	4.65
395.528	4.66
395.735	4.43
395.943	4.32
396.15	4.21
396.358	4.66
396.565	5.04
396.773	5.58
396.98	5.5
397.188	5.58
397.395	5.24
397.602	5.47
397.81	5.49
398.017	5.6
398.225	5.52
398.432	5.38
398.639	4.64
398.847	4.19
399.054	3.88
399.261	3.79
399.468	3.87
399.676	4.19
399.883	4.38
400.09	4.15
400.297	4.21
400.505	4.37
400.712	4.77
400.919	4.93
401.126	5
401.333	5.37
401.54	5.01
401.748	5
401.955	4.42
402.162	4.4
402.369	4.64
402.576	4.39
402.783	4.51
402.99	4.25
403.197	4.6
403.404	4.6
403.611	4.17
403.818	4.53
404.025	4.33
404.232	4.44
404.439	4.05
404.646	3.77
404.853	3.85
405.06	3.95
405.267	4.25
405.474	4.18
405.681	4.06
405.887	4.2
406.094	4.11
406.301	3.92
406.508	4.23
406.715	4.59
406.922	4.81
407.128	4.8
407.335	4.55
407.542	4.45
407.749	4.38
407.955	4.47
408.162	4.48
408.369	4.79
408.575	5.06
408.782	4.9
408.989	4.88
409.195	4.8
409.402	4.65
409.609	4.93
409.815	4.85
410.022	4.34
410.228	4.42
410.435	4.3
410.642	4.16
410.848	4.33
411.055	4.36
411.261	4.05
411.468	3.89
411.674	4.08
411.881	3.78
412.087	3.62
412.294	4.11
412.5	3.99
412.706	4.22
412.913	4.21
413.119	4
413.326	4.46
413.532	4.76
413.738	4.97
413.945	4.84
414.151	5.03
414.357	5.13
414.564	5.18
414.77	5.26
414.976	5.21
415.182	5.23
415.389	5.12
415.595	4.72
415.801	4.54
416.007	5
416.214	5
416.42	4.71
416.626	4.4
416.832	4.31
417.038	4.42
417.244	4.18
417.45	4.03
417.657	3.98
417.863	4.23
418.069	4.29
418.275	3.92
418.481	4.05
418.687	4.25
418.893	4.51
419.099	4.56
419.305	4.45
419.511	4.54
419.717	4.67
419.923	4.71
420.129	4.44
420.335	4.6
420.541	4.56
420.746	4.43
420.952	4.42
421.158	4.22
421.364	4.18
421.57	4.28
421.776	4.33
421.982	4.32
422.187	4.39
422.393	4.44
422.599	4.3
422.805	4.45
423.01	4.64
423.216	4.63
423.422	4.75
423.628	4.65
423.833	4.67
424.039	4.92
424.245	4.94
424.45	4.98
424.656	4.99
424.862	5.12
425.067	5.06
425.273	4.82
425.478	4.83
425.684	4.96
425.889	5.04
426.095	5.02
426.301	4.75
426.506	4.8
426.712	4.76
426.917	4.8
427.123	4.66
427.328	4.85
427.533	4.96
427.739	4.94
427.944	4.71
428.15	4.82
428.355	4.66
428.561	4.56
428.766	4.12
428.971	4.01
429.177	3.88
429.382	3.84
429.587	3.52
429.793	3.61
429.998	3.63
430.203	3.6
430.408	3.59
430.614	3.84
430.819	3.93
431.024	4
431.229	4.21
431.434	4.5
431.64	4.33
431.845	4.43
432.05	4.42
432.255	4.43
432.46	4.45
432.665	4.31
432.87	3.94
433.076	3.91
433.281	4.03
433.486	4.04
433.691	3.95
433.896	3.96
434.101	3.77
434.306	3.8
434.511	3.72
434.716	3.58
434.921	3.53
435.126	3.71
435.331	3.64
435.535	3.58
435.74	3.53
435.945	3.37
436.15	3.47
436.355	3.66
436.56	3.51
436.765	3.61
436.97	3.79
437.174	3.93
437.379	4.04
437.584	3.93
437.789	4.15
437.993	4.09
438.198	4.24
438.403	4.23
438.608	4.28
438.812	4.21
439.017	4.15
439.222	4.01
439.426	3.91
439.631	3.87
439.836	4.01
440.04	3.94
440.245	3.93
440.45	3.83
440.654	3.97
440.859	3.93
441.063	4
441.268	3.97
441.472	4.06
441.677	4.01
441.881	4.04
442.086	4.01
442.29	4.06
442.495	4.03
442.699	3.91
442.904	3.81
443.108	3.76
443.312	4.06
443.517	4.14
443.721	4.09
443.925	4.16
444.13	4.13
444.334	4.21
444.538	4.03
444.743	4.2
444.947	4.43
445.151	4.45
445.356	4.5
445.56	4.28
445.764	4.23
445.968	4.27
446.173	4.29
446.377	4.29
446.581	4.16
446.785	4.26
446.989	4.15
447.193	4.18
447.398	4.01
447.602	4.08
447.806	4
448.01	3.96
448.214	3.99
448.418	4.07
448.622	4.11
448.826	4.3
449.03	4.24
449.234	4.27
449.438	4.27
449.642	4.32
449.846	4
450.05	4.09
450.254	4.21
450.458	4.16
450.662	3.89
450.866	3.68
451.069	3.61
451.273	3.66
451.477	3.58
451.681	3.4
451.885	3.53
452.089	3.64
452.292	3.69
452.496	3.6
452.7	3.48
452.904	3.65
453.107	3.71
453.311	3.57
453.515	3.64
453.719	3.67
453.922	3.71
454.126	3.78
454.33	3.98
454.533	3.9
454.737	3.96
454.94	4.06
455.144	4.06
455.348	3.94
455.551	4.03
455.755	3.74
455.958	3.51
456.162	3.37
456.365	3.18
456.569	3.05
456.772	3.04
456.976	3.08
457.179	3.23
457.383	3.02
457.586	2.99
457.79	2.83
457.993	2.78
458.196	2.94
458.4	2.99
458.603	3.14
458.807	3.06
459.01	3.06
459.213	2.96
459.417	2.91
459.62	3.13
459.823	3.36
460.026	3.45
460.23	3.58
460.433	3.63
460.636	3.73
460.839	3.72
461.042	3.77
461.246	3.77
461.449	3.85
461.652	3.73
461.855	3.63
462.058	3.57
462.261	3.54
462.464	3.66
462.668	3.6
462.871	3.51
463.074	3.51
463.277	3.51
463.48	3.72
463.683	3.87
463.886	4.05
464.089	4.15
464.292	4.11
464.495	4.11
464.698	3.94
464.901	3.81
465.104	3.76
465.306	3.55
465.509	3.35
465.712	3.34
465.915	3.26
466.118	3.19
466.321	3.16
466.524	2.96
466.726	2.91
466.929	2.79
467.132	2.98
467.335	3.05
467.538	3.09
467.74	3.2
467.943	3.14
468.146	2.93
468.348	2.84
468.551	2.87
468.754	3.02
468.956	3.07
469.159	3.11
469.362	3.17
469.564	3.03
469.767	2.98
469.969	3.35
470.172	3.35
470.375	3.52
470.577	3.7
470.78	3.57
470.982	3.5
471.185	3.59
471.387	3.71
471.59	3.42
471.792	3.56
471.995	3.74
472.197	3.41
472.399	3.08
472.602	3.07
472.804	3.09
473.007	3.28
473.209	3.44
473.411	3.16
473.614	3.01
473.816	3.21
474.018	3.17
474.22	3.31
474.423	3.22
474.625	3.55
474.827	3.67
475.03	3.61
475.232	3.53
475.434	3.34
475.636	3.49
475.838	3.73
476.04	3.65
476.243	3.84
476.445	3.5
476.647	3.69
476.849	3.69
477.051	3.61
477.253	3.78
477.455	3.76
477.657	3.8
477.859	3.86
478.061	3.99
478.263	3.95
478.465	3.63
478.667	3.87
478.869	3.69
479.071	3.6
479.273	3.56
479.475	3.37
479.677	3.32
479.879	3.39
480.081	3.44
480.283	3.24
480.485	3.39
480.686	3.5
480.888	3.35
481.09	3.36
481.292	3.33
481.494	3.43
481.695	3.48
481.897	3.47
482.099	3.57
482.301	3.64
482.502	3.6
482.704	3.6
482.906	3.66
483.107	3.72
483.309	3.83
483.511	3.83
483.712	3.81
483.914	3.84
484.115	3.83
484.317	3.83
484.519	3.78
484.72	3.81
484.922	3.81
485.123	3.8
485.325	3.77
485.526	3.69
485.728	3.72
485.929	3.66
486.131	3.64
486.332	3.73
486.534	3.65
486.735	3.6
486.936	3.57
487.138	3.62
487.339	3.69
487.541	3.78
487.742	3.87
487.943	3.88
488.144	3.92
488.346	3.96
488.547	3.91
488.748	4
488.95	4.07
489.151	4.11
489.352	4.05
489.553	3.89
489.755	3.84
489.956	3.84
490.157	3.88
490.358	3.84
490.559	3.72
490.76	3.66
490.961	3.51
491.163	3.54
491.364	3.57
491.565	3.69
491.766	3.78
491.967	3.78
492.168	3.8
492.369	3.8
492.57	3.8
492.771	3.82
492.972	3.85
493.173	3.87
493.374	3.94
493.575	3.91
493.776	3.81
493.976	3.88
494.177	3.78
494.378	3.7
494.579	3.67
494.78	3.62
494.981	3.64
495.182	3.59
495.382	3.73
495.583	3.48
495.784	3.53
495.985	3.56
496.185	3.47
496.386	3.72
496.587	3.69
496.788	3.76
496.988	3.72
497.189	3.8
497.39	3.9
497.59	4.01
497.791	4.24
497.992	4.21
498.192	4.25
498.393	4.34
498.593	4.22
498.794	4.1
498.994	4.04
499.195	4.11
499.395	3.99
499.596	4.03
499.796	3.83
499.997	3.77
500.197	3.86
500.398	3.91
500.598	3.91
500.799	3.69
500.999	3.83
501.199	3.83
501.4	3.99
501.6	4.1
501.801	4.11
502.001	4.17
502.201	3.93
502.402	3.94
502.602	3.7
502.802	3.63
503.002	3.86
503.203	3.88
503.403	3.87
503.603	3.78
503.803	3.92
504.003	3.99
504.204	3.99
504.404	4.35
504.604	4.26
504.804	4.33
505.004	4.42
505.204	4.55
505.404	4.67
505.604	4.62
505.804	4.57
506.005	4.55
506.205	4.62
506.405	4.68
506.605	4.42
506.805	4.47
507.005	4.63
507.204	4.46
507.404	4.17
507.604	4.1
507.804	4.22
508.004	4.15
508.204	4.08
508.404	4.03
508.604	4.01
508.804	4.17
509.003	4.28
509.203	4.28
509.403	4.41
509.603	4.67
509.803	4.56
510.002	4.39
510.202	4.54
510.402	4.45
510.602	4.38
510.801	4.41
511.001	4.34
511.201	4.27
511.4	4.36
511.6	4.39
511.8	4.34
511.999	4.4
512.199	4.56
512.398	4.67
512.598	4.82
512.797	4.85
512.997	4.9
513.197	4.89
513.396	4.75
513.596	4.58
513.795	4.39
513.994	4.34
514.194	4.36
514.393	4.53
514.593	4.48
514.792	4.36
514.992	4.38
515.191	4.22
515.39	4.46
515.59	4.6
515.789	4.77
515.988	5.04
516.188	5.07
516.387	5.08
516.586	4.99
516.786	4.74
516.985	4.81
517.184	4.86
517.383	5.02
517.582	4.88
517.782	4.88
517.981	4.71
518.18	4.77
518.379	4.78
518.578	4.77
518.777	4.78
518.976	4.98
519.176	5.01
519.375	4.98
519.574	4.95
519.773	4.92
519.972	5.08
520.171	5.21
520.37	5.09
520.569	5.2
520.768	5.19
520.967	5.16
521.166	5.11
521.365	5.06
521.564	5.06
521.762	5.11
521.961	5.12
522.16	4.97
522.359	4.95
522.558	5.02
522.757	4.95
522.956	4.94
523.154	4.88
523.353	5.07
523.552	5.1
523.751	5.1
523.949	5.15
524.148	5.14
524.347	5.11
524.546	5.15
524.744	5.25
524.943	5.31
525.142	5.63
525.34	5.67
525.539	5.58
525.737	5.59
525.936	5.67
526.135	5.57
526.333	5.68
526.532	5.71
526.73	5.65
526.929	5.64
527.127	5.6
527.326	5.45
527.524	5.52
527.723	5.56
527.921	5.66
528.12	5.75
528.318	5.89
528.516	5.93
528.715	6.01
528.913	6.1
529.112	6.13
529.31	6.18
529.508	6.24
529.707	6.28
529.905	6.33
530.103	6.38
530.301	6.4
530.5	6.32
530.698	6.31
530.896	6.34
531.094	6.34
531.293	6.31
531.491	6.36
531.689	6.42
531.887	6.5
532.085	6.45
532.283	6.41
532.481	6.36
532.68	6.46
532.878	6.54
533.076	6.53
533.274	6.63
533.472	6.59
533.67	6.51
533.868	6.46
534.066	6.42
534.264	6.46
534.462	6.53
534.66	6.55
534.858	6.58
535.056	6.56
535.253	6.66
535.451	6.57
535.649	6.84
535.847	6.97
536.045	7.14
536.243	7.19
536.441	7.11
536.638	7.09
536.836	7.15
537.034	7.22
537.232	7.33
537.43	7.29
537.627	7.35
537.825	7.06
538.023	7.03
538.22	7.01
538.418	6.87
538.616	7.22
538.813	7.26
539.011	7.21
539.209	7.24
539.406	7.17
539.604	7.22
539.801	7.25
539.999	7.56
540.196	7.66
540.394	7.66
540.591	7.86
540.789	7.81
540.986	7.87
541.184	7.97
541.381	7.99
541.579	8.08
541.776	8.09
541.974	8.14
542.171	8.15
542.368	8.17
542.566	8.24
542.763	8.3
542.96	8.37
543.158	8.34
543.355	8.33
543.552	8.34
543.75	8.39
543.947	8.54
544.144	8.59
544.341	8.67
544.539	8.77
544.736	8.83
544.933	8.9
545.13	8.88
545.327	9.05
545.524	9.15
545.722	9.27
545.919	9.22
546.116	9.17
546.313	9.23
546.51	9.24
546.707	9.21
546.904	9.11
547.101	9.1
547.298	9.26
547.495	9.32
547.692	9.35
547.889	9.33
548.086	9.4
548.283	9.54
548.48	9.65
548.677	9.61
548.874	9.67
549.07	9.71
549.267	9.88
549.464	9.81
549.661	9.79
549.858	9.87
550.055	9.92
550.251	10.03
550.448	9.98
550.645	9.79
550.842	10.28
551.038	10.34
551.235	10.75
551.432	10.47
551.628	10.62
551.825	10.72
552.022	10.69
552.218	10.65
552.415	10.7
552.612	10.76
552.808	11.05
553.005	10.88
553.201	11
553.398	10.86
553.594	11.01
553.791	10.92
553.987	10.96
554.184	11.13
554.38	11.32
554.577	11.46
554.773	11.61
554.97	11.47
555.166	11.48
555.362	11.41
555.559	11.6
555.755	11.52
555.952	11.8
556.148	11.75
556.344	11.71
556.541	11.53
556.737	11.56
556.933	11.35
557.129	11.59
557.326	11.55
557.522	11.58
557.718	11.43
557.914	11.78
558.11	11.74
558.307	11.92
558.503	11.9
558.699	12.01
558.895	12
559.091	12.1
559.287	12.26
559.483	12.1
559.679	12.32
559.876	12.59
560.072	12.6
560.268	12.5
560.464	12.63
560.66	12.79
560.856	13.15
561.052	12.95
561.247	12.98
561.443	13
561.639	13.38
561.835	13.52
562.031	13.42
562.227	13.31
562.423	13.53
562.619	13.49
562.815	13.66
563.01	13.61
563.206	14.05
563.402	14.23
563.598	14.09
563.793	14.16
563.989	14.19
564.185	14.53
564.381	14.76
564.576	14.8
564.772	14.86
564.968	14.92
565.163	15.07
565.359	14.97
565.555	15.21
565.75	15.49
565.946	15.49
566.141	15.49
566.337	15.51
566.532	15.49
566.728	15.47
566.923	15.52
567.119	15.65
567.314	15.61
567.51	15.64
567.705	15.57
567.901	15.46
568.096	15.48
568.292	15.62
568.487	15.71
568.682	15.78
568.878	16.05
569.073	16
569.268	16.11
569.464	16.2
569.659	16.35
569.854	16.45
570.05	16.52
570.245	16.58
570.44	16.62
570.635	16.59
570.831	16.61
571.026	16.64
571.221	16.79
571.416	16.64
571.611	16.67
571.806	16.78
572.002	16.77
572.197	16.9
572.392	16.92
572.587	16.9
572.782	16.86
572.977	16.75
573.172	16.54
573.367	16.73
573.562	16.66
573.757	16.76
573.952	16.85
574.147	16.99
574.342	17.09
574.537	17.14
574.732	17.14
574.927	17.34
575.121	17.42
575.316	17.55
575.511	17.43
575.706	17.65
575.901	17.55
576.096	17.44
576.29	17.49
576.485	17.35
576.68	17.54
576.875	17.69
577.069	17.57
577.264	17.82
577.459	17.72
577.654	17.55
577.848	17.41
578.043	17.53
578.238	17.46
578.432	17.19
578.627	17.21
578.821	17.31
579.016	17.16
579.21	17.29
579.405	17.32
579.6	17.57
579.794	17.8
579.989	18.04
580.183	18.08
580.378	18.34
580.572	18.73
580.766	18.7
580.961	18.51
581.155	18.63
581.35	18.31
581.544	18.27
581.738	18.33
581.933	18.41
582.127	18.12
582.321	18.09
582.516	18.22
582.71	18.06
582.904	18.11
583.099	18.27
583.293	18.24
583.487	18.61
583.681	18.71
583.875	18.84
584.07	18.84
584.264	19.26
584.458	19.34
584.652	19.27
584.846	19.01
585.04	19.16
585.234	18.92
585.428	18.96
585.623	18.87
585.817	18.88
586.011	18.95
586.205	19.13
586.399	19.36
586.593	19.25
586.787	19.4
586.981	19.61
587.174	19.33
587.368	19.34
587.562	19.33
587.756	19.29
587.95	19.15
588.144	18.93
588.338	18.92
588.532	18.83
588.725	18.85
588.919	18.81
589.113	18.92
589.307	19.15
589.501	19.22
589.694	19.47
589.888	19.52
590.082	19.5
590.275	19.39
590.469	19.56
590.663	19.33
590.856	19.42
591.05	19.17
591.244	19.22
591.437	19.25
591.631	19.34
591.824	19.27
592.018	19.13
592.212	19.49
592.405	19.62
592.599	19.42
592.792	19.62
592.986	19.63
593.179	19.79
593.372	19.6
593.566	19.55
593.759	19.72
593.953	19.56
594.146	19.89
594.339	19.52
594.533	19.88
594.726	20.12
594.92	20.14
595.113	20.15
595.306	20.34
595.499	20.44
595.693	20.29
595.886	20.03
596.079	20.09
596.272	19.87
596.466	19.79
596.659	19.49
596.852	19.31
597.045	19.31
597.238	19.28
597.431	19.06
597.624	19.23
597.818	19.36
598.011	19.49
598.204	19.33
598.397	19.46
598.59	19.79
598.783	19.82
598.976	19.94
599.169	19.73
599.362	19.68
599.555	19.77
599.748	19.55
599.941	19.37
600.134	19.65
600.326	19.99
600.519	20.02
600.712	19.73
600.905	19.91
601.098	19.67
601.291	19.65
601.483	20.03
601.676	19.87
601.869	19.85
602.062	20.21
602.255	19.93
602.447	20.02
602.64	20.09
602.833	20.59
603.025	20.68
603.218	20.7
603.411	21.01
603.603	20.92
603.796	21.12
603.989	21.13
604.181	21.22
604.374	21.48
604.566	21.42
604.759	21.51
604.951	21.34
605.144	21.36
605.336	21.43
605.529	21.43
605.721	21.32
605.914	21.25
606.106	21.5
606.299	21.57
606.491	21.29
606.683	21.43
606.876	21.44
607.068	21.52
607.26	21.41
607.453	21.28
607.645	21.47
607.837	21.62
608.03	21.6
608.222	21.46
608.414	21.35
608.606	21.51
608.799	21.6
608.991	21.55
609.183	21.1
609.375	21.08
609.567	21.16
609.759	20.83
609.952	20.94
610.144	20.93
610.336	20.84
610.528	20.86
610.72	20.91
610.912	20.71
611.104	20.73
611.296	21.02
611.488	21.08
611.68	21.08
611.872	21.19
612.064	20.71
612.256	20.59
612.448	20.88
612.64	20.76
612.832	20.37
613.023	20.52
613.215	20.19
613.407	20.25
613.599	20.31
613.791	20.5
613.983	20.25
614.174	20.61
614.366	20.84
614.558	20.99
614.75	21.16
614.941	21.21
615.133	21.34
615.325	21.57
615.516	21.36
615.708	21.15
615.9	21.3
616.091	21.31
616.283	21.19
616.475	21.08
616.666	20.77
616.858	20.74
617.049	21.18
617.241	20.83
617.432	20.63
617.624	20.58
617.815	20.76
618.007	20.42
618.198	20.88
618.39	20.97
618.581	21.02
618.773	21.2
618.964	21.2
619.155	21.1
619.347	21.21
619.538	21.19
619.729	21.83
619.921	21.84
620.112	21.95
620.303	21.49
620.494	21.3
620.686	21.48
620.877	21.49
621.068	21.42
621.259	21.48
621.451	21.57
621.642	21.86
621.833	21.62
622.024	21.62
622.215	21.47
622.406	21.71
622.597	22.03
622.788	21.8
622.98	21.49
623.171	21.73
623.362	21.5
623.553	21.49
623.744	21.53
623.935	21.53
624.126	21.52
624.317	21.6
624.508	21.7
624.698	21.66
624.889	21.83
625.08	22.32
625.271	22.15
625.462	22.34
625.653	22.03
625.844	22.07
626.034	22.09
626.225	22.14
626.416	22.41
626.607	22.16
626.798	22.11
626.988	21.98
627.179	21.75
627.37	21.72
627.56	21.77
627.751	21.99
627.942	22.1
628.132	21.93
628.323	22.11
628.514	22
628.704	22.3
628.895	22.66
629.085	22.76
629.276	23.01
629.466	22.89
629.657	22.71
629.847	22.73
630.038	22.63
630.228	22.69
630.419	22.55
630.609	22.6
630.8	22.34
630.99	21.82
631.181	22.04
631.371	21.56
631.561	21.72
631.752	21.89
631.942	21.89
632.132	21.87
632.323	22.05
632.513	21.93
632.703	21.74
632.893	22.1
633.084	22.57
633.274	22.47
633.464	22.48
633.654	22.34
633.844	22.23
634.034	22.25
634.225	22.25
634.415	22.36
634.605	22.22
634.795	22.35
634.985	22.33
635.175	22.18
635.365	21.89
635.555	22.1
635.745	22.19
635.935	21.99
636.125	21.74
636.315	21.39
636.505	21.27
636.695	21.51
636.885	21.25
637.075	21.48
637.265	21.49
637.455	21.93
637.644	21.59
637.834	21.49
638.024	21.58
638.214	21.81
638.404	22.31
638.593	22.24
638.783	22.23
638.973	22.42
639.163	22.14
639.352	22.32
639.542	22.21
639.732	22.51
639.921	22.55
640.111	23.12
640.301	23.11
640.49	22.76
640.68	22.66
640.87	22.42
641.059	22.29
641.249	22.08
641.438	21.84
641.628	22.15
641.817	22.1
642.007	22.09
642.196	21.86
642.386	21.96
642.575	22.04
642.764	21.94
642.954	22.1
643.143	22.56
643.333	22.94
643.522	22.93
643.711	22.42
643.901	22.43
644.09	22.77
644.279	22.64
644.469	22.85
644.658	22.72
644.847	22.69
645.036	22.72
645.226	22.23
645.415	22.13
645.604	22.05
645.793	22.13
645.982	22.18
646.171	22.14
646.361	22.56
646.55	22.46
646.739	22.51
646.928	22.59
647.117	22.35
647.306	22.66
647.495	22.17
647.684	21.96
647.873	21.76
648.062	21.92
648.251	21.55
648.44	21.18
648.629	20.87
648.818	20.94
649.007	21.11
649.196	21.57
649.384	21.81
649.573	22.38
649.762	22.59
649.951	22.92
650.14	22.71
650.328	22.99
650.517	22.97
650.706	23.14
650.895	23.07
651.083	23.19
651.272	23.06
651.461	22.61
651.65	22.7
651.838	22.68
652.027	22.43
652.216	22.3
652.404	21.77
652.593	21.6
652.781	21.52
652.97	21.33
653.158	21.13
653.347	21.18
653.535	21.31
653.724	21.31
653.912	21.35
654.101	21.37
654.289	21.18
654.478	21.72
654.666	21.69
654.855	21.74
655.043	21.81
655.231	21.67
655.42	21.8
655.608	21.47
655.796	21.07
655.985	20.91
656.173	21.09
656.361	21.89
656.55	21.53
656.738	21.7
656.926	21.43
657.114	21.56
657.302	21.75
657.491	21.78
657.679	22.34
657.867	22.13
658.055	22.43
658.243	22.36
658.431	22.23
658.619	22.74
658.807	22.91
658.996	23.14
659.184	23.11
659.372	23.19
659.56	22.86
659.748	22.54
659.936	22.74
660.124	22.72
660.311	22.93
660.499	22.88
660.687	22.71
660.875	22.6
661.063	22.41
661.251	22.61
661.439	22.43
661.627	22.65
661.814	22.6
662.002	22.92
662.19	23
662.378	23.03
662.565	23.3
662.753	23.18
662.941	23.23
663.129	23.39
663.316	23.59
663.504	24.13
663.692	24.52
663.879	24.79
664.067	24.46
664.254	24.27
664.442	23.94
664.63	23.55
664.817	23.39
665.005	23.57
665.192	23.66
665.38	23.43
665.567	22.81
665.755	22.12
665.942	22.08
666.13	21.93
666.317	21.76
666.504	21.68
666.692	21.41
666.879	21.79
667.067	21.48
667.254	21.26
667.441	21.54
667.629	21.99
667.816	22.28
668.003	22.55
668.19	23.4
668.378	23.43
668.565	23.51
668.752	23.68
668.939	23.69
669.127	23.71
669.314	23.85
669.501	23.56
669.688	23.54
669.875	23.46
670.062	22.93
670.249	22.32
670.436	22.58
670.623	22.49
670.81	22.83
670.997	22.63
671.184	22.63
671.371	22.68
671.558	22.34
671.745	22.18
671.932	21.82
672.119	21.95
672.306	21.53
672.493	21.74
672.68	21.52
672.867	21.09
673.054	21.4
673.24	21.35
673.427	21.09
673.614	21.66
673.801	21.8
673.988	22.5
674.174	23.17
674.361	23.45
674.548	22.97
674.734	23.42
674.921	23.62
675.108	23.18
675.294	23.37
675.481	23.68
675.668	23.45
675.854	23.46
676.041	23.14
676.227	22.85
676.414	22.8
676.601	23.57
676.787	23.91
676.974	23.56
677.16	23.7
677.347	23.4
677.533	22.96
677.719	23.13
677.906	22.74
678.092	23.19
678.279	23.07
678.465	23.11
678.651	22.39
678.838	22.14
679.024	22.43
679.21	22.74
679.397	22.92
679.583	23.19
679.769	23.06
679.955	23.47
680.142	23.26
680.328	23.69
680.514	23.74
680.7	23.8
680.886	23.73
681.073	23.5
681.259	23.2
681.445	23.21
681.631	23.03
681.817	23.24
682.003	23.35
682.189	23.31
682.375	22.97
682.561	23.17
682.747	23.24
682.933	23.27
683.119	23.33
683.305	23.18
683.491	23.43
683.677	23.53
683.863	23.34
684.049	23.02
684.235	23.04
684.42	22.56
684.606	22.16
684.792	22.23
684.978	22.81
685.164	23.2
685.349	23.54
685.535	23.35
685.721	23.61
685.907	24.19
686.092	24.43
686.278	24.4
686.464	25.1
686.649	25.47
686.835	25.81
687.021	26.16
687.206	25.93
687.392	26.5
687.577	26.23
687.763	26.29
687.948	25.78
688.134	25.66
688.319	25.65
688.505	25.54
688.69	25.23
688.876	24.73
689.061	24.11
689.247	24.17
689.432	23.88
689.618	24.08
689.803	23.52
689.988	23.95
690.174	23.84
690.359	23.67
690.544	23.75
690.73	24.01
690.915	23.84
691.1	23.51
691.285	23.75
691.471	23.47
691.656	23.02
691.841	24.06
692.026	23.54
692.211	23.43
692.396	23.22
692.582	22.92
692.767	22.82
692.952	23.19
693.137	23.79
693.322	23.68
693.507	23.67
693.692	23.72
693.877	23.65
694.062	23.79
694.247	23.3
694.432	23.74
694.617	23.64
694.802	23.92
694.987	23.93
695.172	23.56
695.357	23.21
695.541	22.6
695.726	23.06
695.911	22.06
696.096	22.23
696.281	23.09
696.466	23.07
696.65	23.48
696.835	22.88
697.02	22.62
697.204	23.05
697.389	23.2
697.574	23.89
697.759	23.81
697.943	24.17
698.128	24.36
698.312	24.02
698.497	24.25
698.682	24.47
698.866	24.91
699.051	25.24
699.235	24.98
699.42	24.95
699.604	24.92
699.789	25.23
699.973	25.37
700.158	25.03
700.342	25.47
700.527	25.19
700.711	24.68
700.895	24.73
701.08	24.32
701.264	24.12
701.448	24.23
701.633	24.45
701.817	23.78
702.001	22.95
702.186	22.68
702.37	22.13
702.554	22.5
702.738	22.71
702.923	22.1
703.107	21.4
703.291	21.51
703.475	21.66
703.659	21.55
703.843	22.28
704.027	23.26
704.212	23.32
704.396	23.52
704.58	22.85
704.764	22.85
704.948	23.38
705.132	24.07
705.316	24.51
705.5	24.01
705.684	23.88
705.868	23.61
706.052	23.16
706.235	23.72
706.419	24.77
706.603	25.82
706.787	25.87
706.971	25.38
707.155	25.73
707.339	25.51
707.522	25.68
707.706	24.82
707.89	24.91
708.074	24.68
708.257	24.23
708.441	23.26
708.625	22.55
708.808	22.19
708.992	22.65
709.176	23.33
709.359	22.71
709.543	22.55
709.727	22.75
709.91	22.94
710.094	23.45
710.277	23.7
710.461	22.52
710.644	21.91
710.828	22.49
711.011	22.4
711.195	21.46
711.378	22.26
711.562	21.84
711.745	22.14
711.928	21.42
712.112	21.43
712.295	21.22
712.478	22.63
712.662	23.13
712.845	22.68
713.028	22.6
713.212	23.3
713.395	22.32
713.578	22.82
713.761	23.21
713.945	23.73
714.128	23.43
714.311	23.67
714.494	22.7
714.677	22.71
714.86	22.77
715.043	23.13
715.227	22.23
715.41	22.32
715.593	22.92
715.776	23.28
715.959	23.63
716.142	23.42
716.325	22.89
716.508	23.96
716.691	24.02
716.874	23.89
717.057	23.6
717.239	24.27
717.422	24.14
717.605	23.6
717.788	22.56
717.971	22.1
718.154	22.68
718.337	23.45
718.519	23.05
718.702	23.02
718.885	23.08
719.068	23.27
719.25	23.59
719.433	24.74
719.616	25.57
719.798	25.82
719.981	25.17
720.164	24.75
720.346	24.57
720.529	24.32
720.712	23.85
720.894	23.56
721.077	23.29
721.259	22.65
721.442	22.16
721.624	21.15
721.807	21.9
721.989	23.09
722.172	23.08
722.354	23.17
722.537	23.33
722.719	23.34
722.901	23.83
723.084	23.81
723.266	24.53
723.448	24.63
723.631	24.98
723.813	23.85
723.995	23.09
724.178	22.67
724.36	21.95
724.542	21.5
724.724	22.64
724.907	22.94
725.089	23.12
725.271	21.07
725.453	20.86
725.635	19.92
725.817	19.59
725.999	18.8
726.181	19.29
726.364	19.82
726.546	20.16
726.728	20.12
726.91	19.77
727.092	18.81
727.274	20.27
727.456	20.84
727.638	21.8
727.819	22.46
728.001	22.39
728.183	22.99
728.365	23.63
728.547	23.54
728.729	22.68
728.911	22.56
729.093	23.86
729.274	23.93
729.456	24.34
729.638	23.51
729.82	23.75
730.001	24.16
730.183	23.34
730.365	23.03
730.546	22.72
730.728	22.85
730.91	22.46
731.091	21.9
731.273	21
731.455	21.07
731.636	21.3
731.818	21.12
731.999	21.76
732.181	21.91
732.362	22.58
732.544	23.66
732.725	24.25
732.907	25.45
733.088	25.4
733.27	25.95
733.451	24.95
733.633	26.88
733.814	26.84
733.995	26.25
734.177	26.86
734.358	25.27
734.539	24.74
734.721	24.62
734.902	23.28
735.083	23.73
735.264	23.74
735.446	23.78
735.627	21.46
735.808	21.7
735.989	22.24
736.17	21.86
736.351	22.3
736.533	21.51
736.714	21.12
736.895	22.5
737.076	22.11
737.257	22.7
737.438	22.65
737.619	23
737.8	22.91
737.981	22.54
738.162	22.65
738.343	22.43
738.524	22.11
738.705	22.11
738.886	20.79
739.067	20.73
739.247	20.2
739.428	19.85
739.609	20.22
739.79	22.14
739.971	22.03
740.151	21.77
740.332	21.95
740.513	23.1
740.694	23.44
740.874	23.84
741.055	24.35
741.236	25.19
741.417	25.85
741.597	26.05
741.778	23.9
741.958	24.28
742.139	25.33
742.32	26.03
742.5	26.43
742.681	26.85
742.861	26.03
743.042	26.34
743.222	25.86
743.403	25.33
743.583	25.02
743.764	25.54
743.944	24.54
744.124	23.99
744.305	24.51
744.485	25.48
744.666	23.75
744.846	25.12
745.026	23.41
745.207	23.12
745.387	24.01
745.567	23.68
745.747	22.3
745.928	23
746.108	24.4
746.288	23.5
746.468	19.81
746.648	22.53
746.829	22.6
747.009	22.21
747.189	21.85
747.369	21.97
747.549	23.1
747.729	22.83
747.909	22.86
748.089	20.43
748.269	20.38
748.449	22.21
748.629	20.66
748.809	19.65
748.989	21.83
749.169	22.03
749.349	21.67
749.529	21.19
749.709	22.34
749.889	23.02
750.068	22.94
750.248	22.34
750.428	22.17
750.608	21.4
750.788	22.71
750.967	23.23
751.147	24.15
751.327	24.47
751.507	23.3
751.686	23
751.866	21.96
752.046	22.48
752.225	23.09
752.405	24.49
752.585	23.87
752.764	23.44
752.944	21.14
753.123	21.01
753.303	20.86
753.482	22.11
753.662	22.28
753.841	21.31
754.021	22.25
754.2	22.28
754.38	22.18
754.559	23.84
754.739	24.42
754.918	25.12
755.097	24.28
755.277	23.15
755.456	22.68
755.635	21.97
755.815	23.55
755.994	23.42
756.173	23.79
756.352	23.11
756.532	21.75
756.711	20.94
756.89	22.26
757.069	22.46
757.248	23.78
757.427	23.9
757.607	23.37
757.786	22.9
757.965	21.89
758.144	21.46
758.323	20.1
758.502	20.23
758.681	19.28
758.86	18.29
759.039	18.58
759.218	18.47
759.397	18.19
759.576	20.07
759.755	20.49
759.934	20.29
760.113	20.29
760.291	21.1
760.47	21.93
760.649	22.34
760.828	24.13
761.007	24.61
761.186	23.66
761.364	23.5
761.543	22.67
761.722	23.12
761.901	25.58
762.079	24.56
762.258	24.7
762.437	25.09
762.615	26.59
762.794	25.86
762.972	25.19
763.151	25.11
763.33	25.82
763.508	26.05
763.687	26.12
763.865	24.38
764.044	24.42
764.222	23.96
764.401	23.08
764.579	22.18
764.758	21.37
764.936	21.18
765.114	22.35
765.293	20.42
765.471	20.05
765.65	18.8
765.828	19.69
766.006	20.51
766.184	21.98
766.363	22.51
766.541	21.73
766.719	21.47
766.898	21.53
767.076	19.65
767.254	21.24
767.432	20.56
767.61	20.3
767.788	19.04
767.967	19.05
768.145	16.34
768.323	16.15
768.501	17.84
768.679	17.03
768.857	16.42
769.035	19.51
769.213	19.53
769.391	18.97
769.569	19.33
769.747	20.86
769.925	19.42
770.103	20.04
770.281	21.29
770.459	19.16
770.636	21.41
770.814	23.03
770.992	20.6
771.17	20.95
771.348	23.05
771.525	21.64
771.703	18.86
771.881	20.49
772.059	20.67
772.236	18.03
772.414	16.18
772.592	15.56
772.769	14.48
772.947	14.85
773.125	17.13
773.302	16.33
773.48	19.51
773.657	23.07
773.835	23.76
774.013	23.29
774.19	24.9
774.368	24.76
774.545	23.53
774.723	24.43
774.9	25.1
775.077	21.58
775.255	21.46
775.432	21.15
775.61	20.51
775.787	18.88
775.964	20.99
776.142	19.72
776.319	20.65
776.496	22.03
776.674	22.88
776.851	22.44
777.028	23.81
777.205	23.02
777.382	22.52
777.56	21.28
777.737	20.18
777.914	17.34
778.091	20.12
778.268	22.04
778.445	18.34
778.622	17.65
778.8	16.69
778.977	15.14
779.154	15.12
779.331	15.05
779.508	15.42
779.685	16.17
779.862	18.8
780.038	16.79
780.215	16.58
780.392	18.02
780.569	13.39
780.746	10.91
780.923	12
781.1	11.03
781.277	11.18
781.453	7.06
781.63	8.51
781.807	9.36
781.984	10.45
782.16	9.84
782.337	10.65
782.514	14.77
782.691	19.85
782.867	17.76
783.044	19.73
783.221	20.56
783.397	23.75
783.574	21.76
783.75	17.7
783.927	14.63
784.103	13.31
784.28	13.92
784.456	15.68
784.633	15.35
784.809	16.59
784.986	14.23
785.162	13.41
785.339	11.23
785.515	8.96
785.692	15.37
785.868	17.24
786.044	19.6
786.221	20.12
786.397	18.63
786.573	19.84
786.749	19.08
786.926	18.85
787.102	18.91
787.278	22.16
787.454	25.11
787.631	21.01
787.807	21.8
787.983	17.17
788.159	16.23
788.335	16.26
788.511	15.9
788.687	16.94
788.863	18.23
789.039	15.99
789.216	13.96
789.392	14
789.568	15.63
789.744	16.1
789.919	19.22
790.095	19.52
790.271	17.63
790.447	14.74
790.623	14.2
790.799	13.05
790.975	15
791.151	17.04
791.327	18.01
791.502	14.66
791.678	9.38
791.854	8.68
792.03	6.06
792.205	10.79
792.381	10.15
792.557	7.21
792.733	9.4
792.908	14.13
793.084	7.83
793.259	4.82
793.435	10.94
793.611	16.18
793.786	17.02
793.962	22.9
794.137	20.32
794.313	21.8
794.488	25.31
794.664	26.3
794.839	22.04
795.015	24.06
795.19	27.24
795.366	23.4
795.541	23.15
795.716	20.68
795.892	18.95
796.067	17.76
796.242	21.02
796.418	21.48
796.593	20.31
796.768	19.38
796.944	19.02
797.119	19.6
797.294	20.48
797.469	17.94
797.644	21.83
797.82	20.11
797.995	21.96
798.17	18.32
798.345	18.04
798.52	17.77
798.695	16.95
798.87	19.47
799.045	17.03
799.22	15.44
799.395	18.01
799.57	18.92
799.745	19.73
799.92	18.02
800.095	17.47
800.27	16.11
800.445	15.81
800.62	15.85
800.795	10.11
800.97	5.69
801.145	8.86
801.319	4.76
801.494	1.94
801.669	-0.05
801.844	3.57
802.018	6.48
802.193	7.14
802.368	10.64
802.543	10.96
802.717	17.37
802.892	21.19
803.067	22.9
803.241	27
803.416	26.92
803.59	31.64
803.765	30.63
803.94	27.92
804.114	24.58
804.289	20.93
804.463	22.25
804.638	21.93
804.812	19.18
804.986	18.99
805.161	12.36
805.335	10.17
805.51	8.65
805.684	8.89
805.858	11.24
806.033	11.83
806.207	13.31
806.381	9.46
806.556	7.03
806.73	9.17
806.904	9.59
807.078	15.82
807.253	15.91
807.427	15.58
807.601	15.94
807.775	16.14
807.949	15.79
808.123	13.45
808.298	14.52
808.472	16.51
808.646	16.29
808.82	11.96
808.994	7.79
809.168	11.98
809.342	11.96
809.516	14.49
809.69	15.62
809.864	19.77
810.038	20.06
810.212	19.97
810.385	16.4
810.559	16.76
810.733	18.49
810.907	26.23
811.081	25.87
811.255	27.27
811.428	15.29
811.602	10.01
811.776	2.52
811.95	4.65
812.123	4.25
812.297	3.25
812.471	2.2
812.644	8.6
812.818	3.72
812.992	0.02
813.165	-4.35
813.339	4.22
813.512	7.02
813.686	11.98
813.86	14.15
814.033	14.53
814.207	18.65
814.38	19.92
814.554	8.19
814.727	6.96
814.9	8.79
815.074	10.8
815.247	14.32
815.421	13.01
815.594	12.58
815.767	18.11
815.941	18.61
816.114	12.46
816.287	16.47
816.46	18.93
816.634	14.48
816.807	4.8
816.98	3.52
817.153	0.87
817.327	1.81
817.5	1.03
817.673	-10.7
817.846	-13.59
818.019	-12.98
818.192	-17.61
818.365	-17.23
818.538	-14.65
818.711	0.41
818.884	6.46
819.057	6.44
819.23	10.54
819.403	7.84
819.576	13.11
819.749	18.04
819.922	21.87
820.095	20.76
820.268	24.56
820.441	23.5
820.614	23.87
820.786	22.77
820.959	24.64
821.132	23.06
821.305	25.63
821.477	25.28
821.65	25.13
821.823	25.34
821.996	26.2
822.168	25.78
822.341	27.46
822.514	27.05
822.686	26.36
822.859	25.07
823.031	25.18
823.204	25.23
823.376	25.93
823.549	25.75
823.722	24.98
823.894	25.1
824.067	24.8
824.239	25.13
824.411	25.21
824.584	25.63
824.756	26.25
824.929	26.52
825.101	25.6
825.273	24.34
825.446	24.72
825.618	26.5
825.79	25.3
825.963	25.81
826.135	23.8
826.307	23.8
826.479	23.42
826.652	23.24
826.824	24.16
826.996	24.2
827.168	24.66
827.34	24.52
827.512	21.96
827.684	22.38
827.856	23.67
828.029	22.85
828.201	22.29
828.373	20.9
828.545	20.52
828.717	18.1
828.889	18.86
829.061	17.8
829.232	16.48
829.404	19.11
829.576	18.82
829.748	15.66
829.92	16.85
830.092	18.29
830.264	20.5
830.436	21.92
830.607	23.42
830.779	22.2
830.951	23.6
831.123	24.48
831.294	20.51
831.466	21.66
831.638	23.84
831.809	24.11
831.981	18.61
832.153	14.72
832.324	15.06
832.496	10.71
832.667	15.23
832.839	13.46
833.011	14.51
833.182	15.33
833.354	15.14
833.525	16.24
833.697	19.14
833.868	21.13
834.039	25.46
834.211	21.01
834.382	24.19
834.554	23.68
834.725	27.44
834.896	26.52
835.068	26.84
835.239	26.59
835.41	24.99
835.581	22.22
835.753	22.39
835.924	19.62
836.095	23.09
836.266	22.49
836.438	23.21
836.609	19.49
836.78	16.89
836.951	13.06
837.122	11.67
837.293	8.24
837.464	10.4
837.635	10.75
837.806	9.34
837.977	6.19
838.148	1.34
838.319	-8.66
838.49	-16.76
838.661	-15.11
838.832	-8.03
839.003	-11.85
839.174	-13.64
839.345	-15.36
839.516	-10.79
839.687	-14.2
839.857	-13.95
840.028	-7.86
840.199	0.5
840.37	12.49
840.54	15.03
840.711	15.18
840.882	24.79
841.053	27.74
841.223	30.86
841.394	20.03
841.564	20.42
841.735	11.89
841.906	9.96
842.076	0.38
842.247	-5.28
842.417	-0.66
842.588	-3.79
842.758	-30.77
842.929	-15.84
843.099	-16.44
843.27	-26.42
843.44	-31.35
843.611	-11.53
843.781	-20.33
843.951	-6.62
844.122	-13.3
844.292	-9.26
844.462	-12.28
844.633	0.9
844.803	2.39
844.973	-14.5
845.144	-29.45
845.314	-25.2
845.484	-62.86
845.654	-32.64
845.824	-29.46
845.995	-6.5
846.165	-19.43
846.335	-7.76
846.505	-0.44
846.675	-15.49
846.845	-14.72
847.015	4.7
847.185	8.06
847.355	25.75
847.525	10.41
847.695	10.74
847.865	-10.43
848.035	-10.93
848.205	-48.24
848.375	-43.63
848.545	-57.53
848.715	-118.89
848.884	-246.37
849.054	-102.73
849.224	-184.87
849.394	-107.59
849.564	-152.43
849.733	-182.72
849.903	-167.35
850.073	-158.11
850.243	-281.14
850.412	-85.18
850.582	-57.16
850.752	-67.03
850.921	-58.66
851.091	-72.21
851.26	-88.04
851.43	-86.83
851.599	-44.83
851.769	-18.54
851.939	-16.76
852.108	-31.49
852.278	-56.38
852.447	-81.93
852.616	-60.41
852.786	-120.76
852.955	-55.27
853.125	-81.5
853.294	-109.47
853.463	-239.64
853.633	-348.17
853.802	270.21
853.971	276.58
854.141	1546.93
854.31	-160.35
854.479	12.04
854.648	22.53
854.818	-16.34
854.987	-7.05
855.156	13.43
855.325	35.84
855.494	-13.3
855.663	1.65
855.832	2.59
856.001	-18.69
856.171	-15.7
856.34	-87.06
856.509	-74.07
856.678	-171.77
856.847	-82
857.016	-44.01
857.185	-27.22
857.353	-32.72
857.522	1.57
857.691	-15.45
857.86	-27.56
858.029	-41.65
858.198	-25.66
858.367	-80.43
858.535	-17.04
858.704	-102.29
858.873	-108.42
859.042	-68.62
859.21	-106.23
859.379	-150.95
859.548	-362.24
859.717	-304.67
859.885	-910.62
860.054	584.96
860.222	668.26
860.391	-738.41
860.56	-210.87
860.728	-213.22
860.897	-183.41
861.065	-139.13
861.234	-102.13
861.402	-94.3
861.571	-102.54
861.739	-117.27
861.908	-223.64
862.076	-156.84
862.244	-70.46
862.413	-197.22
862.581	-190.09
862.749	22516.67
862.918	638.13
863.086	804.24
863.254	-655.23
863.423	2322.35
863.591	-256.27
863.759	-78.02
863.927	-49.05
864.096	-157.58
864.264	-15.49
864.432	-142.63
864.6	-11.15
864.768	-15.04
864.936	73.23
865.104	241.97
865.272	162.96
865.44	-723.1
865.608	-223.47
865.776	2696.83
865.944	-185.33
866.112	-57.18
866.28	-147.3
866.448	-32.7
866.616	-35.68
866.784	-59.51
866.952	-11.49
867.12	16.79
867.288	-27.35
867.455	-22.98
867.623	-40.51
867.791	-90.36
867.959	-30.52
868.127	-16.82
868.294	-62.9
868.462	-85.29
868.63	-232.4
868.797	-1491.26
868.965	-317.79
869.133	-516.51
869.3	1769.32
869.468	402.73
869.636	269.61
869.803	221.87
869.971	122.23
870.138	85.63
870.306	93.78
870.473	49.79
870.641	78.99
870.808	126.2
870.975	120.35
871.143	140.04
871.31	143.27
871.478	145.85
871.645	123.13
871.812	112.58
871.98	150.04
872.147	211.7
872.314	340.66
872.482	147.77
872.649	97.07
872.816	103.82
872.983	73.87
873.15	32.83
873.318	55.12
873.485	94.71
873.652	150.05
873.819	251.53
873.986	247.45
874.153	393.39
874.32	318.91
874.487	298.56
874.654	887.3
874.821	-282.18
874.988	-2163.35
875.155	-447.32
875.322	-589.8
875.489	-159.01
875.656	-476.32
875.823	-1260.19
875.99	1291.62
876.157	-544.05
876.324	-624.2
876.49	-222.5
876.657	19306.98
876.824	383.64
876.991	349.15
877.157	667.19
877.324	539.23
877.491	287.87
877.658	417.02
877.824	515.7
877.991	569.67
878.157	485.38
878.324	366.9
878.491	641.36
878.657	-157.02
878.824	-481.82
878.99	7133.33
879.157	647.76
879.323	-1863.96
879.49	-146.42
879.656	-183.76
879.823	56.85
879.989	-200.25
880.156	4592.63
880.322	-1972.02
880.488	-550.7
880.655	-545.26
880.821	-75.68
880.987	-86.16
881.154	-64.78
881.32	-67.01
881.486	-24.99
881.652	-50.05
881.819	-17.21
881.985	-0.26
882.151	15.01
882.317	11.72
882.483	13.57
882.649	15.05
882.816	16.07
882.982	16.44
883.148	13.65
883.314	16.66
883.48	20.37
883.646	20.64
883.812	25.72
883.978	20.58
884.144	21.14
884.31	23.06
884.476	21.8
884.642	24.68
884.807	23.77
884.973	23.58
885.139	19.03
885.305	18.47
885.471	19.7
885.637	13.54
885.802	16.09
885.968	16.15
886.134	10.02
886.3	10.95
886.465	-1.14
886.631	-6.95
886.797	-13.05
886.962	-11.5
887.128	-30.48
887.293	-49.35
887.459	-44
887.625	-49.48
887.79	-87.5
887.956	-87.26
888.121	-85.95
888.287	-68.23
888.452	-77.15
888.618	-72.52
888.783	-82.3
