Data from 2937834_Reflection_1.txt Node
Date: Wed Jul 15 16:36:17 EDT 2015
User: robert
Spectrometer: USB4E03001
Autoset integration time: false
Trigger mode: 4
Integration Time (sec): 1.000000E-1
Scans to average: 10
Electric dark correction enabled: true
Nonlinearity correction enabled: false
Boxcar width: 5
Stray light correction enabled: false
XAxis mode: Wavelengths
Stop averaging: false
Number of Pixels in Spectrum: 3648
>>>>>Begin Spectral Data<<<<<
177.566	-28.78
177.785	-148.52
178.005	184.62
178.225	170.3
178.445	96.29
178.665	60.7
178.885	49.82
179.105	124.22
179.324	133.27
179.544	89.63
179.764	52.76
179.984	22.12
180.204	364.19
180.423	110.44
180.643	122.24
180.863	100.88
181.083	52.19
181.302	680.22
181.522	421.07
181.742	-6.02
181.961	-114.02
182.181	-68.52
182.401	-153.14
182.621	-1462.39
182.84	-93.54
183.06	-74.95
183.279	-53.32
183.499	-64.15
183.719	-10.96
183.938	-13.17
184.158	-7.9
184.377	33.67
184.597	10.03
184.816	39.18
185.036	50.47
185.256	38.35
185.475	57.42
185.695	89.02
185.914	84.99
186.134	81.5
186.353	102.12
186.572	70.77
186.792	40.49
187.011	69.4
187.231	64.2
187.45	58.48
187.67	62.18
187.889	65.07
188.108	54.93
188.328	69.31
188.547	64.7
188.766	49.28
188.986	60.36
189.205	65.81
189.424	71.65
189.644	69.02
189.863	71.18
190.082	79.02
190.302	80.8
190.521	91.79
190.74	67.1
190.959	97.16
191.178	100.62
191.398	159.96
191.617	103.73
191.836	39.89
192.055	108.49
192.274	19.58
192.494	5.58
192.713	21.26
192.932	-31.23
193.151	37.63
193.37	5.03
193.589	40.18
193.808	49.55
194.027	60.31
194.246	79.84
194.465	65.21
194.685	73.19
194.904	52.89
195.123	35.02
195.342	57.91
195.561	81.91
195.78	92.64
195.999	78.37
196.218	78.43
196.436	328.59
196.655	183.32
196.874	225.32
197.093	-4983.08
197.312	-376.11
197.531	591.99
197.75	-666.15
197.969	-208.32
198.188	-632.97
198.407	731.07
198.625	204.61
198.844	71.69
199.063	63.05
199.282	45.49
199.501	49.96
199.719	49.03
199.938	61.52
200.157	73.95
200.376	71.21
200.594	57.48
200.813	56.23
201.032	64.77
201.251	65.11
201.469	59.88
201.688	49.07
201.907	42.38
202.125	33.51
202.344	34.51
202.563	10.15
202.781	3.83
203	14.93
203.218	23.41
203.437	27.74
203.656	38.62
203.874	35.11
204.093	55.26
204.311	63.76
204.53	64.9
204.748	52.09
204.967	57.39
205.185	53.76
205.404	55.27
205.622	46.89
205.841	38.86
206.059	21.4
206.278	57.8
206.496	45.14
206.715	33.67
206.933	-3.68
207.151	46.95
207.37	1296.15
207.588	43.08
207.806	102.98
208.025	48.64
208.243	143.1
208.461	279.23
208.68	230.06
208.898	377.71
209.116	440.71
209.335	185.43
209.553	302.63
209.771	213.75
209.989	181.88
210.208	146.52
210.426	127.29
210.644	168.2
210.862	155.76
211.081	115.52
211.299	90.79
211.517	87.63
211.735	82.53
211.953	80.84
212.171	92.39
212.39	78.37
212.608	78.05
212.826	73.66
213.044	68.84
213.262	54.78
213.48	57.75
213.698	37.91
213.916	20.02
214.134	37.49
214.352	25.79
214.57	36.67
214.788	52
215.006	61.11
215.224	67.92
215.442	59.18
215.66	62.37
215.878	64.63
216.096	67.87
216.314	75.59
216.532	56
216.75	70.04
216.968	41.87
217.185	29.36
217.403	18.16
217.621	28.45
217.839	-4.27
218.057	-7.54
218.275	-0.32
218.492	33.64
218.71	11.45
218.928	12.23
219.146	-29.66
219.363	20.63
219.581	48.9
219.799	52.74
220.017	67.16
220.234	67.19
220.452	79.68
220.67	68.7
220.887	77.21
221.105	91.82
221.323	86.52
221.54	105.13
221.758	86.33
221.976	82.47
222.193	80.64
222.411	57.6
222.629	51.7
222.846	34.29
223.064	37.34
223.281	17.82
223.499	7.7
223.716	25.19
223.934	-7
224.151	-12.28
224.369	-2.61
224.586	-10.97
224.804	-2.97
225.021	11.05
225.239	20.02
225.456	4.13
225.674	8.1
225.891	11.41
226.108	-1.51
226.326	6.16
226.543	6.81
226.76	4.26
226.978	11.3
227.195	7.57
227.413	5.94
227.63	3.49
227.847	11.74
228.064	12.81
228.282	15.79
228.499	17.1
228.716	16.8
228.934	21.8
229.151	20.22
229.368	19.03
229.585	18.4
229.802	16.63
230.02	16.2
230.237	13
230.454	10.93
230.671	11.09
230.888	9.94
231.105	9.08
231.323	4.98
231.54	10.17
231.757	9.35
231.974	7.26
232.191	12.77
232.408	17.91
232.625	19.87
232.842	18.88
233.059	19.49
233.276	27.66
233.493	26.06
233.71	17.72
233.927	14.5
234.144	9.14
234.361	14.24
234.578	15.48
234.795	17.47
235.012	15.1
235.229	15.88
235.446	13.56
235.663	9.13
235.879	15.42
236.096	23.41
236.313	23.07
236.53	28
236.747	28.31
236.964	23.47
237.181	17.21
237.397	23.91
237.614	21.59
237.831	21.7
238.048	19.09
238.264	14.43
238.481	13.06
238.698	10.49
238.915	11.96
239.131	12.47
239.348	11.47
239.565	10.85
239.781	9.31
239.998	14.23
240.215	15.42
240.431	15.12
240.648	17.31
240.865	16.87
241.081	18.13
241.298	17.09
241.514	14
241.731	14.9
241.947	15.85
242.164	14.52
242.38	14.6
242.597	15.54
242.814	16.87
243.03	16.03
243.246	16.57
243.463	16.14
243.679	16
243.896	17.61
244.112	19.87
244.329	19
244.545	20.25
244.762	20.12
244.978	17.16
245.194	18.11
245.411	17.1
245.627	15.8
245.843	16.19
246.06	15.82
246.276	14.09
246.492	12.39
246.709	13.37
246.925	13.24
247.141	12.68
247.357	13.42
247.574	12.93
247.79	13.44
248.006	12.89
248.222	12.36
248.439	11.81
248.655	11.09
248.871	12.19
249.087	11.42
249.303	9.58
249.519	8.3
249.736	9.83
249.952	8.65
250.168	6.43
250.384	6.91
250.6	6.26
250.816	7.9
251.032	9.99
251.248	8.33
251.464	8.65
251.68	10.9
251.896	14
252.112	12.19
252.328	12.12
252.544	13
252.76	10.96
252.976	10.06
253.192	9.8
253.408	9.07
253.624	10.15
253.84	10.56
254.056	8.45
254.272	6.86
254.487	5.3
254.703	7.6
254.919	7.53
255.135	10.83
255.351	14.43
255.567	13.83
255.782	16.63
255.998	14.98
256.214	13.31
256.43	15.78
256.646	15.82
256.861	13.52
257.077	12.78
257.293	11.44
257.508	10.01
257.724	8.64
257.94	8.64
258.155	7.49
258.371	7.66
258.587	8.44
258.802	7.94
259.018	7.37
259.234	8.73
259.449	7.6
259.665	8.59
259.88	9.38
260.096	9.7
260.312	9.71
260.527	9.69
260.743	9
260.958	9.42
261.174	9.99
261.389	10.65
261.605	10.33
261.82	11.27
262.036	10.81
262.251	9.91
262.466	8.22
262.682	8.32
262.897	8.08
263.113	8.86
263.328	8.38
263.543	9.25
263.759	9.08
263.974	10.42
264.189	10.33
264.405	8.82
264.62	9.05
264.835	10.04
265.051	11
265.266	13.08
265.481	12.61
265.696	11.03
265.912	11.18
266.127	10.54
266.342	8.91
266.557	9.86
266.773	11.24
266.988	11.55
267.203	11.27
267.418	8.84
267.633	7.51
267.848	8.81
268.064	11.38
268.279	11.66
268.494	10.92
268.709	12.48
268.924	11.37
269.139	10.35
269.354	10.7
269.569	10.76
269.784	11.65
269.999	10.85
270.214	9.99
270.429	8.08
270.644	7.28
270.859	7.73
271.074	6.67
271.289	7.15
271.504	9.41
271.719	9.62
271.934	9.11
272.149	9.82
272.363	11.28
272.578	12.04
272.793	13.14
273.008	12.45
273.223	13.15
273.438	14.3
273.653	14.74
273.867	12.96
274.082	11.87
274.297	14.73
274.512	15.74
274.726	14.72
274.941	13.94
275.156	13.91
275.371	12.47
275.585	12.34
275.8	9.9
276.015	9.41
276.229	10.03
276.444	13.03
276.659	10.88
276.873	9.2
277.088	8.88
277.302	8.72
277.517	8.09
277.732	9.13
277.946	6.72
278.161	8.15
278.375	6.94
278.59	7.52
278.804	5.89
279.019	7.96
279.233	9.01
279.448	8.58
279.662	8.54
279.877	8.88
280.091	10.06
280.306	11.61
280.52	11.4
280.735	12.05
280.949	12.38
281.163	13
281.378	11.39
281.592	12.72
281.806	13.07
282.021	13.3
282.235	12.79
282.449	13.1
282.664	12.59
282.878	13.85
283.092	15
283.307	15.18
283.521	13.44
283.735	14.15
283.949	11.39
284.164	11.22
284.378	11.33
284.592	10.8
284.806	10.96
285.02	10.49
285.234	9.14
285.449	6.89
285.663	6.55
285.877	7.4
286.091	6.66
286.305	7.57
286.519	7.12
286.733	5.99
286.947	6.68
287.161	6.59
287.375	6.84
287.589	7.75
287.803	9.14
288.017	7.99
288.231	8.03
288.445	9.49
288.659	10.29
288.873	11.41
289.087	13.42
289.301	13.34
289.515	11.79
289.729	13.69
289.943	12.97
290.157	12.98
290.371	13.55
290.584	14.04
290.798	12.19
291.012	10.33
291.226	9.13
291.44	8.08
291.654	5.8
291.867	6.08
292.081	4.76
292.295	3.93
292.509	4.57
292.722	5.33
292.936	3.49
293.15	4.89
293.364	5.74
293.577	7.97
293.791	8.15
294.005	11.72
294.218	12.37
294.432	12.58
294.645	13.13
294.859	12.3
295.073	12.65
295.286	13.35
295.5	12.55
295.713	13.89
295.927	12.96
296.14	12.76
296.354	11.85
296.568	12.97
296.781	12.46
296.994	12.89
297.208	13.64
297.421	12.41
297.635	12.05
297.848	12.68
298.062	12.37
298.275	13.1
298.489	13.19
298.702	12.23
298.915	10.87
299.129	11.1
299.342	11.22
299.555	10.04
299.769	12.27
299.982	12.78
300.195	12.64
300.409	11.74
300.622	10.3
300.835	11.46
301.048	12
301.262	13.19
301.475	12.32
301.688	11.62
301.901	13.3
302.115	11.14
302.328	10.87
302.541	11.34
302.754	13.04
302.967	15.51
303.18	14.63
303.393	15.84
303.607	14.88
303.82	17.65
304.033	18.04
304.246	17.41
304.459	18.18
304.672	19.15
304.885	19.38
305.098	17.21
305.311	14.94
305.524	15.22
305.737	14.91
305.95	16.75
306.163	14.25
306.376	13.84
306.589	12.82
306.802	12.35
307.015	14.33
307.228	13.22
307.44	14.93
307.653	16.93
307.866	17.4
308.079	17.86
308.292	15.56
308.505	17.35
308.718	16.66
308.93	17.08
309.143	16.92
309.356	15.81
309.569	16.59
309.781	16.23
309.994	15.72
310.207	14.35
310.42	14.06
310.632	13.92
310.845	13.63
311.058	13.75
311.27	13.91
311.483	14.36
311.696	12.44
311.908	11.56
312.121	11.55
312.333	10.4
312.546	11.6
312.759	11.7
312.971	11.89
313.184	10.31
313.396	11.75
313.609	11.8
313.821	11.89
314.034	12.01
314.246	13.56
314.459	13.01
314.671	13.98
314.884	13.4
315.096	12.12
315.309	13.14
315.521	13.46
315.733	13
315.946	12.63
316.158	12.81
316.371	14.89
316.583	12.85
316.795	12.51
317.008	11.69
317.22	12.22
317.432	13.31
317.644	14.96
317.857	16
318.069	15.44
318.281	14.61
318.494	13.84
318.706	12.88
318.918	14.2
319.13	14.58
319.342	14.67
319.555	13.66
319.767	14.72
319.979	13.76
320.191	14.33
320.403	13.57
320.615	13.73
320.827	14.79
321.039	15.55
321.252	15.41
321.464	15.72
321.676	15.38
321.888	15.91
322.1	14.97
322.312	16.3
322.524	15.02
322.736	16.79
322.948	17.37
323.16	16.98
323.372	17.57
323.584	18.61
323.796	17.34
324.007	17.72
324.219	17.98
324.431	17.48
324.643	14.58
324.855	13.83
325.067	12.57
325.279	12.84
325.491	12.92
325.702	11.16
325.914	10.19
326.126	11.58
326.338	10.9
326.55	11.55
326.761	11.35
326.973	11.81
327.185	12.16
327.396	11.57
327.608	10.67
327.82	11.06
328.032	9.04
328.243	8.18
328.455	8.27
328.666	10.31
328.878	9.95
329.09	11.11
329.301	12.03
329.513	12.33
329.725	13.03
329.936	14.13
330.148	13.94
330.359	17.19
330.571	19.12
330.782	18.77
330.994	19.03
331.205	19.58
331.417	17.86
331.628	17.49
331.84	17.98
332.051	18.87
332.262	18.34
332.474	17.82
332.685	18.67
332.897	15.83
333.108	17.17
333.319	15.25
333.531	13.67
333.742	14.79
333.953	14.14
334.165	12.9
334.376	12.58
334.587	12.79
334.799	12.6
335.01	12.05
335.221	13.9
335.432	14.37
335.644	14.51
335.855	13.51
336.066	12.72
336.277	14.11
336.488	15.25
336.7	17.19
336.911	19.77
337.122	20.62
337.333	21.25
337.544	20.91
337.755	18.85
337.966	17.74
338.177	19.24
338.388	20.44
338.599	19.58
338.811	19.4
339.022	16.75
339.233	14.65
339.444	14.32
339.655	15.02
339.866	14.5
340.076	14.56
340.287	15.79
340.498	16.36
340.709	15.26
340.92	14.77
341.131	15.76
341.342	16.71
341.553	16.91
341.764	18.83
341.975	18.32
342.185	18.87
342.396	20.64
342.607	22.46
342.818	23.22
343.029	23.65
343.239	24.28
343.45	24.08
343.661	23.78
343.872	22.8
344.082	21.31
344.293	19.98
344.504	20.67
344.714	18.64
344.925	17.82
345.136	16.66
345.346	17.21
345.557	18.02
345.768	16.78
345.978	17.18
346.189	16.54
346.399	16.27
346.61	17.8
346.821	17.31
347.031	18.7
347.242	17.66
347.452	16.73
347.663	16.76
347.873	14.32
348.084	16.49
348.294	15.96
348.504	16.25
348.715	16.14
348.925	14.52
349.136	14.33
349.346	14.08
349.557	14.97
349.767	16.56
349.977	15.96
350.188	17.78
350.398	17.23
350.608	17.91
350.819	18.18
351.029	18.38
351.239	19.81
351.449	20.02
351.66	19.99
351.87	19.99
352.08	19.73
352.29	19.71
352.501	18.87
352.711	18.59
352.921	19.2
353.131	19.02
353.341	19.66
353.552	19.49
353.762	19.94
353.972	19.97
354.182	20.72
354.392	20.49
354.602	20.06
354.812	20.89
355.022	20.62
355.232	19.58
355.442	19.38
355.652	18.43
355.862	18.03
356.072	17.63
356.282	17.9
356.492	16.61
356.702	16.53
356.912	16.43
357.122	15.76
357.332	16.45
357.542	16.64
357.752	17.47
357.962	17.57
358.171	16.59
358.381	16.38
358.591	16.21
358.801	16.74
359.011	15.7
359.221	15.48
359.43	16.15
359.64	14.71
359.85	13.76
360.06	13.47
360.269	12.82
360.479	13.34
360.689	14.06
360.899	13.67
361.108	14.2
361.318	13.93
361.528	14.4
361.737	14.27
361.947	14.27
362.156	15.12
362.366	15.55
362.576	16.61
362.785	16.36
362.995	16.05
363.204	16.35
363.414	15.54
363.623	16.26
363.833	16.31
364.042	16.05
364.252	16.54
364.461	15.81
364.671	15.83
364.88	15.26
365.09	15.77
365.299	15.03
365.509	15.11
365.718	15.7
365.927	15.91
366.137	15.53
366.346	15.92
366.555	15.58
366.765	16.34
366.974	16.41
367.183	15.99
367.393	15.54
367.602	15.54
367.811	15
368.021	14.19
368.23	14.2
368.439	14.56
368.648	13.83
368.857	13.43
369.067	11.56
369.276	10.45
369.485	10.75
369.694	11.46
369.903	11.36
370.112	11.63
370.321	11.89
370.531	11.79
370.74	11.22
370.949	11.71
371.158	12.07
371.367	13.75
371.576	14.39
371.785	14.63
371.994	14.09
372.203	13.78
372.412	13.7
372.621	13.81
372.83	14.38
373.039	14.85
373.248	14.23
373.457	13.81
373.666	12.69
373.874	12.07
374.083	12.43
374.292	12.1
374.501	12.14
374.71	12.2
374.919	12.63
375.128	11.55
375.336	11.77
375.545	11.89
375.754	12.13
375.963	13.42
376.171	13.23
376.38	12.43
376.589	13.05
376.798	13.68
377.006	13.1
377.215	12.14
377.424	12.52
377.632	12.45
377.841	12.59
378.05	12.61
378.258	11.77
378.467	12.01
378.675	12.38
378.884	12.35
379.093	12.23
379.301	12.27
379.51	12.72
379.718	12.3
379.927	11.65
380.135	11.7
380.344	11.55
380.552	11.56
380.761	11.48
380.969	11.04
381.177	10.56
381.386	10.59
381.594	10.44
381.803	9.77
382.011	10.56
382.219	11.39
382.428	11.35
382.636	11.38
382.845	11.69
383.053	12.22
383.261	12.07
383.469	11.95
383.678	11.61
383.886	12.35
384.094	12.77
384.302	12.35
384.511	12.19
384.719	11.96
384.927	11.97
385.135	11.31
385.343	10.78
385.552	10.36
385.76	10.65
385.968	10.21
386.176	10.13
386.384	10.48
386.592	10.48
386.8	10.21
387.008	10.59
387.216	10.52
387.424	10.66
387.633	10.43
387.841	10.71
388.049	10.23
388.257	10.93
388.465	10.79
388.672	10.39
388.88	10.04
389.088	9.83
389.296	9.19
389.504	9.32
389.712	9.09
389.92	9.14
390.128	9.03
390.336	9.28
390.544	9.17
390.751	8.8
390.959	8.41
391.167	8.25
391.375	8.49
391.583	8.92
391.79	9.03
391.998	9.35
392.206	9.08
392.414	9.36
392.621	9.31
392.829	9.2
393.037	9.35
393.244	9.35
393.452	9.31
393.66	8.99
393.867	8.79
394.075	8.47
394.283	8.24
394.49	8.5
394.698	8.23
394.905	8.25
395.113	8.03
395.32	7.85
395.528	7.84
395.735	7.92
395.943	7.81
396.15	7.69
396.358	7.9
396.565	8.1
396.773	7.82
396.98	8.03
397.188	7.47
397.395	7.76
397.602	7.88
397.81	8.03
398.017	8.02
398.225	8.24
398.432	8.17
398.639	7.93
398.847	7.83
399.054	7.82
399.261	7.31
399.468	7.46
399.676	7.13
399.883	7.07
400.09	7.01
400.297	6.44
400.505	6.46
400.712	6.45
400.919	6.44
401.126	6.34
401.333	6.46
401.54	6.88
401.748	6.95
401.955	6.94
402.162	6.75
402.369	6.9
402.576	7.28
402.783	7.29
402.99	7.42
403.197	7.51
403.404	7.52
403.611	7.49
403.818	7.47
404.025	7.55
404.232	7.56
404.439	7.75
404.646	7.51
404.853	7.48
405.06	7.24
405.267	7.34
405.474	7.24
405.681	7.32
405.887	7.53
406.094	7.41
406.301	7.23
406.508	7.29
406.715	7.4
406.922	7.11
407.128	7.43
407.335	7.4
407.542	7.25
407.749	7.22
407.955	7.12
408.162	6.97
408.369	6.95
408.575	7.29
408.782	7.1
408.989	6.72
409.195	7.1
409.402	7.09
409.609	7.16
409.815	7.15
410.022	7.49
410.228	7.32
410.435	7.4
410.642	7.24
410.848	6.77
411.055	6.98
411.261	7.15
411.468	7.09
411.674	7.07
411.881	7.06
412.087	6.86
412.294	6.46
412.5	6.52
412.706	6.34
412.913	6.54
413.119	6.73
413.326	6.5
413.532	6.45
413.738	6.41
413.945	6.16
414.151	6.03
414.357	6.03
414.564	5.86
414.77	5.76
414.976	5.77
415.182	5.61
415.389	5.65
415.595	5.77
415.801	5.91
416.007	5.76
416.214	5.8
416.42	6
416.626	6.18
416.832	6.16
417.038	6.33
417.244	6.41
417.45	6.39
417.657	6.47
417.863	6.61
418.069	6.63
418.275	6.68
418.481	6.69
418.687	6.71
418.893	6.55
419.099	6.62
419.305	6.74
419.511	6.7
419.717	6.85
419.923	6.95
420.129	6.92
420.335	6.81
420.541	7.02
420.746	7.18
420.952	7.21
421.158	7.29
421.364	7.47
421.57	7.44
421.776	7.42
421.982	7.41
422.187	7.3
422.393	7.23
422.599	7.3
422.805	7.25
423.01	7.05
423.216	6.93
423.422	6.92
423.628	6.86
423.833	6.75
424.039	6.65
424.245	6.64
424.45	6.77
424.656	6.74
424.862	6.66
425.067	6.5
425.273	6.57
425.478	6.73
425.684	6.63
425.889	6.45
426.095	6.53
426.301	6.67
426.506	6.62
426.712	6.36
426.917	6.27
427.123	6.22
427.328	6.42
427.533	6.41
427.739	5.9
427.944	6.18
428.15	6.28
428.355	6.15
428.561	6.3
428.766	6.37
428.971	6.28
429.177	6.33
429.382	6.43
429.587	6.22
429.793	6.31
429.998	6.62
430.203	6.17
430.408	6.24
430.614	6.32
430.819	5.87
431.024	5.77
431.229	6.02
431.434	6.01
431.64	6.05
431.845	6.08
432.05	5.88
432.255	5.97
432.46	6.35
432.665	6.34
432.87	6.29
433.076	6.3
433.281	6.47
433.486	6.24
433.691	6.22
433.896	6.29
434.101	6.28
434.306	6.36
434.511	6.24
434.716	6.32
434.921	6.07
435.126	6.07
435.331	6.12
435.535	5.84
435.74	6.09
435.945	6.11
436.15	5.81
436.355	5.69
436.56	5.66
436.765	5.54
436.97	5.22
437.174	5.4
437.379	5.46
437.584	5.47
437.789	5.61
437.993	5.52
438.198	5.56
438.403	5.85
438.608	6.01
438.812	6.05
439.017	6.33
439.222	6.41
439.426	6.39
439.631	6.17
439.836	6.26
440.04	6.19
440.245	6.09
440.45	6.08
440.654	5.92
440.859	6.03
441.063	5.96
441.268	5.81
441.472	5.69
441.677	5.58
441.881	5.61
442.086	5.49
442.29	5.44
442.495	5.46
442.699	5.5
442.904	5.47
443.108	5.15
443.312	5.25
443.517	5.27
443.721	5.28
443.925	5.39
444.13	5.6
444.334	5.68
444.538	5.92
444.743	6.02
444.947	6.11
445.151	6.04
445.356	6.15
445.56	6
445.764	5.92
445.968	6.03
446.173	6.05
446.377	5.88
446.581	6.01
446.785	5.9
446.989	5.9
447.193	5.76
447.398	5.72
447.602	5.64
447.806	5.63
448.01	5.72
448.214	5.6
448.418	5.41
448.622	5.52
448.826	5.26
449.03	5.07
449.234	4.98
449.438	4.9
449.642	5.05
449.846	5.06
450.05	5.26
450.254	5.26
450.458	5.24
450.662	5.4
450.866	5.34
451.069	5.35
451.273	5.38
451.477	5.37
451.681	5.54
451.885	5.58
452.089	5.88
452.292	5.82
452.496	5.75
452.7	5.95
452.904	5.97
453.107	5.98
453.311	6.1
453.515	6.29
453.719	6.24
453.922	5.96
454.126	5.96
454.33	5.66
454.533	5.69
454.737	5.62
454.94	5.41
455.144	5.36
455.348	5.52
455.551	5.52
455.755	5.37
455.958	5.62
456.162	5.81
456.365	5.68
456.569	5.71
456.772	5.63
456.976	5.62
457.179	5.52
457.383	5.53
457.586	5.47
457.79	5.4
457.993	5.43
458.196	5.38
458.4	5.41
458.603	5.27
458.807	5.33
459.01	5.28
459.213	5.46
459.417	5.56
459.62	5.47
459.823	5.43
460.026	5.56
460.23	5.51
460.433	5.36
460.636	5.36
460.839	5.62
461.042	5.68
461.246	5.68
461.449	5.55
461.652	5.54
461.855	5.73
462.058	5.64
462.261	5.43
462.464	5.45
462.668	5.38
462.871	5.46
463.074	5.46
463.277	5.47
463.48	5.43
463.683	5.46
463.886	5.46
464.089	5.5
464.292	5.44
464.495	5.6
464.698	5.72
464.901	5.98
465.104	5.8
465.306	5.42
465.509	5.14
465.712	5.14
465.915	5.1
466.118	5.24
466.321	5.1
466.524	5.13
466.726	5.06
466.929	5.09
467.132	5.06
467.335	5.16
467.538	5.31
467.74	5.52
467.943	5.56
468.146	5.52
468.348	5.6
468.551	5.63
468.754	5.63
468.956	5.76
469.159	5.61
469.362	5.4
469.564	5.35
469.767	5.44
469.969	5.28
470.172	5.12
470.375	5.27
470.577	5
470.78	5.08
470.982	5.22
471.185	5.19
471.387	5.14
471.59	5.28
471.792	5.35
471.995	5.47
472.197	5.88
472.399	6.09
472.602	6.03
472.804	6
473.007	5.88
473.209	5.9
473.411	5.73
473.614	5.69
473.816	5.67
474.018	5.59
474.22	5.42
474.423	5.09
474.625	5.05
474.827	5.01
475.03	5.12
475.232	5.15
475.434	5.09
475.636	5.09
475.838	5.26
476.04	5.36
476.243	5.64
476.445	5.79
476.647	5.81
476.849	5.8
477.051	5.91
477.253	6.03
477.455	6.02
477.657	6.07
477.859	6.2
478.061	6.29
478.263	6.19
478.465	5.97
478.667	6
478.869	6.08
479.071	6.07
479.273	5.84
479.475	5.69
479.677	5.69
479.879	5.83
480.081	5.77
480.283	5.74
480.485	5.76
480.686	5.83
480.888	5.74
481.09	5.73
481.292	5.71
481.494	5.88
481.695	5.86
481.897	5.82
482.099	5.64
482.301	5.68
482.502	5.59
482.704	5.57
482.906	5.62
483.107	5.57
483.309	5.53
483.511	5.52
483.712	5.45
483.914	5.5
484.115	5.46
484.317	5.43
484.519	5.36
484.72	5.37
484.922	5.33
485.123	5.32
485.325	5.34
485.526	5.38
485.728	5.41
485.929	5.41
486.131	5.38
486.332	5.42
486.534	5.45
486.735	5.52
486.936	5.56
487.138	5.6
487.339	5.52
487.541	5.45
487.742	5.38
487.943	5.39
488.144	5.46
488.346	5.46
488.547	5.51
488.748	5.46
488.95	5.47
489.151	5.39
489.352	5.44
489.553	5.46
489.755	5.48
489.956	5.52
490.157	5.59
490.358	5.6
490.559	5.6
490.76	5.59
490.961	5.65
491.163	5.65
491.364	5.66
491.565	5.61
491.766	5.53
491.967	5.58
492.168	5.48
492.369	5.37
492.57	5.3
492.771	5.27
492.972	5.24
493.173	5.29
493.374	5.35
493.575	5.44
493.776	5.45
493.976	5.48
494.177	5.49
494.378	5.78
494.579	5.82
494.78	5.93
494.981	6.03
495.182	6.05
495.382	6.05
495.583	6.01
495.784	6.11
495.985	6.17
496.185	6.31
496.386	6.21
496.587	6.11
496.788	6.08
496.988	6
497.189	5.77
497.39	5.52
497.59	5.51
497.791	5.42
497.992	5.16
498.192	4.97
498.393	4.86
498.593	4.79
498.794	4.72
498.994	4.74
499.195	4.75
499.395	5.03
499.596	5.18
499.796	5.18
499.997	5.15
500.197	5.13
500.398	5.38
500.598	5.47
500.799	5.56
500.999	5.46
501.199	5.45
501.4	5.44
501.6	5.33
501.801	5.51
502.001	5.51
502.201	5.49
502.402	5.65
502.602	5.59
502.802	5.62
503.002	5.8
503.203	5.92
503.403	5.96
503.603	6.02
503.803	6.07
504.003	5.95
504.204	5.96
504.404	5.89
504.604	5.98
504.804	6.04
505.004	6.08
505.204	6.15
505.404	6.2
505.604	6.18
505.804	6.11
506.005	5.86
506.205	5.83
506.405	5.89
506.605	6.09
506.805	6.21
507.005	6.1
507.204	6.11
507.404	5.94
507.604	6.06
507.804	6.08
508.004	6.31
508.204	6.57
508.404	6.66
508.604	6.61
508.804	6.38
509.003	6.28
509.203	6.38
509.403	6.35
509.603	6.45
509.803	6.32
510.002	6.35
510.202	6.17
510.402	6.33
510.602	6.29
510.801	6.25
511.001	6.49
511.201	6.48
511.4	6.47
511.6	6.43
511.8	6.27
511.999	6.34
512.199	6.31
512.398	6.34
512.598	6.16
512.797	6.23
512.997	6.28
513.197	6.26
513.396	6.25
513.596	6.16
513.795	6.21
513.994	6.36
514.194	6.3
514.393	6.4
514.593	6.68
514.792	6.68
514.992	6.68
515.191	6.86
515.39	6.95
515.59	7.06
515.789	7.23
515.988	7.27
516.188	7.29
516.387	7.3
516.586	7.28
516.786	7.1
516.985	7.17
517.184	7.33
517.383	7.2
517.582	7.17
517.782	7.15
517.981	7.01
518.18	7.14
518.379	7.07
518.578	7.13
518.777	7.09
518.976	7.08
519.176	7.07
519.375	7.08
519.574	7.09
519.773	7.13
519.972	7.04
520.171	7.18
520.37	7.07
520.569	7.1
520.768	7.14
520.967	7.22
521.166	7.29
521.365	7.24
521.564	6.99
521.762	7.19
521.961	7.07
522.16	7.3
522.359	7.35
522.558	7.49
522.757	7.53
522.956	7.48
523.154	7.55
523.353	7.58
523.552	7.57
523.751	7.74
523.949	7.75
524.148	7.94
524.347	7.92
524.546	8.02
524.744	8.06
524.943	8.15
525.142	8.23
525.34	8.23
525.539	8.2
525.737	8.31
525.936	8.34
526.135	8.22
526.333	8.16
526.532	8.06
526.73	8.01
526.929	7.97
527.127	8.06
527.326	8.04
527.524	7.98
527.723	7.98
527.921	8.04
528.12	8.03
528.318	8.04
528.516	8.07
528.715	8.12
528.913	8.11
529.112	8.13
529.31	8.09
529.508	8.12
529.707	8.22
529.905	8.25
530.103	8.24
530.301	8.22
530.5	8.28
530.698	8.32
530.896	8.3
531.094	8.36
531.293	8.33
531.491	8.36
531.689	8.42
531.887	8.39
532.085	8.46
532.283	8.48
532.481	8.6
532.68	8.7
532.878	8.73
533.076	8.83
533.274	8.82
533.472	8.84
533.67	8.82
533.868	8.82
534.066	8.75
534.264	8.76
534.462	8.82
534.66	8.88
534.858	8.84
535.056	8.76
535.253	8.74
535.451	8.78
535.649	8.77
535.847	8.82
536.045	8.84
536.243	8.9
536.441	8.87
536.638	8.87
536.836	8.82
537.034	8.84
537.232	8.94
537.43	8.99
537.627	8.91
537.825	9.14
538.023	9.15
538.22	9.35
538.418	9.48
538.616	9.67
538.813	9.78
539.011	9.85
539.209	9.96
539.406	9.88
539.604	9.92
539.801	10.07
539.999	10
540.196	9.99
540.394	9.87
540.591	9.86
540.789	9.88
540.986	9.92
541.184	9.98
541.381	10.04
541.579	10.12
541.776	10.05
541.974	10.04
542.171	10.06
542.368	10.12
542.566	10.23
542.763	10.29
542.96	10.3
543.158	10.28
543.355	10.37
543.552	10.28
543.75	10.38
543.947	10.44
544.144	10.57
544.341	10.66
544.539	10.6
544.736	10.46
544.933	10.56
545.13	10.6
545.327	10.72
545.524	10.63
545.722	10.65
545.919	10.56
546.116	10.68
546.313	10.63
546.51	10.57
546.707	10.77
546.904	10.83
547.101	10.84
547.298	10.9
547.495	10.81
547.692	10.88
547.889	11.06
548.086	11.2
548.283	11.28
548.48	11.28
548.677	11.26
548.874	11.11
549.07	11.39
549.267	11.34
549.464	11.49
549.661	11.57
549.858	11.65
550.055	11.77
550.251	11.93
550.448	12.14
550.645	12.25
550.842	12.57
551.038	12.79
551.235	12.68
551.432	12.79
551.628	12.94
551.825	12.86
552.022	12.89
552.218	12.67
552.415	12.59
552.612	12.58
552.808	12.62
553.005	12.64
553.201	12.84
553.398	12.74
553.594	12.76
553.791	12.74
553.987	12.84
554.184	12.92
554.38	13.02
554.577	12.98
554.773	13.03
554.97	13.08
555.166	13.14
555.362	13.02
555.559	13.36
555.755	13.37
555.952	13.37
556.148	13.34
556.344	13.41
556.541	13.31
556.737	13.61
556.933	13.78
557.129	14
557.326	14.06
557.522	14.23
557.718	14.1
557.914	14.09
558.11	14.11
558.307	14.22
558.503	14.21
558.699	14.62
558.895	14.67
559.091	14.41
559.287	14.51
559.483	14.54
559.679	14.52
559.876	14.75
560.072	14.86
560.268	15.03
560.464	15.21
560.66	15.24
560.856	15.2
561.052	15.31
561.247	15.44
561.443	15.59
561.639	15.59
561.835	15.82
562.031	15.66
562.227	15.74
562.423	15.76
562.619	15.91
562.815	16.28
563.01	16.66
563.206	16.49
563.402	16.58
563.598	16.66
563.793	16.89
563.989	16.73
564.185	17.07
564.381	17.04
564.576	16.98
564.772	17.07
564.968	16.98
565.163	16.74
565.359	17.03
565.555	17.3
565.75	17.14
565.946	17.09
566.141	17.12
566.337	17.05
566.532	17.32
566.728	17.3
566.923	17.16
567.119	17.14
567.314	17.16
567.51	17.27
567.705	17.14
567.901	17.44
568.096	17.48
568.292	17.69
568.487	18.03
568.682	17.96
568.878	18.15
569.073	18.37
569.268	18.58
569.464	18.81
569.659	18.97
569.854	19.1
570.05	19.11
570.245	19.26
570.44	19.07
570.635	18.98
570.831	19.04
571.026	19.16
571.221	19.31
571.416	19.09
571.611	19.23
571.806	19.02
572.002	19.09
572.197	19.14
572.392	19.16
572.587	19.48
572.782	19.63
572.977	19.64
573.172	19.76
573.367	19.75
573.562	20.09
573.757	20.2
573.952	20.37
574.147	20.38
574.342	20.29
574.537	20.46
574.732	20.49
574.927	20.48
575.121	20.7
575.316	20.71
575.511	20.75
575.706	20.68
575.901	20.47
576.096	20.51
576.29	20.69
576.485	20.98
576.68	21.04
576.875	21.05
577.069	20.88
577.264	21.11
577.459	21.17
577.654	21.01
577.848	21.07
578.043	21.23
578.238	21.61
578.432	21.7
578.627	21.59
578.821	21.55
579.016	21.75
579.21	22.08
579.405	22
579.6	22.02
579.794	22.45
579.989	22.76
580.183	23.42
580.378	23.03
580.572	22.67
580.766	22.93
580.961	23.12
581.155	23
581.35	23.21
581.544	22.99
581.738	23.15
581.933	23.33
582.127	23.08
582.321	22.49
582.516	22.46
582.71	22.75
582.904	22.35
583.099	22.26
583.293	22.49
583.487	22.19
583.681	22.43
583.875	22.35
584.07	22.09
584.264	22.24
584.458	22.3
584.652	22.27
584.846	22.16
585.04	22.52
585.234	22.56
585.428	22.3
585.623	22.49
585.817	22.38
586.011	22.42
586.205	22.62
586.399	22.52
586.593	22.5
586.787	22.75
586.981	22.92
587.174	22.73
587.368	22.6
587.562	22.64
587.756	22.54
587.95	22.63
588.144	22.86
588.338	22.85
588.532	22.9
588.725	23.05
588.919	23.06
589.113	22.91
589.307	23.09
589.501	23.44
589.694	23.48
589.888	23.43
590.082	23.19
590.275	23.15
590.469	23.17
590.663	23.23
590.856	23.39
591.05	23.4
591.244	23.73
591.437	23.93
591.631	23.65
591.824	23.58
592.018	23.97
592.212	24.58
592.405	24.68
592.599	24.72
592.792	24.5
592.986	24.65
593.179	24.59
593.372	24.58
593.566	24.79
593.759	25.03
593.953	25.3
594.146	25.26
594.339	25.22
594.533	25.12
594.726	25.22
594.92	25.42
595.113	25.04
595.306	25.19
595.499	25.18
595.693	24.98
595.886	24.95
596.079	25.21
596.272	25.12
596.466	24.92
596.659	24.99
596.852	25.01
597.045	25.15
597.238	25.43
597.431	25.26
597.624	25.24
597.818	25.19
598.011	25.03
598.204	24.63
598.397	24.61
598.59	24.56
598.783	24.38
598.976	24.32
599.169	24.51
599.362	24.24
599.555	24.46
599.748	24.43
599.941	24.33
600.134	24.57
600.326	24.95
600.519	24.76
600.712	25.02
600.905	25.32
601.098	25.31
601.291	24.82
601.483	25.05
601.676	25.14
601.869	25.33
602.062	25.7
602.255	25.95
602.447	25.87
602.64	25.97
602.833	26.14
603.025	26.36
603.218	26.48
603.411	26.84
603.603	26.79
603.796	26.82
603.989	26.91
604.181	26.93
604.374	26.77
604.566	26.91
604.759	27.12
604.951	27.22
605.144	26.96
605.336	26.85
605.529	26.64
605.721	26.64
605.914	26.63
606.106	26.53
606.299	26.41
606.491	26.67
606.683	26.68
606.876	26.58
607.068	26.43
607.26	26.42
607.453	26.54
607.645	26.49
607.837	26.61
608.03	26.69
608.222	26.79
608.414	26.69
608.606	26.52
608.799	26.49
608.991	26.66
609.183	26.55
609.375	26.5
609.567	26.26
609.759	26.46
609.952	26.19
610.144	26.04
610.336	25.86
610.528	25.79
610.72	25.78
610.912	25.58
611.104	25.17
611.296	25.36
611.488	25.25
611.68	25.29
611.872	25.43
612.064	25.95
612.256	25.92
612.448	25.88
612.64	25.95
612.832	25.86
613.023	25.77
613.215	26.11
613.407	26.13
613.599	26.37
613.791	26.44
613.983	25.98
614.174	26.03
614.366	26.41
614.558	26.42
614.75	26.69
614.941	26.92
615.133	26.88
615.325	26.86
615.516	26.62
615.708	26.88
615.9	26.91
616.091	27.47
616.283	27.16
616.475	27.05
616.666	27.47
616.858	27.19
617.049	27.21
617.241	27.55
617.432	27.5
617.624	27.57
617.815	27.53
618.007	27.96
618.198	27.68
618.39	27.43
618.581	27.5
618.773	27.36
618.964	27.32
619.155	27.23
619.347	27.4
619.538	27.9
619.729	27.86
619.921	27.7
620.112	27.45
620.303	27.22
620.494	27.56
620.686	27.6
620.877	27.35
621.068	27.72
621.259	27.65
621.451	27.79
621.642	27.39
621.833	27.81
622.024	28.03
622.215	28.18
622.406	28.61
622.597	28.66
622.788	28.48
622.98	28.85
623.171	28.85
623.362	28.78
623.553	28.28
623.744	28.14
623.935	27.82
624.126	27.84
624.317	27.89
624.508	27.64
624.698	27.19
624.889	27.46
625.08	27.46
625.271	27.63
625.462	27.92
625.653	28.18
625.844	28.35
626.034	28.61
626.225	28.55
626.416	28.59
626.607	29.01
626.798	29.76
626.988	29.73
627.179	29.67
627.37	29.52
627.56	29.72
627.751	29.71
627.942	29.76
628.132	29.25
628.323	29.3
628.514	29.06
628.704	29.08
628.895	28.92
629.085	28.92
629.276	29.01
629.466	29.23
629.657	29.13
629.847	29.32
630.038	29.31
630.228	30.12
630.419	30.11
630.609	30.16
630.8	29.85
630.99	29.66
631.181	29.75
631.371	29.79
631.561	29.97
631.752	29.85
631.942	29.84
632.132	29.85
632.323	29.63
632.513	29.59
632.703	29.73
632.893	29.9
633.084	29.54
633.274	29.17
633.464	28.68
633.654	28.25
633.844	28.24
634.034	28.69
634.225	28.78
634.415	28.59
634.605	28.67
634.795	28.82
634.985	28.93
635.175	29.45
635.365	29.98
635.555	30.58
635.745	30.83
635.935	30.85
636.125	30.57
636.315	30.45
636.505	30.59
636.695	30.72
636.885	30.66
637.075	30.39
637.265	30.37
637.455	30.3
637.644	30.31
637.834	30.1
638.024	30.24
638.214	29.62
638.404	29.68
638.593	29.57
638.783	29.32
638.973	29.14
639.163	29.5
639.352	29.06
639.542	28.77
639.732	28.48
639.921	28.52
640.111	28.36
640.301	28.94
640.49	29.32
640.68	29.51
640.87	29.41
641.059	29.17
641.249	28.77
641.438	29.22
641.628	29.51
641.817	30.03
642.007	30.01
642.196	30.16
642.386	29.85
642.575	29.76
642.764	29.52
642.954	30.02
643.143	30.33
643.333	30.2
643.522	30.27
643.711	29.89
643.901	29.44
644.09	29.39
644.279	29.23
644.469	29.21
644.658	28.96
644.847	29.09
645.036	29.16
645.226	28.95
645.415	29.24
645.604	29.34
645.793	29.34
645.982	29.75
646.171	30.02
646.361	30.17
646.55	30.44
646.739	30.34
646.928	30.41
647.117	29.86
647.306	30.24
647.495	30.57
647.684	30.67
647.873	31.3
648.062	30.81
648.251	30.92
648.44	30.93
648.629	31.03
648.818	31.45
649.007	31.32
649.196	31.61
649.384	31.35
649.573	31.18
649.762	31.18
649.951	30.54
650.14	31.01
650.328	30.39
650.517	30.18
650.706	30.22
650.895	30.18
651.083	29.88
651.272	29.85
651.461	29.72
651.65	29.45
651.838	29.03
652.027	29.5
652.216	29.25
652.404	29.65
652.593	29.87
652.781	29.91
652.97	29.63
653.158	29.96
653.347	29.66
653.535	30.12
653.724	30.07
653.912	30.06
654.101	29.93
654.289	29.83
654.478	30.02
654.666	29.83
654.855	29.5
655.043	29.98
655.231	29.63
655.42	30.58
655.608	30.71
655.796	30.96
655.985	31.19
656.173	31.23
656.361	31.43
656.55	30.93
656.738	30.98
656.926	30.85
657.114	30.39
657.302	30.78
657.491	30.01
657.679	29.98
657.867	30.2
658.055	30
658.243	29.76
658.431	30.25
658.619	30.88
658.807	30.86
658.996	31.55
659.184	31.87
659.372	31.54
659.56	32.09
659.748	32.29
659.936	32.04
660.124	32.31
660.311	32.63
660.499	32.44
660.687	31.95
660.875	31.8
661.063	31.41
661.251	30.91
661.439	31.04
661.627	30.58
661.814	29.93
662.002	30.21
662.19	30.33
662.378	30.35
662.565	29.88
662.753	30.18
662.941	30.47
663.129	30.37
663.316	31.17
663.504	30.88
663.692	31.11
663.879	31.8
664.067	31.22
664.254	30.8
664.442	30.65
664.63	30.56
664.817	30.63
665.005	31
665.192	30.92
665.38	30.52
665.567	30.81
665.755	30.67
665.942	30.49
666.13	30.85
666.317	30.57
666.504	30.62
666.692	30.88
666.879	31.19
667.067	31.06
667.254	31.14
667.441	31.5
667.629	31.59
667.816	31.35
668.003	30.73
668.19	31.1
668.378	31.42
668.565	31.53
668.752	31.56
668.939	31.51
669.127	31.36
669.314	31.47
669.501	31.01
669.688	31.18
669.875	31.25
670.062	31.55
670.249	31.73
670.436	31.62
670.623	31.59
670.81	31.63
670.997	31.6
671.184	31.74
671.371	32.13
671.558	31.8
671.745	32.14
671.932	32.31
672.119	32.57
672.306	32.18
672.493	32.4
672.68	32.39
672.867	31.84
673.054	31.78
673.24	31.82
673.427	31.27
673.614	31.66
673.801	31.25
673.988	31.41
674.174	31.27
674.361	31.31
674.548	31.57
674.734	31.2
674.921	31.92
675.108	31.92
675.294	31.49
675.481	31.64
675.668	32.17
675.854	32.58
676.041	31.93
676.227	32.34
676.414	32.21
676.601	32.14
676.787	31.99
676.974	32.05
677.16	31.84
677.347	32.81
677.533	32.35
677.719	32.39
677.906	32.66
678.092	32.86
678.279	32.64
678.465	33.14
678.651	33.39
678.838	34.03
679.024	33.99
679.21	34.3
679.397	33.7
679.583	33.91
679.769	33.78
679.955	33.43
680.142	33.71
680.328	33.9
680.514	33.61
680.7	33.3
680.886	32.71
681.073	32.93
681.259	33.11
681.445	33.28
681.631	33.38
681.817	32.93
682.003	32.96
682.189	32.57
682.375	32.74
682.561	32.81
682.747	32.59
682.933	33.02
683.119	32.54
683.305	32.04
683.491	31.9
683.677	32.39
683.863	32.93
684.049	33.17
684.235	33.88
684.42	33.62
684.606	33.71
684.792	33.93
684.978	33.52
685.164	33.44
685.349	33.27
685.535	33.36
685.721	33.44
685.907	33.36
686.092	33.21
686.278	33.52
686.464	33.27
686.649	33.11
686.835	33.21
687.021	33.51
687.206	33.99
687.392	34.36
687.577	34.84
687.763	34.37
687.948	34.44
688.134	34.23
688.319	33.41
688.505	33.63
688.69	33.75
688.876	33.51
689.061	33.5
689.247	33.45
689.432	33.11
689.618	33.16
689.803	33.19
689.988	33.07
690.174	32.69
690.359	32.57
690.544	32.14
690.73	32.43
690.915	32.51
691.1	32.43
691.285	33.02
691.471	33.06
691.656	32.52
691.841	32.41
692.026	32.52
692.211	32.93
692.396	33.14
692.582	33.45
692.767	33.37
692.952	33.75
693.137	34.85
693.322	34.29
693.507	34.66
693.692	34.53
693.877	34.48
694.062	34.6
694.247	35.03
694.432	35.5
694.617	35.54
694.802	35.38
694.987	35.26
695.172	34.56
695.357	34.79
695.541	35.04
695.726	34.93
695.911	35.04
696.096	34.83
696.281	34.64
696.466	34.05
696.65	34.03
696.835	34.13
697.02	34.36
697.204	34.04
697.389	33.44
697.574	32.93
697.759	32.96
697.943	32.76
698.128	32.35
698.312	32.73
698.497	33.76
698.682	33.93
698.866	34.07
699.051	33.93
699.235	34.06
699.42	34.3
699.604	34.63
699.789	34.64
699.973	34.38
700.158	34.9
700.342	34.61
700.527	33.61
700.711	33.88
700.895	33.66
701.08	33.84
701.264	33.7
701.448	33.29
701.633	33.2
701.817	33.12
702.001	33.77
702.186	33.71
702.37	33.61
702.554	34.34
702.738	34.22
702.923	34.17
703.107	33.79
703.291	33.87
703.475	34.69
703.659	34.33
703.843	34.48
704.027	34.59
704.212	34.43
704.396	34.17
704.58	33.95
704.764	33.04
704.948	33.31
705.132	32.18
705.316	32.18
705.5	32.02
705.684	31.85
705.868	31.88
706.052	31.66
706.235	31.93
706.419	32.53
706.603	32.26
706.787	33.39
706.971	33.77
707.155	34.64
707.339	34.55
707.522	34.42
707.706	34.19
707.89	33.8
708.074	33.64
708.257	33.21
708.441	32.69
708.625	32.56
708.808	32.38
708.992	31.45
709.176	31.73
709.359	32.36
709.543	32.58
709.727	32.85
709.91	33.52
710.094	33.95
710.277	34.58
710.461	34.45
710.644	34.6
710.828	34.48
711.011	34.6
711.195	35.04
711.378	34.31
711.562	34
711.745	34.3
711.928	34.34
712.112	33.92
712.295	33.62
712.478	33.92
712.662	34.01
712.845	34.02
713.028	34.2
713.212	33.77
713.395	34.03
713.578	34.34
713.761	34.73
713.945	34.47
714.128	34.95
714.311	35.01
714.494	35.46
714.677	35.3
714.86	35.1
715.043	34.71
715.227	33.84
715.41	33.56
715.593	34.02
715.776	33.7
715.959	33.82
716.142	33.19
716.325	32.92
716.508	33.02
716.691	33.53
716.874	33.96
717.057	34.82
717.239	35.51
717.422	36.21
717.605	35.1
717.788	35.03
717.971	35.65
718.154	36.94
718.337	37.26
718.519	36.72
718.702	36.42
718.885	35.75
719.068	34.95
719.25	36.15
719.433	35.67
719.616	36.33
719.798	36.09
719.981	35.57
720.164	35.18
720.346	35.03
720.529	36.3
720.712	36.77
720.894	37.11
721.077	37.4
721.259	37.19
721.442	37.29
721.624	37.55
721.807	38.34
721.989	38.17
722.172	37.64
722.354	37.35
722.537	35.69
722.719	35.48
722.901	35.36
723.084	35.1
723.266	35.12
723.448	36.12
723.631	36.01
723.813	35.23
723.995	35.17
724.178	35.13
724.36	35.47
724.542	36.62
724.724	36.2
724.907	36.03
725.089	36.4
725.271	36.33
725.453	35.74
725.635	35.06
725.817	36.56
725.999	36.33
726.181	36.49
726.364	37
726.546	35.7
726.728	35.93
726.91	36
727.092	36.27
727.274	35.65
727.456	35.49
727.638	35.9
727.819	34.98
728.001	36.1
728.183	36.29
728.365	36.27
728.547	36.16
728.729	36.46
728.911	36.9
729.093	36.43
729.274	35.97
729.456	36.07
729.638	35.28
729.82	34.9
730.001	34.37
730.183	34.55
730.365	34.71
730.546	35.8
730.728	35.15
730.91	35.13
731.091	35.37
731.273	35.54
731.455	34.98
731.636	36.16
731.818	36.17
731.999	36.11
732.181	36.08
732.362	36.04
732.544	35.23
732.725	35.71
732.907	35.17
733.088	34.93
733.27	35.56
733.451	35.68
733.633	35.36
733.814	35.54
733.995	34.81
734.177	34.53
734.358	34
734.539	35.24
734.721	34.94
734.902	34.67
735.083	33.53
735.264	34.11
735.446	35.12
735.627	36.12
735.808	35.77
735.989	36.56
736.17	35.19
736.351	36.06
736.533	35.06
736.714	35.3
736.895	35.35
737.076	36.77
737.257	35.85
737.438	33.86
737.619	32.09
737.8	32.83
737.981	31.81
738.162	33.71
738.343	33.58
738.524	32.33
738.705	31.85
738.886	32.44
739.067	31.97
739.247	32.82
739.428	33.88
739.609	35.13
739.79	35.4
739.971	36.59
740.151	36.82
740.332	36.36
740.513	37.77
740.694	39.06
740.874	38.47
741.055	38.96
741.236	37.72
741.417	38.04
741.597	36.66
741.778	35.94
741.958	34.32
742.139	33.64
742.32	33.5
742.5	32.98
742.681	32.17
742.861	32.41
743.042	32.18
743.222	33.5
743.403	32.92
743.583	34.08
743.764	34.38
743.944	35.82
744.124	37.01
744.305	38.12
744.485	38.48
744.666	39.12
744.846	39.34
745.026	38.98
745.207	38.28
745.387	38.59
745.567	39.1
745.747	40.16
745.928	40.51
746.108	39.07
746.288	37.3
746.468	38.46
746.648	37.58
746.829	37.08
747.009	37.4
747.189	37.47
747.369	38.24
747.549	37.76
747.729	37.21
747.909	36.84
748.089	35.88
748.269	36.93
748.449	35.5
748.629	35.82
748.809	36.05
748.989	35.74
749.169	35.88
749.349	35.89
749.529	35.44
749.709	35.65
749.889	35.32
750.068	35.51
750.248	34.54
750.428	34.42
750.608	33.83
750.788	33.82
750.967	33.79
751.147	32.32
751.327	32.74
751.507	31.71
751.686	31.8
751.866	32.29
752.046	32.74
752.225	34
752.405	34.72
752.585	35.77
752.764	36.13
752.944	35.53
753.123	36.26
753.303	35.14
753.482	35.63
753.662	34.79
753.841	34.22
754.021	35.58
754.2	35.17
754.38	35.25
754.559	34.96
754.739	35.14
754.918	36.58
755.097	36.67
755.277	37.24
755.456	38.16
755.635	38.73
755.815	40.29
755.994	39.34
756.173	39.02
756.352	38.25
756.532	38.12
756.711	37.81
756.89	38.41
757.069	38.79
757.248	37.27
757.427	37.78
757.607	37.62
757.786	35.58
757.965	35.31
758.144	35.74
758.323	36.5
758.502	35.57
758.681	36.11
758.86	34.62
759.039	34.69
759.218	35.98
759.397	34.96
759.576	34.12
759.755	34.73
759.934	34.68
760.113	34.93
760.291	34.87
760.47	35.4
760.649	36.39
760.828	36.8
761.007	37
761.186	36.12
761.364	36.1
761.543	37.28
761.722	37.76
761.901	38.99
762.079	39.19
762.258	39.21
762.437	38.42
762.615	37.28
762.794	36.82
762.972	35.58
763.151	36.66
763.33	37.04
763.508	35.89
763.687	35.11
763.865	34.93
764.044	33.35
764.222	33.34
764.401	33.55
764.579	32.85
764.758	32.64
764.936	32.92
765.114	32.63
765.293	32.54
765.471	33.7
765.65	32.99
765.828	32.67
766.006	34.08
766.184	33.98
766.363	34.82
766.541	35.28
766.719	37.25
766.898	38.47
767.076	38.13
767.254	38.22
767.432	37.45
767.61	38.86
767.788	37.84
767.967	38.07
768.145	38.35
768.323	38.44
768.501	37.73
768.679	34.39
768.857	34.53
769.035	34.52
769.213	34.47
769.391	34.78
769.569	34.86
769.747	37.01
769.925	37.71
770.103	38.25
770.281	38.22
770.459	39.8
770.636	41.26
770.814	41.34
770.992	42.12
771.17	41.79
771.348	43.35
771.525	43.98
771.703	43.12
771.881	42.03
772.059	40.26
772.236	38.92
772.414	37.61
772.592	39.22
772.769	37.08
772.947	37.09
773.125	37.7
773.302	35.28
773.48	34.86
773.657	34.75
773.835	33.54
774.013	33.47
774.19	34.45
774.368	35.2
774.545	32.05
774.723	32.41
774.9	32.26
775.077	30.8
775.255	30.3
775.432	29.39
775.61	28.15
775.787	29.17
775.964	27.61
776.142	26.87
776.319	26.12
776.496	28.16
776.674	29.48
776.851	28.59
777.028	28.4
777.205	29.01
777.382	31.65
777.56	32.45
777.737	32.04
777.914	32.65
778.091	33.01
778.268	34.83
778.445	36.08
778.622	36.58
778.8	36.9
778.977	40.41
779.154	40.6
779.331	39.13
779.508	40.03
779.685	40.76
779.862	42.07
780.038	43.16
780.215	40.96
780.392	39.73
780.569	37.31
780.746	38.28
780.923	36.9
781.1	37.72
781.277	36.46
781.453	36.64
781.63	35.7
781.807	36.65
781.984	35.5
782.16	37.53
782.337	38.91
782.514	38.03
782.691	34.94
782.867	33.19
783.044	33.07
783.221	33.86
783.397	34.23
783.574	34.22
783.75	32
783.927	31.99
784.103	31.64
784.28	31.53
784.456	34.05
784.633	35.2
784.809	34.74
784.986	35.51
785.162	38.16
785.339	35.13
785.515	33.29
785.692	33.97
785.868	31.11
786.044	32.48
786.221	31.05
786.397	28.41
786.573	28.71
786.749	28.44
786.926	29.31
787.102	29.17
787.278	29.24
787.454	32.81
787.631	34.21
787.807	36.13
787.983	34.59
788.159	33.58
788.335	35.99
788.511	37.55
788.687	37.94
788.863	37.31
789.039	36.21
789.216	38.3
789.392	38
789.568	36.5
789.744	37.5
789.919	37.87
790.095	38.05
790.271	38.58
790.447	36.04
790.623	38.37
790.799	34.37
790.975	34.85
791.151	34.6
791.327	34.48
791.502	37.76
791.678	39.47
791.854	36.67
792.03	39.2
792.205	40.05
792.381	41.92
792.557	39.05
792.733	41.72
792.908	41.75
793.084	42.82
793.259	42
793.435	41.2
793.611	39.51
793.786	43.39
793.962	42.09
794.137	39.92
794.313	41.31
794.488	43.19
794.664	42.51
794.839	42.66
795.015	39.28
795.19	35.72
795.366	32.05
795.541	29.55
795.716	28.05
795.892	29.54
796.067	30.61
796.242	29.6
796.418	29.35
796.593	29.72
796.768	30.22
796.944	32.55
797.119	35.98
797.294	35.42
797.469	37.3
797.644	36.99
797.82	36.3
797.995	35.83
798.17	33.56
798.345	32.55
798.52	34.31
798.695	31.14
798.87	29.35
799.045	30.66
799.22	32.17
799.395	31.26
799.57	32.03
799.745	31.43
799.92	34.24
800.095	36.61
800.27	36.59
800.445	35.9
800.62	36.57
800.795	35.95
800.97	33.98
801.145	36.9
801.319	37.41
801.494	37.07
801.669	40.33
801.844	40.34
802.018	38.82
802.193	39.7
802.368	38.93
802.543	39.26
802.717	38.49
802.892	42.7
803.067	38.7
803.241	39.29
803.416	40.91
803.59	38.27
803.765	33.83
803.94	35.16
804.114	34.09
804.289	34.69
804.463	36.67
804.638	39.68
804.812	37.58
804.986	38.78
805.161	40.5
805.335	36.56
805.51	36.97
805.684	41.08
805.858	40.33
806.033	41.97
806.207	47.01
806.381	45.36
806.556	42.43
806.73	39.11
806.904	38.01
807.078	37.31
807.253	38.63
807.427	35.83
807.601	33.1
807.775	35.1
807.949	37.38
808.123	33.87
808.298	34.72
808.472	39.48
808.646	47.13
808.82	49.78
808.994	48.79
809.168	50.88
809.342	50.47
809.516	52.03
809.69	54.53
809.864	51.22
810.038	48.66
810.212	46.24
810.385	43.46
810.559	35.71
810.733	33.68
810.907	33.16
811.081	31.46
811.255	36.51
811.428	34.77
811.602	27.44
811.776	26.72
811.95	30.9
812.123	33.41
812.297	35.53
812.471	37.16
812.644	41.16
812.818	40.33
812.992	38.59
813.165	39.43
813.339	41
813.512	40.27
813.686	42.22
813.86	39.41
814.033	38.28
814.207	36.34
814.38	39.15
814.554	35.48
814.727	37.28
814.9	43.4
815.074	41.66
815.247	40.26
815.421	43.02
815.594	46.35
815.767	50.07
815.941	47.67
816.114	47.75
816.287	46.73
816.46	44.17
816.634	45.39
816.807	40.65
816.98	37.9
817.153	39.51
817.327	36.26
817.5	28.5
817.673	26.7
817.846	30.51
818.019	28.44
818.192	25.74
818.365	29.48
818.538	27.46
818.711	25.97
818.884	27.99
819.057	28.52
819.23	31.53
819.403	36.59
819.576	35.04
819.749	36.38
819.922	36.09
820.095	38.06
820.268	40.08
820.441	40.21
820.614	40.92
820.786	41.73
820.959	42.54
821.132	42.35
821.305	41.89
821.477	43.35
821.65	42.49
821.823	43.44
821.996	42.35
822.168	41.51
822.341	42.07
822.514	41.74
822.686	40.66
822.859	40.59
823.031	40.24
823.204	39.88
823.376	39.19
823.549	39.68
823.722	38.77
823.894	39.27
824.067	39.33
824.239	39.83
824.411	40.67
824.584	41.39
824.756	40.92
824.929	41.25
825.101	41.33
825.273	41.75
825.446	39.81
825.618	40.79
825.79	41.9
825.963	40.67
826.135	39.48
826.307	38.45
826.479	39.05
826.652	39.37
826.824	39.81
826.996	39.37
827.168	39.27
827.34	40.64
827.512	39.24
827.684	38.83
827.856	38.6
828.029	38.61
828.201	38.59
828.373	38.39
828.545	36.52
828.717	36.36
828.889	36.3
829.061	35.07
829.232	35.43
829.404	34.91
829.576	33.01
829.748	34.16
829.92	32.42
830.092	33.11
830.264	31.73
830.436	37.13
830.607	36.66
830.779	34.97
830.951	36.57
831.123	35.79
831.294	40.88
831.466	41.23
831.638	41.05
831.809	42.01
831.981	39.95
832.153	40.15
832.324	33.29
832.496	32.22
832.667	35.27
832.839	38.33
833.011	35.67
833.182	33.04
833.354	33.19
833.525	34.45
833.697	35.56
833.868	38.19
834.039	37.36
834.211	38.57
834.382	38.83
834.554	37.32
834.725	33.06
834.896	34.55
835.068	35.23
835.239	35.83
835.41	37
835.581	33.68
835.753	35.66
835.924	40.26
836.095	41.76
836.266	43.15
836.438	44.23
836.609	44.34
836.78	44.06
836.951	44.79
837.122	43.19
837.293	40.61
837.464	48.69
837.635	42.91
837.806	37.78
837.977	36.97
838.148	32.14
838.319	33.74
838.49	40.42
838.661	38.84
838.832	41.7
839.003	40.66
839.174	40.03
839.345	40.1
839.516	42.58
839.687	42.52
839.857	44.07
840.028	46.98
840.199	42.16
840.37	40.66
840.54	45.74
840.711	36.01
840.882	43.56
841.053	45.07
841.223	35.77
841.394	33.8
841.564	38.37
841.735	36.92
841.906	40.26
842.076	44
842.247	44.88
842.417	43.01
842.588	55.01
842.758	54.31
842.929	53.93
843.099	61.44
843.27	64.38
843.44	61.48
843.611	58.39
843.781	63.42
843.951	70.01
844.122	71.35
844.292	70.09
844.462	69.95
844.633	74.61
844.803	74.95
844.973	76.94
845.144	75.8
845.314	80.98
845.484	82.44
845.654	75.62
845.824	71.34
845.995	58.98
846.165	52.27
846.335	40.65
846.505	35.65
846.675	39.65
846.845	44.35
847.015	50.01
847.185	45.45
847.355	50.71
847.525	45.81
847.695	43.72
847.865	50.3
848.035	55.22
848.205	55.22
848.375	56.91
848.545	61.08
848.715	56.43
848.884	56.41
849.054	57.24
849.224	56.72
849.394	60.83
849.564	52.56
849.733	46.07
849.903	41.66
850.073	53.47
850.243	60.22
850.412	50.95
850.582	45.34
850.752	44.03
850.921	47.25
851.091	38.6
851.26	38.56
851.43	41.3
851.599	45.02
851.769	48.27
851.939	42.68
852.108	31.61
852.278	40.84
852.447	57.93
852.616	50.72
852.786	42.27
852.955	53.45
853.125	59.7
853.294	66.4
853.463	59.12
853.633	55.27
853.802	54.28
853.971	68.32
854.141	57.73
854.31	46.54
854.479	56.3
854.648	52.73
854.818	42.11
854.987	49.36
855.156	50.3
855.325	49.56
855.494	41.74
855.663	35.1
855.832	38.31
856.001	41.11
856.171	40.34
856.34	25.48
856.509	28.43
856.678	44.07
856.847	40.29
857.016	43.08
857.185	41.3
857.353	42.73
857.522	35.76
857.691	26.78
857.86	34.51
858.029	41.59
858.198	46.36
858.367	42.5
858.535	32.53
858.704	34.88
858.873	27.53
859.042	26.86
859.21	36.32
859.379	50.63
859.548	46.89
859.717	46.18
859.885	44.94
860.054	38.59
860.222	38.03
860.391	38.95
860.56	30.74
860.728	36.03
860.897	38.72
861.065	33.9
861.234	29.85
861.402	44.83
861.571	29.76
861.739	28.05
861.908	33.15
862.076	31.77
862.244	49.46
862.413	68.33
862.581	80.86
862.749	82.37
862.918	92.44
863.086	78.63
863.254	73.42
863.423	73.89
863.591	64.92
863.759	65.28
863.927	73.39
864.096	68.94
864.264	50.43
864.432	38.77
864.6	35.9
864.768	21.16
864.936	20.88
865.104	27.68
865.272	19.61
865.44	27.83
865.608	20.27
865.776	27.71
865.944	25.24
866.112	34.25
866.28	30.97
866.448	36.75
866.616	38.31
866.784	64.66
866.952	64.99
867.12	78.6
867.288	77.99
867.455	91.18
867.623	79.08
867.791	86.61
867.959	92.79
868.127	113.77
868.294	94.84
868.462	95.99
868.63	82.18
868.797	66.31
868.965	72.3
869.133	59.52
869.3	53.9
869.468	55.25
869.636	47.64
869.803	44.48
869.971	46.92
870.138	45.52
870.306	26.86
870.473	-16.04
870.641	19.57
870.808	-1.52
870.975	24.25
871.143	11.02
871.31	1.16
871.478	23.58
871.645	29.55
871.812	33.98
871.98	51.17
872.147	64.19
872.314	68.52
872.482	71.5
872.649	70.04
872.816	77.36
872.983	86.18
873.15	78.9
873.318	77.75
873.485	82.15
873.652	67.85
873.819	43.01
873.986	34.94
874.153	57.6
874.32	62.53
874.487	70
874.654	70.02
874.821	79.53
874.988	90.13
875.155	76.63
875.322	70.69
875.489	76.64
875.656	76.55
875.823	79.01
875.99	72.78
876.157	66.26
876.324	57.65
876.49	50.46
876.657	45.03
876.824	40.08
876.991	40.22
877.157	39.81
877.324	32.3
877.491	39.77
877.658	34.32
877.824	32.64
877.991	35.28
878.157	46.45
878.324	46.19
878.491	42.69
878.657	48.66
878.824	44.95
878.99	50.34
879.157	48.6
879.323	43.02
879.49	50.38
879.656	54.37
879.823	52.35
879.989	45.44
880.156	46.93
880.322	51.96
880.488	46.64
880.655	69.35
880.821	68.61
880.987	67.87
881.154	78.36
881.32	64.9
881.486	50.12
881.652	53.67
881.819	50.44
881.985	54
882.151	54.24
882.317	55.17
882.483	47.06
882.649	43.27
882.816	40.85
882.982	38.43
883.148	37.32
883.314	41.19
883.48	39.12
883.646	36.86
883.812	32.91
883.978	34.89
884.144	33.27
884.31	36.1
884.476	36.5
884.642	40.17
884.807	41.15
884.973	41.97
885.139	39.73
885.305	37.49
885.471	40.52
885.637	45.85
885.802	42.77
885.968	45.18
886.134	41.84
886.3	36.94
886.465	33.7
886.631	27.94
886.797	28
886.962	34.42
887.128	32.41
887.293	37.5
887.459	31.87
887.625	34.53
887.79	30.39
887.956	36.82
888.121	45.26
888.287	48.15
888.452	55.64
888.618	65.26
888.783	58.01
