Data from 2937824_Reflection_3.txt Node
Date: Wed Jul 15 17:08:44 EDT 2015
User: robert
Spectrometer: USB4E03001
Autoset integration time: false
Trigger mode: 4
Integration Time (sec): 1.000000E-1
Scans to average: 10
Electric dark correction enabled: true
Nonlinearity correction enabled: false
Boxcar width: 5
Stray light correction enabled: false
XAxis mode: Wavelengths
Stop averaging: false
Number of Pixels in Spectrum: 3648
>>>>>Begin Spectral Data<<<<<
177.566	72.66
177.785	66.81
178.005	68.28
178.225	60.32
178.445	54.57
178.665	71.48
178.885	-235.69
179.105	88.76
179.324	100.49
179.544	86.55
179.764	88.44
179.984	64.79
180.204	70.92
180.423	64.27
180.643	72.35
180.863	70.68
181.083	76.81
181.302	64.39
181.522	56.37
181.742	33.19
181.961	46.92
182.181	58.06
182.401	70.54
182.621	65.84
182.84	79.06
183.06	71.76
183.279	70.15
183.499	52.35
183.719	54.86
183.938	79.29
184.158	116.34
184.377	139.61
184.597	149.47
184.816	205.11
185.036	208.23
185.256	774.5
185.475	373.86
185.695	278.76
185.914	572.04
186.134	547.82
186.353	335.85
186.572	270.81
186.792	228.68
187.011	156.67
187.231	104.72
187.45	91.16
187.67	58.31
187.889	60.43
188.108	52.69
188.328	50.86
188.547	43.47
188.766	23.08
188.986	6.58
189.205	28.7
189.424	60
189.644	82.73
189.863	103.75
190.082	137.13
190.302	140.05
190.521	95.9
190.74	95.17
190.959	76.32
191.178	133.43
191.398	129.39
191.617	130.14
191.836	101.81
192.055	87.2
192.274	80.91
192.494	82.37
192.713	87.54
192.932	115.2
193.151	140.69
193.37	151.89
193.589	90.21
193.808	104.28
194.027	67.91
194.246	56.67
194.465	73.29
194.685	59.54
194.904	63.92
195.123	77.82
195.342	87.89
195.561	152.5
195.78	341.03
195.999	184.51
196.218	276.33
196.436	721.51
196.655	-613.74
196.874	-3292.67
197.093	-701.14
197.312	-483.14
197.531	547.18
197.75	462.84
197.969	194.17
198.188	188.38
198.407	177.24
198.625	136.34
198.844	132.11
199.063	134.25
199.282	134.72
199.501	126.31
199.719	120.47
199.938	120.92
200.157	119.19
200.376	115.53
200.594	93.06
200.813	116.71
201.032	149.13
201.251	161.95
201.469	169.51
201.688	162.71
201.907	179.03
202.125	163.34
202.344	159.03
202.563	108.7
202.781	212.5
203	175.06
203.218	142.78
203.437	111.51
203.656	105.22
203.874	63.77
204.093	94.04
204.311	69
204.53	55.92
204.748	92.36
204.967	199.05
205.185	177.84
205.404	1316
205.622	-1553.43
205.841	7520.93
206.059	-221.25
206.278	972.94
206.496	-61.8
206.715	-20.87
206.933	-7.15
207.151	44.49
207.37	108.7
207.588	-123.77
207.806	-33.93
208.025	-47.47
208.243	-3.04
208.461	44.9
208.68	82.76
208.898	88.5
209.116	80.32
209.335	75.27
209.553	72.43
209.771	70.08
209.989	95.16
210.208	91.08
210.426	101.23
210.644	92.45
210.862	85.95
211.081	78.58
211.299	63.74
211.517	63.46
211.735	74.14
211.953	92.36
212.171	130.38
212.39	131.31
212.608	152.23
212.826	128.54
213.044	127.4
213.262	258.02
213.48	193.16
213.698	972.59
213.916	-254.55
214.134	-311.58
214.352	-298.4
214.57	519.56
214.788	-247.55
215.006	-168.01
215.224	272.32
215.442	139.82
215.66	57.7
215.878	115.22
216.096	182.17
216.314	173.36
216.532	151.13
216.75	187.59
216.968	169.41
217.185	153.05
217.403	132.29
217.621	188.59
217.839	249.84
218.057	178.46
218.275	145.41
218.492	102.53
218.71	94.41
218.928	99.35
219.146	85.02
219.363	114.24
219.581	121.58
219.799	141.51
220.017	179.39
220.234	225.73
220.452	530.22
220.67	-1264.73
220.887	-362.32
221.105	-226.18
221.323	-311.26
221.54	-197.92
221.758	-282.32
221.976	-492.99
222.193	-1117.05
222.411	583.47
222.629	444.3
222.846	1169.55
223.064	516.71
223.281	509.12
223.499	350.28
223.716	-227.2
223.934	48.42
224.151	-168.98
224.369	6.58
224.586	-6.78
224.804	-31.87
225.021	-66.93
225.239	-71.61
225.456	-167.29
225.674	-133.24
225.891	-177.27
226.108	3248.58
226.326	-6638.13
226.543	10856.1
226.76	-1096.38
226.978	-2224.65
227.195	-524.01
227.413	-428.31
227.63	-258.26
227.847	-127.32
228.064	-65.18
228.282	-54.49
228.499	-32.4
228.716	-28.14
228.934	-28.69
229.151	-21.01
229.368	-17.98
229.585	-17.69
229.802	-9.93
230.02	-16.37
230.237	-19.36
230.454	-21.98
230.671	-19.98
230.888	-20.24
231.105	-17.72
231.323	-13.2
231.54	-14.2
231.757	-8.25
231.974	-5.77
232.191	-17.6
232.408	-14.87
232.625	-11.01
232.842	-16.89
233.059	-8.69
233.276	-2.58
233.493	-12.42
233.71	-16.15
233.927	-20.83
234.144	-25.94
234.361	-26.61
234.578	-13.58
234.795	-6.92
235.012	-14.65
235.229	-11.16
235.446	-25.81
235.663	-41.45
235.879	-47.41
236.096	-57.89
236.313	-52.46
236.53	-64.23
236.747	-69.49
236.964	-76.92
237.181	-86.45
237.397	-68.22
237.614	-55.39
237.831	-62.02
238.048	-54.11
238.264	-41.99
238.481	-16.96
238.698	-19.76
238.915	-10.88
239.131	-5.18
239.348	-10.1
239.565	-10.2
239.781	-4.31
239.998	-10.22
240.215	-4.16
240.431	-3.48
240.648	-3.18
240.865	-6.7
241.081	-1.03
241.298	-0.45
241.514	-1.52
241.731	-5.04
241.947	-5.27
242.164	-7.17
242.38	-7.29
242.597	-6.54
242.814	-7.85
243.03	-7.25
243.246	-6.94
243.463	-8
243.679	-11.25
243.896	-12.17
244.112	-10.43
244.329	-9.58
244.545	-11.28
244.762	-10.53
244.978	-10.18
245.194	-6.55
245.411	-6.89
245.627	-8.51
245.843	-9.08
246.06	-6.34
246.276	-3.37
246.492	-1.24
246.709	-1.6
246.925	-0.72
247.141	-1.82
247.357	-2.49
247.574	-3.73
247.79	-4.05
248.006	-3.9
248.222	-4.16
248.439	-5.45
248.655	-6.88
248.871	-7.81
249.087	-8.47
249.303	-9.48
249.519	-9.61
249.736	-11.88
249.952	-13.45
250.168	-14.15
250.384	-16.08
250.6	-14.28
250.816	-15.55
251.032	-16.6
251.248	-16.96
251.464	-17.55
251.68	-17.07
251.896	-18.26
252.112	-18.05
252.328	-15.71
252.544	-17.36
252.76	-17.46
252.976	-19.15
253.192	-14.14
253.408	-13.22
253.624	-13.77
253.84	-14.17
254.056	-14.22
254.272	-12.89
254.487	-13.98
254.703	-15.19
254.919	-12.74
255.135	-9.61
255.351	-11.22
255.567	-17.29
255.782	-14.39
255.998	-15.23
256.214	-10.48
256.43	-9.81
256.646	-10.25
256.861	-8.11
257.077	-7.65
257.293	-6.17
257.508	-5.31
257.724	-1.64
257.94	-0.87
258.155	-2.42
258.371	-3.55
258.587	-3.66
258.802	-3.65
259.018	-0.92
259.234	0.72
259.449	2
259.665	1.99
259.88	1.06
260.096	-0.57
260.312	0.03
260.527	-0.25
260.743	0.48
260.958	-0.53
261.174	-0.05
261.389	-1.73
261.605	-0.91
261.82	-2.02
262.036	-3.05
262.251	-2.98
262.466	-2.38
262.682	-3.02
262.897	-4.13
263.113	-6.56
263.328	-5.89
263.543	-9.08
263.759	-7.37
263.974	-13.09
264.189	-13.52
264.405	-15.01
264.62	-14.1
264.835	-14.81
265.051	-14.11
265.266	-11.87
265.481	-7.89
265.696	-7.1
265.912	-4.94
266.127	-3.32
266.342	-2.31
266.557	-2.7
266.773	-3.61
266.988	-5.12
267.203	-5.03
267.418	-5.6
267.633	-5.77
267.848	-6.83
268.064	-7.43
268.279	-6.75
268.494	-10.69
268.709	-9.77
268.924	-9.54
269.139	-6.98
269.354	-7.57
269.569	-9.72
269.784	-11.3
269.999	-11.6
270.214	-12.11
270.429	-12.7
270.644	-13.91
270.859	-12.11
271.074	-10.88
271.289	-9.88
271.504	-10.52
271.719	-9.16
271.934	-5.99
272.149	-6.8
272.363	-7.14
272.578	-5.76
272.793	-4.67
273.008	-2.69
273.223	-2.76
273.438	-5.54
273.653	-6.38
273.867	-6.28
274.082	-7.9
274.297	-10.39
274.512	-9.22
274.726	-8.28
274.941	-8.42
275.156	-9.9
275.371	-14.54
275.585	-11.78
275.8	-8.48
276.015	-10.05
276.229	-9.69
276.444	-10.05
276.659	-9.32
276.873	-7.69
277.088	-9.91
277.302	-12.53
277.517	-11.67
277.732	-8.14
277.946	-10.11
278.161	-12.02
278.375	-11.74
278.59	-10.87
278.804	-8.94
279.019	-8.35
279.233	-10.09
279.448	-6.22
279.662	-3.33
279.877	-4.42
280.091	-7.14
280.306	-7.2
280.52	-8.23
280.735	-6.18
280.949	-7.12
281.163	-6.21
281.378	-6.73
281.592	-8.31
281.806	-9.04
282.021	-7.92
282.235	-7.3
282.449	-7.04
282.664	-9.47
282.878	-9.34
283.092	-10.18
283.307	-11.14
283.521	-11.25
283.735	-10.51
283.949	-9.78
284.164	-10.48
284.378	-11.52
284.592	-10.04
284.806	-9.8
285.02	-7.28
285.234	-6.9
285.449	-5.82
285.663	-3.19
285.877	-2.72
286.091	-3.42
286.305	-1.44
286.519	-0.92
286.733	-1.72
286.947	-3.28
287.161	-3.36
287.375	-3.27
287.589	-3.04
287.803	-4.48
288.017	-5.75
288.231	-6.62
288.445	-6
288.659	-9
288.873	-9.62
289.087	-7.45
289.301	-6.58
289.515	-4
289.729	-5.32
289.943	-2.56
290.157	-1.82
290.371	-2.62
290.584	-3.17
290.798	-2.78
291.012	-2.79
291.226	-2.37
291.44	-4.39
291.654	-2.41
291.867	-4.36
292.081	-4.18
292.295	-6.4
292.509	-6.14
292.722	-4.88
292.936	-3.43
293.15	-4.34
293.364	-4.95
293.577	-4.94
293.791	-4.71
294.005	-6.98
294.218	-6.76
294.432	-5.58
294.645	-5.87
294.859	-7.21
295.073	-7.15
295.286	-8.46
295.5	-8.35
295.713	-4.9
295.927	-6.95
296.14	-4
296.354	-2.96
296.568	-2.84
296.781	-1.58
296.994	-0.47
297.208	2.27
297.421	2.13
297.635	1.4
297.848	2.24
298.062	2.31
298.275	3.02
298.489	2.65
298.702	2.05
298.915	3.28
299.129	3.56
299.342	3.04
299.555	2.04
299.769	1.91
299.982	3.65
300.195	3.98
300.409	2.47
300.622	3.27
300.835	0.98
301.048	1.83
301.262	2.61
301.475	0.87
301.688	2.3
301.901	1.6
302.115	0.76
302.328	1.48
302.541	1.96
302.754	-0.14
302.967	0.5
303.18	2.6
303.393	0.97
303.607	-1.77
303.82	-0.73
304.033	-0.33
304.246	-0.55
304.459	-0.45
304.672	-2.21
304.885	-3.42
305.098	-0.51
305.311	-3.58
305.524	-4.5
305.737	-2.98
305.95	-3.25
306.163	-4.58
306.376	-4.01
306.589	-2.58
306.802	-0.34
307.015	1.29
307.228	1.04
307.44	-0.29
307.653	2.27
307.866	3.38
308.079	1.44
308.292	-0.05
308.505	-0.86
308.718	-2.65
308.93	-2.43
309.143	-3.04
309.356	-2.17
309.569	-1.13
309.781	1.51
309.994	2.46
310.207	0.56
310.42	2.7
310.632	5.97
310.845	6.91
311.058	8.46
311.27	7.77
311.483	8.02
311.696	7.02
311.908	7.59
312.121	6.29
312.333	7.49
312.546	6.97
312.759	5.31
312.971	4.71
313.184	4.6
313.396	2.46
313.609	2.55
313.821	1.33
314.034	1.74
314.246	1.11
314.459	1.02
314.671	0.22
314.884	3.52
315.096	5.28
315.309	6.61
315.521	5.39
315.733	4.89
315.946	4.12
316.158	5.39
316.371	6.28
316.583	6.82
316.795	6.38
317.008	4.56
317.22	2.52
317.432	2.07
317.644	-0.16
317.857	1.42
318.069	1.48
318.281	4.47
318.494	8.42
318.706	7.24
318.918	5.87
319.13	7.65
319.342	8.39
319.555	9.27
319.767	10.11
319.979	8.61
320.191	9.56
320.403	10.77
320.615	9.45
320.827	5.17
321.039	6.13
321.252	5.62
321.464	5.23
321.676	4.61
321.888	5.06
322.1	1.7
322.312	4.56
322.524	4.97
322.736	5.86
322.948	4.93
323.16	6.86
323.372	7.36
323.584	7.67
323.796	9.85
324.007	9.73
324.219	8.13
324.431	10.55
324.643	10.18
324.855	11.03
325.067	11.96
325.279	11.51
325.491	10.83
325.702	11.73
325.914	12.4
326.126	12.02
326.338	12.47
326.55	14.39
326.761	15.1
326.973	13.81
327.185	13.39
327.396	12.85
327.608	13.8
327.82	15.64
328.032	13.85
328.243	13.79
328.455	12.88
328.666	14.9
328.878	15.66
329.09	13.99
329.301	17.31
329.513	18.34
329.725	18.45
329.936	20.2
330.148	19.98
330.359	22.61
330.571	25.16
330.782	25.73
330.994	25.9
331.205	25.95
331.417	28.66
331.628	28.38
331.84	27.53
332.051	29.17
332.262	28.05
332.474	28.05
332.685	31.07
332.897	31.21
333.108	33.18
333.319	33.41
333.531	35.17
333.742	34.11
333.953	36.45
334.165	37.7
334.376	38.44
334.587	39.52
334.799	39.34
335.01	35.12
335.221	34.4
335.432	35.18
335.644	36.11
335.855	34.49
336.066	36.67
336.277	35.71
336.488	35.23
336.7	34.87
336.911	35.67
337.122	38.47
337.333	40.53
337.544	40.7
337.755	40.31
337.966	39.67
338.177	40.67
338.388	40.06
338.599	40.6
338.811	41.65
339.022	41.37
339.233	40.04
339.444	38.21
339.655	40.45
339.866	41.43
340.076	39.75
340.287	40.57
340.498	42.11
340.709	42.98
340.92	42.96
341.131	43.35
341.342	42.83
341.553	43.05
341.764	42.84
341.975	40.27
342.185	41.5
342.396	43.36
342.607	44.32
342.818	42.81
343.029	42.79
343.239	43.78
343.45	43.73
343.661	44.63
343.872	45.35
344.082	46.88
344.293	46.78
344.504	46.54
344.714	44.99
344.925	44.14
345.136	44.69
345.346	43.81
345.557	42.5
345.768	42.99
345.978	43.2
346.189	44.32
346.399	43.38
346.61	44.67
346.821	44.65
347.031	45.03
347.242	45.07
347.452	45.26
347.663	46.83
347.873	47.87
348.084	47.26
348.294	48.47
348.504	48.23
348.715	50.05
348.925	50.8
349.136	51.91
349.346	52.76
349.557	51.96
349.767	52.38
349.977	51.24
350.188	52.71
350.398	52.71
350.608	52.42
350.819	52.68
351.029	50.51
351.239	50.67
351.449	50
351.66	51.18
351.87	51.8
352.08	51.87
352.29	51.61
352.501	48.8
352.711	49.98
352.921	50.85
353.131	51.76
353.341	53.12
353.552	52.85
353.762	52.46
353.972	52.49
354.182	53.79
354.392	53.77
354.602	55.1
354.812	56.72
355.022	56.14
355.232	54.26
355.442	52.48
355.652	51.52
355.862	52.05
356.072	52.75
356.282	51.94
356.492	51.55
356.702	52.78
356.912	52.17
357.122	51.39
357.332	51.75
357.542	51.66
357.752	52.94
357.962	53.43
358.171	52.76
358.381	52.42
358.591	52.8
358.801	52.62
359.011	50.68
359.221	50.28
359.43	50.69
359.64	50.2
359.85	51.02
360.06	50.52
360.269	51.57
360.479	50.25
360.689	50.34
360.899	49.74
361.108	49.11
361.318	50.01
361.528	50.6
361.737	50.65
361.947	50.65
362.156	50.41
362.366	50.73
362.576	48.72
362.785	49.59
362.995	48.97
363.204	48.82
363.414	49.26
363.623	48.54
363.833	48.2
364.042	48.29
364.252	47.93
364.461	47.99
364.671	47.78
364.88	49.34
365.09	48.46
365.299	49.05
365.509	48.58
365.718	47.89
365.927	48.18
366.137	48.01
366.346	47.33
366.555	47.43
366.765	46.49
366.974	45.87
367.183	44.82
367.393	45.81
367.602	45.57
367.811	45.97
368.021	45.4
368.23	45.3
368.439	45.53
368.648	44.88
368.857	44.58
369.067	44.51
369.276	44.6
369.485	44.73
369.694	44.68
369.903	44.99
370.112	45.17
370.321	45.46
370.531	46.21
370.74	45.78
370.949	46.48
371.158	46.25
371.367	46.49
371.576	47.22
371.785	47.02
371.994	45.67
372.203	44.55
372.412	44.26
372.621	44.42
372.83	44.06
373.039	44.08
373.248	44.3
373.457	45.08
373.666	45.97
373.874	44.6
374.083	44.39
374.292	44.68
374.501	44.05
374.71	43.83
374.919	43.65
375.128	43.01
375.336	43.31
375.545	42.79
375.754	42.48
375.963	41.24
376.171	41.58
376.38	41.75
376.589	41.45
376.798	42.32
377.006	42.52
377.215	42.2
377.424	42.17
377.632	41.44
377.841	41.57
378.05	40.27
378.258	40.01
378.467	39.56
378.675	39.19
378.884	38.76
379.093	38.08
379.301	38.37
379.51	38.84
379.718	38.28
379.927	38.48
380.135	38.68
380.344	39.08
380.552	40.24
380.761	40.14
380.969	40.71
381.177	40.75
381.386	41.26
381.594	40.35
381.803	39.66
382.011	39.25
382.219	38.69
382.428	37.43
382.636	37.43
382.845	37.01
383.053	36.73
383.261	36.39
383.469	37.01
383.678	36.64
383.886	36.41
384.094	36.55
384.302	36.63
384.511	36.74
384.719	36.95
384.927	36.92
385.135	36.11
385.343	36.25
385.552	35.92
385.76	35.55
385.968	35.31
386.176	34.85
386.384	34.46
386.592	34.18
386.8	33.75
387.008	33.77
387.216	33.76
387.424	33.33
387.633	32.97
387.841	32.64
388.049	32.48
388.257	32
388.465	32.43
388.672	32.69
388.88	32.67
389.088	32.46
389.296	32.17
389.504	31.78
389.712	32.12
389.92	31.95
390.128	32.3
390.336	32.15
390.544	32.04
390.751	31.65
390.959	31.27
391.167	31.42
391.375	31.69
391.583	31.79
391.79	31.69
391.998	31.54
392.206	31.87
392.414	31.37
392.621	31.61
392.829	31.48
393.037	31.51
393.244	31.33
393.452	31.43
393.66	31.19
393.867	31.06
394.075	31.1
394.283	31.18
394.49	31.06
394.698	31.13
394.905	30.68
395.113	30.81
395.32	30.71
395.528	30.77
395.735	30.59
395.943	30.57
396.15	30.48
396.358	31.17
396.565	31.42
396.773	31.31
396.98	31.33
397.188	31.63
397.395	31.68
397.602	31.92
397.81	32.08
398.017	32.45
398.225	32.51
398.432	32.68
398.639	31.89
398.847	31.59
399.054	31.89
399.261	31.61
399.468	31.67
399.676	31.87
399.883	32.08
400.09	32.23
400.297	31.95
400.505	32.07
400.712	32.45
400.919	32.67
401.126	32.72
401.333	32.66
401.54	32.85
401.748	32.8
401.955	32.49
402.162	32.28
402.369	32.36
402.576	32.33
402.783	32.13
402.99	32.1
403.197	32.03
403.404	31.72
403.611	31.67
403.818	31.93
404.025	31.66
404.232	31.84
404.439	31.81
404.646	31.68
404.853	31.93
405.06	32.53
405.267	32.24
405.474	32.42
405.681	32.6
405.887	32.78
406.094	32.55
406.301	32.6
406.508	32.75
406.715	32.57
406.922	32.51
407.128	32.24
407.335	31.46
407.542	31.41
407.749	31.35
407.955	31.28
408.162	31.14
408.369	31.33
408.575	31.53
408.782	31.43
408.989	31.69
409.195	31.38
409.402	31.4
409.609	31.69
409.815	32.03
410.022	31.71
410.228	31.69
410.435	31.44
410.642	31.47
410.848	31.26
411.055	31.03
411.261	30.76
411.468	31.06
411.674	30.91
411.881	30.98
412.087	30.68
412.294	30.76
412.5	30.92
412.706	30.96
412.913	30.82
413.119	31.05
413.326	31.42
413.532	31.67
413.738	31.51
413.945	31.44
414.151	31.52
414.357	31.57
414.564	31.71
414.77	31.75
414.976	31.8
415.182	31.85
415.389	31.84
415.595	31.54
415.801	31.45
416.007	31.8
416.214	31.82
416.42	31.66
416.626	31.53
416.832	31.49
417.038	31.36
417.244	31.12
417.45	31.13
417.657	30.93
417.863	31.01
418.069	30.97
418.275	30.62
418.481	30.52
418.687	30.49
418.893	30.42
419.099	30.42
419.305	30.46
419.511	30.51
419.717	30.32
419.923	30.35
420.129	30.26
420.335	30.27
420.541	30.29
420.746	30.14
420.952	30.16
421.158	30.32
421.364	30.34
421.57	30.23
421.776	30.29
421.982	30.36
422.187	30.32
422.393	30.24
422.599	30.3
422.805	30.52
423.01	30.7
423.216	30.58
423.422	30.44
423.628	30.32
423.833	30.37
424.039	30.21
424.245	30.23
424.45	30.06
424.656	30.01
424.862	29.9
425.067	29.91
425.273	29.87
425.478	29.93
425.684	29.92
425.889	29.81
426.095	29.73
426.301	29.76
426.506	29.63
426.712	29.86
426.917	29.95
427.123	29.82
427.328	29.49
427.533	29.47
427.739	29.41
427.944	29.31
428.15	29.33
428.355	29.15
428.561	29.21
428.766	29.22
428.971	29.07
429.177	29.13
429.382	29.06
429.587	28.97
429.793	28.88
429.998	28.73
430.203	28.58
430.408	28.75
430.614	29
430.819	28.88
431.024	28.92
431.229	29
431.434	29.11
431.64	29.21
431.845	29.2
432.05	29.19
432.255	29.36
432.46	29.56
432.665	29.49
432.87	29.4
433.076	29.64
433.281	29.64
433.486	29.68
433.691	29.54
433.896	29.58
434.101	29.43
434.306	29.52
434.511	29.48
434.716	29.41
434.921	29.29
435.126	29.29
435.331	28.87
435.535	28.77
435.74	28.78
435.945	28.96
436.15	28.97
436.355	29
436.56	28.66
436.765	28.77
436.97	28.78
437.174	28.83
437.379	28.8
437.584	29.04
437.789	29.25
437.993	29.24
438.198	29.24
438.403	29.27
438.608	29.38
438.812	29.71
439.017	29.45
439.222	29.4
439.426	29.36
439.631	29.39
439.836	29.42
440.04	29.33
440.245	29.3
440.45	29.18
440.654	29.16
440.859	29.2
441.063	29.13
441.268	29.26
441.472	29.25
441.677	29.16
441.881	29.08
442.086	29.01
442.29	29.04
442.495	29.04
442.699	28.9
442.904	28.98
443.108	28.93
443.312	28.98
443.517	28.89
443.721	28.91
443.925	29.03
444.13	29.05
444.334	29.06
444.538	28.94
444.743	28.94
444.947	29.04
445.151	29.06
445.356	28.94
445.56	28.87
445.764	28.88
445.968	28.91
446.173	29.01
446.377	29
446.581	28.95
446.785	29.01
446.989	29.02
447.193	29.01
447.398	28.77
447.602	28.75
447.806	28.78
448.01	28.66
448.214	28.61
448.418	28.48
448.622	28.56
448.826	28.57
449.03	28.36
449.234	28.27
449.438	28.2
449.642	28.21
449.846	28.09
450.05	28.03
450.254	28.09
450.458	27.95
450.662	27.94
450.866	27.79
451.069	27.89
451.273	27.88
451.477	27.79
451.681	27.53
451.885	27.62
452.089	27.78
452.292	27.57
452.496	27.56
452.7	27.43
452.904	27.52
453.107	27.41
453.311	27.22
453.515	27.18
453.719	27.18
453.922	27.45
454.126	27.53
454.33	27.51
454.533	27.41
454.737	27.41
454.94	27.5
455.144	27.39
455.348	27.49
455.551	27.8
455.755	27.98
455.958	27.92
456.162	27.82
456.365	27.61
456.569	27.53
456.772	27.69
456.976	27.85
457.179	28.21
457.383	28.23
457.586	28.2
457.79	27.94
457.993	27.78
458.196	27.82
458.4	27.85
458.603	27.81
458.807	27.97
459.01	28.02
459.213	27.89
459.417	27.73
459.62	27.63
459.823	27.79
460.026	27.78
460.23	27.87
460.433	27.97
460.636	27.99
460.839	28.12
461.042	28.1
461.246	28.16
461.449	28.31
461.652	28.25
461.855	28.4
462.058	28.42
462.261	28.41
462.464	28.57
462.668	28.69
462.871	28.81
463.074	28.91
463.277	28.98
463.48	29.19
463.683	29.21
463.886	29.47
464.089	29.63
464.292	29.46
464.495	29.68
464.698	29.66
464.901	29.57
465.104	29.45
465.306	29.22
465.509	29.17
465.712	28.92
465.915	29.04
466.118	28.86
466.321	28.58
466.524	28.57
466.726	28.57
466.929	28.57
467.132	28.55
467.335	28.66
467.538	28.66
467.74	28.89
467.943	28.88
468.146	28.75
468.348	28.83
468.551	28.88
468.754	28.93
468.956	28.77
469.159	28.64
469.362	28.52
469.564	28.26
469.767	28.56
469.969	28.55
470.172	28.72
470.375	28.71
470.577	29.03
470.78	29.25
470.982	29.1
471.185	29.34
471.387	29.41
471.59	29.45
471.792	29.68
471.995	29.68
472.197	29.54
472.399	29.35
472.602	29.33
472.804	29.12
473.007	29.14
473.209	29.48
473.411	29.2
473.614	29.22
473.816	29.43
474.018	29.41
474.22	29.41
474.423	29.34
474.625	29.48
474.827	29.4
475.03	29.42
475.232	29.21
475.434	28.92
475.636	29.06
475.838	28.98
476.04	28.85
476.243	29.08
476.445	28.85
476.647	28.9
476.849	28.93
477.051	29.19
477.253	29.27
477.455	29.44
477.657	29.61
477.859	29.75
478.061	29.93
478.263	29.91
478.465	29.76
478.667	30.07
478.869	30
479.071	30
479.273	29.71
479.475	29.63
479.677	29.63
479.879	29.54
480.081	29.55
480.283	29.48
480.485	29.73
480.686	29.78
480.888	29.65
481.09	29.63
481.292	29.51
481.494	29.66
481.695	29.62
481.897	29.61
482.099	29.58
482.301	29.52
482.502	29.4
482.704	29.22
482.906	29.24
483.107	29.24
483.309	29.39
483.511	29.44
483.712	29.44
483.914	29.45
484.115	29.37
484.317	29.42
484.519	29.39
484.72	29.4
484.922	29.46
485.123	29.4
485.325	29.39
485.526	29.33
485.728	29.25
485.929	29.2
486.131	29.16
486.332	29.23
486.534	29.16
486.735	29.13
486.936	29.15
487.138	29.11
487.339	29.18
487.541	29.12
487.742	29.12
487.943	29.19
488.144	29.25
488.346	29.3
488.547	29.32
488.748	29.4
488.95	29.45
489.151	29.47
489.352	29.47
489.553	29.44
489.755	29.5
489.956	29.52
490.157	29.52
490.358	29.5
490.559	29.35
490.76	29.31
490.961	29.21
491.163	29.13
491.364	29.15
491.565	29.17
491.766	29.24
491.967	29.29
492.168	29.37
492.369	29.35
492.57	29.39
492.771	29.47
492.972	29.41
493.173	29.46
493.374	29.58
493.575	29.53
493.776	29.57
493.976	29.57
494.177	29.46
494.378	29.35
494.579	29.46
494.78	29.41
494.981	29.49
495.182	29.81
495.382	29.77
495.583	29.6
495.784	29.73
495.985	29.92
496.185	30.01
496.386	30.22
496.587	30.11
496.788	30.03
496.988	30.05
497.189	30.19
497.39	30.2
497.59	30.26
497.791	30.68
497.992	30.77
498.192	30.77
498.393	30.8
498.593	30.67
498.794	30.75
498.994	30.92
499.195	30.99
499.395	30.87
499.596	30.81
499.796	30.91
499.997	30.69
500.197	30.82
500.398	30.79
500.598	30.73
500.799	30.78
500.999	30.89
501.199	30.72
501.4	30.82
501.6	31
501.801	31.02
502.001	31.08
502.201	31.14
502.402	31.17
502.602	31.23
502.802	31.17
503.002	31.33
503.203	31.44
503.403	31.72
503.603	31.88
503.803	31.84
504.003	32.05
504.204	32.26
504.404	32.5
504.604	32.68
504.804	32.72
505.004	33.03
505.204	33.35
505.404	33.46
505.604	33.58
505.804	33.57
506.005	33.56
506.205	33.53
506.405	33.5
506.605	33.6
506.805	33.53
507.005	33.75
507.204	33.58
507.404	33.4
507.604	33.46
507.804	33.48
508.004	33.46
508.204	33.73
508.404	33.84
508.604	34.01
508.804	34.02
509.003	34.18
509.203	34.26
509.403	34.47
509.603	34.8
509.803	34.93
510.002	34.99
510.202	35.12
510.402	35.08
510.602	35.05
510.801	35.05
511.001	35.23
511.201	35.3
511.4	35.24
511.6	35.27
511.8	35.25
511.999	35.39
512.199	35.43
512.398	35.6
512.598	35.87
512.797	35.9
512.997	35.95
513.197	35.92
513.396	35.97
513.596	36.01
513.795	35.98
513.994	36.04
514.194	36.06
514.393	36.32
514.593	36.46
514.792	36.31
514.992	36.49
515.191	36.57
515.39	36.65
515.59	36.58
515.789	36.75
515.988	37.06
516.188	37.05
516.387	37.06
516.586	37.13
516.786	37
516.985	37.25
517.184	37.41
517.383	37.52
517.582	37.43
517.782	37.54
517.981	37.62
518.18	37.67
518.379	37.83
518.578	37.91
518.777	37.99
518.976	38.13
519.176	38.2
519.375	38.25
519.574	38.35
519.773	38.58
519.972	38.71
520.171	38.84
520.37	38.95
520.569	39
520.768	39.07
520.967	39.19
521.166	39.17
521.365	39.2
521.564	39.21
521.762	39.2
521.961	39.22
522.16	39.24
522.359	39.27
522.558	39.19
522.757	39.17
522.956	39.05
523.154	38.94
523.353	39.17
523.552	39.11
523.751	39.06
523.949	39.35
524.148	39.36
524.347	39.41
524.546	39.45
524.744	39.59
524.943	39.8
525.142	40.23
525.34	40.2
525.539	40.17
525.737	40.18
525.936	40.29
526.135	40.2
526.333	40.18
526.532	40.15
526.73	40.13
526.929	40.18
527.127	40.2
527.326	40.15
527.524	40.23
527.723	40.27
527.921	40.37
528.12	40.54
528.318	40.56
528.516	40.68
528.715	40.81
528.913	40.89
529.112	40.9
529.31	40.9
529.508	40.93
529.707	40.92
529.905	40.98
530.103	41.11
530.301	41.09
530.5	41.14
530.698	41.15
530.896	41.14
531.094	41.16
531.293	41.37
531.491	41.34
531.689	41.34
531.887	41.49
532.085	41.55
532.283	41.46
532.481	41.53
532.68	41.53
532.878	41.53
533.076	41.62
533.274	41.63
533.472	41.57
533.67	41.59
533.868	41.61
534.066	41.6
534.264	41.53
534.462	41.48
534.66	41.47
534.858	41.54
535.056	41.62
535.253	41.64
535.451	41.78
535.649	41.75
535.847	41.74
536.045	41.83
536.243	41.93
536.441	42.06
536.638	42.12
536.836	42.07
537.034	42.01
537.232	42.02
537.43	41.94
537.627	41.79
537.825	41.68
538.023	41.88
538.22	41.75
538.418	41.56
538.616	41.71
538.813	41.75
539.011	41.78
539.209	41.97
539.406	41.96
539.604	42.01
539.801	42.13
539.999	42.29
540.196	42.16
540.394	42.09
540.591	42.21
540.789	42
540.986	42.11
541.184	42.05
541.381	42.06
541.579	42.05
541.776	42.01
541.974	41.99
542.171	41.87
542.368	41.95
542.566	42.08
542.763	42.16
542.96	42.3
543.158	42.26
543.355	42.35
543.552	42.26
543.75	42.33
543.947	42.42
544.144	42.37
544.341	42.56
544.539	42.49
544.736	42.46
544.933	42.42
545.13	42.43
545.327	42.43
545.524	42.34
545.722	42.3
545.919	42.38
546.116	42.36
546.313	42.32
546.51	42.39
546.707	42.44
546.904	42.44
547.101	42.44
547.298	42.32
547.495	42.36
547.692	42.47
547.889	42.61
548.086	42.54
548.283	42.68
548.48	42.9
548.677	42.81
548.874	42.71
549.07	42.62
549.267	42.58
549.464	42.73
549.661	42.54
549.858	42.57
550.055	42.58
550.251	42.71
550.448	42.6
550.645	42.62
550.842	42.72
551.038	42.8
551.235	42.91
551.432	42.79
551.628	42.9
551.825	42.92
552.022	42.79
552.218	42.85
552.415	42.72
552.612	42.62
552.808	42.7
553.005	42.51
553.201	42.58
553.398	42.51
553.594	42.69
553.791	42.72
553.987	42.87
554.184	43
554.38	43.04
554.577	43.01
554.773	43.24
554.97	43.29
555.166	43.41
555.362	43.49
555.559	43.83
555.755	43.62
555.952	43.61
556.148	43.66
556.344	43.73
556.541	43.55
556.737	43.8
556.933	43.62
557.129	43.74
557.326	43.77
557.522	43.61
557.718	43.32
557.914	43.63
558.11	43.39
558.307	43.31
558.503	43.36
558.699	43.42
558.895	43.19
559.091	43.29
559.287	42.9
559.483	43
559.679	43.14
559.876	43.53
560.072	43.59
560.268	43.64
560.464	43.72
560.66	43.83
560.856	43.89
561.052	43.87
561.247	43.78
561.443	43.99
561.639	44.05
561.835	44.03
562.031	43.67
562.227	43.63
562.423	43.73
562.619	43.71
562.815	43.77
563.01	43.68
563.206	43.72
563.402	43.74
563.598	43.74
563.793	43.73
563.989	43.63
564.185	43.62
564.381	43.75
564.576	43.7
564.772	43.8
564.968	43.61
565.163	43.74
565.359	43.72
565.555	43.87
565.75	43.98
565.946	43.78
566.141	43.81
566.337	43.98
566.532	43.59
566.728	43.67
566.923	43.63
567.119	43.68
567.314	43.59
567.51	43.75
567.705	43.61
567.901	43.49
568.096	43.64
568.292	43.67
568.487	43.79
568.682	43.91
568.878	43.93
569.073	43.92
569.268	44.08
569.464	44.17
569.659	44.19
569.854	44.09
570.05	44.19
570.245	44.28
570.44	44.38
570.635	44.34
570.831	44.49
571.026	44.4
571.221	44.29
571.416	44.12
571.611	43.98
571.806	43.99
572.002	44.18
572.197	44.13
572.392	44.11
572.587	44.1
572.782	43.98
572.977	44.01
573.172	43.87
573.367	44.12
573.562	44.12
573.757	44.3
573.952	44.36
574.147	44.32
574.342	44.48
574.537	44.32
574.732	44.21
574.927	44.18
575.121	44.01
575.316	44.17
575.511	44.17
575.706	44.21
575.901	44.16
576.096	44.25
576.29	44.32
576.485	44.23
576.68	44.31
576.875	44.58
577.069	44.87
577.264	45.11
577.459	45.12
577.654	44.73
577.848	44.82
578.043	45.06
578.238	44.9
578.432	44.88
578.627	44.71
578.821	45
579.016	44.92
579.21	44.58
579.405	44.64
579.6	44.77
579.794	45.06
579.989	45.11
580.183	44.99
580.378	44.98
580.572	45.12
580.766	45.29
580.961	45.2
581.155	45.34
581.35	45.38
581.544	45.39
581.738	45.07
581.933	44.99
582.127	44.66
582.321	44.75
582.516	44.84
582.71	44.53
582.904	44.65
583.099	44.65
583.293	44.42
583.487	44.37
583.681	44.44
583.875	44.66
584.07	44.74
584.264	45.09
584.458	44.93
584.652	45.01
584.846	45.29
585.04	45.26
585.234	45.17
585.428	45.15
585.623	45.34
585.817	45.47
586.011	45.44
586.205	45.53
586.399	45.5
586.593	45.42
586.787	45.19
586.981	45.31
587.174	44.95
587.368	45.17
587.562	45.29
587.756	45.04
587.95	44.87
588.144	44.88
588.338	44.76
588.532	44.79
588.725	44.82
588.919	44.83
589.113	44.86
589.307	45.2
589.501	45.15
589.694	45.08
589.888	45.14
590.082	44.89
590.275	44.9
590.469	45.15
590.663	44.77
590.856	44.71
591.05	44.78
591.244	44.4
591.437	44.26
591.631	44.34
591.824	44.5
592.018	44.93
592.212	45.14
592.405	45.22
592.599	45.13
592.792	45.35
592.986	45.55
593.179	45.63
593.372	45.94
593.566	45.7
593.759	45.5
593.953	45.34
594.146	45.13
594.339	44.92
594.533	45.06
594.726	45.22
594.92	45.22
595.113	45.19
595.306	45
595.499	44.96
595.693	44.99
595.886	44.89
596.079	45.12
596.272	45.12
596.466	45.07
596.659	44.96
596.852	44.82
597.045	44.93
597.238	44.79
597.431	45.09
597.624	45.04
597.818	45.22
598.011	45.25
598.204	44.81
598.397	44.63
598.59	44.94
598.783	44.63
598.976	44.64
599.169	44.37
599.362	44.4
599.555	44.06
599.748	44.02
599.941	43.81
600.134	44.18
600.326	44.27
600.519	44.2
600.712	44.18
600.905	44.58
601.098	44.61
601.291	44.57
601.483	44.57
601.676	44.77
601.869	44.98
602.062	45.22
602.255	45.07
602.447	45.29
602.64	45.66
602.833	45.8
603.025	45.73
603.218	45.31
603.411	45.52
603.603	45.58
603.796	45.38
603.989	45.1
604.181	45.1
604.374	45
604.566	44.89
604.759	44.92
604.951	44.89
605.144	44.92
605.336	45.3
605.529	45.14
605.721	45.06
605.914	45.11
606.106	45.16
606.299	45.32
606.491	45.39
606.683	45.48
606.876	45.38
607.068	45.31
607.26	45.19
607.453	45.25
607.645	45.56
607.837	45.62
608.03	45.74
608.222	46.07
608.414	45.72
608.606	45.69
608.799	45.88
608.991	45.96
609.183	45.75
609.375	45.94
609.567	45.62
609.759	45.24
609.952	45.2
610.144	45.11
610.336	44.97
610.528	45.04
610.72	45.05
610.912	45.17
611.104	45.14
611.296	45.27
611.488	44.94
611.68	45.1
611.872	45.5
612.064	45.57
612.256	45.58
612.448	45.68
612.64	45.88
612.832	45.56
613.023	45.77
613.215	45.67
613.407	45.64
613.599	45.72
613.791	45.85
613.983	45.69
614.174	45.45
614.366	45.72
614.558	45.33
614.75	45.38
614.941	45.24
615.133	44.72
615.325	44.44
615.516	44.49
615.708	44.64
615.9	44.6
616.091	44.44
616.283	44.76
616.475	44.11
616.666	44.39
616.858	44.21
617.049	44.81
617.241	44.58
617.432	44.82
617.624	44.57
617.815	44.38
618.007	43.99
618.198	44.17
618.39	44.26
618.581	44.48
618.773	44.48
618.964	44.42
619.155	44.33
619.347	44.51
619.538	44.48
619.729	44.64
619.921	44.69
620.112	45
620.303	45.08
620.494	44.83
620.686	44.86
620.877	44.99
621.068	45.05
621.259	45.08
621.451	45.18
621.642	45.39
621.833	45.54
622.024	45.75
622.215	45.54
622.406	45.49
622.597	45.88
622.788	46.17
622.98	45.68
623.171	45.66
623.362	45.73
623.553	45.75
623.744	45.42
623.935	45.24
624.126	44.91
624.317	45.14
624.508	45.4
624.698	45.05
624.889	45.1
625.08	45.41
625.271	45.37
625.462	45.13
625.653	44.93
625.844	45.19
626.034	45.31
626.225	45.71
626.416	45.75
626.607	45.72
626.798	45.64
626.988	45.41
627.179	45.29
627.37	45.35
627.56	45.24
627.751	45.37
627.942	45.56
628.132	45.52
628.323	45.59
628.514	45.54
628.704	45.65
628.895	45.98
629.085	46.14
629.276	46.33
629.466	46.3
629.657	46.58
629.847	46.64
630.038	46.41
630.228	46.36
630.419	46.31
630.609	46.41
630.8	45.82
630.99	45.41
631.181	45.34
631.371	45.3
631.561	45.32
631.752	45.32
631.942	45.01
632.132	44.93
632.323	44.99
632.513	44.96
632.703	44.75
632.893	45.35
633.084	45.46
633.274	45.6
633.464	45.33
633.654	45.15
633.844	45.08
634.034	45.39
634.225	45.56
634.415	45.7
634.605	45.41
634.795	45.35
634.985	45.03
635.175	44.84
635.365	45
635.555	45.09
635.745	45.14
635.935	45.27
636.125	45.05
636.315	44.72
636.505	44.93
636.695	45.06
636.885	45.04
637.075	45.1
637.265	45.32
637.455	45.55
637.644	45.37
637.834	45.42
638.024	45.11
638.214	44.91
638.404	44.91
638.593	44.55
638.783	44.78
638.973	45.04
639.163	44.97
639.352	45.29
639.542	44.55
639.732	45.22
639.921	44.89
640.111	44.98
640.301	45.04
640.49	45.26
640.68	45.44
640.87	45.01
641.059	44.55
641.249	44.31
641.438	44.19
641.628	44.68
641.817	44.47
642.007	44.77
642.196	44.82
642.386	45.05
642.575	45.17
642.764	44.94
642.954	44.92
643.143	45.5
643.333	45.76
643.522	45.67
643.711	45.07
643.901	44.71
644.09	45.44
644.279	45.78
644.469	45.64
644.658	45.24
644.847	45.04
645.036	45.17
645.226	44.98
645.415	44.86
645.604	44.96
645.793	45.31
645.982	45.61
646.171	44.83
646.361	44.38
646.55	44.93
646.739	44.99
646.928	45.09
647.117	45.06
647.306	45.24
647.495	45.01
647.684	44.75
647.873	44.96
648.062	45.05
648.251	45.19
648.44	45.23
648.629	45.01
648.818	45.23
649.007	45.66
649.196	46.25
649.384	46.27
649.573	46.66
649.762	46.8
649.951	46.38
650.14	45.84
650.328	46.03
650.517	46.1
650.706	46.02
650.895	46.04
651.083	46.12
651.272	45.25
651.461	44.47
651.65	44.64
651.838	44.27
652.027	44.2
652.216	44.6
652.404	44.28
652.593	44.1
652.781	43.9
652.97	43.57
653.158	43.19
653.347	43.81
653.535	44.37
653.724	44.15
653.912	44.53
654.101	44.53
654.289	44.22
654.478	44.27
654.666	44.07
654.855	44.56
655.043	44.71
655.231	44.79
655.42	44.77
655.608	44.64
655.796	44.89
655.985	44.59
656.173	45.02
656.361	45.62
656.55	45.67
656.738	45.97
656.926	45.31
657.114	45.44
657.302	45.15
657.491	44.72
657.679	44.79
657.867	44.17
658.055	44.47
658.243	44.08
658.431	43.92
658.619	44.01
658.807	44.2
658.996	44.32
659.184	44.09
659.372	44.1
659.56	44.2
659.748	44.19
659.936	44.45
660.124	44.64
660.311	44.76
660.499	44.45
660.687	44.42
660.875	44.17
661.063	44
661.251	44.17
661.439	44.4
661.627	44.7
661.814	44.55
662.002	44.49
662.19	44.54
662.378	45.06
662.565	45.28
662.753	45.15
662.941	45.33
663.129	45.82
663.316	45.87
663.504	46.33
663.692	46.07
663.879	46.3
664.067	46.36
664.254	45.95
664.442	45.28
664.63	45.36
664.817	45.49
665.005	45.28
665.192	45.17
665.38	44.77
665.567	43.84
665.755	43.9
665.942	44.1
666.13	44.34
666.317	44.25
666.504	44.63
666.692	44.41
666.879	44.98
667.067	44.98
667.254	44.8
667.441	45.25
667.629	45.94
667.816	45.48
668.003	45.34
668.19	45.54
668.378	45.8
668.565	45.25
668.752	45.55
668.939	45.14
669.127	45.16
669.314	44.9
669.501	44.37
669.688	44.38
669.875	44.77
670.062	44.84
670.249	44.75
670.436	44.81
670.623	45.05
670.81	45.23
670.997	44.81
671.184	45.06
671.371	45.62
671.558	45.77
671.745	45.25
671.932	44.68
672.119	44.15
672.306	44.11
672.493	43.79
672.68	43.79
672.867	43.29
673.054	43.62
673.24	43.6
673.427	43.71
673.614	44.38
673.801	44.37
673.988	44.77
674.174	45.11
674.361	44.99
674.548	45.11
674.734	45.15
674.921	45.41
675.108	45.25
675.294	44.6
675.481	44.26
675.668	43.57
675.854	43.62
676.041	43.62
676.227	43.9
676.414	43.4
676.601	43.6
676.787	43.72
676.974	43.28
677.16	43.61
677.347	44.33
677.533	44.25
677.719	44.33
677.906	44.28
678.092	45.19
678.279	45.05
678.465	45.31
678.651	45.08
678.838	44.85
679.024	45.1
679.21	45.3
679.397	45.45
679.583	45.52
679.769	46.05
679.955	45.85
680.142	45.15
680.328	45.46
680.514	45.61
680.7	45.44
680.886	45.72
681.073	45.84
681.259	45.35
681.445	44.9
681.631	45
681.817	44.85
682.003	45.05
682.189	44.9
682.375	44.57
682.561	45
682.747	45.18
682.933	45.12
683.119	44.82
683.305	44.87
683.491	44.93
683.677	44.71
683.863	44.5
684.049	44.16
684.235	44.34
684.42	44.08
684.606	43.49
684.792	44.05
684.978	44.02
685.164	44.41
685.349	44.48
685.535	44.85
685.721	44.86
685.907	45.09
686.092	46.17
686.278	46.11
686.464	46.43
686.649	46.6
686.835	45.97
687.021	45.78
687.206	45.14
687.392	45.18
687.577	44.86
687.763	45.28
687.948	45.39
688.134	44.87
688.319	45.28
688.505	45.33
688.69	45.06
688.876	45.32
689.061	45.19
689.247	45.71
689.432	45.73
689.618	45.73
689.803	44.86
689.988	44.89
690.174	44.61
690.359	43.79
690.544	43.58
690.73	43.66
690.915	43.72
691.1	43.72
691.285	43.71
691.471	43.86
691.656	43.85
691.841	44.59
692.026	44.04
692.211	44.49
692.396	44.86
692.582	44.69
692.767	44.73
692.952	44.14
693.137	44.3
693.322	43.71
693.507	44.08
693.692	44.12
693.877	43.77
694.062	44.14
694.247	43.13
694.432	42.75
694.617	43.03
694.802	43.08
694.987	43.06
695.172	43.7
695.357	44.18
695.541	43.21
695.726	43.65
695.911	43.01
696.096	42.22
696.281	43.04
696.466	43.02
696.65	43.27
696.835	43.41
697.02	43.7
697.204	43.88
697.389	43.66
697.574	43.89
697.759	43.61
697.943	44.11
698.128	44.34
698.312	43.88
698.497	44.08
698.682	43.69
698.866	43.97
699.051	44.2
699.235	43.64
699.42	43.55
699.604	43.52
699.789	43.4
699.973	43.41
700.158	43.33
700.342	43.62
700.527	43.68
700.711	43.87
700.895	43.26
701.08	42.67
701.264	42.6
701.448	43
701.633	42.6
701.817	42.31
702.001	42
702.186	42.44
702.37	42.23
702.554	41.98
702.738	41.95
702.923	42.09
703.107	42.1
703.291	42.09
703.475	42.27
703.659	42.83
703.843	43.19
704.027	43.5
704.212	43.84
704.396	43.76
704.58	43.67
704.764	43.85
704.948	44.03
705.132	44.15
705.316	44.61
705.5	43.7
705.684	43.73
705.868	43.69
706.052	43.59
706.235	43.59
706.419	44.25
706.603	44.12
706.787	44.29
706.971	44.25
707.155	44.49
707.339	44.63
707.522	44.82
707.706	44.14
707.89	44
708.074	43.62
708.257	42.54
708.441	41.74
708.625	42.81
708.808	42.52
708.992	41.83
709.176	42.04
709.359	41.13
709.543	41.56
709.727	42.05
709.91	42.52
710.094	43.03
710.277	43.52
710.461	43.27
710.644	42.21
710.828	42.05
711.011	42.49
711.195	42.02
711.378	42.53
711.562	41.93
711.745	43.09
711.928	42.44
712.112	42.05
712.295	41.82
712.478	42.73
712.662	43.47
712.845	43.97
713.028	44.61
713.212	44.46
713.395	43.92
713.578	43.74
713.761	42.18
713.945	42.83
714.128	43.42
714.311	43.44
714.494	42.69
714.677	42.49
714.86	41.97
715.043	40.93
715.227	41.03
715.41	41.63
715.593	42.71
715.776	43.13
715.959	43.07
716.142	42.71
716.325	42.67
716.508	43.7
716.691	43.3
716.874	43.12
717.057	43.43
717.239	43.73
717.422	42.24
717.605	41.43
717.788	41.46
717.971	41.06
718.154	40.97
718.337	41.8
718.519	40.8
718.702	40.97
718.885	41.64
719.068	41.33
719.25	40.67
719.433	42.14
719.616	43.05
719.798	42.54
719.981	43.28
720.164	43.34
720.346	41.69
720.529	41.81
720.712	40.92
720.894	40.89
721.077	41.44
721.259	42.11
721.442	41.71
721.624	40.96
721.807	41.43
721.989	41.11
722.172	39.89
722.354	41
722.537	40.79
722.719	42.34
722.901	42.63
723.084	43.13
723.266	42.85
723.448	43.01
723.631	42.28
723.813	42.52
723.995	42.67
724.178	43.47
724.36	44.05
724.542	43.8
724.724	43.35
724.907	42.58
725.089	42.34
725.271	42.92
725.453	42.71
725.635	42.89
725.817	41.76
725.999	40.28
726.181	40.3
726.364	39.88
726.546	40.28
726.728	39.41
726.91	40.02
727.092	39.14
727.274	38.67
727.456	39.4
727.638	40.52
727.819	41.97
728.001	43.19
728.183	43.4
728.365	43.46
728.547	43.94
728.729	44.08
728.911	43.72
729.093	43.69
729.274	44.14
729.456	43.65
729.638	42.97
729.82	42.21
730.001	42.13
730.183	42.08
730.365	41.05
730.546	40.06
730.728	40.65
730.91	40.36
731.091	41.02
731.273	40.8
731.455	41.38
731.636	41
731.818	40.98
731.999	41.03
732.181	41.3
732.362	41.99
732.544	42.8
732.725	43.09
732.907	43.65
733.088	43.43
733.27	42.88
733.451	43.19
733.633	43.89
733.814	44.2
733.995	43.36
734.177	43.49
734.358	42.84
734.539	43.14
734.721	41.89
734.902	41.43
735.083	41.71
735.264	41.48
735.446	40.51
735.627	39.95
735.808	38.33
735.989	39.06
736.17	38.29
736.351	37.91
736.533	37.01
736.714	37.71
736.895	37.05
737.076	37.24
737.257	37.83
737.438	37.91
737.619	37.15
737.8	39.32
737.981	39.57
738.162	40
738.343	40.95
738.524	41.05
738.705	41.71
738.886	41.45
739.067	40.8
739.247	40.65
739.428	40.27
739.609	40.7
739.79	40.15
739.971	39.51
740.151	39.53
740.332	39.82
740.513	39.75
740.694	39.29
740.874	39.4
741.055	39.93
741.236	40.07
741.417	41.81
741.597	42.56
741.778	41.45
741.958	41.69
742.139	42.34
742.32	41.92
742.5	42.66
742.681	42.59
742.861	42.44
743.042	42.33
743.222	41.42
743.403	38.95
743.583	38.81
743.764	40.49
743.944	38.61
744.124	37.34
744.305	37.19
744.485	37.15
744.666	37.27
744.846	38.08
745.026	37.28
745.207	38.86
745.387	40.69
745.567	40.19
745.747	38.16
745.928	38.97
746.108	40.82
746.288	40.35
746.468	39.85
746.648	40.44
746.829	41.16
747.009	41.6
747.189	40.85
747.369	39.04
747.549	40.14
747.729	41.45
747.909	42.48
748.089	41.1
748.269	40.95
748.449	41.42
748.629	40.26
748.809	39.1
748.989	38.61
749.169	39.16
749.349	40.91
749.529	41.75
749.709	42.87
749.889	42.08
750.068	42.07
750.248	41.9
750.428	40.98
750.608	41.29
750.788	43.15
750.967	42.86
751.147	43.15
751.327	41.11
751.507	39.77
751.686	38.59
751.866	39.06
752.046	39.16
752.225	41.2
752.405	42.39
752.585	41.89
752.764	40.65
752.944	41.37
753.123	40.77
753.303	41.91
753.482	42.51
753.662	42.23
753.841	40.85
754.021	40.32
754.2	39.45
754.38	39.96
754.559	40.63
754.739	39.15
754.918	39.4
755.097	38.71
755.277	36.98
755.456	36.08
755.635	34.87
755.815	36.91
755.994	39.14
756.173	38.83
756.352	37.9
756.532	36.26
756.711	37.98
756.89	39.05
757.069	39.47
757.248	41.19
757.427	41.71
757.607	42.76
757.786	42.56
757.965	41.28
758.144	42.3
758.323	41.55
758.502	42.53
758.681	43.34
758.86	41.71
759.039	41.41
759.218	41.66
759.397	40.23
759.576	40.61
759.755	39.91
759.934	39.72
760.113	37.74
760.291	39.25
760.47	40.98
760.649	40.26
760.828	41.61
761.007	42.34
761.186	41.31
761.364	42.25
761.543	42.21
761.722	41.92
761.901	41.42
762.079	41.64
762.258	40.13
762.437	38.78
762.615	39.04
762.794	37.98
762.972	37.72
763.151	37.72
763.33	38.22
763.508	38.85
763.687	39.6
763.865	39.78
764.044	40.05
764.222	40.94
764.401	40.29
764.579	40.23
764.758	40.31
764.936	41.05
765.114	41.31
765.293	40.88
765.471	41.04
765.65	40.68
765.828	40.74
766.006	41.33
766.184	41.02
766.363	41.88
766.541	42.55
766.719	41.41
766.898	39.86
767.076	39.01
767.254	38.61
767.432	36.11
767.61	34.43
767.788	34.75
767.967	34.04
768.145	31.74
768.323	32.19
768.501	31.12
768.679	31.69
768.857	32.35
769.035	32.86
769.213	32.4
769.391	32.97
769.569	35.62
769.747	35.41
769.925	35.93
770.103	36.13
770.281	34.77
770.459	35.23
770.636	37.16
770.814	36.35
770.992	36.66
771.17	38.05
771.348	39.58
771.525	35.68
771.703	34.9
771.881	32.78
772.059	34.21
772.236	36.48
772.414	34.19
772.592	32.42
772.769	33.59
772.947	34.59
773.125	34.64
773.302	31.5
773.48	34.37
773.657	36.6
773.835	41.25
774.013	41.32
774.19	40.48
774.368	42.53
774.545	41.49
774.723	41.91
774.9	41.28
775.077	43.12
775.255	44.85
775.432	44.66
775.61	42.1
775.787	35.93
775.964	34.15
776.142	31.33
776.319	26.98
776.496	28.66
776.674	29.41
776.851	29.1
777.028	27.64
777.205	27.99
777.382	27.44
777.56	26.48
777.737	29.08
777.914	33.88
778.091	36.21
778.268	40.19
778.445	40.65
778.622	38.56
778.8	37.36
778.977	37.83
779.154	38.79
779.331	40
779.508	43.19
779.685	41.56
779.862	36.85
780.038	37.03
780.215	36.72
780.392	37.02
780.569	36.64
780.746	40.33
780.923	36.67
781.1	35
781.277	33.87
781.453	29.65
781.63	31.81
781.807	33.16
781.984	34.02
782.16	31.44
782.337	29.33
782.514	29.96
782.691	28.94
782.867	31
783.044	34.36
783.221	35.93
783.397	38.6
783.574	37.68
783.75	38.27
783.927	34.19
784.103	35.59
784.28	35.31
784.456	35.53
784.633	36.19
784.809	34.47
784.986	30.31
785.162	29.07
785.339	27.54
785.515	27.16
785.692	29.45
785.868	32.02
786.044	33.62
786.221	34.94
786.397	32.56
786.573	32.43
786.749	32.92
786.926	34.97
787.102	31.8
787.278	33.79
787.454	35.29
787.631	33.27
787.807	33.6
787.983	31.17
788.159	30.93
788.335	31.9
788.511	32.57
788.687	35.88
788.863	35.09
789.039	37.73
789.216	34.49
789.392	34.16
789.568	33.99
789.744	33.84
789.919	35.64
790.095	34.82
790.271	35.55
790.447	33.17
790.623	32.89
790.799	31.96
790.975	31.86
791.151	34.87
791.327	36.94
791.502	35.75
791.678	33.97
791.854	33.01
792.03	31.07
792.205	35.39
792.381	34.57
792.557	32.76
792.733	32.44
792.908	32.66
793.084	31.44
793.259	26.03
793.435	29.99
793.611	33.41
793.786	35.16
793.962	39.95
794.137	36.63
794.313	39.35
794.488	39.93
794.664	42.86
794.839	43.57
795.015	41.86
795.19	44.2
795.366	42.73
795.541	42.48
795.716	39.42
795.892	38.57
796.067	35.7
796.242	36.32
796.418	32.82
796.593	31.53
796.768	31.26
796.944	32.74
797.119	35.29
797.294	32.86
797.469	32.19
797.644	34.1
797.82	33.89
797.995	39.2
798.17	35.24
798.345	39.54
798.52	41.06
798.695	39.3
798.87	37.7
799.045	33.16
799.22	34.67
799.395	34.59
799.57	34.78
799.745	35.51
799.92	32.06
800.095	34.12
800.27	30.88
800.445	27.42
800.62	27.37
800.795	24.72
800.97	24.82
801.145	26.22
801.319	19.46
801.494	15.15
801.669	10.2
801.844	10.87
802.018	13.07
802.193	12.3
802.368	15.26
802.543	15.94
802.717	18.05
802.892	19.61
803.067	16.14
803.241	20.98
803.416	24.94
803.59	29.53
803.765	32.51
803.94	31.18
804.114	35.11
804.289	34.83
804.463	35.09
804.638	33.79
804.812	33.77
804.986	37.43
805.161	35.32
805.335	33.08
805.51	31.72
805.684	27.11
805.858	22.26
806.033	15.7
806.207	12.58
806.381	13.96
806.556	21.12
806.73	16.02
806.904	18.9
807.078	24.79
807.253	23.08
807.427	22.21
807.601	26.62
807.775	33.81
807.949	33.44
808.123	34
808.298	33.87
808.472	29.34
808.646	34.02
808.82	33.68
808.994	31.39
809.168	33.55
809.342	31.81
809.516	29.3
809.69	22.27
809.864	27.67
810.038	30.11
810.212	28.33
810.385	31.37
810.559	32.4
810.733	29.08
810.907	32.21
811.081	32.2
811.255	34.47
811.428	30.02
811.602	31.33
811.776	26.92
811.95	23.04
812.123	23.9
812.297	21.66
812.471	13.16
812.644	21.24
812.818	20.82
812.992	19.28
813.165	17.15
813.339	21.05
813.512	21.68
813.686	25.59
813.86	28.1
814.033	26.21
814.207	27.37
814.38	33.13
814.554	20.15
814.727	14.85
814.9	13.35
815.074	12.09
815.247	13.82
815.421	15.13
815.594	11.41
815.767	14.68
815.941	14.05
816.114	13.55
816.287	17.57
816.46	23.6
816.634	20.21
816.807	20.73
816.98	20.52
817.153	22.92
817.327	18.92
817.5	18.24
817.673	12.23
817.846	12.61
818.019	5.92
818.192	-0.64
818.365	-4.47
818.538	-2.97
818.711	-0.72
818.884	2.92
819.057	2.47
819.23	4.66
819.403	5.19
819.576	8.34
819.749	13.36
819.922	17.1
820.095	19.84
820.268	23.06
820.441	25.56
820.614	27.6
820.786	27.47
820.959	29.12
821.132	31.75
821.305	34.68
821.477	36.1
821.65	36.54
821.823	37.12
821.996	38.03
822.168	37.59
822.341	37.67
822.514	37.51
822.686	37.67
822.859	37.65
823.031	37.66
823.204	37.15
823.376	36.39
823.549	35.82
823.722	35.7
823.894	35.74
824.067	34.68
824.239	34.85
824.411	35.45
824.584	36.26
824.756	35.17
824.929	34.4
825.101	33.56
825.273	33.32
825.446	33.86
825.618	34.6
825.79	33.56
825.963	35.45
826.135	34.99
826.307	35.05
826.479	34.55
826.652	34.49
826.824	35.74
826.996	36.88
827.168	36.14
827.34	35.76
827.512	34.79
827.684	34.33
827.856	34.76
828.029	34.54
828.201	33.86
828.373	33.4
828.545	33.63
828.717	32.08
828.889	33.14
829.061	33.45
829.232	32.92
829.404	33.29
829.576	34.08
829.748	32.48
829.92	32.82
830.092	34.84
830.264	35.57
830.436	36.19
830.607	35.05
830.779	32.99
830.951	35.94
831.123	32.52
831.294	30.96
831.466	29.28
831.638	27.57
831.809	27.73
831.981	24.43
832.153	25.86
832.324	26.75
832.496	33.11
832.667	29.09
832.839	27.54
833.011	31.08
833.182	30
833.354	29.99
833.525	34.34
833.697	30.65
833.868	31.06
834.039	29.64
834.211	28.87
834.382	26.55
834.554	29.23
834.725	29.83
834.896	28.86
835.068	29.77
835.239	31.07
835.41	27.47
835.581	27.94
835.753	26.99
835.924	25.86
836.095	24.54
836.266	25.37
836.438	27.98
836.609	29.17
836.78	28.21
836.951	23.03
837.122	19.03
837.293	19.65
837.464	25.4
837.635	22.33
837.806	22.4
837.977	21.87
838.148	18.78
838.319	4.58
838.49	-7.42
838.661	-3.86
838.832	4.8
839.003	7.24
839.174	5.27
839.345	-4.26
839.516	1.59
839.687	-3.96
839.857	1.48
840.028	2.74
840.199	19.23
840.37	32.37
840.54	32.58
840.711	26.03
840.882	29.26
841.053	33.74
841.223	39.45
841.394	40.85
841.564	43.42
841.735	32.2
841.906	34.42
842.076	23.73
842.247	14.78
842.417	6.8
842.588	9.61
842.758	-3.17
842.929	9.39
843.099	11.97
843.27	-7.33
843.44	-5.3
843.611	12.37
843.781	7.26
843.951	16.45
844.122	-3.02
844.292	8.11
844.462	5.1
844.633	12.63
844.803	0.97
844.973	-21.81
845.144	-30.34
845.314	-50.49
845.484	-73.45
845.654	-43.61
845.824	-23.48
845.995	6.67
846.165	1.42
846.335	19.99
846.505	17.62
846.675	8.24
846.845	19.87
847.015	23.19
847.185	27.25
847.355	19.77
847.525	-0.77
847.695	-11.86
847.865	-51.08
848.035	-64.86
848.205	-111.98
848.375	-66.4
848.545	-77.96
848.715	-205.28
848.884	-299.22
849.054	-83.25
849.224	-74.91
849.394	-54.33
849.564	-40.03
849.733	-27.62
849.903	-15.18
850.073	-39.72
850.243	-141.64
850.412	-16.35
850.582	14.25
850.752	13.71
850.921	2.04
851.091	-21.21
851.26	17.58
851.43	-29.72
851.599	-10.62
851.769	-3.12
851.939	15.9
852.108	16.06
852.278	8.03
852.447	-3.65
852.616	24.39
852.786	-26.94
852.955	17.2
853.125	-85.86
853.294	-55.95
853.463	-109.71
853.633	-215.59
853.802	337.22
853.971	361.42
854.141	3199.64
854.31	-460.4
854.479	-139.64
854.648	-112.81
854.818	-195.93
854.987	-200.15
855.156	-207.44
855.325	-140.18
855.494	-115.45
855.663	-31.54
855.832	-39.62
856.001	-61.98
856.171	-64.58
856.34	-141.13
856.509	-98.68
856.678	-192.18
856.847	-122.5
857.016	-120.19
857.185	-87.94
857.353	-83.38
857.522	-97.08
857.691	-83.47
857.86	-89.71
858.029	-84.5
858.198	-62.76
858.367	-172.83
858.535	-101.26
858.704	-138.14
858.873	-76.92
859.042	-73.37
859.21	-144.61
859.379	-214.29
859.548	-598.66
859.717	-465.72
859.885	-916.84
860.054	658.94
860.222	579.2
860.391	-603.75
860.56	-215.15
860.728	-313.49
860.897	-262.87
861.065	-201.62
861.234	-126.2
861.402	-96.14
861.571	-88.47
861.739	-156.07
861.908	-195.1
862.076	-127.95
862.244	-58.74
862.413	-160.7
862.581	-139.65
862.749	19793.33
862.918	422.25
863.086	398.03
863.254	-349.17
863.423	1485.98
863.591	-222.42
863.759	-64.83
863.927	-58.44
864.096	-212.85
864.264	-74.22
864.432	-275.86
864.6	-85.99
864.768	-83.04
864.936	-90.65
865.104	-91.89
865.272	-57.61
865.44	-221.13
865.608	6.57
865.776	-1411.11
865.944	109.22
866.112	83.83
866.28	179.18
866.448	128.54
866.616	144.23
866.784	406.81
866.952	-329.5
867.12	-407
867.288	-211.71
867.455	-129.9
867.623	-111.26
867.791	-154.13
867.959	-122.92
868.127	-71.53
868.294	-95.85
868.462	-158.46
868.63	-294.71
868.797	-2302.67
868.965	-510.5
869.133	-1007.34
869.3	3872.91
869.468	904.58
869.636	673.3
869.803	322.28
869.971	169.45
870.138	163.57
870.306	146.93
870.473	113.91
870.641	140.99
870.808	170.08
870.975	117.02
871.143	105.92
871.31	96.66
871.478	96.91
871.645	105.22
871.812	86.22
871.98	134.27
872.147	164.55
872.314	328.85
872.482	158.75
872.649	109.8
872.816	111.91
872.983	93.23
873.15	73.41
873.318	63.82
873.485	60.76
873.652	74.02
873.819	121.17
873.986	61.94
874.153	50.47
874.32	41.75
874.487	54.13
874.654	155.87
874.821	-157.66
874.988	-1558.01
875.155	-383.17
875.322	-659.28
875.489	-265.84
875.656	-584.72
875.823	-1469.98
875.99	1603.53
876.157	-723.95
876.324	-827.32
876.49	-344.06
876.657	19795.35
876.824	309.96
876.991	262.77
877.157	476.21
877.324	335.36
877.491	121.95
877.658	111.28
877.824	33.77
877.991	18.96
878.157	-75.73
878.324	-50.28
878.491	-308
878.657	126.27
878.824	76.06
878.99	550.93
879.157	-113.1
879.323	330.19
879.49	179
879.656	-23.43
879.823	-37.75
879.989	1.34
880.156	1515.79
880.322	-763.79
880.488	-358.8
880.655	224.78
880.821	136.43
880.987	51.46
881.154	13.31
881.32	-43
881.486	15.46
881.652	19.39
881.819	10.04
881.985	21.37
882.151	32.27
882.317	35.26
882.483	28.8
882.649	32.25
882.816	28.24
882.982	35.34
883.148	34.97
883.314	31.6
883.48	29.65
883.646	27.52
883.812	27.38
883.978	23.9
884.144	22.94
884.31	28.87
884.476	29.95
884.642	30.57
884.807	28.12
884.973	28.94
885.139	27.89
885.305	25.49
885.471	30.15
885.637	27.34
885.802	31.06
885.968	34.19
886.134	25.55
886.3	18.7
886.465	9.96
886.631	4.61
886.797	8.49
886.962	8.55
887.128	24.96
887.293	16.97
887.459	15.04
887.625	6.55
887.79	-17.51
887.956	-13.29
888.121	-5.27
888.287	15.95
888.452	22.14
888.618	9.65
888.783	14.23
