Data from 2937816_Reflection_1.txt Node
Date: Wed Jul 15 17:32:02 EDT 2015
User: robert
Spectrometer: USB4E03001
Autoset integration time: false
Trigger mode: 4
Integration Time (sec): 1.000000E-1
Scans to average: 10
Electric dark correction enabled: true
Nonlinearity correction enabled: false
Boxcar width: 5
Stray light correction enabled: false
XAxis mode: Wavelengths
Stop averaging: false
Number of Pixels in Spectrum: 3648
>>>>>Begin Spectral Data<<<<<
177.566	25.08
177.785	29.52
178.005	-61.67
178.225	-353.04
178.445	486.44
178.665	278.46
178.885	27.42
179.105	-115.59
179.324	-490.78
179.544	789.9
179.764	-2343.17
179.984	216.13
180.204	212.17
180.423	235.18
180.643	177.17
180.863	157.19
181.083	157.2
181.302	118.19
181.522	134.65
181.742	131.38
181.961	121.73
182.181	118.53
182.401	158.7
182.621	175.7
182.84	149.46
183.06	186.69
183.279	122.52
183.499	84.84
183.719	85.24
183.938	39.2
184.158	6.65
184.377	-2.02
184.597	-25.4
184.816	-7.59
185.036	7.72
185.256	20.58
185.475	-8.78
185.695	7.28
185.914	27.8
186.134	43.39
186.353	74.08
186.572	66.76
186.792	99.8
187.011	84.16
187.231	75.02
187.45	59.39
187.67	53.38
187.889	60.32
188.108	57.16
188.328	51.34
188.547	42.41
188.766	-15.21
188.986	-11.32
189.205	-54.31
189.424	-5.77
189.644	6.19
189.863	18.39
190.082	3.53
190.302	37.26
190.521	55.26
190.74	104.31
190.959	119.87
191.178	860.37
191.398	-128.02
191.617	-1847.13
191.836	-96.81
192.055	-187.88
192.274	-62.74
192.494	-36.83
192.713	-58.87
192.932	-192.2
193.151	-4.85
193.37	-41.39
193.589	-9092.59
193.808	444.59
194.027	-55.98
194.246	-86.8
194.465	-364.26
194.685	143.12
194.904	14.75
195.123	9.49
195.342	61.91
195.561	-63.1
195.78	-156.97
195.999	-185
196.218	-132.07
196.436	-24.43
196.655	-7.32
196.874	-14.44
197.093	8.14
197.312	34.51
197.531	20.86
197.75	28.81
197.969	13.94
198.188	13.43
198.407	39.48
198.625	31.56
198.844	41.46
199.063	43.01
199.282	18.31
199.501	-37.42
199.719	-876.49
199.938	222.18
200.157	190.57
200.376	40.82
200.594	158.28
200.813	100.8
201.032	32.3
201.251	-193.71
201.469	-168.33
201.688	-748.24
201.907	198.26
202.125	304.4
202.344	3981.82
202.563	-63.9
202.781	-10.47
203	-0.99
203.218	-10.48
203.437	-85.14
203.656	693.1
203.874	456.87
204.093	137.55
204.311	231.61
204.53	417.56
204.748	536.52
204.967	171.2
205.185	216.38
205.404	273.48
205.622	198.63
205.841	169.11
206.059	499.35
206.278	396.75
206.496	450.92
206.715	358.36
206.933	278.27
207.151	208.93
207.37	295.05
207.588	130.4
207.806	58.2
208.025	147.54
208.243	179.2
208.461	183.58
208.68	24.6
208.898	194.58
209.116	-121
209.335	-25.07
209.553	200
209.771	72.32
209.989	-86.59
210.208	-468.73
210.426	-95.19
210.644	-89.12
210.862	-238.77
211.081	-396.86
211.299	-905
211.517	1162.85
211.735	8593.97
211.953	2433.47
212.171	9420.93
212.39	419.75
212.608	329.25
212.826	201.55
213.044	189.71
213.262	154.28
213.48	128.19
213.698	132.63
213.916	160.43
214.134	144.82
214.352	119.71
214.57	117.98
214.788	114.7
215.006	230.22
215.224	-515
215.442	1076.12
215.66	-720.42
215.878	-512.6
216.096	-640.72
216.314	-2060.23
216.532	496.75
216.75	-2015.91
216.968	535.95
217.185	296.01
217.403	273.44
217.621	158.89
217.839	274.27
218.057	268.52
218.275	178.43
218.492	108.49
218.71	56.6
218.928	48.53
219.146	96.36
219.363	154.89
219.581	153.18
219.799	145.09
220.017	68.67
220.234	15.41
220.452	2.45
220.67	80.38
220.887	83.1
221.105	128.2
221.323	111.58
221.54	89.21
221.758	62.76
221.976	90.13
222.193	68.88
222.411	74.86
222.629	79.48
222.846	74.04
223.064	72.85
223.281	73.72
223.499	82.2
223.716	81.29
223.934	66.82
224.151	86.08
224.369	56.25
224.586	69.74
224.804	74.39
225.021	46.04
225.239	54.57
225.456	36.15
225.674	37.23
225.891	43.98
226.108	36.51
226.326	53.18
226.543	33.64
226.76	33.03
226.978	32.38
227.195	27.94
227.413	38.38
227.63	37.95
227.847	34.23
228.064	30.79
228.282	28.35
228.499	31.58
228.716	22.9
228.934	25.67
229.151	30.45
229.368	29.3
229.585	28.32
229.802	22.97
230.02	20.49
230.237	22.25
230.454	23.15
230.671	21.7
230.888	18.07
231.105	16.56
231.323	18.65
231.54	7.55
231.757	5.67
231.974	3.48
232.191	4.4
232.408	7.28
232.625	4.93
232.842	6.47
233.059	9
233.276	16.6
233.493	19.12
233.71	9.15
233.927	14.49
234.144	13.7
234.361	13.2
234.578	19.66
234.795	19.5
235.012	18.22
235.229	17.16
235.446	22.53
235.663	20.9
235.879	25.82
236.096	27.87
236.313	27.28
236.53	26.2
236.747	28.99
236.964	27.26
237.181	33.24
237.397	33.9
237.614	37.52
237.831	37.4
238.048	38.58
238.264	34.41
238.481	37.66
238.698	35.28
238.915	38.33
239.131	34.84
239.348	32.7
239.565	26.37
239.781	27.28
239.998	26.88
240.215	18.16
240.431	11.47
240.648	16.77
240.865	17.65
241.081	19.13
241.298	18.9
241.514	20.33
241.731	21.76
241.947	20.73
242.164	18.94
242.38	17.19
242.597	17.22
242.814	18.94
243.03	18.07
243.246	17.9
243.463	16.91
243.679	16.78
243.896	15.78
244.112	15
244.329	14.11
244.545	16.39
244.762	15.05
244.978	17.72
245.194	16.44
245.411	16.55
245.627	18.94
245.843	17.67
246.06	19.73
246.276	19.26
246.492	18.05
246.709	18.31
246.925	17.41
247.141	18.63
247.357	17.35
247.574	17.16
247.79	15.66
248.006	15.02
248.222	15.77
248.439	14.07
248.655	12.58
248.871	12.11
249.087	10.44
249.303	9.77
249.519	8.13
249.736	7.59
249.952	8.48
250.168	11.21
250.384	8.81
250.6	8.72
250.816	10.85
251.032	11.59
251.248	10.14
251.464	12.42
251.68	11.32
251.896	11.53
252.112	10.42
252.328	9.35
252.544	8.37
252.76	7.01
252.976	5.73
253.192	4.29
253.408	3.99
253.624	8.58
253.84	7.83
254.056	9.09
254.272	8.73
254.487	8.51
254.703	8.3
254.919	8.72
255.135	8.81
255.351	9.5
255.567	9.49
255.782	13.42
255.998	11.13
256.214	12.38
256.43	11.59
256.646	10.22
256.861	15.04
257.077	11.93
257.293	11.14
257.508	10.73
257.724	10.09
257.94	9.77
258.155	8.07
258.371	7.2
258.587	7.35
258.802	8.57
259.018	9.58
259.234	10.28
259.449	11.6
259.665	11.24
259.88	11.65
260.096	12.16
260.312	12.13
260.527	12.53
260.743	13.53
260.958	13.4
261.174	12.03
261.389	11.25
261.605	9.82
261.82	8.95
262.036	8.72
262.251	10.03
262.466	9.66
262.682	10.68
262.897	9.18
263.113	6.66
263.328	5.92
263.543	8.37
263.759	8.09
263.974	8.96
264.189	10.1
264.405	11.96
264.62	11.24
264.835	12.18
265.051	9.78
265.266	14.18
265.481	15.2
265.696	18.69
265.912	18.4
266.127	19.03
266.342	17.24
266.557	17.27
266.773	15.55
266.988	14.29
267.203	11.46
267.418	12.81
267.633	10.31
267.848	10.89
268.064	9.17
268.279	7.32
268.494	5.2
268.709	4.86
268.924	2.92
269.139	3.09
269.354	3.39
269.569	5.29
269.784	5.94
269.999	5.75
270.214	3.71
270.429	1.3
270.644	2.81
270.859	4.96
271.074	6.37
271.289	6.1
271.504	5.59
271.719	4.67
271.934	5.34
272.149	4.97
272.363	6.26
272.578	6.3
272.793	7.27
273.008	7.05
273.223	6.11
273.438	5.73
273.653	7.32
273.867	7.2
274.082	7.86
274.297	6.42
274.512	6.21
274.726	5.91
274.941	5.87
275.156	7.2
275.371	7.59
275.585	7.93
275.8	8.32
276.015	7.4
276.229	8.4
276.444	7.5
276.659	9.71
276.873	9.54
277.088	8.28
277.302	9.61
277.517	9.25
277.732	8.82
277.946	8.69
278.161	8.21
278.375	7.68
278.59	8.8
278.804	10.25
279.019	8.32
279.233	7.77
279.448	5.9
279.662	4.76
279.877	5.46
280.091	4.59
280.306	6.65
280.52	5.3
280.735	5.45
280.949	3.72
281.163	3.94
281.378	4.69
281.592	3.39
281.806	5.13
282.021	4.18
282.235	4.2
282.449	5.56
282.664	6.11
282.878	7.82
283.092	8.15
283.307	9.76
283.521	9.42
283.735	9.75
283.949	11.37
284.164	12.12
284.378	13.47
284.592	12.69
284.806	12.76
285.02	11.4
285.234	10.28
285.449	9.27
285.663	9.33
285.877	10.21
286.091	9.92
286.305	9.95
286.519	9.73
286.733	9.58
286.947	9.83
287.161	9.62
287.375	9.98
287.589	9.8
287.803	10.22
288.017	8.64
288.231	6.5
288.445	5.62
288.659	5.39
288.873	5.28
289.087	4.64
289.301	4.78
289.515	5.87
289.729	5.21
289.943	6.13
290.157	8.61
290.371	9.28
290.584	9.95
290.798	11.2
291.012	10.54
291.226	10.81
291.44	11.05
291.654	12.13
291.867	10.43
292.081	11.4
292.295	11.19
292.509	9.56
292.722	10.37
292.936	10.96
293.15	12.45
293.364	14.1
293.577	15.36
293.791	15.8
294.005	14.17
294.218	14.1
294.432	14.09
294.645	14.06
294.859	14.91
295.073	15.53
295.286	15.4
295.5	12.63
295.713	11.92
295.927	11.36
296.14	12.04
296.354	12.37
296.568	12.45
296.781	11.82
296.994	13.1
297.208	13.29
297.421	11.86
297.635	11.71
297.848	11.9
298.062	12.28
298.275	13.31
298.489	13.51
298.702	11.83
298.915	11.45
299.129	12.6
299.342	10.43
299.555	10
299.769	9.7
299.982	10.23
300.195	11.61
300.409	12.17
300.622	8.96
300.835	9.16
301.048	11.39
301.262	11.74
301.475	10.44
301.688	10.44
301.901	10.64
302.115	11.44
302.328	10.38
302.541	9.02
302.754	8.69
302.967	11.22
303.18	10.55
303.393	12.4
303.607	13.64
303.82	14.51
304.033	16.44
304.246	16.21
304.459	16.44
304.672	16.68
304.885	17.57
305.098	15.52
305.311	12.95
305.524	11.8
305.737	8.82
305.95	9.09
306.163	7.94
306.376	7.89
306.589	7.1
306.802	4.37
307.015	5.66
307.228	5.16
307.44	6.52
307.653	9.09
307.866	10.25
308.079	12.43
308.292	11.67
308.505	11.55
308.718	11.65
308.93	10.72
309.143	13.23
309.356	12.1
309.569	10.84
309.781	10.86
309.994	10.15
310.207	9.09
310.42	8.91
310.632	8.18
310.845	8.84
311.058	8.16
311.27	8.63
311.483	8.5
311.696	8.96
311.908	9.95
312.121	8.88
312.333	9.26
312.546	8.67
312.759	7.57
312.971	8.41
313.184	7.25
313.396	6.02
313.609	5.41
313.821	5.48
314.034	6.28
314.246	6.65
314.459	8.06
314.671	8.13
314.884	9.14
315.096	9
315.309	10.21
315.521	12.45
315.733	14.2
315.946	15.74
316.158	16.34
316.371	15.08
316.583	12.98
316.795	12.78
317.008	13.25
317.22	13.91
317.432	14.92
317.644	15.24
317.857	14.21
318.069	14.5
318.281	13.58
318.494	9.68
318.706	9.51
318.918	11.31
319.13	10.96
319.342	8.47
319.555	9.73
319.767	10.18
319.979	7.44
320.191	5.28
320.403	5.02
320.615	3.35
320.827	7.19
321.039	8.02
321.252	7.54
321.464	8.31
321.676	10.65
321.888	9.91
322.1	8.23
322.312	9.23
322.524	11.45
322.736	12.18
322.948	12.73
323.16	11.88
323.372	11.05
323.584	11.07
323.796	10.26
324.007	9.01
324.219	9.85
324.431	9.97
324.643	10.72
324.855	10.3
325.067	8.68
325.279	8.55
325.491	8.11
325.702	8.91
325.914	10.03
326.126	9.93
326.338	10.43
326.55	9.62
326.761	9.18
326.973	9.34
327.185	9.05
327.396	10.45
327.608	11.55
327.82	12.39
328.032	11.92
328.243	10.93
328.455	12.09
328.666	11.91
328.878	12.89
329.09	13.57
329.301	13.69
329.513	14.35
329.725	12.97
329.936	13.9
330.148	14.62
330.359	16.23
330.571	16.56
330.782	16.96
330.994	17.98
331.205	16.22
331.417	17.55
331.628	16.14
331.84	16.8
332.051	18.51
332.262	18.81
332.474	18.55
332.685	15.99
332.897	15.18
333.108	14.39
333.319	14.47
333.531	14.91
333.742	12.42
333.953	12.29
334.165	12.34
334.376	10.94
334.587	10.49
334.799	9.77
335.01	10.8
335.221	10.99
335.432	10.19
335.644	9.75
335.855	10.81
336.066	13.05
336.277	14.29
336.488	14.38
336.7	15.01
336.911	15.65
337.122	16.58
337.333	17.61
337.544	19.31
337.755	19.89
337.966	19.54
338.177	17.88
338.388	18.31
338.599	18.43
338.811	17.04
339.022	17.38
339.233	15.34
339.444	13.53
339.655	12.92
339.866	12.13
340.076	11.22
340.287	13.06
340.498	14.29
340.709	14.05
340.92	13.43
341.131	14.76
341.342	13.97
341.553	16.03
341.764	16.79
341.975	15.83
342.185	15.73
342.396	16.49
342.607	15.32
342.818	15.45
343.029	14.63
343.239	14.77
343.45	15.73
343.661	17.36
343.872	15.12
344.082	15.49
344.293	16.51
344.504	16.78
344.714	16.52
344.925	16.34
345.136	15.09
345.346	14.82
345.557	14.06
345.768	13.52
345.978	11.4
346.189	12.21
346.399	11.17
346.61	11.18
346.821	10.54
347.031	10.77
347.242	10.9
347.452	12.85
347.663	13.76
347.873	14.37
348.084	13.91
348.294	15.03
348.504	14.92
348.715	16.93
348.925	15.65
349.136	16.04
349.346	16.18
349.557	15.82
349.767	14.41
349.977	13.15
350.188	12.75
350.398	12.66
350.608	12.44
350.819	12.34
351.029	10.36
351.239	11.51
351.449	11.45
351.66	11.44
351.87	11.41
352.08	11.34
352.29	12.49
352.501	14.32
352.711	14.92
352.921	14.84
353.131	14.65
353.341	14.95
353.552	15.44
353.762	14.35
353.972	15.62
354.182	15.83
354.392	16.39
354.602	16.18
354.812	15
355.022	13.62
355.232	13.28
355.442	13.16
355.652	14.8
355.862	13.06
356.072	13.79
356.282	12.64
356.492	12.62
356.702	13.6
356.912	13.28
357.122	13.39
357.332	14.36
357.542	14.94
357.752	15.5
357.962	13.7
358.171	14.29
358.381	14.96
358.591	15.01
358.801	14.7
359.011	13.85
359.221	14.29
359.43	14.26
359.64	13.8
359.85	13.85
360.06	13.61
360.269	13.9
360.479	14.01
360.689	13.41
360.899	13.01
361.108	13.65
361.318	13.89
361.528	13.83
361.737	14
361.947	13.99
362.156	12.96
362.366	13.86
362.576	14.19
362.785	13.83
362.995	14.03
363.204	14.45
363.414	14.62
363.623	14.81
363.833	14.57
364.042	13.85
364.252	14.28
364.461	14.76
364.671	14.57
364.88	15
365.09	15.34
365.299	15.36
365.509	15.02
365.718	14.9
365.927	14.06
366.137	14.42
366.346	15.31
366.555	15.36
366.765	16.09
366.974	15.2
367.183	15.3
367.393	15.33
367.602	15.04
367.811	15.39
368.021	14.15
368.23	13.58
368.439	12.06
368.648	10.73
368.857	10.07
369.067	9.75
369.276	9.87
369.485	9.39
369.694	9.61
369.903	8.47
370.112	8.23
370.321	8.37
370.531	9.74
370.74	10.31
370.949	10.39
371.158	10
371.367	8.93
371.576	9.76
371.785	9.78
371.994	9.18
372.203	9.88
372.412	9.41
372.621	10
372.83	8.98
373.039	9.17
373.248	9.5
373.457	9.88
373.666	9.92
373.874	9.8
374.083	9.64
374.292	10.21
374.501	10.69
374.71	11.51
374.919	12.03
375.128	12.67
375.336	13.58
375.545	13.52
375.754	13.2
375.963	13.81
376.171	12.93
376.38	12.59
376.589	12.62
376.798	12.2
377.006	11.62
377.215	11.07
377.424	10.71
377.632	10.31
377.841	10.32
378.05	10.51
378.258	10.75
378.467	11.45
378.675	11.69
378.884	11.18
379.093	11.34
379.301	11.28
379.51	11.18
379.718	11.54
379.927	11.74
380.135	11.81
380.344	11.57
380.552	11.53
380.761	10.45
380.969	10.22
381.177	10.51
381.386	10.6
381.594	10.79
381.803	10.38
382.011	10.02
382.219	9.32
382.428	8.78
382.636	9.04
382.845	8.4
383.053	8.62
383.261	8.62
383.469	8.41
383.678	8.34
383.886	8.38
384.094	8.8
384.302	9.12
384.511	9.41
384.719	9.78
384.927	9.57
385.135	9.88
385.343	9.94
385.552	10.41
385.76	10.39
385.968	10.24
386.176	10.25
386.384	10.46
386.592	9.81
386.8	9.96
387.008	9.69
387.216	9.52
387.424	9.82
387.633	9.59
387.841	8.8
388.049	8.86
388.257	8.79
388.465	8.68
388.672	8.17
388.88	8.28
389.088	7.92
389.296	7.72
389.504	7.94
389.712	7.46
389.92	7.32
390.128	7.47
390.336	7.43
390.544	7.95
390.751	8.09
390.959	8.25
391.167	8.59
391.375	8.62
391.583	9.15
391.79	8.88
391.998	8.88
392.206	8.9
392.414	9.11
392.621	9.21
392.829	9.02
393.037	8.79
393.244	8.93
393.452	8.72
393.66	8.66
393.867	8.39
394.075	8.53
394.283	8.52
394.49	8.53
394.698	8.61
394.905	8.61
395.113	8.12
395.32	8.36
395.528	8.36
395.735	7.93
395.943	8.08
396.15	7.81
396.358	7.99
396.565	8.05
396.773	8.29
396.98	8.29
397.188	8.07
397.395	8.09
397.602	8.23
397.81	7.82
398.017	8.54
398.225	8.51
398.432	8.75
398.639	8.48
398.847	8.59
399.054	8.42
399.261	7.71
399.468	8.04
399.676	8.16
399.883	7.81
400.09	7.98
400.297	7.78
400.505	7.7
400.712	7.56
400.919	7.84
401.126	7.66
401.333	7.56
401.54	7.96
401.748	7.47
401.955	7.38
402.162	7.01
402.369	7.16
402.576	7.17
402.783	7.14
402.99	7.53
403.197	7.18
403.404	7
403.611	7.17
403.818	6.98
404.025	6.98
404.232	7.01
404.439	7.25
404.646	6.95
404.853	6.9
405.06	7.04
405.267	7.01
405.474	7.21
405.681	7.41
405.887	7.2
406.094	7.23
406.301	7.27
406.508	7.38
406.715	7.69
406.922	8.03
407.128	7.9
407.335	7.38
407.542	7.3
407.749	7.31
407.955	7.37
408.162	7.5
408.369	7.85
408.575	7.98
408.782	7.96
408.989	7.39
409.195	7.17
409.402	7.35
409.609	7.33
409.815	7.14
410.022	7.14
410.228	7.05
410.435	7.01
410.642	6.87
410.848	6.71
411.055	6.54
411.261	6.61
411.468	6.71
411.674	6.81
411.881	7.02
412.087	7
412.294	7.14
412.5	7.09
412.706	7.08
412.913	6.86
413.119	7.06
413.326	7.09
413.532	7.34
413.738	7.32
413.945	7.01
414.151	6.97
414.357	7.04
414.564	6.89
414.77	7.17
414.976	7.11
415.182	6.92
415.389	7.03
415.595	7.28
415.801	7.14
416.007	6.91
416.214	7.11
416.42	7.34
416.626	7.26
416.832	7.14
417.038	6.61
417.244	6.83
417.45	7.25
417.657	7.16
417.863	6.99
418.069	7.13
418.275	7.26
418.481	7.19
418.687	6.98
418.893	7.05
419.099	7.15
419.305	7.42
419.511	7.44
419.717	7.35
419.923	7.34
420.129	7.46
420.335	7.55
420.541	7.54
420.746	7.45
420.952	7.52
421.158	7.51
421.364	7.48
421.57	7.51
421.776	7.58
421.982	7.57
422.187	7.59
422.393	7.44
422.599	7.42
422.805	7.52
423.01	7.58
423.216	7.56
423.422	7.63
423.628	7.76
423.833	7.74
424.039	7.59
424.245	7.53
424.45	7.41
424.656	7.53
424.862	7.33
425.067	7.23
425.273	7.27
425.478	7.18
425.684	7.07
425.889	6.83
426.095	6.91
426.301	7.04
426.506	6.87
426.712	6.91
426.917	6.84
427.123	6.87
427.328	6.81
427.533	6.67
427.739	6.86
427.944	6.93
428.15	6.86
428.355	6.62
428.561	6.6
428.766	7.03
428.971	7.14
429.177	7.11
429.382	7.15
429.587	7.23
429.793	7.32
429.998	7.41
430.203	7.38
430.408	7.51
430.614	7.44
430.819	7.35
431.024	7.43
431.229	7.5
431.434	7.62
431.64	7.75
431.845	7.76
432.05	7.63
432.255	7.48
432.46	7.63
432.665	7.58
432.87	7.66
433.076	7.6
433.281	7.34
433.486	7.29
433.691	7.27
433.896	7.27
434.101	7.24
434.306	7.24
434.511	7.17
434.716	7.04
434.921	6.95
435.126	7.04
435.331	7.12
435.535	7.27
435.74	7.08
435.945	6.93
436.15	6.8
436.355	6.75
436.56	6.86
436.765	6.76
436.97	7.07
437.174	7.46
437.379	7.18
437.584	7.01
437.789	6.84
437.993	7.09
438.198	7.18
438.403	7.2
438.608	7.11
438.812	7.1
439.017	7.42
439.222	7.14
439.426	6.88
439.631	7.01
439.836	7.09
440.04	7.27
440.245	7.4
440.45	7.39
440.654	7.35
440.859	7.46
441.063	7.41
441.268	7.33
441.472	7.25
441.677	7.38
441.881	7.45
442.086	7.5
442.29	7.25
442.495	7.09
442.699	7.1
442.904	7.19
443.108	7.17
443.312	7.14
443.517	7.02
443.721	7.08
443.925	6.97
444.13	6.92
444.334	6.65
444.538	6.82
444.743	6.74
444.947	6.85
445.151	6.78
445.356	6.88
445.56	6.93
445.764	7.04
445.968	7.2
446.173	7.18
446.377	7.14
446.581	7.35
446.785	7.3
446.989	7.14
447.193	7.01
447.398	7.11
447.602	7.07
447.806	7.05
448.01	6.97
448.214	6.89
448.418	7.01
448.622	7.03
448.826	6.88
449.03	6.95
449.234	7.16
449.438	7.17
449.642	7.05
449.846	6.99
450.05	6.87
450.254	6.84
450.458	6.88
450.662	6.7
450.866	6.66
451.069	6.84
451.273	6.51
451.477	6.63
451.681	6.57
451.885	6.71
452.089	6.69
452.292	6.8
452.496	6.88
452.7	6.79
452.904	6.95
453.107	7.04
453.311	7
453.515	7.23
453.719	7.04
453.922	7.08
454.126	6.94
454.33	6.75
454.533	6.69
454.737	6.63
454.94	6.7
455.144	6.73
455.348	6.68
455.551	6.64
455.755	6.63
455.958	6.8
456.162	6.69
456.365	6.73
456.569	7
456.772	7.04
456.976	7.17
457.179	7.15
457.383	7.19
457.586	7.14
457.79	7.03
457.993	7.15
458.196	6.97
458.4	7.17
458.603	7.1
458.807	6.92
459.01	7.08
459.213	6.95
459.417	7
459.62	6.9
459.823	6.82
460.026	6.92
460.23	6.85
460.433	7.03
460.636	6.99
460.839	6.97
461.042	7.11
461.246	6.92
461.449	6.88
461.652	6.63
461.855	6.6
462.058	6.67
462.261	6.52
462.464	6.38
462.668	6.35
462.871	6.2
463.074	6.24
463.277	6.59
463.48	6.56
463.683	6.61
463.886	6.8
464.089	6.74
464.292	6.81
464.495	6.74
464.698	6.95
464.901	6.68
465.104	6.87
465.306	6.9
465.509	6.5
465.712	6.55
465.915	6.65
466.118	6.54
466.321	6.66
466.524	6.43
466.726	6.52
466.929	6.5
467.132	6.74
467.335	6.79
467.538	6.85
467.74	6.83
467.943	6.95
468.146	6.94
468.348	7.03
468.551	7.03
468.754	7.26
468.956	7.21
469.159	7.35
469.362	7.29
469.564	7.12
469.767	7.09
469.969	7.23
470.172	7.12
470.375	7.03
470.577	6.98
470.78	6.85
470.982	6.72
471.185	6.91
471.387	6.74
471.59	6.68
471.792	6.74
471.995	6.67
472.197	6.44
472.399	6.43
472.602	6.43
472.804	6.47
473.007	6.48
473.209	6.57
473.411	6.7
473.614	6.84
473.816	6.78
474.018	6.74
474.22	6.78
474.423	6.89
474.625	6.86
474.827	7.02
475.03	7
475.232	7.18
475.434	7.22
475.636	7.14
475.838	6.9
476.04	6.91
476.243	7.06
476.445	7.29
476.647	7.3
476.849	7.47
477.051	7.28
477.253	7.09
477.455	7.06
477.657	6.91
477.859	6.76
478.061	6.85
478.263	6.85
478.465	6.66
478.667	6.4
478.869	6.29
479.071	6.18
479.273	6.19
479.475	6.35
479.677	6.37
479.879	6.5
480.081	6.61
480.283	6.6
480.485	6.71
480.686	6.83
480.888	6.82
481.09	6.89
481.292	6.83
481.494	6.81
481.695	6.86
481.897	6.81
482.099	6.85
482.301	6.89
482.502	6.99
482.704	6.93
482.906	7.01
483.107	7.03
483.309	7.05
483.511	7.11
483.712	7.26
483.914	7.29
484.115	7.26
484.317	7.25
484.519	7.23
484.72	7.14
484.922	7.17
485.123	7.07
485.325	7.07
485.526	7.09
485.728	7.04
485.929	6.94
486.131	6.93
486.332	6.91
486.534	6.92
486.735	6.9
486.936	7
487.138	6.99
487.339	7.07
487.541	7
487.742	7.02
487.943	7.09
488.144	7.12
488.346	7.12
488.547	7.07
488.748	7.04
488.95	7.04
489.151	7.02
489.352	6.96
489.553	6.96
489.755	7.08
489.956	7.13
490.157	7.07
490.358	6.92
490.559	6.92
490.76	7.12
490.961	7.15
491.163	7.13
491.364	7.11
491.565	7.18
491.766	7.16
491.967	7.1
492.168	6.96
492.369	6.93
492.57	6.91
492.771	6.91
492.972	6.75
493.173	6.88
493.374	6.95
493.575	6.89
493.776	6.89
493.976	6.77
494.177	6.79
494.378	6.89
494.579	6.95
494.78	7.04
494.981	7.03
495.182	7.09
495.382	6.84
495.583	6.84
495.784	6.95
495.985	7.04
496.185	7.16
496.386	7.2
496.587	7.16
496.788	7.31
496.988	7.41
497.189	7.49
497.39	7.61
497.59	7.49
497.791	7.48
497.992	7.4
498.192	7.27
498.393	7.25
498.593	7.12
498.794	7.14
498.994	7.08
499.195	7.16
499.395	7.06
499.596	7.12
499.796	7.11
499.997	7.13
500.197	7.04
500.398	7
500.598	6.92
500.799	6.99
500.999	6.94
501.199	6.79
501.4	6.58
501.6	6.53
501.801	6.26
502.001	6.6
502.201	6.65
502.402	6.86
502.602	6.84
502.802	6.89
503.002	7.03
503.203	7.07
503.403	7.08
503.603	7.21
503.803	7.31
504.003	7.54
504.204	7.31
504.404	7.45
504.604	7.46
504.804	7.45
505.004	7.53
505.204	7.47
505.404	7.43
505.604	7.56
505.804	7.54
506.005	7.46
506.205	7.42
506.405	7.49
506.605	7.19
506.805	7.3
507.005	7.44
507.204	7.48
507.404	7.46
507.604	7.51
507.804	7.57
508.004	7.49
508.204	7.56
508.404	7.55
508.604	7.53
508.804	7.76
509.003	7.64
509.203	7.72
509.403	7.72
509.603	7.76
509.803	7.61
510.002	7.62
510.202	7.66
510.402	7.7
510.602	7.68
510.801	7.75
511.001	7.71
511.201	7.75
511.4	7.69
511.6	7.66
511.8	7.63
511.999	7.85
512.199	7.77
512.398	7.76
512.598	7.73
512.797	7.7
512.997	7.55
513.197	7.4
513.396	7.31
513.596	7.23
513.795	7.28
513.994	7.43
514.194	7.4
514.393	7.46
514.593	7.5
514.792	7.43
514.992	7.42
515.191	7.5
515.39	7.52
515.59	7.73
515.789	7.91
515.988	7.8
516.188	7.71
516.387	7.6
516.586	7.62
516.786	7.67
516.985	7.86
517.184	8.02
517.383	8.09
517.582	8.15
517.782	8.01
517.981	7.96
518.18	8.04
518.379	8.11
518.578	8.21
518.777	8.12
518.976	8.14
519.176	8.07
519.375	8.06
519.574	7.93
519.773	7.97
519.972	8.09
520.171	8.06
520.37	8.03
520.569	7.97
520.768	7.81
520.967	8.01
521.166	7.88
521.365	7.83
521.564	7.7
521.762	7.8
521.961	7.6
522.16	7.69
522.359	7.78
522.558	7.67
522.757	7.7
522.956	7.9
523.154	7.76
523.353	7.96
523.552	8.14
523.751	8.28
523.949	8.45
524.148	8.82
524.347	8.63
524.546	8.6
524.744	8.62
524.943	8.66
525.142	8.72
525.34	8.67
525.539	8.7
525.737	8.56
525.936	8.53
526.135	8.44
526.333	8.29
526.532	8.4
526.73	8.34
526.929	8.45
527.127	8.51
527.326	8.51
527.524	8.54
527.723	8.51
527.921	8.66
528.12	8.62
528.318	8.63
528.516	8.69
528.715	8.69
528.913	8.78
529.112	8.82
529.31	8.84
529.508	8.87
529.707	8.87
529.905	8.93
530.103	8.89
530.301	8.96
530.5	9.06
530.698	9.05
530.896	9.09
531.094	9.16
531.293	9.18
531.491	9.16
531.689	9.19
531.887	9.34
532.085	9.37
532.283	9.39
532.481	9.36
532.68	9.4
532.878	9.5
533.076	9.44
533.274	9.42
533.472	9.47
533.67	9.53
533.868	9.53
534.066	9.54
534.264	9.5
534.462	9.56
534.66	9.62
534.858	9.64
535.056	9.6
535.253	9.69
535.451	9.58
535.649	9.59
535.847	9.65
536.045	9.65
536.243	9.68
536.441	9.73
536.638	9.73
536.836	9.86
537.034	9.9
537.232	9.9
537.43	10.09
537.627	10.22
537.825	10.21
538.023	10.14
538.22	10.27
538.418	10.4
538.616	10.49
538.813	10.5
539.011	10.6
539.209	10.6
539.406	10.67
539.604	10.44
539.801	10.53
539.999	10.56
540.196	10.56
540.394	10.6
540.591	10.61
540.789	10.67
540.986	10.78
541.184	10.7
541.381	10.71
541.579	10.72
541.776	10.85
541.974	10.86
542.171	10.93
542.368	11.07
542.566	11.16
542.763	11.11
542.96	11.02
543.158	11.01
543.355	11.2
543.552	11.28
543.75	11.41
543.947	11.41
544.144	11.48
544.341	11.53
544.539	11.48
544.736	11.43
544.933	11.62
545.13	11.93
545.327	12
545.524	11.87
545.722	11.91
545.919	11.95
546.116	12.09
546.313	12.17
546.51	12.31
546.707	12.34
546.904	12.32
547.101	12.33
547.298	12.24
547.495	12.25
547.692	12.41
547.889	12.51
548.086	12.67
548.283	12.68
548.48	12.79
548.677	12.79
548.874	13.04
549.07	13.26
549.267	13.38
549.464	13.56
549.661	13.71
549.858	13.87
550.055	13.88
550.251	13.74
550.448	13.94
550.645	13.85
550.842	14.05
551.038	13.9
551.235	13.95
551.432	13.93
551.628	13.95
551.825	13.94
552.022	14.01
552.218	14.2
552.415	14.27
552.612	14.27
552.808	14.64
553.005	14.62
553.201	14.71
553.398	14.79
553.594	14.87
553.791	15.03
553.987	15.34
554.184	15.32
554.38	15.49
554.577	15.7
554.773	15.8
554.97	15.67
555.166	15.89
555.362	15.91
555.559	16.08
555.755	16.2
555.952	16.31
556.148	16.15
556.344	16.32
556.541	16.43
556.737	16.57
556.933	16.77
557.129	16.87
557.326	16.86
557.522	17.05
557.718	17.24
557.914	17.37
558.11	17.45
558.307	17.65
558.503	17.53
558.699	17.42
558.895	17.56
559.091	17.69
559.287	17.72
559.483	17.69
559.679	17.77
559.876	17.69
560.072	17.78
560.268	17.77
560.464	17.91
560.66	18.25
560.856	18.53
561.052	18.38
561.247	18.44
561.443	18.5
561.639	18.69
561.835	19.05
562.031	19.24
562.227	19.24
562.423	19.3
562.619	19.34
562.815	19.34
563.01	19.25
563.206	19.59
563.402	19.51
563.598	19.6
563.793	19.7
563.989	19.51
564.185	19.41
564.381	19.49
564.576	19.74
564.772	19.87
564.968	19.85
565.163	20.09
565.359	19.94
565.555	19.94
565.75	20.25
565.946	20.25
566.141	20.42
566.337	20.48
566.532	20.72
566.728	20.77
566.923	20.97
567.119	21.28
567.314	21.2
567.51	21.25
567.705	21.5
567.901	21.47
568.096	21.61
568.292	21.59
568.487	21.68
568.682	21.63
568.878	21.6
569.073	21.69
569.268	21.63
569.464	21.84
569.659	21.89
569.854	21.94
570.05	21.95
570.245	22.05
570.44	22.19
570.635	22.31
570.831	22.45
571.026	22.6
571.221	22.49
571.416	22.66
571.611	22.72
571.806	22.94
572.002	22.91
572.197	23.08
572.392	23.15
572.587	23.29
572.782	23.42
572.977	23.55
573.172	23.73
573.367	23.87
573.562	23.88
573.757	23.87
573.952	23.95
574.147	24.23
574.342	24.41
574.537	24.53
574.732	24.55
574.927	24.56
575.121	24.52
575.316	24.33
575.511	24.45
575.706	24.61
575.901	24.5
576.096	24.56
576.29	24.4
576.485	24.37
576.68	24.47
576.875	24.68
577.069	24.86
577.264	24.9
577.459	25.06
577.654	25.04
577.848	24.97
578.043	25.23
578.238	25.34
578.432	25.41
578.627	25.5
578.821	25.47
579.016	25.5
579.21	25.5
579.405	25.55
579.6	25.98
579.794	26.13
579.989	26.14
580.183	26.13
580.378	26.24
580.572	26.4
580.766	26.23
580.961	26.26
581.155	25.91
581.35	25.96
581.544	26.13
581.738	25.84
581.933	25.79
582.127	25.8
582.321	25.93
582.516	25.94
582.71	25.95
582.904	25.97
583.099	25.79
583.293	26.29
583.487	26.23
583.681	26.18
583.875	26.46
584.07	26.29
584.264	26.55
584.458	26.72
584.652	26.82
584.846	27.03
585.04	27.14
585.234	27.34
585.428	27.1
585.623	27.23
585.817	27.18
586.011	27.09
586.205	27.02
586.399	26.74
586.593	26.83
586.787	26.91
586.981	26.99
587.174	27.3
587.368	27.35
587.562	27.7
587.756	27.54
587.95	27.86
588.144	27.85
588.338	28.01
588.532	28.2
588.725	28.14
588.919	28.05
589.113	28.2
589.307	28.15
589.501	28.36
589.694	28.47
589.888	28.66
590.082	28.65
590.275	28.49
590.469	28.52
590.663	28.42
590.856	28.62
591.05	28.59
591.244	28.41
591.437	28.41
591.631	28.19
591.824	27.91
592.018	28.13
592.212	28.19
592.405	28.29
592.599	28.56
592.792	28.61
592.986	28.47
593.179	28.46
593.372	28.43
593.566	28.49
593.759	28.68
593.953	28.86
594.146	28.79
594.339	28.7
594.533	28.81
594.726	28.93
594.92	29.18
595.113	29.24
595.306	29.44
595.499	29.37
595.693	29.44
595.886	29.37
596.079	29.15
596.272	29.17
596.466	29.3
596.659	29.3
596.852	29.41
597.045	29.24
597.238	29.27
597.431	29.32
597.624	29.44
597.818	29.68
598.011	29.82
598.204	29.97
598.397	29.89
598.59	29.99
598.783	30.22
598.976	29.98
599.169	30.07
599.362	30.11
599.555	29.88
599.748	29.62
599.941	29.04
600.134	28.96
600.326	29.13
600.519	29.32
600.712	28.97
600.905	29.03
601.098	29.04
601.291	29
601.483	29.21
601.676	29.28
601.869	29.59
602.062	29.86
602.255	29.56
602.447	29.74
602.64	29.73
602.833	30.07
603.025	29.94
603.218	29.96
603.411	30.18
603.603	30.17
603.796	30.18
603.989	30.3
604.181	30.34
604.374	30.58
604.566	30.38
604.759	30.48
604.951	30.42
605.144	30.47
605.336	30.36
605.529	30.59
605.721	30.47
605.914	30.54
606.106	30.68
606.299	30.72
606.491	30.83
606.683	30.78
606.876	30.62
607.068	30.74
607.26	30.78
607.453	31.25
607.645	30.82
607.837	30.91
608.03	30.87
608.222	30.6
608.414	30.53
608.606	30.38
608.799	30.59
608.991	30.82
609.183	30.67
609.375	30.43
609.567	30.24
609.759	30.28
609.952	30.13
610.144	30.27
610.336	30.2
610.528	30.16
610.72	30.37
610.912	30.08
611.104	30.04
611.296	30.11
611.488	30.23
611.68	30.16
611.872	30.06
612.064	30.09
612.256	30.02
612.448	30.23
612.64	30.14
612.832	29.8
613.023	29.99
613.215	29.81
613.407	29.72
613.599	29.79
613.791	29.82
613.983	30.2
614.174	30.09
614.366	30.01
614.558	30.29
614.75	30.61
614.941	30.91
615.133	30.9
615.325	30.8
615.516	30.69
615.708	30.66
615.9	30.77
616.091	30.89
616.283	30.93
616.475	30.83
616.666	30.26
616.858	30.22
617.049	30.28
617.241	30.67
617.432	30.81
617.624	30.99
617.815	30.86
618.007	30.91
618.198	30.85
618.39	31.07
618.581	31.33
618.773	31.59
618.964	31.52
619.155	31.44
619.347	31.06
619.538	31.12
619.729	30.99
619.921	31.28
620.112	31.37
620.303	31.24
620.494	31.29
620.686	31.68
620.877	31.96
621.068	31.98
621.259	32.06
621.451	32.01
621.642	32.04
621.833	32.46
622.024	32.32
622.215	32.1
622.406	31.96
622.597	31.71
622.788	30.85
622.98	30.72
623.171	30.98
623.362	30.99
623.553	31.2
623.744	31.15
623.935	30.91
624.126	30.98
624.317	31.27
624.508	31.24
624.698	31.52
624.889	31.95
625.08	31.55
625.271	31.28
625.462	31.17
625.653	31.37
625.844	31.59
626.034	32.02
626.225	31.86
626.416	31.77
626.607	31.82
626.798	31.69
626.988	31.58
627.179	31.85
627.37	32.17
627.56	32.53
627.751	32.48
627.942	32.45
628.132	32.1
628.323	32.37
628.514	32.13
628.704	32.54
628.895	32.71
629.085	32.76
629.276	32.75
629.466	32.71
629.657	32.37
629.847	32.19
630.038	31.93
630.228	32.12
630.419	31.98
630.609	32.07
630.8	32.05
630.99	31.94
631.181	32.12
631.371	32.07
631.561	31.69
631.752	31.95
631.942	32.34
632.132	32.87
632.323	32.7
632.513	32.6
632.703	32.89
632.893	32.67
633.084	32.81
633.274	33.07
633.464	33.3
633.654	33.49
633.844	33.29
634.034	33.09
634.225	32.95
634.415	33.1
634.605	33.44
634.795	33.48
634.985	33.22
635.175	33.28
635.365	33.24
635.555	33.38
635.745	33.24
635.935	33.57
636.125	33.55
636.315	33.24
636.505	33.03
636.695	32.99
636.885	33.24
637.075	33.4
637.265	33.47
637.455	33.23
637.644	33.1
637.834	33.35
638.024	33.08
638.214	32.86
638.404	33.2
638.593	33.39
638.783	33.16
638.973	32.98
639.163	32.89
639.352	32.82
639.542	32.97
639.732	32.93
639.921	32.89
640.111	32.89
640.301	33.07
640.49	33.01
640.68	32.99
640.87	33.03
641.059	33.01
641.249	33.41
641.438	33.29
641.628	33.4
641.817	33.69
642.007	33.46
642.196	33.51
642.386	33.36
642.575	32.89
642.764	33.06
642.954	32.9
643.143	32.87
643.333	32.65
643.522	32.72
643.711	32.49
643.901	32.21
644.09	32.38
644.279	32.37
644.469	32.79
644.658	32.89
644.847	33.17
645.036	33.33
645.226	33.2
645.415	33.26
645.604	33.32
645.793	33.26
645.982	32.93
646.171	33.07
646.361	33.34
646.55	33.43
646.739	33.7
646.928	33.31
647.117	33.06
647.306	32.93
647.495	32.68
647.684	32.58
647.873	32.75
648.062	32.97
648.251	32.47
648.44	31.85
648.629	31.68
648.818	31.62
649.007	31.97
649.196	32.2
649.384	32.44
649.573	32.28
649.762	32.88
649.951	32.96
650.14	33.66
650.328	34.24
650.517	34.52
650.706	34.26
650.895	34.39
651.083	33.77
651.272	33.98
651.461	33.94
651.65	34.36
651.838	33.6
652.027	33.53
652.216	32.77
652.404	32.49
652.593	32.48
652.781	32.46
652.97	32.55
653.158	32.97
653.347	32.89
653.535	32.79
653.724	32.78
653.912	33.3
654.101	32.95
654.289	33.23
654.478	33.16
654.666	33.33
654.855	33.72
655.043	33.42
655.231	32.9
655.42	32.67
655.608	32.96
655.796	32.98
655.985	32.68
656.173	32.98
656.361	32.78
656.55	32.79
656.738	32.62
656.926	32.24
657.114	32.52
657.302	32.84
657.491	33.42
657.679	33.16
657.867	33.1
658.055	33.18
658.243	33.26
658.431	33.12
658.619	33.45
658.807	33.84
658.996	33.86
659.184	33.88
659.372	34.17
659.56	34.21
659.748	34.52
659.936	34.43
660.124	34.55
660.311	34.45
660.499	34.88
660.687	34.81
660.875	34.71
661.063	34.77
661.251	34.64
661.439	34.43
661.627	34.12
661.814	33.62
662.002	33.87
662.19	33.92
662.378	33.99
662.565	33.7
662.753	33.66
662.941	33.74
663.129	33.49
663.316	33.48
663.504	33.26
663.692	33.26
663.879	33.06
664.067	32.81
664.254	32.95
664.442	33.01
664.63	33.09
664.817	33.15
665.005	32.55
665.192	33.11
665.38	33.29
665.567	33.14
665.755	33.05
665.942	33.64
666.13	33.4
666.317	33.01
666.504	33.32
666.692	33.33
666.879	33.18
667.067	33.48
667.254	33.44
667.441	33.95
667.629	33.92
667.816	34
668.003	33.86
668.19	34.56
668.378	34.37
668.565	34.04
668.752	34.29
668.939	34.57
669.127	34.66
669.314	34.58
669.501	33.88
669.688	33.94
669.875	34.12
670.062	34.42
670.249	34.09
670.436	34.69
670.623	34.67
670.81	34.77
670.997	34.76
671.184	34.39
671.371	34.31
671.558	34.33
671.745	34.71
671.932	34.65
672.119	33.88
672.306	34.39
672.493	33.87
672.68	33.71
672.867	33.97
673.054	33.72
673.24	34.34
673.427	34.07
673.614	34.24
673.801	33.88
673.988	33.68
674.174	34.15
674.361	34.08
674.548	34.22
674.734	34.67
674.921	33.96
675.108	34.39
675.294	34.13
675.481	34.57
675.668	34.27
675.854	34.7
676.041	34.77
676.227	34.58
676.414	33.56
676.601	33.67
676.787	33.41
676.974	33.15
677.16	32.96
677.347	33.26
677.533	33.24
677.719	33.72
677.906	33.59
678.092	33.49
678.279	33.33
678.465	33.95
678.651	34.11
678.838	34.52
679.024	34.55
679.21	34.45
679.397	34.11
679.583	34.3
679.769	34.69
679.955	34.76
680.142	34.79
680.328	35.07
680.514	35.12
680.7	34.94
680.886	34.38
681.073	34.68
681.259	34.9
681.445	35.04
681.631	35.24
681.817	34.76
682.003	34.34
682.189	34.14
682.375	34.02
682.561	34.47
682.747	34.41
682.933	34.37
683.119	34.4
683.305	34.46
683.491	34.54
683.677	33.61
683.863	33.23
684.049	33.61
684.235	34
684.42	34.37
684.606	33.79
684.792	33.8
684.978	33.53
685.164	33.6
685.349	33.13
685.535	33.19
685.721	33.4
685.907	34.16
686.092	34.48
686.278	34.87
686.464	34.15
686.649	34.42
686.835	34.6
687.021	35
687.206	34.9
687.392	35.84
687.577	35.76
687.763	35.98
687.948	36.06
688.134	36.18
688.319	36.01
688.505	36.75
688.69	36.71
688.876	36.45
689.061	36.88
689.247	36.81
689.432	35.8
689.618	35.31
689.803	35.8
689.988	35.68
690.174	35.31
690.359	35.42
690.544	35.21
690.73	35.53
690.915	35.99
691.1	35.7
691.285	35.36
691.471	35.05
691.656	35.5
691.841	35.12
692.026	35.01
692.211	35.08
692.396	34.59
692.582	34.34
692.767	34.63
692.952	34.01
693.137	34.99
693.322	35.72
693.507	35.7
693.692	35.9
693.877	36.36
694.062	36.41
694.247	36.27
694.432	36.35
694.617	36.43
694.802	35.39
694.987	35.25
695.172	34.32
695.357	34.06
695.541	35.02
695.726	34.85
695.911	34.11
696.096	34.02
696.281	33.93
696.466	33.61
696.65	33.17
696.835	33.17
697.02	33.71
697.204	33.54
697.389	33.61
697.574	33.57
697.759	34.03
697.943	33.75
698.128	33.81
698.312	33.66
698.497	33.97
698.682	33.99
698.866	34.07
699.051	33.94
699.235	34.44
699.42	34.38
699.604	34.09
699.789	33.91
699.973	34.7
700.158	34.21
700.342	34.59
700.527	34.83
700.711	35.55
700.895	35.66
701.08	35.67
701.264	35.48
701.448	35.45
701.633	35.5
701.817	34.38
702.001	33.31
702.186	33.3
702.37	32.72
702.554	31.82
702.738	31.45
702.923	31.56
703.107	31.82
703.291	30.82
703.475	31.48
703.659	32.3
703.843	33.39
704.027	34.33
704.212	34.49
704.396	34.87
704.58	35.5
704.764	35.42
704.948	35.73
705.132	34.97
705.316	35.77
705.5	35.58
705.684	35.5
705.868	34.69
706.052	34.09
706.235	33.77
706.419	33.81
706.603	33.89
706.787	34.18
706.971	33.66
707.155	33.51
707.339	33.62
707.522	32.22
707.706	31.52
707.89	32.28
708.074	32.59
708.257	32.94
708.441	33.55
708.625	33.43
708.808	33.17
708.992	32.8
709.176	33.52
709.359	33.26
709.543	33.92
709.727	33.54
709.91	33.52
710.094	33.36
710.277	33.49
710.461	33.39
710.644	33.14
710.828	32.96
711.011	33.37
711.195	33.62
711.378	33.4
711.562	33.83
711.745	34.55
711.928	35.05
712.112	35.64
712.295	35.45
712.478	35.83
712.662	36.55
712.845	36.74
713.028	36.37
713.212	36.69
713.395	37.15
713.578	37.61
713.761	37.08
713.945	35.88
714.128	35.67
714.311	36.3
714.494	35.36
714.677	34.28
714.86	34.48
715.043	35.24
715.227	34.96
715.41	35.21
715.593	35.35
715.776	35.53
715.959	36.87
716.142	37.23
716.325	36.72
716.508	36.63
716.691	37.73
716.874	38.13
717.057	37.43
717.239	37.68
717.422	37.09
717.605	37
717.788	36.41
717.971	36.1
718.154	35.74
718.337	36.37
718.519	36.5
718.702	35.7
718.885	34.81
719.068	35.01
719.25	34.35
719.433	35.25
719.616	34.31
719.798	35.06
719.981	34.11
720.164	33.96
720.346	33.58
720.529	34.05
720.712	34.7
720.894	34.8
721.077	34.88
721.259	34.56
721.442	33.4
721.624	33.16
721.807	33.62
721.989	34.49
722.172	34.75
722.354	34.29
722.537	34.3
722.719	34.11
722.901	34.13
723.084	34.79
723.266	34.88
723.448	35.61
723.631	37.02
723.813	36.77
723.995	36.69
724.178	36.26
724.36	37.2
724.542	36.71
724.724	37.09
724.907	37.11
725.089	36.57
725.271	37
725.453	35.86
725.635	34.9
725.817	33.95
725.999	34.5
726.181	34.46
726.364	34.38
726.546	35.43
726.728	35.84
726.91	36.19
727.092	35.23
727.274	36.03
727.456	35.98
727.638	35.31
727.819	36.29
728.001	36.79
728.183	35.6
728.365	35.23
728.547	34.95
728.729	34.67
728.911	35.24
729.093	35.74
729.274	34.94
729.456	35.42
729.638	37.06
729.82	36.65
730.001	34.47
730.183	35.86
730.365	35.74
730.546	35.78
730.728	34.65
730.91	33.16
731.091	32.97
731.273	32.84
731.455	33.24
731.636	32.31
731.818	32.75
731.999	34.39
732.181	34.91
732.362	35.84
732.544	35.68
732.725	36.48
732.907	37.32
733.088	37.53
733.27	37.17
733.451	37.67
733.633	38.38
733.814	38.93
733.995	38.19
734.177	37.64
734.358	37.75
734.539	37.15
734.721	36.77
734.902	36.59
735.083	36.48
735.264	37.02
735.446	35.88
735.627	35.45
735.808	34.49
735.989	33.84
736.17	33.13
736.351	32.88
736.533	34.49
736.714	34.83
736.895	34.69
737.076	36.12
737.257	35.86
737.438	36.32
737.619	36.67
737.8	37.08
737.981	38.51
738.162	38.92
738.343	39.18
738.524	37.11
738.705	36.11
738.886	34.97
739.067	34.45
739.247	35.02
739.428	35.08
739.609	35.14
739.79	35.38
739.971	34.62
740.151	35.06
740.332	33.86
740.513	33.68
740.694	34.11
740.874	35.39
741.055	35.65
741.236	36.55
741.417	36.01
741.597	35.39
741.778	34.16
741.958	34.29
742.139	34.97
742.32	36.42
742.5	37.52
742.681	38.22
742.861	38.22
743.042	38
743.222	36.48
743.403	37.62
743.583	37.27
743.764	38.42
743.944	38.56
744.124	35.21
744.305	33.12
744.485	32.92
744.666	32.29
744.846	32.16
745.026	32.61
745.207	31.8
745.387	30.87
745.567	31.8
745.747	30.64
745.928	29.64
746.108	32.27
746.288	33.92
746.468	33.52
746.648	33.97
746.829	34.17
747.009	34.26
747.189	34.51
747.369	35.03
747.549	34.8
747.729	34.35
747.909	35.37
748.089	35.84
748.269	34.13
748.449	36.34
748.629	36.16
748.809	35.52
748.989	35.45
749.169	34.5
749.349	33.84
749.529	33.2
749.709	34.27
749.889	33.64
750.068	32.42
750.248	33.95
750.428	31.12
750.608	30.6
750.788	30.68
750.967	28.64
751.147	31.22
751.327	32.66
751.507	32.43
751.686	31.99
751.866	31.79
752.046	31.77
752.225	31.41
752.405	32.91
752.585	32.92
752.764	33.04
752.944	33.53
753.123	32.88
753.303	31.89
753.482	31.23
753.662	33.07
753.841	33.93
754.021	34.51
754.2	34.05
754.38	34.72
754.559	35.49
754.739	34.34
754.918	36.3
755.097	35.89
755.277	34.7
755.456	36.09
755.635	35.46
755.815	36.37
755.994	37.17
756.173	36.34
756.352	35.97
756.532	36.66
756.711	38.99
756.89	38.96
757.069	38.5
757.248	39.15
757.427	38.7
757.607	39.04
757.786	38.76
757.965	38.22
758.144	39.3
758.323	38.7
758.502	38.17
758.681	37.49
758.86	36.35
759.039	35.45
759.218	35.63
759.397	35.14
759.576	34.13
759.755	33.72
759.934	32.14
760.113	32.15
760.291	32.36
760.47	32.17
760.649	33.15
760.828	33.24
761.007	34.26
761.186	35.23
761.364	36.42
761.543	37.12
761.722	37.2
761.901	38.87
762.079	38.45
762.258	37.56
762.437	37.29
762.615	37.13
762.794	36.53
762.972	35.66
763.151	35.84
763.33	35.25
763.508	35.31
763.687	35.37
763.865	36.11
764.044	36.12
764.222	36.77
764.401	36.84
764.579	35.63
764.758	36.13
764.936	37.3
765.114	36.97
765.293	36.86
765.471	36.44
765.65	36.11
765.828	35.05
766.006	36.61
766.184	36.12
766.363	36.72
766.541	38.01
766.719	36.77
766.898	36.71
767.076	36.23
767.254	37.11
767.432	35.45
767.61	36.19
767.788	35.63
767.967	33.28
768.145	34.28
768.323	32.26
768.501	31.67
768.679	33.79
768.857	32.96
769.035	31.81
769.213	31.23
769.391	32.8
769.569	31.69
769.747	32.7
769.925	32.43
770.103	32.36
770.281	32.97
770.459	32.45
770.636	30.89
770.814	30.24
770.992	33.74
771.17	32.23
771.348	33.2
771.525	33.35
771.703	33.94
771.881	33.69
772.059	33.94
772.236	35.06
772.414	35.75
772.592	35.47
772.769	35.94
772.947	30.55
773.125	32
773.302	30.85
773.48	32.02
773.657	29.11
773.835	28.97
774.013	28.65
774.19	29.12
774.368	28.84
774.545	30.3
774.723	32.23
774.9	35.27
775.077	32.81
775.255	32
775.432	28.93
775.61	30.11
775.787	31.78
775.964	31.29
776.142	31.36
776.319	31.98
776.496	29.02
776.674	29.24
776.851	28.68
777.028	32.11
777.205	34.74
777.382	36.17
777.56	35.64
777.737	36.01
777.914	34.87
778.091	34.58
778.268	35.2
778.445	42.14
778.622	39.44
778.8	40.18
778.977	39.17
779.154	36.35
779.331	38.19
779.508	36.76
779.685	35.7
779.862	36.39
780.038	35.7
780.215	34.96
780.392	30.9
780.569	32.19
780.746	30.91
780.923	33.33
781.1	35.6
781.277	32.81
781.453	36.39
781.63	35.71
781.807	37.4
781.984	38.1
782.16	36.29
782.337	37.52
782.514	38.04
782.691	40.17
782.867	39.17
783.044	36.82
783.221	36.99
783.397	35.2
783.574	33.78
783.75	32.48
783.927	30.76
784.103	32.6
784.28	31.18
784.456	32.63
784.633	29.23
784.809	29.51
784.986	32.33
785.162	31.6
785.339	30.08
785.515	31.29
785.692	30.31
785.868	30.36
786.044	29.79
786.221	31.15
786.397	28.15
786.573	30.57
786.749	31.03
786.926	31.63
787.102	31.16
787.278	34.84
787.454	36.93
787.631	37.34
787.807	36.97
787.983	39.82
788.159	40.23
788.335	37.43
788.511	33.5
788.687	32.98
788.863	31.39
789.039	35.26
789.216	34.99
789.392	34.96
789.568	35.8
789.744	37.07
789.919	33.82
790.095	33.26
790.271	36.91
790.447	39.46
790.623	42.12
790.799	39.5
790.975	38.91
791.151	37.92
791.327	37.12
791.502	36.12
791.678	36.54
791.854	38.99
792.03	38.19
792.205	37.51
792.381	38.14
792.557	33.64
792.733	38.23
792.908	39.36
793.084	39.73
793.259	39.67
793.435	40.82
793.611	42.49
793.786	42.62
793.962	41.61
794.137	40.45
794.313	39.96
794.488	40.03
794.664	42.2
794.839	41.25
795.015	40.62
795.19	40.16
795.366	39.36
795.541	37.28
795.716	37.84
795.892	40.65
796.067	42.83
796.242	43.29
796.418	46.42
796.593	43.42
796.768	43.72
796.944	44.57
797.119	45.56
797.294	44.05
797.469	44.25
797.644	40.56
797.82	40.2
797.995	38.55
798.17	36.66
798.345	35.52
798.52	35.31
798.695	31.67
798.87	29.12
799.045	28.72
799.22	31.37
799.395	30.34
799.57	35.21
799.745	34.93
799.92	32.77
800.095	35.64
800.27	32.87
800.445	31.29
800.62	31.41
800.795	32.79
800.97	30.67
801.145	27.46
801.319	28.01
801.494	26.6
801.669	23.76
801.844	24.86
802.018	29.53
802.193	30.96
802.368	28.78
802.543	33.25
802.717	32.7
802.892	34.07
803.067	34.53
803.241	35.6
803.416	34.73
803.59	37.43
803.765	41.35
803.94	37.67
804.114	39.41
804.289	41.95
804.463	39
804.638	40.11
804.812	42.79
804.986	46.97
805.161	46.33
805.335	44.89
805.51	43.73
805.684	38.22
805.858	38.05
806.033	35.74
806.207	34.85
806.381	34.93
806.556	32.49
806.73	30.03
806.904	27.31
807.078	28.46
807.253	31.35
807.427	33.37
807.601	39.34
807.775	39.5
807.949	40.02
808.123	36.32
808.298	41.69
808.472	45.97
808.646	47.38
808.82	47.78
808.994	45.21
809.168	41.83
809.342	42.71
809.516	41.71
809.69	38.86
809.864	37.86
810.038	46.36
810.212	45
810.385	46.36
810.559	44.86
810.733	45.84
810.907	45.96
811.081	49.62
811.255	45.64
811.428	46
811.602	52.61
811.776	58.68
811.95	55.73
812.123	55.33
812.297	48.14
812.471	49.75
812.644	42.26
812.818	42.32
812.992	41.03
813.165	39.67
813.339	39.32
813.512	34.3
813.686	30.92
813.86	33.51
814.033	31.19
814.207	30.8
814.38	31.56
814.554	35.91
814.727	43.22
814.9	41.54
815.074	46.76
815.247	48.51
815.421	49.74
815.594	47.57
815.767	50.1
815.941	50.01
816.114	51.82
816.287	52.96
816.46	49.98
816.634	45.73
816.807	43.42
816.98	45.68
817.153	41.58
817.327	44.6
817.5	44.91
817.673	40.28
817.846	41.36
818.019	45
818.192	46.09
818.365	45.07
818.538	44.95
818.711	45.94
818.884	39.45
819.057	43.71
819.23	42.55
819.403	49.79
819.576	52.82
819.749	52.05
819.922	48.41
820.095	47.01
820.268	49.57
820.441	49.71
820.614	51.02
820.786	48.57
820.959	44.71
821.132	42.42
821.305	39.31
821.477	37.87
821.65	36.37
821.823	36.93
821.996	36.77
822.168	35.54
822.341	35.36
822.514	35
822.686	36.02
822.859	36.42
823.031	37.25
823.204	36.08
823.376	35.78
823.549	35.51
823.722	35.11
823.894	35.19
824.067	35.3
824.239	34.94
824.411	35.29
824.584	34.83
824.756	36.24
824.929	35.4
825.101	35.63
825.273	35.72
825.446	37.85
825.618	38.09
825.79	36.49
825.963	37.22
826.135	36.48
826.307	35.56
826.479	35.19
826.652	32.75
826.824	32.98
826.996	34.12
827.168	34.66
827.34	33.03
827.512	33.59
827.684	34.09
827.856	35
828.029	35.95
828.201	35.51
828.373	37.5
828.545	37.54
828.717	36.89
828.889	37.09
829.061	37.61
829.232	37.48
829.404	37.6
829.576	38
829.748	34.29
829.92	33.5
830.092	35.16
830.264	32.03
830.436	32.5
830.607	33.64
830.779	33.61
830.951	31.38
831.123	30.75
831.294	30.42
831.466	28.44
831.638	31.4
831.809	30.12
831.981	28.62
832.153	30.89
832.324	34.39
832.496	34.05
832.667	30.09
832.839	29.97
833.011	33.53
833.182	33.52
833.354	35.78
833.525	33.35
833.697	32.74
833.868	34.6
834.039	30.63
834.211	30.84
834.382	32.79
834.554	35.64
834.725	36.49
834.896	33.96
835.068	32.4
835.239	34.3
835.41	35.43
835.581	35.01
835.753	36.86
835.924	36.7
836.095	37.19
836.266	32.88
836.438	30.76
836.609	30.21
836.78	35.19
836.951	35.19
837.122	31.69
837.293	32.49
837.464	32.63
837.635	32.73
837.806	37.94
837.977	35.9
838.148	40.7
838.319	37.69
838.49	45.1
838.661	40.61
838.832	43.23
839.003	44.22
839.174	51.6
839.345	52.94
839.516	37.43
839.687	38.78
839.857	37.11
840.028	40.18
840.199	47.26
840.37	37.43
840.54	45.44
840.711	45.51
840.882	45.67
841.053	41.51
841.223	43.92
841.394	50.81
841.564	49.37
841.735	50.23
841.906	44.64
842.076	39.59
842.247	45.26
842.417	40.51
842.588	36.73
842.758	43.62
842.929	44.74
843.099	50.1
843.27	57.42
843.44	61.11
843.611	61.21
843.781	69.64
843.951	79.53
844.122	80.09
844.292	87.52
844.462	108.07
844.633	112.15
844.803	109.46
844.973	99.8
845.144	91.45
845.314	99.65
845.484	98.2
845.654	81.05
845.824	89.26
845.995	94.24
846.165	101.95
846.335	91.9
846.505	78.12
846.675	73.1
846.845	66.8
847.015	65.28
847.185	63.94
847.355	69.55
847.525	65.26
847.695	47.89
847.865	43.84
848.035	31.73
848.205	32.76
848.375	43.51
848.545	46.61
848.715	48.26
848.884	49.49
849.054	55.64
849.224	51.64
849.394	59.64
849.564	58.45
849.733	65.11
849.903	74.57
850.073	81.66
850.243	78.77
850.412	75.94
850.582	88.33
850.752	111.65
850.921	99.79
851.091	98.65
851.26	105.44
851.43	117.64
851.599	106.27
851.769	82.25
851.939	58.23
852.108	52.66
852.278	62.21
852.447	37.54
852.616	13.24
852.786	23.58
852.955	34.57
853.125	32.39
853.294	44.51
853.463	49.47
853.633	55.02
853.802	74.94
853.971	79.62
854.141	81.25
854.31	79.24
854.479	81.29
854.648	75.21
854.818	70.94
854.987	69.81
855.156	70.76
855.325	61.82
855.494	58.69
855.663	50.94
855.832	37.24
856.001	28.44
856.171	36.01
856.34	36.87
856.509	29.49
856.678	27.66
856.847	4.58
857.016	7.66
857.185	12.14
857.353	14.72
857.522	16.99
857.691	39.91
857.86	51.49
858.029	52.08
858.198	49.24
858.367	53.74
858.535	47.16
858.704	58.7
858.873	69.75
859.042	61.6
859.21	64.81
859.379	62.13
859.548	65.46
859.717	56.92
859.885	58.19
860.054	53.37
860.222	51.41
860.391	65.41
860.56	51.54
860.728	38.35
860.897	56.14
861.065	50.72
861.234	74.17
861.402	69.45
861.571	47.11
861.739	39.5
861.908	64.75
862.076	77.84
862.244	87.58
862.413	127.91
862.581	99.57
862.749	86.85
862.918	104.32
863.086	85.08
863.254	70.06
863.423	84.53
863.591	97.83
863.759	82.92
863.927	89.84
864.096	76.59
864.264	71.87
864.432	75.79
864.6	57.46
864.768	38.75
864.936	38.96
865.104	32.56
865.272	23.38
865.44	28.42
865.608	35.81
865.776	17.11
865.944	6.02
866.112	1.92
866.28	7.15
866.448	-1.42
866.616	-43.75
866.784	-7.12
866.952	39.37
867.12	54.25
867.288	41.21
867.455	39.47
867.623	57.92
867.791	90.63
867.959	101.87
868.127	102.02
868.294	108.88
868.462	114.58
868.63	121.89
868.797	78.99
868.965	75.67
869.133	85.45
869.3	81.49
869.468	75.31
869.636	51.9
869.803	37.6
869.971	20.97
870.138	26.99
870.306	26.94
870.473	25.18
870.641	28.93
870.808	21.73
870.975	15.28
871.143	8.45
871.31	19.15
871.478	37.06
871.645	46.37
871.812	45.85
871.98	52.26
872.147	56.41
872.314	55.37
872.482	70.09
872.649	84.59
872.816	71.81
872.983	81.59
873.15	73.3
873.318	64.06
873.485	62.47
873.652	65.79
873.819	65.82
873.986	73.26
874.153	64.28
874.32	77.27
874.487	87.73
874.654	106.76
874.821	93.62
874.988	66.65
875.155	62.76
875.322	70.37
875.489	80.28
875.656	58.77
875.823	55.39
875.99	57.32
876.157	20.88
876.324	16.77
876.49	27.41
876.657	33.42
876.824	42.06
876.991	75.31
877.157	64.84
877.324	67.92
877.491	76.19
877.658	60.84
877.824	68.35
877.991	64
878.157	81.04
878.324	60.64
878.491	42.33
878.657	49.41
878.824	40.78
878.99	36.9
879.157	22.56
879.323	27.14
879.49	36.72
879.656	32.67
879.823	41.29
879.989	29.21
880.156	27.64
880.322	37.65
880.488	37.42
880.655	43.61
880.821	51.46
880.987	49.71
881.154	48.84
881.32	48.24
881.486	53.77
881.652	53.14
881.819	55.03
881.985	61.12
882.151	56.09
882.317	55.04
882.483	53.85
882.649	50.38
882.816	51.68
882.982	51.12
883.148	51.17
883.314	49.43
883.48	46.7
883.646	42.88
883.812	40.98
883.978	42.01
884.144	41.72
884.31	41.16
884.476	43.35
884.642	39.96
884.807	43.79
884.973	42.56
885.139	43.59
885.305	46.25
885.471	49.19
885.637	47.54
885.802	45.21
885.968	43.62
886.134	38.53
886.3	36.44
886.465	42.38
886.631	36.67
886.797	44.24
886.962	40.98
887.128	35.3
887.293	34.8
887.459	37.22
887.625	49.38
887.79	55.05
887.956	59.81
888.121	61.78
888.287	60.03
888.452	56.34
888.618	44.21
888.783	44.89
