Data from 2937809_Reflection_2.txt Node
Date: Wed Jul 15 17:51:00 EDT 2015
User: robert
Spectrometer: USB4E03001
Autoset integration time: false
Trigger mode: 4
Integration Time (sec): 1.000000E-1
Scans to average: 10
Electric dark correction enabled: true
Nonlinearity correction enabled: false
Boxcar width: 5
Stray light correction enabled: false
XAxis mode: Wavelengths
Stop averaging: false
Number of Pixels in Spectrum: 3648
>>>>>Begin Spectral Data<<<<<
177.566	-16.13
177.785	-75.2
178.005	-100.79
178.225	-754.33
178.445	453.08
178.665	415.93
178.885	173.36
179.105	-51.2
179.324	-37.89
179.544	28.5
179.764	-9.35
179.984	-24.31
180.204	-50.81
180.423	-49.93
180.643	-83.71
180.863	-56.2
181.083	-22.37
181.302	-10.03
181.522	18.23
181.742	57.25
181.961	-9915
182.181	-188.97
182.401	-110.77
182.621	-234.91
182.84	-15.3
183.06	28.97
183.279	22.2
183.499	20.35
183.719	19.58
183.938	26.88
184.158	35.36
184.377	119.81
184.597	211.8
184.816	159.56
185.036	220.18
185.256	61.69
185.475	93.18
185.695	90.91
185.914	126.17
186.134	114
186.353	159.76
186.572	137.35
186.792	132.88
187.011	147.33
187.231	145.55
187.45	112.5
187.67	251.1
187.889	492.08
188.108	257.77
188.328	156.79
188.547	152.57
188.766	68.09
188.986	62.8
189.205	69.08
189.424	42.27
189.644	52.83
189.863	76.93
190.082	66.07
190.302	55.19
190.521	69.31
190.74	60.12
190.959	3.8
191.178	166.81
191.398	564.3
191.617	100.04
191.836	90.37
192.055	53.17
192.274	24.12
192.494	-33.74
192.713	-50.08
192.932	-56.16
193.151	14.72
193.37	20.96
193.589	-25.42
193.808	-72.13
194.027	-105.59
194.246	-47.6
194.465	-35.75
194.685	39.98
194.904	126.73
195.123	148.87
195.342	253.17
195.561	64.8
195.78	93.86
195.999	151.75
196.218	-235.39
196.436	-93.39
196.655	-48.9
196.874	-41.46
197.093	-48.37
197.312	-48.83
197.531	-45.83
197.75	42.44
197.969	67.17
198.188	84.7
198.407	84.5
198.625	56.24
198.844	80.94
199.063	64.99
199.282	56.87
199.501	41.83
199.719	42.4
199.938	38.13
200.157	32.63
200.376	47.39
200.594	48.17
200.813	31.41
201.032	47.61
201.251	150.21
201.469	-42.6
201.688	-63.72
201.907	-91.78
202.125	-142.45
202.344	-685.35
202.563	-326.37
202.781	-319.06
203	-462.76
203.218	-567.47
203.437	3656.62
203.656	177.16
203.874	170.9
204.093	180.98
204.311	134.6
204.53	77.93
204.748	51.5
204.967	66.04
205.185	69.27
205.404	97.3
205.622	86.16
205.841	84.21
206.059	90.83
206.278	-56.92
206.496	-992.54
206.715	37.97
206.933	258.81
207.151	2840.27
207.37	-182.38
207.588	108.81
207.806	-43.57
208.025	28.17
208.243	-11.66
208.461	117.74
208.68	139.55
208.898	195.31
209.116	345.79
209.335	405.96
209.553	492.52
209.771	539.32
209.989	-705.25
210.208	132.1
210.426	42.4
210.644	2641.82
210.862	739.73
211.081	103.6
211.299	-17
211.517	397.49
211.735	7496.87
211.953	188.61
212.171	279.85
212.39	745.47
212.608	765.96
212.826	661.39
213.044	-145.18
213.262	-284.4
213.48	-3262.16
213.698	-1636.98
213.916	410.62
214.134	301.05
214.352	545.39
214.57	-6427.55
214.788	-2500.47
215.006	4483.51
215.224	1644.74
215.442	242.14
215.66	228.23
215.878	248.19
216.096	-38.88
216.314	-29.42
216.532	36.96
216.75	33.11
216.968	-5.93
217.185	-7.91
217.403	67.66
217.621	90.67
217.839	99.71
218.057	108.29
218.275	79.53
218.492	410.85
218.71	-619.66
218.928	-242.7
219.146	-257.46
219.363	-409.11
219.581	-276.7
219.799	-564.88
220.017	-1769.18
220.234	1476.14
220.452	923.27
220.67	-983.02
220.887	99.14
221.105	69.54
221.323	24.55
221.54	5.74
221.758	27.41
221.976	-266.21
222.193	127.68
222.411	88.36
222.629	32.58
222.846	38.27
223.064	37.87
223.281	24.07
223.499	-3.44
223.716	-2.73
223.934	9.05
224.151	21.75
224.369	35.03
224.586	52.9
224.804	42.26
225.021	79.26
225.239	54.75
225.456	68.09
225.674	73.88
225.891	102.45
226.108	146.32
226.326	147.19
226.543	3156.07
226.76	-133.25
226.978	7.37
227.195	-0.33
227.413	19.21
227.63	25.08
227.847	22.52
228.064	20.72
228.282	22.62
228.499	24.15
228.716	19.2
228.934	27.07
229.151	21.65
229.368	14.93
229.585	10.66
229.802	8.8
230.02	12.96
230.237	20.18
230.454	20.22
230.671	26.07
230.888	13.93
231.105	19.69
231.323	10.73
231.54	22.65
231.757	22.56
231.974	26.06
232.191	25.62
232.408	15.01
232.625	3.55
232.842	17.19
233.059	-12.5
233.276	7.61
233.493	0.66
233.71	12.39
233.927	4.84
234.144	13.07
234.361	0.05
234.578	1.06
234.795	-0.54
235.012	7.65
235.229	-11.71
235.446	3.59
235.663	2.49
235.879	5.11
236.096	5.44
236.313	-3.78
236.53	-14.05
236.747	-4.89
236.964	-12.97
237.181	-23.07
237.397	-36.77
237.614	-30.61
237.831	-24.9
238.048	-38.34
238.264	-43.82
238.481	-43.01
238.698	-14.65
238.915	-5.05
239.131	-9.46
239.348	4.51
239.565	8.53
239.781	16.38
239.998	13.52
240.215	14.57
240.431	23.58
240.648	22.94
240.865	27.06
241.081	21.05
241.298	20.18
241.514	22.44
241.731	18.41
241.947	18.88
242.164	17.26
242.38	19.14
242.597	19.58
242.814	19.6
243.03	19.33
243.246	18.57
243.463	20.12
243.679	19.84
243.896	20.66
244.112	20.55
244.329	19.45
244.545	18.08
244.762	21.38
244.978	19.36
245.194	21.29
245.411	19.35
245.627	17.55
245.843	19.03
246.06	18.58
246.276	19.67
246.492	19.62
246.709	20.41
246.925	20.17
247.141	18.67
247.357	17.95
247.574	19.48
247.79	20.37
248.006	20.29
248.222	20.07
248.439	21.58
248.655	19.33
248.871	18.76
249.087	19.3
249.303	21.78
249.519	22.48
249.736	24.78
249.952	19.49
250.168	16.69
250.384	18.44
250.6	19.42
250.816	18.63
251.032	20.05
251.248	21.18
251.464	20.48
251.68	17.03
251.896	18.92
252.112	17.9
252.328	16.56
252.544	17.96
252.76	18.45
252.976	16.64
253.192	15.65
253.408	15.39
253.624	14.49
253.84	10.03
254.056	8.88
254.272	2.89
254.487	-1.37
254.703	2.38
254.919	1.39
255.135	-3
255.351	0.65
255.567	-1.25
255.782	5.91
255.998	9.8
256.214	12.61
256.43	14.32
256.646	11.94
256.861	8.76
257.077	6.08
257.293	6.37
257.508	7.14
257.724	4.83
257.94	5.13
258.155	-0.69
258.371	-5.14
258.587	-1.01
258.802	-1.5
259.018	3.32
259.234	7.7
259.449	7.61
259.665	9.19
259.88	12.01
260.096	12.95
260.312	13.43
260.527	15.34
260.743	16.45
260.958	15.53
261.174	16.04
261.389	14.62
261.605	13.69
261.82	14.46
262.036	14.14
262.251	11.24
262.466	9.75
262.682	9.91
262.897	8.27
263.113	9.07
263.328	9.23
263.543	10.69
263.759	9
263.974	9.92
264.189	13.72
264.405	15.05
264.62	15.18
264.835	14.92
265.051	14.96
265.266	14.55
265.481	13.4
265.696	15.89
265.912	14.71
266.127	20.44
266.342	20.42
266.557	18.3
266.773	15
266.988	16.58
267.203	15.24
267.418	12.59
267.633	13.73
267.848	14.73
268.064	12.92
268.279	15.98
268.494	13.39
268.709	13.16
268.924	13.47
269.139	15.87
269.354	12.46
269.569	13.48
269.784	15.03
269.999	13.91
270.214	13.25
270.429	14.29
270.644	9.76
270.859	12.98
271.074	12.77
271.289	10.66
271.504	8.98
271.719	11.86
271.934	12.64
272.149	11.55
272.363	11.63
272.578	11.4
272.793	10.84
273.008	12.2
273.223	9.46
273.438	9.3
273.653	10.57
273.867	12.56
274.082	10.36
274.297	9.39
274.512	9.32
274.726	9.47
274.941	10.18
275.156	9.92
275.371	9.93
275.585	10.45
275.8	12.01
276.015	12.31
276.229	11.92
276.444	12.38
276.659	12.44
276.873	13
277.088	12.94
277.302	13.02
277.517	12.2
277.732	10.43
277.946	7.88
278.161	4.83
278.375	4.43
278.59	0.65
278.804	3.07
279.019	2.3
279.233	-0.03
279.448	-0.65
279.662	0.43
279.877	2.87
280.091	6.03
280.306	8.29
280.52	10.86
280.735	10.89
280.949	12.17
281.163	10.48
281.378	11.63
281.592	12.79
281.806	14.11
282.021	15.14
282.235	13.93
282.449	13.07
282.664	13.36
282.878	15.75
283.092	17.08
283.307	17.65
283.521	19.42
283.735	21.22
283.949	21.48
284.164	20.85
284.378	21.44
284.592	21.99
284.806	21.77
285.02	21.17
285.234	18.42
285.449	18.92
285.663	17.24
285.877	17.28
286.091	14.47
286.305	15.82
286.519	15.09
286.733	12.42
286.947	11.15
287.161	11.89
287.375	13.04
287.589	13.93
287.803	11.55
288.017	13.61
288.231	12.24
288.445	11.68
288.659	10.76
288.873	11.28
289.087	14.63
289.301	18.13
289.515	17.78
289.729	18.25
289.943	17.84
290.157	19.33
290.371	18.88
290.584	18.06
290.798	21.74
291.012	21.57
291.226	22.4
291.44	19.01
291.654	16.18
291.867	17.12
292.081	15.28
292.295	14.21
292.509	15.57
292.722	15.83
292.936	13.67
293.15	10.89
293.364	13.19
293.577	10.59
293.791	11.42
294.005	11.22
294.218	11.26
294.432	13.84
294.645	15.53
294.859	15.18
295.073	13.97
295.286	17.16
295.5	17.66
295.713	16.65
295.927	16.57
296.14	17.53
296.354	18.15
296.568	17.87
296.781	15.92
296.994	15.93
297.208	16
297.421	16.87
297.635	16.28
297.848	14.78
298.062	14.56
298.275	16.11
298.489	16.03
298.702	15.43
298.915	14.97
299.129	17.04
299.342	16.25
299.555	14.97
299.769	14.64
299.982	15.77
300.195	17.35
300.409	15.86
300.622	13.49
300.835	11.28
301.048	9.14
301.262	8.64
301.475	6.6
301.688	5.07
301.901	4.74
302.115	5.38
302.328	4.63
302.541	4.13
302.754	4.06
302.967	9.35
303.18	9.22
303.393	12.27
303.607	13.28
303.82	14.62
304.033	15.64
304.246	16.33
304.459	17.49
304.672	16.6
304.885	18.66
305.098	21.22
305.311	17.72
305.524	20.45
305.737	18.91
305.95	18.54
306.163	17.59
306.376	18.46
306.589	18.88
306.802	18.17
307.015	18.93
307.228	16.42
307.44	13.48
307.653	14.65
307.866	16.05
308.079	15.36
308.292	14.67
308.505	13.66
308.718	13.44
308.93	13.42
309.143	13.13
309.356	15.06
309.569	15.16
309.781	15.72
309.994	15.08
310.207	13.52
310.42	14.81
310.632	14.04
310.845	14.94
311.058	15.81
311.27	16.11
311.483	13.89
311.696	13.24
311.908	11.65
312.121	10.65
312.333	10.08
312.546	10.83
312.759	10.77
312.971	12.08
313.184	11.49
313.396	8.89
313.609	3.68
313.821	6.13
314.034	5.14
314.246	7.68
314.459	9.02
314.671	9.28
314.884	5.91
315.096	4.69
315.309	3.33
315.521	6.35
315.733	5.99
315.946	11.14
316.158	10.26
316.371	6.11
316.583	7.7
316.795	5.84
317.008	5.59
317.22	6.35
317.432	7.7
317.644	6.9
317.857	5.57
318.069	4.32
318.281	7.18
318.494	8.08
318.706	11.79
318.918	7.8
319.13	12.31
319.342	13.9
319.555	16.09
319.767	14.15
319.979	16.55
320.191	14.96
320.403	15.98
320.615	12.93
320.827	12.7
321.039	10.87
321.252	13.62
321.464	11.3
321.676	11.81
321.888	12.11
322.1	13.34
322.312	12.24
322.524	11.35
322.736	12.61
322.948	10.3
323.16	10.02
323.372	11.82
323.584	12.58
323.796	13.23
324.007	12.48
324.219	12.46
324.431	12.73
324.643	12.03
324.855	13.43
325.067	15.4
325.279	16.67
325.491	16.94
325.702	15.38
325.914	15.13
326.126	15.02
326.338	14.77
326.55	13.78
326.761	13.13
326.973	14.36
327.185	12.27
327.396	8.4
327.608	6.98
327.82	6.56
328.032	7.63
328.243	6.13
328.455	3.88
328.666	3.71
328.878	5.27
329.09	3.68
329.301	0.99
329.513	2.75
329.725	5.69
329.936	6.14
330.148	3.72
330.359	2.47
330.571	2.35
330.782	2.61
330.994	2.15
331.205	2.86
331.417	4.29
331.628	6.26
331.84	8.33
332.051	8.45
332.262	8.02
332.474	12.6
332.685	13.34
332.897	12.81
333.108	12.57
333.319	12.79
333.531	11.32
333.742	11.82
333.953	11.48
334.165	10.4
334.376	11.1
334.587	10.69
334.799	9.72
335.01	9.38
335.221	10.94
335.432	13.19
335.644	11.85
335.855	10.95
336.066	11.08
336.277	11.52
336.488	9.86
336.7	8.71
336.911	10.11
337.122	9.69
337.333	10.62
337.544	8.52
337.755	7.71
337.966	8.33
338.177	9.24
338.388	8.24
338.599	7.59
338.811	9.87
339.022	10.97
339.233	11.4
339.444	11.88
339.655	11.61
339.866	12.74
340.076	12.99
340.287	13.74
340.498	13.46
340.709	12.92
340.92	14.67
341.131	12.89
341.342	11.28
341.553	10.42
341.764	9.1
341.975	9.07
342.185	9.37
342.396	10.5
342.607	11.18
342.818	10.95
343.029	13.32
343.239	13.84
343.45	14.33
343.661	15.53
343.872	17.02
344.082	18.16
344.293	16.66
344.504	17.64
344.714	15.02
344.925	14.91
345.136	15.72
345.346	14.6
345.557	12.92
345.768	13.64
345.978	13.39
346.189	11.02
346.399	10.13
346.61	11.54
346.821	11.51
347.031	13.43
347.242	13.69
347.452	12.61
347.663	11.94
347.873	10.75
348.084	7.47
348.294	6.42
348.504	6.85
348.715	8.27
348.925	8.26
349.136	9.06
349.346	8.27
349.557	6.33
349.767	4.97
349.977	4.23
350.188	3.93
350.398	6.19
350.608	7.21
350.819	9.69
351.029	7.89
351.239	8.81
351.449	5.61
351.66	4.18
351.87	4.92
352.08	6.79
352.29	6.83
352.501	7.1
352.711	8.85
352.921	12.58
353.131	9.69
353.341	9.92
353.552	8.68
353.762	9.28
353.972	10.33
354.182	10.22
354.392	9.88
354.602	11.19
354.812	12.24
355.022	10.22
355.232	6.27
355.442	7.75
355.652	6.98
355.862	7.03
356.072	6.64
356.282	7.28
356.492	6.98
356.702	6.78
356.912	7.36
357.122	6.68
357.332	7.98
357.542	9.49
357.752	10.46
357.962	11.71
358.171	11.98
358.381	12.46
358.591	12.32
358.801	12.41
359.011	12.53
359.221	12
359.43	12.22
359.64	11.39
359.85	9.89
360.06	8.8
360.269	8.01
360.479	8.65
360.689	8.86
360.899	8.52
361.108	8.45
361.318	8.37
361.528	8.18
361.737	8.95
361.947	8.92
362.156	8.4
362.366	8.78
362.576	8.89
362.785	9.06
362.995	8.79
363.204	8.8
363.414	9.17
363.623	10.05
363.833	9.51
364.042	9.25
364.252	10.32
364.461	10.68
364.671	9.69
364.88	10.33
365.09	9.19
365.299	9.05
365.509	10.51
365.718	10.25
365.927	9.4
366.137	9.66
366.346	10.13
366.555	8.04
366.765	6.86
366.974	6.68
367.183	3.57
367.393	4.66
367.602	5.28
367.811	4.14
368.021	4.36
368.23	4.08
368.439	4.66
368.648	4.51
368.857	4.76
369.067	6.31
369.276	7.62
369.485	9.79
369.694	8.99
369.903	8.16
370.112	7.76
370.321	7.53
370.531	7.56
370.74	7.76
370.949	8.28
371.158	8.9
371.367	8.74
371.576	7.9
371.785	8.56
371.994	8.48
372.203	9.08
372.412	8.62
372.621	8.45
372.83	9.37
373.039	9.09
373.248	7.98
373.457	7.61
373.666	7.99
373.874	8.2
374.083	7.59
374.292	8.81
374.501	8.29
374.71	8.09
374.919	8.11
375.128	7.26
375.336	7.64
375.545	7.73
375.754	7.57
375.963	6.45
376.171	6.47
376.38	7.04
376.589	6.6
376.798	7.43
377.006	8.07
377.215	8.44
377.424	8.85
377.632	7.84
377.841	6.92
378.05	7.43
378.258	8.28
378.467	8.57
378.675	7.47
378.884	6.97
379.093	6.34
379.301	6.14
379.51	5.98
379.718	6.09
379.927	7.52
380.135	8.42
380.344	7.81
380.552	7.64
380.761	6.63
380.969	7.35
381.177	7.67
381.386	7.91
381.594	8.39
381.803	8.26
382.011	7.25
382.219	6.22
382.428	6.01
382.636	6.53
382.845	6.34
383.053	6.66
383.261	5.93
383.469	5.55
383.678	5.77
383.886	5.84
384.094	6.08
384.302	6.92
384.511	6.97
384.719	7.25
384.927	6.36
385.135	6.46
385.343	5.73
385.552	6.75
385.76	6.6
385.968	6.28
386.176	5.23
386.384	5.22
386.592	4.55
386.8	4.78
387.008	4.81
387.216	5.87
387.424	5.67
387.633	6.46
387.841	6.43
388.049	6.53
388.257	6.64
388.465	6.9
388.672	6.99
388.88	7.27
389.088	7.37
389.296	6.96
389.504	6.44
389.712	6.15
389.92	6.2
390.128	5.97
390.336	5.95
390.544	5.4
390.751	5.64
390.959	5.36
391.167	4.83
391.375	4.32
391.583	5.05
391.79	4.99
391.998	5.02
392.206	4.77
392.414	4.87
392.621	4.82
392.829	4.9
393.037	4.97
393.244	4.57
393.452	4.93
393.66	5.28
393.867	4.76
394.075	5.12
394.283	5.29
394.49	5.39
394.698	5.2
394.905	5
395.113	5.39
395.32	4.86
395.528	5.26
395.735	5.41
395.943	5.14
396.15	5.18
396.358	4.59
396.565	4.68
396.773	4.68
396.98	4.74
397.188	5
397.395	4.62
397.602	5.13
397.81	5.08
398.017	5.09
398.225	5.33
398.432	5.12
398.639	5.43
398.847	5.26
399.054	5.09
399.261	5.11
399.468	5.27
399.676	5.21
399.883	5.41
400.09	5.47
400.297	5.52
400.505	5.49
400.712	5.52
400.919	5.71
401.126	5.9
401.333	6.06
401.54	5.99
401.748	5.54
401.955	5.53
402.162	5.25
402.369	5.45
402.576	5.4
402.783	5.28
402.99	5.16
403.197	4.93
403.404	5.24
403.611	5.06
403.818	5.07
404.025	5.28
404.232	5.37
404.439	5.48
404.646	5.2
404.853	5.14
405.06	5.46
405.267	5.28
405.474	5.13
405.681	4.86
405.887	5.27
406.094	5.32
406.301	5.35
406.508	5.59
406.715	5.4
406.922	5.67
407.128	5.67
407.335	5.36
407.542	5.45
407.749	5.9
407.955	5.93
408.162	5.7
408.369	5.82
408.575	6.15
408.782	6.01
408.989	6.09
409.195	5.85
409.402	5.51
409.609	5.63
409.815	5.99
410.022	5.68
410.228	5.51
410.435	5.6
410.642	5.51
410.848	4.92
411.055	5.15
411.261	5.58
411.468	5.5
411.674	5.81
411.881	5.49
412.087	5.61
412.294	5.53
412.5	5.42
412.706	5.59
412.913	5.27
413.119	5.51
413.326	4.97
413.532	4.97
413.738	4.95
413.945	4.86
414.151	4.97
414.357	4.61
414.564	4.87
414.77	5.06
414.976	4.64
415.182	5.19
415.389	4.93
415.595	5.13
415.801	4.77
416.007	4.76
416.214	4.82
416.42	4.84
416.626	4.85
416.832	4.76
417.038	4.7
417.244	4.75
417.45	4.49
417.657	4.76
417.863	4.98
418.069	5.15
418.275	5.42
418.481	5.46
418.687	5.36
418.893	5.42
419.099	5.45
419.305	5.55
419.511	5.61
419.717	5.52
419.923	5.5
420.129	5.19
420.335	5.19
420.541	5.02
420.746	4.88
420.952	5.01
421.158	4.97
421.364	4.94
421.57	4.79
421.776	4.81
421.982	4.99
422.187	4.97
422.393	5
422.599	4.97
422.805	5.01
423.01	5.14
423.216	5.2
423.422	5.35
423.628	5.28
423.833	5.35
424.039	5.15
424.245	5.06
424.45	4.99
424.656	5.07
424.862	4.86
425.067	4.83
425.273	4.73
425.478	4.67
425.684	4.64
425.889	4.64
426.095	4.65
426.301	4.68
426.506	4.62
426.712	4.58
426.917	4.56
427.123	4.62
427.328	4.61
427.533	4.59
427.739	4.29
427.944	4.01
428.15	3.94
428.355	3.71
428.561	3.73
428.766	3.55
428.971	3.98
429.177	4.2
429.382	4.35
429.587	4.14
429.793	4.14
429.998	4.32
430.203	4.44
430.408	4.62
430.614	5.07
430.819	5.18
431.024	5.39
431.229	5.02
431.434	4.6
431.64	4.55
431.845	4.73
432.05	4.85
432.255	4.72
432.46	4.8
432.665	4.95
432.87	4.79
433.076	4.44
433.281	4.43
433.486	4.58
433.691	4.79
433.896	4.74
434.101	4.83
434.306	4.67
434.511	5
434.716	4.86
434.921	4.68
435.126	4.78
435.331	5.12
435.535	5.1
435.74	4.85
435.945	4.8
436.15	4.76
436.355	4.52
436.56	4.29
436.765	4
436.97	4.13
437.174	4.22
437.379	4.05
437.584	3.87
437.789	3.77
437.993	3.91
438.198	3.71
438.403	3.54
438.608	3.7
438.812	4.13
439.017	4.28
439.222	4.32
439.426	4.16
439.631	4.13
439.836	4.21
440.04	4.27
440.245	4.33
440.45	4.45
440.654	4.7
440.859	4.57
441.063	4.48
441.268	4.53
441.472	4.48
441.677	4.65
441.881	4.69
442.086	4.72
442.29	4.59
442.495	4.62
442.699	4.34
442.904	4.31
443.108	4.43
443.312	4.44
443.517	4.33
443.721	4.44
443.925	4.4
444.13	4.44
444.334	4.52
444.538	4.5
444.743	4.44
444.947	4.8
445.151	4.78
445.356	4.81
445.56	4.83
445.764	4.82
445.968	4.68
446.173	4.64
446.377	4.71
446.581	4.74
446.785	4.82
446.989	4.72
447.193	4.77
447.398	4.73
447.602	4.64
447.806	4.54
448.01	4.49
448.214	4.48
448.418	4.29
448.622	4.01
448.826	3.82
449.03	3.77
449.234	3.79
449.438	3.75
449.642	3.83
449.846	3.75
450.05	3.76
450.254	3.66
450.458	3.46
450.662	3.6
450.866	3.73
451.069	3.87
451.273	3.8
451.477	3.78
451.681	3.82
451.885	3.85
452.089	3.96
452.292	4.1
452.496	4.25
452.7	4.45
452.904	4.59
453.107	4.57
453.311	4.5
453.515	4.66
453.719	4.65
453.922	4.56
454.126	4.34
454.33	4.23
454.533	4.05
454.737	4.01
454.94	4.08
455.144	3.82
455.348	3.74
455.551	3.78
455.755	3.67
455.958	3.71
456.162	3.53
456.365	3.53
456.569	3.42
456.772	3.45
456.976	3.32
457.179	3.27
457.383	3.24
457.586	3.5
457.79	3.4
457.993	3.41
458.196	3.42
458.4	3.49
458.603	3.58
458.807	3.88
459.01	3.87
459.213	3.8
459.417	3.75
459.62	3.88
459.823	3.8
460.026	3.91
460.23	3.91
460.433	3.88
460.636	3.85
460.839	3.89
461.042	3.72
461.246	3.83
461.449	3.88
461.652	3.95
461.855	3.94
462.058	3.81
462.261	3.74
462.464	3.86
462.668	4.04
462.871	4.02
463.074	3.88
463.277	3.81
463.48	3.63
463.683	3.88
463.886	3.77
464.089	3.75
464.292	3.75
464.495	3.87
464.698	3.91
464.901	3.69
465.104	3.99
465.306	3.91
465.509	4.06
465.712	4.15
465.915	4.01
466.118	4.18
466.321	4.05
466.524	4.33
466.726	4.18
466.929	4.01
467.132	4.02
467.335	3.79
467.538	3.82
467.74	4.05
467.943	4.1
468.146	3.99
468.348	3.84
468.551	4.05
468.754	3.98
468.956	3.9
469.159	3.73
469.362	3.93
469.564	4.14
469.767	4.23
469.969	4.01
470.172	3.82
470.375	4.07
470.577	4.02
470.78	3.86
470.982	3.84
471.185	3.94
471.387	4.12
471.59	4.05
471.792	3.9
471.995	3.53
472.197	3.47
472.399	3.63
472.602	3.52
472.804	3.7
473.007	3.61
473.209	3.38
473.411	3.47
473.614	3.41
473.816	3.3
474.018	3.29
474.22	3.69
474.423	3.92
474.625	3.92
474.827	3.94
475.03	3.59
475.232	3.66
475.434	3.76
475.636	3.77
475.838	4.02
476.04	4.14
476.243	4.21
476.445	4.26
476.647	4.06
476.849	3.93
477.051	3.9
477.253	4.23
477.455	4.25
477.657	4.32
477.859	4.33
478.061	4.12
478.263	3.99
478.465	3.86
478.667	3.62
478.869	3.7
479.071	3.72
479.273	3.69
479.475	3.67
479.677	3.73
479.879	3.54
480.081	3.56
480.283	3.66
480.485	3.75
480.686	3.83
480.888	4
481.09	4.03
481.292	4.13
481.494	4.16
481.695	4.1
481.897	4.04
482.099	4.21
482.301	4.16
482.502	4.23
482.704	4.27
482.906	4.25
483.107	4.29
483.309	4.2
483.511	4.2
483.712	4.2
483.914	4.21
484.115	4.25
484.317	4.25
484.519	4.24
484.72	4.19
484.922	4.11
485.123	4.15
485.325	4.14
485.526	4.15
485.728	4.11
485.929	4.04
486.131	4.04
486.332	4.01
486.534	4.01
486.735	4.01
486.936	4
487.138	4.05
487.339	4.05
487.541	4
487.742	4.04
487.943	4.04
488.144	4.1
488.346	4.14
488.547	4.11
488.748	4.1
488.95	4.12
489.151	4.08
489.352	4.02
489.553	3.99
489.755	4.06
489.956	4
490.157	3.97
490.358	3.94
490.559	3.82
490.76	3.9
490.961	3.98
491.163	4
491.364	4.02
491.565	4.12
491.766	4.07
491.967	4.03
492.168	4.03
492.369	4.14
492.57	4.19
492.771	4.2
492.972	4.1
493.173	3.98
493.374	3.96
493.575	4.01
493.776	3.89
493.976	3.92
494.177	4.02
494.378	4.1
494.579	3.99
494.78	3.95
494.981	3.93
495.182	4.07
495.382	4.18
495.583	4.19
495.784	4.15
495.985	3.99
496.185	4.1
496.386	3.96
496.587	3.85
496.788	3.73
496.988	3.75
497.189	3.78
497.39	3.82
497.59	3.68
497.791	3.69
497.992	3.85
498.192	3.96
498.393	3.81
498.593	3.72
498.794	3.83
498.994	3.92
499.195	3.96
499.395	3.94
499.596	3.72
499.796	3.59
499.997	3.61
500.197	3.4
500.398	3.48
500.598	3.53
500.799	3.56
500.999	3.46
501.199	3.58
501.4	3.54
501.6	3.49
501.801	3.68
502.001	3.84
502.201	3.78
502.402	3.73
502.602	3.71
502.802	3.89
503.002	4.06
503.203	4.27
503.403	4.14
503.603	4.11
503.803	4.46
504.003	4.53
504.204	4.52
504.404	4.46
504.604	4.57
504.804	4.63
505.004	4.4
505.204	4.44
505.404	4.4
505.604	4.44
505.804	4.48
506.005	4.35
506.205	4.33
506.405	4.69
506.605	4.64
506.805	4.62
507.005	4.61
507.204	4.89
507.404	4.91
507.604	4.99
507.804	5
508.004	4.94
508.204	4.86
508.404	4.9
508.604	4.76
508.804	4.84
509.003	4.88
509.203	4.88
509.403	4.72
509.603	4.68
509.803	4.44
510.002	4.43
510.202	4.53
510.402	4.57
510.602	4.48
510.801	4.27
511.001	4.19
511.201	4.17
511.4	4.35
511.6	4.35
511.8	4.43
511.999	4.56
512.199	4.61
512.398	4.76
512.598	4.89
512.797	4.92
512.997	4.97
513.197	5.06
513.396	5.03
513.596	4.87
513.795	4.84
513.994	4.65
514.194	4.57
514.393	4.55
514.593	4.35
514.792	4.29
514.992	4.16
515.191	4.35
515.39	4.33
515.59	4.47
515.789	4.47
515.988	4.62
516.188	4.85
516.387	4.92
516.586	5.01
516.786	4.98
516.985	5.09
517.184	5.04
517.383	4.94
517.582	4.95
517.782	4.98
517.981	5.09
518.18	5.08
518.379	4.92
518.578	5.05
518.777	5.1
518.976	5.27
519.176	5.21
519.375	5.38
519.574	5.37
519.773	5.45
519.972	5.45
520.171	5.45
520.37	5.43
520.569	5.39
520.768	5.34
520.967	5.35
521.166	5.2
521.365	5.15
521.564	5.13
521.762	5.36
521.961	5.53
522.16	5.47
522.359	5.38
522.558	5.3
522.757	5.58
522.956	5.59
523.154	5.45
523.353	5.48
523.552	5.44
523.751	5.43
523.949	5.36
524.148	5.22
524.347	5.24
524.546	5.36
524.744	5.49
524.943	5.36
525.142	5.33
525.34	5.48
525.539	5.49
525.737	5.56
525.936	5.59
526.135	5.55
526.333	5.56
526.532	5.67
526.73	5.66
526.929	5.76
527.127	5.88
527.326	6
527.524	6.12
527.723	6.21
527.921	6.27
528.12	6.26
528.318	6.33
528.516	6.34
528.715	6.4
528.913	6.46
529.112	6.44
529.31	6.52
529.508	6.51
529.707	6.41
529.905	6.4
530.103	6.37
530.301	6.41
530.5	6.4
530.698	6.51
530.896	6.54
531.094	6.57
531.293	6.59
531.491	6.53
531.689	6.49
531.887	6.52
532.085	6.56
532.283	6.57
532.481	6.52
532.68	6.59
532.878	6.65
533.076	6.61
533.274	6.57
533.472	6.61
533.67	6.6
533.868	6.64
534.066	6.68
534.264	6.71
534.462	6.77
534.66	6.9
534.858	6.88
535.056	6.83
535.253	6.79
535.451	6.93
535.649	6.92
535.847	7.05
536.045	7.23
536.243	7.35
536.441	7.3
536.638	7.41
536.836	7.47
537.034	7.46
537.232	7.49
537.43	7.62
537.627	7.47
537.825	7.54
538.023	7.52
538.22	7.52
538.418	7.46
538.616	7.61
538.813	7.71
539.011	7.64
539.209	7.74
539.406	7.62
539.604	7.68
539.801	7.79
539.999	7.85
540.196	7.83
540.394	7.78
540.591	8
540.789	8.15
540.986	8.14
541.184	8.18
541.381	8.21
541.579	8.35
541.776	8.39
541.974	8.48
542.171	8.55
542.368	8.62
542.566	8.7
542.763	8.6
542.96	8.53
543.158	8.67
543.355	8.75
543.552	8.79
543.75	8.85
543.947	8.89
544.144	9
544.341	9.03
544.539	9.16
544.736	9.17
544.933	9.28
545.13	9.29
545.327	9.28
545.524	9.4
545.722	9.53
545.919	9.7
546.116	9.86
546.313	10.01
546.51	10.18
546.707	10.14
546.904	10.23
547.101	10.31
547.298	10.35
547.495	10.34
547.692	10.3
547.889	10.33
548.086	10.26
548.283	10.14
548.48	9.97
548.677	9.71
548.874	9.91
549.07	9.99
549.267	9.97
549.464	10.07
549.661	10.15
549.858	10.29
550.055	10.37
550.251	10.55
550.448	10.6
550.645	10.68
550.842	11.03
551.038	10.81
551.235	10.95
551.432	11.04
551.628	11.2
551.825	11.26
552.022	11.3
552.218	11.32
552.415	11.26
552.612	11.32
552.808	11.4
553.005	11.43
553.201	11.54
553.398	11.58
553.594	11.85
553.791	11.83
553.987	11.99
554.184	12
554.38	12.25
554.577	12.4
554.773	12.58
554.97	12.5
555.166	12.46
555.362	12.55
555.559	12.5
555.755	12.26
555.952	12.35
556.148	12.37
556.344	12.34
556.541	12.26
556.737	12.18
556.933	12.25
557.129	12.49
557.326	12.62
557.522	12.62
557.718	12.72
557.914	12.9
558.11	12.99
558.307	12.81
558.503	13.22
558.699	13.37
558.895	13.57
559.091	13.44
559.287	13.37
559.483	13.51
559.679	13.62
559.876	13.49
560.072	13.48
560.268	13.53
560.464	13.72
560.66	13.41
560.856	13.3
561.052	13.21
561.247	13.18
561.443	13.43
561.639	13.57
561.835	13.96
562.031	14.5
562.227	14.61
562.423	14.86
562.619	14.74
562.815	15.13
563.01	15.37
563.206	15.64
563.402	15.95
563.598	15.97
563.793	15.98
563.989	15.91
564.185	15.67
564.381	15.78
564.576	15.74
564.772	15.93
564.968	15.98
565.163	16.08
565.359	16.1
565.555	16.19
565.75	16.16
565.946	16.19
566.141	16.33
566.337	16.44
566.532	16.66
566.728	16.75
566.923	16.81
567.119	16.63
567.314	16.58
567.51	16.58
567.705	16.61
567.901	16.67
568.096	16.68
568.292	16.53
568.487	16.58
568.682	16.46
568.878	16.58
569.073	16.69
569.268	16.85
569.464	16.84
569.659	16.9
569.854	17.1
570.05	17.25
570.245	17.45
570.44	17.82
570.635	17.95
570.831	18.05
571.026	17.88
571.221	17.97
571.416	18.04
571.611	18.26
571.806	18.41
572.002	18.28
572.197	18.34
572.392	18.59
572.587	18.5
572.782	18.64
572.977	18.62
573.172	18.73
573.367	18.9
573.562	19.09
573.757	19.05
573.952	18.97
574.147	19.15
574.342	19.09
574.537	19.08
574.732	18.94
574.927	18.83
575.121	19.03
575.316	19.23
575.511	19
575.706	19.08
575.901	19.16
576.096	19.17
576.29	19.16
576.485	19.18
576.68	18.85
576.875	19.13
577.069	19.25
577.264	19.5
577.459	19.43
577.654	19.73
577.848	19.74
578.043	19.91
578.238	20.26
578.432	20.51
578.627	20.85
578.821	21.06
579.016	21.01
579.21	21.1
579.405	20.7
579.6	20.63
579.794	20.59
579.989	20.38
580.183	20.06
580.378	19.85
580.572	19.62
580.766	19.44
580.961	19.64
581.155	19.55
581.35	19.7
581.544	19.89
581.738	20.01
581.933	20.08
582.127	20.38
582.321	20.86
582.516	20.65
582.71	20.75
582.904	20.8
583.099	20.63
583.293	21.04
583.487	21.08
583.681	21.29
583.875	21.69
584.07	21.74
584.264	21.85
584.458	21.77
584.652	21.94
584.846	22.25
585.04	22.35
585.234	22.42
585.428	22.19
585.623	22.1
585.817	21.96
586.011	22.01
586.205	22.2
586.399	21.96
586.593	22.18
586.787	22.49
586.981	22.25
587.174	22.53
587.368	22.59
587.562	22.65
587.756	22.62
587.95	22.45
588.144	22.06
588.338	22.02
588.532	21.9
588.725	21.63
588.919	21.56
589.113	21.48
589.307	21.42
589.501	21.51
589.694	21.66
589.888	21.46
590.082	21.47
590.275	21.56
590.469	21.55
590.663	21.9
590.856	22.28
591.05	22.02
591.244	22.37
591.437	22.09
591.631	21.68
591.824	21.43
592.018	21.53
592.212	21.8
592.405	21.73
592.599	21.53
592.792	21.72
592.986	21.7
593.179	21.97
593.372	21.62
593.566	21.71
593.759	21.78
593.953	21.95
594.146	22.2
594.339	22.21
594.533	22.32
594.726	22.52
594.92	22.48
595.113	22.43
595.306	22.69
595.499	22.93
595.693	22.99
595.886	23.41
596.079	23.51
596.272	23.35
596.466	23.36
596.659	23.54
596.852	23.65
597.045	23.45
597.238	23.33
597.431	23.16
597.624	23.22
597.818	23.32
598.011	23.15
598.204	23.17
598.397	23.07
598.59	23.08
598.783	23.12
598.976	22.99
599.169	23.17
599.362	22.96
599.555	22.95
599.748	23.03
599.941	22.97
600.134	23.41
600.326	23.32
600.519	23.52
600.712	23.77
600.905	23.61
601.098	23.78
601.291	23.76
601.483	24.16
601.676	24.56
601.869	24.23
602.062	24.22
602.255	24.04
602.447	24.16
602.64	24.24
602.833	24.13
603.025	24.32
603.218	24.35
603.411	24.32
603.603	24.39
603.796	24.13
603.989	24.27
604.181	24.33
604.374	24.38
604.566	24.35
604.759	24.37
604.951	24.35
605.144	24.36
605.336	24.45
605.529	24.59
605.721	24.48
605.914	24.61
606.106	24.85
606.299	24.9
606.491	24.96
606.683	25.08
606.876	25.23
607.068	25.3
607.26	25.42
607.453	25.19
607.645	25.16
607.837	25.15
608.03	25.31
608.222	25.15
608.414	25.12
608.606	24.9
608.799	24.81
608.991	24.87
609.183	25
609.375	24.85
609.567	24.98
609.759	25.2
609.952	25.5
610.144	25.36
610.336	25.37
610.528	25.25
610.72	25.54
610.912	25.33
611.104	25.04
611.296	24.92
611.488	24.67
611.68	24.59
611.872	24.04
612.064	23.74
612.256	23.71
612.448	23.63
612.64	24.08
612.832	23.78
613.023	23.82
613.215	24.06
613.407	24.45
613.599	24.64
613.791	24.58
613.983	24.85
614.174	25.16
614.366	25.08
614.558	25.47
614.75	25.23
614.941	25.31
615.133	25.54
615.325	25.66
615.516	25.04
615.708	25.36
615.9	25.39
616.091	25.5
616.283	25.59
616.475	25.69
616.666	25.31
616.858	25.2
617.049	25.14
617.241	25.33
617.432	25.2
617.624	25.22
617.815	25.18
618.007	25.26
618.198	24.9
618.39	24.52
618.581	24.77
618.773	24.95
618.964	24.83
619.155	24.82
619.347	24.73
619.538	25.03
619.729	25.09
619.921	24.9
620.112	25.04
620.303	25.5
620.494	25.41
620.686	25.22
620.877	25
621.068	25.48
621.259	25.66
621.451	25.7
621.642	25.31
621.833	25.41
622.024	25.6
622.215	25.48
622.406	25.39
622.597	25.4
622.788	25.41
622.98	25.79
623.171	25.6
623.362	25.43
623.553	25.54
623.744	25.87
623.935	25.89
624.126	25.56
624.317	25.51
624.508	25.55
624.698	25.97
624.889	26.17
625.08	25.86
625.271	25.98
625.462	26.19
625.653	26.13
625.844	25.83
626.034	25.96
626.225	26.38
626.416	26.41
626.607	26.57
626.798	26.51
626.988	26.74
627.179	26.78
627.37	26.87
627.56	26.82
627.751	26.91
627.942	26.95
628.132	27.18
628.323	26.93
628.514	27.13
628.704	27.14
628.895	27.17
629.085	26.66
629.276	26.77
629.466	27.04
629.657	27.3
629.847	27.26
630.038	27.37
630.228	27.09
630.419	26.99
630.609	26.92
630.8	26.96
630.99	26.63
631.181	26.61
631.371	26.66
631.561	26.34
631.752	25.76
631.942	25.99
632.132	26.16
632.323	26.43
632.513	26.67
632.703	26.77
632.893	26.71
633.084	26.96
633.274	27.25
633.464	27.4
633.654	27.05
633.844	27.01
634.034	26.74
634.225	26.75
634.415	26.35
634.605	26.28
634.795	26.19
634.985	26.2
635.175	26.15
635.365	25.84
635.555	25.58
635.745	25.62
635.935	26.25
636.125	26.26
636.315	26.33
636.505	26.49
636.695	26.76
636.885	26.83
637.075	26.42
637.265	26.5
637.455	26.94
637.644	27.2
637.834	27.28
638.024	26.97
638.214	26.74
638.404	26.54
638.593	26.49
638.783	26.18
638.973	26.14
639.163	26.51
639.352	26.54
639.542	26.25
639.732	25.86
639.921	26.11
640.111	26.11
640.301	26.72
640.49	26.73
640.68	26.86
640.87	27.14
641.059	27
641.249	26.79
641.438	27.07
641.628	27.01
641.817	27.17
642.007	27.07
642.196	27.29
642.386	26.68
642.575	26.87
642.764	26.96
642.954	27.18
643.143	27.22
643.333	27.24
643.522	26.55
643.711	26.77
643.901	27.05
644.09	26.89
644.279	26.56
644.469	27.08
644.658	26.67
644.847	26.58
645.036	26.23
645.226	26.3
645.415	26.17
645.604	26.36
645.793	26.11
645.982	25.74
646.171	25.75
646.361	26.06
646.55	26.12
646.739	26.56
646.928	26.34
647.117	26.3
647.306	26.05
647.495	26.54
647.684	26.86
647.873	26.87
648.062	26.87
648.251	27.14
648.44	27.27
648.629	27.14
648.818	27.38
649.007	27.25
649.196	27.48
649.384	27.55
649.573	27.84
649.762	27.61
649.951	28.05
650.14	28.12
650.328	28.11
650.517	28.23
650.706	28.44
650.895	28.26
651.083	28.57
651.272	28.37
651.461	28.85
651.65	28.7
651.838	28.63
652.027	28.2
652.216	28.3
652.404	28.35
652.593	28.08
652.781	27.88
652.97	28.14
653.158	28.27
653.347	28.93
653.535	29.13
653.724	29.15
653.912	29.6
654.101	30.01
654.289	29.84
654.478	30.02
654.666	29.98
654.855	29.83
655.043	29.75
655.231	29.51
655.42	29.3
655.608	28.96
655.796	28.7
655.985	28.89
656.173	28.85
656.361	29
656.55	28.29
656.738	28.17
656.926	28.66
657.114	28.29
657.302	29.04
657.491	28.92
657.679	28.77
657.867	28.59
658.055	28.56
658.243	28.68
658.431	28.95
658.619	29.19
658.807	30
658.996	29.73
659.184	29.79
659.372	29.58
659.56	29.28
659.748	29.26
659.936	29.45
660.124	29.32
660.311	29.26
660.499	29
660.687	29.11
660.875	28.4
661.063	28.68
661.251	28.67
661.439	28.27
661.627	28.17
661.814	28.32
662.002	28.69
662.19	28.46
662.378	29.18
662.565	29.53
662.753	29.62
662.941	29.39
663.129	29.02
663.316	28.83
663.504	28.87
663.692	29.51
663.879	29.86
664.067	29.51
664.254	29.81
664.442	29.24
664.63	28.77
664.817	28.64
665.005	29
665.192	29.21
665.38	29.41
665.567	29
665.755	28.78
665.942	28.64
666.13	28.91
666.317	28.77
666.504	28.21
666.692	28.26
666.879	28.42
667.067	28.47
667.254	27.6
667.441	27.84
667.629	28.24
667.816	28.17
668.003	27.8
668.19	27.14
668.378	27.41
668.565	27.93
668.752	28.38
668.939	28.58
669.127	28.48
669.314	29.2
669.501	28.85
669.688	28.82
669.875	28.72
670.062	28.75
670.249	29
670.436	29.06
670.623	28.86
670.81	28.42
670.997	27.98
671.184	27.94
671.371	28.29
671.558	28.35
671.745	28.89
671.932	28.91
672.119	28.88
672.306	28.63
672.493	28.7
672.68	28.06
672.867	28.09
673.054	28.12
673.24	28.84
673.427	28.49
673.614	28.88
673.801	28.75
673.988	28.74
674.174	28.58
674.361	28.82
674.548	28.57
674.734	29.23
674.921	28.9
675.108	29.21
675.294	28.74
675.481	28.83
675.668	28.91
675.854	28.68
676.041	28.96
676.227	29.15
676.414	29.5
676.601	29.62
676.787	29.81
676.974	30.55
677.16	30.71
677.347	30.79
677.533	30.32
677.719	29.46
677.906	29.5
678.092	29.04
678.279	29.09
678.465	29.02
678.651	29.22
678.838	29.06
679.024	29.13
679.21	28.91
679.397	29.06
679.583	29.79
679.769	30.35
679.955	30.22
680.142	30.47
680.328	30.29
680.514	30.43
680.7	30.24
680.886	30.14
681.073	29.97
681.259	30.17
681.445	29.96
681.631	29.21
681.817	29.16
682.003	29.35
682.189	29.8
682.375	30.69
682.561	30.91
682.747	30.85
682.933	30.76
683.119	30.55
683.305	29.97
683.491	30.04
683.677	30.81
683.863	30.99
684.049	31.14
684.235	30.17
684.42	29.63
684.606	29.03
684.792	29
684.978	29.84
685.164	29.88
685.349	30.54
685.535	30.53
685.721	30.02
685.907	30.29
686.092	30.2
686.278	30.91
686.464	30.72
686.649	30.98
686.835	30.64
687.021	30.56
687.206	30.86
687.392	30.88
687.577	31.08
687.763	30.73
687.948	30.13
688.134	30.42
688.319	30.81
688.505	31.2
688.69	31.38
688.876	31.3
689.061	30.86
689.247	30.66
689.432	30.92
689.618	30.91
689.803	31.64
689.988	31.32
690.174	31.06
690.359	30.69
690.544	30.53
690.73	30.32
690.915	30.67
691.1	30.89
691.285	31.54
691.471	30.44
691.656	30.6
691.841	30.42
692.026	30.83
692.211	30.92
692.396	30.74
692.582	30.48
692.767	30.52
692.952	30.47
693.137	30.79
693.322	30.16
693.507	31.17
693.692	30.83
693.877	30.92
694.062	30.9
694.247	30.53
694.432	30.59
694.617	31.08
694.802	31.23
694.987	31.23
695.172	30.88
695.357	31.97
695.541	31.4
695.726	31.72
695.911	31.17
696.096	31.67
696.281	31.69
696.466	31.71
696.65	31.13
696.835	31.12
697.02	31.61
697.204	30.93
697.389	30.23
697.574	30.28
697.759	30.28
697.943	30.82
698.128	30.45
698.312	30.64
698.497	30.37
698.682	30.64
698.866	30.84
699.051	30.56
699.235	31.27
699.42	31.46
699.604	31.65
699.789	31.76
699.973	31.68
700.158	31.63
700.342	31.98
700.527	32.24
700.711	31.85
700.895	31.58
701.08	31.28
701.264	30.61
701.448	30.54
701.633	30.75
701.817	30.91
702.001	30.83
702.186	31.44
702.37	30.71
702.554	30.49
702.738	30.74
702.923	30.36
703.107	31.06
703.291	31.75
703.475	31.75
703.659	31.89
703.843	30.8
704.027	31.05
704.212	30.56
704.396	30.98
704.58	31.06
704.764	31.26
704.948	31.9
705.132	31.51
705.316	31.09
705.5	31.23
705.684	30.72
705.868	30.62
706.052	29.48
706.235	29.41
706.419	29.86
706.603	30.38
706.787	29.91
706.971	29.3
707.155	29.16
707.339	29.64
707.522	28.73
707.706	29.32
707.89	29.93
708.074	30.16
708.257	30.05
708.441	30.28
708.625	30.22
708.808	30.87
708.992	30.59
709.176	30.85
709.359	30.27
709.543	30.52
709.727	30.09
709.91	29.62
710.094	31.1
710.277	31
710.461	30.96
710.644	31.23
710.828	31.34
711.011	31.76
711.195	31.75
711.378	31.65
711.562	31.71
711.745	31.77
711.928	32.12
712.112	30.7
712.295	31.33
712.478	31.32
712.662	31.01
712.845	30.7
713.028	31.07
713.212	30.49
713.395	31.28
713.578	31.61
713.761	30.86
713.945	30.37
714.128	31.44
714.311	30.49
714.494	30.18
714.677	29.62
714.86	29.83
715.043	29.4
715.227	30.32
715.41	30.33
715.593	30.47
715.776	31.89
715.959	32.87
716.142	32.68
716.325	32.88
716.508	32.34
716.691	33.05
716.874	33.07
717.057	33.36
717.239	32.23
717.422	31.91
717.605	31.25
717.788	29.89
717.971	28.62
718.154	28.57
718.337	28.62
718.519	29.08
718.702	28.27
718.885	28.1
719.068	28.66
719.25	29.46
719.433	28.84
719.616	29.04
719.798	28.97
719.981	29.11
720.164	28.07
720.346	28.32
720.529	26.87
720.712	28.25
720.894	30.07
721.077	29.09
721.259	28.77
721.442	28.89
721.624	28.72
721.807	29.97
721.989	30.23
722.172	30.86
722.354	31.41
722.537	32.59
722.719	32.24
722.901	29.99
723.084	30.32
723.266	30.31
723.448	30.59
723.631	31.38
723.813	30.49
723.995	30.68
724.178	30.9
724.36	30.2
724.542	30.17
724.724	29.75
724.907	29.75
725.089	30.26
725.271	29.9
725.453	30.02
725.635	29.7
725.817	29.7
725.999	30.18
726.181	30.03
726.364	29.73
726.546	30.83
726.728	30.58
726.91	31.57
727.092	30.76
727.274	30.98
727.456	30.58
727.638	30.68
727.819	31.84
728.001	31.09
728.183	30.56
728.365	31.96
728.547	31.43
728.729	32.08
728.911	31.6
729.093	31.83
729.274	31.61
729.456	32.19
729.638	30.76
729.82	29.67
730.001	29.96
730.183	30.27
730.365	29.83
730.546	28.91
730.728	28.75
730.91	29.01
731.091	29.91
731.273	30.06
731.455	28.98
731.636	30.33
731.818	31.35
731.999	31.62
732.181	31.29
732.362	30.43
732.544	30.76
732.725	30.65
732.907	30.02
733.088	28.81
733.27	30.97
733.451	31.8
733.633	31.7
733.814	30.97
733.995	30.78
734.177	31.49
734.358	32.61
734.539	33.08
734.721	32.9
734.902	33.19
735.083	32.91
735.264	31.57
735.446	32.34
735.627	32.18
735.808	32.13
735.989	32.89
736.17	31.96
736.351	31.25
736.533	30.74
736.714	31.14
736.895	30.98
737.076	31.88
737.257	32.01
737.438	31.56
737.619	32
737.8	31.75
737.981	29.91
738.162	31.85
738.343	32.51
738.524	32.61
738.705	31.87
738.886	32.08
739.067	30.68
739.247	30.27
739.428	29.06
739.609	28.83
739.79	29.49
739.971	30.13
740.151	28.98
740.332	27.48
740.513	27.1
740.694	27.6
740.874	29.08
741.055	31.28
741.236	32.38
741.417	33.94
741.597	34.61
741.778	34.37
741.958	34.64
742.139	34.03
742.32	33.83
742.5	35.23
742.681	35.99
742.861	35.53
743.042	35.32
743.222	34.87
743.403	34.3
743.583	34.01
743.764	34.31
743.944	33.92
744.124	36.02
744.305	37.46
744.485	35.18
744.666	34.35
744.846	33.41
745.026	31.29
745.207	31.19
745.387	31.69
745.567	32.01
745.747	30.85
745.928	31.16
746.108	30.98
746.288	31.49
746.468	33.05
746.648	33.93
746.829	33.9
747.009	34.84
747.189	34.69
747.369	34.43
747.549	34.27
747.729	33.8
747.909	34.99
748.089	34.38
748.269	34.13
748.449	33.09
748.629	32.4
748.809	32.56
748.989	32.53
749.169	32.18
749.349	30.49
749.529	31.69
749.709	31.95
749.889	31.4
750.068	32.13
750.248	32.33
750.428	32.82
750.608	32.17
750.788	32.17
750.967	32.34
751.147	31.95
751.327	33.98
751.507	32.91
751.686	33.92
751.866	33.65
752.046	31.58
752.225	31.29
752.405	31.76
752.585	33.54
752.764	33.76
752.944	33.6
753.123	33.92
753.303	32.92
753.482	32.17
753.662	32
753.841	30.43
754.021	30.18
754.2	29.83
754.38	29.56
754.559	27.78
754.739	27.44
754.918	27.95
755.097	27.54
755.277	28.21
755.456	28.74
755.635	28.51
755.815	31.01
755.994	32.42
756.173	33.34
756.352	33.96
756.532	34.29
756.711	34.22
756.89	33.62
757.069	33.8
757.248	32.91
757.427	32.78
757.607	31.51
757.786	30.45
757.965	29.45
758.144	29.36
758.323	29.05
758.502	28.75
758.681	27.48
758.86	27.54
759.039	27.41
759.218	28.19
759.397	26.75
759.576	26.84
759.755	26.11
759.934	27.32
760.113	26.96
760.291	27.5
760.47	27.09
760.649	28.24
760.828	27.74
761.007	27.04
761.186	26.92
761.364	28.76
761.543	29.11
761.722	30.68
761.901	30.49
762.079	31.4
762.258	31.33
762.437	32.75
762.615	33.98
762.794	34.38
762.972	35.54
763.151	35.37
763.33	35.31
763.508	36.25
763.687	36.34
763.865	36.42
764.044	35.32
764.222	34.94
764.401	33.47
764.579	32.79
764.758	32.54
764.936	32.84
765.114	33.07
765.293	33.44
765.471	31.66
765.65	31.69
765.828	31.86
766.006	31.89
766.184	31.87
766.363	33.15
766.541	32.61
766.719	34.66
766.898	34.13
767.076	33.87
767.254	33.1
767.432	34.89
767.61	34.55
767.788	33.28
767.967	33.91
768.145	33.64
768.323	33.59
768.501	33.81
768.679	30.79
768.857	30.25
769.035	28.29
769.213	28.66
769.391	27.07
769.569	26.89
769.747	28.25
769.925	28.85
770.103	27.95
770.281	28.37
770.459	29.57
770.636	32.01
770.814	32.46
770.992	34.71
771.17	34.69
771.348	35.97
771.525	35.99
771.703	33.6
771.881	33.18
772.059	34.89
772.236	33.3
772.414	32.4
772.592	31.35
772.769	31.26
772.947	28.7
773.125	27.36
773.302	27.74
773.48	27.83
773.657	28.51
773.835	26.04
774.013	25.43
774.19	24.21
774.368	23.94
774.545	21.81
774.723	21.57
774.9	24.63
775.077	25.3
775.255	26.14
775.432	26
775.61	25.74
775.787	28.71
775.964	28.32
776.142	30.21
776.319	29.38
776.496	31.54
776.674	30.93
776.851	29.87
777.028	29.55
777.205	28.4
777.382	28.05
777.56	26.25
777.737	25.38
777.914	24.95
778.091	28.12
778.268	28.4
778.445	28.26
778.622	26.86
778.8	28.49
778.977	27.61
779.154	26.69
779.331	25.06
779.508	29.6
779.685	30.37
779.862	30.19
780.038	27.07
780.215	26.45
780.392	26.37
780.569	28.2
780.746	24.65
780.923	25.87
781.1	27.96
781.277	26.21
781.453	22.54
781.63	24.42
781.807	25.66
781.984	26.81
782.16	27.82
782.337	28.49
782.514	30.01
782.691	30.78
782.867	28.75
783.044	27.32
783.221	30.4
783.397	31.35
783.574	29.86
783.75	33.91
783.927	31.05
784.103	32.66
784.28	32.25
784.456	34.66
784.633	33.37
784.809	36.13
784.986	37.72
785.162	37.45
785.339	35.62
785.515	35.78
785.692	30.69
785.868	31.77
786.044	29.61
786.221	28.23
786.397	21.99
786.573	24.74
786.749	25.35
786.926	23.34
787.102	25.1
787.278	28.57
787.454	30.98
787.631	30.04
787.807	29.41
787.983	30.62
788.159	32.12
788.335	34.3
788.511	34.31
788.687	31.85
788.863	34.74
789.039	32.6
789.216	32.41
789.392	29.07
789.568	28.83
789.744	30.79
789.919	29.5
790.095	25.99
790.271	24.72
790.447	25.78
790.623	28.64
790.799	27.02
790.975	29.8
791.151	27.2
791.327	28.22
791.502	29.08
791.678	29.59
791.854	31.22
792.03	36.12
792.205	37.43
792.381	35.34
792.557	34.94
792.733	30.9
792.908	26.97
793.084	28.18
793.259	27.17
793.435	29.33
793.611	27.36
793.786	27.94
793.962	26.56
794.137	26.87
794.313	23.92
794.488	21.81
794.664	24.74
794.839	24.54
795.015	25.91
795.19	25.93
795.366	25.35
795.541	27.38
795.716	22.75
795.892	20.44
796.067	19.21
796.242	24.96
796.418	24.3
796.593	24.32
796.768	28.13
796.944	28.22
797.119	28.59
797.294	26.19
797.469	23.71
797.644	23.37
797.82	27.67
797.995	29.87
798.17	27.12
798.345	26.99
798.52	28.07
798.695	24.74
798.87	26.22
799.045	23.26
799.22	22.77
799.395	24.09
799.57	23.78
799.745	20.41
799.92	18
800.095	16.64
800.27	16.21
800.445	16.39
800.62	20.35
800.795	18.2
800.97	19.29
801.145	20.7
801.319	20.5
801.494	21.78
801.669	23.06
801.844	21.74
802.018	24.21
802.193	26.93
802.368	24.94
802.543	23.48
802.717	20.69
802.892	26.3
803.067	28.5
803.241	31.32
803.416	32.16
803.59	36.63
803.765	36.13
803.94	38.72
804.114	38.98
804.289	37.3
804.463	36.11
804.638	38.68
804.812	34.68
804.986	32.88
805.161	31.74
805.335	35.99
805.51	28.9
805.684	33.26
805.858	32.36
806.033	33.82
806.207	36.71
806.381	34.37
806.556	35.62
806.73	36.66
806.904	38.41
807.078	35.84
807.253	29.98
807.427	32.69
807.601	33.14
807.775	29.99
807.949	27.64
808.123	30.55
808.298	31.04
808.472	27.96
808.646	26.86
808.82	27.4
808.994	23.93
809.168	25.26
809.342	24.03
809.516	26.99
809.69	28.37
809.864	26.32
810.038	22.9
810.212	23.6
810.385	24.1
810.559	21.87
810.733	17.47
810.907	23.36
811.081	24.82
811.255	30.86
811.428	26.7
811.602	20.07
811.776	18.43
811.95	21.17
812.123	23.56
812.297	28.19
812.471	24.23
812.644	28.57
812.818	27.16
812.992	22.09
813.165	15.6
813.339	14.85
813.512	26.63
813.686	33.47
813.86	34.17
814.033	27.87
814.207	23.2
814.38	32.26
814.554	31.61
814.727	33.78
814.9	35.11
815.074	38.36
815.247	36.12
815.421	20.02
815.594	20.04
815.767	9.08
815.941	15.64
816.114	18.98
816.287	16.39
816.46	17.07
816.634	23.96
816.807	32.1
816.98	28.36
817.153	27.75
817.327	32.54
817.5	28.48
817.673	38.74
817.846	36.67
818.019	34.7
818.192	33.04
818.365	33.18
818.538	28.62
818.711	27.48
818.884	24.1
819.057	27.35
819.23	30.3
819.403	31.31
819.576	23.49
819.749	29.8
819.922	33.83
820.095	35.69
820.268	30.59
820.441	31.85
820.614	31.6
820.786	34.45
820.959	30.42
821.132	31.49
821.305	30.69
821.477	33.78
821.65	31.99
821.823	31.53
821.996	30.87
822.168	32.31
822.341	31.65
822.514	31.39
822.686	31.38
822.859	32.94
823.031	32.96
823.204	33.01
823.376	32.72
823.549	32.16
823.722	31.87
823.894	31.26
824.067	31.58
824.239	31.97
824.411	31.93
824.584	32.26
824.756	32.33
824.929	32.5
825.101	32.45
825.273	33.07
825.446	34.55
825.618	34.33
825.79	35.02
825.963	34.5
826.135	35.33
826.307	35.37
826.479	34.8
826.652	32.6
826.824	31.76
826.996	32.58
827.168	32
827.34	29.9
827.512	28.39
827.684	28.81
827.856	27.5
828.029	25.76
828.201	24.34
828.373	25.01
828.545	26.31
828.717	24.07
828.889	23.07
829.061	21.15
829.232	20.55
829.404	21.3
829.576	20.12
829.748	21.43
829.92	24.1
830.092	26.55
830.264	21.59
830.436	20.2
830.607	22.22
830.779	21.37
830.951	20.01
831.123	26.27
831.294	27.95
831.466	32.45
831.638	29.46
831.809	26.01
831.981	17.68
832.153	26.09
832.324	24.16
832.496	29.54
832.667	31.81
832.839	32.72
833.011	26.4
833.182	26.82
833.354	26.59
833.525	29.42
833.697	27.83
833.868	33.4
834.039	31.37
834.211	33.64
834.382	30.99
834.554	29.61
834.725	29.15
834.896	29.07
835.068	30.34
835.239	27.99
835.41	24.19
835.581	24.11
835.753	23.1
835.924	22.72
836.095	21.51
836.266	21.81
836.438	16.97
836.609	17.51
836.78	20.68
836.951	15.09
837.122	13.38
837.293	11.13
837.464	9.88
837.635	11.74
837.806	9.47
837.977	4.07
838.148	4.62
838.319	12.76
838.49	15.99
838.661	14.27
838.832	26.65
839.003	25.43
839.174	37.87
839.345	36.87
839.516	34.4
839.687	31.49
839.857	26.86
840.028	17.7
840.199	22.71
840.37	22.33
840.54	28.24
840.711	21.51
840.882	20.65
841.053	17.56
841.223	21.86
841.394	11.02
841.564	7.23
841.735	4.56
841.906	6.92
842.076	-3.83
842.247	-3.61
842.417	-12.79
842.588	-9.39
842.758	-9.52
842.929	-14.71
843.099	-22.16
843.27	-11.69
843.44	-12.08
843.611	-0.59
843.781	3.6
843.951	18.19
844.122	-1.43
844.292	-1.19
844.462	-16.48
844.633	-3.93
844.803	-2.97
844.973	4.35
845.144	12.11
845.314	22.39
845.484	33.66
845.654	17.52
845.824	19.25
845.995	24.88
846.165	16.32
846.335	30.42
846.505	25.89
846.675	-6.46
846.845	-21.32
847.015	-28.31
847.185	-37.23
847.355	-78.7
847.525	-46.37
847.695	-33.41
847.865	-37.29
848.035	-22.08
848.205	-29.28
848.375	-13.75
848.545	7.65
848.715	11.63
848.884	6.51
849.054	7.59
849.224	50.69
849.394	38.59
849.564	28.19
849.733	22.56
849.903	8.53
850.073	32.76
850.243	38.11
850.412	51.88
850.582	53.38
850.752	65.93
850.921	65.78
851.091	36.4
851.26	36.59
851.43	29.12
851.599	31.22
851.769	48.62
851.939	31.87
852.108	13.96
852.278	8.47
852.447	5.66
852.616	-11.53
852.786	-15.98
852.955	1.17
853.125	8.14
853.294	29.68
853.463	33.9
853.633	23.39
853.802	51.56
853.971	48.11
854.141	52.26
854.31	43.85
854.479	62.82
854.648	66.68
854.818	65.35
854.987	69.71
855.156	46.82
855.325	38.16
855.494	-20.35
855.663	-390.66
855.832	-39.57
856.001	-33.68
856.171	-36.23
856.34	-131.04
856.509	-221.84
856.678	-723.77
856.847	-378.83
857.016	-163.96
857.185	-71.09
857.353	-41.29
857.522	-56.17
857.691	-102.26
857.86	-87.26
858.029	-98.24
858.198	-39.51
858.367	-45.26
858.535	-399.17
858.704	-671.94
858.873	1471.5
859.042	674.91
859.21	409.86
859.379	-530.08
859.548	2500
859.717	-156.89
859.885	-93.87
860.054	-69.89
860.222	-103.18
860.391	-92.56
860.56	-41.32
860.728	-48.09
860.897	-77.97
861.065	-36.48
861.234	-58.33
861.402	-44.88
861.571	-58.11
861.739	-128.19
861.908	-95.11
862.076	-11.75
862.244	10.37
862.413	25.08
862.581	36.88
862.749	25.45
862.918	25.02
863.086	25.24
863.254	16.77
863.423	23.18
863.591	47.29
863.759	114.59
863.927	172.36
864.096	188.05
864.264	209.96
864.432	218.46
864.6	144.35
864.768	183.56
864.936	357.69
865.104	-695.83
865.272	-177.05
865.44	383.44
865.608	1.09
865.776	-184.99
865.944	-135.56
866.112	-127.79
866.28	-216.9
866.448	-247.89
866.616	-557.07
866.784	-122.56
866.952	-23.85
867.12	9.27
867.288	-6.97
867.455	-3.22
867.623	58.12
867.791	46.06
867.959	47.14
868.127	50.56
868.294	90.19
868.462	23.96
868.63	-217
868.797	-571.01
868.965	-453.55
869.133	-2325.15
869.3	-249.62
869.468	-71.71
869.636	-132.02
869.803	-47.06
869.971	-51.61
870.138	-72.69
870.306	0.3
870.473	31.4
870.641	0.42
870.808	-16.27
870.975	12.43
871.143	6.03
871.31	-8.19
871.478	4.77
871.645	7.68
871.812	10.31
871.98	9.16
872.147	9.27
872.314	-2.44
872.482	17.07
872.649	23.84
872.816	17.28
872.983	27.2
873.15	-10.95
873.318	-21.76
873.485	-24.52
873.652	-11.15
873.819	-20.41
873.986	-17.03
874.153	-21.88
874.32	-28.46
874.487	-30.13
874.654	-58.12
874.821	-14.82
874.988	79.56
875.155	53.45
875.322	119.19
875.489	76.71
875.656	23.63
875.823	-98.32
875.99	278.92
876.157	208.54
876.324	-1087.71
876.49	-727.67
876.657	683.41
876.824	1033.55
876.991	-612.92
877.157	-231
877.324	-157.66
877.491	-120.51
877.658	-107.33
877.824	-50.13
877.991	-48.81
878.157	-59.9
878.324	-54.5
878.491	-75.08
878.657	-37.81
878.824	-30.96
878.99	-4.77
879.157	-2.8
879.323	5.58
879.49	-23.67
879.656	-127.87
879.823	-75.58
879.989	-77.15
880.156	-85.97
880.322	-55.84
880.488	-48.6
880.655	-61.55
880.821	-88.53
880.987	-74.77
881.154	-37.08
881.32	4.52
881.486	19.19
881.652	21.91
881.819	21
881.985	26.65
882.151	35.61
882.317	31.32
882.483	32.33
882.649	35.88
882.816	35.88
882.982	34.78
883.148	33.51
883.314	31.95
883.48	34.6
883.646	34.45
883.812	34.62
883.978	33.94
884.144	34.46
884.31	31.7
884.476	31.23
884.642	29.36
884.807	31.55
884.973	28.16
885.139	27.49
885.305	25.08
885.471	26.85
885.637	22.75
885.802	23.56
885.968	24.44
886.134	30.2
886.3	30.33
886.465	32.31
886.631	32.44
886.797	40.71
886.962	40.06
887.128	37.04
887.293	40.86
887.459	45.99
887.625	34.79
887.79	34.5
887.956	33.1
888.121	28.75
888.287	31.39
888.452	31.31
888.618	24.16
888.783	18.05
