Data from 2937812_Reflection_2.txt Node
Date: Wed Jul 15 17:44:31 EDT 2015
User: robert
Spectrometer: USB4E03001
Autoset integration time: false
Trigger mode: 4
Integration Time (sec): 1.000000E-1
Scans to average: 10
Electric dark correction enabled: true
Nonlinearity correction enabled: false
Boxcar width: 5
Stray light correction enabled: false
XAxis mode: Wavelengths
Stop averaging: false
Number of Pixels in Spectrum: 3648
>>>>>Begin Spectral Data<<<<<
177.566	201
177.785	5133.33
178.005	91.35
178.225	79.08
178.445	105.42
178.665	77.78
178.885	74.98
179.105	5.56
179.324	-351.9
179.544	54.62
179.764	114.23
179.984	190.32
180.204	-641.5
180.423	489.86
180.643	-4871.01
180.863	-2626.59
181.083	-321.7
181.302	-231.56
181.522	-81.76
181.742	-126.5
181.961	-261.22
182.181	-166.68
182.401	-428.67
182.621	-126.92
182.84	-84.82
183.06	-2179.65
183.279	225.27
183.499	208.84
183.719	290.77
183.938	136.9
184.158	106.35
184.377	127.54
184.597	100.22
184.816	83
185.036	43.98
185.256	18.28
185.475	3.44
185.695	-21.26
185.914	-35.25
186.134	-15.39
186.353	-15.29
186.572	6.04
186.792	16.58
187.011	38.38
187.231	37.58
187.45	52.38
187.67	77.87
187.889	77.8
188.108	100.94
188.328	86.76
188.547	117.48
188.766	209.72
188.986	337.94
189.205	-213.01
189.424	56.16
189.644	-838.15
189.863	-92.95
190.082	-918.84
190.302	-203.24
190.521	-62.6
190.74	-354.26
190.959	922.04
191.178	-737.56
191.398	598.59
191.617	99.94
191.836	102.77
192.055	124.19
192.274	60.51
192.494	78.61
192.713	123.7
192.932	102.3
193.151	82.33
193.37	-218.33
193.589	-4.8
193.808	-53.96
194.027	36.41
194.246	173.65
194.465	-198.21
194.685	516.74
194.904	-385.47
195.123	1011.63
195.342	1211.94
195.561	765.1
195.78	-406.71
195.999	-298.57
196.218	536.69
196.436	157.06
196.655	231.69
196.874	281.98
197.093	378.63
197.312	2435.11
197.531	-462.21
197.75	211.13
197.969	148.46
198.188	116.17
198.407	83.25
198.625	165.21
198.844	1120.06
199.063	-5862.5
199.282	-64.53
199.501	499.25
199.719	69.44
199.938	195.77
200.157	329.24
200.376	13.2
200.594	41.15
200.813	50.52
201.032	43.03
201.251	53.18
201.469	545.34
201.688	2246.07
201.907	-762.11
202.125	2565.2
202.344	-1025.8
202.563	-478.65
202.781	-157.17
203	-64.97
203.218	-9.4
203.437	10.86
203.656	-9.98
203.874	20.18
204.093	34.37
204.311	36.76
204.53	40.55
204.748	41.38
204.967	31.54
205.185	63.7
205.404	150
205.622	150
205.841	47.37
206.059	195.24
206.278	209.53
206.496	-99.19
206.715	-139.04
206.933	-56.6
207.151	-32.56
207.37	-734.43
207.588	131.89
207.806	-103.22
208.025	-30.67
208.243	81.87
208.461	83.37
208.68	85.85
208.898	125.45
209.116	187.07
209.335	176.25
209.553	-353.93
209.771	-16.54
209.989	536.02
210.208	486.15
210.426	1281.3
210.644	369.8
210.862	155.86
211.081	155.99
211.299	150.76
211.517	207.17
211.735	253.45
211.953	283.78
212.171	296.8
212.39	250.75
212.608	266.66
212.826	175.99
213.044	220.11
213.262	422.11
213.48	167.14
213.698	-12525
213.916	56.17
214.134	-30.02
214.352	-635.95
214.57	-333.61
214.788	2607
215.006	-289.31
215.224	78.56
215.442	394.58
215.66	171.59
215.878	3.88
216.096	84.76
216.314	174.07
216.532	9.97
216.75	-295.16
216.968	-52.93
217.185	-12.39
217.403	-8.78
217.621	5.02
217.839	-80.59
218.057	-691.68
218.275	125.6
218.492	115.81
218.71	132.63
218.928	75.79
219.146	57.44
219.363	116.29
219.581	100.03
219.799	87.67
220.017	52.68
220.234	71.25
220.452	82
220.67	178.56
220.887	-87.03
221.105	-162.37
221.323	-133.53
221.54	-349.68
221.758	494.32
221.976	741.18
222.193	-1728.82
222.411	965.31
222.629	457.71
222.846	626.82
223.064	209.72
223.281	216.12
223.499	201.95
223.716	170.46
223.934	96.57
224.151	582.67
224.369	692.56
224.586	23.66
224.804	11.84
225.021	89.02
225.239	11.41
225.456	30.47
225.674	73.29
225.891	83.52
226.108	134.8
226.326	93.43
226.543	103.5
226.76	84.74
226.978	47.45
227.195	30.48
227.413	22.26
227.63	16.62
227.847	17.84
228.064	9.66
228.282	13.57
228.499	12.07
228.716	13.61
228.934	12.15
229.151	8.56
229.368	12.88
229.585	15.17
229.802	18.2
230.02	19.97
230.237	19.59
230.454	19.44
230.671	18.04
230.888	16.98
231.105	16.56
231.323	18.54
231.54	20.14
231.757	14.65
231.974	7.57
232.191	-0.88
232.408	-2.19
232.625	-5.21
232.842	-3.06
233.059	-2.44
233.276	8.46
233.493	11.3
233.71	10.29
233.927	13.12
234.144	24.52
234.361	26.22
234.578	23.22
234.795	26.4
235.012	24.69
235.229	26.32
235.446	24.21
235.663	17.2
235.879	9.88
236.096	11.12
236.313	6.26
236.53	2.73
236.747	4.76
236.964	12.2
237.181	3.69
237.397	6.2
237.614	-0.56
237.831	1.22
238.048	11.67
238.264	15.94
238.481	12.73
238.698	15.97
238.915	19.37
239.131	20.48
239.348	16.33
239.565	22.48
239.781	8.36
239.998	7.86
240.215	12.06
240.431	5.88
240.648	10.57
240.865	7.95
241.081	10.42
241.298	9.23
241.514	8.42
241.731	8.54
241.947	7.4
242.164	11.35
242.38	11.32
242.597	11.48
242.814	13.26
243.03	12.21
243.246	13.8
243.463	12.36
243.679	11.74
243.896	11.27
244.112	11.78
244.329	13.47
244.545	17.08
244.762	18.43
244.978	19
245.194	18.3
245.411	17.13
245.627	19.39
245.843	20.74
246.06	19.12
246.276	19.17
246.492	20.17
246.709	18.78
246.925	17.91
247.141	18.41
247.357	16.59
247.574	17.16
247.79	16.28
248.006	16.09
248.222	15.77
248.439	16.23
248.655	16.47
248.871	14.23
249.087	13.99
249.303	14.38
249.519	12.67
249.736	14.85
249.952	13.85
250.168	15.36
250.384	13.72
250.6	13.63
250.816	12.21
251.032	12.31
251.248	12.39
251.464	13.8
251.68	10.21
251.896	13.55
252.112	12.52
252.328	11.24
252.544	11.43
252.76	9.34
252.976	11.18
253.192	10.18
253.408	10.86
253.624	12.91
253.84	8.56
254.056	11.43
254.272	9.71
254.487	8.98
254.703	9.44
254.919	11.77
255.135	14.96
255.351	13.35
255.567	16.78
255.782	11.61
255.998	12.13
256.214	16.51
256.43	14.66
256.646	7.77
256.861	7.73
257.077	6.84
257.293	8.54
257.508	8.25
257.724	9.9
257.94	9.55
258.155	10.81
258.371	10.09
258.587	9.63
258.802	10.17
259.018	11.45
259.234	11.66
259.449	12.25
259.665	11.39
259.88	12.58
260.096	11.75
260.312	11.29
260.527	11.51
260.743	11.58
260.958	11.03
261.174	10.64
261.389	11.56
261.605	11.25
261.82	9.83
262.036	9.38
262.251	8.2
262.466	7.6
262.682	8.63
262.897	8.87
263.113	8.49
263.328	7.64
263.543	8.64
263.759	8.89
263.974	7.17
264.189	9.19
264.405	8.22
264.62	8.11
264.835	9.06
265.051	6.81
265.266	6.76
265.481	4.08
265.696	8.23
265.912	8.12
266.127	5.6
266.342	5.64
266.557	5.95
266.773	8.31
266.988	9.58
267.203	9.71
267.418	10.75
267.633	10.34
267.848	11.13
268.064	9.39
268.279	9.27
268.494	11.67
268.709	12.15
268.924	13.42
269.139	12.62
269.354	10.09
269.569	11.67
269.784	13.05
269.999	12.13
270.214	13.53
270.429	15.36
270.644	13.93
270.859	14.47
271.074	15.22
271.289	12.65
271.504	11.49
271.719	11.56
271.934	10.29
272.149	9.09
272.363	9.78
272.578	10.4
272.793	9.45
273.008	10.91
273.223	10.06
273.438	9.44
273.653	10.61
273.867	12.06
274.082	14.83
274.297	15.1
274.512	16.37
274.726	16.01
274.941	15.02
275.156	15.29
275.371	13.06
275.585	11.11
275.8	11.31
276.015	11.08
276.229	9.69
276.444	6.86
276.659	5.52
276.873	3.45
277.088	3.34
277.302	0.79
277.517	0.86
277.732	1.7
277.946	1.8
278.161	3.57
278.375	4.75
278.59	2.91
278.804	2.04
279.019	1.61
279.233	3.16
279.448	3.15
279.662	3.98
279.877	3.84
280.091	3.86
280.306	5.78
280.52	5.74
280.735	5.84
280.949	7.76
281.163	8.44
281.378	6.65
281.592	6.85
281.806	9.22
282.021	10.91
282.235	9.48
282.449	11.78
282.664	10.74
282.878	10.95
283.092	10.52
283.307	10.71
283.521	11
283.735	12.74
283.949	11.26
284.164	10.41
284.378	10.42
284.592	12.67
284.806	12.32
285.02	14.92
285.234	14.5
285.449	14.13
285.663	12.65
285.877	12.03
286.091	11.14
286.305	11.54
286.519	9.75
286.733	9.3
286.947	7.24
287.161	6.65
287.375	4.82
287.589	4.81
287.803	4
288.017	4.19
288.231	4.23
288.445	5.73
288.659	8.33
288.873	10.29
289.087	10.22
289.301	12.07
289.515	13.58
289.729	13.6
289.943	13
290.157	13.64
290.371	14.1
290.584	16.03
290.798	14.81
291.012	13.8
291.226	14.55
291.44	15.21
291.654	15.37
291.867	15.63
292.081	15.15
292.295	15.23
292.509	15.7
292.722	15.43
292.936	14.02
293.15	14.68
293.364	14.07
293.577	14.16
293.791	12.84
294.005	10.31
294.218	8.59
294.432	10.29
294.645	11.44
294.859	12.53
295.073	13.11
295.286	12.91
295.5	14.15
295.713	13.86
295.927	13.47
296.14	13.11
296.354	14.12
296.568	12.54
296.781	11.78
296.994	11.91
297.208	12.14
297.421	12.65
297.635	12.16
297.848	10.35
298.062	10.52
298.275	11.23
298.489	13.19
298.702	14.43
298.915	16.1
299.129	17.08
299.342	16.89
299.555	16.13
299.769	15.6
299.982	16.15
300.195	17.18
300.409	16.39
300.622	15.01
300.835	13.56
301.048	12.87
301.262	12.36
301.475	12.62
301.688	11.38
301.901	10.77
302.115	12.28
302.328	12.42
302.541	13.42
302.754	14.69
302.967	15.7
303.18	15.85
303.393	14.3
303.607	15.69
303.82	15.29
304.033	15.98
304.246	16.17
304.459	15.15
304.672	14.58
304.885	14.19
305.098	13.31
305.311	14.73
305.524	14.55
305.737	14.99
305.95	13.78
306.163	12.82
306.376	12.53
306.589	13.79
306.802	11.36
307.015	11.44
307.228	9.78
307.44	10.78
307.653	10.36
307.866	9.44
308.079	9.72
308.292	9.17
308.505	9.72
308.718	11.84
308.93	11.72
309.143	15.15
309.356	15.32
309.569	16.44
309.781	16.68
309.994	15.21
310.207	17.27
310.42	16.85
310.632	17.17
310.845	16.41
311.058	15.17
311.27	15.7
311.483	14.59
311.696	14.03
311.908	14.13
312.121	12.32
312.333	11.99
312.546	9.36
312.759	10.41
312.971	11.53
313.184	12.65
313.396	13.54
313.609	11.7
313.821	12.49
314.034	12.95
314.246	11.54
314.459	13.94
314.671	14.32
314.884	16.47
315.096	15.18
315.309	12.36
315.521	11.49
315.733	10.94
315.946	11.29
316.158	11.19
316.371	14.25
316.583	16.71
316.795	16.94
317.008	15.53
317.22	14.66
317.432	14.65
317.644	16.39
317.857	17.54
318.069	16.8
318.281	16.6
318.494	15.1
318.706	13.48
318.918	13.99
319.13	14.13
319.342	17.64
319.555	16.7
319.767	17.84
319.979	16.37
320.191	16.03
320.403	16.39
320.615	16.68
320.827	15.88
321.039	15.3
321.252	14.96
321.464	14.4
321.676	13.37
321.888	16.87
322.1	14.77
322.312	15.36
322.524	14.91
322.736	15.48
322.948	15.92
323.16	16.18
323.372	15.72
323.584	14.85
323.796	16.07
324.007	14.63
324.219	12.09
324.431	12.95
324.643	13.54
324.855	14.41
325.067	14.52
325.279	14.14
325.491	15.12
325.702	15.91
325.914	16.29
326.126	14.02
326.338	12.9
326.55	12.75
326.761	13.39
326.973	12.93
327.185	11.97
327.396	12.91
327.608	13.31
327.82	13.63
328.032	13.84
328.243	14.95
328.455	15.58
328.666	18.31
328.878	19.54
329.09	19.6
329.301	19.87
329.513	18.06
329.725	15.7
329.936	15.44
330.148	15.73
330.359	13.76
330.571	12.64
330.782	13.09
330.994	11.11
331.205	11.75
331.417	11.63
331.628	11.33
331.84	15.31
332.051	16.84
332.262	16.83
332.474	15.18
332.685	15.02
332.897	14.76
333.108	14.78
333.319	13.71
333.531	12.45
333.742	12.43
333.953	13.07
334.165	11.77
334.376	11.71
334.587	11.3
334.799	13.65
335.01	15.11
335.221	14.49
335.432	12.24
335.644	12.68
335.855	11.12
336.066	11.99
336.277	11.71
336.488	12.27
336.7	11.82
336.911	13.9
337.122	12.83
337.333	13.54
337.544	13.41
337.755	16.48
337.966	17.15
338.177	17.43
338.388	17.21
338.599	16.15
338.811	15.29
339.022	15.79
339.233	12.77
339.444	12.63
339.655	12.15
339.866	13.12
340.076	12.72
340.287	13.11
340.498	14.49
340.709	14.76
340.92	15.48
341.131	15.47
341.342	14.49
341.553	15.91
341.764	14.37
341.975	13.3
342.185	12.09
342.396	10.04
342.607	9.86
342.818	9.36
343.029	9.14
343.239	10.16
343.45	11.09
343.661	11.36
343.872	10.44
344.082	13.14
344.293	13.87
344.504	15.32
344.714	16.02
344.925	15.63
345.136	16.07
345.346	15.84
345.557	16.23
345.768	14.97
345.978	15.48
346.189	16.97
346.399	15.58
346.61	15.2
346.821	14.21
347.031	14.42
347.242	13.99
347.452	15.09
347.663	15.88
347.873	13.54
348.084	15.9
348.294	15.28
348.504	13.95
348.715	14.17
348.925	14.55
349.136	15.87
349.346	13.62
349.557	14.5
349.767	14.74
349.977	13.05
350.188	14.97
350.398	14.1
350.608	14.35
350.819	13.79
351.029	13.3
351.239	13.27
351.449	11.98
351.66	11.89
351.87	11.18
352.08	9.49
352.29	9.99
352.501	10.02
352.711	10.07
352.921	8.93
353.131	9.74
353.341	10.44
353.552	9.2
353.762	11.42
353.972	14.58
354.182	15.39
354.392	16.39
354.602	15.64
354.812	14.05
355.022	13.7
355.232	14.92
355.442	15.26
355.652	15.24
355.862	16.06
356.072	13.92
356.282	12.93
356.492	12.59
356.702	11.89
356.912	12.91
357.122	14.62
357.332	14.42
357.542	14.23
357.752	14.58
357.962	14.32
358.171	14.87
358.381	15.51
358.591	16.59
358.801	18.14
359.011	18.6
359.221	18.84
359.43	18.62
359.64	19.65
359.85	19.43
360.06	19.07
360.269	18.97
360.479	17.43
360.689	17.25
360.899	16.57
361.108	15.98
361.318	15.7
361.528	15.42
361.737	15.51
361.947	14.64
362.156	14.87
362.366	13.88
362.576	13.88
362.785	14.11
362.995	14.2
363.204	13.91
363.414	13.48
363.623	14.36
363.833	13.96
364.042	14.02
364.252	14.73
364.461	14.08
364.671	15.11
364.88	14.84
365.09	15.42
365.299	15.96
365.509	15.73
365.718	15.62
365.927	13.46
366.137	13.74
366.346	12.59
366.555	11.1
366.765	11.37
366.974	11.66
367.183	12.05
367.393	12.24
367.602	11.3
367.811	12.18
368.021	12.12
368.23	13.59
368.439	13.09
368.648	13.6
368.857	13.74
369.067	12.88
369.276	12.5
369.485	12.33
369.694	11.72
369.903	11.18
370.112	10.61
370.321	10.72
370.531	10.92
370.74	10.81
370.949	9.95
371.158	10.74
371.367	11.8
371.576	12.12
371.785	12.26
371.994	12.35
372.203	13.86
372.412	13.71
372.621	13.39
372.83	11.66
373.039	11.92
373.248	12.76
373.457	12.59
373.666	12.28
373.874	12.93
374.083	13.04
374.292	12.76
374.501	11.53
374.71	11.6
374.919	12.25
375.128	12.91
375.336	13.07
375.545	13.16
375.754	12.85
375.963	12.7
376.171	11.11
376.38	10.67
376.589	9.93
376.798	9.78
377.006	9.34
377.215	9.51
377.424	10.59
377.632	10.71
377.841	9.84
378.05	9.96
378.258	10.26
378.467	10.67
378.675	10.37
378.884	10.87
379.093	11.52
379.301	12.05
379.51	11.86
379.718	11.69
379.927	12.02
380.135	12.42
380.344	12.47
380.552	12.88
380.761	12.78
380.969	14.08
381.177	14.37
381.386	13.98
381.594	14.04
381.803	13.78
382.011	12.98
382.219	13.05
382.428	13.17
382.636	13.29
382.845	12.98
383.053	12.6
383.261	10.76
383.469	11.16
383.678	10.72
383.886	10.53
384.094	9.83
384.302	9.64
384.511	9.26
384.719	8.89
384.927	8.52
385.135	8.27
385.343	8.53
385.552	8.75
385.76	7.54
385.968	7.6
386.176	7.37
386.384	7.82
386.592	8.35
386.8	8.46
387.008	8.72
387.216	8.63
387.424	8.93
387.633	8.92
387.841	9.11
388.049	9.68
388.257	9.88
388.465	9.47
388.672	9.4
388.88	8.86
389.088	8.28
389.296	8.01
389.504	8.12
389.712	7.86
389.92	7.66
390.128	7.72
390.336	8.09
390.544	8.47
390.751	9.37
390.959	9.38
391.167	9.28
391.375	9.45
391.583	9.55
391.79	9.19
391.998	9.06
392.206	8.99
392.414	8.76
392.621	8.29
392.829	7.82
393.037	7.24
393.244	6.76
393.452	7.17
393.66	7.08
393.867	7.15
394.075	7.32
394.283	7.27
394.49	7.28
394.698	7.2
394.905	7.12
395.113	7.3
395.32	7.2
395.528	7.46
395.735	7.32
395.943	7.15
396.15	6.91
396.358	7.33
396.565	7.14
396.773	7.29
396.98	7.26
397.188	7.37
397.395	7.21
397.602	6.8
397.81	7
398.017	6.64
398.225	6.93
398.432	6.88
398.639	6.58
398.847	6.45
399.054	6.51
399.261	6.7
399.468	6.73
399.676	6.76
399.883	7.31
400.09	7.18
400.297	7.2
400.505	6.94
400.712	6.85
400.919	6.88
401.126	6.72
401.333	6.74
401.54	6.92
401.748	7.06
401.955	6.93
402.162	6.96
402.369	7.08
402.576	7.34
402.783	7.33
402.99	7.22
403.197	7.14
403.404	7.51
403.611	7.41
403.818	7.26
404.025	7.11
404.232	7.51
404.439	7.55
404.646	7.45
404.853	7.33
405.06	7.18
405.267	7.53
405.474	7.61
405.681	7.51
405.887	7.42
406.094	7.41
406.301	7.6
406.508	7.06
406.715	6.93
406.922	6.88
407.128	7.03
407.335	7.28
407.542	6.93
407.749	6.37
407.955	6.48
408.162	6.65
408.369	6.91
408.575	6.58
408.782	6.64
408.989	6.73
409.195	6.73
409.402	6.54
409.609	6.46
409.815	6.33
410.022	6.94
410.228	7.16
410.435	7.1
410.642	7.07
410.848	7.19
411.055	7.57
411.261	7.57
411.468	7.52
411.674	7.49
411.881	7.47
412.087	7.84
412.294	7.35
412.5	7.3
412.706	6.97
412.913	6.74
413.119	6.52
413.326	6.36
413.532	6.15
413.738	6.3
413.945	6.42
414.151	6.19
414.357	5.98
414.564	6.5
414.77	6.1
414.976	6.38
415.182	6.18
415.389	6.4
415.595	6.13
415.801	6.4
416.007	6.42
416.214	6.26
416.42	6.55
416.626	6.84
416.832	6.58
417.038	6.76
417.244	7.07
417.45	7.24
417.657	7.11
417.863	7.3
418.069	7.13
418.275	7.06
418.481	7.1
418.687	6.98
418.893	6.85
419.099	6.89
419.305	6.69
419.511	6.49
419.717	6.49
419.923	6.57
420.129	6.72
420.335	6.89
420.541	6.76
420.746	6.9
420.952	7.04
421.158	7
421.364	7.05
421.57	7.1
421.776	7.21
421.982	7.11
422.187	7.21
422.393	7.07
422.599	6.95
422.805	7.06
423.01	6.92
423.216	6.95
423.422	6.99
423.628	7.01
423.833	7.11
424.039	6.92
424.245	7.14
424.45	6.91
424.656	6.87
424.862	6.81
425.067	6.99
425.273	6.99
425.478	6.74
425.684	6.56
425.889	6.42
426.095	6.24
426.301	6.25
426.506	5.98
426.712	6.29
426.917	6.27
427.123	6.32
427.328	5.98
427.533	6.01
427.739	6.1
427.944	6.15
428.15	6.34
428.355	6.39
428.561	6.39
428.766	6.37
428.971	5.91
429.177	6.12
429.382	6.07
429.587	6.06
429.793	6.06
429.998	6.13
430.203	6.15
430.408	5.91
430.614	6.27
430.819	6.37
431.024	6.36
431.229	6.55
431.434	6.32
431.64	6.47
431.845	6.74
432.05	6.76
432.255	6.64
432.46	6.59
432.665	6.86
432.87	6.6
433.076	6.69
433.281	6.84
433.486	6.68
433.691	6.75
433.896	6.6
434.101	6.57
434.306	6.69
434.511	6.83
434.716	6.86
434.921	6.69
435.126	6.71
435.331	6.47
435.535	6.56
435.74	6.76
435.945	6.65
436.15	6.73
436.355	6.53
436.56	6.38
436.765	6.51
436.97	6.49
437.174	6.68
437.379	6.75
437.584	6.83
437.789	6.65
437.993	6.73
438.198	6.8
438.403	6.84
438.608	6.98
438.812	7.05
439.017	7.01
439.222	7.3
439.426	7
439.631	7.01
439.836	7.06
440.04	7.13
440.245	7.1
440.45	7.14
440.654	7.16
440.859	7.29
441.063	7.34
441.268	7.37
441.472	7.27
441.677	7.43
441.881	7.46
442.086	7.53
442.29	7.51
442.495	7.58
442.699	7.57
442.904	7.45
443.108	7.39
443.312	7.23
443.517	6.95
443.721	6.83
443.925	6.97
444.13	6.98
444.334	6.87
444.538	6.74
444.743	6.62
444.947	6.55
445.151	6.59
445.356	6.41
445.56	6.5
445.764	6.68
445.968	6.68
446.173	6.63
446.377	6.46
446.581	6.51
446.785	6.76
446.989	6.9
447.193	7.02
447.398	7.03
447.602	7.09
447.806	7.22
448.01	7.16
448.214	7.12
448.418	7.08
448.622	7.25
448.826	7.07
449.03	6.98
449.234	6.8
449.438	6.68
449.642	6.89
449.846	6.88
450.05	6.69
450.254	6.58
450.458	6.73
450.662	6.66
450.866	6.48
451.069	6.65
451.273	6.46
451.477	6.33
451.681	6.33
451.885	6.05
452.089	6.07
452.292	6.11
452.496	6.1
452.7	6.14
452.904	6
453.107	6.03
453.311	6.07
453.515	6.32
453.719	6.47
453.922	6.38
454.126	6.54
454.33	6.42
454.533	6.44
454.737	6.42
454.94	6.51
455.144	6.87
455.348	6.9
455.551	6.87
455.755	6.61
455.958	6.61
456.162	6.79
456.365	6.67
456.569	6.65
456.772	6.59
456.976	6.73
457.179	6.72
457.383	6.62
457.586	6.59
457.79	6.42
457.993	6.46
458.196	6.47
458.4	6.51
458.603	6.48
458.807	6.54
459.01	6.52
459.213	6.69
459.417	6.6
459.62	6.47
459.823	6.39
460.026	6.38
460.23	6.48
460.433	6.54
460.636	6.56
460.839	6.51
461.042	6.59
461.246	6.6
461.449	6.37
461.652	6.46
461.855	6.62
462.058	6.91
462.261	7.08
462.464	6.96
462.668	6.96
462.871	7.01
463.074	7.18
463.277	7.08
463.48	7.03
463.683	7.03
463.886	6.96
464.089	6.79
464.292	6.62
464.495	6.6
464.698	6.67
464.901	6.67
465.104	6.35
465.306	6.34
465.509	6.35
465.712	6.35
465.915	6.57
466.118	6.41
466.321	6.47
466.524	6.54
466.726	6.5
466.929	6.55
467.132	6.6
467.335	6.71
467.538	6.65
467.74	6.87
467.943	6.84
468.146	6.64
468.348	6.9
468.551	6.76
468.754	6.75
468.956	6.81
469.159	6.91
469.362	6.82
469.564	6.9
469.767	6.69
469.969	6.39
470.172	6.31
470.375	6.58
470.577	6.5
470.78	6.58
470.982	6.46
471.185	6.59
471.387	6.21
471.59	6.33
471.792	6.25
471.995	6.39
472.197	6.32
472.399	6.56
472.602	6.37
472.804	6.29
473.007	6.38
473.209	6.46
473.411	6.21
473.614	6.34
473.816	6.41
474.018	6.46
474.22	6.45
474.423	6.48
474.625	6.44
474.827	6.39
475.03	6.29
475.232	6.27
475.434	6.2
475.636	6.33
475.838	6.37
476.04	5.97
476.243	5.94
476.445	5.98
476.647	6.09
476.849	6.08
477.051	6.22
477.253	6.28
477.455	6.31
477.657	6.38
477.859	6.33
478.061	6.21
478.263	6.51
478.465	6.54
478.667	6.67
478.869	6.73
479.071	6.77
479.273	6.6
479.475	6.61
479.677	6.68
479.879	6.65
480.081	6.7
480.283	6.81
480.485	6.95
480.686	7.04
480.888	6.9
481.09	6.83
481.292	6.82
481.494	6.77
481.695	6.76
481.897	6.7
482.099	6.61
482.301	6.65
482.502	6.58
482.704	6.42
482.906	6.37
483.107	6.44
483.309	6.46
483.511	6.52
483.712	6.62
483.914	6.61
484.115	6.63
484.317	6.7
484.519	6.71
484.72	6.79
484.922	6.86
485.123	6.87
485.325	6.87
485.526	6.9
485.728	6.85
485.929	6.78
486.131	6.85
486.332	6.81
486.534	6.81
486.735	6.76
486.936	6.72
487.138	6.6
487.339	6.68
487.541	6.67
487.742	6.62
487.943	6.61
488.144	6.68
488.346	6.57
488.547	6.59
488.748	6.61
488.95	6.61
489.151	6.59
489.352	6.65
489.553	6.67
489.755	6.72
489.956	6.78
490.157	6.77
490.358	6.8
490.559	6.98
490.76	6.95
490.961	6.89
491.163	6.85
491.364	6.89
491.565	6.9
491.766	6.83
491.967	6.81
492.168	6.78
492.369	6.81
492.57	6.78
492.771	6.69
492.972	6.67
493.173	6.69
493.374	6.74
493.575	6.73
493.776	6.73
493.976	6.85
494.177	6.8
494.378	6.83
494.579	6.84
494.78	6.77
494.981	6.65
495.182	6.63
495.382	6.56
495.583	6.61
495.784	6.44
495.985	6.47
496.185	6.26
496.386	6.2
496.587	6.19
496.788	6.36
496.988	6.46
497.189	6.6
497.39	6.62
497.59	6.73
497.791	6.78
497.992	7.02
498.192	7
498.393	7.05
498.593	7.07
498.794	7.03
498.994	6.87
499.195	6.87
499.395	6.88
499.596	6.91
499.796	6.92
499.997	6.74
500.197	6.63
500.398	6.68
500.598	6.77
500.799	6.95
500.999	7.04
501.199	7.1
501.4	6.88
501.6	6.88
501.801	6.91
502.001	6.88
502.201	6.97
502.402	7.05
502.602	6.97
502.802	7
503.002	6.85
503.203	6.76
503.403	6.82
503.603	6.74
503.803	6.76
504.003	6.87
504.204	6.8
504.404	6.89
504.604	6.88
504.804	6.69
505.004	6.56
505.204	6.63
505.404	6.79
505.604	6.72
505.804	7
506.005	7.02
506.205	6.92
506.405	7.01
506.605	6.9
506.805	6.98
507.005	7.37
507.204	7.44
507.404	7.54
507.604	7.52
507.804	7.59
508.004	7.54
508.204	7.58
508.404	7.57
508.604	7.52
508.804	7.64
509.003	7.52
509.203	7.39
509.403	7.33
509.603	7.36
509.803	7.45
510.002	7.42
510.202	7.41
510.402	7.35
510.602	7.61
510.801	7.63
511.001	7.5
511.201	7.62
511.4	7.64
511.6	7.8
511.8	7.62
511.999	7.58
512.199	7.54
512.398	7.63
512.598	7.62
512.797	7.43
512.997	7.48
513.197	7.62
513.396	7.48
513.596	7.55
513.795	7.47
513.994	7.64
514.194	7.48
514.393	7.58
514.593	7.49
514.792	7.57
514.992	7.67
515.191	7.76
515.39	7.82
515.59	7.94
515.789	7.99
515.988	8.07
516.188	7.98
516.387	8.13
516.586	7.99
516.786	8.05
516.985	8.22
517.184	8.17
517.383	8.04
517.582	7.99
517.782	7.87
517.981	7.8
518.18	7.73
518.379	7.75
518.578	7.74
518.777	7.96
518.976	7.99
519.176	7.88
519.375	7.95
519.574	7.99
519.773	7.93
519.972	8.1
520.171	8.11
520.37	8.11
520.569	8.14
520.768	8.15
520.967	7.97
521.166	8
521.365	7.85
521.564	7.9
521.762	7.97
521.961	7.98
522.16	7.86
522.359	7.98
522.558	8.08
522.757	8.14
522.956	8.22
523.154	8.18
523.353	8.2
523.552	8.42
523.751	8.23
523.949	8.29
524.148	8.43
524.347	8.53
524.546	8.63
524.744	8.74
524.943	8.72
525.142	8.72
525.34	8.89
525.539	8.86
525.737	8.85
525.936	8.98
526.135	8.99
526.333	8.97
526.532	8.98
526.73	9
526.929	8.86
527.127	8.91
527.326	8.93
527.524	8.98
527.723	9.04
527.921	9.06
528.12	9.08
528.318	9.19
528.516	9.2
528.715	9.21
528.913	9.21
529.112	9.29
529.31	9.29
529.508	9.32
529.707	9.35
529.905	9.39
530.103	9.36
530.301	9.34
530.5	9.31
530.698	9.36
530.896	9.35
531.094	9.34
531.293	9.35
531.491	9.37
531.689	9.38
531.887	9.41
532.085	9.37
532.283	9.5
532.481	9.55
532.68	9.53
532.878	9.49
533.076	9.66
533.274	9.7
533.472	9.72
533.67	9.73
533.868	9.79
534.066	9.75
534.264	9.87
534.462	9.87
534.66	9.85
534.858	9.89
535.056	9.96
535.253	9.9
535.451	9.89
535.649	9.99
535.847	10.05
536.045	9.9
536.243	9.87
536.441	9.76
536.638	9.75
536.836	9.8
537.034	9.75
537.232	9.84
537.43	9.86
537.627	9.8
537.825	9.67
538.023	9.8
538.22	9.94
538.418	10.07
538.616	10.06
538.813	10.02
539.011	10.17
539.209	10.23
539.406	10.16
539.604	10.25
539.801	10.43
539.999	10.58
540.196	10.51
540.394	10.61
540.591	10.68
540.789	10.78
540.986	10.87
541.184	10.72
541.381	10.76
541.579	10.7
541.776	10.72
541.974	10.69
542.171	10.71
542.368	10.74
542.566	10.73
542.763	10.65
542.96	10.68
543.158	10.73
543.355	10.84
543.552	10.87
543.75	10.98
543.947	10.97
544.144	10.98
544.341	11.05
544.539	11.13
544.736	11.14
544.933	11.26
545.13	11.2
545.327	11.2
545.524	11.29
545.722	11.28
545.919	11.35
546.116	11.36
546.313	11.27
546.51	11.16
546.707	11.22
546.904	11.25
547.101	11.26
547.298	11.29
547.495	11.31
547.692	11.36
547.889	11.42
548.086	11.64
548.283	11.77
548.48	11.98
548.677	12.13
548.874	12
549.07	11.95
549.267	12.02
549.464	12.07
549.661	12.09
549.858	12.01
550.055	12.04
550.251	11.87
550.448	11.74
550.645	11.69
550.842	11.6
551.038	11.68
551.235	12.01
551.432	12.09
551.628	12.28
551.825	12.32
552.022	12.39
552.218	12.57
552.415	12.75
552.612	12.73
552.808	12.83
553.005	13.02
553.201	13.14
553.398	13.13
553.594	12.98
553.791	12.97
553.987	12.98
554.184	12.85
554.38	12.79
554.577	12.57
554.773	12.75
554.97	12.86
555.166	12.82
555.362	12.77
555.559	12.72
555.755	12.92
555.952	13.1
556.148	13.16
556.344	13.41
556.541	13.49
556.737	13.46
556.933	13.61
557.129	13.47
557.326	13.36
557.522	13.69
557.718	13.7
557.914	13.56
558.11	13.45
558.307	13.43
558.503	13.67
558.699	13.49
558.895	13.7
559.091	13.77
559.287	14.04
559.483	14.3
559.679	14.2
559.876	14.11
560.072	14.36
560.268	14.49
560.464	14.38
560.66	14.27
560.856	14.47
561.052	14.52
561.247	14.28
561.443	14.42
561.639	14.33
561.835	14.26
562.031	14.33
562.227	14.39
562.423	14.42
562.619	14.82
562.815	14.91
563.01	15.16
563.206	15.38
563.402	15.44
563.598	15.31
563.793	15.46
563.989	15.6
564.185	15.75
564.381	15.72
564.576	15.77
564.772	15.86
564.968	16.02
565.163	15.93
565.359	15.82
565.555	16.05
565.75	16.12
565.946	16.32
566.141	16.32
566.337	16.53
566.532	16.57
566.728	16.32
566.923	16.05
567.119	15.93
567.314	15.91
567.51	15.97
567.705	15.92
567.901	15.85
568.096	15.83
568.292	15.9
568.487	15.98
568.682	16.19
568.878	16.49
569.073	16.7
569.268	16.81
569.464	16.86
569.659	16.84
569.854	16.89
570.05	17.2
570.245	17.13
570.44	17.11
570.635	16.83
570.831	16.61
571.026	16.52
571.221	16.53
571.416	16.64
571.611	16.68
571.806	16.83
572.002	16.81
572.197	16.84
572.392	17.06
572.587	17.16
572.782	17.34
572.977	17.29
573.172	17.59
573.367	17.6
573.562	17.59
573.757	17.57
573.952	17.52
574.147	17.56
574.342	17.47
574.537	17.2
574.732	17.34
574.927	17.17
575.121	17.6
575.316	17.62
575.511	17.7
575.706	17.8
575.901	18.01
576.096	18.16
576.29	18.22
576.485	18.21
576.68	18.45
576.875	18.43
577.069	18.63
577.264	18.44
577.459	18.34
577.654	18.28
577.848	18.2
578.043	18.02
578.238	17.7
578.432	17.86
578.627	17.82
578.821	17.8
579.016	17.77
579.21	17.85
579.405	17.8
579.6	17.77
579.794	17.99
579.989	18.05
580.183	18.43
580.378	18.37
580.572	18.17
580.766	18.25
580.961	18.24
581.155	18.28
581.35	18.1
581.544	18.08
581.738	18.44
581.933	18.46
582.127	18.58
582.321	18.29
582.516	18.7
582.71	18.74
582.904	18.77
583.099	18.8
583.293	18.7
583.487	18.7
583.681	18.91
583.875	18.69
584.07	18.65
584.264	18.58
584.458	18.51
584.652	18.46
584.846	18.42
585.04	18.49
585.234	18.54
585.428	18.6
585.623	18.82
585.817	18.77
586.011	18.69
586.205	18.81
586.399	18.67
586.593	18.69
586.787	18.6
586.981	18.58
587.174	18.46
587.368	18.25
587.562	18.22
587.756	18.26
587.95	18.52
588.144	18.45
588.338	18.5
588.532	18.51
588.725	18.53
588.919	18.55
589.113	18.98
589.307	18.98
589.501	19.09
589.694	18.88
589.888	18.86
590.082	18.8
590.275	18.96
590.469	18.75
590.663	19.11
590.856	19.3
591.05	19.33
591.244	19.24
591.437	19.22
591.631	19.22
591.824	19.46
592.018	19.44
592.212	19.22
592.405	19.23
592.599	19.51
592.792	19.24
592.986	18.9
593.179	18.93
593.372	18.88
593.566	19.06
593.759	18.97
593.953	19.18
594.146	18.99
594.339	18.78
594.533	19
594.726	18.69
594.92	18.63
595.113	19.04
595.306	19.39
595.499	19.32
595.693	19.2
595.886	19.26
596.079	19.11
596.272	19.37
596.466	19.64
596.659	19.56
596.852	19.89
597.045	19.91
597.238	19.82
597.431	19.7
597.624	19.7
597.818	20.11
598.011	20.31
598.204	20.31
598.397	20.38
598.59	20.5
598.783	20.57
598.976	20.51
599.169	20.59
599.362	20.26
599.555	20.16
599.748	20.18
599.941	19.59
600.134	19.39
600.326	19.31
600.519	19.08
600.712	19.01
600.905	18.64
601.098	18.5
601.291	18.48
601.483	18.94
601.676	19.25
601.869	19.45
602.062	19.77
602.255	19.73
602.447	19.91
602.64	20.18
602.833	20.36
603.025	20.69
603.218	20.77
603.411	20.92
603.603	21.07
603.796	21.08
603.989	20.92
604.181	20.83
604.374	20.96
604.566	20.91
604.759	20.91
604.951	20.91
605.144	21.05
605.336	20.89
605.529	20.91
605.721	20.84
605.914	20.7
606.106	20.99
606.299	21.11
606.491	21.22
606.683	21.29
606.876	21.09
607.068	20.91
607.26	20.69
607.453	20.88
607.645	20.87
607.837	21.06
608.03	20.81
608.222	20.65
608.414	20.65
608.606	20.54
608.799	20.31
608.991	20.34
609.183	20.34
609.375	20.27
609.567	20.16
609.759	19.9
609.952	19.63
610.144	19.9
610.336	19.79
610.528	19.78
610.72	20.06
610.912	20.19
611.104	20.3
611.296	20.35
611.488	20.42
611.68	20.64
611.872	21.01
612.064	21.04
612.256	21.06
612.448	20.98
612.64	20.95
612.832	20.62
613.023	20.85
613.215	20.78
613.407	20.72
613.599	20.73
613.791	20.83
613.983	20.17
614.174	20.3
614.366	20.04
614.558	19.78
614.75	19.65
614.941	19.66
615.133	19.54
615.325	19.69
615.516	19.45
615.708	19.64
615.9	19.43
616.091	19.89
616.283	19.8
616.475	19.88
616.666	20.44
616.858	20.64
617.049	20.65
617.241	20.62
617.432	20.52
617.624	20.66
617.815	20.26
618.007	20.43
618.198	20.35
618.39	20.33
618.581	20.24
618.773	20.33
618.964	20.27
619.155	20.55
619.347	20.66
619.538	20.52
619.729	20.67
619.921	20.96
620.112	21.2
620.303	21.55
620.494	21.57
620.686	21.88
620.877	21.65
621.068	22.06
621.259	22.13
621.451	22.01
621.642	22.15
621.833	22.42
622.024	22.44
622.215	22.39
622.406	22.06
622.597	22.21
622.788	22.29
622.98	22.59
623.171	22.21
623.362	21.67
623.553	21.77
623.744	21.99
623.935	21.99
624.126	21.91
624.317	21.5
624.508	21.62
624.698	21.83
624.889	21.51
625.08	21.34
625.271	21.57
625.462	21.75
625.653	21.65
625.844	21.24
626.034	21.07
626.225	21.36
626.416	21.51
626.607	21.33
626.798	21.32
626.988	21.39
627.179	21.47
627.37	21.1
627.56	21.35
627.751	21.47
627.942	21.61
628.132	21.43
628.323	21.19
628.514	21.17
628.704	21.5
628.895	21.27
629.085	21.63
629.276	21.47
629.466	21.75
629.657	21.67
629.847	21.65
630.038	21.95
630.228	22.46
630.419	22.45
630.609	22.26
630.8	22.31
630.99	22.37
631.181	22.09
631.371	22.16
631.561	22.45
631.752	22.37
631.942	22.51
632.132	22.54
632.323	22.37
632.513	22.45
632.703	22.86
632.893	22.74
633.084	22.63
633.274	22.32
633.464	22.29
633.654	21.93
633.844	21.95
634.034	21.66
634.225	21.19
634.415	20.92
634.605	20.86
634.795	20.86
634.985	20.78
635.175	20.88
635.365	21.2
635.555	21.27
635.745	21.34
635.935	21.27
636.125	21.48
636.315	21.94
636.505	22.2
636.695	22.18
636.885	21.77
637.075	21.94
637.265	22.39
637.455	22.45
637.644	22.37
637.834	22.25
638.024	22.26
638.214	22.34
638.404	22
638.593	22
638.783	22.07
638.973	22.3
639.163	22.17
639.352	21.61
639.542	21.8
639.732	21.85
639.921	22.19
640.111	22.52
640.301	22.26
640.49	22.43
640.68	22.43
640.87	22.2
641.059	21.8
641.249	21.76
641.438	22.05
641.628	21.72
641.817	21.36
642.007	21.27
642.196	20.89
642.386	20.78
642.575	20.34
642.764	19.93
642.954	20.18
643.143	20.56
643.333	20.24
643.522	19.93
643.711	19.72
643.901	20.3
644.09	20.09
644.279	20.34
644.469	20.57
644.658	21.24
644.847	21.85
645.036	21.77
645.226	21.85
645.415	22.08
645.604	22.38
645.793	22.79
645.982	22.31
646.171	22.36
646.361	21.82
646.55	21.68
646.739	21.67
646.928	21.35
647.117	21.3
647.306	21.2
647.495	21.33
647.684	20.6
647.873	20.17
648.062	20.3
648.251	20.12
648.44	20.9
648.629	20.81
648.818	20.66
649.007	20.66
649.196	20.9
649.384	20.73
649.573	20.86
649.762	21.08
649.951	21.34
650.14	21.29
650.328	21.91
650.517	21.66
650.706	22.23
650.895	21.9
651.083	21.71
651.272	21.01
651.461	21.04
651.65	21.18
651.838	21.23
652.027	21.02
652.216	21.16
652.404	20.51
652.593	20.66
652.781	20.05
652.97	20.51
653.158	20.86
653.347	21.16
653.535	21.1
653.724	20.4
653.912	20.65
654.101	21.04
654.289	20.41
654.478	20.56
654.666	20.5
654.855	20.48
655.043	20.42
655.231	20.31
655.42	20.41
655.608	20.78
655.796	21.13
655.985	21.37
656.173	21.2
656.361	21.95
656.55	22.16
656.738	22
656.926	22.4
657.114	22.04
657.302	21.96
657.491	22.05
657.679	22.13
657.867	22.04
658.055	22.41
658.243	22.53
658.431	22.3
658.619	21.77
658.807	21.8
658.996	21.66
659.184	21.84
659.372	22.22
659.56	22.37
659.748	22.18
659.936	22.04
660.124	21.82
660.311	21.82
660.499	21.77
660.687	22.3
660.875	21.96
661.063	22.18
661.251	22.39
661.439	21.96
661.627	22
661.814	21.85
662.002	22.22
662.19	22.04
662.378	21.94
662.565	21.96
662.753	21.69
662.941	21.99
663.129	21.64
663.316	21.33
663.504	21.83
663.692	21.6
663.879	22.18
664.067	22.59
664.254	22.52
664.442	21.9
664.63	22.22
664.817	22.46
665.005	22.51
665.192	22.27
665.38	22.46
665.567	21.48
665.755	21.39
665.942	21.35
666.13	21.22
666.317	21.14
666.504	21.85
666.692	21.56
666.879	21.68
667.067	21.98
667.254	22.29
667.441	22.19
667.629	22.76
667.816	23.09
668.003	23.02
668.19	22.81
668.378	23.19
668.565	22.82
668.752	22.88
668.939	22.8
669.127	22.86
669.314	22.99
669.501	22.96
669.688	22.73
669.875	22.54
670.062	22.06
670.249	22.05
670.436	21.68
670.623	21.84
670.81	21.51
670.997	21.51
671.184	20.8
671.371	20.87
671.558	21.08
671.745	21.56
671.932	21.45
672.119	21.61
672.306	21.6
672.493	21.62
672.68	21.23
672.867	21.59
673.054	21.42
673.24	22.24
673.427	21.84
673.614	21.79
673.801	21.46
673.988	21.88
674.174	22.15
674.361	21.86
674.548	22.04
674.734	22.66
674.921	22.8
675.108	22.7
675.294	21.5
675.481	21.61
675.668	21.64
675.854	21.82
676.041	21.21
676.227	21.01
676.414	21
676.601	20.64
676.787	20.21
676.974	20.47
677.16	20.47
677.347	21.04
677.533	21.14
677.719	21.5
677.906	21.57
678.092	21.57
678.279	21.97
678.465	22.17
678.651	22.52
678.838	23.01
679.024	22.66
679.21	22.88
679.397	22.73
679.583	22.98
679.769	22.7
679.955	22.53
680.142	22.9
680.328	22.53
680.514	22.66
680.7	22.34
680.886	22.29
681.073	22.44
681.259	22.46
681.445	22.87
681.631	22.54
681.817	22.77
682.003	22.92
682.189	22.84
682.375	22.79
682.561	23
682.747	23.21
682.933	22.79
683.119	23.03
683.305	22.99
683.491	23.19
683.677	23.76
683.863	23.92
684.049	23.78
684.235	23.75
684.42	24.28
684.606	24.24
684.792	24.12
684.978	24.67
685.164	24.58
685.349	24.78
685.535	23.8
685.721	23.5
685.907	23.33
686.092	23.35
686.278	23.5
686.464	23.14
686.649	22.77
686.835	22.37
687.021	22.45
687.206	21.92
687.392	21.7
687.577	22.21
687.763	21.93
687.948	21.57
688.134	21.94
688.319	21.97
688.505	22.25
688.69	22.49
688.876	22.97
689.061	22.63
689.247	22.75
689.432	23.05
689.618	23.11
689.803	23.5
689.988	23.45
690.174	23.47
690.359	23.61
690.544	23.26
690.73	23.58
690.915	23.41
691.1	22.97
691.285	23.22
691.471	22.67
691.656	23.01
691.841	22.99
692.026	22.63
692.211	21.95
692.396	22.05
692.582	22.61
692.767	21.84
692.952	21.66
693.137	22.35
693.322	22.66
693.507	22.84
693.692	22.27
693.877	22.08
694.062	22.2
694.247	22.26
694.432	21.35
694.617	20.68
694.802	21
694.987	22.01
695.172	21.91
695.357	22
695.541	22.39
695.726	22.96
695.911	23.05
696.096	23.57
696.281	24.1
696.466	24.23
696.65	24.73
696.835	24.91
697.02	24.29
697.204	24.21
697.389	23.77
697.574	23.52
697.759	23.39
697.943	23.63
698.128	23.72
698.312	23.95
698.497	24.35
698.682	24.03
698.866	24.39
699.051	24.75
699.235	24.66
699.42	24.74
699.604	24.58
699.789	24.54
699.973	23.89
700.158	23.71
700.342	23.62
700.527	24.02
700.711	24.13
700.895	23.58
701.08	23.61
701.264	23.97
701.448	24.27
701.633	24.08
701.817	24.12
702.001	24.58
702.186	23.93
702.37	23.21
702.554	22.77
702.738	22.69
702.923	22.04
703.107	21.02
703.291	20.55
703.475	20.4
703.659	20.71
703.843	20.19
704.027	19.7
704.212	20.15
704.396	20.41
704.58	19.62
704.764	19.63
704.948	20.13
705.132	20.18
705.316	20.5
705.5	21.09
705.684	21.18
705.868	21.37
706.052	22.45
706.235	22.81
706.419	22.55
706.603	23.19
706.787	23.76
706.971	23.85
707.155	24.2
707.339	23.66
707.522	22.57
707.706	23.28
707.89	23.37
708.074	22.54
708.257	22.95
708.441	23.01
708.625	22.87
708.808	22.39
708.992	22.47
709.176	22.45
709.359	22.73
709.543	23.65
709.727	22.79
709.91	22.87
710.094	23.51
710.277	23.34
710.461	23.47
710.644	23.28
710.828	23.84
711.011	24.58
711.195	24.29
711.378	24.7
711.562	23.8
711.745	24.3
711.928	24.95
712.112	24.66
712.295	24.81
712.478	24.9
712.662	25.2
712.845	24.65
713.028	22.93
713.212	23.25
713.395	22.54
713.578	23.73
713.761	23.4
713.945	22.37
714.128	22.53
714.311	22.03
714.494	22.04
714.677	21.92
714.86	22.61
715.043	23.63
715.227	23.24
715.41	23.54
715.593	22.78
715.776	22.51
715.959	23.25
716.142	23.08
716.325	22.9
716.508	22.92
716.691	23.07
716.874	22.27
717.057	21.82
717.239	22.86
717.422	22.81
717.605	22.43
717.788	22.73
717.971	22.36
718.154	21.99
718.337	23.5
718.519	23.48
718.702	22.68
718.885	21.88
719.068	22.34
719.25	21.34
719.433	20.74
719.616	20.1
719.798	20.65
719.981	21.46
720.164	22.92
720.346	21.11
720.529	20.86
720.712	21.24
720.894	21.93
721.077	22.38
721.259	22.66
721.442	23.33
721.624	24.34
721.807	23.18
721.989	23.16
722.172	22.47
722.354	22.63
722.537	22.84
722.719	23.09
722.901	23.99
723.084	23.73
723.266	23.31
723.448	23.31
723.631	22.71
723.813	23.45
723.995	22.71
724.178	22.61
724.36	23.25
724.542	22.82
724.724	23.51
724.907	22.2
725.089	22.54
725.271	22.19
725.453	22.17
725.635	23.68
725.817	23.31
725.999	23.34
726.181	22.86
726.364	21.85
726.546	22.22
726.728	22.45
726.91	23.66
727.092	22.29
727.274	22.24
727.456	21.94
727.638	21.49
727.819	21.95
728.001	22.1
728.183	23.05
728.365	24.04
728.547	23.37
728.729	22.76
728.911	22.06
729.093	22.96
729.274	23.54
729.456	22.94
729.638	21.66
729.82	22.21
730.001	21.13
730.183	20.39
730.365	19.67
730.546	20.19
730.728	20.02
730.91	19.46
731.091	19.92
731.273	19.48
731.455	20.34
731.636	21.71
731.818	21.71
731.999	22.62
732.181	23.32
732.362	23.04
732.544	23.4
732.725	23.34
732.907	24.16
733.088	23.33
733.27	24.51
733.451	24.67
733.633	24.11
733.814	24.57
733.995	24.57
734.177	23.53
734.358	23.96
734.539	23.48
734.721	23.71
734.902	23.88
735.083	25.03
735.264	24.24
735.446	25.65
735.627	25.58
735.808	24.32
735.989	23.05
736.17	23.19
736.351	23.15
736.533	23.48
736.714	22.96
736.895	22.92
737.076	21.6
737.257	22.03
737.438	20.65
737.619	20.58
737.8	20.96
737.981	22.95
738.162	23.11
738.343	21.91
738.524	21.11
738.705	21.09
738.886	20.82
739.067	21.63
739.247	21.62
739.428	21.02
739.609	20.86
739.79	19.69
739.971	18.93
740.151	19.69
740.332	20.5
740.513	21.48
740.694	21.84
740.874	22.59
741.055	21.74
741.236	20.06
741.417	19.12
741.597	18.96
741.778	20.33
741.958	18.58
742.139	18.42
742.32	17.66
742.5	16.77
742.681	17.16
742.861	16.48
743.042	17.36
743.222	17.21
743.403	18.17
743.583	18.68
743.764	18.55
743.944	21.18
744.124	21.43
744.305	23.89
744.485	24.03
744.666	23.27
744.846	22.63
745.026	23.44
745.207	25.71
745.387	25.01
745.567	25.41
745.747	25.98
745.928	24.64
746.108	24.59
746.288	22.89
746.468	25.08
746.648	25.18
746.829	26.16
747.009	25.61
747.189	24.9
747.369	26.55
747.549	24.83
747.729	24.97
747.909	24.77
748.089	23.41
748.269	23.64
748.449	21.74
748.629	20.93
748.809	20.22
748.989	19.33
749.169	18.73
749.349	17.53
749.529	19.02
749.709	18.41
749.889	18.14
750.068	18.58
750.248	18.78
750.428	18.52
750.608	16.62
750.788	16.69
750.967	18
751.147	17.57
751.327	20.37
751.507	19.31
751.686	18.14
751.866	18.05
752.046	19.21
752.225	20.32
752.405	19.47
752.585	21.06
752.764	21.99
752.944	20.55
753.123	22.12
753.303	18.1
753.482	18.49
753.662	18.69
753.841	18.32
754.021	17.58
754.2	16.87
754.38	17.67
754.559	18.79
754.739	16.7
754.918	15.35
755.097	13.65
755.277	14.58
755.456	14.3
755.635	14.25
755.815	15.05
755.994	13.5
756.173	12.37
756.352	13.22
756.532	12.64
756.711	13.96
756.89	16.6
757.069	17.57
757.248	17.47
757.427	18.31
757.607	19.62
757.786	19.35
757.965	20.47
758.144	20.8
758.323	21.01
758.502	20.89
758.681	21.11
758.86	19.89
759.039	19.77
759.218	20.12
759.397	20.52
759.576	20.57
759.755	21.68
759.934	22.23
760.113	21.64
760.291	19.74
760.47	20.86
760.649	20.25
760.828	20.1
761.007	19.7
761.186	21.37
761.364	21.11
761.543	21.27
761.722	21.57
761.901	20.91
762.079	22.38
762.258	24.54
762.437	23.93
762.615	24.53
762.794	25.73
762.972	26.35
763.151	25.97
763.33	26.25
763.508	25.81
763.687	25.41
763.865	25.08
764.044	24.38
764.222	24.62
764.401	24.38
764.579	23.89
764.758	22.71
764.936	22.98
765.114	22.87
765.293	22.01
765.471	21.98
765.65	21.89
765.828	22.86
766.006	23.28
766.184	21.46
766.363	22.59
766.541	23.31
766.719	23.43
766.898	22.57
767.076	22.38
767.254	22.72
767.432	23
767.61	22.88
767.788	22.68
767.967	23.43
768.145	23.82
768.323	23.4
768.501	24.33
768.679	24.6
768.857	24.98
769.035	24.43
769.213	26.61
769.391	25.52
769.569	27.12
769.747	26.84
769.925	25.36
770.103	25.97
770.281	25.09
770.459	23.61
770.636	24.96
770.814	24.52
770.992	25.49
771.17	23.14
771.348	24.64
771.525	22.98
771.703	23.18
771.881	25.86
772.059	25.58
772.236	26.03
772.414	25.27
772.592	24.61
772.769	25.08
772.947	24.73
773.125	24.61
773.302	21.29
773.48	23.49
773.657	23.13
773.835	20.71
774.013	18.14
774.19	17.22
774.368	17.25
774.545	17.58
774.723	18.14
774.9	19.45
775.077	19.68
775.255	21.34
775.432	18.8
775.61	20.32
775.787	21.46
775.964	24.37
776.142	26.05
776.319	27.41
776.496	26.77
776.674	25.52
776.851	23.07
777.028	24.82
777.205	25.78
777.382	26.06
777.56	22.9
777.737	22.8
777.914	22.61
778.091	20.75
778.268	19.04
778.445	19.38
778.622	19.17
778.8	20.71
778.977	18.1
779.154	19.4
779.331	18.76
779.508	19.24
779.685	17.52
779.862	14.7
780.038	16.6
780.215	16.09
780.392	15.07
780.569	15.84
780.746	13.58
780.923	15.66
781.1	15.73
781.277	15.94
781.453	18.8
781.63	17.71
781.807	20.53
781.984	18.63
782.16	20.82
782.337	21.25
782.514	19.43
782.691	20.42
782.867	18.61
783.044	16.53
783.221	14.6
783.397	12.62
783.574	16.65
783.75	17.68
783.927	20.27
784.103	21.38
784.28	19.46
784.456	20.83
784.633	22.23
784.809	22.94
784.986	23.27
785.162	23.28
785.339	25.66
785.515	25.43
785.692	24.86
785.868	24.4
786.044	21.17
786.221	22.77
786.397	22.72
786.573	23.41
786.749	21.57
786.926	23.5
787.102	25.68
787.278	22.56
787.454	18.97
787.631	18.67
787.807	16.56
787.983	15.97
788.159	17.37
788.335	18.51
788.511	17.6
788.687	20.35
788.863	17.45
789.039	18.89
789.216	22.85
789.392	23.66
789.568	20.31
789.744	20.62
789.919	22.01
790.095	19.12
790.271	19.26
790.447	17.51
790.623	14.57
790.799	16.01
790.975	15.52
791.151	13.24
791.327	13.57
791.502	18.71
791.678	21.86
791.854	22.3
792.03	24.13
792.205	23.63
792.381	24.71
792.557	26.75
792.733	24.3
792.908	25.79
793.084	26.23
793.259	27.37
793.435	25.1
793.611	19.72
793.786	21.68
793.962	19.82
794.137	16.26
794.313	17.88
794.488	17.07
794.664	22.09
794.839	19.01
795.015	17.03
795.19	15.47
795.366	16.23
795.541	17.55
795.716	16.2
795.892	17.86
796.067	22.91
796.242	21.3
796.418	21.92
796.593	20.32
796.768	23.73
796.944	24.23
797.119	23.67
797.294	23.43
797.469	25.24
797.644	26.27
797.82	26.95
797.995	26.76
798.17	28.21
798.345	28.88
798.52	28.04
798.695	28.42
798.87	28.3
799.045	28.29
799.22	27.34
799.395	24.99
799.57	23.08
799.745	22.69
799.92	19.22
800.095	20.24
800.27	19.74
800.445	18.76
800.62	17.89
800.795	17.22
800.97	20.14
801.145	21.81
801.319	23.35
801.494	22.17
801.669	23.75
801.844	25.82
802.018	19.88
802.193	19.44
802.368	22.15
802.543	17.8
802.717	20.46
802.892	21.36
803.067	22.42
803.241	23.69
803.416	25.78
803.59	25.62
803.765	25.7
803.94	30.32
804.114	31.65
804.289	33.5
804.463	31.27
804.638	26.81
804.812	23.18
804.986	20.07
805.161	21.56
805.335	19.8
805.51	14.68
805.684	14.15
805.858	14.44
806.033	13.09
806.207	10.84
806.381	9.95
806.556	14.78
806.73	17.92
806.904	17.06
807.078	15.03
807.253	20.72
807.427	26.18
807.601	29.86
807.775	24.43
807.949	22.86
808.123	17.59
808.298	21.81
808.472	21.56
808.646	17.66
808.82	18.91
808.994	16.68
809.168	11.72
809.342	9.09
809.516	4.37
809.69	8.71
809.864	11.53
810.038	18.2
810.212	18.17
810.385	14.94
810.559	14.35
810.733	19.42
810.907	22.39
811.081	19.8
811.255	22.88
811.428	26.02
811.602	22.1
811.776	25.18
811.95	22.93
812.123	23.59
812.297	27
812.471	24.01
812.644	21.43
812.818	18.08
812.992	19.87
813.165	16.16
813.339	18.08
813.512	20.06
813.686	13.18
813.86	14.25
814.033	17.65
814.207	21.89
814.38	23.81
814.554	25.38
814.727	27.97
814.9	30.14
815.074	33.31
815.247	30.33
815.421	29
815.594	31.85
815.767	32.97
815.941	29.18
816.114	22.36
816.287	27.7
816.46	22.99
816.634	23.5
816.807	21.63
816.98	24.35
817.153	25.34
817.327	29.71
817.5	28.11
817.673	24.27
817.846	25.21
818.019	25.29
818.192	22
818.365	26.32
818.538	27.43
818.711	32.27
818.884	25.35
819.057	25.75
819.23	28.7
819.403	32.59
819.576	33.32
819.749	31.38
819.922	31.15
820.095	33.22
820.268	31.63
820.441	30.19
820.614	28.07
820.786	30.9
820.959	28.87
821.132	27.06
821.305	24.65
821.477	25.19
821.65	25.01
821.823	24.52
821.996	25.09
822.168	25.56
822.341	24.71
822.514	24.69
822.686	24.5
822.859	24.45
823.031	24.16
823.204	24.3
823.376	22.9
823.549	22.98
823.722	23.41
823.894	22.59
824.067	21.25
824.239	22.2
824.411	22.3
824.584	21.4
824.756	20.94
824.929	20.4
825.101	21.13
825.273	22.98
825.446	23.28
825.618	22.99
825.79	22.57
825.963	23.58
826.135	22.9
826.307	24.38
826.479	25.49
826.652	25.9
826.824	26.93
826.996	25.62
827.168	25.28
827.34	25.89
827.512	25.57
827.684	27.22
827.856	26.66
828.029	25.86
828.201	24.07
828.373	23.78
828.545	22.93
828.717	22.1
828.889	22.99
829.061	23.08
829.232	22.68
829.404	22.91
829.576	20.2
829.748	23.2
829.92	21.41
830.092	19.78
830.264	20.02
830.436	20.6
830.607	18.95
830.779	17.15
830.951	12.58
831.123	12
831.294	6.94
831.466	7.36
831.638	5.15
831.809	9.05
831.981	9.18
832.153	5.47
832.324	4.05
832.496	9.97
832.667	9.16
832.839	15.91
833.011	19.15
833.182	20.01
833.354	19.82
833.525	19.79
833.697	19.51
833.868	20.03
834.039	17.62
834.211	21.39
834.382	20.18
834.554	21.79
834.725	19.91
834.896	16.67
835.068	15.72
835.239	15.79
835.41	13.56
835.581	16.64
835.753	16.57
835.924	18.93
836.095	14.82
836.266	12.74
836.438	13.67
836.609	12.74
836.78	11.39
836.951	16
837.122	10.68
837.293	9
837.464	8.6
837.635	4.92
837.806	2.77
837.977	4.93
838.148	0.52
838.319	-7.85
838.49	-1.69
838.661	0.28
838.832	-5.38
839.003	-2.07
839.174	6.79
839.345	3.83
839.516	11.37
839.687	13.4
839.857	19.26
840.028	25.5
840.199	28.31
840.37	23.2
840.54	22.51
840.711	18.05
840.882	26.06
841.053	20.92
841.223	16.81
841.394	11.94
841.564	8.28
841.735	7.1
841.906	9.34
842.076	4.31
842.247	9.6
842.417	5.27
842.588	8.33
842.758	0.41
842.929	5.76
843.099	12.35
843.27	19.25
843.44	35.68
843.611	39.24
843.781	42.27
843.951	49.6
844.122	49.42
844.292	46.51
844.462	50.36
844.633	51.81
844.803	48.54
844.973	51.83
845.144	41.89
845.314	37.11
845.484	24.44
845.654	12.57
845.824	14.91
845.995	4.7
846.165	18.6
846.335	-19.28
846.505	-9.01
846.675	-21.32
846.845	-54.83
847.015	-13.16
847.185	-10.85
847.355	-8.82
847.525	2.01
847.695	-25.74
847.865	-23.21
848.035	-30.53
848.205	10.16
848.375	-11.95
848.545	-20.93
848.715	-1.09
848.884	-28.05
849.054	-49.72
849.224	-58.66
849.394	-36.01
849.564	-24.38
849.733	-28.51
849.903	-35.82
850.073	-85.99
850.243	-55.7
850.412	-35.07
850.582	-26.79
850.752	-35.57
850.921	-30.63
851.091	-46.94
851.26	-162.31
851.43	-86.51
851.599	-324.1
851.769	-1356.4
851.939	-475.44
852.108	-2904.66
852.278	896.34
852.447	2134.64
852.616	538.71
852.786	2559.96
852.955	-1147.88
853.125	-514.73
853.294	-572.26
853.463	-319.47
853.633	-74.82
853.802	-18.52
853.971	-16.63
854.141	-1.22
854.31	10.16
854.479	16.19
854.648	27.99
854.818	35.3
854.987	41.32
855.156	40.43
855.325	41.7
855.494	31.74
855.663	22.26
855.832	34.12
856.001	38.2
856.171	41.76
856.34	43.44
856.509	49.46
856.678	42.38
856.847	42.84
857.016	35.94
857.185	45.24
857.353	32.09
857.522	19.11
857.691	37.97
857.86	26.88
858.029	22.98
858.198	17.8
858.367	-18.92
858.535	-34.55
858.704	-24.23
858.873	-32.24
859.042	-62.32
859.21	-4.12
859.379	19.35
859.548	-12.63
859.717	-11.78
859.885	-56.07
860.054	-51.37
860.222	-28.98
860.391	-23.59
860.56	-7.58
860.728	4.15
860.897	11.4
861.065	-7.3
861.234	-11.93
861.402	8.69
861.571	9.72
861.739	9.37
861.908	35.28
862.076	24.4
862.244	35.73
862.413	35.25
862.581	38.59
862.749	32.08
862.918	26.73
863.086	27.1
863.254	19.6
863.423	2.63
863.591	8.3
863.759	11.47
863.927	-16.49
864.096	-4.65
864.264	-32.69
864.432	-42.68
864.6	-31.18
864.768	-6.54
864.936	2.73
865.104	-3.38
865.272	26.02
865.44	30.72
865.608	16.7
865.776	32.69
865.944	10.4
866.112	24.12
866.28	17.47
866.448	19.68
866.616	47.51
866.784	42.98
866.952	28.04
867.12	2.62
867.288	-23.39
867.455	-30.84
867.623	-3.84
867.791	45.8
867.959	22.92
868.127	18.91
868.294	-34.82
868.462	-27.77
868.63	-36.49
868.797	-20.91
868.965	-17.82
869.133	-5.14
869.3	-4.56
869.468	-1.36
869.636	-16.75
869.803	-18.28
869.971	-17.3
870.138	14.08
870.306	5.69
870.473	-24.4
870.641	-1.84
870.808	6.99
870.975	-11.71
871.143	-45.65
871.31	-65.11
871.478	-48.12
871.645	-71
871.812	-30.98
871.98	-12.89
872.147	-5.59
872.314	10.7
872.482	-4.56
872.649	2.95
872.816	-21.72
872.983	11.86
873.15	-0.11
873.318	-26.59
873.485	20.99
873.652	3.82
873.819	-31.93
873.986	46.36
874.153	-420.97
874.32	4.4
874.487	25.53
874.654	-1244.72
874.821	-970.21
874.988	464.25
875.155	159.19
875.322	125.48
875.489	112.85
875.656	92.4
875.823	91.3
875.99	134.56
876.157	104.51
876.324	87.88
876.49	99.72
876.657	57.17
876.824	14.07
876.991	11.42
877.157	-3.98
877.324	-32.54
877.491	-12.19
877.658	-12.28
877.824	0.93
877.991	-27.15
878.157	-5.74
878.324	-49.92
878.491	-94.5
878.657	-12.96
878.824	-27.08
878.99	2.97
879.157	43.96
879.323	47.56
879.49	38.97
879.656	28.14
879.823	41.37
879.989	15.67
880.156	-19.62
880.322	-23.01
880.488	-81.69
880.655	-189.47
880.821	-45.85
880.987	-20.29
881.154	-20.07
881.32	12.3
881.486	4.74
881.652	2.75
881.819	6.16
881.985	16.66
882.151	21.61
882.317	24.61
882.483	28.21
882.649	25.28
882.816	25.22
882.982	26.3
883.148	23.27
883.314	23.74
883.48	24.93
883.646	21.79
883.812	23.24
883.978	24.22
884.144	22.28
884.31	23.04
884.476	20.93
884.642	14.85
884.807	13.88
884.973	10.91
885.139	9.72
885.305	5.37
885.471	12.43
885.637	12.73
885.802	12.44
885.968	12.47
886.134	12.2
886.3	9.69
886.465	14.64
886.631	6.79
886.797	11.7
886.962	8.1
887.128	3.76
887.293	-4.43
887.459	-12.32
887.625	-16.26
887.79	-21.41
887.956	-28.96
888.121	-27.16
888.287	-27.96
888.452	-11.18
888.618	-28.53
888.783	-5.36
