Data from 2937819_Reflection_2.txt Node
Date: Wed Jul 15 17:24:21 EDT 2015
User: robert
Spectrometer: USB4E03001
Autoset integration time: false
Trigger mode: 4
Integration Time (sec): 1.000000E-1
Scans to average: 10
Electric dark correction enabled: true
Nonlinearity correction enabled: false
Boxcar width: 5
Stray light correction enabled: false
XAxis mode: Wavelengths
Stop averaging: false
Number of Pixels in Spectrum: 3648
>>>>>Begin Spectral Data<<<<<
177.566	-16.52
177.785	-16.26
178.005	-121.74
178.225	-84.58
178.445	-969.57
178.665	34.64
178.885	226.12
179.105	-118.16
179.324	-145.42
179.544	-38.98
179.764	5.71
179.984	2.03
180.204	-5.13
180.423	-271.47
180.643	-61.72
180.863	-89.64
181.083	1.58
181.302	15.44
181.522	75.22
181.742	15.47
181.961	63.16
182.181	145.56
182.401	85.41
182.621	98.13
182.84	74.88
183.06	77.17
183.279	63.94
183.499	16.03
183.719	-49.95
183.938	-173.23
184.158	-43.1
184.377	-193.06
184.597	-170.01
184.816	-334.94
185.036	2015.34
185.256	385.9
185.475	262.32
185.695	212.63
185.914	238.4
186.134	275.27
186.353	310.44
186.572	269.37
186.792	166.99
187.011	142.49
187.231	168.52
187.45	727.62
187.67	-1661.51
187.889	-62.48
188.108	5.89
188.328	6.7
188.547	7.84
188.766	5.94
188.986	-22.1
189.205	-29.58
189.424	-33.99
189.644	-36.71
189.863	-63.79
190.082	-276.28
190.302	8157.53
190.521	-338.93
190.74	-234.73
190.959	-357.77
191.178	401.61
191.398	749.32
191.617	958.82
191.836	305.16
192.055	431.11
192.274	-2395.79
192.494	-399.66
192.713	-507.29
192.932	367.53
193.151	249.29
193.37	600.5
193.589	3935.71
193.808	-4060.66
194.027	-349.36
194.246	-224.39
194.465	-1441.45
194.685	-348.56
194.904	-1825.28
195.123	1808.13
195.342	1187.19
195.561	-1127.69
195.78	456.08
195.999	924.49
196.218	3220.37
196.436	-17700
196.655	-8220.83
196.874	-254.91
197.093	-1559.06
197.312	-893.95
197.531	-90.23
197.75	-102.67
197.969	-55.09
198.188	-123.87
198.407	-126.02
198.625	-253.86
198.844	-54.6
199.063	-4.68
199.282	-73.02
199.501	-90.42
199.719	-49.95
199.938	-155.76
200.157	-78.09
200.376	-408.35
200.594	17.89
200.813	0.63
201.032	42.89
201.251	-956.9
201.469	149.26
201.688	-1623.6
201.907	463.19
202.125	135.61
202.344	139
202.563	71.57
202.781	97.29
203	93.84
203.218	109.95
203.437	88.88
203.656	84.14
203.874	90.12
204.093	72.23
204.311	82.33
204.53	211.87
204.748	201.15
204.967	302.11
205.185	-303.06
205.404	650.14
205.622	191.16
205.841	188.44
206.059	5555.56
206.278	-578.9
206.496	-536.28
206.715	504.72
206.933	4667.12
207.151	-401.82
207.37	1779.03
207.588	386.44
207.806	804.09
208.025	1236.42
208.243	-98.4
208.461	-339.96
208.68	-770.58
208.898	531.24
209.116	4412.81
209.335	1231.81
209.553	503.02
209.771	1172.63
209.989	-829.98
210.208	-1302.54
210.426	-530.92
210.644	12841.1
210.862	1900.97
211.081	374.45
211.299	614.86
211.517	-158.82
211.735	-1201.27
211.953	-1109.77
212.171	389.4
212.39	236.3
212.608	753.05
212.826	823.54
213.044	-661.15
213.262	-394.09
213.48	-90.94
213.698	-95.25
213.916	-118.71
214.134	-68.54
214.352	-8.12
214.57	39.95
214.788	51.14
215.006	32.26
215.224	25.56
215.442	4.63
215.66	22.65
215.878	-31.65
216.096	-12.07
216.314	-96.93
216.532	-71.73
216.75	-73.51
216.968	-216.51
217.185	-267.88
217.403	-161.56
217.621	-193.82
217.839	-599.73
218.057	-991.69
218.275	1794.9
218.492	337.5
218.71	241.91
218.928	354.69
219.146	-1529.95
219.363	-122.93
219.581	-54.72
219.799	3.44
220.017	-49.63
220.234	-78.23
220.452	-361.45
220.67	-107.84
220.887	-45.6
221.105	-75.95
221.323	-92.42
221.54	1903.31
221.758	163.69
221.976	311.47
222.193	54.15
222.411	30.8
222.629	273.57
222.846	-98.74
223.064	-307.35
223.281	-313.34
223.499	-30.48
223.716	-57.37
223.934	9.6
224.151	3.27
224.369	-16.52
224.586	-22.61
224.804	-32.37
225.021	-34.27
225.239	-32.4
225.456	-25.54
225.674	-21.59
225.891	-19.69
226.108	-15.71
226.326	-25.73
226.543	3.52
226.76	20.02
226.978	21.83
227.195	26.56
227.413	30.72
227.63	26.78
227.847	25.48
228.064	24.68
228.282	18.6
228.499	19.66
228.716	21.53
228.934	17.83
229.151	14.54
229.368	15.76
229.585	21.23
229.802	20.41
230.02	20.99
230.237	19.25
230.454	15.92
230.671	19.6
230.888	23.35
231.105	24.75
231.323	24.49
231.54	23.74
231.757	21.78
231.974	8.39
232.191	6.29
232.408	9.07
232.625	19.46
232.842	23.11
233.059	17
233.276	10.51
233.493	6.5
233.71	0.28
233.927	1.9
234.144	-1.37
234.361	-2.93
234.578	-2.04
234.795	-4.03
235.012	-22.83
235.229	-13.79
235.446	-10.57
235.663	-15.88
235.879	-14.34
236.096	-10.74
236.313	-6.7
236.53	-4.14
236.747	-1.69
236.964	-1.41
237.181	0.9
237.397	2.57
237.614	3.02
237.831	2.08
238.048	1.48
238.264	-5.95
238.481	-2.2
238.698	-6.26
238.915	-2.19
239.131	-0.31
239.348	7.08
239.565	5.3
239.781	8.72
239.998	10.07
240.215	14.77
240.431	14.42
240.648	17.91
240.865	15.88
241.081	14.61
241.298	12.48
241.514	14.63
241.731	11.4
241.947	12.49
242.164	13.26
242.38	12.47
242.597	13.08
242.814	14.59
243.03	14.19
243.246	12.28
243.463	14.61
243.679	16.54
243.896	16.3
244.112	17.52
244.329	15.21
244.545	15.4
244.762	13.4
244.978	12.31
245.194	13.26
245.411	11.38
245.627	14.08
245.843	12.9
246.06	12.61
246.276	13.36
246.492	12.58
246.709	13.83
246.925	13.51
247.141	14.24
247.357	13.59
247.574	13.39
247.79	14.09
248.006	13.33
248.222	13.28
248.439	12.66
248.655	11.39
248.871	11.18
249.087	10.55
249.303	9.38
249.519	9.51
249.736	9.34
249.952	8.35
250.168	9.01
250.384	9.99
250.6	7.87
250.816	7.32
251.032	8.5
251.248	6.51
251.464	7.55
251.68	11.91
251.896	10.51
252.112	8.01
252.328	6.35
252.544	5.65
252.76	6.05
252.976	7.84
253.192	6.7
253.408	7.55
253.624	10.46
253.84	10.28
254.056	6
254.272	5.82
254.487	7.09
254.703	6.53
254.919	7.96
255.135	8.68
255.351	4.85
255.567	5.67
255.782	6.04
255.998	4.22
256.214	1.57
256.43	2.51
256.646	-0.91
256.861	-0.97
257.077	4.94
257.293	1.39
257.508	1.31
257.724	2.63
257.94	4.88
258.155	3.34
258.371	6.49
258.587	7.01
258.802	7.68
259.018	8.78
259.234	8.48
259.449	6.65
259.665	8.06
259.88	7.6
260.096	8.69
260.312	8.5
260.527	9.07
260.743	9.11
260.958	9.22
261.174	8.98
261.389	9.62
261.605	10.12
261.82	9.25
262.036	9.12
262.251	9.08
262.466	7.33
262.682	6.61
262.897	7.32
263.113	5.54
263.328	5.99
263.543	5.61
263.759	5.97
263.974	7.41
264.189	9.73
264.405	9.08
264.62	10
264.835	10.99
265.051	11.2
265.266	7.6
265.481	7.03
265.696	5.62
265.912	5.73
266.127	3.63
266.342	1.17
266.557	0.56
266.773	0.16
266.988	-2.7
267.203	-4.15
267.418	-2.73
267.633	-3.42
267.848	-2.57
268.064	-2.98
268.279	-1.97
268.494	-1.51
268.709	0.08
268.924	0.16
269.139	1.32
269.354	3.88
269.569	5.59
269.784	4.75
269.999	6.94
270.214	6.46
270.429	8.01
270.644	7.88
270.859	7.19
271.074	6.53
271.289	7.87
271.504	7.24
271.719	8.11
271.934	6.56
272.149	6.96
272.363	6.72
272.578	6.2
272.793	6.61
273.008	5.81
273.223	6.02
273.438	6.94
273.653	7.54
273.867	6.43
274.082	5.59
274.297	6.98
274.512	6.19
274.726	7.37
274.941	6.52
275.156	6.28
275.371	5.28
275.585	5.06
275.8	3.07
276.015	1.03
276.229	2.69
276.444	3.13
276.659	2.55
276.873	1.91
277.088	0.13
277.302	2.3
277.517	0.86
277.732	0.64
277.946	0.11
278.161	-0.3
278.375	1.75
278.59	3.58
278.804	3.74
279.019	2.95
279.233	4.66
279.448	5.49
279.662	4.13
279.877	4.95
280.091	6.89
280.306	7.5
280.52	8.89
280.735	9.86
280.949	7.52
281.163	6.1
281.378	7.49
281.592	6.92
281.806	6.91
282.021	7.81
282.235	7.58
282.449	7.15
282.664	4.58
282.878	5.39
283.092	4.34
283.307	4.44
283.521	6.19
283.735	6.4
283.949	6.11
284.164	4.99
284.378	3.31
284.592	3.8
284.806	3.36
285.02	6.26
285.234	4.84
285.449	4.26
285.663	5.29
285.877	4.2
286.091	3.78
286.305	4.6
286.519	5.44
286.733	5.33
286.947	4.19
287.161	4.39
287.375	4.27
287.589	4.1
287.803	4.27
288.017	3.48
288.231	2.44
288.445	1.41
288.659	0.97
288.873	-0.9
289.087	0.08
289.301	1.6
289.515	0.58
289.729	0.32
289.943	1.44
290.157	2.27
290.371	1.33
290.584	2.8
290.798	3.21
291.012	3.67
291.226	5.45
291.44	5.41
291.654	5.65
291.867	6.9
292.081	7.06
292.295	7.55
292.509	7.43
292.722	10.14
292.936	8.75
293.15	10.9
293.364	10.93
293.577	11.36
293.791	13.56
294.005	12.31
294.218	11.55
294.432	11.4
294.645	11.16
294.859	10.43
295.073	10.25
295.286	13.05
295.5	11.82
295.713	12.67
295.927	11.71
296.14	8.59
296.354	9.85
296.568	11.55
296.781	11.01
296.994	10.4
297.208	11.41
297.421	11.08
297.635	9.72
297.848	11.33
298.062	9.25
298.275	10.42
298.489	11.63
298.702	11.59
298.915	10.31
299.129	10.62
299.342	11.39
299.555	10.06
299.769	9.83
299.982	9.71
300.195	6.86
300.409	8.64
300.622	8.73
300.835	8.58
301.048	8.49
301.262	9.4
301.475	9.91
301.688	9.39
301.901	10.09
302.115	10.18
302.328	9.35
302.541	10.09
302.754	9.4
302.967	7.43
303.18	7.4
303.393	6.65
303.607	7.72
303.82	6.5
304.033	7.33
304.246	6.24
304.459	6.83
304.672	8.1
304.885	7.45
305.098	8.67
305.311	9.03
305.524	11.26
305.737	11.77
305.95	10.56
306.163	13.07
306.376	12.6
306.589	13
306.802	11.38
307.015	11.3
307.228	11.49
307.44	9.9
307.653	9.86
307.866	9.06
308.079	7.98
308.292	7.57
308.505	7.63
308.718	7.45
308.93	8.45
309.143	10.2
309.356	10.43
309.569	10.81
309.781	11.61
309.994	11.98
310.207	10.39
310.42	10.47
310.632	9.76
310.845	9.07
311.058	8.6
311.27	6.98
311.483	5.64
311.696	4.3
311.908	4.88
312.121	3.6
312.333	2.59
312.546	2.98
312.759	1.54
312.971	0.95
313.184	1.07
313.396	1.7
313.609	2.76
313.821	1.71
314.034	2.53
314.246	0.23
314.459	1.38
314.671	1.87
314.884	1.52
315.096	3.89
315.309	5.6
315.521	5.04
315.733	5.85
315.946	5.86
316.158	8.5
316.371	9.57
316.583	10.79
316.795	10.48
317.008	11.44
317.22	9.8
317.432	10.67
317.644	9.18
317.857	9.18
318.069	6.96
318.281	9.36
318.494	10.58
318.706	10.52
318.918	11.77
319.13	10.92
319.342	9.43
319.555	10.93
319.767	9.06
319.979	8.26
320.191	7.13
320.403	7.22
320.615	4.61
320.827	2.72
321.039	0.69
321.252	0.77
321.464	1.24
321.676	2.2
321.888	2.17
322.1	1.96
322.312	4.68
322.524	5.13
322.736	5.64
322.948	6.85
323.16	6.38
323.372	8.3
323.584	7.28
323.796	6.83
324.007	8.41
324.219	8.05
324.431	9.28
324.643	7.64
324.855	8.39
325.067	10.33
325.279	10.05
325.491	9.82
325.702	9.89
325.914	10.32
326.126	10.9
326.338	8.89
326.55	9.89
326.761	8.85
326.973	10.41
327.185	10.67
327.396	10.71
327.608	9.37
327.82	9.47
328.032	9.15
328.243	8.96
328.455	8.15
328.666	8.97
328.878	9.06
329.09	9.94
329.301	8.92
329.513	7.56
329.725	6.07
329.936	7.16
330.148	7.42
330.359	6.59
330.571	7.69
330.782	10.13
330.994	10.84
331.205	9.97
331.417	8.89
331.628	9.53
331.84	10.82
332.051	11.05
332.262	11.33
332.474	11.56
332.685	14.06
332.897	13.93
333.108	13.4
333.319	13.59
333.531	13.68
333.742	14.23
333.953	13.92
334.165	14.3
334.376	12.78
334.587	12.87
334.799	13.56
335.01	11.01
335.221	10.13
335.432	8.33
335.644	7.52
335.855	7.74
336.066	8.57
336.277	8.98
336.488	8.9
336.7	11.09
336.911	11.22
337.122	10.46
337.333	12.14
337.544	12.13
337.755	13.57
337.966	13.07
338.177	12.68
338.388	11.48
338.599	11.64
338.811	10.13
339.022	9.95
339.233	8.98
339.444	9.8
339.655	7.63
339.866	8.89
340.076	9.05
340.287	9.23
340.498	10.29
340.709	9.86
340.92	9.63
341.131	10.8
341.342	11.14
341.553	12.32
341.764	11.9
341.975	12.17
342.185	10.73
342.396	11.27
342.607	11.05
342.818	10.51
343.029	11.39
343.239	11.33
343.45	11
343.661	9.62
343.872	8.73
344.082	8.84
344.293	9.51
344.504	9.96
344.714	8.41
344.925	9.67
345.136	10.54
345.346	10.44
345.557	10.43
345.768	10.23
345.978	10.8
346.189	12.02
346.399	10.8
346.61	11.15
346.821	11.59
347.031	13.34
347.242	12.21
347.452	11.12
347.663	11.36
347.873	12.22
348.084	12.83
348.294	12.61
348.504	10.87
348.715	12.61
348.925	11.86
349.136	12.07
349.346	11.12
349.557	11.88
349.767	12.46
349.977	12.41
350.188	12.22
350.398	12.03
350.608	12.17
350.819	12.84
351.029	12.15
351.239	12.74
351.449	12.72
351.66	12.54
351.87	12.04
352.08	10.48
352.29	10.08
352.501	8.15
352.711	8.02
352.921	7.72
353.131	7.66
353.341	7.87
353.552	7.56
353.762	6.84
353.972	6.19
354.182	6.87
354.392	8.33
354.602	8.93
354.812	10.74
355.022	11.01
355.232	10.35
355.442	10.2
355.652	9.05
355.862	9.08
356.072	7.61
356.282	9.69
356.492	9.37
356.702	9.93
356.912	9.3
357.122	8.81
357.332	8.48
357.542	9.98
357.752	10.02
357.962	11.18
358.171	11.86
358.381	13.42
358.591	12.07
358.801	12.5
359.011	11.65
359.221	11.78
359.43	11.9
359.64	11.85
359.85	11.26
360.06	12.58
360.269	11.61
360.479	11.3
360.689	11.48
360.899	12.2
361.108	12.33
361.318	12.6
361.528	13.41
361.737	13.33
361.947	13.28
362.156	13.1
362.366	12.08
362.576	12.19
362.785	11.92
362.995	11.63
363.204	10.73
363.414	10.44
363.623	10.07
363.833	9.4
364.042	9.54
364.252	9.51
364.461	9.25
364.671	8.89
364.88	8.73
365.09	8.74
365.299	8.58
365.509	8.36
365.718	8.09
365.927	8.23
366.137	8.2
366.346	8.15
366.555	8.93
366.765	9.69
366.974	10.29
367.183	11.17
367.393	10.75
367.602	10.57
367.811	11.15
368.021	11.32
368.23	10.65
368.439	9.68
368.648	9.24
368.857	8.14
369.067	7.87
369.276	7.29
369.485	6.34
369.694	6.21
369.903	6.9
370.112	6.95
370.321	6.24
370.531	6.15
370.74	7.4
370.949	7.67
371.158	8.09
371.367	8.08
371.576	7.95
371.785	8.11
371.994	8.68
372.203	8.74
372.412	8.84
372.621	8.62
372.83	9.46
373.039	8.81
373.248	8.41
373.457	8.91
373.666	9.3
373.874	9.82
374.083	9.83
374.292	9.84
374.501	9.55
374.71	9
374.919	9.17
375.128	8.95
375.336	8.91
375.545	9.02
375.754	8.32
375.963	7.62
376.171	7.57
376.38	8.55
376.589	9.2
376.798	8.74
377.006	9.26
377.215	9.57
377.424	8.91
377.632	9.48
377.841	9.56
378.05	10.15
378.258	9.64
378.467	9.9
378.675	9.48
378.884	9.16
379.093	9.71
379.301	9.76
379.51	9.42
379.718	9.99
379.927	9.64
380.135	9.51
380.344	9.06
380.552	10.28
380.761	9.55
380.969	9.05
381.177	8.51
381.386	7.92
381.594	7.3
381.803	7.82
382.011	7.75
382.219	7.72
382.428	7.81
382.636	7.89
382.845	7.13
383.053	7.33
383.261	7.62
383.469	7.95
383.678	8.22
383.886	8.54
384.094	8.56
384.302	8.22
384.511	8.13
384.719	7.81
384.927	7.7
385.135	7.71
385.343	7.59
385.552	7.09
385.76	6.8
385.968	6.94
386.176	6.94
386.384	6.73
386.592	7.47
386.8	7.89
387.008	7.67
387.216	8.18
387.424	8.11
387.633	7.94
387.841	8.05
388.049	8.04
388.257	7.62
388.465	8.1
388.672	8.22
388.88	8.14
389.088	7.56
389.296	7.76
389.504	7.08
389.712	7.32
389.92	7.48
390.128	7.2
390.336	7.11
390.544	6.88
390.751	6.06
390.959	6.22
391.167	5.93
391.375	6.15
391.583	6.35
391.79	6.64
391.998	6.39
392.206	6.38
392.414	6.35
392.621	6.43
392.829	6.66
393.037	7.1
393.244	6.86
393.452	7.18
393.66	7.02
393.867	6.88
394.075	6.68
394.283	6.62
394.49	6.76
394.698	6.8
394.905	6.59
395.113	6.71
395.32	6.24
395.528	6.23
395.735	6
395.943	6.15
396.15	6.01
396.358	5.87
396.565	5.88
396.773	5.66
396.98	5.64
397.188	5.93
397.395	5.67
397.602	6.16
397.81	6.57
398.017	6.2
398.225	6.19
398.432	6.5
398.639	6.56
398.847	6.83
399.054	6.87
399.261	6.89
399.468	6.41
399.676	6.56
399.883	6.34
400.09	5.9
400.297	6.23
400.505	6.19
400.712	6.14
400.919	6.16
401.126	5.89
401.333	5.88
401.54	6.35
401.748	6.9
401.955	6.55
402.162	6.3
402.369	6.31
402.576	6.21
402.783	6.19
402.99	6.06
403.197	5.98
403.404	6.32
403.611	6.23
403.818	6.13
404.025	5.84
404.232	6.18
404.439	6.54
404.646	6.54
404.853	6.24
405.06	6.35
405.267	6.42
405.474	6.51
405.681	6.02
405.887	6.07
406.094	6.14
406.301	6.06
406.508	5.87
406.715	5.6
406.922	5.73
407.128	5.9
407.335	5.69
407.542	5.65
407.749	6.02
407.955	6.45
408.162	6.68
408.369	6.44
408.575	6.66
408.782	6.81
408.989	6.74
409.195	6.72
409.402	6.81
409.609	7.07
409.815	6.82
410.022	6.66
410.228	6.6
410.435	6.53
410.642	6.45
410.848	6.55
411.055	6.74
411.261	7
411.468	6.76
411.674	6.7
411.881	6.21
412.087	6.41
412.294	6.22
412.5	6.02
412.706	6.06
412.913	5.96
413.119	5.72
413.326	5.84
413.532	5.77
413.738	5.95
413.945	6.29
414.151	6.48
414.357	6.58
414.564	6.76
414.77	7.11
414.976	7.28
415.182	7.53
415.389	7.59
415.595	7.44
415.801	7.22
416.007	7.12
416.214	6.65
416.42	6.74
416.626	6.68
416.832	6.6
417.038	6.32
417.244	6.23
417.45	6.26
417.657	6.16
417.863	6.26
418.069	6.32
418.275	6.33
418.481	6.39
418.687	6.24
418.893	6.24
419.099	6.24
419.305	6.34
419.511	6.27
419.717	6.33
419.923	6.32
420.129	6.19
420.335	6.23
420.541	6.24
420.746	6.2
420.952	6.4
421.158	6.5
421.364	6.61
421.57	6.51
421.776	6.67
421.982	6.59
422.187	6.77
422.393	6.77
422.599	6.83
422.805	6.84
423.01	6.92
423.216	6.73
423.422	6.63
423.628	6.51
423.833	6.55
424.039	6.3
424.245	6.3
424.45	6.09
424.656	6.07
424.862	6.06
425.067	6.08
425.273	6.17
425.478	6.15
425.684	6.22
425.889	6.24
426.095	6.07
426.301	6.27
426.506	6.19
426.712	6.4
426.917	6.43
427.123	6.38
427.328	6.31
427.533	6.27
427.739	6.37
427.944	6.31
428.15	6.27
428.355	6.44
428.561	6.11
428.766	5.88
428.971	5.92
429.177	5.84
429.382	5.91
429.587	5.96
429.793	6.03
429.998	6.16
430.203	5.95
430.408	6
430.614	6.06
430.819	5.98
431.024	6.3
431.229	6.19
431.434	6.18
431.64	6.14
431.845	6.22
432.05	6.18
432.255	6.33
432.46	6.27
432.665	6.24
432.87	6.12
433.076	6.45
433.281	6.52
433.486	6.44
433.691	6.54
433.896	6.54
434.101	6.56
434.306	6.33
434.511	6.18
434.716	6.42
434.921	6.21
435.126	6.5
435.331	6.38
435.535	6.3
435.74	6.18
435.945	6.16
436.15	6.05
436.355	6.01
436.56	6.12
436.765	6.08
436.97	6
437.174	6.2
437.379	6.01
437.584	5.91
437.789	5.85
437.993	5.93
438.198	5.86
438.403	5.83
438.608	5.65
438.812	5.64
439.017	5.6
439.222	5.57
439.426	5.58
439.631	5.47
439.836	5.68
440.04	5.71
440.245	5.64
440.45	5.59
440.654	5.66
440.859	5.81
441.063	5.94
441.268	6.06
441.472	6.06
441.677	6.04
441.881	6.1
442.086	5.84
442.29	6
442.495	6.05
442.699	6.15
442.904	6.07
443.108	5.92
443.312	5.74
443.517	5.68
443.721	5.63
443.925	5.54
444.13	5.78
444.334	6
444.538	5.94
444.743	5.96
444.947	5.89
445.151	5.92
445.356	5.89
445.56	5.93
445.764	5.9
445.968	5.99
446.173	6.02
446.377	5.82
446.581	5.75
446.785	5.67
446.989	5.59
447.193	5.62
447.398	5.61
447.602	5.69
447.806	5.63
448.01	5.73
448.214	5.65
448.418	5.79
448.622	5.94
448.826	5.96
449.03	5.94
449.234	6.1
449.438	6.07
449.642	6.11
449.846	6.23
450.05	6.29
450.254	6.11
450.458	6.17
450.662	6.1
450.866	5.79
451.069	5.65
451.273	5.71
451.477	5.78
451.681	5.88
451.885	5.84
452.089	5.85
452.292	5.87
452.496	5.94
452.7	5.93
452.904	5.77
453.107	6.09
453.311	6.26
453.515	6.07
453.719	5.91
453.922	5.83
454.126	5.84
454.33	5.71
454.533	5.82
454.737	5.78
454.94	5.65
455.144	5.76
455.348	5.67
455.551	5.63
455.755	5.69
455.958	5.66
456.162	5.72
456.365	5.62
456.569	5.5
456.772	5.5
456.976	5.35
457.179	5.31
457.383	5.16
457.586	5.18
457.79	5.21
457.993	5.32
458.196	5.27
458.4	5.18
458.603	5.22
458.807	5.43
459.01	5.32
459.213	5.42
459.417	5.33
459.62	5.38
459.823	5.39
460.026	5.36
460.23	5.28
460.433	5.55
460.636	5.66
460.839	5.88
461.042	5.88
461.246	5.97
461.449	6.02
461.652	6.15
461.855	6.2
462.058	6.1
462.261	6.18
462.464	6.22
462.668	6.17
462.871	6.16
463.074	5.98
463.277	5.87
463.48	5.94
463.683	5.92
463.886	6.07
464.089	6.36
464.292	6.59
464.495	6.5
464.698	6.57
464.901	6.35
465.104	6.25
465.306	6.14
465.509	6.15
465.712	6.1
465.915	6
466.118	5.96
466.321	5.48
466.524	5.31
466.726	5.5
466.929	5.52
467.132	5.56
467.335	5.55
467.538	5.62
467.74	5.8
467.943	5.62
468.146	5.67
468.348	5.84
468.551	6.07
468.754	5.96
468.956	5.86
469.159	5.81
469.362	5.86
469.564	5.93
469.767	6.01
469.969	5.91
470.172	6.04
470.375	6.07
470.577	6.04
470.78	6.22
470.982	6.38
471.185	6.28
471.387	6.36
471.59	6.31
471.792	6.16
471.995	6.2
472.197	6.11
472.399	6.14
472.602	6.27
472.804	6.16
473.007	6.05
473.209	5.95
473.411	6.04
473.614	5.95
473.816	6.11
474.018	6.29
474.22	6
474.423	5.99
474.625	5.94
474.827	5.9
475.03	5.98
475.232	5.92
475.434	5.73
475.636	5.83
475.838	5.99
476.04	5.81
476.243	5.72
476.445	5.76
476.647	5.65
476.849	5.63
477.051	5.6
477.253	5.69
477.455	5.71
477.657	5.88
477.859	5.75
478.061	5.61
478.263	5.6
478.465	5.66
478.667	5.75
478.869	5.99
479.071	6.04
479.273	6.09
479.475	5.96
479.677	5.94
479.879	6.06
480.081	6.17
480.283	6.25
480.485	6.37
480.686	6.28
480.888	6.21
481.09	5.97
481.292	6.01
481.494	5.92
481.695	5.92
481.897	5.94
482.099	5.85
482.301	5.87
482.502	5.88
482.704	5.78
482.906	5.84
483.107	5.87
483.309	5.96
483.511	5.93
483.712	5.98
483.914	5.95
484.115	5.94
484.317	5.94
484.519	5.89
484.72	5.9
484.922	5.97
485.123	5.94
485.325	5.86
485.526	5.84
485.728	5.81
485.929	5.72
486.131	5.77
486.332	5.78
486.534	5.77
486.735	5.78
486.936	5.75
487.138	5.75
487.339	5.75
487.541	5.88
487.742	5.9
487.943	5.93
488.144	5.96
488.346	5.89
488.547	5.89
488.748	5.96
488.95	5.96
489.151	5.93
489.352	5.85
489.553	5.92
489.755	5.88
489.956	5.85
490.157	5.84
490.358	5.96
490.559	5.98
490.76	5.94
490.961	5.97
491.163	5.96
491.364	5.97
491.565	6.04
491.766	6.08
491.967	6.11
492.168	6.1
492.369	6.12
492.57	6.05
492.771	6.13
492.972	6.15
493.173	6.13
493.374	6.22
493.575	6.21
493.776	6.3
493.976	6.23
494.177	6.16
494.378	6.26
494.579	6.33
494.78	6.44
494.981	6.24
495.182	6.36
495.382	6.34
495.583	6.23
495.784	6.18
495.985	6.07
496.185	6.12
496.386	6.18
496.587	6.11
496.788	6.04
496.988	6.05
497.189	6.18
497.39	6
497.59	6.07
497.791	6.14
497.992	6.31
498.192	6.3
498.393	6.25
498.593	6.26
498.794	6.28
498.994	6.46
499.195	6.39
499.395	6.44
499.596	6.49
499.796	6.42
499.997	6.57
500.197	6.63
500.398	6.54
500.598	6.41
500.799	6.35
500.999	6.42
501.199	6.33
501.4	6.26
501.6	6.28
501.801	6.39
502.001	6.43
502.201	6.2
502.402	6.19
502.602	6.28
502.802	6.32
503.002	6.48
503.203	6.31
503.403	6.3
503.603	6.45
503.803	6.45
504.003	6.44
504.204	6.37
504.404	6.4
504.604	6.15
504.804	6.17
505.004	6.32
505.204	6.12
505.404	6.33
505.604	6.3
505.804	6.27
506.005	6.22
506.205	6.32
506.405	6.31
506.605	6.29
506.805	6.47
507.005	6.48
507.204	6.58
507.404	6.74
507.604	6.78
507.804	6.87
508.004	6.66
508.204	6.52
508.404	6.46
508.604	6.47
508.804	6.41
509.003	6.45
509.203	6.56
509.403	6.46
509.603	6.46
509.803	6.29
510.002	6.29
510.202	6.54
510.402	6.68
510.602	6.71
510.801	6.81
511.001	6.99
511.201	7.04
511.4	6.94
511.6	6.97
511.8	6.93
511.999	6.96
512.199	6.85
512.398	6.88
512.598	6.85
512.797	6.94
512.997	6.94
513.197	6.96
513.396	6.86
513.596	6.88
513.795	6.88
513.994	6.96
514.194	6.97
514.393	7.05
514.593	6.92
514.792	7.03
514.992	7.02
515.191	6.93
515.39	6.8
515.59	6.82
515.789	6.87
515.988	7.01
516.188	7.01
516.387	6.99
516.586	6.96
516.786	7.03
516.985	7.03
517.184	6.81
517.383	6.78
517.582	6.8
517.782	6.87
517.981	6.88
518.18	6.87
518.379	6.89
518.578	6.96
518.777	6.99
518.976	6.97
519.176	6.9
519.375	7
519.574	7.05
519.773	7.14
519.972	7.16
520.171	7.21
520.37	7.12
520.569	7.08
520.768	7.16
520.967	7.17
521.166	7.3
521.365	7.57
521.564	7.5
521.762	7.45
521.961	7.38
522.16	7.31
522.359	7.44
522.558	7.57
522.757	7.77
522.956	7.77
523.154	7.77
523.353	7.67
523.552	7.44
523.751	7.65
523.949	7.74
524.148	7.82
524.347	7.77
524.546	7.73
524.744	7.74
524.943	7.75
525.142	7.82
525.34	7.83
525.539	7.94
525.737	7.96
525.936	7.95
526.135	8.01
526.333	8.04
526.532	8.23
526.73	8.24
526.929	8.21
527.127	8.14
527.326	8.15
527.524	8.28
527.723	8.26
527.921	8.36
528.12	8.44
528.318	8.5
528.516	8.51
528.715	8.46
528.913	8.43
529.112	8.55
529.31	8.62
529.508	8.61
529.707	8.6
529.905	8.71
530.103	8.66
530.301	8.7
530.5	8.63
530.698	8.78
530.896	8.76
531.094	8.78
531.293	8.67
531.491	8.64
531.689	8.71
531.887	8.87
532.085	8.72
532.283	8.75
532.481	8.69
532.68	8.77
532.878	8.68
533.076	8.86
533.274	8.96
533.472	8.97
533.67	9
533.868	9.01
534.066	8.9
534.264	8.98
534.462	9.09
534.66	9.12
534.858	9.16
535.056	9.23
535.253	9.17
535.451	9.2
535.649	9.28
535.847	9.41
536.045	9.44
536.243	9.53
536.441	9.5
536.638	9.48
536.836	9.51
537.034	9.61
537.232	9.51
537.43	9.55
537.627	9.52
537.825	9.45
538.023	9.46
538.22	9.43
538.418	9.45
538.616	9.55
538.813	9.5
539.011	9.52
539.209	9.49
539.406	9.63
539.604	9.77
539.801	9.85
539.999	10.06
540.196	10.07
540.394	10.18
540.591	10.25
540.789	10.31
540.986	10.44
541.184	10.52
541.381	10.62
541.579	10.72
541.776	10.71
541.974	10.72
542.171	10.71
542.368	10.75
542.566	10.8
542.763	10.84
542.96	10.87
543.158	10.88
543.355	10.83
543.552	10.84
543.75	10.76
543.947	10.76
544.144	10.8
544.341	10.81
544.539	10.79
544.736	10.73
544.933	10.66
545.13	10.77
545.327	10.82
545.524	10.82
545.722	10.9
545.919	10.94
546.116	11.1
546.313	11.09
546.51	11.21
546.707	11.25
546.904	11.45
547.101	11.56
547.298	11.55
547.495	11.52
547.692	11.65
547.889	11.57
548.086	11.58
548.283	11.62
548.48	11.76
548.677	11.74
548.874	11.87
549.07	11.81
549.267	11.85
549.464	11.97
549.661	12.16
549.858	12.47
550.055	12.6
550.251	12.91
550.448	13.01
550.645	13.08
550.842	13.16
551.038	13.28
551.235	13.52
551.432	13.46
551.628	13.57
551.825	13.51
552.022	13.5
552.218	13.81
552.415	13.8
552.612	13.93
552.808	14.04
553.005	14.06
553.201	13.97
553.398	13.88
553.594	13.94
553.791	13.81
553.987	14.05
554.184	13.99
554.38	13.79
554.577	13.8
554.773	13.67
554.97	13.7
555.166	13.91
555.362	13.95
555.559	13.94
555.755	14.21
555.952	14.37
556.148	14.34
556.344	14.47
556.541	14.79
556.737	15.19
556.933	15.26
557.129	15.28
557.326	15.23
557.522	15.36
557.718	15.51
557.914	15.4
558.11	15.37
558.307	15.48
558.503	15.63
558.699	15.58
558.895	15.5
559.091	15.77
559.287	16.06
559.483	16.31
559.679	16.53
559.876	16.54
560.072	16.59
560.268	16.8
560.464	16.86
560.66	16.95
560.856	17.01
561.052	16.9
561.247	16.8
561.443	16.65
561.639	16.71
561.835	16.63
562.031	17.05
562.227	17.42
562.423	17.64
562.619	17.88
562.815	17.92
563.01	18.01
563.206	18.26
563.402	18.45
563.598	18.71
563.793	18.75
563.989	18.84
564.185	18.68
564.381	18.88
564.576	18.71
564.772	18.69
564.968	18.85
565.163	18.78
565.359	18.78
565.555	18.86
565.75	18.9
565.946	18.94
566.141	19.05
566.337	19.13
566.532	19.06
566.728	19.23
566.923	19.3
567.119	19.2
567.314	19.38
567.51	19.59
567.705	19.85
567.901	19.94
568.096	20.09
568.292	20.18
568.487	20.25
568.682	20.31
568.878	20.41
569.073	20.33
569.268	20.49
569.464	20.57
569.659	20.52
569.854	20.47
570.05	20.73
570.245	20.77
570.44	21.01
570.635	21.05
570.831	21.17
571.026	21.34
571.221	21.5
571.416	21.68
571.611	21.9
571.806	21.97
572.002	21.93
572.197	21.82
572.392	21.78
572.587	21.74
572.782	21.87
572.977	22
573.172	21.89
573.367	22.01
573.562	21.95
573.757	22.02
573.952	22.01
574.147	22.06
574.342	22.06
574.537	22.12
574.732	22.29
574.927	22.06
575.121	21.93
575.316	22.12
575.511	22.18
575.706	22.24
575.901	22.12
576.096	22.2
576.29	22.38
576.485	22.59
576.68	22.76
576.875	22.73
577.069	23.02
577.264	23.04
577.459	23.13
577.654	23.18
577.848	23.42
578.043	23.53
578.238	23.45
578.432	23.59
578.627	23.44
578.821	23.24
579.016	23.2
579.21	23.42
579.405	23.76
579.6	23.89
579.794	23.78
579.989	23.72
580.183	23.78
580.378	23.94
580.572	23.58
580.766	23.78
580.961	24.22
581.155	24.3
581.35	24.14
581.544	23.56
581.738	23.29
581.933	23.46
582.127	23.51
582.321	23.49
582.516	23.76
582.71	23.86
582.904	23.71
583.099	23.72
583.293	23.8
583.487	23.87
583.681	24.42
583.875	24.56
584.07	24.77
584.264	24.77
584.458	24.86
584.652	24.58
584.846	24.67
585.04	24.87
585.234	24.78
585.428	25
585.623	25.03
585.817	24.9
586.011	25.1
586.205	24.88
586.399	24.76
586.593	24.44
586.787	24.68
586.981	24.75
587.174	24.78
587.368	24.74
587.562	24.47
587.756	24.54
587.95	24.68
588.144	24.47
588.338	24.51
588.532	24.71
588.725	25.18
588.919	24.97
589.113	25.14
589.307	25.12
589.501	25.25
589.694	25.42
589.888	25.24
590.082	25.29
590.275	25.48
590.469	25.62
590.663	25.54
590.856	25.57
591.05	25.62
591.244	25.48
591.437	25.55
591.631	25.56
591.824	25.72
592.018	25.74
592.212	26.02
592.405	25.63
592.599	25.55
592.792	25.66
592.986	25.7
593.179	25.87
593.372	25.85
593.566	26.01
593.759	26.05
593.953	26.12
594.146	26.22
594.339	25.95
594.533	26.16
594.726	26.48
594.92	26.59
595.113	26.44
595.306	26.49
595.499	26.63
595.693	26.62
595.886	26.75
596.079	26.81
596.272	27.04
596.466	26.97
596.659	26.98
596.852	26.66
597.045	26.62
597.238	26.77
597.431	26.93
597.624	26.93
597.818	26.65
598.011	26.51
598.204	26.16
598.397	26.24
598.59	26.2
598.783	26.22
598.976	26.48
599.169	26.41
599.362	26.26
599.555	26.09
599.748	25.97
599.941	26.13
600.134	26.18
600.326	26.22
600.519	25.98
600.712	26.01
600.905	26.05
601.098	25.89
601.291	25.98
601.483	26.04
601.676	26.3
601.869	26.84
602.062	27.03
602.255	27.2
602.447	27.62
602.64	27.79
602.833	28.12
603.025	28.28
603.218	28.33
603.411	28.34
603.603	28.29
603.796	28.05
603.989	27.73
604.181	27.74
604.374	27.47
604.566	27.53
604.759	27.35
604.951	27.32
605.144	27.31
605.336	27.33
605.529	27.35
605.721	27.41
605.914	27.53
606.106	27.48
606.299	27.39
606.491	27.68
606.683	27.42
606.876	27.49
607.068	27.29
607.26	27.14
607.453	26.98
607.645	27.13
607.837	26.99
608.03	26.96
608.222	27.39
608.414	27.54
608.606	27.56
608.799	27.88
608.991	28.03
609.183	27.98
609.375	28.15
609.567	28.37
609.759	27.97
609.952	28.23
610.144	28.32
610.336	27.99
610.528	27.76
610.72	27.72
610.912	27.43
611.104	27.49
611.296	27.64
611.488	27.78
611.68	27.59
611.872	27.96
612.064	27.77
612.256	27.82
612.448	27.99
612.64	28.11
612.832	27.8
613.023	27.72
613.215	27.78
613.407	27.63
613.599	27.55
613.791	27.78
613.983	27.75
614.174	27.6
614.366	27.26
614.558	27.31
614.75	27.35
614.941	27.6
615.133	27.7
615.325	27.94
615.516	28.17
615.708	28.32
615.9	28.16
616.091	28.14
616.283	28.47
616.475	28.65
616.666	28.78
616.858	28.92
617.049	29.24
617.241	29.44
617.432	29.41
617.624	29.37
617.815	29.19
618.007	29.24
618.198	29.14
618.39	29.02
618.581	29.04
618.773	28.81
618.964	28.87
619.155	28.68
619.347	28.45
619.538	28.01
619.729	28.2
619.921	28.4
620.112	28.54
620.303	28.7
620.494	28.76
620.686	28.99
620.877	28.98
621.068	29.09
621.259	29.21
621.451	29.32
621.642	29.28
621.833	28.93
622.024	28.65
622.215	28.62
622.406	28.41
622.597	28.75
622.788	28.25
622.98	28.48
623.171	28.53
623.362	28.74
623.553	29.04
623.744	29.18
623.935	29.63
624.126	29.55
624.317	29.54
624.508	30.22
624.698	29.96
624.889	30.42
625.08	30.26
625.271	30.05
625.462	29.85
625.653	29.46
625.844	29.46
626.034	29.15
626.225	29.15
626.416	28.9
626.607	28.62
626.798	28.49
626.988	28.3
627.179	28.37
627.37	28.44
627.56	28.44
627.751	28.64
627.942	28.5
628.132	28.72
628.323	28.77
628.514	28.88
628.704	28.73
628.895	28.92
629.085	28.89
629.276	28.64
629.466	28.62
629.657	28.79
629.847	28.58
630.038	28.61
630.228	28.38
630.419	28.64
630.609	29.02
630.8	28.9
630.99	28.99
631.181	28.75
631.371	28.8
631.561	28.46
631.752	28.13
631.942	28.27
632.132	28.32
632.323	28.16
632.513	27.96
632.703	27.87
632.893	27.72
633.084	27.36
633.274	27.81
633.464	27.77
633.654	27.99
633.844	27.97
634.034	28.18
634.225	28.6
634.415	28.74
634.605	28.69
634.795	28.51
634.985	28.96
635.175	29.07
635.365	28.82
635.555	29.25
635.745	29.57
635.935	29.78
636.125	29.85
636.315	29.47
636.505	29.5
636.695	29.79
636.885	30.03
637.075	29.7
637.265	29.88
637.455	30.41
637.644	30.24
637.834	29.93
638.024	29.79
638.214	29.67
638.404	29.87
638.593	29.9
638.783	29.5
638.973	29.19
639.163	29.62
639.352	29.6
639.542	29.09
639.732	29.19
639.921	29.38
640.111	29.25
640.301	28.76
640.49	28.77
640.68	28.84
640.87	29.24
641.059	29.33
641.249	29.3
641.438	29.36
641.628	29.72
641.817	29.17
642.007	29.44
642.196	29.62
642.386	30.1
642.575	29.84
642.764	30.19
642.954	30.14
643.143	30.16
643.333	29.45
643.522	29.88
643.711	29.46
643.901	30.17
644.09	30.3
644.279	30.58
644.469	30.08
644.658	30.11
644.847	29.52
645.036	29.68
645.226	29.79
645.415	30.58
645.604	30.08
645.793	30.6
645.982	30.17
646.171	29.56
646.361	29.54
646.55	29.88
646.739	29.48
646.928	29.61
647.117	29.01
647.306	28.92
647.495	28.65
647.684	28.51
647.873	28.21
648.062	28.39
648.251	28.4
648.44	28.43
648.629	28.56
648.818	29.31
649.007	29.3
649.196	29.31
649.384	29.28
649.573	29.39
649.762	29.92
649.951	30
650.14	30.06
650.328	30.42
650.517	29.98
650.706	30.07
650.895	29.87
651.083	29.55
651.272	29.88
651.461	29.53
651.65	29.67
651.838	29.15
652.027	29.27
652.216	28.89
652.404	29.03
652.593	29.5
652.781	29.69
652.97	29.54
653.158	29.96
653.347	29.84
653.535	30.28
653.724	30.35
653.912	30.31
654.101	30.56
654.289	30.42
654.478	30.4
654.666	29.86
654.855	29.74
655.043	29.64
655.231	29.65
655.42	30.2
655.608	30.16
655.796	29.62
655.985	29.97
656.173	29.43
656.361	29.7
656.55	29.14
656.738	29.56
656.926	29.8
657.114	29.99
657.302	29.86
657.491	29.6
657.679	29.79
657.867	30.31
658.055	30.15
658.243	30.31
658.431	30.5
658.619	30.62
658.807	30.64
658.996	30.12
659.184	30.24
659.372	30.41
659.56	30.46
659.748	30.6
659.936	30.53
660.124	30.44
660.311	30.77
660.499	30.76
660.687	30.6
660.875	30.5
661.063	30.75
661.251	30.65
661.439	30.55
661.627	30.13
661.814	30.05
662.002	29.92
662.19	30.38
662.378	30.01
662.565	30.31
662.753	30.37
662.941	30.45
663.129	30.24
663.316	30.64
663.504	30.88
663.692	31.3
663.879	31.31
664.067	31.4
664.254	31.33
664.442	31.16
664.63	30.89
664.817	31.23
665.005	31.18
665.192	31.56
665.38	31.25
665.567	31.63
665.755	31.99
665.942	31.83
666.13	31.31
666.317	30.88
666.504	30.7
666.692	30.95
666.879	30.71
667.067	30.78
667.254	30.59
667.441	30.55
667.629	30.54
667.816	29.95
668.003	29.97
668.19	30.45
668.378	30.16
668.565	30.92
668.752	30.98
668.939	31.01
669.127	30.74
669.314	31.03
669.501	30.96
669.688	30.64
669.875	31.45
670.062	31.33
670.249	31.34
670.436	31.81
670.623	31.53
670.81	31.25
670.997	31.13
671.184	31.43
671.371	30.88
671.558	30.87
671.745	30.98
671.932	30.46
672.119	30.45
672.306	30.23
672.493	30.75
672.68	30.37
672.867	31.13
673.054	31.67
673.24	31.97
673.427	32.39
673.614	32.16
673.801	32.04
673.988	31.82
674.174	32.05
674.361	32.23
674.548	32.03
674.734	32.65
674.921	31.63
675.108	31.23
675.294	30.85
675.481	30.69
675.668	31.37
675.854	31.38
676.041	31.38
676.227	31.55
676.414	31.36
676.601	31.2
676.787	30.67
676.974	30.96
677.16	31.41
677.347	31.95
677.533	32.5
677.719	32.4
677.906	32.48
678.092	32.18
678.279	32.07
678.465	32.45
678.651	32.35
678.838	32.58
679.024	32.65
679.21	32.34
679.397	31.69
679.583	31.24
679.769	30.87
679.955	30.89
680.142	30.9
680.328	30.94
680.514	31.09
680.7	31.33
680.886	31.03
681.073	30.88
681.259	31
681.445	31.09
681.631	31.08
681.817	31.45
682.003	31.42
682.189	31.69
682.375	31.45
682.561	31.21
682.747	30.67
682.933	30.97
683.119	31.16
683.305	31.37
683.491	31.19
683.677	31.05
683.863	30.75
684.049	30.39
684.235	30.8
684.42	30.39
684.606	29.9
684.792	30
684.978	29.93
685.164	29.58
685.349	29.6
685.535	30.27
685.721	30.2
685.907	30.24
686.092	31.04
686.278	30.93
686.464	31.64
686.649	31.8
686.835	32.32
687.021	31.86
687.206	32.07
687.392	31.53
687.577	31.28
687.763	31.42
687.948	31.56
688.134	31.31
688.319	30.46
688.505	29.91
688.69	30
688.876	29.57
689.061	30.18
689.247	29.83
689.432	29.96
689.618	29.9
689.803	30.18
689.988	30
690.174	29.83
690.359	30.71
690.544	31.33
690.73	31.38
690.915	31.43
691.1	31.05
691.285	31.17
691.471	31.36
691.656	31.64
691.841	31.62
692.026	31.71
692.211	31.62
692.396	31.46
692.582	31.01
692.767	31.35
692.952	31.5
693.137	31.67
693.322	32.02
693.507	32.27
693.692	32.25
693.877	31.98
694.062	32.01
694.247	31.88
694.432	32.05
694.617	32.1
694.802	31.48
694.987	31.21
695.172	31.29
695.357	31.27
695.541	31.25
695.726	30.84
695.911	30.98
696.096	30.88
696.281	30.9
696.466	30.31
696.65	30.37
696.835	30.84
697.02	30.81
697.204	30.57
697.389	30.71
697.574	30.9
697.759	31.2
697.943	31.11
698.128	31.29
698.312	31.33
698.497	31.57
698.682	31.37
698.866	31.51
699.051	31.63
699.235	31.74
699.42	31.83
699.604	31.44
699.789	31.12
699.973	31.03
700.158	30.75
700.342	30.87
700.527	30.55
700.711	31.27
700.895	30.55
701.08	30.9
701.264	30.45
701.448	30.57
701.633	30.61
701.817	30.77
702.001	30.72
702.186	31.29
702.37	30.63
702.554	31.02
702.738	31.02
702.923	31.54
703.107	31.43
703.291	32.43
703.475	31.87
703.659	32.3
703.843	32.68
704.027	33.55
704.212	33.25
704.396	34.33
704.58	34.31
704.764	34.67
704.948	35.43
705.132	34.88
705.316	34.48
705.5	34.83
705.684	34.17
705.868	33.94
706.052	33.78
706.235	33.74
706.419	33.32
706.603	33.52
706.787	32.57
706.971	31.81
707.155	31.96
707.339	32.05
707.522	31.97
707.706	32.02
707.89	32.2
708.074	31.89
708.257	31.59
708.441	31.09
708.625	30.9
708.808	31.38
708.992	31.46
709.176	31.45
709.359	31.58
709.543	31.46
709.727	31.79
709.91	31.42
710.094	32.14
710.277	32.5
710.461	33.16
710.644	32.73
710.828	32.47
711.011	32.41
711.195	32.04
711.378	31.83
711.562	31.58
711.745	31.33
711.928	31.26
712.112	30.96
712.295	31.09
712.478	30.8
712.662	31.44
712.845	30.68
713.028	30.69
713.212	30.59
713.395	30.57
713.578	30.57
713.761	30.92
713.945	30.61
714.128	30.49
714.311	30.83
714.494	31.03
714.677	30.7
714.86	31.12
715.043	31.4
715.227	32.11
715.41	32.46
715.593	32.55
715.776	32.34
715.959	32.98
716.142	32.63
716.325	31.64
716.508	31.43
716.691	31.45
716.874	31.94
717.057	31.57
717.239	31.76
717.422	31.45
717.605	32.19
717.788	32.26
717.971	31.87
718.154	31.54
718.337	32.32
718.519	32.06
718.702	31.64
718.885	31.1
719.068	31.26
719.25	30.55
719.433	31.18
719.616	30.54
719.798	31.34
719.981	31.22
720.164	31.84
720.346	32.14
720.529	32.17
720.712	32.99
720.894	33.06
721.077	33.58
721.259	33.84
721.442	33.64
721.624	33.38
721.807	31.19
721.989	31.85
722.172	31.87
722.354	31.31
722.537	31.29
722.719	30.36
722.901	29.65
723.084	29.37
723.266	29.84
723.448	29.23
723.631	29.94
723.813	31.08
723.995	31.4
724.178	30.37
724.36	29.92
724.542	30.01
724.724	31.41
724.907	32.09
725.089	31.39
725.271	30.47
725.453	30.35
725.635	30.67
725.817	31.01
725.999	30.82
726.181	31.41
726.364	31.25
726.546	32.28
726.728	31.24
726.91	31.45
727.092	31.93
727.274	31.84
727.456	32.16
727.638	30.92
727.819	30.74
728.001	30.08
728.183	30.13
728.365	30.38
728.547	28.88
728.729	28.63
728.911	27.78
729.093	26.77
729.274	26.76
729.456	25.89
729.638	26.72
729.82	26.83
730.001	27.12
730.183	27.36
730.365	27.59
730.546	29.08
730.728	28.66
730.91	29.35
731.091	29.92
731.273	30.36
731.455	31.24
731.636	30.75
731.818	29.95
731.999	30.5
732.181	30.31
732.362	30.57
732.544	29.23
732.725	30.53
732.907	30.11
733.088	30.78
733.27	30
733.451	30.04
733.633	29.94
733.814	31.61
733.995	31.02
734.177	31.38
734.358	31.53
734.539	32.43
734.721	31.91
734.902	32.12
735.083	32.07
735.264	33.22
735.446	33.82
735.627	33.67
735.808	32.5
735.989	32.92
736.17	33.7
736.351	33.3
736.533	33.03
736.714	33.05
736.895	32.59
737.076	32.19
737.257	32.41
737.438	31.86
737.619	33.05
737.8	32.83
737.981	33.15
738.162	32.18
738.343	32.18
738.524	32.12
738.705	31.97
738.886	33.41
739.067	34.27
739.247	33.3
739.428	33.01
739.609	32.35
739.79	34.09
739.971	34.45
740.151	34.86
740.332	35.46
740.513	36.63
740.694	36.36
740.874	35.24
741.055	34.18
741.236	33.88
741.417	33.71
741.597	33.97
741.778	33.11
741.958	32.6
742.139	31.99
742.32	31.7
742.5	31.6
742.681	31.03
742.861	31.68
743.042	32.54
743.222	32.68
743.403	32.61
743.583	31.99
743.764	31.39
743.944	30.6
744.124	30.05
744.305	29.16
744.485	27.97
744.666	29.56
744.846	30.58
745.026	30.83
745.207	32.59
745.387	32.33
745.567	32.72
745.747	31.91
745.928	32.86
746.108	33.69
746.288	33.69
746.468	33.35
746.648	33.06
746.829	32.03
747.009	31.27
747.189	29.11
747.369	29.9
747.549	30.34
747.729	33.46
747.909	32.55
748.089	32.01
748.269	32.91
748.449	33.96
748.629	34.53
748.809	34.28
748.989	33.82
749.169	34.44
749.349	35.01
749.529	34.45
749.709	32.12
749.889	32.15
750.068	33.27
750.248	33.32
750.428	33.28
750.608	33.13
750.788	33.29
750.967	33.17
751.147	34.03
751.327	34.3
751.507	33.57
751.686	34.06
751.866	34.35
752.046	33.3
752.225	32.52
752.405	31.56
752.585	31.11
752.764	31.77
752.944	32.88
753.123	32.98
753.303	31.29
753.482	32.27
753.662	31.26
753.841	31.29
754.021	31.7
754.2	31.62
754.38	32.74
754.559	33.17
754.739	32.75
754.918	32.67
755.097	33.67
755.277	34.1
755.456	33.88
755.635	34.75
755.815	34.08
755.994	34.28
756.173	34.93
756.352	35.52
756.532	34.2
756.711	33.96
756.89	33.2
757.069	32.62
757.248	32.83
757.427	34.08
757.607	35.48
757.786	36.67
757.965	36.1
758.144	35.15
758.323	32.53
758.502	33.42
758.681	31.96
758.86	32.96
759.039	31.76
759.218	32.56
759.397	31.77
759.576	30.41
759.755	28.12
759.934	27.84
760.113	28.1
760.291	29.15
760.47	29.99
760.649	30.62
760.828	30.26
761.007	30.8
761.186	29.65
761.364	28.94
761.543	28.38
761.722	28.81
761.901	29.31
762.079	29.7
762.258	29.43
762.437	29.94
762.615	29.49
762.794	29.47
762.972	28.93
763.151	29.16
763.33	29.06
763.508	29.12
763.687	29.46
763.865	29.31
764.044	29.09
764.222	29.17
764.401	28.2
764.579	28.54
764.758	27.48
764.936	27.3
765.114	27.61
765.293	28.17
765.471	28.28
765.65	28.81
765.828	28.92
766.006	29.59
766.184	29.89
766.363	29.26
766.541	28.87
766.719	29.94
766.898	28.79
767.076	28.51
767.254	29.11
767.432	29.3
767.61	27.98
767.788	28.21
767.967	27.91
768.145	27.53
768.323	28.96
768.501	29.86
768.679	27.9
768.857	29.26
769.035	30.13
769.213	29.57
769.391	29.6
769.569	32.4
769.747	33.52
769.925	34.8
770.103	35.54
770.281	32.9
770.459	32.28
770.636	34.48
770.814	33.11
770.992	32.34
771.17	31.79
771.348	30.65
771.525	28.64
771.703	28.34
771.881	28.73
772.059	28.89
772.236	29.65
772.414	31.81
772.592	32.06
772.769	35.76
772.947	35.28
773.125	36.08
773.302	36.77
773.48	38.8
773.657	38.7
773.835	36.86
774.013	36.45
774.19	38.44
774.368	37.5
774.545	36.77
774.723	34.84
774.9	35.38
775.077	35.72
775.255	34.8
775.432	33.96
775.61	33.89
775.787	34.51
775.964	35.94
776.142	35.8
776.319	35.3
776.496	37.11
776.674	37.8
776.851	37.82
777.028	37.13
777.205	37.99
777.382	37.28
777.56	38.3
777.737	37.49
777.914	34.09
778.091	31.92
778.268	31.31
778.445	30.6
778.622	30.21
778.8	30.21
778.977	30.18
779.154	28.12
779.331	29.35
779.508	27.24
779.685	27.5
779.862	28.9
780.038	31.51
780.215	29.53
780.392	29.18
780.569	27.76
780.746	26.12
780.923	26.24
781.1	26.96
781.277	27.66
781.453	28.97
781.63	27.64
781.807	29.17
781.984	29.87
782.16	32.91
782.337	33.99
782.514	38.12
782.691	41.23
782.867	40.36
783.044	43.78
783.221	40.48
783.397	39.7
783.574	38.94
783.75	36.51
783.927	36.16
784.103	36.48
784.28	35.8
784.456	33.79
784.633	34.52
784.809	33.53
784.986	31.22
785.162	33.53
785.339	34.09
785.515	35.68
785.692	36.52
785.868	35.69
786.044	36.16
786.221	33.99
786.397	34.57
786.573	32.63
786.749	30.99
786.926	31.95
787.102	29.34
787.278	29.18
787.454	28.84
787.631	27.43
787.807	28.05
787.983	29.38
788.159	29.4
788.335	28.33
788.511	28.27
788.687	29.61
788.863	28.32
789.039	28.2
789.216	26.68
789.392	24.78
789.568	27.15
789.744	27.18
789.919	24.55
790.095	26.08
790.271	25.16
790.447	27.14
790.623	26.98
790.799	28.85
790.975	29.38
791.151	31.91
791.327	33.18
791.502	33.94
791.678	31.98
791.854	34.73
792.03	35.08
792.205	37.48
792.381	32.26
792.557	31.28
792.733	29.55
792.908	29.13
793.084	28.02
793.259	29.41
793.435	26.89
793.611	27.28
793.786	29.47
793.962	30.25
794.137	27
794.313	28.76
794.488	28.81
794.664	28.04
794.839	27.82
795.015	24.92
795.19	23.98
795.366	24.5
795.541	23.9
795.716	18.52
795.892	14.47
796.067	19.15
796.242	17.09
796.418	18.17
796.593	20
796.768	16.44
796.944	19.77
797.119	23.41
797.294	24.06
797.469	23.86
797.644	25.22
797.82	26.72
797.995	23.61
798.17	24.19
798.345	23.34
798.52	21.65
798.695	24.2
798.87	23.68
799.045	20.62
799.22	20.51
799.395	21.49
799.57	22.31
799.745	22.53
799.92	22.87
800.095	26.38
800.27	26.95
800.445	29.37
800.62	30.87
800.795	31.75
800.97	30.39
801.145	27.9
801.319	28.83
801.494	26
801.669	28.34
801.844	27.3
802.018	25.94
802.193	25.56
802.368	22.41
802.543	23.57
802.717	19.65
802.892	19.14
803.067	23.11
803.241	23.26
803.416	21.81
803.59	19.8
803.765	19.33
803.94	20.17
804.114	21.11
804.289	22.9
804.463	25.45
804.638	26
804.812	31.93
804.986	32.13
805.161	26.69
805.335	30.97
805.51	31.03
805.684	33.97
805.858	31.55
806.033	29.41
806.207	28.23
806.381	25.96
806.556	26.2
806.73	23
806.904	21.62
807.078	25.69
807.253	26.04
807.427	26.75
807.601	26.84
807.775	27.39
807.949	29.22
808.123	29.57
808.298	29.04
808.472	27.71
808.646	28.01
808.82	26.07
808.994	27.92
809.168	25.37
809.342	22.49
809.516	21.08
809.69	24.59
809.864	28.06
810.038	28.65
810.212	27.91
810.385	31.63
810.559	35.03
810.733	38.41
810.907	36.65
811.081	35.12
811.255	37.82
811.428	36.21
811.602	34.81
811.776	30.42
811.95	32.66
812.123	35.31
812.297	30.59
812.471	28.11
812.644	24.07
812.818	23.5
812.992	24.43
813.165	19.12
813.339	19.7
813.512	15.33
813.686	19.93
813.86	12.93
814.033	11.03
814.207	14.18
814.38	9.19
814.554	12.14
814.727	10.54
814.9	10.99
815.074	19.75
815.247	19.06
815.421	18.9
815.594	17.4
815.767	20.96
815.941	21.28
816.114	23.66
816.287	23.25
816.46	21.35
816.634	19.43
816.807	15.73
816.98	11.23
817.153	10.44
817.327	10.45
817.5	10.29
817.673	11.21
817.846	11.64
818.019	7.01
818.192	6.91
818.365	6.21
818.538	10.56
818.711	12.19
818.884	15.39
819.057	16.32
819.23	22.43
819.403	23.26
819.576	22.39
819.749	20.41
819.922	24.65
820.095	25.02
820.268	28.09
820.441	22.35
820.614	25.6
820.786	23.59
820.959	25.27
821.132	23.28
821.305	24.02
821.477	25.06
821.65	28.11
821.823	26.81
821.996	27.5
822.168	27.78
822.341	29.8
822.514	30.2
822.686	29.88
822.859	30.39
823.031	30.98
823.204	30.71
823.376	30.94
823.549	30.32
823.722	29.96
823.894	29.56
824.067	29.14
824.239	28.83
824.411	28.88
824.584	30.39
824.756	29.52
824.929	28.67
825.101	28.98
825.273	28.14
825.446	27.61
825.618	27.01
825.79	28.47
825.963	27.8
826.135	27.61
826.307	25.51
826.479	23.39
826.652	21.53
826.824	21.61
826.996	22.41
827.168	22.94
827.34	23.62
827.512	25.62
827.684	24.5
827.856	24.29
828.029	23.66
828.201	25.05
828.373	24.51
828.545	26.3
828.717	26.14
828.889	24.42
829.061	23.85
829.232	23.74
829.404	23.37
829.576	23.5
829.748	24.1
829.92	22.34
830.092	21.46
830.264	23.45
830.436	23.77
830.607	23.3
830.779	22.68
830.951	21.71
831.123	19.93
831.294	19.6
831.466	19.53
831.638	17.61
831.809	23.95
831.981	20.95
832.153	15.74
832.324	19.7
832.496	19
832.667	20.84
832.839	19.48
833.011	19.05
833.182	17.5
833.354	13.23
833.525	14.88
833.697	14.74
833.868	17.64
834.039	20.55
834.211	18.47
834.382	19.68
834.554	18.46
834.725	18.82
834.896	19.24
835.068	20.31
835.239	22.89
835.41	21.57
835.581	22.78
835.753	23.45
835.924	22.84
836.095	20.4
836.266	20.2
836.438	18.17
836.609	21.94
836.78	19.75
836.951	20.1
837.122	20.27
837.293	19.23
837.464	17.16
837.635	17.3
837.806	17.32
837.977	19.51
838.148	18.27
838.319	23.15
838.49	16.67
838.661	22.18
838.832	22.09
839.003	18.65
839.174	24.18
839.345	22.24
839.516	15.28
839.687	17.39
839.857	22.38
840.028	20
840.199	20.24
840.37	24.9
840.54	24.64
840.711	27.87
840.882	31.89
841.053	29.23
841.223	29.64
841.394	37.85
841.564	34.88
841.735	31.47
841.906	27.81
842.076	28.34
842.247	24.49
842.417	15.75
842.588	11.84
842.758	16.89
842.929	16.81
843.099	23.79
843.27	12.75
843.44	24.13
843.611	22.62
843.781	32.72
843.951	36.67
844.122	37.09
844.292	47.68
844.462	46.58
844.633	41.57
844.803	40.34
844.973	43.86
845.144	49.93
845.314	39.86
845.484	33.28
845.654	29.35
845.824	24.08
845.995	29.17
846.165	19.03
846.335	12.52
846.505	20.51
846.675	17.28
846.845	2.16
847.015	-3.05
847.185	-9.66
847.355	-11.1
847.525	11.21
847.695	-2.71
847.865	-12.09
848.035	-17.51
848.205	-18.79
848.375	-51.96
848.545	-53.69
848.715	-27.57
848.884	-47.53
849.054	-23.8
849.224	-12.19
849.394	-20.48
849.564	-5.69
849.733	17.9
849.903	21.24
850.073	38.55
850.243	44.98
850.412	52.82
850.582	43.99
850.752	56.51
850.921	33.14
851.091	37.12
851.26	23.75
851.43	11.43
851.599	-28.59
851.769	-10.86
851.939	-25.88
852.108	-10.43
852.278	-12.66
852.447	4.63
852.616	11.34
852.786	35.13
852.955	34.79
853.125	30.79
853.294	29.31
853.463	39.2
853.633	29.43
853.802	26.66
853.971	29.42
854.141	39.46
854.31	44.6
854.479	43.09
854.648	16.02
854.818	0.91
854.987	13.36
855.156	25.61
855.325	22
855.494	22.37
855.663	24.71
855.832	16.58
856.001	-0.79
856.171	-11.48
856.34	-16.23
856.509	13.18
856.678	18.94
856.847	8.39
857.016	0.89
857.185	0.36
857.353	15.97
857.522	6.74
857.691	-3.4
857.86	-5.12
858.029	-7.1
858.198	6.29
858.367	-8.14
858.535	-4.43
858.704	-11.79
858.873	-9.87
859.042	-22.25
859.21	-64.4
859.379	-57.75
859.548	-37.72
859.717	-26.76
859.885	-25.68
860.054	-69.83
860.222	-66.41
860.391	-82.46
860.56	-53.77
860.728	-79.36
860.897	-61.23
861.065	-15.23
861.234	-32.45
861.402	-40.92
861.571	-48.07
861.739	-35.65
861.908	-20.81
862.076	-15.97
862.244	-23.05
862.413	-36.35
862.581	-31.29
862.749	-42.18
862.918	-64.68
863.086	-71.97
863.254	-53.5
863.423	-34.02
863.591	-32.75
863.759	-53.39
863.927	-51.9
864.096	-39.07
864.264	-21.78
864.432	-5.18
864.6	9.2
864.768	12.41
864.936	24.83
865.104	24.21
865.272	8.33
865.44	31.18
865.608	34.67
865.776	43.87
865.944	49.13
866.112	45.15
866.28	43.5
866.448	32.31
866.616	30.52
866.784	18.53
866.952	14.59
867.12	8.94
867.288	-7.84
867.455	-17.74
867.623	-28.67
867.791	-47.09
867.959	-75.92
868.127	-117
868.294	-182.46
868.462	-131.25
868.63	-191.16
868.797	-330.83
868.965	-153.23
869.133	-145.04
869.3	-183.19
869.468	-127.92
869.636	-62.33
869.803	-26.18
869.971	-22.96
870.138	-0.99
870.306	-7.96
870.473	4.31
870.641	20.14
870.808	10.96
870.975	7.38
871.143	31.01
871.31	49.96
871.478	48.48
871.645	47.6
871.812	34
871.98	47.8
872.147	37.13
872.314	47.66
872.482	52.41
872.649	53.97
872.816	52.34
872.983	49.4
873.15	50.38
873.318	52.43
873.485	53.52
873.652	62.33
873.819	56.04
873.986	52.95
874.153	33.24
874.32	32.37
874.487	33.85
874.654	32.24
874.821	22.91
874.988	6.17
875.155	-11.91
875.322	-25.93
875.489	-44.89
875.656	-53.67
875.823	-39.44
875.99	-25.63
876.157	-45.88
876.324	-78.22
876.49	-72.13
876.657	-63.01
876.824	-60.76
876.991	-55.77
877.157	-36.61
877.324	-25.3
877.491	-34.73
877.658	-44.14
877.824	-54.53
877.991	-21.28
878.157	-10.27
878.324	-7.04
878.491	-11.37
878.657	5.53
878.824	-0.82
878.99	1
879.157	-5.38
879.323	-2.05
879.49	-8.12
879.656	20.37
879.823	26.69
879.989	11.16
880.156	12.56
880.322	3.38
880.488	1.92
880.655	6.58
880.821	6.19
880.987	7.13
881.154	11.51
881.32	15.66
881.486	14.27
881.652	13.95
881.819	25.71
881.985	19.45
882.151	16.59
882.317	15.22
882.483	22.19
882.649	22.04
882.816	22.83
882.982	24.99
883.148	24.73
883.314	24.73
883.48	22.72
883.646	18.77
883.812	22.96
883.978	26.4
884.144	25.01
884.31	22.54
884.476	21.8
884.642	22.33
884.807	19.43
884.973	18.12
885.139	20.96
885.305	17.07
885.471	17.7
885.637	14.6
885.802	14.77
885.968	16
886.134	15.85
886.3	16.54
886.465	16.2
886.631	20.03
886.797	19.59
886.962	10.93
887.128	18.86
887.293	8.46
887.459	1.48
887.625	-9.9
887.79	-21.95
887.956	-33.33
888.121	-37.25
888.287	-84.37
888.452	-174.41
888.618	-273.5
888.783	-262.25
