Data from LC_161_Reflection_2.txt Node
Date: Mon Nov 16 22:38:14 EST 2015
User: robert
Spectrometer: USB4E03001
Autoset integration time: false
Trigger mode: 4
Integration Time (sec): 1.000000E-1
Scans to average: 15
Electric dark correction enabled: true
Nonlinearity correction enabled: false
Boxcar width: 5
Stray light correction enabled: false
XAxis mode: Wavelengths
Stop averaging: false
Number of Pixels in Spectrum: 3648
>>>>>Begin Spectral Data<<<<<
177.566	7077.11
177.785	511.46
178.005	-4265.55
178.225	129.63
178.445	67.62
178.665	643.84
178.885	777.87
179.105	1583.18
179.324	2542.99
179.544	-290.42
179.764	-1129.87
179.984	-313.27
180.204	-301.22
180.423	-240.6
180.643	-222.14
180.863	-120.31
181.083	-54.44
181.302	-114.08
181.522	-97.81
181.742	-102.92
181.961	-260.32
182.181	-239.05
182.401	-339.65
182.621	-1551.08
182.84	-760.49
183.06	-468.03
183.279	-327.75
183.499	-245.22
183.719	-207.71
183.938	-205.59
184.158	-246.06
184.377	-146.2
184.597	-241.57
184.816	-156.33
185.036	-68.42
185.256	-58.74
185.475	-78.19
185.695	-90.53
185.914	-182.59
186.134	-349.88
186.353	-539
186.572	-602.19
186.792	-921.78
187.011	-346.18
187.231	-369.35
187.45	-292.75
187.67	-747.41
187.889	-2074.5
188.108	3668.57
188.328	-880.06
188.547	-303.1
188.766	-502.74
188.986	-778.02
189.205	-477.3
189.424	-364.37
189.644	-987.67
189.863	-1214.81
190.082	-748.11
190.302	-1524.02
190.521	-866.61
190.74	868.45
190.959	428.38
191.178	698.57
191.398	587.9
191.617	564.05
191.836	469.73
192.055	950.23
192.274	416.68
192.494	513.55
192.713	538.49
192.932	1179.56
193.151	954.24
193.37	1565.6
193.589	-857.29
193.808	-217.76
194.027	-288.29
194.246	-2954.47
194.465	685.56
194.685	1517.59
194.904	683.88
195.123	-888.49
195.342	-694.55
195.561	-310.78
195.78	-448.51
195.999	20261.97
196.218	686.57
196.436	641.8
196.655	-2392.57
196.874	-859.64
197.093	-1293.48
197.312	-1002.38
197.531	2843.73
197.75	919.64
197.969	-3382.51
198.188	-854.87
198.407	-204.8
198.625	-257.05
198.844	-190.45
199.063	-143.03
199.282	-330.18
199.501	-176.02
199.719	-147
199.938	-82.8
200.157	-84.94
200.376	-104.51
200.594	-148.95
200.813	-386.33
201.032	-258.79
201.251	-255.14
201.469	-301.44
201.688	-242.94
201.907	-469.53
202.125	-711.36
202.344	27247.62
202.563	4530.02
202.781	642.68
203	1857.7
203.218	1481.78
203.437	1282.82
203.656	655.72
203.874	346.22
204.093	301.74
204.311	384.45
204.53	340.37
204.748	534.23
204.967	326.87
205.185	340.45
205.404	385.13
205.622	251.61
205.841	225.12
206.059	273.94
206.278	268.22
206.496	631.22
206.715	303.38
206.933	332.71
207.151	264.72
207.37	324.96
207.588	372.49
207.806	366.32
208.025	751.22
208.243	-1300.79
208.461	1682.06
208.68	-20472.94
208.898	840.41
209.116	993.23
209.335	828.69
209.553	854.36
209.771	8171.67
209.989	1694.34
210.208	3619.77
210.426	-6422.87
210.644	3733.44
210.862	-3371.79
211.081	1612.17
211.299	-843.9
211.517	3595.29
211.735	-896.12
211.953	-307471.43
212.171	-5997.29
212.39	-16602.7
212.608	-38876.09
212.826	1327.13
213.044	807.38
213.262	624.37
213.48	3575.32
213.698	394.32
213.916	443.69
214.134	354.04
214.352	600.48
214.57	415.24
214.788	467.81
215.006	415.95
215.224	388.9
215.442	325.07
215.66	303.6
215.878	247.27
216.096	254.37
216.314	324.75
216.532	505.64
216.75	446.69
216.968	394.17
217.185	860.89
217.403	1506.6
217.621	-3963.36
217.839	-1125.05
218.057	-1348.74
218.275	2519.97
218.492	803.36
218.71	1292.12
218.928	414.95
219.146	377.69
219.363	300.44
219.581	238.51
219.799	187.91
220.017	196.8
220.234	196.6
220.452	205.99
220.67	212.92
220.887	239.7
221.105	273
221.323	218.84
221.54	238.42
221.758	344.38
221.976	378.65
222.193	372.98
222.411	234.4
222.629	218.62
222.846	200.31
223.064	209.55
223.281	177.53
223.499	160.97
223.716	170.58
223.934	146.65
224.151	129.71
224.369	106.07
224.586	110.03
224.804	138.44
225.021	132.27
225.239	124
225.456	117.67
225.674	122.8
225.891	95.98
226.108	108.81
226.326	93.62
226.543	86.93
226.76	87.56
226.978	72.73
227.195	72.66
227.413	62.81
227.63	59.24
227.847	51.37
228.064	41.57
228.282	38.2
228.499	31.78
228.716	26.55
228.934	24.59
229.151	25.94
229.368	25.84
229.585	23.93
229.802	25.48
230.02	22.53
230.237	23.89
230.454	26.4
230.671	29.06
230.888	28.75
231.105	31.54
231.323	34.82
231.54	33.22
231.757	33.89
231.974	32.28
232.191	31.67
232.408	39.12
232.625	38.41
232.842	38.96
233.059	37.94
233.276	38.47
233.493	39.17
233.71	38.12
233.927	40.31
234.144	42.97
234.361	39.61
234.578	43.83
234.795	40.88
235.012	38.13
235.229	37.32
235.446	38.27
235.663	34.37
235.879	35.66
236.096	30.36
236.313	31.42
236.53	30.57
236.747	33.89
236.964	29.99
237.181	32.33
237.397	33.08
237.614	36.9
237.831	30.49
238.048	31.27
238.264	33.15
238.481	34.2
238.698	33.54
238.915	31.83
239.131	31.55
239.348	30.34
239.565	28.84
239.781	30.2
239.998	25.31
240.215	27.1
240.431	28.82
240.648	25.74
240.865	24.64
241.081	20.68
241.298	18.84
241.514	19.97
241.731	18.54
241.947	18.37
242.164	17.62
242.38	16.59
242.597	16.01
242.814	14.99
243.03	14.52
243.246	15.38
243.463	16.65
243.679	18.51
243.896	16.38
244.112	17.54
244.329	16.17
244.545	16.11
244.762	16.53
244.978	18.62
245.194	20.06
245.411	20.14
245.627	19.11
245.843	19.91
246.06	16.47
246.276	16.99
246.492	15.64
246.709	15.68
246.925	15.22
247.141	15.28
247.357	13.7
247.574	13.77
247.79	13.66
248.006	12.44
248.222	11.55
248.439	12.38
248.655	12.16
248.871	13.2
249.087	12.95
249.303	13.07
249.519	14.03
249.736	15.98
249.952	15.24
250.168	17.51
250.384	19.83
250.6	20.53
250.816	20.55
251.032	19.52
251.248	17.8
251.464	18.74
251.68	18.35
251.896	18.05
252.112	17.58
252.328	17.72
252.544	16.1
252.76	15.37
252.976	13.99
253.192	13.42
253.408	13.97
253.624	16.05
253.84	14.58
254.056	16.41
254.272	15.62
254.487	16.69
254.703	17.53
254.919	17.83
255.135	19.21
255.351	24.26
255.567	27.74
255.782	29.51
255.998	27.36
256.214	28.56
256.43	24.05
256.646	24.27
256.861	23.59
257.077	21.68
257.293	19.28
257.508	18.78
257.724	17.99
257.94	16.31
258.155	15.26
258.371	15.05
258.587	14.61
258.802	14.56
259.018	13.65
259.234	12.37
259.449	12.93
259.665	12.84
259.88	12.89
260.096	11.66
260.312	10.88
260.527	10.61
260.743	10.62
260.958	11.07
261.174	11.29
261.389	12.4
261.605	12.51
261.82	12.95
262.036	13.55
262.251	13.64
262.466	13.91
262.682	15.98
262.897	17.17
263.113	17.05
263.328	17.67
263.543	18.15
263.759	16.96
263.974	17.72
264.189	16.92
264.405	18.13
264.62	19.2
264.835	21.86
265.051	20.82
265.266	21.52
265.481	21.77
265.696	22.09
265.912	21.89
266.127	20.88
266.342	19.91
266.557	19.23
266.773	18.47
266.988	17.11
267.203	15.11
267.418	15.16
267.633	13.33
267.848	13.53
268.064	11.79
268.279	11.1
268.494	10.19
268.709	10.89
268.924	10.54
269.139	10.78
269.354	10.78
269.569	11.47
269.784	9.67
269.999	10.86
270.214	10.05
270.429	11.54
270.644	12.11
270.859	11.73
271.074	11.58
271.289	12.85
271.504	12.41
271.719	13.5
271.934	13.17
272.149	14.74
272.363	14.9
272.578	14.86
272.793	13.77
273.008	13.27
273.223	12.8
273.438	12.38
273.653	12.64
273.867	12.41
274.082	11.23
274.297	11.89
274.512	11.98
274.726	11.65
274.941	11.83
275.156	11.99
275.371	13.23
275.585	15.19
275.8	16.29
276.015	15.07
276.229	15.61
276.444	16.56
276.659	15.93
276.873	15.03
277.088	14.65
277.302	14.85
277.517	15.89
277.732	16.8
277.946	16.68
278.161	16.6
278.375	17.79
278.59	17.46
278.804	16.98
279.019	18.25
279.233	17.78
279.448	17.8
279.662	17.22
279.877	16.52
280.091	14.87
280.306	13.19
280.52	13.65
280.735	11.72
280.949	12.04
281.163	12.28
281.378	10.46
281.592	10.13
281.806	11.37
282.021	10.34
282.235	10.96
282.449	11.48
282.664	13.57
282.878	12.11
283.092	13.19
283.307	13.01
283.521	13.22
283.735	13.25
283.949	14.54
284.164	13.32
284.378	14.45
284.592	14.08
284.806	13.31
285.02	12.24
285.234	12.18
285.449	11.7
285.663	11.45
285.877	11.14
286.091	11.52
286.305	10.63
286.519	10.18
286.733	9.34
286.947	8.54
287.161	9.33
287.375	9.58
287.589	9.87
287.803	10.32
288.017	10.88
288.231	10.01
288.445	10.04
288.659	10.97
288.873	11.14
289.087	12.43
289.301	12.43
289.515	11.4
289.729	10.25
289.943	10.43
290.157	9.72
290.371	10.62
290.584	11.56
290.798	12.4
291.012	12.53
291.226	12.78
291.44	12.62
291.654	13.19
291.867	14.01
292.081	14.67
292.295	15.65
292.509	16
292.722	14.49
292.936	13.89
293.15	14.03
293.364	13.29
293.577	12.92
293.791	12.66
294.005	13.56
294.218	13.24
294.432	13.68
294.645	13.09
294.859	12.26
295.073	12.75
295.286	12.8
295.5	11.74
295.713	12.64
295.927	12.59
296.14	12.8
296.354	12.19
296.568	11.68
296.781	11.89
296.994	11.16
297.208	11.62
297.421	11.03
297.635	10.98
297.848	11.32
298.062	10.15
298.275	10.53
298.489	10.47
298.702	10.33
298.915	10.42
299.129	10.6
299.342	11.39
299.555	12.18
299.769	13.18
299.982	13.52
300.195	12.76
300.409	14.14
300.622	13.81
300.835	14.34
301.048	13.68
301.262	13.39
301.475	13.07
301.688	13.56
301.901	12.9
302.115	12.14
302.328	12.48
302.541	12.41
302.754	12.56
302.967	13.01
303.18	12.6
303.393	12.35
303.607	13.26
303.82	13.2
304.033	12.19
304.246	12.8
304.459	13.63
304.672	13.14
304.885	14.32
305.098	12.95
305.311	12.98
305.524	14.11
305.737	15.07
305.95	15.2
306.163	14.02
306.376	13.92
306.589	13.63
306.802	12.76
307.015	13.74
307.228	12.89
307.44	13.19
307.653	13.33
307.866	10.7
308.079	12.03
308.292	12.43
308.505	14.5
308.718	15.5
308.93	15.39
309.143	15.21
309.356	14.3
309.569	13.93
309.781	13.86
309.994	13.75
310.207	14.53
310.42	12.72
310.632	11
310.845	9.78
311.058	9.06
311.27	9.58
311.483	9.83
311.696	10.04
311.908	10.27
312.121	10.98
312.333	11.47
312.546	11.08
312.759	11.67
312.971	12.69
313.184	13.84
313.396	13.92
313.609	13.62
313.821	12.95
314.034	13.85
314.246	13.62
314.459	13.37
314.671	12.94
314.884	13.15
315.096	12.91
315.309	13.71
315.521	13.43
315.733	13.37
315.946	12.74
316.158	13.6
316.371	11.86
316.583	12.61
316.795	11.94
317.008	12.46
317.22	13.96
317.432	14.5
317.644	13.51
317.857	12.69
318.069	13.6
318.281	14.79
318.494	14.62
318.706	15.92
318.918	15.44
319.13	16.12
319.342	15.25
319.555	14.8
319.767	15.17
319.979	14.64
320.191	15.5
320.403	15.1
320.615	13.87
320.827	14.95
321.039	13.61
321.252	14.04
321.464	12.95
321.676	13.48
321.888	13.29
322.1	12.57
322.312	11.98
322.524	11.61
322.736	10.64
322.948	11.03
323.16	9.83
323.372	11.02
323.584	11.26
323.796	10.74
324.007	10.79
324.219	10.42
324.431	10.54
324.643	11.19
324.855	11.07
325.067	11.83
325.279	11.74
325.491	11.84
325.702	11.07
325.914	10.98
326.126	13.18
326.338	12.75
326.55	13.52
326.761	14.53
326.973	15.06
327.185	15.81
327.396	15.34
327.608	15.29
327.82	15.75
328.032	16.25
328.243	15.72
328.455	15.26
328.666	15.06
328.878	14.59
329.09	13.53
329.301	13.19
329.513	12.48
329.725	12.51
329.936	13.15
330.148	14.18
330.359	13.58
330.571	14.68
330.782	13.86
330.994	14.89
331.205	14.96
331.417	14.4
331.628	14.23
331.84	13.65
332.051	13.73
332.262	14.59
332.474	12.59
332.685	14.39
332.897	13.38
333.108	13.95
333.319	13.85
333.531	14.28
333.742	15.82
333.953	15.85
334.165	16.17
334.376	16.15
334.587	14.82
334.799	15.73
335.01	14.33
335.221	15.01
335.432	14.84
335.644	14.31
335.855	14.08
336.066	13.71
336.277	13.69
336.488	13.99
336.7	13.76
336.911	14.54
337.122	13.5
337.333	13.81
337.544	14.6
337.755	14.99
337.966	15.1
338.177	14.23
338.388	14.26
338.599	15.3
338.811	15.24
339.022	15.44
339.233	14.71
339.444	16.02
339.655	15.42
339.866	15.54
340.076	15.81
340.287	16.25
340.498	17.3
340.709	16.47
340.92	15.49
341.131	15.6
341.342	15.3
341.553	15.8
341.764	15.2
341.975	15.71
342.185	14.47
342.396	13.76
342.607	12.67
342.818	12.69
343.029	13.28
343.239	13.02
343.45	13.37
343.661	13.47
343.872	12.86
344.082	13.05
344.293	13
344.504	13.23
344.714	12.64
344.925	13.44
345.136	12.79
345.346	11.63
345.557	12.07
345.768	11.9
345.978	11.98
346.189	12.77
346.399	12.46
346.61	12.99
346.821	13.15
347.031	13.53
347.242	12.74
347.452	12.68
347.663	13.64
347.873	14.33
348.084	13.74
348.294	14.3
348.504	14.19
348.715	14.13
348.925	12.78
349.136	12.44
349.346	11.86
349.557	12.36
349.767	13.59
349.977	14.1
350.188	13.8
350.398	14.1
350.608	13.6
350.819	12.63
351.029	12.45
351.239	12.81
351.449	13.18
351.66	13.71
351.87	14.71
352.08	13.76
352.29	13.38
352.501	12.55
352.711	12.42
352.921	12.56
353.131	12.99
353.341	13.06
353.552	13.22
353.762	12.44
353.972	12.03
354.182	11.49
354.392	10.91
354.602	10.69
354.812	11.18
355.022	11.35
355.232	10.74
355.442	11.21
355.652	11.52
355.862	11.33
356.072	12.01
356.282	11.52
356.492	11.5
356.702	11.64
356.912	11.83
357.122	12
357.332	11.82
357.542	12.01
357.752	11.64
357.962	11
358.171	11.01
358.381	11.44
358.591	11.65
358.801	11.22
359.011	11.82
359.221	11.59
359.43	11.3
359.64	11.38
359.85	11.57
360.06	11.36
360.269	12.02
360.479	11.61
360.689	11.14
360.899	11.62
361.108	11.61
361.318	11.35
361.528	11.29
361.737	10.98
361.947	10.54
362.156	10.64
362.366	10.58
362.576	10.54
362.785	10.91
362.995	10.94
363.204	10.6
363.414	10.62
363.623	10.64
363.833	10.91
364.042	11.33
364.252	11.86
364.461	11.17
364.671	10.97
364.88	11.27
365.09	11.85
365.299	11.8
365.509	11.57
365.718	11.4
365.927	11.12
366.137	11.49
366.346	11.98
366.555	11.9
366.765	12.45
366.974	12.53
367.183	12.1
367.393	11.3
367.602	10.55
367.811	10.89
368.021	11.02
368.23	11.18
368.439	10.29
368.648	9.48
368.857	9.72
369.067	9.71
369.276	9.79
369.485	9.93
369.694	10.44
369.903	11.25
370.112	11.63
370.321	11.26
370.531	10.7
370.74	10.98
370.949	10.82
371.158	10.88
371.367	10.94
371.576	11.04
371.785	10.66
371.994	10.37
372.203	10.48
372.412	9.96
372.621	10.67
372.83	11
373.039	11.23
373.248	11.35
373.457	10.88
373.666	10.58
373.874	10.25
374.083	10.85
374.292	10.73
374.501	10.46
374.71	10.28
374.919	9.94
375.128	10.07
375.336	9.85
375.545	9.72
375.754	9.16
375.963	9.01
376.171	9.2
376.38	8.76
376.589	8.64
376.798	8.21
377.006	8.36
377.215	8.49
377.424	8.48
377.632	8.47
377.841	8.57
378.05	8.74
378.258	8.67
378.467	8.67
378.675	8.95
378.884	9.1
379.093	9.23
379.301	9.14
379.51	8.91
379.718	8.57
379.927	8.5
380.135	8.07
380.344	8.4
380.552	8.73
380.761	8.47
380.969	8.27
381.177	8.19
381.386	7.92
381.594	7.92
381.803	8.03
382.011	7.77
382.219	7.62
382.428	7.24
382.636	6.85
382.845	6.91
383.053	7.44
383.261	7.14
383.469	7.29
383.678	7.6
383.886	7.5
384.094	7.08
384.302	7.53
384.511	7.55
384.719	7.94
384.927	8.28
385.135	8.27
385.343	8.21
385.552	8.17
385.76	7.79
385.968	7.86
386.176	8.04
386.384	7.89
386.592	8.02
386.8	8.01
387.008	8.31
387.216	8.2
387.424	8.06
387.633	7.92
387.841	7.78
388.049	7.95
388.257	7.81
388.465	7.69
388.672	7.91
388.88	7.64
389.088	7.64
389.296	7.39
389.504	7.52
389.712	7.44
389.92	7.18
390.128	7.23
390.336	7.36
390.544	7.85
390.751	7.41
390.959	7.37
391.167	7.46
391.375	7.5
391.583	7.29
391.79	7.06
391.998	6.75
392.206	6.77
392.414	6.89
392.621	6.68
392.829	6.33
393.037	6.6
393.244	6.69
393.452	6.73
393.66	6.59
393.867	7.1
394.075	6.83
394.283	7.01
394.49	6.91
394.698	6.98
394.905	6.74
395.113	6.65
395.32	6.66
395.528	6.71
395.735	6.65
395.943	6.72
396.15	6.27
396.358	6.83
396.565	6.99
396.773	7.11
396.98	6.98
397.188	7.16
397.395	7.13
397.602	7.07
397.81	6.86
398.017	6.78
398.225	6.73
398.432	7.06
398.639	7
398.847	6.87
399.054	6.68
399.261	6.48
399.468	6.79
399.676	6.76
399.883	6.74
400.09	6.73
400.297	6.72
400.505	6.75
400.712	6.41
400.919	6.19
401.126	6.24
401.333	6.43
401.54	6.48
401.748	6.25
401.955	6.31
402.162	6.44
402.369	6.61
402.576	6.63
402.783	6.33
402.99	6.61
403.197	6.67
403.404	6.55
403.611	6.68
403.818	6.81
404.025	6.69
404.232	6.55
404.439	6.24
404.646	6.05
404.853	5.9
405.06	6.14
405.267	5.75
405.474	5.55
405.681	5.26
405.887	5.07
406.094	5
406.301	5.07
406.508	5.21
406.715	5.44
406.922	5.51
407.128	5.38
407.335	5.22
407.542	5.38
407.749	5.64
407.955	6.15
408.162	6
408.369	5.98
408.575	5.83
408.782	5.58
408.989	5.3
409.195	5.42
409.402	5.65
409.609	5.96
409.815	6.22
410.022	6.02
410.228	5.89
410.435	6.28
410.642	6.2
410.848	6.43
411.055	6.47
411.261	6.73
411.468	6.82
411.674	6.76
411.881	6.5
412.087	6.47
412.294	6.51
412.5	6.29
412.706	5.99
412.913	6
413.119	5.9
413.326	5.93
413.532	5.94
413.738	5.56
413.945	5.69
414.151	5.56
414.357	5.53
414.564	5.53
414.77	5.63
414.976	5.52
415.182	6
415.389	5.76
415.595	5.69
415.801	5.59
416.007	5.74
416.214	5.62
416.42	5.83
416.626	5.54
416.832	5.61
417.038	5.53
417.244	5.77
417.45	5.31
417.657	5.54
417.863	5.84
418.069	5.87
418.275	5.83
418.481	5.73
418.687	5.58
418.893	5.57
419.099	5.35
419.305	5.39
419.511	5.33
419.717	5.4
419.923	5.26
420.129	5.11
420.335	5.04
420.541	5.04
420.746	5.13
420.952	5.17
421.158	5.11
421.364	5.18
421.57	5.31
421.776	5.19
421.982	5.15
422.187	5.07
422.393	5.01
422.599	4.98
422.805	4.97
423.01	4.86
423.216	4.83
423.422	4.91
423.628	4.95
423.833	4.82
424.039	4.93
424.245	4.98
424.45	5.17
424.656	5.22
424.862	5.24
425.067	5.26
425.273	5.25
425.478	5.31
425.684	5.41
425.889	5.52
426.095	5.56
426.301	5.48
426.506	5.46
426.712	5.56
426.917	5.4
427.123	5.59
427.328	5.65
427.533	5.79
427.739	5.82
427.944	5.67
428.15	5.43
428.355	5.48
428.561	5.37
428.766	5.3
428.971	5.07
429.177	5.33
429.382	5.19
429.587	5.24
429.793	5.06
429.998	5.04
430.203	5.07
430.408	5.19
430.614	5.26
430.819	5.52
431.024	5.76
431.229	5.75
431.434	5.65
431.64	5.56
431.845	5.53
432.05	5.72
432.255	5.63
432.46	5.54
432.665	5.44
432.87	5.44
433.076	5.38
433.281	5.33
433.486	5.34
433.691	5.24
433.896	5.17
434.101	5.18
434.306	5.19
434.511	5.22
434.716	5.39
434.921	5.51
435.126	5.31
435.331	5.21
435.535	5.13
435.74	5.29
435.945	5.41
436.15	5.51
436.355	5.42
436.56	5.46
436.765	5.52
436.97	5.44
437.174	5.23
437.379	5.45
437.584	5.55
437.789	5.45
437.993	5.29
438.198	5.27
438.403	5.37
438.608	5.39
438.812	5.15
439.017	5.15
439.222	5.04
439.426	5.08
439.631	5.1
439.836	4.95
440.04	5.02
440.245	5.04
440.45	5
440.654	4.83
440.859	4.76
441.063	4.84
441.268	4.82
441.472	4.98
441.677	5.07
441.881	4.85
442.086	4.99
442.29	4.85
442.495	4.83
442.699	4.83
442.904	4.82
443.108	4.87
443.312	4.83
443.517	4.78
443.721	4.54
443.925	4.41
444.13	4.47
444.334	4.44
444.538	4.47
444.743	4.37
444.947	4.34
445.151	4.42
445.356	4.3
445.56	4.37
445.764	4.3
445.968	4.37
446.173	4.34
446.377	4.36
446.581	4.36
446.785	4.45
446.989	4.53
447.193	4.54
447.398	4.55
447.602	4.61
447.806	4.66
448.01	4.87
448.214	4.95
448.418	5.07
448.622	5.16
448.826	5.13
449.03	5.13
449.234	5.16
449.438	5.18
449.642	5.2
449.846	5.28
450.05	5.25
450.254	4.97
450.458	5
450.662	5.01
450.866	4.86
451.069	4.79
451.273	4.78
451.477	4.49
451.681	4.45
451.885	4.28
452.089	4.19
452.292	4.13
452.496	4.23
452.7	4.25
452.904	4.35
453.107	4.47
453.311	4.76
453.515	4.76
453.719	4.85
453.922	4.96
454.126	5.13
454.33	5.33
454.533	5.28
454.737	5.21
454.94	5.23
455.144	5.1
455.348	5.07
455.551	4.81
455.755	4.68
455.958	4.93
456.162	4.84
456.365	4.78
456.569	4.58
456.772	4.58
456.976	4.78
457.179	4.69
457.383	4.61
457.586	4.74
457.79	4.81
457.993	4.86
458.196	4.8
458.4	4.99
458.603	4.9
458.807	4.95
459.01	5.1
459.213	4.86
459.417	4.72
459.62	4.81
459.823	4.68
460.026	4.59
460.23	4.58
460.433	4.56
460.636	4.44
460.839	4.58
461.042	4.6
461.246	4.52
461.449	4.63
461.652	4.72
461.855	4.6
462.058	4.61
462.261	4.64
462.464	4.67
462.668	4.7
462.871	4.8
463.074	4.84
463.277	4.6
463.48	4.75
463.683	4.77
463.886	4.9
464.089	4.98
464.292	5.02
464.495	5.07
464.698	5.12
464.901	5.1
465.104	5
465.306	4.81
465.509	4.98
465.712	4.94
465.915	4.96
466.118	4.99
466.321	4.9
466.524	4.98
466.726	5.08
466.929	5.13
467.132	5.12
467.335	5.06
467.538	4.99
467.74	5.01
467.943	5.15
468.146	5.16
468.348	5.08
468.551	5.12
468.754	5.16
468.956	4.9
469.159	4.91
469.362	4.89
469.564	4.86
469.767	4.91
469.969	4.78
470.172	4.52
470.375	4.5
470.577	4.52
470.78	4.53
470.982	4.35
471.185	4.51
471.387	4.51
471.59	4.36
471.792	4.44
471.995	4.54
472.197	4.62
472.399	4.57
472.602	4.46
472.804	4.35
473.007	4.28
473.209	4.42
473.411	4.33
473.614	4.17
473.816	4.36
474.018	4.46
474.22	4.5
474.423	4.51
474.625	4.56
474.827	4.75
475.03	4.8
475.232	5.06
475.434	5.09
475.636	5.32
475.838	5.4
476.04	5.33
476.243	5.2
476.445	5.24
476.647	5.2
476.849	5.23
477.051	5.02
477.253	5.09
477.455	5.03
477.657	4.78
477.859	4.69
478.061	4.58
478.263	4.61
478.465	4.69
478.667	4.62
478.869	4.61
479.071	4.51
479.273	4.57
479.475	4.4
479.677	4.35
479.879	4.45
480.081	4.48
480.283	4.43
480.485	4.34
480.686	4.24
480.888	4.12
481.09	4.15
481.292	4.05
481.494	4.15
481.695	4.22
481.897	4.06
482.099	4.03
482.301	3.98
482.502	4.01
482.704	4.03
482.906	4.02
483.107	4.08
483.309	3.99
483.511	4.08
483.712	4.02
483.914	3.97
484.115	4.01
484.317	4
484.519	4.01
484.72	4.03
484.922	4
485.123	4.01
485.325	3.98
485.526	4.03
485.728	4
485.929	4
486.131	4.07
486.332	4.05
486.534	4.07
486.735	4.08
486.936	4.02
487.138	4.04
487.339	4.06
487.541	4.07
487.742	4.04
487.943	4.04
488.144	4.05
488.346	3.93
488.547	3.99
488.748	4.06
488.95	4
489.151	4.06
489.352	4.09
489.553	4.04
489.755	4.05
489.956	4.06
490.157	4.12
490.358	4.11
490.559	4.36
490.76	4.32
490.961	4.22
491.163	4.29
491.364	4.32
491.565	4.26
491.766	4.26
491.967	4.31
492.168	4.32
492.369	4.29
492.57	4.31
492.771	4.25
492.972	4.23
493.173	4.32
493.374	4.27
493.575	4.28
493.776	4.32
493.976	4.44
494.177	4.48
494.378	4.61
494.579	4.56
494.78	4.71
494.981	4.65
495.182	4.75
495.382	4.75
495.583	4.79
495.784	4.82
495.985	4.92
496.185	4.92
496.386	4.79
496.587	4.77
496.788	4.86
496.988	4.81
497.189	4.86
497.39	4.81
497.59	4.74
497.791	4.8
497.992	4.69
498.192	4.55
498.393	4.49
498.593	4.43
498.794	4.4
498.994	4.41
499.195	4.33
499.395	4.41
499.596	4.47
499.796	4.43
499.997	4.51
500.197	4.62
500.398	4.72
500.598	4.77
500.799	4.85
500.999	4.8
501.199	4.67
501.4	4.74
501.6	4.58
501.801	4.67
502.001	4.65
502.201	4.64
502.402	4.6
502.602	4.64
502.802	4.65
503.002	4.93
503.203	5.04
503.403	5.08
503.603	5.07
503.803	5.16
504.003	4.92
504.204	5.05
504.404	5.06
504.604	5
504.804	5.15
505.004	5.09
505.204	4.97
505.404	4.89
505.604	5.01
505.804	4.97
506.005	4.92
506.205	5
506.405	5.06
506.605	4.96
506.805	5.06
507.005	5.02
507.204	5
507.404	4.92
507.604	4.99
507.804	4.96
508.004	5.08
508.204	5.14
508.404	5.16
508.604	5.06
508.804	5.16
509.003	5.18
509.203	5.13
509.403	5.09
509.603	5.16
509.803	5.26
510.002	5.24
510.202	5.14
510.402	5.06
510.602	5.15
510.801	5.22
511.001	5.23
511.201	5.18
511.4	5.08
511.6	5.17
511.8	5.13
511.999	5.14
512.199	5.05
512.398	5.17
512.598	5.36
512.797	5.4
512.997	5.44
513.197	5.49
513.396	5.47
513.596	5.56
513.795	5.8
513.994	5.85
514.194	5.82
514.393	6.04
514.593	6.08
514.792	6.01
514.992	6.02
515.191	5.91
515.39	5.84
515.59	5.88
515.789	5.95
515.988	5.79
516.188	5.77
516.387	5.63
516.586	5.49
516.786	5.47
516.985	5.46
517.184	5.43
517.383	5.56
517.582	5.6
517.782	5.69
517.981	5.62
518.18	5.61
518.379	5.65
518.578	5.69
518.777	5.73
518.976	5.67
519.176	5.7
519.375	5.67
519.574	5.63
519.773	5.64
519.972	5.52
520.171	5.6
520.37	5.66
520.569	5.65
520.768	5.67
520.967	5.74
521.166	5.8
521.365	5.83
521.564	5.89
521.762	5.9
521.961	5.9
522.16	5.92
522.359	5.8
522.558	5.74
522.757	5.76
522.956	5.83
523.154	5.71
523.353	5.89
523.552	5.75
523.751	5.87
523.949	5.9
524.148	5.92
524.347	6.07
524.546	6.06
524.744	6.03
524.943	6.12
525.142	6.04
525.34	6.18
525.539	5.96
525.737	6.11
525.936	5.97
526.135	5.98
526.333	5.88
526.532	5.85
526.73	5.93
526.929	5.91
527.127	5.8
527.326	5.8
527.524	5.76
527.723	5.81
527.921	5.78
528.12	5.84
528.318	5.84
528.516	5.87
528.715	5.83
528.913	5.84
529.112	5.84
529.31	5.83
529.508	5.83
529.707	5.82
529.905	5.82
530.103	5.83
530.301	5.8
530.5	5.79
530.698	5.87
530.896	5.98
531.094	6.05
531.293	6.2
531.491	6.35
531.689	6.47
531.887	6.52
532.085	6.65
532.283	6.64
532.481	6.69
532.68	6.68
532.878	6.64
533.076	6.64
533.274	6.54
533.472	6.6
533.67	6.51
533.868	6.52
534.066	6.55
534.264	6.43
534.462	6.48
534.66	6.56
534.858	6.68
535.056	6.68
535.253	6.62
535.451	6.73
535.649	6.62
535.847	6.83
536.045	6.8
536.243	6.86
536.441	7.12
536.638	7.2
536.836	7.2
537.034	7.17
537.232	7.26
537.43	7.4
537.627	7.36
537.825	7.4
538.023	7.33
538.22	7.47
538.418	7.52
538.616	7.53
538.813	7.59
539.011	7.61
539.209	7.69
539.406	7.72
539.604	7.8
539.801	7.99
539.999	8.01
540.196	8.15
540.394	8.24
540.591	8.32
540.789	8.26
540.986	8.24
541.184	8.31
541.381	8.27
541.579	8.26
541.776	8.27
541.974	8.23
542.171	8.27
542.368	8.22
542.566	8.15
542.763	8.1
542.96	8.11
543.158	8.24
543.355	8.25
543.552	8.38
543.75	8.57
543.947	8.5
544.144	8.5
544.341	8.61
544.539	8.71
544.736	8.95
544.933	8.96
545.13	9.14
545.327	9.16
545.524	9.23
545.722	9.34
545.919	9.23
546.116	9.43
546.313	9.53
546.51	9.61
546.707	9.68
546.904	9.62
547.101	9.66
547.298	9.66
547.495	9.6
547.692	9.54
547.889	9.42
548.086	9.49
548.283	9.59
548.48	9.72
548.677	9.6
548.874	9.6
549.07	9.7
549.267	9.81
549.464	9.82
549.661	9.93
549.858	10.05
550.055	10.22
550.251	10.24
550.448	10.12
550.645	10.12
550.842	10.32
551.038	10.3
551.235	9.96
551.432	9.94
551.628	9.95
551.825	10
552.022	9.99
552.218	9.83
552.415	9.94
552.612	9.99
552.808	9.83
553.005	9.81
553.201	9.92
553.398	10.1
553.594	10.28
553.791	10.36
553.987	10.49
554.184	10.63
554.38	10.79
554.577	10.79
554.773	10.92
554.97	11.33
555.166	11.43
555.362	11.43
555.559	11.69
555.755	11.74
555.952	11.75
556.148	11.67
556.344	11.57
556.541	11.51
556.737	11.56
556.933	11.62
557.129	11.43
557.326	11.42
557.522	11.44
557.718	11.48
557.914	11.32
558.11	11.31
558.307	11.27
558.503	11.52
558.699	11.76
558.895	11.83
559.091	11.6
559.287	11.7
559.483	11.87
559.679	11.84
559.876	11.69
560.072	11.77
560.268	11.96
560.464	12.01
560.66	11.84
560.856	11.78
561.052	11.94
561.247	12.28
561.443	12.37
561.639	12.27
561.835	12.6
562.031	12.65
562.227	12.81
562.423	12.83
562.619	12.86
562.815	13.18
563.01	13.34
563.206	13.14
563.402	13.05
563.598	12.83
563.793	12.81
563.989	12.59
564.185	12.64
564.381	12.89
564.576	12.9
564.772	13.04
564.968	12.99
565.163	12.85
565.359	12.76
565.555	12.74
565.75	12.95
565.946	13.03
566.141	13.05
566.337	13.1
566.532	13
566.728	13.22
566.923	13.22
567.119	13.05
567.314	13.1
567.51	13.4
567.705	13.56
567.901	13.53
568.096	13.62
568.292	13.8
568.487	13.94
568.682	13.84
568.878	13.76
569.073	13.74
569.268	13.98
569.464	14.28
569.659	14.24
569.854	14.43
570.05	14.54
570.245	14.58
570.44	14.68
570.635	14.75
570.831	14.74
571.026	14.81
571.221	14.93
571.416	14.95
571.611	14.75
571.806	14.84
572.002	14.68
572.197	14.67
572.392	14.63
572.587	14.48
572.782	14.42
572.977	14.72
573.172	14.76
573.367	14.73
573.562	14.83
573.757	14.8
573.952	14.82
574.147	15.06
574.342	15.23
574.537	15.37
574.732	15.5
574.927	15.54
575.121	15.66
575.316	15.55
575.511	15.68
575.706	15.86
575.901	16.08
576.096	16.36
576.29	16.28
576.485	16.42
576.68	16.64
576.875	16.68
577.069	16.92
577.264	16.8
577.459	17.12
577.654	17.23
577.848	17.12
578.043	17.54
578.238	17.46
578.432	17.68
578.627	17.6
578.821	17.62
579.016	17.72
579.21	17.82
579.405	17.91
579.6	18.03
579.794	18.05
579.989	18.14
580.183	17.81
580.378	17.88
580.572	17.82
580.766	17.75
580.961	17.85
581.155	17.96
581.35	17.82
581.544	17.8
581.738	17.62
581.933	17.75
582.127	17.97
582.321	18.11
582.516	17.95
582.71	18.19
582.904	18.38
583.099	18.39
583.293	18.35
583.487	18.63
583.681	18.85
583.875	18.96
584.07	19.1
584.264	18.92
584.458	18.92
584.652	19.09
584.846	18.9
585.04	19.09
585.234	19.16
585.428	19.4
585.623	19.35
585.817	19.21
586.011	19.41
586.205	19.44
586.399	19.45
586.593	19.73
586.787	19.93
586.981	19.91
587.174	19.79
587.368	19.78
587.562	19.63
587.756	19.58
587.95	19.7
588.144	19.68
588.338	19.89
588.532	20.09
588.725	19.94
588.919	19.98
589.113	19.94
589.307	19.86
589.501	19.83
589.694	20.15
589.888	20.36
590.082	20.38
590.275	20.46
590.469	20.48
590.663	20.4
590.856	20.52
591.05	20.49
591.244	20.54
591.437	20.86
591.631	20.86
591.824	20.78
592.018	20.93
592.212	21.01
592.405	20.94
592.599	20.75
592.792	20.93
592.986	21.11
593.179	21.21
593.372	21.47
593.566	21.52
593.759	21.61
593.953	21.44
594.146	21.11
594.339	21.07
594.533	21.3
594.726	21.33
594.92	21.16
595.113	21
595.306	20.81
595.499	20.7
595.693	20.47
595.886	20.53
596.079	20.68
596.272	20.7
596.466	20.79
596.659	20.62
596.852	20.53
597.045	20.6
597.238	20.7
597.431	20.72
597.624	20.65
597.818	20.83
598.011	20.82
598.204	20.67
598.397	20.93
598.59	20.89
598.783	21
598.976	21.06
599.169	21.17
599.362	21.2
599.555	21.48
599.748	21.88
599.941	21.89
600.134	22.04
600.326	22.46
600.519	22.49
600.712	22.52
600.905	22.4
601.098	22.78
601.291	22.89
601.483	22.84
601.676	22.81
601.869	22.52
602.062	22.66
602.255	22.46
602.447	22.35
602.64	22.39
602.833	22.46
603.025	22.35
603.218	22.11
603.411	21.83
603.603	21.68
603.796	21.66
603.989	21.76
604.181	21.68
604.374	21.87
604.566	21.89
604.759	21.68
604.951	21.67
605.144	21.85
605.336	21.84
605.529	21.98
605.721	21.99
605.914	21.96
606.106	22
606.299	22.12
606.491	22.29
606.683	22.19
606.876	22.41
607.068	22.61
607.26	22.66
607.453	23.02
607.645	23.32
607.837	23.37
608.03	23.71
608.222	23.75
608.414	23.94
608.606	24.14
608.799	24.59
608.991	24.91
609.183	25.22
609.375	25.72
609.567	26.05
609.759	26.56
609.952	27.37
610.144	28.19
610.336	29.1
610.528	29.82
610.72	30.29
610.912	30.89
611.104	31.64
611.296	32.22
611.488	32.65
611.68	32.98
611.872	33.13
612.064	33.44
612.256	33.12
612.448	32.74
612.64	32.21
612.832	32.21
613.023	31.87
613.215	31.29
613.407	30.9
613.599	30.68
613.791	30.37
613.983	30.2
614.174	29.82
614.366	29.45
614.558	29.39
614.75	29.36
614.941	28.82
615.133	28.7
615.325	28.77
615.516	28.56
615.708	27.95
615.9	27.75
616.091	27.4
616.283	27.03
616.475	26.83
616.666	26.52
616.858	26.89
617.049	26.8
617.241	26.67
617.432	26.46
617.624	26.32
617.815	26.48
618.007	26.65
618.198	26.93
618.39	26.89
618.581	26.97
618.773	27.27
618.964	26.8
619.155	26.86
619.347	26.77
619.538	26.26
619.729	26.26
619.921	26.25
620.112	25.84
620.303	25.77
620.494	25.89
620.686	26.01
620.877	25.86
621.068	25.82
621.259	26.01
621.451	26.24
621.642	26.54
621.833	26.58
622.024	26.69
622.215	27.32
622.406	27.2
622.597	27.2
622.788	27.07
622.98	26.96
623.171	27.01
623.362	26.96
623.553	27.19
623.744	27.22
623.935	27.42
624.126	27.41
624.317	27.23
624.508	27.13
624.698	26.95
624.889	27.15
625.08	27.31
625.271	27.55
625.462	27.44
625.653	27.07
625.844	27.09
626.034	26.86
626.225	26.8
626.416	26.59
626.607	26.68
626.798	26.93
626.988	26.96
627.179	26.96
627.37	26.51
627.56	26.74
627.751	26.87
627.942	27.07
628.132	26.92
628.323	27.17
628.514	27.12
628.704	27.1
628.895	27.04
629.085	27
629.276	27.12
629.466	27.49
629.657	27.48
629.847	27.59
630.038	27.75
630.228	28.19
630.419	28.39
630.609	28.72
630.8	28.68
630.99	28.71
631.181	29.06
631.371	28.91
631.561	28.78
631.752	28.88
631.942	28.74
632.132	28.64
632.323	28.52
632.513	28.12
632.703	28.07
632.893	28.12
633.084	28.03
633.274	27.69
633.464	27.67
633.654	27.59
633.844	27.29
634.034	27.08
634.225	26.73
634.415	26.77
634.605	26.79
634.795	26.68
634.985	26.83
635.175	26.91
635.365	26.84
635.555	27.01
635.745	27.24
635.935	27.46
636.125	27.56
636.315	28.17
636.505	28.07
636.695	27.98
636.885	27.72
637.075	27.72
637.265	27.87
637.455	27.96
637.644	27.8
637.834	28.16
638.024	27.95
638.214	28.16
638.404	27.8
638.593	28.12
638.783	28.54
638.973	29.31
639.163	29.13
639.352	29.1
639.542	29.3
639.732	29.65
639.921	29.43
640.111	29.45
640.301	29.36
640.49	29.26
640.68	29.05
640.87	28.9
641.059	28.64
641.249	28.96
641.438	28.97
641.628	28.5
641.817	28.08
642.007	28.12
642.196	28.22
642.386	28.35
642.575	28.99
642.764	28.69
642.954	28.59
643.143	28.73
643.333	28.94
643.522	28.79
643.711	29.27
643.901	29.53
644.09	29.54
644.279	29.72
644.469	29.91
644.658	29.56
644.847	30.04
645.036	30.27
645.226	30.19
645.415	29.65
645.604	29.82
645.793	29.86
645.982	29.77
646.171	29.8
646.361	30.17
646.55	30.4
646.739	30.21
646.928	30.28
647.117	30.06
647.306	30.31
647.495	30.61
647.684	30.96
647.873	31.19
648.062	31.5
648.251	31.47
648.44	31.03
648.629	30.91
648.818	31.09
649.007	30.88
649.196	31.4
649.384	31.1
649.573	31.24
649.762	30.96
649.951	30.68
650.14	30.59
650.328	30.92
650.517	31.08
650.706	30.94
650.895	31.27
651.083	31.51
651.272	30.99
651.461	31.21
651.65	31.68
651.838	31.79
652.027	32.02
652.216	31.83
652.404	31.64
652.593	31.52
652.781	31.34
652.97	30.94
653.158	30.87
653.347	31.42
653.535	31.23
653.724	30.25
653.912	30.81
654.101	30.58
654.289	30.85
654.478	30.96
654.666	31.26
654.855	31.64
655.043	31.43
655.231	31.24
655.42	31.17
655.608	31.46
655.796	32.1
655.985	31.53
656.173	31.71
656.361	31.71
656.55	31.42
656.738	30.99
656.926	31.05
657.114	32.09
657.302	32.14
657.491	31.74
657.679	31.33
657.867	31.24
658.055	31.05
658.243	30.75
658.431	30.74
658.619	30.93
658.807	31.1
658.996	31.04
659.184	30.28
659.372	30.28
659.56	30.52
659.748	30.19
659.936	30.22
660.124	30.16
660.311	30.31
660.499	30.45
660.687	30.37
660.875	30.5
661.063	30.39
661.251	30.73
661.439	30.75
661.627	30.78
661.814	31.4
662.002	31.54
662.19	31.79
662.378	31.96
662.565	32.26
662.753	32.32
662.941	32.37
663.129	32.48
663.316	32.79
663.504	33.05
663.692	33.23
663.879	33.52
664.067	33.51
664.254	33.72
664.442	33.67
664.63	33.33
664.817	33.82
665.005	33.81
665.192	34.44
665.38	34
665.567	33.87
665.755	33.99
665.942	34
666.13	33.96
666.317	33.92
666.504	33.92
666.692	33.98
666.879	33.79
667.067	33.81
667.254	33.17
667.441	33.01
667.629	33.21
667.816	33.06
668.003	32.71
668.19	32.58
668.378	32.27
668.565	31.94
668.752	31.67
668.939	31.16
669.127	30.97
669.314	30.88
669.501	31.19
669.688	31.22
669.875	31
670.062	31.38
670.249	31.53
670.436	32.04
670.623	32.5
670.81	32.79
670.997	33.22
671.184	33.22
671.371	33.61
671.558	33.83
671.745	34.22
671.932	34.48
672.119	33.93
672.306	33.9
672.493	33.88
672.68	34.17
672.867	34.4
673.054	34.07
673.24	34.33
673.427	34.42
673.614	34.41
673.801	34.28
673.988	34.59
674.174	35.02
674.361	34.96
674.548	34.7
674.734	34.7
674.921	34.43
675.108	35.29
675.294	35.2
675.481	34.96
675.668	35.27
675.854	35.26
676.041	35.1
676.227	35.4
676.414	35.87
676.601	36.29
676.787	36.12
676.974	36.03
677.16	35.47
677.347	35.42
677.533	35.16
677.719	34.73
677.906	33.89
678.092	33.98
678.279	33.71
678.465	33.39
678.651	33.08
678.838	33.19
679.024	32.87
679.21	32.8
679.397	33.18
679.583	33.4
679.769	33.39
679.955	33.56
680.142	33.44
680.328	33.87
680.514	33.9
680.7	33.98
680.886	33.98
681.073	34.54
681.259	34.21
681.445	34.35
681.631	34.5
681.817	34.56
682.003	34.82
682.189	34.79
682.375	34.35
682.561	34.22
682.747	34.52
682.933	34.44
683.119	34.4
683.305	34.87
683.491	34.83
683.677	34.68
683.863	34.86
684.049	35.26
684.235	35.14
684.42	35.27
684.606	35.5
684.792	35.22
684.978	35.28
685.164	35.44
685.349	35.77
685.535	35.56
685.721	35.63
685.907	35.36
686.092	35.21
686.278	35.5
686.464	35.34
686.649	35.19
686.835	35.49
687.021	35.87
687.206	36.05
687.392	35.6
687.577	35.96
687.763	35.86
687.948	35.86
688.134	36.07
688.319	36.26
688.505	36.82
688.69	36.96
688.876	36.69
689.061	36.46
689.247	35.68
689.432	36.37
689.618	35.85
689.803	36.27
689.988	36.68
690.174	36.55
690.359	36.54
690.544	36.04
690.73	36.65
690.915	36.92
691.1	37.17
691.285	37.84
691.471	37.82
691.656	38.08
691.841	37.91
692.026	38.15
692.211	38.41
692.396	38.37
692.582	38.99
692.767	38.72
692.952	38.94
693.137	38.73
693.322	38.35
693.507	38.06
693.692	38.35
693.877	38.32
694.062	38.22
694.247	38
694.432	38.46
694.617	38.66
694.802	38.91
694.987	39.11
695.172	39.07
695.357	39.52
695.541	39.78
695.726	39.75
695.911	40.47
696.096	39.97
696.281	40.12
696.466	39.54
696.65	38.91
696.835	38.39
697.02	37.7
697.204	37.36
697.389	37.04
697.574	36.37
697.759	35.8
697.943	35.15
698.128	35.12
698.312	34.76
698.497	34.32
698.682	34.15
698.866	34.06
699.051	33.91
699.235	33.8
699.42	33.95
699.604	34.02
699.789	33.94
699.973	33.98
700.158	34.3
700.342	34.37
700.527	35.1
700.711	35.59
700.895	35.56
701.08	36.4
701.264	37.12
701.448	37.29
701.633	38.07
701.817	38.83
702.001	39.64
702.186	39.82
702.37	40.32
702.554	40.25
702.738	40.37
702.923	40.51
703.107	40.66
703.291	40.96
703.475	40.81
703.659	40.59
703.843	40.92
704.027	41.09
704.212	40.91
704.396	40.76
704.58	40.91
704.764	40.54
704.948	41.14
705.132	40.33
705.316	40.41
705.5	41.23
705.684	41.44
705.868	40.98
706.052	40.17
706.235	40.36
706.419	40.79
706.603	41.17
706.787	41.1
706.971	41.7
707.155	42.14
707.339	42.73
707.522	41.89
707.706	42.1
707.89	42.36
708.074	42.77
708.257	42.8
708.441	42.56
708.625	42.41
708.808	42.82
708.992	42.4
709.176	42.69
709.359	41.92
709.543	42.45
709.727	42.22
709.91	42.05
710.094	41.9
710.277	42.2
710.461	42.12
710.644	41.8
710.828	41.36
711.011	41.57
711.195	40.93
711.378	40.64
711.562	40.33
711.745	40.43
711.928	40.29
712.112	40.26
712.295	40.2
712.478	40.53
712.662	41.03
712.845	40.97
713.028	40.45
713.212	40.71
713.395	41.14
713.578	41.18
713.761	40.52
713.945	40.56
714.128	40.24
714.311	40.41
714.494	40.34
714.677	39.76
714.86	40.02
715.043	40.3
715.227	40.69
715.41	39.97
715.593	40.23
715.776	40.14
715.959	40.2
716.142	40.63
716.325	40.18
716.508	40.19
716.691	40.48
716.874	40.97
717.057	41.32
717.239	41.13
717.422	41.63
717.605	41.18
717.788	41.82
717.971	42.22
718.154	41.85
718.337	42.38
718.519	42.08
718.702	42.55
718.885	42.17
719.068	41.86
719.25	42.17
719.433	42.02
719.616	42.45
719.798	42.25
719.981	43.26
720.164	43.31
720.346	43.13
720.529	43.58
720.712	43.57
720.894	43.65
721.077	43.09
721.259	42.25
721.442	43.42
721.624	43.56
721.807	44.28
721.989	43.5
722.172	44.37
722.354	44.1
722.537	44.32
722.719	43.63
722.901	44.47
723.084	45.12
723.266	44.93
723.448	44.51
723.631	44.43
723.813	43.99
723.995	42.92
724.178	42.39
724.36	42.83
724.542	42.33
724.724	42.11
724.907	41.51
725.089	41.4
725.271	42.63
725.453	41.81
725.635	41.84
725.817	42.73
725.999	43.14
726.181	43.94
726.364	43.41
726.546	44.03
726.728	44.59
726.91	44.85
727.092	44.65
727.274	44.03
727.456	44.5
727.638	44.65
727.819	43.69
728.001	43.7
728.183	43.11
728.365	43.54
728.547	43.23
728.729	43.56
728.911	43.6
729.093	44.06
729.274	43.92
729.456	43.98
729.638	44.21
729.82	44.57
730.001	45.37
730.183	45.56
730.365	45.7
730.546	45.7
730.728	44.83
730.91	44.45
731.091	44.25
731.273	44.07
731.455	43.97
731.636	44.14
731.818	44.24
731.999	43.8
732.181	43.92
732.362	43.88
732.544	44.07
732.725	44.37
732.907	44.21
733.088	44.82
733.27	45.61
733.451	45.46
733.633	45.64
733.814	44.59
733.995	44.94
734.177	44.7
734.358	44.12
734.539	44
734.721	43.49
734.902	43.18
735.083	42.8
735.264	43
735.446	43.63
735.627	43
735.808	44.01
735.989	43.72
736.17	44.34
736.351	44.82
736.533	44.32
736.714	44.82
736.895	46.17
737.076	45.92
737.257	45.65
737.438	45.1
737.619	45.69
737.8	45.71
737.981	46.13
738.162	45.92
738.343	45.86
738.524	46.06
738.705	47.09
738.886	46.35
739.067	46.65
739.247	45.89
739.428	46.13
739.609	45.54
739.79	45.72
739.971	44.2
740.151	43.65
740.332	44.24
740.513	44.25
740.694	44.06
740.874	43.87
741.055	43.43
741.236	44.42
741.417	44.82
741.597	44.62
741.778	44.76
741.958	45.15
742.139	45.65
742.32	45.36
742.5	46.25
742.681	46.46
742.861	46.66
743.042	46.32
743.222	45.91
743.403	45.06
743.583	44.98
743.764	44.6
743.944	45.53
744.124	45.7
744.305	46.08
744.485	46.05
744.666	45.14
744.846	45.48
745.026	47.01
745.207	47.24
745.387	48.13
745.567	48.74
745.747	48.79
745.928	47.83
746.108	47.56
746.288	46.59
746.468	45.64
746.648	46.35
746.829	46.65
747.009	46.46
747.189	46.77
747.369	46.61
747.549	45.79
747.729	46.24
747.909	46.6
748.089	47.17
748.269	47.45
748.449	48.37
748.629	47.43
748.809	47
748.989	47.1
749.169	46.98
749.349	46.83
749.529	47.57
749.709	46.59
749.889	47.19
750.068	46.23
750.248	47.42
750.428	46.99
750.608	47.74
750.788	47.3
750.967	46.54
751.147	46.1
751.327	45.77
751.507	45.66
751.686	46.24
751.866	46.9
752.046	47.46
752.225	46.18
752.405	46.56
752.585	47.23
752.764	47.39
752.944	47.21
753.123	47.17
753.303	47.64
753.482	46.94
753.662	47.27
753.841	46.52
754.021	47.15
754.2	47.61
754.38	46.76
754.559	46.14
754.739	46.11
754.918	46.83
755.097	47.22
755.277	47.23
755.456	47.34
755.635	47.65
755.815	48.28
755.994	46.84
756.173	45.77
756.352	45.68
756.532	45.32
756.711	45.7
756.89	44.85
757.069	45.05
757.248	44.55
757.427	44.06
757.607	44.06
757.786	44.42
757.965	44.03
758.144	45.5
758.323	46.86
758.502	47.11
758.681	46.48
758.86	46.61
759.039	46.28
759.218	46.4
759.397	47.66
759.576	46.87
759.755	46.27
759.934	48.13
760.113	48.29
760.291	47.14
760.47	47.32
760.649	48.61
760.828	49.44
761.007	49.6
761.186	49.58
761.364	49.71
761.543	49.07
761.722	48.6
761.901	47.26
762.079	46.08
762.258	45.7
762.437	45.56
762.615	43.58
762.794	42.6
762.972	41.83
763.151	41.29
763.33	40.89
763.508	40.78
763.687	40.2
763.865	40.8
764.044	40.33
764.222	40.34
764.401	40.04
764.579	40.49
764.758	40.4
764.936	40.93
765.114	40.67
765.293	41.13
765.471	42.06
765.65	43.08
765.828	42.82
766.006	43.95
766.184	44.87
766.363	44.84
766.541	45.03
766.719	45.98
766.898	46.68
767.076	48.07
767.254	47.82
767.432	48.58
767.61	48.22
767.788	48.58
767.967	48.45
768.145	49
768.323	48.93
768.501	50.43
768.679	50.05
768.857	49
769.035	49.2
769.213	49.9
769.391	50.33
769.569	50.62
769.747	51.17
769.925	51.33
770.103	49.51
770.281	49.73
770.459	49.83
770.636	50.62
770.814	52.46
770.992	52.43
771.17	52.41
771.348	51.19
771.525	52.16
771.703	50.69
771.881	51.69
772.059	52.95
772.236	53.91
772.414	53.45
772.592	53.21
772.769	52.06
772.947	52.46
773.125	51.39
773.302	50.84
773.48	51.25
773.657	53.61
773.835	52.51
774.013	53.62
774.19	54.18
774.368	53.5
774.545	53.11
774.723	53.38
774.9	53.16
775.077	53.83
775.255	55.67
775.432	54.18
775.61	53.15
775.787	53.22
775.964	52.41
776.142	53.51
776.319	55.42
776.496	56.93
776.674	56.5
776.851	56.32
777.028	55.63
777.205	56.55
777.382	56.46
777.56	56.17
777.737	58.52
777.914	57.71
778.091	56.77
778.268	55.7
778.445	54.62
778.622	53.87
778.8	54.14
778.977	55.69
779.154	59.54
779.331	59.96
779.508	61.99
779.685	58.78
779.862	58.66
780.038	57.71
780.215	58.12
780.392	57.28
780.569	57.76
780.746	58.75
780.923	58.04
781.1	53.06
781.277	53.39
781.453	51.88
781.63	52.8
781.807	53.64
781.984	54.77
782.16	57.12
782.337	58.71
782.514	59.96
782.691	61.39
782.867	61.39
783.044	60.03
783.221	59.78
783.397	61.26
783.574	61.94
783.75	63.6
783.927	64.19
784.103	62.52
784.28	61.9
784.456	61.86
784.633	61.45
784.809	63.5
784.986	63.29
785.162	61.94
785.339	60.2
785.515	59.77
785.692	58.3
785.868	57.7
786.044	57.19
786.221	58.84
786.397	58.23
786.573	55.75
786.749	52.67
786.926	54.37
787.102	55.57
787.278	55.9
787.454	55.4
787.631	56.17
787.807	54.92
787.983	53.37
788.159	51.14
788.335	51.19
788.511	51.62
788.687	52.87
788.863	52.52
789.039	52.1
789.216	51.48
789.392	51.82
789.568	53.3
789.744	54.99
789.919	55.15
790.095	54.79
790.271	54.09
790.447	52.92
790.623	51
790.799	50.46
790.975	51.07
791.151	51.88
791.327	51.41
791.502	50.39
791.678	48.91
791.854	50.92
792.03	52.96
792.205	55.55
792.381	57.62
792.557	59.9
792.733	61.36
792.908	61.38
793.084	60.76
793.259	61.89
793.435	60.77
793.611	62.19
793.786	60.99
793.962	60.6
794.137	60.03
794.313	57.98
794.488	57.03
794.664	57.11
794.839	56.4
795.015	56.74
795.19	57.68
795.366	57.84
795.541	56.3
795.716	57.36
795.892	57.49
796.067	55.36
796.242	55.47
796.418	55.22
796.593	54.28
796.768	55.77
796.944	54.33
797.119	53.11
797.294	52.27
797.469	53.79
797.644	52.45
797.82	51.85
797.995	52.12
798.17	52.92
798.345	51.71
798.52	50.27
798.695	51.22
798.87	52.16
799.045	51.84
799.22	52.75
799.395	52.15
799.57	52.2
799.745	52.55
799.92	52.74
800.095	54.5
800.27	57.13
800.445	60.05
800.62	57.38
800.795	61.18
800.97	62.54
801.145	61.54
801.319	62.56
801.494	62.13
801.669	63
801.844	65.43
802.018	62.45
802.193	62.4
802.368	61.2
802.543	61.72
802.717	58.58
802.892	56.36
803.067	58.72
803.241	54.85
803.416	56.91
803.59	57.45
803.765	57.17
803.94	59.18
804.114	56.84
804.289	57.94
804.463	57.9
804.638	54.57
804.812	59.43
804.986	56.48
805.161	58.83
805.335	56.15
805.51	55
805.684	53.34
805.858	52.57
806.033	51.98
806.207	50.19
806.381	51.44
806.556	53.16
806.73	50.41
806.904	51.69
807.078	51.45
807.253	55.76
807.427	54.32
807.601	53.72
807.775	53.93
807.949	56.26
808.123	57.56
808.298	58.94
808.472	61.72
808.646	60.7
808.82	61.24
808.994	61.55
809.168	58.96
809.342	59.89
809.516	61.28
809.69	60.43
809.864	59.81
810.038	61.06
810.212	60.6
810.385	59.64
810.559	61.16
810.733	59.85
810.907	59.21
811.081	60.77
811.255	60.01
811.428	59.33
811.602	61.7
811.776	64.09
811.95	61.02
812.123	61.06
812.297	59.42
812.471	59.77
812.644	59.59
812.818	62.64
812.992	59.52
813.165	64.63
813.339	63.05
813.512	61.55
813.686	60.19
813.86	63.17
814.033	62.11
814.207	63.57
814.38	60.09
814.554	59.89
814.727	60.65
814.9	63.25
815.074	60.65
815.247	62.22
815.421	60.71
815.594	60.8
815.767	56.44
815.941	55.15
816.114	55.3
816.287	60.43
816.46	61.24
816.634	58.4
816.807	57.87
816.98	55.48
817.153	58.06
817.327	60.08
817.5	59.96
817.673	66.35
817.846	67.71
818.019	67.76
818.192	65.5
818.365	63.14
818.538	63.35
818.711	60.36
818.884	61.76
819.057	58.91
819.23	58
819.403	56.27
819.576	51.67
819.749	51.09
819.922	50.55
820.095	49.96
820.268	49.6
820.441	48.26
820.614	48.58
820.786	46.38
820.959	45.59
821.132	43.14
821.305	41.65
821.477	40.86
821.65	40.52
821.823	39
821.996	37.62
822.168	36.88
822.341	36.3
822.514	35.53
822.686	35.01
822.859	34.67
823.031	34.65
823.204	34.48
823.376	34.02
823.549	33.25
823.722	33.25
823.894	33.84
824.067	34.23
824.239	34.9
824.411	35.02
824.584	35.64
824.756	35.67
824.929	35.74
825.101	36.37
825.273	36.63
825.446	36.91
825.618	37.17
825.79	36.96
825.963	37.19
826.135	36.67
826.307	36.34
826.479	36.8
826.652	36.29
826.824	36.35
826.996	35.63
827.168	36.14
827.34	36.57
827.512	36.04
827.684	35.9
827.856	35.5
828.029	36.88
828.201	37.12
828.373	36.7
828.545	38.03
828.717	38.91
828.889	39.5
829.061	39.63
829.232	40.36
829.404	41.62
829.576	42.38
829.748	43.14
829.92	43.72
830.092	45.98
830.264	47.17
830.436	48.17
830.607	49.22
830.779	51.5
830.951	52.57
831.123	50.79
831.294	50.88
831.466	52.03
831.638	51.73
831.809	49.35
831.981	50.49
832.153	48.73
832.324	47.77
832.496	47.85
832.667	49.69
832.839	49.31
833.011	50.52
833.182	50.04
833.354	47.9
833.525	49.1
833.697	48.05
833.868	43.83
834.039	44.77
834.211	44.65
834.382	43.02
834.554	40.92
834.725	41.88
834.896	42.89
835.068	42.8
835.239	43.43
835.41	44.07
835.581	44.45
835.753	46.27
835.924	45.47
836.095	46.01
836.266	44.89
836.438	45.83
836.609	45.51
836.78	45.38
836.951	47
837.122	46.63
837.293	45.84
837.464	46.16
837.635	47.59
837.806	49.4
837.977	49.28
838.148	54.18
838.319	54.03
838.49	52.88
838.661	54.9
838.832	54.46
839.003	52.37
839.174	54.56
839.345	58.14
839.516	59.52
839.687	60.98
839.857	62.1
840.028	61.66
840.199	61.64
840.37	61.6
840.54	62.72
840.711	59.79
840.882	65.4
841.053	62.2
841.223	60.19
841.394	59.38
841.564	59.74
841.735	58.51
841.906	57.28
842.076	53.44
842.247	57.06
842.417	57.51
842.588	61.21
842.758	63.4
842.929	64.76
843.099	64.45
843.27	63.86
843.44	62.46
843.611	67.33
843.781	64.21
843.951	67.22
844.122	67.85
844.292	67.48
844.462	71.19
844.633	67.89
844.803	70.15
844.973	74.36
845.144	79.67
845.314	84.71
845.484	76.74
845.654	82.96
845.824	87.68
845.995	89.05
846.165	86.46
846.335	84.84
846.505	84.49
846.675	87.56
846.845	93.5
847.015	90.37
847.185	85.56
847.355	91.15
847.525	95.34
847.695	106.82
847.865	109.2
848.035	113.39
848.205	98.92
848.375	106.22
848.545	89.63
848.715	78.77
848.884	78.41
849.054	81.51
849.224	88.93
849.394	84.14
849.564	72.44
849.733	70.43
849.903	71.27
850.073	81.11
850.243	80.53
850.412	90.06
850.582	90.1
850.752	93.28
850.921	88.38
851.091	84.62
851.26	88.56
851.43	91.06
851.599	87.1
851.769	84.55
851.939	86.69
852.108	91.42
852.278	93.15
852.447	92.9
852.616	90.64
852.786	91.42
852.955	92.69
853.125	94.15
853.294	93.38
853.463	92.55
853.633	96.18
853.802	89.37
853.971	93.43
854.141	96.97
854.31	94.45
854.479	86.76
854.648	95.94
854.818	84.01
854.987	78.09
855.156	79.98
855.325	83.93
855.494	89.29
855.663	87.55
855.832	83.69
856.001	80.58
856.171	86.88
856.34	95.21
856.509	86.29
856.678	109.14
856.847	122.28
857.016	112.4
857.185	111.47
857.353	109.56
857.522	117.88
857.691	113.12
857.86	111.01
858.029	103.01
858.198	102.91
858.367	112.89
858.535	104.75
858.704	98.74
858.873	97.18
859.042	105.38
859.21	101.38
859.379	104.9
859.548	90.88
859.717	93.65
859.885	91.87
860.054	94.67
860.222	79.08
860.391	90.68
860.56	85.77
860.728	92.89
860.897	77.36
861.065	76.63
861.234	78.77
861.402	85.88
861.571	66.4
861.739	65.95
861.908	68.12
862.076	71.51
862.244	63.73
862.413	59.44
862.581	53.79
862.749	66.03
862.918	68.95
863.086	71.52
863.254	68.88
863.423	87.16
863.591	108.86
863.759	100.39
863.927	102.65
864.096	95.18
864.264	96.55
864.432	95.63
864.6	92.98
864.768	84.8
864.936	82.64
865.104	87.39
865.272	87.42
865.44	79.75
865.608	74.53
865.776	83.17
865.944	81.04
866.112	85.2
866.28	94.27
866.448	92.19
866.616	100.82
866.784	96
866.952	93.16
867.12	93.21
867.288	93.99
867.455	92.63
867.623	90.18
867.791	89.77
867.959	84.83
868.127	76.31
868.294	81.85
868.462	73.5
868.63	72.56
868.797	81.13
868.965	79.52
869.133	80.87
869.3	85.29
869.468	83.24
869.636	79.26
869.803	85.32
869.971	97.93
870.138	91.01
870.306	87.24
870.473	85.81
870.641	82.46
870.808	74.42
870.975	72.13
871.143	80.95
871.31	80.37
871.478	92.03
871.645	83.3
871.812	81.85
871.98	85.13
872.147	92.25
872.314	85.52
872.482	82.48
872.649	94.95
872.816	92.16
872.983	82.52
873.15	81.74
873.318	81.09
873.485	92.06
873.652	85.67
873.819	91.37
873.986	96.21
874.153	108.62
874.32	100.76
874.487	97.37
874.654	86.98
874.821	95.2
874.988	93.01
875.155	91.1
875.322	91.2
875.489	92.02
875.656	82.78
875.823	76.95
875.99	66.9
876.157	77.78
876.324	73.09
876.49	79.55
876.657	79.24
876.824	79.3
876.991	84.03
877.157	81.52
877.324	87.21
877.491	93.27
877.658	101.62
877.824	103.41
877.991	95.02
878.157	98.53
878.324	97.24
878.491	103.48
878.657	114.62
878.824	109.18
878.99	102.26
879.157	102.95
879.323	94.98
879.49	86.77
879.656	85.78
879.823	86.28
879.989	82.85
880.156	87.18
880.322	77.12
880.488	68.37
880.655	69.53
880.821	74.55
880.987	72.34
881.154	68.72
881.32	68.11
881.486	65.39
881.652	65.7
881.819	63.25
881.985	57.77
882.151	56.96
882.317	54.28
882.483	49.68
882.649	48.48
882.816	45.81
882.982	44.29
883.148	42.78
883.314	41.79
883.48	44.48
883.646	44.36
883.812	42.78
883.978	43.51
884.144	43.17
884.31	40.2
884.476	39.37
884.642	40.52
884.807	42.56
884.973	43.42
885.139	43.42
885.305	41.31
885.471	42.46
885.637	43.2
885.802	41.07
885.968	42.65
886.134	48.41
886.3	49.35
886.465	46.6
886.631	47.32
886.797	48.58
886.962	50.15
887.128	51.66
887.293	50.46
887.459	52.05
887.625	55.84
887.79	54.96
887.956	49.17
888.121	51.04
888.287	55.62
888.452	53.28
888.618	50.14
888.783	50.32
