Data from LC_164_Reflection_5.txt Node
Date: Mon Nov 16 22:58:58 EST 2015
User: robert
Spectrometer: USB4E03001
Autoset integration time: false
Trigger mode: 4
Integration Time (sec): 1.000000E-1
Scans to average: 15
Electric dark correction enabled: true
Nonlinearity correction enabled: false
Boxcar width: 5
Stray light correction enabled: false
XAxis mode: Wavelengths
Stop averaging: false
Number of Pixels in Spectrum: 3648
>>>>>Begin Spectral Data<<<<<
177.566	3006.02
177.785	208.12
178.005	-1466.39
178.225	20.83
178.445	-180.19
178.665	602.4
178.885	114.01
179.105	888.79
179.324	1708.88
179.544	-113.91
179.764	-801.9
179.984	-332.93
180.204	-183.73
180.423	-221.87
180.643	-244.37
180.863	-157.5
181.083	-182.77
181.302	-334.12
181.522	-264.61
181.742	-199.63
181.961	-446.44
182.181	-366.67
182.401	-522.43
182.621	-2336.24
182.84	-1153.44
183.06	-762.66
183.279	-492.04
183.499	-352.95
183.719	-279.06
183.938	-289.36
184.158	-308.88
184.377	-158.64
184.597	-241.5
184.816	-150.23
185.036	-84.24
185.256	-36.32
185.475	-62.66
185.695	-66.47
185.914	-110.36
186.134	-273.17
186.353	-354.71
186.572	-580.64
186.792	-1064.97
187.011	-421.41
187.231	-356.52
187.45	-276.21
187.67	-730.05
187.889	-2035
188.108	4040.72
188.328	-1007.54
188.547	-351.68
188.766	-599.49
188.986	-767.06
189.205	-384.79
189.424	-326.93
189.644	-996.06
189.863	-1029.23
190.082	-733.09
190.302	-1644.09
190.521	-857.73
190.74	778.64
190.959	353.95
191.178	476.43
191.398	427.83
191.617	449.27
191.836	371.59
192.055	753.91
192.274	380.68
192.494	465.19
192.713	414.53
192.932	877.58
193.151	1017.67
193.37	1946.18
193.589	-1205.02
193.808	-362.58
194.027	-471.64
194.246	-4376.82
194.465	812.68
194.685	1857.18
194.904	982.04
195.123	-1553.55
195.342	-987.24
195.561	-326.4
195.78	-493.96
195.999	23423.94
196.218	815.39
196.436	743.58
196.655	-2661.31
196.874	-1070.65
197.093	-1313.7
197.312	-854.52
197.531	2010.08
197.75	696.72
197.969	-2272.1
198.188	-435.39
198.407	-70.24
198.625	-111.8
198.844	-93.2
199.063	-87.34
199.282	-189.23
199.501	-176.49
199.719	-113.77
199.938	-45.89
200.157	-35.21
200.376	-66.66
200.594	-129.68
200.813	-380.75
201.032	-239.5
201.251	-188.72
201.469	-166.61
201.688	-114.91
201.907	-249.84
202.125	-376.34
202.344	16301.19
202.563	3051.85
202.781	545.25
203	1520.34
203.218	1075.09
203.437	982.08
203.656	524.79
203.874	308.31
204.093	283.48
204.311	342.76
204.53	354.57
204.748	535.19
204.967	379.36
205.185	346.21
205.404	386.2
205.622	226.39
205.841	187.83
206.059	215.44
206.278	291.54
206.496	803.29
206.715	436.01
206.933	384.64
207.151	322.01
207.37	350.62
207.588	344.46
207.806	311.19
208.025	725.54
208.243	-1511.9
208.461	2439.31
208.68	-21064.71
208.898	793.69
209.116	907.48
209.335	779.73
209.553	845.12
209.771	8061.67
209.989	1599.92
210.208	2934.41
210.426	-4637.88
210.644	2224.01
210.862	-1603.49
211.081	716
211.299	-358.7
211.517	1253.62
211.735	-320.36
211.953	-66542.86
212.171	-1027.11
212.39	-2463.06
212.608	-13178.26
212.826	609.99
213.044	402.57
213.262	421.68
213.48	1997.47
213.698	232.23
213.916	331.77
214.134	248.87
214.352	531.56
214.57	307.31
214.788	467.28
215.006	395.48
215.224	332.82
215.442	269.99
215.66	242.33
215.878	213.51
216.096	222.29
216.314	254.08
216.532	413.06
216.75	339.81
216.968	331.53
217.185	667.42
217.403	1143.59
217.621	-3541.37
217.839	-976.46
218.057	-1149.58
218.275	2091.31
218.492	624.11
218.71	866.33
218.928	282.64
219.146	290.55
219.363	252.28
219.581	188.66
219.799	151.03
220.017	151.94
220.234	149.37
220.452	150.29
220.67	168.91
220.887	162.05
221.105	179
221.323	143.38
221.54	146.55
221.758	181.86
221.976	205.35
222.193	209.36
222.411	128.33
222.629	133.66
222.846	138.79
223.064	146.53
223.281	151.32
223.499	129.54
223.716	128.1
223.934	106.84
224.151	110.66
224.369	99.29
224.586	91.91
224.804	100.75
225.021	99.33
225.239	78.85
225.456	72.38
225.674	67.11
225.891	72.15
226.108	88.32
226.326	86.53
226.543	70.54
226.76	68.43
226.978	66.42
227.195	70.56
227.413	56.01
227.63	52.35
227.847	50.11
228.064	43.2
228.282	38.8
228.499	33.49
228.716	29.79
228.934	28.63
229.151	28.09
229.368	24.28
229.585	22.06
229.802	24.64
230.02	26.65
230.237	26.14
230.454	27.78
230.671	27.64
230.888	28.37
231.105	29.86
231.323	30.13
231.54	31.98
231.757	36.17
231.974	34.45
232.191	34.74
232.408	33.22
232.625	33.73
232.842	32.91
233.059	36.57
233.276	33.47
233.493	33.18
233.71	36.6
233.927	39.38
234.144	40.78
234.361	42
234.578	43.6
234.795	44.32
235.012	43.06
235.229	40.27
235.446	42.06
235.663	40.93
235.879	42.47
236.096	40.98
236.313	36.31
236.53	38.4
236.747	38.83
236.964	33.98
237.181	37.49
237.397	39.16
237.614	47.3
237.831	44.09
238.048	45.84
238.264	46.74
238.481	46.56
238.698	48.9
238.915	43.68
239.131	43.31
239.348	44.28
239.565	42.1
239.781	38.34
239.998	31.3
240.215	33
240.431	31.48
240.648	29.85
240.865	25.66
241.081	22.82
241.298	22.2
241.514	21.48
241.731	20.85
241.947	19.8
242.164	19.35
242.38	19.51
242.597	17.7
242.814	18.3
243.03	17.64
243.246	18.74
243.463	19.06
243.679	19.75
243.896	18.19
244.112	18.78
244.329	17.68
244.545	20.16
244.762	20.42
244.978	21.49
245.194	20.89
245.411	19.32
245.627	18.13
245.843	18.11
246.06	16.35
246.276	17.89
246.492	17.01
246.709	17.01
246.925	15.6
247.141	14.8
247.357	14.09
247.574	13.63
247.79	13.81
248.006	13.18
248.222	12.43
248.439	12.86
248.655	12.88
248.871	13.13
249.087	12.74
249.303	12.24
249.519	13.2
249.736	14.64
249.952	14.14
250.168	15.46
250.384	17.2
250.6	18.49
250.816	19.73
251.032	17.31
251.248	16.89
251.464	17.47
251.68	17.96
251.896	18.2
252.112	16.91
252.328	18.07
252.544	18.23
252.76	19.2
252.976	18.55
253.192	17.32
253.408	18.36
253.624	20.89
253.84	20.54
254.056	23.24
254.272	22.17
254.487	23.23
254.703	22.26
254.919	21.41
255.135	18.36
255.351	21.64
255.567	22.21
255.782	22.91
255.998	20.43
256.214	22.56
256.43	18.55
256.646	21.19
256.861	23.46
257.077	24.79
257.293	22.59
257.508	24.96
257.724	24.86
257.94	23.76
258.155	21.71
258.371	20.69
258.587	18.15
258.802	17.87
259.018	16.51
259.234	14.88
259.449	14.7
259.665	14.51
259.88	14.63
260.096	13.99
260.312	13.34
260.527	13.44
260.743	13.19
260.958	13.94
261.174	13.89
261.389	14.48
261.605	15.08
261.82	15.17
262.036	15.64
262.251	16.26
262.466	15.24
262.682	17.19
262.897	16.56
263.113	16.55
263.328	16.32
263.543	17.03
263.759	16.28
263.974	15.72
264.189	15.35
264.405	18.28
264.62	16.9
264.835	17.91
265.051	17.5
265.266	19.76
265.481	20.5
265.696	20.53
265.912	20.01
266.127	18.16
266.342	16.87
266.557	16.61
266.773	14.08
266.988	13.77
267.203	16.07
267.418	15.14
267.633	13.68
267.848	15.09
268.064	13.64
268.279	14.23
268.494	14.23
268.709	14.21
268.924	14.35
269.139	15.63
269.354	14.44
269.569	11.13
269.784	12
269.999	13
270.214	11.69
270.429	16
270.644	15.12
270.859	14.83
271.074	15.55
271.289	15.2
271.504	15.89
271.719	16.87
271.934	17.75
272.149	17.07
272.363	16.98
272.578	16.33
272.793	14.08
273.008	13.68
273.223	14.26
273.438	13.57
273.653	14.54
273.867	13.06
274.082	12.86
274.297	12.7
274.512	13.24
274.726	12.62
274.941	12.75
275.156	12.78
275.371	13.49
275.585	14.36
275.8	15.54
276.015	14.98
276.229	14.31
276.444	14.81
276.659	14.5
276.873	12.81
277.088	13.05
277.302	13.99
277.517	13.34
277.732	14.48
277.946	13.9
278.161	14.7
278.375	14.21
278.59	15.23
278.804	13.73
279.019	14.65
279.233	15.76
279.448	15.93
279.662	15.31
279.877	14.85
280.091	13.58
280.306	12.34
280.52	10.37
280.735	9.59
280.949	9.78
281.163	10.87
281.378	9.96
281.592	9.05
281.806	9.93
282.021	9.52
282.235	10.97
282.449	11.12
282.664	11.64
282.878	12.35
283.092	14.1
283.307	13.83
283.521	14.05
283.735	14.03
283.949	15.82
284.164	15.58
284.378	15.59
284.592	14.49
284.806	14.75
285.02	15.21
285.234	14.56
285.449	13.33
285.663	13.55
285.877	12.97
286.091	12.18
286.305	10.89
286.519	10.28
286.733	9.34
286.947	9.45
287.161	8.41
287.375	9.03
287.589	10.25
287.803	10.5
288.017	10.32
288.231	9.56
288.445	10.7
288.659	11.2
288.873	11.16
289.087	12.56
289.301	11.92
289.515	12.57
289.729	11.56
289.943	10.47
290.157	9.96
290.371	10.71
290.584	11.07
290.798	10.76
291.012	11.01
291.226	10.89
291.44	11.18
291.654	11.23
291.867	11.8
292.081	11.62
292.295	12.86
292.509	13.22
292.722	12.75
292.936	13
293.15	13.41
293.364	13.03
293.577	13.31
293.791	12.5
294.005	13.84
294.218	13.58
294.432	13.55
294.645	12.75
294.859	12.32
295.073	12.11
295.286	12.38
295.5	11.97
295.713	12.51
295.927	11.67
296.14	12.16
296.354	11.68
296.568	11.4
296.781	11.5
296.994	11.62
297.208	11.43
297.421	11.55
297.635	11.31
297.848	11.58
298.062	10.79
298.275	11.77
298.489	11.5
298.702	11.84
298.915	12.09
299.129	13.03
299.342	13.39
299.555	14.01
299.769	14.52
299.982	14.45
300.195	14.65
300.409	15.44
300.622	15.92
300.835	17.61
301.048	17.41
301.262	16.56
301.475	14.87
301.688	14.8
301.901	14.78
302.115	14.54
302.328	15.29
302.541	14.73
302.754	15.23
302.967	15.36
303.18	14.28
303.393	13.61
303.607	13.77
303.82	14.74
304.033	13.42
304.246	14.3
304.459	13.66
304.672	12.79
304.885	13.77
305.098	12.5
305.311	11.06
305.524	11.17
305.737	11.62
305.95	12.72
306.163	10.55
306.376	10.89
306.589	10.12
306.802	9.77
307.015	11.93
307.228	10.81
307.44	12.29
307.653	12.38
307.866	11.42
308.079	12.95
308.292	12.9
308.505	15.47
308.718	15.53
308.93	15.07
309.143	14.98
309.356	13.97
309.569	14.6
309.781	15.46
309.994	16.1
310.207	16.81
310.42	15.62
310.632	14.98
310.845	14.53
311.058	14.06
311.27	14.87
311.483	15.63
311.696	15.04
311.908	14.82
312.121	13.71
312.333	14.01
312.546	13.44
312.759	13.64
312.971	14.61
313.184	14.67
313.396	15.43
313.609	15.97
313.821	15.39
314.034	15.58
314.246	15.66
314.459	15.68
314.671	15.38
314.884	15.74
315.096	15.09
315.309	13.41
315.521	14.48
315.733	13.4
315.946	11.94
316.158	12.5
316.371	12.9
316.583	12.94
316.795	12.98
317.008	12.93
317.22	13.36
317.432	13.15
317.644	14.51
317.857	12.44
318.069	13.7
318.281	14.11
318.494	13.61
318.706	14.46
318.918	14.47
319.13	14.99
319.342	14.89
319.555	14.39
319.767	15.99
319.979	15.18
320.191	16.52
320.403	16.53
320.615	16.52
320.827	17.58
321.039	16.51
321.252	15.77
321.464	15.04
321.676	15.76
321.888	14.84
322.1	14.39
322.312	13.06
322.524	12.63
322.736	12.23
322.948	12.02
323.16	10.7
323.372	10.99
323.584	11.73
323.796	11.43
324.007	10.23
324.219	11.08
324.431	11.6
324.643	11.98
324.855	12.15
325.067	11.68
325.279	11.77
325.491	12.16
325.702	11.42
325.914	10.92
326.126	11.69
326.338	12.25
326.55	12.56
326.761	11.61
326.973	12.45
327.185	11.93
327.396	12.73
327.608	13.11
327.82	13.19
328.032	14.14
328.243	13.26
328.455	13.47
328.666	13.65
328.878	13.55
329.09	12.84
329.301	13.09
329.513	12.93
329.725	13.31
329.936	12.73
330.148	13.03
330.359	11.95
330.571	13.23
330.782	13.33
330.994	13.29
331.205	12.85
331.417	12.89
331.628	12.45
331.84	12.98
332.051	12.41
332.262	12.69
332.474	11.79
332.685	13.01
332.897	12.49
333.108	11.69
333.319	11.4
333.531	11.84
333.742	12.62
333.953	11.72
334.165	11.25
334.376	11.15
334.587	11.28
334.799	11.76
335.01	11.44
335.221	11.51
335.432	10.91
335.644	9.19
335.855	8.23
336.066	8.42
336.277	9
336.488	9.67
336.7	8.45
336.911	8.52
337.122	8.17
337.333	8.85
337.544	9.76
337.755	10.11
337.966	11.07
338.177	12.7
338.388	12.79
338.599	13.21
338.811	12.87
339.022	13.84
339.233	13.28
339.444	13.87
339.655	11.78
339.866	11.13
340.076	12.12
340.287	12.48
340.498	11.29
340.709	10.81
340.92	10.37
341.131	10.19
341.342	9.88
341.553	10.05
341.764	9.59
341.975	10.4
342.185	10.41
342.396	9.39
342.607	9.71
342.818	10.49
343.029	10.88
343.239	11.21
343.45	11.34
343.661	10.85
343.872	10.92
344.082	10.93
344.293	10.98
344.504	12.56
344.714	12.5
344.925	11.2
345.136	10.2
345.346	8.53
345.557	8.58
345.768	8.26
345.978	9.01
346.189	9.53
346.399	9.44
346.61	9.12
346.821	7.39
347.031	7.9
347.242	8.37
347.452	8.87
347.663	9.81
347.873	10.03
348.084	10.6
348.294	11.31
348.504	10.61
348.715	11.35
348.925	11.38
349.136	10.94
349.346	9.85
349.557	10.51
349.767	10.56
349.977	10.72
350.188	10.77
350.398	10.85
350.608	9.91
350.819	9.99
351.029	9.51
351.239	9.92
351.449	10.39
351.66	11.34
351.87	11.81
352.08	11.13
352.29	10.64
352.501	9.75
352.711	9.62
352.921	10.06
353.131	9.83
353.341	9.59
353.552	10.08
353.762	10.13
353.972	9.9
354.182	9.54
354.392	9.31
354.602	10.32
354.812	10.89
355.022	10.95
355.232	10.56
355.442	10.97
355.652	10.91
355.862	9.43
356.072	9.99
356.282	9.65
356.492	9.59
356.702	9.94
356.912	9.55
357.122	9.53
357.332	9.28
357.542	9.3
357.752	8.76
357.962	8.85
358.171	9.7
358.381	9.34
358.591	9.65
358.801	9.16
359.011	9.53
359.221	9.07
359.43	9.09
359.64	9.65
359.85	9.62
360.06	9.6
360.269	9.86
360.479	9.18
360.689	8.63
360.899	8.44
361.108	8.49
361.318	8.04
361.528	8.15
361.737	7.47
361.947	6.41
362.156	6.22
362.366	6.47
362.576	6.5
362.785	6.93
362.995	6.88
363.204	6.89
363.414	6.94
363.623	6.77
363.833	7.53
364.042	7.89
364.252	8.52
364.461	8.64
364.671	8.19
364.88	8.56
365.09	8.71
365.299	9.15
365.509	8.91
365.718	8.57
365.927	8.55
366.137	8.04
366.346	8.2
366.555	7.96
366.765	7.94
366.974	8.42
367.183	7.88
367.393	7.42
367.602	7.27
367.811	7.27
368.021	7.3
368.23	7.46
368.439	6.82
368.648	6.92
368.857	7.44
369.067	7.88
369.276	7.52
369.485	7.76
369.694	7.81
369.903	8.42
370.112	8.61
370.321	8.78
370.531	8.45
370.74	9.01
370.949	9.11
371.158	9
371.367	8.81
371.576	8.56
371.785	7.87
371.994	7.61
372.203	7.32
372.412	7.24
372.621	7.74
372.83	8.24
373.039	8.18
373.248	7.93
373.457	8.08
373.666	7.61
373.874	7.99
374.083	8.67
374.292	8.82
374.501	8.31
374.71	7.91
374.919	7.63
375.128	7.65
375.336	7.17
375.545	7.24
375.754	6.66
375.963	6.83
376.171	6.72
376.38	6.33
376.589	6.92
376.798	6.83
377.006	6.99
377.215	7.18
377.424	6.56
377.632	6.9
377.841	6.92
378.05	6.81
378.258	6.74
378.467	6.76
378.675	6.99
378.884	6.59
379.093	6.74
379.301	6.62
379.51	6.04
379.718	6.21
379.927	6.15
380.135	5.39
380.344	5.61
380.552	5.01
380.761	4.99
380.969	4.44
381.177	4.35
381.386	3.76
381.594	3.63
381.803	3.72
382.011	3.93
382.219	3.55
382.428	3.29
382.636	3.25
382.845	4.17
383.053	4.24
383.261	4.16
383.469	4.25
383.678	4.93
383.886	5.01
384.094	4.81
384.302	4.64
384.511	5.27
384.719	6.07
384.927	5.89
385.135	5.8
385.343	5.99
385.552	6.26
385.76	6.24
385.968	6.23
386.176	6.26
386.384	6.2
386.592	6.22
386.8	5.59
387.008	5.5
387.216	5.78
387.424	5.46
387.633	5.26
387.841	5.04
388.049	5.1
388.257	5.17
388.465	5.33
388.672	5.77
388.88	5.57
389.088	5.86
389.296	5.71
389.504	5.93
389.712	6.07
389.92	5.77
390.128	5.89
390.336	5.91
390.544	6.13
390.751	5.78
390.959	5.4
391.167	5.53
391.375	5.6
391.583	5.55
391.79	5.02
391.998	4.79
392.206	5.18
392.414	4.82
392.621	4.74
392.829	4.62
393.037	4.87
393.244	4.98
393.452	5.26
393.66	5.16
393.867	5.41
394.075	5.51
394.283	5.59
394.49	5.33
394.698	5.77
394.905	5.64
395.113	5.22
395.32	5.34
395.528	5.44
395.735	5.13
395.943	4.73
396.15	4.51
396.358	4.54
396.565	4.59
396.773	5.04
396.98	5.1
397.188	5.16
397.395	5.37
397.602	5.08
397.81	4.9
398.017	5.24
398.225	5.36
398.432	5.61
398.639	5.69
398.847	5.9
399.054	5.43
399.261	5.2
399.468	5.13
399.676	4.95
399.883	5.2
400.09	5.16
400.297	5.02
400.505	5.2
400.712	4.91
400.919	4.98
401.126	5.01
401.333	5.21
401.54	5.39
401.748	5.5
401.955	5.57
402.162	5.53
402.369	5.56
402.576	5.57
402.783	5.84
402.99	5.9
403.197	5.75
403.404	5.44
403.611	5.17
403.818	5.12
404.025	4.97
404.232	4.89
404.439	4.63
404.646	4.45
404.853	4.16
405.06	3.86
405.267	3.67
405.474	3.44
405.681	3.41
405.887	3.53
406.094	3.42
406.301	3.6
406.508	3.8
406.715	4.22
406.922	4.54
407.128	4.41
407.335	4.51
407.542	4.6
407.749	4.81
407.955	5.04
408.162	4.62
408.369	4.83
408.575	4.53
408.782	4.22
408.989	3.72
409.195	3.78
409.402	4.15
409.609	4.12
409.815	4.27
410.022	4.46
410.228	4.2
410.435	4.57
410.642	4.12
410.848	4.31
411.055	4.25
411.261	4.52
411.468	4.37
411.674	3.91
411.881	3.99
412.087	4.1
412.294	3.81
412.5	3.76
412.706	3.97
412.913	4.23
413.119	4.03
413.326	4.11
413.532	4.01
413.738	3.85
413.945	4.34
414.151	4.06
414.357	3.98
414.564	3.91
414.77	4.03
414.976	3.44
415.182	3.67
415.389	3.96
415.595	3.89
415.801	3.72
416.007	4.03
416.214	3.79
416.42	3.96
416.626	3.89
416.832	4.03
417.038	3.84
417.244	4.2
417.45	3.74
417.657	3.79
417.863	4.03
418.069	4.27
418.275	4.19
418.481	4.12
418.687	4.01
418.893	3.98
419.099	3.92
419.305	4.13
419.511	3.97
419.717	4.08
419.923	3.83
420.129	3.67
420.335	3.61
420.541	3.58
420.746	3.55
420.952	3.61
421.158	3.59
421.364	3.53
421.57	3.48
421.776	3.51
421.982	3.5
422.187	3.45
422.393	3.34
422.599	3.14
422.805	3.18
423.01	3.26
423.216	3.14
423.422	3.08
423.628	3.13
423.833	3.03
424.039	3.14
424.245	3.1
424.45	3.25
424.656	3.38
424.862	3.41
425.067	3.38
425.273	3.3
425.478	3.4
425.684	3.41
425.889	3.61
426.095	3.73
426.301	3.54
426.506	3.61
426.712	3.67
426.917	3.63
427.123	3.8
427.328	3.72
427.533	3.91
427.739	3.93
427.944	3.81
428.15	3.5
428.355	3.57
428.561	3.67
428.766	3.53
428.971	3.59
429.177	3.69
429.382	3.82
429.587	3.99
429.793	3.86
429.998	3.94
430.203	4.13
430.408	4.22
430.614	4.28
430.819	4.17
431.024	4.33
431.229	4.1
431.434	4.22
431.64	4.1
431.845	4.14
432.05	4.4
432.255	4.3
432.46	4.15
432.665	4.09
432.87	3.91
433.076	3.97
433.281	4.06
433.486	3.99
433.691	3.73
433.896	3.47
434.101	3.25
434.306	3.14
434.511	2.98
434.716	3.18
434.921	3.31
435.126	3.21
435.331	3.12
435.535	2.93
435.74	2.99
435.945	3.07
436.15	3.22
436.355	3.46
436.56	3.38
436.765	3.47
436.97	3.33
437.174	3.18
437.379	3.33
437.584	3.66
437.789	3.66
437.993	3.7
438.198	3.7
438.403	3.79
438.608	3.64
438.812	3.44
439.017	3.45
439.222	3.43
439.426	3.45
439.631	3.44
439.836	3.15
440.04	3.28
440.245	3.25
440.45	3.34
440.654	3.28
440.859	3.28
441.063	3.29
441.268	3.24
441.472	3.33
441.677	3.36
441.881	3.22
442.086	3.3
442.29	3.19
442.495	3.14
442.699	3.04
442.904	3.13
443.108	3.08
443.312	3.17
443.517	3.29
443.721	3.14
443.925	3.05
444.13	3.19
444.334	3.18
444.538	3.14
444.743	3.13
444.947	3.22
445.151	3.06
445.356	3.03
445.56	3.11
445.764	3.04
445.968	3.01
446.173	2.9
446.377	2.93
446.581	2.97
446.785	3.05
446.989	3.05
447.193	3.02
447.398	3.04
447.602	3.03
447.806	3.08
448.01	3.29
448.214	3.47
448.418	3.66
448.622	3.66
448.826	3.65
449.03	3.61
449.234	3.7
449.438	3.56
449.642	3.65
449.846	3.71
450.05	3.62
450.254	3.28
450.458	3.36
450.662	3.2
450.866	3.1
451.069	3.06
451.273	3
451.477	2.81
451.681	2.92
451.885	2.81
452.089	2.8
452.292	2.79
452.496	2.99
452.7	2.85
452.904	2.96
453.107	3.01
453.311	3.11
453.515	3.08
453.719	3.1
453.922	3.21
454.126	3.2
454.33	3.24
454.533	3.09
454.737	2.95
454.94	2.98
455.144	2.91
455.348	2.85
455.551	2.83
455.755	2.96
455.958	3.18
456.162	2.92
456.365	3
456.569	2.92
456.772	3.11
456.976	3.2
457.179	3.11
457.383	3.14
457.586	3.34
457.79	3.39
457.993	3.45
458.196	3.31
458.4	3.36
458.603	3.33
458.807	3.34
459.01	3.4
459.213	3.22
459.417	3.11
459.62	3.2
459.823	3.12
460.026	2.98
460.23	2.97
460.433	2.98
460.636	3.06
460.839	3.1
461.042	3.19
461.246	3.21
461.449	3.29
461.652	3.4
461.855	3.28
462.058	3.26
462.261	3.19
462.464	3.05
462.668	3.18
462.871	3.1
463.074	3.25
463.277	3.05
463.48	3.17
463.683	3.26
463.886	3.34
464.089	3.41
464.292	3.45
464.495	3.66
464.698	3.72
464.901	3.69
465.104	3.76
465.306	3.7
465.509	3.74
465.712	3.53
465.915	3.61
466.118	3.5
466.321	3.39
466.524	3.56
466.726	3.55
466.929	3.7
467.132	3.66
467.335	3.6
467.538	3.28
467.74	3.37
467.943	3.39
468.146	3.47
468.348	3.48
468.551	3.55
468.754	3.29
468.956	3.24
469.159	3.13
469.362	3.21
469.564	3.13
469.767	3.31
469.969	3.23
470.172	3.13
470.375	2.97
470.577	2.93
470.78	2.96
470.982	3.09
471.185	3.12
471.387	3.2
471.59	3.14
471.792	3.24
471.995	3.37
472.197	3.38
472.399	3.32
472.602	3.13
472.804	3.24
473.007	3.1
473.209	2.98
473.411	3.06
473.614	3.15
473.816	3.26
474.018	3.35
474.22	3.28
474.423	3.41
474.625	3.35
474.827	3.62
475.03	3.63
475.232	3.94
475.434	3.96
475.636	4.03
475.838	3.85
476.04	3.78
476.243	3.64
476.445	3.54
476.647	3.47
476.849	3.62
477.051	3.49
477.253	3.51
477.455	3.46
477.657	3.39
477.859	3.25
478.061	3.09
478.263	3.03
478.465	3.03
478.667	3.2
478.869	3.16
479.071	3.02
479.273	3.01
479.475	2.77
479.677	2.74
479.879	2.74
480.081	2.84
480.283	2.92
480.485	2.89
480.686	2.99
480.888	2.84
481.09	2.81
481.292	2.85
481.494	2.89
481.695	3.06
481.897	2.86
482.099	2.86
482.301	2.77
482.502	2.73
482.704	2.74
482.906	2.63
483.107	2.66
483.309	2.61
483.511	2.61
483.712	2.61
483.914	2.56
484.115	2.58
484.317	2.58
484.519	2.57
484.72	2.61
484.922	2.55
485.123	2.6
485.325	2.57
485.526	2.65
485.728	2.66
485.929	2.64
486.131	2.69
486.332	2.75
486.534	2.75
486.735	2.77
486.936	2.7
487.138	2.7
487.339	2.68
487.541	2.71
487.742	2.63
487.943	2.62
488.144	2.62
488.346	2.53
488.547	2.51
488.748	2.56
488.95	2.5
489.151	2.54
489.352	2.6
489.553	2.56
489.755	2.63
489.956	2.7
490.157	2.77
490.358	2.84
490.559	2.96
490.76	2.97
490.961	2.95
491.163	3.03
491.364	3.08
491.565	3
491.766	3.05
491.967	2.99
492.168	2.97
492.369	3.04
492.57	2.95
492.771	3.01
492.972	3.06
493.173	3.14
493.374	3.11
493.575	3.2
493.776	3.39
493.976	3.56
494.177	3.74
494.378	3.8
494.579	3.73
494.78	4.01
494.981	3.96
495.182	3.88
495.382	3.78
495.583	3.82
495.784	3.72
495.985	3.71
496.185	3.59
496.386	3.53
496.587	3.69
496.788	3.68
496.988	3.6
497.189	3.68
497.39	3.78
497.59	3.72
497.791	3.83
497.992	3.87
498.192	3.85
498.393	3.86
498.593	3.85
498.794	3.72
498.994	3.88
499.195	3.83
499.395	3.79
499.596	3.88
499.796	4.05
499.997	3.99
500.197	3.93
500.398	4
500.598	4.14
500.799	4.08
500.999	4.12
501.199	4
501.4	4.17
501.6	4.23
501.801	4.21
502.001	4.16
502.201	4.23
502.402	4.26
502.602	4.36
502.802	4.32
503.002	4.51
503.203	4.47
503.403	4.4
503.603	4.27
503.803	4.2
504.003	4.15
504.204	4.31
504.404	4.34
504.604	4.29
504.804	4.29
505.004	4.26
505.204	4.11
505.404	4.31
505.604	4.48
505.804	4.53
506.005	4.57
506.205	4.53
506.405	4.5
506.605	4.46
506.805	4.55
507.005	4.57
507.204	4.45
507.404	4.47
507.604	4.4
507.804	4.26
508.004	4.32
508.204	4.34
508.404	4.4
508.604	4.34
508.804	4.42
509.003	4.37
509.203	4.32
509.403	4.43
509.603	4.49
509.803	4.54
510.002	4.7
510.202	4.6
510.402	4.56
510.602	4.62
510.801	4.75
511.001	4.71
511.201	4.66
511.4	4.55
511.6	4.54
511.8	4.49
511.999	4.69
512.199	4.58
512.398	4.75
512.598	4.9
512.797	4.95
512.997	5.01
513.197	4.98
513.396	5.21
513.596	5.37
513.795	5.69
513.994	5.66
514.194	5.55
514.393	5.65
514.593	5.62
514.792	5.6
514.992	5.44
515.191	5.3
515.39	5.33
515.59	5.36
515.789	5.35
515.988	5.21
516.188	5.31
516.387	5.16
516.586	5.03
516.786	5.09
516.985	4.98
517.184	5.01
517.383	5.14
517.582	5.22
517.782	5.2
517.981	5.12
518.18	5
518.379	5
518.578	4.96
518.777	5.04
518.976	4.86
519.176	4.97
519.375	5.08
519.574	5.04
519.773	5
519.972	4.9
520.171	4.93
520.37	5.02
520.569	5.09
520.768	5.16
520.967	5.41
521.166	5.6
521.365	5.59
521.564	5.61
521.762	5.71
521.961	5.84
522.16	5.96
522.359	5.98
522.558	6.01
522.757	5.96
522.956	6.04
523.154	5.77
523.353	5.81
523.552	5.8
523.751	5.79
523.949	5.62
524.148	5.62
524.347	5.7
524.546	5.72
524.744	5.75
524.943	5.76
525.142	5.77
525.34	5.95
525.539	5.86
525.737	5.84
525.936	5.85
526.135	5.76
526.333	5.68
526.532	5.62
526.73	5.65
526.929	5.52
527.127	5.51
527.326	5.44
527.524	5.27
527.723	5.29
527.921	5.25
528.12	5.16
528.318	5.22
528.516	5.23
528.715	5.15
528.913	5.07
529.112	5.09
529.31	5.08
529.508	5.06
529.707	5.09
529.905	5.13
530.103	5.2
530.301	5.22
530.5	5.27
530.698	5.3
530.896	5.47
531.094	5.67
531.293	5.81
531.491	5.92
531.689	6.02
531.887	6.16
532.085	6.22
532.283	6.1
532.481	6.18
532.68	6.17
532.878	6.12
533.076	6.07
533.274	5.98
533.472	5.95
533.67	5.89
533.868	5.94
534.066	5.89
534.264	5.8
534.462	5.92
534.66	5.95
534.858	6.02
535.056	6.08
535.253	6.11
535.451	6.23
535.649	6.25
535.847	6.46
536.045	6.49
536.243	6.63
536.441	6.76
536.638	6.79
536.836	6.87
537.034	6.92
537.232	7.04
537.43	7.24
537.627	7.35
537.825	7.46
538.023	7.43
538.22	7.65
538.418	7.66
538.616	7.86
538.813	8.07
539.011	8.29
539.209	8.39
539.406	8.34
539.604	8.41
539.801	8.49
539.999	8.49
540.196	8.47
540.394	8.44
540.591	8.41
540.789	8.25
540.986	8.11
541.184	8.04
541.381	7.97
541.579	8.01
541.776	7.94
541.974	7.9
542.171	7.99
542.368	7.98
542.566	7.97
542.763	8.05
542.96	8.15
543.158	8.29
543.355	8.36
543.552	8.55
543.75	8.83
543.947	8.81
544.144	8.93
544.341	9.09
544.539	9.31
544.736	9.47
544.933	9.55
545.13	9.7
545.327	9.71
545.524	9.83
545.722	9.89
545.919	9.79
546.116	10.08
546.313	10.14
546.51	10.11
546.707	10.12
546.904	10.17
547.101	10.28
547.298	10.37
547.495	10.44
547.692	10.42
547.889	10.37
548.086	10.59
548.283	10.71
548.48	10.88
548.677	10.9
548.874	11.06
549.07	11.19
549.267	11.29
549.464	11.32
549.661	11.56
549.858	11.92
550.055	12.3
550.251	12.15
550.448	12.11
550.645	12.05
550.842	12.24
551.038	12.37
551.235	12.32
551.432	12.37
551.628	12.44
551.825	12.63
552.022	12.68
552.218	12.64
552.415	12.76
552.612	12.78
552.808	12.89
553.005	12.86
553.201	12.86
553.398	12.98
553.594	13.07
553.791	13.3
553.987	13.4
554.184	13.41
554.38	13.52
554.577	13.54
554.773	13.87
554.97	14.09
555.166	14.46
555.362	14.46
555.559	14.56
555.755	14.68
555.952	14.72
556.148	14.7
556.344	14.88
556.541	14.81
556.737	15.16
556.933	15.15
557.129	15.1
557.326	14.94
557.522	15.33
557.718	15.56
557.914	15.57
558.11	15.58
558.307	15.49
558.503	15.62
558.699	15.79
558.895	15.89
559.091	15.94
559.287	15.98
559.483	16.18
559.679	16.19
559.876	16.21
560.072	16.39
560.268	16.52
560.464	16.61
560.66	16.5
560.856	16.58
561.052	16.66
561.247	16.86
561.443	17.01
561.639	16.95
561.835	17.09
562.031	17.23
562.227	17.19
562.423	17.31
562.619	17.67
562.815	17.97
563.01	18.15
563.206	18.17
563.402	18
563.598	18.03
563.793	18.31
563.989	18.23
564.185	18.07
564.381	18.39
564.576	18.44
564.772	18.41
564.968	18.28
565.163	18.09
565.359	17.82
565.555	18
565.75	18.2
565.946	18.07
566.141	18.14
566.337	18.33
566.532	18.3
566.728	18.32
566.923	18.3
567.119	18.3
567.314	18.45
567.51	18.83
567.705	18.94
567.901	18.97
568.096	19.26
568.292	19.41
568.487	19.55
568.682	19.66
568.878	19.83
569.073	20.09
569.268	20.39
569.464	20.69
569.659	20.7
569.854	20.7
570.05	20.67
570.245	20.71
570.44	20.81
570.635	20.73
570.831	20.74
571.026	20.78
571.221	20.79
571.416	20.65
571.611	20.57
571.806	20.64
572.002	20.73
572.197	20.84
572.392	20.79
572.587	20.81
572.782	21.19
572.977	21.4
573.172	21.53
573.367	21.62
573.562	21.81
573.757	21.91
573.952	22.11
574.147	22.4
574.342	22.74
574.537	22.9
574.732	23.02
574.927	22.9
575.121	22.84
575.316	22.8
575.511	22.62
575.706	22.86
575.901	22.87
576.096	22.98
576.29	22.97
576.485	22.96
576.68	23.09
576.875	23.1
577.069	23.13
577.264	23.31
577.459	23.69
577.654	24.1
577.848	24.24
578.043	24.72
578.238	24.83
578.432	24.89
578.627	25.02
578.821	25.28
579.016	25.59
579.21	25.97
579.405	26.03
579.6	26.1
579.794	26.24
579.989	26.17
580.183	26.11
580.378	26.28
580.572	26.51
580.766	26.38
580.961	26.48
581.155	26.56
581.35	26.52
581.544	26.56
581.738	26.48
581.933	26.76
582.127	27.18
582.321	27.39
582.516	27.41
582.71	27.59
582.904	27.96
583.099	27.9
583.293	28.01
583.487	28.46
583.681	28.89
583.875	29.28
584.07	29.31
584.264	29.21
584.458	29.22
584.652	29.08
584.846	28.87
585.04	29.16
585.234	29.4
585.428	29.42
585.623	29.04
585.817	28.85
586.011	29.04
586.205	29.23
586.399	29.18
586.593	29.24
586.787	29.54
586.981	29.73
587.174	29.54
587.368	29.4
587.562	29.69
587.756	29.94
587.95	30.21
588.144	30.07
588.338	30.03
588.532	30.3
588.725	30.26
588.919	30.41
589.113	30.3
589.307	30.26
589.501	30.28
589.694	30.19
589.888	30.16
590.082	30.02
590.275	30.01
590.469	29.93
590.663	29.67
590.856	29.96
591.05	29.9
591.244	30.06
591.437	30.42
591.631	30.55
591.824	30.64
592.018	30.74
592.212	30.88
592.405	30.75
592.599	30.78
592.792	31.17
592.986	31.2
593.179	31.23
593.372	31.38
593.566	31.35
593.759	31.28
593.953	31.28
594.146	31.23
594.339	31.24
594.533	31.41
594.726	31.49
594.92	31.28
595.113	31.02
595.306	30.73
595.499	30.48
595.693	30.23
595.886	30.24
596.079	30.16
596.272	29.94
596.466	29.92
596.659	30.05
596.852	29.92
597.045	30.1
597.238	30.22
597.431	30.49
597.624	30.73
597.818	30.81
598.011	30.9
598.204	31.02
598.397	31.49
598.59	31.53
598.783	31.65
598.976	31.9
599.169	32.02
599.362	32.13
599.555	32.4
599.748	32.75
599.941	32.76
600.134	33
600.326	33.04
600.519	33.35
600.712	33.37
600.905	33.38
601.098	33.64
601.291	33.63
601.483	33.82
601.676	33.9
601.869	33.53
602.062	33.8
602.255	33.59
602.447	33.61
602.64	33.23
602.833	33.42
603.025	33.18
603.218	32.85
603.411	32.6
603.603	32.43
603.796	32.04
603.989	31.87
604.181	31.73
604.374	31.76
604.566	31.5
604.759	31.35
604.951	31.19
605.144	31.21
605.336	31.55
605.529	31.6
605.721	31.59
605.914	31.8
606.106	32.04
606.299	32.28
606.491	32.43
606.683	32.8
606.876	33.03
607.068	33.23
607.26	33.56
607.453	33.59
607.645	33.81
607.837	33.89
608.03	33.92
608.222	33.91
608.414	34
608.606	34.27
608.799	34.31
608.991	34.36
609.183	34.67
609.375	34.65
609.567	34.56
609.759	34.78
609.952	35.12
610.144	35.64
610.336	36.05
610.528	36.17
610.72	36.08
610.912	36.53
611.104	37.29
611.296	37.58
611.488	38
611.68	38.46
611.872	38.74
612.064	39.09
612.256	39.15
612.448	39.23
612.64	39.38
612.832	39.84
613.023	39.73
613.215	39.46
613.407	39.44
613.599	39.43
613.791	39.44
613.983	39.42
614.174	39.03
614.366	39.07
614.558	38.94
614.75	38.83
614.941	38.66
615.133	38.93
615.325	38.85
615.516	38.85
615.708	38.91
615.9	38.89
616.091	38.9
616.283	39.08
616.475	38.67
616.666	38.85
616.858	39.22
617.049	39.24
617.241	39.07
617.432	39.15
617.624	39.1
617.815	39
618.007	38.8
618.198	38.96
618.39	38.88
618.581	38.99
618.773	39.05
618.964	38.8
619.155	38.91
619.347	38.97
619.538	38.92
619.729	38.85
619.921	38.86
620.112	39
620.303	38.97
620.494	39.12
620.686	39.31
620.877	39.2
621.068	39.17
621.259	39.23
621.451	39.36
621.642	39.45
621.833	39.54
622.024	39.57
622.215	39.8
622.406	40.07
622.597	40.11
622.788	40.04
622.98	40.19
623.171	40.6
623.362	40.83
623.553	41
623.744	40.76
623.935	40.89
624.126	40.73
624.317	40.49
624.508	40.14
624.698	40.09
624.889	40.02
625.08	40.07
625.271	39.98
625.462	39.75
625.653	39.46
625.844	39.54
626.034	39.28
626.225	39.56
626.416	39.53
626.607	39.55
626.798	39.42
626.988	39.62
627.179	39.46
627.37	39.14
627.56	39.27
627.751	39.36
627.942	39.4
628.132	39.55
628.323	39.6
628.514	39.71
628.704	39.73
628.895	39.97
629.085	40.07
629.276	40.23
629.466	40.56
629.657	40.44
629.847	40.47
630.038	40.78
630.228	41.04
630.419	41.23
630.609	41.2
630.8	41.3
630.99	41.21
631.181	41.37
631.371	41.62
631.561	41.89
631.752	42.34
631.942	42.61
632.132	42.29
632.323	42.22
632.513	42.14
632.703	42.56
632.893	42.35
633.084	42.34
633.274	41.94
633.464	41.77
633.654	41.6
633.844	41.33
634.034	40.91
634.225	41.17
634.415	41.04
634.605	41.1
634.795	40.94
634.985	41.26
635.175	41.36
635.365	41.47
635.555	41.73
635.745	41.55
635.935	41.57
636.125	41.86
636.315	42.03
636.505	42.27
636.695	42.16
636.885	41.93
637.075	41.92
637.265	42.16
637.455	42.39
637.644	42.27
637.834	42.55
638.024	42.88
638.214	42.92
638.404	42.94
638.593	42.92
638.783	43.18
638.973	43.57
639.163	43.63
639.352	43.85
639.542	43.9
639.732	44.04
639.921	44.33
640.111	44.35
640.301	44.41
640.49	44.18
640.68	44.22
640.87	44.17
641.059	44.51
641.249	44.94
641.438	44.82
641.628	44.51
641.817	44.39
642.007	44.32
642.196	44.23
642.386	44.55
642.575	45.06
642.764	44.84
642.954	44.81
643.143	44.66
643.333	44.94
643.522	45.08
643.711	45.53
643.901	45.86
644.09	45.99
644.279	46.15
644.469	45.8
644.658	45.69
644.847	46.33
645.036	46.72
645.226	46.51
645.415	46.03
645.604	45.86
645.793	45.95
645.982	45.7
646.171	45.5
646.361	45.87
646.55	46.03
646.739	46.34
646.928	46.09
647.117	45.8
647.306	45.91
647.495	45.88
647.684	45.86
647.873	45.92
648.062	46.58
648.251	46.76
648.44	46.47
648.629	46.49
648.818	46.25
649.007	46.24
649.196	46.7
649.384	46.55
649.573	46.52
649.762	46.68
649.951	46.86
650.14	46.6
650.328	46.73
650.517	46.74
650.706	46.6
650.895	46.74
651.083	47.12
651.272	46.4
651.461	46.77
651.65	47.2
651.838	46.85
652.027	46.69
652.216	46.31
652.404	46.3
652.593	46.26
652.781	46.42
652.97	46.44
653.158	46.31
653.347	47.01
653.535	46.98
653.724	46.22
653.912	46.83
654.101	47.18
654.289	47.69
654.478	47.54
654.666	47.81
654.855	48.33
655.043	47.82
655.231	47.53
655.42	47.83
655.608	47.78
655.796	48.42
655.985	48.37
656.173	48.05
656.361	47.62
656.55	47.42
656.738	47.07
656.926	46.87
657.114	47.15
657.302	47.24
657.491	46.21
657.679	45.79
657.867	45.4
658.055	45.03
658.243	44.83
658.431	44.86
658.619	44.8
658.807	44.59
658.996	44.29
659.184	43.95
659.372	43.91
659.56	44.2
659.748	43.98
659.936	44.1
660.124	44.36
660.311	44.5
660.499	44.52
660.687	44.84
660.875	45.34
661.063	45.46
661.251	45.9
661.439	45.98
661.627	46.16
661.814	46.73
662.002	46.77
662.19	46.78
662.378	46.57
662.565	47.13
662.753	47.33
662.941	47.12
663.129	47.57
663.316	47.72
663.504	47.85
663.692	48.2
663.879	48.6
664.067	49.19
664.254	49.12
664.442	49.78
664.63	49.7
664.817	49.62
665.005	50.01
665.192	49.88
665.38	49.69
665.567	49.33
665.755	49.27
665.942	49.4
666.13	49.18
666.317	49.63
666.504	49.59
666.692	49.69
666.879	49.67
667.067	49.19
667.254	48.88
667.441	49.06
667.629	49.26
667.816	49.18
668.003	48.55
668.19	48.36
668.378	47.76
668.565	47.55
668.752	46.86
668.939	46.82
669.127	46.93
669.314	47.02
669.501	47.14
669.688	47.65
669.875	47.6
670.062	47.97
670.249	48.4
670.436	48.86
670.623	49.17
670.81	49.59
670.997	49.75
671.184	50.15
671.371	50.9
671.558	51.2
671.745	51.32
671.932	51.2
672.119	51.17
672.306	50.95
672.493	50.86
672.68	51.1
672.867	51.51
673.054	51.49
673.24	51.21
673.427	51.22
673.614	50.65
673.801	50.38
673.988	50.66
674.174	50.78
674.361	50.98
674.548	51.31
674.734	51.18
674.921	50.75
675.108	51.02
675.294	50.32
675.481	49.97
675.668	50.63
675.854	50.38
676.041	50.21
676.227	50.05
676.414	50.06
676.601	50.24
676.787	50.09
676.974	50.34
677.16	50.09
677.347	50.7
677.533	50.57
677.719	50.23
677.906	50.19
678.092	50.27
678.279	49.88
678.465	49.43
678.651	49.2
678.838	49.34
679.024	49.05
679.21	48.7
679.397	48.49
679.583	48.61
679.769	48.39
679.955	48.05
680.142	48.03
680.328	48.57
680.514	48.55
680.7	47.93
680.886	47.79
681.073	47.91
681.259	48.02
681.445	48.23
681.631	47.99
681.817	48.27
682.003	48.6
682.189	48.47
682.375	48.15
682.561	48.6
682.747	49.45
682.933	49.3
683.119	49.33
683.305	49.86
683.491	50.37
683.677	50.4
683.863	50.7
684.049	50.99
684.235	51.08
684.42	51.52
684.606	51.53
684.792	51.5
684.978	51.58
685.164	51.78
685.349	51.34
685.535	51.23
685.721	51.08
685.907	50.19
686.092	50.23
686.278	50.59
686.464	50.44
686.649	50.44
686.835	49.91
687.021	50.41
687.206	50.51
687.392	50.65
687.577	50.63
687.763	50.66
687.948	51.04
688.134	50.89
688.319	51.23
688.505	51.23
688.69	51.46
688.876	52
689.061	51.9
689.247	52.03
689.432	52.2
689.618	51.8
689.803	52.64
689.988	52.63
690.174	53.24
690.359	52.62
690.544	52.34
690.73	52.19
690.915	51.93
691.1	51.65
691.285	51.79
691.471	51.96
691.656	52.44
691.841	52.12
692.026	52.73
692.211	52.73
692.396	53.22
692.582	53.73
692.767	54.08
692.952	54.03
693.137	54.25
693.322	53.64
693.507	53.68
693.692	53.6
693.877	53.14
694.062	52.75
694.247	52.31
694.432	52.44
694.617	52.88
694.802	52.93
694.987	53.58
695.172	53.77
695.357	54.36
695.541	54.1
695.726	54.37
695.911	54.99
696.096	55.31
696.281	55.67
696.466	55.37
696.65	54.75
696.835	54.46
697.02	53.92
697.204	53.44
697.389	52.69
697.574	51.83
697.759	51.32
697.943	50.88
698.128	50.21
698.312	49.44
698.497	48.5
698.682	48.38
698.866	47.94
699.051	47.81
699.235	47.52
699.42	47.76
699.604	48.11
699.789	48.01
699.973	48.16
700.158	48.42
700.342	48.8
700.527	49.84
700.711	50.54
700.895	50.83
701.08	50.97
701.264	51.76
701.448	52.09
701.633	52.78
701.817	52.89
702.001	53.57
702.186	53.37
702.37	54.27
702.554	54.06
702.738	53.41
702.923	53.6
703.107	54.39
703.291	54.59
703.475	54.98
703.659	54.3
703.843	54.95
704.027	54.83
704.212	55.43
704.396	54.25
704.58	54.48
704.764	54.49
704.948	54.62
705.132	53.81
705.316	53.62
705.5	53.47
705.684	54.77
705.868	54.77
706.052	54.27
706.235	54.59
706.419	55.27
706.603	55.41
706.787	55.57
706.971	55.72
707.155	55.8
707.339	56.51
707.522	56.46
707.706	55.49
707.89	55.19
708.074	55.13
708.257	55.3
708.441	55.04
708.625	55.22
708.808	55.95
708.992	56.2
709.176	56.54
709.359	55.66
709.543	55.52
709.727	56.21
709.91	55.9
710.094	55.95
710.277	56.26
710.461	56.11
710.644	55.89
710.828	55.24
711.011	54.61
711.195	54.4
711.378	54.6
711.562	54.77
711.745	53.88
711.928	53.84
712.112	53.6
712.295	52.82
712.478	52.64
712.662	52.81
712.845	52.62
713.028	52.66
713.212	52.47
713.395	52.26
713.578	52.56
713.761	52.75
713.945	53.23
714.128	53.39
714.311	53.79
714.494	54.24
714.677	54.24
714.86	54.19
715.043	54.53
715.227	54.78
715.41	54.55
715.593	54.02
715.776	53.76
715.959	53.51
716.142	54.06
716.325	53.37
716.508	53.8
716.691	53.72
716.874	54.35
717.057	54.46
717.239	54.45
717.422	54.79
717.605	54.84
717.788	55.2
717.971	55.52
718.154	55.28
718.337	56.26
718.519	56.06
718.702	56.81
718.885	56.48
719.068	56.14
719.25	57.05
719.433	57.13
719.616	57.2
719.798	56.88
719.981	57.46
720.164	57.19
720.346	57.14
720.529	57.57
720.712	56.98
720.894	57.31
721.077	57.35
721.259	56.3
721.442	57.12
721.624	57.62
721.807	58.79
721.989	58.3
722.172	58.69
722.354	58.88
722.537	59.04
722.719	58.6
722.901	57.51
723.084	57.48
723.266	57.58
723.448	56.65
723.631	55.87
723.813	55.33
723.995	55.19
724.178	54.41
724.36	53.71
724.542	52.32
724.724	53.24
724.907	53.88
725.089	54.15
725.271	55.28
725.453	55.28
725.635	54.68
725.817	55.02
725.999	55.25
726.181	56.28
726.364	56.02
726.546	56.67
726.728	55.9
726.91	56.03
727.092	56.04
727.274	55.62
727.456	55.79
727.638	56.45
727.819	55.78
728.001	55
728.183	54.89
728.365	55.17
728.547	54.59
728.729	54.34
728.911	54.53
729.093	54.8
729.274	53.61
729.456	53.95
729.638	54.68
729.82	55.49
730.001	55.81
730.183	55.53
730.365	55.56
730.546	55.88
730.728	55.2
730.91	54.79
731.091	54.52
731.273	54.35
731.455	53.91
731.636	53.22
731.818	52.94
731.999	52.46
732.181	51.66
732.362	51.97
732.544	52.71
732.725	53.22
732.907	53.45
733.088	53.65
733.27	55.15
733.451	54.93
733.633	56.03
733.814	55.47
733.995	55.88
734.177	56.86
734.358	56.04
734.539	55.64
734.721	55.93
734.902	55.53
735.083	55.41
735.264	54.93
735.446	54.69
735.627	52.87
735.808	52.63
735.989	53.2
736.17	53.49
736.351	53.88
736.533	53.81
736.714	53.13
736.895	53.32
737.076	53.39
737.257	53.35
737.438	53.34
737.619	54.7
737.8	55.69
737.981	55.41
738.162	55.31
738.343	55.82
738.524	55.21
738.705	55.92
738.886	56.18
739.067	55.79
739.247	55.12
739.428	55.75
739.609	55.22
739.79	55.72
739.971	55.53
740.151	54.55
740.332	55.05
740.513	55.11
740.694	55.58
740.874	55.79
741.055	55.42
741.236	55.99
741.417	56.13
741.597	55.67
741.778	55.42
741.958	55.8
742.139	57.2
742.32	56.25
742.5	56.59
742.681	56.71
742.861	56.2
743.042	56.81
743.222	57.9
743.403	58.12
743.583	58.76
743.764	58.61
743.944	59.05
744.124	58.49
744.305	58.6
744.485	59.21
744.666	57.92
744.846	58.19
745.026	57.48
745.207	56.29
745.387	56.03
745.567	57.51
745.747	57.76
745.928	56.31
746.108	56.29
746.288	55.74
746.468	55.9
746.648	57.24
746.829	57.45
747.009	58.84
747.189	59.26
747.369	59.22
747.549	57.12
747.729	56.83
747.909	57.87
748.089	57.62
748.269	58.71
748.449	59.15
748.629	58.96
748.809	59.97
748.989	59.63
749.169	59.8
749.349	59.39
749.529	60.1
749.709	59.24
749.889	59.72
750.068	59.52
750.248	59.9
750.428	58.23
750.608	58.17
750.788	57.16
750.967	57.23
751.147	56.71
751.327	57.21
751.507	57.74
751.686	58.74
751.866	58.84
752.046	59.23
752.225	59.89
752.405	61.27
752.585	61.34
752.764	61.04
752.944	61.47
753.123	61.81
753.303	62
753.482	61.76
753.662	61.78
753.841	61.27
754.021	61.76
754.2	60.51
754.38	60.45
754.559	60.18
754.739	59.37
754.918	57.79
755.097	57.68
755.277	57.17
755.456	57.35
755.635	57.46
755.815	57.14
755.994	56.21
756.173	55.65
756.352	54.25
756.532	53.95
756.711	54.96
756.89	54.89
757.069	55.2
757.248	54.74
757.427	54.36
757.607	54.41
757.786	55.24
757.965	55.32
758.144	56.09
758.323	57.02
758.502	56.94
758.681	57.26
758.86	58.28
759.039	58.16
759.218	59.64
759.397	59.52
759.576	58.99
759.755	57.73
759.934	57.85
760.113	57.48
760.291	57.69
760.47	58.86
760.649	58.61
760.828	59.01
761.007	58.68
761.186	57.27
761.364	56.31
761.543	56.39
761.722	56.84
761.901	56.19
762.079	56.37
762.258	55.78
762.437	54.74
762.615	54.27
762.794	53.01
762.972	52.22
763.151	52.35
763.33	52.8
763.508	52.43
763.687	51.85
763.865	52.32
764.044	51.5
764.222	51.35
764.401	51.54
764.579	51.32
764.758	51.59
764.936	52.33
765.114	51.75
765.293	51.41
765.471	51.73
765.65	52.77
765.828	53.13
766.006	54.57
766.184	55.45
766.363	55.16
766.541	54.98
766.719	55.98
766.898	56.33
767.076	57.4
767.254	58.04
767.432	59.63
767.61	59.68
767.788	58.89
767.967	58.15
768.145	57.94
768.323	57.92
768.501	59.18
768.679	59.26
768.857	59.38
769.035	59.34
769.213	61.07
769.391	60.65
769.569	60.15
769.747	62.01
769.925	62.3
770.103	61.48
770.281	62.64
770.459	63.42
770.636	63.08
770.814	63.27
770.992	64.56
771.17	62.79
771.348	61.58
771.525	62.08
771.703	61.08
771.881	61.11
772.059	62.79
772.236	62.48
772.414	61.73
772.592	62.68
772.769	61.14
772.947	59.12
773.125	60.52
773.302	60.6
773.48	59.62
773.657	61.03
773.835	60
774.013	59.88
774.19	60.03
774.368	58.42
774.545	57.53
774.723	59.84
774.9	60.68
775.077	59.43
775.255	59.22
775.432	60.83
775.61	59.22
775.787	59.82
775.964	57.95
776.142	58.52
776.319	60.86
776.496	60.06
776.674	58.69
776.851	59.03
777.028	59.68
777.205	59.84
777.382	58.94
777.56	59.16
777.737	60.92
777.914	61.66
778.091	62.74
778.268	61.83
778.445	63
778.622	63.54
778.8	62.92
778.977	61.86
779.154	69.06
779.331	70.51
779.508	69.24
779.685	67.21
779.862	66.75
780.038	64.21
780.215	65.53
780.392	65.02
780.569	64.69
780.746	65.52
780.923	66.08
781.1	59.2
781.277	58.19
781.453	58.44
781.63	57.17
781.807	57.65
781.984	58.22
782.16	56.99
782.337	56.59
782.514	56.25
782.691	58.03
782.867	56.6
783.044	56.55
783.221	55.76
783.397	57.75
783.574	58.89
783.75	59.64
783.927	60.06
784.103	60.85
784.28	62.12
784.456	61.61
784.633	59.75
784.809	60.14
784.986	59.74
785.162	60.12
785.339	58.67
785.515	58.42
785.692	57.45
785.868	58.34
786.044	57.94
786.221	57.68
786.397	58.56
786.573	57.44
786.749	58.28
786.926	60.39
787.102	60.16
787.278	60.74
787.454	61.51
787.631	63.47
787.807	60.91
787.983	59.84
788.159	57.6
788.335	56.83
788.511	58.86
788.687	60.15
788.863	58.47
789.039	58.34
789.216	57.05
789.392	57.25
789.568	57.1
789.744	59.7
789.919	59.34
790.095	59.02
790.271	59.78
790.447	58.34
790.623	57.94
790.799	57.13
790.975	57.21
791.151	58.98
791.327	59.27
791.502	58.03
791.678	56.83
791.854	58.33
792.03	60.13
792.205	62.8
792.381	65
792.557	64.43
792.733	65.62
792.908	66.83
793.084	66.08
793.259	65.02
793.435	63.65
793.611	64.02
793.786	62.59
793.962	62.75
794.137	60.29
794.313	58.44
794.488	56.28
794.664	56.6
794.839	56.36
795.015	57.66
795.19	57.29
795.366	58.08
795.541	55.17
795.716	56.7
795.892	57.64
796.067	57.21
796.242	57.42
796.418	58.85
796.593	59.05
796.768	58.09
796.944	57.81
797.119	57.83
797.294	58.55
797.469	60.82
797.644	62.86
797.82	62.23
797.995	61.02
798.17	58.87
798.345	58.25
798.52	57.2
798.695	58.87
798.87	57.99
799.045	57.92
799.22	58.56
799.395	59.04
799.57	57.23
799.745	58.94
799.92	58.85
800.095	62.38
800.27	63.15
800.445	63.35
800.62	60.48
800.795	63.77
800.97	66.04
801.145	64.17
801.319	65.31
801.494	63.9
801.669	61.55
801.844	63.4
802.018	61.61
802.193	63.41
802.368	62.63
802.543	63.29
802.717	59.99
802.892	59.32
803.067	59
803.241	56.07
803.416	57.6
803.59	56.59
803.765	57
803.94	57.67
804.114	53.85
804.289	56.1
804.463	54.42
804.638	53.04
804.812	54.46
804.986	53.08
805.161	53.18
805.335	53.21
805.51	54.41
805.684	53.12
805.858	52.41
806.033	52.07
806.207	49.58
806.381	53.37
806.556	53.19
806.73	50.9
806.904	53.45
807.078	53.36
807.253	53.36
807.427	52.44
807.601	51.8
807.775	51.48
807.949	53.9
808.123	57.46
808.298	57.65
808.472	57.73
808.646	56.88
808.82	56.04
808.994	56.53
809.168	59.65
809.342	61.71
809.516	63.67
809.69	63.31
809.864	62.73
810.038	63.74
810.212	61.53
810.385	61.98
810.559	63.28
810.733	63.28
810.907	62.57
811.081	59.06
811.255	57.58
811.428	56.73
811.602	58.93
811.776	63.64
811.95	60.72
812.123	60.13
812.297	60.24
812.471	62.2
812.644	62.93
812.818	65.88
812.992	66.51
813.165	68.87
813.339	67.4
813.512	64.7
813.686	60.11
813.86	59.67
814.033	59.62
814.207	60.85
814.38	57.48
814.554	57.07
814.727	56.18
814.9	54.46
815.074	55.2
815.247	54.3
815.421	52.98
815.594	56.41
815.767	56
815.941	59.44
816.114	60.38
816.287	63.37
816.46	62.17
816.634	64.17
816.807	69.7
816.98	68.31
817.153	70.76
817.327	70.91
817.5	68.41
817.673	70.92
817.846	69.24
818.019	68.27
818.192	64.5
818.365	66.01
818.538	61.24
818.711	53.37
818.884	52.41
819.057	52.96
819.23	53.15
819.403	51.99
819.576	49.67
819.749	49.27
819.922	48.59
820.095	50.35
820.268	49.15
820.441	51.54
820.614	52.84
820.786	50.53
820.959	48.73
821.132	49.03
821.305	48.12
821.477	47.01
821.65	46.77
821.823	44.92
821.996	44.2
822.168	43.58
822.341	42.36
822.514	42.32
822.686	42.11
822.859	41.98
823.031	41.64
823.204	41.74
823.376	41.6
823.549	41.49
823.722	41.89
823.894	42.09
824.067	41.97
824.239	42.26
824.411	42.2
824.584	42.48
824.756	42.47
824.929	42.71
825.101	42.52
825.273	43.25
825.446	42.97
825.618	43.33
825.79	43.44
825.963	43.74
826.135	43.89
826.307	43.23
826.479	44.23
826.652	44.27
826.824	44.53
826.996	44.73
827.168	44.47
827.34	44.56
827.512	44.5
827.684	43.65
827.856	43.78
828.029	44.09
828.201	45.08
828.373	44.29
828.545	44.83
828.717	44.82
828.889	44.68
829.061	44.82
829.232	46.22
829.404	46.51
829.576	48.83
829.748	49.92
829.92	50.53
830.092	50.57
830.264	51
830.436	50.98
830.607	52.52
830.779	53.67
830.951	55.23
831.123	53.04
831.294	53.58
831.466	51.54
831.638	51.76
831.809	50.15
831.981	51.57
832.153	52.76
832.324	51.91
832.496	50.55
832.667	53.63
832.839	52.64
833.011	52.64
833.182	50.85
833.354	50.01
833.525	50.38
833.697	51.11
833.868	48.77
834.039	49.61
834.211	50.47
834.382	50.07
834.554	48.39
834.725	48.75
834.896	47.98
835.068	48.29
835.239	47.45
835.41	47.33
835.581	49.38
835.753	50.77
835.924	49.58
836.095	49.16
836.266	49.8
836.438	48.77
836.609	48.22
836.78	49.67
836.951	52.41
837.122	54.96
837.293	53.96
837.464	53.66
837.635	53.6
837.806	53.67
837.977	55.72
838.148	57.42
838.319	59.08
838.49	60.61
838.661	61.1
838.832	59.3
839.003	60.33
839.174	61.69
839.345	59.25
839.516	61.46
839.687	65.17
839.857	65.73
840.028	63.59
840.199	64.31
840.37	61.09
840.54	61.5
840.711	58.9
840.882	60.72
841.053	60.11
841.223	61.8
841.394	59.37
841.564	59.49
841.735	59.66
841.906	56.68
842.076	50.56
842.247	53.52
842.417	55.95
842.588	60.3
842.758	56.85
842.929	54.45
843.099	56.1
843.27	60.07
843.44	58.8
843.611	58.14
843.781	55.82
843.951	60.78
844.122	64.24
844.292	66.47
844.462	65.18
844.633	63.99
844.803	69.72
844.973	63.91
845.144	59.54
845.314	62.67
845.484	62.62
845.654	71.43
845.824	72.82
845.995	71.14
846.165	64.46
846.335	64.91
846.505	67.99
846.675	71.82
846.845	77.12
847.015	78.27
847.185	72.08
847.355	71.26
847.525	71.76
847.695	80.81
847.865	69.74
848.035	75.97
848.205	73.45
848.375	77.58
848.545	56.58
848.715	50.54
848.884	50.35
849.054	48.93
849.224	54.04
849.394	61.61
849.564	50.81
849.733	58.72
849.903	60.47
850.073	64.27
850.243	65.29
850.412	74.01
850.582	78.34
850.752	89.84
850.921	87.66
851.091	86.17
851.26	86.64
851.43	88.64
851.599	83.56
851.769	82.7
851.939	81.91
852.108	82.82
852.278	80
852.447	77.51
852.616	73.21
852.786	71.59
852.955	70.62
853.125	71.17
853.294	74.43
853.463	79.06
853.633	80.91
853.802	82.7
853.971	83.77
854.141	86.9
854.31	81.9
854.479	73.93
854.648	86.24
854.818	84.89
854.987	83.47
855.156	78.88
855.325	83.19
855.494	85.84
855.663	84.01
855.832	80.29
856.001	87.79
856.171	97.5
856.34	109.59
856.509	101.35
856.678	113.81
856.847	120.6
857.016	117.16
857.185	106.13
857.353	108.34
857.522	114.21
857.691	115.38
857.86	113.14
858.029	108.68
858.198	112.74
858.367	114.48
858.535	108.82
858.704	102.91
858.873	109.55
859.042	120.51
859.21	114.22
859.379	111.29
859.548	102.68
859.717	109.63
859.885	108.82
860.054	104.05
860.222	96.55
860.391	103.37
860.56	97.16
860.728	109.84
860.897	107.15
861.065	90.96
861.234	89.64
861.402	93.36
861.571	81.55
861.739	87.38
861.908	88.12
862.076	100.25
862.244	94.22
862.413	88.08
862.581	72.42
862.749	64.53
862.918	74.92
863.086	66.21
863.254	65.8
863.423	69.66
863.591	72.16
863.759	68.11
863.927	58.4
864.096	55.85
864.264	62.56
864.432	61.13
864.6	67.31
864.768	67.95
864.936	76.66
865.104	76.69
865.272	81.97
865.44	79.74
865.608	74.43
865.776	75.44
865.944	79.15
866.112	73.99
866.28	75.7
866.448	76.54
866.616	69.42
866.784	71.11
866.952	73.94
867.12	66.5
867.288	67.74
867.455	75.09
867.623	81.18
867.791	74.61
867.959	77.88
868.127	80.06
868.294	76.28
868.462	77.41
868.63	76.94
868.797	75.08
868.965	78.6
869.133	75.55
869.3	74.05
869.468	68.92
869.636	72.35
869.803	74.04
869.971	78.18
870.138	83
870.306	79
870.473	73.94
870.641	74.88
870.808	67.59
870.975	67.84
871.143	62.95
871.31	64.26
871.478	70.91
871.645	60.12
871.812	57.23
871.98	66.37
872.147	71.97
872.314	70.18
872.482	64.6
872.649	67.93
872.816	68.16
872.983	71.12
873.15	67.1
873.318	68.53
873.485	81.23
873.652	83.25
873.819	80.43
873.986	75.05
874.153	81.87
874.32	83.1
874.487	84.47
874.654	84.17
874.821	93.54
874.988	95.77
875.155	89.54
875.322	80.91
875.489	77.58
875.656	63.47
875.823	64.05
875.99	56.94
876.157	67.51
876.324	73.84
876.49	72.75
876.657	64.57
876.824	72.54
876.991	68.69
877.157	67.86
877.324	65.84
877.491	79.52
877.658	89.32
877.824	91.88
877.991	84.86
878.157	84.6
878.324	78.59
878.491	78.28
878.657	81.01
878.824	85.85
878.99	93.49
879.157	102.2
879.323	93.68
879.49	87.79
879.656	90.45
879.823	90.55
879.989	85.67
880.156	89.87
880.322	87.73
880.488	79.05
880.655	81
880.821	78.63
880.987	73.93
881.154	72.1
881.32	73.63
881.486	70.52
881.652	71.38
881.819	68.59
881.985	61.49
882.151	60.7
882.317	60.85
882.483	55.85
882.649	56.88
882.816	55.73
882.982	53.91
883.148	50.3
883.314	48.16
883.48	50.28
883.646	49.18
883.812	49.61
883.978	49.24
884.144	47.94
884.31	47.36
884.476	46.85
884.642	46.66
884.807	47.08
884.973	48.55
885.139	48.72
885.305	46.99
885.471	46.4
885.637	46.12
885.802	45.76
885.968	47.72
886.134	49.34
886.3	48.64
886.465	48.37
886.631	48.07
886.797	48.55
886.962	49.36
887.128	49.88
887.293	52.86
887.459	54.76
887.625	56.7
887.79	56.81
887.956	52.49
888.121	54.91
888.287	54.28
888.452	55.59
888.618	55.71
888.783	58.48
