Data from LC_195_Reflection_3.txt Node
Date: Tue Nov 17 13:46:32 EST 2015
User: robert
Spectrometer: USB4E03001
Autoset integration time: false
Trigger mode: 4
Integration Time (sec): 1.000000E-1
Scans to average: 15
Electric dark correction enabled: true
Nonlinearity correction enabled: false
Boxcar width: 5
Stray light correction enabled: false
XAxis mode: Wavelengths
Stop averaging: false
Number of Pixels in Spectrum: 3648
>>>>>Begin Spectral Data<<<<<
177.566	353.4
177.785	469.22
178.005	-2258.96
178.225	579.72
178.445	-719.76
178.665	-288.09
178.885	89.9
179.105	-336.42
179.324	725.46
179.544	1002.36
179.764	359.23
179.984	169.03
180.204	231.33
180.423	450.34
180.643	574.68
180.863	-2079.31
181.083	-2729.08
181.302	534.1
181.522	210.39
181.742	712.39
181.961	10768.63
182.181	-553.66
182.401	-89.87
182.621	-317.03
182.84	-313.63
183.06	-1170.04
183.279	1344.63
183.499	-8279.83
183.719	-790.98
183.938	-264.97
184.158	-442.38
184.377	-556.39
184.597	-575.02
184.816	558.68
185.036	448.06
185.256	536.79
185.475	296.95
185.695	388.27
185.914	284.61
186.134	326.58
186.353	189.16
186.572	193.81
186.792	159.27
187.011	149.18
187.231	433.51
187.45	2139.01
187.67	374
187.889	408.89
188.108	304.06
188.328	299
188.547	298.32
188.766	-1278.26
188.986	1283.21
189.205	388.15
189.424	507.9
189.644	392.69
189.863	272.97
190.082	271.24
190.302	322.93
190.521	388.61
190.74	9816.88
190.959	1358.64
191.178	402.64
191.398	335
191.617	787.1
191.836	442.32
192.055	301.47
192.274	-809.98
192.494	-559.01
192.713	-1626.07
192.932	-815.61
193.151	1224.45
193.37	19168.25
193.589	-675950
193.808	19805.62
194.027	-2930.23
194.246	-1365.06
194.465	5867.68
194.685	620.55
194.904	440.18
195.123	75125
195.342	1774.57
195.561	593.9
195.78	441.2
195.999	532.46
196.218	338.73
196.436	275.48
196.655	221.33
196.874	254.83
197.093	267.56
197.312	228.27
197.531	204.46
197.75	189.42
197.969	199.57
198.188	212.26
198.407	202.46
198.625	230.26
198.844	208.6
199.063	166.54
199.282	183.34
199.501	156.8
199.719	213.73
199.938	210.37
200.157	247.06
200.376	565.48
200.594	252.45
200.813	176.85
201.032	228.15
201.251	270.93
201.469	4193.5
201.688	1291.35
201.907	-5800
202.125	1674.1
202.344	1544.92
202.563	1651.44
202.781	1331.34
203	-1766.92
203.218	-372.83
203.437	-551.31
203.656	-362.58
203.874	-865.34
204.093	-1200.08
204.311	-1156.58
204.53	22646.05
204.748	-919.77
204.967	3300
205.185	628.67
205.404	286.03
205.622	274.27
205.841	228.23
206.059	286.91
206.278	226.93
206.496	206.91
206.715	195.28
206.933	235.2
207.151	228.85
207.37	233.67
207.588	264.17
207.806	345.71
208.025	294.65
208.243	313.72
208.461	334.21
208.68	521.14
208.898	-874.37
209.116	-1697.86
209.335	3400.4
209.553	-2226.47
209.771	1011.87
209.989	326.04
210.208	406.54
210.426	409.95
210.644	343.83
210.862	256.66
211.081	163.66
211.299	111.16
211.517	136.1
211.735	144.48
211.953	149.72
212.171	164.61
212.39	460.61
212.608	465.94
212.826	674.55
213.044	716.68
213.262	665.63
213.48	-29316.42
213.698	-1422.18
213.916	620.99
214.134	-1154.69
214.352	-329.3
214.57	-360.06
214.788	3397.26
215.006	1167.86
215.224	953.61
215.442	619.51
215.66	616.69
215.878	443.71
216.096	249.22
216.314	293.78
216.532	183.22
216.75	135.76
216.968	156.2
217.185	164.11
217.403	184.66
217.621	170.98
217.839	182.07
218.057	202
218.275	196.3
218.492	200.52
218.71	209.86
218.928	243.75
219.146	250.39
219.363	271.03
219.581	228.35
219.799	215.88
220.017	243.01
220.234	222.43
220.452	187.24
220.67	162.52
220.887	189.03
221.105	169.76
221.323	160.24
221.54	165.54
221.758	129.41
221.976	124.87
222.193	91.71
222.411	73.11
222.629	77.17
222.846	85.22
223.064	70.65
223.281	58.47
223.499	64.05
223.716	75.95
223.934	85.66
224.151	89.79
224.369	87.09
224.586	120.43
224.804	124.84
225.021	131.51
225.239	105.32
225.456	112.45
225.674	96.09
225.891	88.52
226.108	93
226.326	70.95
226.543	54.9
226.76	53.07
226.978	44.56
227.195	48.99
227.413	40.85
227.63	41.21
227.847	35.48
228.064	37.33
228.282	29.28
228.499	28.87
228.716	27.9
228.934	30.89
229.151	30.15
229.368	27.43
229.585	25.37
229.802	29.82
230.02	31.15
230.237	31.85
230.454	31.66
230.671	39.92
230.888	38.79
231.105	42.44
231.323	40.33
231.54	41.28
231.757	42.13
231.974	45.69
232.191	37.24
232.408	37.21
232.625	38.32
232.842	40.32
233.059	38.16
233.276	38.78
233.493	35.04
233.71	36.11
233.927	40.47
234.144	45.05
234.361	43.71
234.578	53.6
234.795	49.92
235.012	49.76
235.229	45.59
235.446	42.16
235.663	41.09
235.879	49.23
236.096	53.16
236.313	48.43
236.53	44.79
236.747	46.66
236.964	42.72
237.181	45.54
237.397	44.33
237.614	46.64
237.831	49.21
238.048	48.87
238.264	44.21
238.481	43.8
238.698	40.61
238.915	43.46
239.131	40.83
239.348	41.85
239.565	41.86
239.781	44.37
239.998	41.83
240.215	38.62
240.431	35.34
240.648	33.88
240.865	31.02
241.081	32.74
241.298	29.04
241.514	26.77
241.731	23.05
241.947	19.41
242.164	17.57
242.38	15.45
242.597	15.14
242.814	15.33
243.03	13.24
243.246	12.09
243.463	10.46
243.679	10.67
243.896	10.22
244.112	10.91
244.329	14.55
244.545	14.56
244.762	16.8
244.978	16.46
245.194	16.33
245.411	19.06
245.627	20.23
245.843	19.14
246.06	16.97
246.276	13.91
246.492	13.35
246.709	12.27
246.925	13.43
247.141	13.67
247.357	13.06
247.574	12.69
247.79	11.96
248.006	11.45
248.222	12.46
248.439	13.27
248.655	13.82
248.871	13.28
249.087	12.83
249.303	11.8
249.519	11.94
249.736	13.4
249.952	13.41
250.168	17.4
250.384	17.21
250.6	15.46
250.816	14.25
251.032	17.81
251.248	18.02
251.464	18.34
251.68	18.86
251.896	17.02
252.112	14.12
252.328	16.75
252.544	13.81
252.76	14.72
252.976	13.61
253.192	16.36
253.408	15.24
253.624	15.25
253.84	15.27
254.056	14.54
254.272	16.24
254.487	20.89
254.703	20.43
254.919	23.09
255.135	26.04
255.351	29.43
255.567	26.61
255.782	24.51
255.998	27.59
256.214	29.47
256.43	30.97
256.646	29.68
256.861	25.85
257.077	24.86
257.293	23.37
257.508	21.43
257.724	20.21
257.94	18.25
258.155	18.62
258.371	19.02
258.587	15.09
258.802	13.31
259.018	11.71
259.234	12.82
259.449	12.47
259.665	11.5
259.88	11.84
260.096	12.46
260.312	12.08
260.527	12.26
260.743	11.37
260.958	12.29
261.174	12.11
261.389	12.97
261.605	12.9
261.82	12.69
262.036	13.54
262.251	12.56
262.466	10.6
262.682	12.63
262.897	11.71
263.113	10.5
263.328	9.41
263.543	12.11
263.759	12.83
263.974	12.53
264.189	12.98
264.405	13.24
264.62	15.62
264.835	17.49
265.051	17.68
265.266	19.09
265.481	22.01
265.696	25.64
265.912	23.8
266.127	22.12
266.342	20.94
266.557	19.45
266.773	17.12
266.988	15.42
267.203	14.66
267.418	14.89
267.633	13.93
267.848	11.82
268.064	8.13
268.279	7.62
268.494	6.99
268.709	7.28
268.924	8.88
269.139	10.32
269.354	11.74
269.569	12.36
269.784	10.14
269.999	11.15
270.214	11.62
270.429	13.48
270.644	12.72
270.859	13.34
271.074	13.22
271.289	13.76
271.504	12.34
271.719	11.01
271.934	11.77
272.149	12.63
272.363	13
272.578	12.83
272.793	12.14
273.008	13.1
273.223	14.08
273.438	13.46
273.653	13.54
273.867	14.27
274.082	14.07
274.297	13.05
274.512	13.28
274.726	11.48
274.941	12.46
275.156	14.48
275.371	13.93
275.585	14.43
275.8	15.93
276.015	14.88
276.229	14.6
276.444	13.8
276.659	15.37
276.873	14.2
277.088	15.65
277.302	15.12
277.517	13.2
277.732	12.85
277.946	11.78
278.161	11.35
278.375	11.02
278.59	12.09
278.804	13.36
279.019	12.55
279.233	14.17
279.448	14.19
279.662	15.11
279.877	15.62
280.091	14.7
280.306	14.28
280.52	13.81
280.735	14.31
280.949	13.25
281.163	12.65
281.378	13.68
281.592	12.16
281.806	11.28
282.021	11.19
282.235	10.89
282.449	13.16
282.664	13.06
282.878	14.59
283.092	14.36
283.307	16.03
283.521	17.32
283.735	15.52
283.949	16.16
284.164	16.37
284.378	14.45
284.592	13.71
284.806	12.94
285.02	12.9
285.234	11.81
285.449	11.82
285.663	10.77
285.877	9.02
286.091	9.65
286.305	9.62
286.519	9.47
286.733	10.89
286.947	11.38
287.161	11.07
287.375	10.48
287.589	10.87
287.803	10.45
288.017	10.29
288.231	11.1
288.445	11.03
288.659	11.22
288.873	11.17
289.087	12.14
289.301	13.17
289.515	13.98
289.729	14.99
289.943	14.58
290.157	14.87
290.371	14.24
290.584	14.38
290.798	14.21
291.012	14.76
291.226	15.49
291.44	14.14
291.654	14.36
291.867	13.57
292.081	12.86
292.295	12.32
292.509	11.16
292.722	12.82
292.936	13.15
293.15	13.06
293.364	12
293.577	12.14
293.791	11.96
294.005	11.26
294.218	10.82
294.432	11.28
294.645	12.54
294.859	13.91
295.073	12.87
295.286	12.52
295.5	12.48
295.713	12.7
295.927	12.01
296.14	11.93
296.354	11.55
296.568	12.14
296.781	12.44
296.994	12.24
297.208	11.44
297.421	10.87
297.635	11.3
297.848	10.88
298.062	10.84
298.275	10.61
298.489	10.34
298.702	11.08
298.915	10.8
299.129	10.81
299.342	10.3
299.555	9.56
299.769	10.3
299.982	10.28
300.195	10.33
300.409	10.66
300.622	10.9
300.835	11.41
301.048	9.85
301.262	9.32
301.475	8.41
301.688	9.03
301.901	10.24
302.115	10.47
302.328	10.37
302.541	10.51
302.754	10.79
302.967	10.45
303.18	10.55
303.393	11.17
303.607	11.58
303.82	12.37
304.033	11.34
304.246	11.07
304.459	11.46
304.672	11.23
304.885	11.56
305.098	10.85
305.311	11.94
305.524	12.27
305.737	12.74
305.95	14.39
306.163	12.85
306.376	12.99
306.589	13.43
306.802	12.46
307.015	12.96
307.228	14.34
307.44	14.66
307.653	13.23
307.866	12.42
308.079	12.48
308.292	11.06
308.505	11.53
308.718	11.3
308.93	10.52
309.143	10.72
309.356	10.3
309.569	9.3
309.781	9.97
309.994	9.74
310.207	9.84
310.42	8.86
310.632	8.34
310.845	8.79
311.058	8.32
311.27	8.3
311.483	8.24
311.696	7.62
311.908	7.24
312.121	6.76
312.333	8.27
312.546	8.83
312.759	9.17
312.971	9.51
313.184	9.72
313.396	10.75
313.609	11.06
313.821	12.22
314.034	13.48
314.246	13.59
314.459	14.38
314.671	13.37
314.884	13.46
315.096	14.1
315.309	14.14
315.521	14.08
315.733	13.9
315.946	14.55
316.158	14.62
316.371	13.7
316.583	14.55
316.795	13.18
317.008	13.76
317.22	13.08
317.432	13.64
317.644	12.99
317.857	13.41
318.069	13.81
318.281	14.06
318.494	13.42
318.706	14.54
318.918	14.09
319.13	15.41
319.342	15.24
319.555	14.44
319.767	14.29
319.979	15.22
320.191	15.41
320.403	16.1
320.615	16.22
320.827	16.43
321.039	17
321.252	16.75
321.464	16.76
321.676	18.55
321.888	19.32
322.1	18.99
322.312	18.46
322.524	18.47
322.736	16.93
322.948	16.45
323.16	15.7
323.372	14.25
323.584	14.46
323.796	13.05
324.007	11.65
324.219	12.83
324.431	13.45
324.643	14.23
324.855	14.75
325.067	16.04
325.279	15.9
325.491	16.37
325.702	16.96
325.914	17.07
326.126	17.56
326.338	17.54
326.55	15.83
326.761	15.17
326.973	14.46
327.185	14.12
327.396	13.69
327.608	14.36
327.82	13.86
328.032	14.15
328.243	13.65
328.455	13.77
328.666	13.23
328.878	13.99
329.09	13.74
329.301	14.51
329.513	14.19
329.725	14.45
329.936	14.47
330.148	16.07
330.359	15.7
330.571	16.37
330.782	16.69
330.994	17.02
331.205	16.26
331.417	17.02
331.628	17.06
331.84	18.18
332.051	18
332.262	17.44
332.474	16.82
332.685	17.49
332.897	17.12
333.108	17.14
333.319	17.09
333.531	16.77
333.742	15.73
333.953	14.27
334.165	13.15
334.376	13.62
334.587	14.42
334.799	14.05
335.01	14.27
335.221	14.05
335.432	13.54
335.644	13.88
335.855	14.34
336.066	15.89
336.277	17.56
336.488	17.58
336.7	16.97
336.911	16.93
337.122	16.84
337.333	16.36
337.544	17.48
337.755	17.89
337.966	17.85
338.177	18.43
338.388	17.05
338.599	17.47
338.811	16.86
339.022	16.69
339.233	14.92
339.444	14.53
339.655	14.3
339.866	13.98
340.076	13.83
340.287	13.13
340.498	13.1
340.709	13.8
340.92	12.82
341.131	13.32
341.342	13.43
341.553	15.08
341.764	15.81
341.975	16.89
342.185	16.05
342.396	15.13
342.607	15.79
342.818	16.89
343.029	15.97
343.239	16.09
343.45	15.59
343.661	15.72
343.872	15.34
344.082	15.26
344.293	14.64
344.504	16.72
344.714	17.4
344.925	17.28
345.136	15.57
345.346	15.73
345.557	15.6
345.768	16.91
345.978	17.07
346.189	17.87
346.399	17.67
346.61	17.59
346.821	15.65
347.031	16.26
347.242	16.01
347.452	16.82
347.663	16.78
347.873	17.07
348.084	15.62
348.294	16.46
348.504	14.82
348.715	15.72
348.925	15.89
349.136	15.63
349.346	15.02
349.557	15.02
349.767	14.91
349.977	14.75
350.188	14.7
350.398	15.53
350.608	14.39
350.819	14.76
351.029	13.95
351.239	14.4
351.449	14.89
351.66	15.2
351.87	15.57
352.08	16.24
352.29	16.81
352.501	16.89
352.711	16.99
352.921	17.33
353.131	17.49
353.341	17.48
353.552	16.13
353.762	15.65
353.972	15.14
354.182	15.75
354.392	15.38
354.602	16.19
354.812	15.97
355.022	16.03
355.232	15.57
355.442	15.77
355.652	15.88
355.862	16.47
356.072	17.03
356.282	17.43
356.492	16.64
356.702	16.19
356.912	15.77
357.122	15.35
357.332	14.53
357.542	14.87
357.752	14.77
357.962	14.77
358.171	14.05
358.381	13.89
358.591	13.75
358.801	13.67
359.011	13.6
359.221	13.16
359.43	13.44
359.64	13.54
359.85	13.29
360.06	13.36
360.269	13.25
360.479	13.33
360.689	13.4
360.899	13.14
361.108	12.66
361.318	12.89
361.528	12.71
361.737	12.88
361.947	12.75
362.156	12.47
362.366	12.13
362.576	11.89
362.785	11.95
362.995	12
363.204	11.85
363.414	12.2
363.623	11.93
363.833	12.34
364.042	12.12
364.252	11.96
364.461	11.88
364.671	12.01
364.88	12.02
365.09	12.85
365.299	12.72
365.509	12.72
365.718	12.73
365.927	12.45
366.137	12.07
366.346	12.19
366.555	12.42
366.765	12.43
366.974	12.35
367.183	12.68
367.393	11.89
367.602	11.78
367.811	11.95
368.021	12
368.23	12.69
368.439	13.12
368.648	12.31
368.857	12.23
369.067	12.6
369.276	12.64
369.485	12.79
369.694	12.82
369.903	13.18
370.112	13.38
370.321	13.26
370.531	12.37
370.74	11.55
370.949	11.47
371.158	11.74
371.367	11.47
371.576	12.03
371.785	11.27
371.994	11.17
372.203	11.07
372.412	10.66
372.621	10.49
372.83	10.98
373.039	11.66
373.248	12.13
373.457	12.17
373.666	12.41
373.874	11.2
374.083	11.74
374.292	11.65
374.501	11.71
374.71	12.06
374.919	12.02
375.128	11.81
375.336	12.07
375.545	12.39
375.754	11.61
375.963	10.98
376.171	11.91
376.38	11.9
376.589	11.91
376.798	11.49
377.006	11.34
377.215	11.74
377.424	11.54
377.632	11.02
377.841	10.79
378.05	11.35
378.258	11.82
378.467	11.07
378.675	10.62
378.884	10.56
379.093	10.59
379.301	10.57
379.51	10.7
379.718	10.95
379.927	11.04
380.135	11.08
380.344	11.25
380.552	11.1
380.761	11.35
380.969	11.5
381.177	11.43
381.386	11.45
381.594	11.12
381.803	10.43
382.011	10.52
382.219	10.15
382.428	9.96
382.636	9.72
382.845	9.9
383.053	10.08
383.261	9.61
383.469	10.06
383.678	10.16
383.886	10
384.094	10.43
384.302	10.2
384.511	10.24
384.719	9.91
384.927	9.86
385.135	9.96
385.343	10.04
385.552	10.61
385.76	10.25
385.968	10.32
386.176	10.39
386.384	10.39
386.592	10.36
386.8	10.65
387.008	10.77
387.216	10.83
387.424	10.48
387.633	10.35
387.841	10.2
388.049	10.27
388.257	10.05
388.465	10.22
388.672	10.17
388.88	10.01
389.088	10.01
389.296	10.3
389.504	10.35
389.712	10.7
389.92	10.61
390.128	10.55
390.336	10.67
390.544	10.52
390.751	10.57
390.959	10.34
391.167	10.43
391.375	10.13
391.583	9.89
391.79	9.73
391.998	9.73
392.206	9.9
392.414	9.61
392.621	9.42
392.829	9.26
393.037	9.31
393.244	9.32
393.452	9.33
393.66	9.22
393.867	9.47
394.075	9.38
394.283	9.07
394.49	8.85
394.698	9.08
394.905	9.07
395.113	9.26
395.32	8.99
395.528	9.05
395.735	9.11
395.943	9.1
396.15	8.88
396.358	8.98
396.565	8.63
396.773	8.55
396.98	8.61
397.188	8.91
397.395	9.05
397.602	9.4
397.81	9.76
398.017	9.91
398.225	10.17
398.432	10.02
398.639	9.86
398.847	10.29
399.054	10.09
399.261	9.88
399.468	9.6
399.676	9.63
399.883	9.41
400.09	9.03
400.297	9.08
400.505	9
400.712	9.37
400.919	9.71
401.126	9.64
401.333	10.02
401.54	10.08
401.748	10.15
401.955	9.88
402.162	10.01
402.369	10.02
402.576	9.98
402.783	9.62
402.99	9.25
403.197	8.93
403.404	8.9
403.611	8.68
403.818	8.56
404.025	8.23
404.232	8.06
404.439	7.92
404.646	7.87
404.853	7.78
405.06	8.04
405.267	8.16
405.474	8.02
405.681	7.77
405.887	7.96
406.094	8.25
406.301	8.48
406.508	8.65
406.715	8.56
406.922	8.45
407.128	8.22
407.335	7.93
407.542	7.93
407.749	8.22
407.955	8.7
408.162	8.55
408.369	8.25
408.575	8.53
408.782	8.62
408.989	8.75
409.195	8.79
409.402	8.97
409.609	9.1
409.815	8.86
410.022	8.72
410.228	8.24
410.435	8.36
410.642	8.38
410.848	8.27
411.055	8.2
411.261	8.2
411.468	8.33
411.674	8.17
411.881	8.14
412.087	8.61
412.294	8.77
412.5	9.01
412.706	8.81
412.913	8.57
413.119	8.47
413.326	8.36
413.532	8.04
413.738	7.92
413.945	7.65
414.151	7.51
414.357	7.17
414.564	6.91
414.77	6.83
414.976	7.18
415.182	7.4
415.389	7.14
415.595	7.15
415.801	7.15
416.007	7.23
416.214	7.53
416.42	7.73
416.626	7.78
416.832	7.82
417.038	7.75
417.244	7.37
417.45	7.48
417.657	7.36
417.863	7.38
418.069	7.46
418.275	7.28
418.481	7.45
418.687	7.28
418.893	7.17
419.099	7.08
419.305	7.36
419.511	7.47
419.717	7.37
419.923	7.42
420.129	7.29
420.335	7.25
420.541	7.09
420.746	6.83
420.952	6.86
421.158	6.92
421.364	6.96
421.57	6.82
421.776	6.73
421.982	6.7
422.187	6.76
422.393	6.85
422.599	6.86
422.805	6.91
423.01	6.96
423.216	7.02
423.422	7.07
423.628	7.06
423.833	7.02
424.039	6.98
424.245	7.08
424.45	7.1
424.656	7.12
424.862	7.08
425.067	7.18
425.273	7.17
425.478	7.09
425.684	6.84
425.889	6.96
426.095	6.94
426.301	6.97
426.506	6.97
426.712	6.83
426.917	6.77
427.123	6.98
427.328	7
427.533	6.93
427.739	6.94
427.944	6.95
428.15	6.96
428.355	6.77
428.561	6.85
428.766	6.59
428.971	6.72
429.177	6.76
429.382	6.66
429.587	6.64
429.793	6.84
429.998	6.73
430.203	7.06
430.408	6.89
430.614	7.04
430.819	6.98
431.024	7.04
431.229	7.03
431.434	7.15
431.64	7.21
431.845	7.42
432.05	7.43
432.255	7.62
432.46	7.66
432.665	7.95
432.87	8
433.076	7.99
433.281	8.1
433.486	8.21
433.691	8.06
433.896	7.84
434.101	7.7
434.306	7.75
434.511	7.75
434.716	7.6
434.921	7.41
435.126	7.47
435.331	7.57
435.535	7.56
435.74	7.48
435.945	7.46
436.15	7.45
436.355	7.44
436.56	7.36
436.765	7.6
436.97	7.6
437.174	7.44
437.379	7.41
437.584	7.71
437.789	7.51
437.993	7.36
438.198	7.39
438.403	7.53
438.608	7.61
438.812	7.53
439.017	7.11
439.222	7
439.426	7.02
439.631	6.95
439.836	6.58
440.04	6.52
440.245	6.54
440.45	6.55
440.654	6.41
440.859	6.21
441.063	6.19
441.268	6.36
441.472	6.59
441.677	6.64
441.881	6.66
442.086	6.69
442.29	6.76
442.495	6.95
442.699	7.02
442.904	7.17
443.108	7.22
443.312	7.25
443.517	7.11
443.721	7.02
443.925	6.84
444.13	6.75
444.334	6.74
444.538	6.71
444.743	6.5
444.947	6.36
445.151	6.25
445.356	6.4
445.56	6.55
445.764	6.59
445.968	6.6
446.173	6.73
446.377	6.71
446.581	6.88
446.785	6.88
446.989	6.89
447.193	6.95
447.398	7
447.602	6.95
447.806	6.86
448.01	6.94
448.214	7
448.418	6.96
448.622	6.98
448.826	6.91
449.03	7.03
449.234	7.05
449.438	6.96
449.642	6.99
449.846	6.97
450.05	6.84
450.254	6.63
450.458	6.3
450.662	6.33
450.866	6.18
451.069	6.29
451.273	6.09
451.477	6.03
451.681	6.26
451.885	6.37
452.089	6.34
452.292	6.34
452.496	6.51
452.7	6.65
452.904	6.58
453.107	6.71
453.311	6.67
453.515	6.75
453.719	6.97
453.922	6.76
454.126	6.51
454.33	6.66
454.533	6.73
454.737	6.71
454.94	6.59
455.144	6.61
455.348	6.7
455.551	6.45
455.755	6.64
455.958	6.54
456.162	6.59
456.365	6.67
456.569	6.51
456.772	6.5
456.976	6.61
457.179	6.74
457.383	6.58
457.586	6.75
457.79	6.9
457.993	6.9
458.196	6.87
458.4	6.99
458.603	7.16
458.807	7.08
459.01	7.15
459.213	6.95
459.417	6.88
459.62	7.02
459.823	6.79
460.026	6.65
460.23	6.57
460.433	6.59
460.636	6.43
460.839	6.27
461.042	6.42
461.246	6.4
461.449	6.41
461.652	6.5
461.855	6.47
462.058	6.47
462.261	6.57
462.464	6.49
462.668	6.26
462.871	6.36
463.074	6.55
463.277	6.35
463.48	6.22
463.683	6.25
463.886	6.37
464.089	6.36
464.292	6.47
464.495	6.48
464.698	6.53
464.901	6.76
465.104	6.82
465.306	6.77
465.509	6.92
465.712	7.09
465.915	7.44
466.118	7.33
466.321	7.12
466.524	7.12
466.726	7
466.929	7.15
467.132	7.14
467.335	7.03
467.538	7.01
467.74	6.93
467.943	6.89
468.146	6.69
468.348	6.68
468.551	6.79
468.754	6.82
468.956	6.94
469.159	6.9
469.362	6.9
469.564	7.06
469.767	7.08
469.969	7.05
470.172	7.16
470.375	6.92
470.577	6.97
470.78	7.06
470.982	7.06
471.185	7.09
471.387	7.06
471.59	7.07
471.792	6.8
471.995	6.8
472.197	6.93
472.399	6.8
472.602	7.16
472.804	7.11
473.007	7.04
473.209	6.95
473.411	6.91
473.614	6.9
473.816	6.73
474.018	6.91
474.22	6.83
474.423	6.72
474.625	6.58
474.827	6.29
475.03	6.29
475.232	6.35
475.434	6.41
475.636	6.43
475.838	6.45
476.04	6.52
476.243	6.56
476.445	6.57
476.647	6.59
476.849	6.6
477.051	6.63
477.253	6.64
477.455	6.72
477.657	6.59
477.859	6.36
478.061	6.28
478.263	6.28
478.465	6.22
478.667	6.14
478.869	6.18
479.071	6.28
479.273	6.33
479.475	6.23
479.677	6.2
479.879	6.26
480.081	6.43
480.283	6.43
480.485	6.36
480.686	6.39
480.888	6.51
481.09	6.45
481.292	6.32
481.494	6.31
481.695	6.47
481.897	6.29
482.099	6.26
482.301	6.26
482.502	6.24
482.704	6.26
482.906	6.19
483.107	6.07
483.309	6.03
483.511	6.05
483.712	5.98
483.914	5.89
484.115	5.89
484.317	5.9
484.519	5.85
484.72	5.85
484.922	5.85
485.123	5.83
485.325	5.83
485.526	5.87
485.728	5.84
485.929	5.88
486.131	5.9
486.332	5.91
486.534	5.82
486.735	5.84
486.936	5.8
487.138	5.76
487.339	5.77
487.541	5.85
487.742	5.87
487.943	5.91
488.144	5.93
488.346	5.94
488.547	6
488.748	6.09
488.95	6.07
489.151	6.1
489.352	6.15
489.553	6.18
489.755	6.2
489.956	6.09
490.157	6.07
490.358	6.05
490.559	6.04
490.76	5.97
490.961	5.94
491.163	5.99
491.364	5.94
491.565	5.92
491.766	5.92
491.967	5.84
492.168	5.89
492.369	5.88
492.57	5.9
492.771	5.92
492.972	5.97
493.173	6.01
493.374	6.06
493.575	6.17
493.776	6.18
493.976	6.26
494.177	6.36
494.378	6.38
494.579	6.5
494.78	6.59
494.981	6.44
495.182	6.35
495.382	6.4
495.583	6.27
495.784	6.37
495.985	6.35
496.185	6.34
496.386	6.31
496.587	6.3
496.788	6.4
496.988	6.28
497.189	6.38
497.39	6.42
497.59	6.5
497.791	6.62
497.992	6.53
498.192	6.55
498.393	6.49
498.593	6.45
498.794	6.44
498.994	6.42
499.195	6.31
499.395	6.42
499.596	6.39
499.796	6.3
499.997	6.2
500.197	6.3
500.398	6.23
500.598	6.26
500.799	6.33
500.999	6.3
501.199	6.07
501.4	6.37
501.6	6.22
501.801	6.35
502.001	6.37
502.201	6.42
502.402	6.49
502.602	6.38
502.802	6.37
503.002	6.47
503.203	6.6
503.403	6.62
503.603	6.4
503.803	6.51
504.003	6.38
504.204	6.44
504.404	6.53
504.604	6.42
504.804	6.73
505.004	6.68
505.204	6.56
505.404	6.6
505.604	6.63
505.804	6.54
506.005	6.53
506.205	6.59
506.405	6.51
506.605	6.44
506.805	6.5
507.005	6.48
507.204	6.42
507.404	6.44
507.604	6.43
507.804	6.57
508.004	6.87
508.204	6.81
508.404	6.91
508.604	6.95
508.804	6.97
509.003	6.91
509.203	6.77
509.403	6.99
509.603	7.05
509.803	7
510.002	6.94
510.202	6.96
510.402	7.08
510.602	6.98
510.801	6.98
511.001	6.85
511.201	6.78
511.4	6.83
511.6	6.65
511.8	6.47
511.999	6.63
512.199	6.63
512.398	6.53
512.598	6.49
512.797	6.53
512.997	6.54
513.197	6.69
513.396	6.93
513.596	6.98
513.795	7.14
513.994	7.31
514.194	7.22
514.393	7.24
514.593	7.4
514.792	7.54
514.992	7.69
515.191	7.85
515.39	7.84
515.59	7.69
515.789	7.85
515.988	7.8
516.188	7.79
516.387	7.75
516.586	7.71
516.786	7.52
516.985	7.36
517.184	7.35
517.383	7.28
517.582	7.29
517.782	7.28
517.981	7.02
518.18	7.08
518.379	7.1
518.578	7.12
518.777	7.05
518.976	7.08
519.176	7.18
519.375	7.13
519.574	7.13
519.773	7.08
519.972	7.11
520.171	7.29
520.37	7.34
520.569	7.39
520.768	7.48
520.967	7.6
521.166	7.63
521.365	7.56
521.564	7.52
521.762	7.52
521.961	7.59
522.16	7.6
522.359	7.71
522.558	7.58
522.757	7.59
522.956	7.67
523.154	7.74
523.353	7.74
523.552	7.86
523.751	7.96
523.949	7.88
524.148	7.99
524.347	8.06
524.546	8
524.744	7.98
524.943	7.93
525.142	7.82
525.34	7.71
525.539	7.62
525.737	7.63
525.936	7.64
526.135	7.72
526.333	7.62
526.532	7.54
526.73	7.55
526.929	7.63
527.127	7.68
527.326	7.64
527.524	7.73
527.723	7.85
527.921	7.88
528.12	7.83
528.318	7.78
528.516	7.78
528.715	7.8
528.913	7.78
529.112	7.78
529.31	7.74
529.508	7.84
529.707	7.84
529.905	7.83
530.103	7.8
530.301	7.82
530.5	7.85
530.698	7.96
530.896	8.01
531.094	8.14
531.293	8.18
531.491	8.28
531.689	8.22
531.887	8.3
532.085	8.34
532.283	8.46
532.481	8.56
532.68	8.55
532.878	8.58
533.076	8.59
533.274	8.55
533.472	8.54
533.67	8.52
533.868	8.55
534.066	8.53
534.264	8.52
534.462	8.5
534.66	8.45
534.858	8.53
535.056	8.45
535.253	8.42
535.451	8.44
535.649	8.58
535.847	8.75
536.045	8.83
536.243	8.94
536.441	8.96
536.638	8.97
536.836	8.97
537.034	8.9
537.232	9.03
537.43	9.19
537.627	9.18
537.825	9.2
538.023	9.11
538.22	9.15
538.418	9.17
538.616	9.3
538.813	9.45
539.011	9.71
539.209	9.88
539.406	9.97
539.604	10.01
539.801	10.12
539.999	10.09
540.196	10.09
540.394	10.11
540.591	10
540.789	9.94
540.986	9.78
541.184	9.75
541.381	9.74
541.579	9.66
541.776	9.64
541.974	9.61
542.171	9.65
542.368	9.72
542.566	9.65
542.763	9.68
542.96	9.66
543.158	9.7
543.355	9.71
543.552	9.82
543.75	9.96
543.947	10
544.144	9.96
544.341	10.01
544.539	10.04
544.736	10.12
544.933	10.11
545.13	10.32
545.327	10.49
545.524	10.48
545.722	10.53
545.919	10.48
546.116	10.56
546.313	10.73
546.51	10.63
546.707	10.82
546.904	10.91
547.101	11.06
547.298	11.1
547.495	11.08
547.692	11.15
547.889	11.19
548.086	11.34
548.283	11.44
548.48	11.53
548.677	11.71
548.874	11.77
549.07	11.68
549.267	11.93
549.464	11.89
549.661	12.07
549.858	12.17
550.055	12.15
550.251	12.23
550.448	12.15
550.645	12.38
550.842	12.47
551.038	12.42
551.235	12.67
551.432	12.64
551.628	12.75
551.825	12.86
552.022	13.13
552.218	13.21
552.415	13.21
552.612	13.34
552.808	13.34
553.005	13.45
553.201	13.49
553.398	13.67
553.594	13.81
553.791	14.02
553.987	13.73
554.184	13.66
554.38	13.86
554.577	13.93
554.773	14.03
554.97	14.2
555.166	14.24
555.362	14.25
555.559	14.32
555.755	14.35
555.952	14.27
556.148	14.8
556.344	14.94
556.541	14.76
556.737	14.94
556.933	15.18
557.129	15.43
557.326	15.41
557.522	15.75
557.718	15.71
557.914	15.64
558.11	15.74
558.307	15.62
558.503	15.83
558.699	16.32
558.895	16.33
559.091	16.21
559.287	16.19
559.483	16.55
559.679	16.53
559.876	16.73
560.072	17.06
560.268	17.18
560.464	17.34
560.66	17.11
560.856	16.97
561.052	17.03
561.247	17.13
561.443	17.07
561.639	16.96
561.835	16.86
562.031	16.86
562.227	16.82
562.423	16.83
562.619	16.97
562.815	17.36
563.01	17.52
563.206	17.82
563.402	17.97
563.598	18.02
563.793	18.09
563.989	18.34
564.185	18.37
564.381	18.44
564.576	18.6
564.772	18.48
564.968	18.41
565.163	18.43
565.359	18.21
565.555	18.28
565.75	18.49
565.946	18.62
566.141	18.63
566.337	18.75
566.532	18.88
566.728	18.92
566.923	19.13
567.119	19.23
567.314	19.3
567.51	19.47
567.705	19.43
567.901	19.35
568.096	19.4
568.292	19.51
568.487	19.59
568.682	19.57
568.878	19.7
569.073	19.69
569.268	19.68
569.464	19.73
569.659	19.91
569.854	20.14
570.05	20.12
570.245	20.27
570.44	20.31
570.635	20.4
570.831	20.64
571.026	20.7
571.221	20.83
571.416	20.84
571.611	20.79
571.806	20.78
572.002	20.74
572.197	20.69
572.392	20.51
572.587	20.65
572.782	20.78
572.977	20.71
573.172	20.69
573.367	20.86
573.562	21
573.757	21.2
573.952	21.2
574.147	21.5
574.342	21.7
574.537	21.96
574.732	21.85
574.927	21.92
575.121	22.01
575.316	22.2
575.511	22.08
575.706	22.22
575.901	22.2
576.096	22.28
576.29	22.16
576.485	22.3
576.68	22.47
576.875	22.63
577.069	22.68
577.264	22.76
577.459	22.84
577.654	23.1
577.848	23.15
578.043	23.37
578.238	23.48
578.432	23.64
578.627	23.82
578.821	23.94
579.016	24.02
579.21	24.1
579.405	24.3
579.6	24.19
579.794	24.05
579.989	24.27
580.183	24.11
580.378	24.22
580.572	24.15
580.766	24
580.961	24.16
581.155	24.1
581.35	24.05
581.544	23.98
581.738	24.24
581.933	24.56
582.127	24.55
582.321	24.58
582.516	24.4
582.71	24.54
582.904	24.74
583.099	24.55
583.293	24.85
583.487	25.06
583.681	25.31
583.875	25.2
584.07	25.12
584.264	25.26
584.458	25.68
584.652	25.96
584.846	26.25
585.04	26.38
585.234	26.75
585.428	26.86
585.623	26.68
585.817	26.75
586.011	27.09
586.205	27.18
586.399	27.13
586.593	27.01
586.787	27.33
586.981	27.06
587.174	27.04
587.368	26.88
587.562	26.85
587.756	26.89
587.95	26.72
588.144	26.65
588.338	26.62
588.532	26.71
588.725	26.62
588.919	26.54
589.113	26.59
589.307	26.49
589.501	26.53
589.694	26.68
589.888	26.73
590.082	26.68
590.275	26.59
590.469	26.54
590.663	26.48
590.856	26.41
591.05	26.45
591.244	26.65
591.437	26.96
591.631	26.92
591.824	26.82
592.018	26.92
592.212	27.09
592.405	27.16
592.599	27.33
592.792	27.49
592.986	27.89
593.179	27.82
593.372	27.64
593.566	27.67
593.759	28.01
593.953	28.21
594.146	28.11
594.339	28.09
594.533	28.27
594.726	28.35
594.92	28.2
595.113	28.1
595.306	28.14
595.499	28.25
595.693	28.02
595.886	27.71
596.079	27.47
596.272	27.52
596.466	27.53
596.659	27.41
596.852	27.35
597.045	27.51
597.238	27.48
597.431	27.42
597.624	27.54
597.818	27.65
598.011	27.83
598.204	28
598.397	28.12
598.59	28.06
598.783	28.11
598.976	28.17
599.169	28.3
599.362	28.29
599.555	28.51
599.748	28.7
599.941	28.78
600.134	29.02
600.326	28.96
600.519	29.25
600.712	29.42
600.905	29.61
601.098	29.99
601.291	29.83
601.483	30.04
601.676	30.08
601.869	29.86
602.062	29.83
602.255	29.5
602.447	29.38
602.64	29.1
602.833	28.99
603.025	29
603.218	28.62
603.411	28.64
603.603	28.64
603.796	28.47
603.989	28.52
604.181	28.5
604.374	28.49
604.566	28.51
604.759	28.63
604.951	28.76
605.144	28.6
605.336	28.78
605.529	28.74
605.721	28.69
605.914	28.88
606.106	28.91
606.299	29.06
606.491	29.22
606.683	29.45
606.876	29.72
607.068	29.84
607.26	30.3
607.453	30.31
607.645	30.42
607.837	30.39
608.03	30.35
608.222	30.47
608.414	30.56
608.606	30.51
608.799	30.49
608.991	30.34
609.183	30.37
609.375	30.31
609.567	30.49
609.759	30.44
609.952	30.62
610.144	30.68
610.336	30.58
610.528	30.49
610.72	30.6
610.912	30.76
611.104	30.84
611.296	31.02
611.488	31.27
611.68	31.18
611.872	31.43
612.064	31.54
612.256	31.83
612.448	31.98
612.64	32.3
612.832	32.52
613.023	32.73
613.215	32.85
613.407	32.59
613.599	32.2
613.791	32.57
613.983	32.81
614.174	32.95
614.366	32.57
614.558	32.72
614.75	32.58
614.941	32.54
615.133	32.35
615.325	32.42
615.516	32.45
615.708	32.69
615.9	32.57
616.091	32.69
616.283	32.46
616.475	32.42
616.666	32.24
616.858	32.62
617.049	32.4
617.241	32.37
617.432	32.34
617.624	32.47
617.815	32.59
618.007	32.46
618.198	32.24
618.39	32.45
618.581	32.54
618.773	32.83
618.964	32.63
619.155	32.76
619.347	32.8
619.538	32.84
619.729	33.27
619.921	33.19
620.112	33.23
620.303	32.99
620.494	33.04
620.686	33.61
620.877	33.48
621.068	33.43
621.259	33.45
621.451	33.87
621.642	34.01
621.833	33.43
622.024	33.43
622.215	33.6
622.406	33.79
622.597	33.75
622.788	33.5
622.98	33.73
623.171	34.17
623.362	34.44
623.553	34.32
623.744	34.45
623.935	34.72
624.126	34.51
624.317	34.06
624.508	34.3
624.698	34.01
624.889	33.56
625.08	33.55
625.271	33.1
625.462	32.73
625.653	32.46
625.844	32.13
626.034	32.01
626.225	32.22
626.416	32.18
626.607	32.01
626.798	32.3
626.988	32.27
627.179	32.31
627.37	32.28
627.56	32.34
627.751	32.34
627.942	32.35
628.132	32.53
628.323	32.46
628.514	32.75
628.704	32.87
628.895	32.73
629.085	32.97
629.276	32.64
629.466	32.91
629.657	32.73
629.847	32.87
630.038	32.87
630.228	32.9
630.419	33.21
630.609	33.28
630.8	33.38
630.99	33.24
631.181	33.57
631.371	33.64
631.561	33.38
631.752	33.75
631.942	33.78
632.132	33.74
632.323	33.88
632.513	33.66
632.703	33.45
632.893	33.49
633.084	33.61
633.274	33.57
633.464	33.57
633.654	33.79
633.844	33.38
634.034	33.45
634.225	33.7
634.415	33.63
634.605	33.56
634.795	33.58
634.985	33.42
635.175	33.88
635.365	33.66
635.555	33.75
635.745	33.69
635.935	34.17
636.125	34.09
636.315	34.28
636.505	34.29
636.695	34.4
636.885	34.34
637.075	34.65
637.265	34.49
637.455	34.91
637.644	35.42
637.834	35.29
638.024	35.2
638.214	35.41
638.404	35.25
638.593	35.19
638.783	35.17
638.973	35.8
639.163	35.57
639.352	35.83
639.542	35.6
639.732	35.68
639.921	35.88
640.111	36.37
640.301	36.39
640.49	36.7
640.68	36.94
640.87	37.08
641.059	36.89
641.249	36.96
641.438	36.59
641.628	36.71
641.817	36.63
642.007	37.05
642.196	36.61
642.386	36.74
642.575	36.93
642.764	36.97
642.954	37.03
643.143	36.99
643.333	37.11
643.522	37.44
643.711	36.92
643.901	36.74
644.09	36.63
644.279	36.66
644.469	36.52
644.658	36.17
644.847	35.82
645.036	36.1
645.226	36.14
645.415	36.01
645.604	35.83
645.793	36.29
645.982	35.94
646.171	35.64
646.361	35.7
646.55	35.78
646.739	35.78
646.928	35.91
647.117	35.75
647.306	35.55
647.495	35.55
647.684	35.82
647.873	35.9
648.062	36.24
648.251	36.42
648.44	36.37
648.629	36.07
648.818	36
649.007	36.05
649.196	35.82
649.384	36.04
649.573	35.77
649.762	35.79
649.951	35.75
650.14	35.91
650.328	35.69
650.517	35.76
650.706	36.18
650.895	36.03
651.083	36.45
651.272	36.35
651.461	36.34
651.65	36.63
651.838	36.36
652.027	36.62
652.216	36.21
652.404	36.48
652.593	36.66
652.781	36.58
652.97	36.94
653.158	36.75
653.347	37.34
653.535	37.42
653.724	37.6
653.912	37.97
654.101	37.93
654.289	38.06
654.478	38.14
654.666	38.07
654.855	37.78
655.043	37.13
655.231	37.05
655.42	36.88
655.608	36.83
655.796	37.01
655.985	36.74
656.173	36.63
656.361	36.86
656.55	36.33
656.738	36.54
656.926	36.76
657.114	37.33
657.302	37.3
657.491	37.18
657.679	37.01
657.867	36.68
658.055	36.91
658.243	36.64
658.431	36.53
658.619	36.9
658.807	36.78
658.996	36.48
659.184	36.28
659.372	36.27
659.56	36.14
659.748	35.97
659.936	36.16
660.124	36.01
660.311	36.23
660.499	36.23
660.687	36.27
660.875	36.46
661.063	36.47
661.251	36.76
661.439	36.99
661.627	37.08
661.814	37.22
662.002	37.43
662.19	37.58
662.378	37.6
662.565	37.93
662.753	38.02
662.941	38.1
663.129	38.48
663.316	38.61
663.504	38.65
663.692	38.78
663.879	39.36
664.067	39.51
664.254	39.46
664.442	39.97
664.63	40.01
664.817	39.84
665.005	39.64
665.192	40.27
665.38	40.13
665.567	39.85
665.755	39.89
665.942	39.56
666.13	39.35
666.317	40
666.504	39.42
666.692	39.23
666.879	39.5
667.067	39.85
667.254	39.44
667.441	39.75
667.629	39.97
667.816	39.88
668.003	39.68
668.19	39.55
668.378	38.93
668.565	38.74
668.752	38.39
668.939	38.13
669.127	37.94
669.314	38.01
669.501	37.71
669.688	37.76
669.875	37.64
670.062	37.98
670.249	38.19
670.436	38.42
670.623	39.26
670.81	39.75
670.997	39.81
671.184	40.09
671.371	40.38
671.558	40.65
671.745	40.89
671.932	41.47
672.119	41.74
672.306	41.97
672.493	41.79
672.68	41.52
672.867	41.79
673.054	41.98
673.24	41.58
673.427	41.41
673.614	41.54
673.801	41.59
673.988	41.31
674.174	41.08
674.361	40.9
674.548	41.4
674.734	41.44
674.921	41.45
675.108	41.48
675.294	41.87
675.481	41.91
675.668	41.95
675.854	41.78
676.041	41.8
676.227	42.12
676.414	42.3
676.601	42.56
676.787	42.75
676.974	42.46
677.16	42.17
677.347	41.96
677.533	41.61
677.719	41.07
677.906	41.12
678.092	41.47
678.279	41.15
678.465	40.7
678.651	39.94
678.838	39.77
679.024	39.51
679.21	39.17
679.397	38.67
679.583	38.63
679.769	38.61
679.955	38.36
680.142	37.8
680.328	37.87
680.514	37.71
680.7	37.75
680.886	37.47
681.073	37.71
681.259	37.99
681.445	38.25
681.631	38.44
681.817	38.28
682.003	38.35
682.189	38.47
682.375	38.59
682.561	38.94
682.747	38.91
682.933	38.8
683.119	38.51
683.305	38.82
683.491	38.85
683.677	39.17
683.863	39.51
684.049	39.87
684.235	40.2
684.42	40.22
684.606	39.92
684.792	40.16
684.978	40.43
685.164	40.43
685.349	40.2
685.535	40.27
685.721	39.4
685.907	39.48
686.092	39.11
686.278	38.83
686.464	39.23
686.649	39.69
686.835	39.13
687.021	39.46
687.206	39.71
687.392	40.03
687.577	40.52
687.763	41.14
687.948	40.89
688.134	40.48
688.319	40.51
688.505	39.8
688.69	39.76
688.876	39.95
689.061	39.51
689.247	40.08
689.432	39.82
689.618	39.31
689.803	39.03
689.988	39.55
690.174	40.29
690.359	40.5
690.544	41.03
690.73	41.28
690.915	41.84
691.1	41.95
691.285	41.48
691.471	41.53
691.656	41.64
691.841	41.72
692.026	41.32
692.211	40.73
692.396	40.42
692.582	40.57
692.767	40.4
692.952	40.02
693.137	40.17
693.322	40.18
693.507	40.25
693.692	40.03
693.877	40.22
694.062	40.45
694.247	41.06
694.432	41.29
694.617	40.84
694.802	40.37
694.987	40.57
695.172	40.98
695.357	40.9
695.541	41.36
695.726	41.71
695.911	42.19
696.096	42.17
696.281	42.09
696.466	42.2
696.65	41.84
696.835	41.58
697.02	41.06
697.204	40.31
697.389	40.13
697.574	39.97
697.759	39.63
697.943	38.84
698.128	38.51
698.312	38.14
698.497	37.6
698.682	37.47
698.866	37.34
699.051	37.45
699.235	37.77
699.42	37.74
699.604	37.53
699.789	37.55
699.973	37.49
700.158	37.57
700.342	37.68
700.527	38.04
700.711	38.38
700.895	38.89
701.08	39.49
701.264	38.92
701.448	39.18
701.633	39.89
701.817	40.25
702.001	41.23
702.186	41.99
702.37	42.43
702.554	42.83
702.738	44.1
702.923	44.65
703.107	44.73
703.291	45.57
703.475	45.41
703.659	44.77
703.843	45.02
704.027	45.38
704.212	45.15
704.396	45.4
704.58	45.24
704.764	44.57
704.948	45.03
705.132	44.52
705.316	44.08
705.5	44.02
705.684	44.25
705.868	44.28
706.052	44.02
706.235	44.11
706.419	44.06
706.603	44.66
706.787	44.48
706.971	44.21
707.155	43.74
707.339	43.8
707.522	44.41
707.706	44.73
707.89	44.88
708.074	44.62
708.257	44.46
708.441	45.23
708.625	45.29
708.808	45.64
708.992	45.43
709.176	46.33
709.359	46.28
709.543	45.93
709.727	45.32
709.91	45.51
710.094	45.5
710.277	45.61
710.461	44.83
710.644	44.62
710.828	43.95
711.011	44.07
711.195	44.14
711.378	44.34
711.562	44.44
711.745	44.78
711.928	44.52
712.112	44.53
712.295	44.19
712.478	44.35
712.662	44.42
712.845	44.62
713.028	43.88
713.212	42.99
713.395	43.32
713.578	43.66
713.761	43.21
713.945	43.79
714.128	44
714.311	44.06
714.494	43.51
714.677	43.36
714.86	43.87
715.043	44.22
715.227	44.31
715.41	44.42
715.593	44.47
715.776	44.5
715.959	43.74
716.142	43.58
716.325	43.19
716.508	42.98
716.691	42.92
716.874	42.53
717.057	42.21
717.239	42.54
717.422	41.6
717.605	41.22
717.788	41.19
717.971	41.2
718.154	40.74
718.337	42.11
718.519	42.89
718.702	42.46
718.885	42.76
719.068	43.5
719.25	43.84
719.433	45.16
719.616	44.97
719.798	45.65
719.981	46.27
720.164	46.79
720.346	45.91
720.529	45.76
720.712	46.13
720.894	46.39
721.077	46
721.259	45.85
721.442	45.96
721.624	47.24
721.807	46.86
721.989	46.52
722.172	46.69
722.354	47.12
722.537	47.6
722.719	48.54
722.901	48.02
723.084	48.13
723.266	47.83
723.448	48.12
723.631	47.08
723.813	47.62
723.995	47.55
724.178	47.17
724.36	47.26
724.542	46.42
724.724	45.46
724.907	44.8
725.089	45.79
725.271	46.76
725.453	45.33
725.635	46.45
725.817	46.14
725.999	46.11
726.181	45.6
726.364	45.28
726.546	44.62
726.728	44.78
726.91	44.61
727.092	43.43
727.274	42.96
727.456	44.22
727.638	43.39
727.819	42.91
728.001	42.73
728.183	42.96
728.365	42.52
728.547	43.21
728.729	44.03
728.911	44.81
729.093	44.71
729.274	44.53
729.456	43.97
729.638	43.8
729.82	44.03
730.001	44.41
730.183	45.01
730.365	45.51
730.546	45.59
730.728	45.09
730.91	45.61
731.091	46.15
731.273	46.01
731.455	46.22
731.636	46.16
731.818	46.85
731.999	46.23
732.181	45.96
732.362	46.14
732.544	46.56
732.725	45.97
732.907	45.47
733.088	45.78
733.27	46.53
733.451	46.78
733.633	47.18
733.814	47.17
733.995	47.26
734.177	47.84
734.358	47.7
734.539	47.3
734.721	48.18
734.902	47.95
735.083	47.49
735.264	47.8
735.446	47.7
735.627	48.07
735.808	47.85
735.989	48.35
736.17	48.01
736.351	48.26
736.533	48.65
736.714	49.01
736.895	49.39
737.076	50.1
737.257	49.64
737.438	49.46
737.619	49.75
737.8	49.54
737.981	50.12
738.162	50.57
738.343	51.34
738.524	51.26
738.705	51.03
738.886	51.65
739.067	51.4
739.247	51.76
739.428	51.63
739.609	51.26
739.79	51.99
739.971	51.22
740.151	49.79
740.332	49.11
740.513	49.79
740.694	49.77
740.874	49.09
741.055	49.69
741.236	49.87
741.417	50.05
741.597	49.83
741.778	49.88
741.958	50.37
742.139	51.97
742.32	51.98
742.5	51.54
742.681	51.81
742.861	52.79
743.042	52.16
743.222	51.84
743.403	52.4
743.583	53.43
743.764	53.19
743.944	53.74
744.124	53.82
744.305	54.1
744.485	54.63
744.666	53.77
744.846	54.2
745.026	54.81
745.207	54.54
745.387	55.63
745.567	55.7
745.747	55.6
745.928	55.97
746.108	56.14
746.288	56.35
746.468	55.33
746.648	57.18
746.829	56.53
747.009	56.19
747.189	56.81
747.369	55.54
747.549	55.27
747.729	55.09
747.909	54.83
748.089	54.16
748.269	53.31
748.449	54.14
748.629	53.39
748.809	53.21
748.989	53.85
749.169	53.11
749.349	53.79
749.529	53.85
749.709	54.65
749.889	54
750.068	55.08
750.248	55.94
750.428	55.1
750.608	54.17
750.788	54.22
750.967	53.98
751.147	54.72
751.327	54.78
751.507	53.82
751.686	53.37
751.866	52.74
752.046	51.79
752.225	51.47
752.405	51.94
752.585	52.99
752.764	53.41
752.944	52.17
753.123	51.8
753.303	50.74
753.482	52.38
753.662	52.06
753.841	52.95
754.021	53.2
754.2	53.32
754.38	53.47
754.559	53.34
754.739	53.2
754.918	54.22
755.097	53.76
755.277	54.04
755.456	53.71
755.635	53.13
755.815	53.76
755.994	53.51
756.173	53.64
756.352	53.81
756.532	52.56
756.711	52.93
756.89	52.25
757.069	52.47
757.248	51.94
757.427	50.61
757.607	52.24
757.786	52.06
757.965	50.8
758.144	50.47
758.323	50.68
758.502	50.81
758.681	49.56
758.86	49.7
759.039	49.68
759.218	50.07
759.397	49.65
759.576	48.38
759.755	46.87
759.934	47.8
760.113	48.75
760.291	47.99
760.47	48.91
760.649	49.03
760.828	49.15
761.007	49.03
761.186	48.26
761.364	48.55
761.543	48.51
761.722	47.54
761.901	46.87
762.079	45.31
762.258	44.26
762.437	43.89
762.615	43.15
762.794	42.98
762.972	43.05
763.151	43.13
763.33	42.73
763.508	41.84
763.687	42.53
763.865	42.22
764.044	41.83
764.222	42.16
764.401	41.42
764.579	40.96
764.758	40.94
764.936	41.38
765.114	41.98
765.293	42.53
765.471	43.87
765.65	44.36
765.828	45.72
766.006	47.01
766.184	48.35
766.363	49.5
766.541	50.33
766.719	50.84
766.898	50.69
767.076	51.15
767.254	52.51
767.432	53.15
767.61	54.05
767.788	53.68
767.967	53.11
768.145	53.64
768.323	53.9
768.501	55.13
768.679	55.57
768.857	55.41
769.035	56.48
769.213	55.91
769.391	57.03
769.569	57.14
769.747	58.81
769.925	60.52
770.103	60.74
770.281	61.35
770.459	61.4
770.636	62.68
770.814	62.75
770.992	62.73
771.17	63.2
771.348	61.16
771.525	62.9
771.703	61.94
771.881	61.64
772.059	61.07
772.236	59.69
772.414	61.17
772.592	60.14
772.769	61.43
772.947	62.3
773.125	63.39
773.302	63.43
773.48	62.31
773.657	63.6
773.835	62.88
774.013	64.04
774.19	66.54
774.368	67.03
774.545	68.41
774.723	68.67
774.9	67.96
775.077	67.24
775.255	68.11
775.432	70.56
775.61	68.81
775.787	69.37
775.964	68.06
776.142	66.56
776.319	64.76
776.496	62.96
776.674	61.72
776.851	59.9
777.028	59.05
777.205	58.78
777.382	57.15
777.56	58.6
777.737	62.87
777.914	63.15
778.091	62.72
778.268	63.95
778.445	63.14
778.622	63.25
778.8	64.96
778.977	65.89
779.154	72.51
779.331	70.56
779.508	69.86
779.685	65.58
779.862	66.87
780.038	68.95
780.215	68.79
780.392	70.09
780.569	70.92
780.746	70.03
780.923	69.67
781.1	63.53
781.277	65.72
781.453	65.65
781.63	66.46
781.807	67.18
781.984	64.95
782.16	64.62
782.337	63.74
782.514	63.59
782.691	65.18
782.867	65.86
783.044	66.21
783.221	64.48
783.397	63.39
783.574	63.05
783.75	61.51
783.927	62.92
784.103	63.67
784.28	65.09
784.456	64.32
784.633	63.2
784.809	63.65
784.986	61.96
785.162	61.44
785.339	64.11
785.515	63.91
785.692	61.94
785.868	62.53
786.044	62.11
786.221	61.86
786.397	62.68
786.573	62.44
786.749	61.69
786.926	64.63
787.102	65.57
787.278	62.77
787.454	63.4
787.631	65.38
787.807	64.16
787.983	64.13
788.159	63.96
788.335	63.64
788.511	63.53
788.687	63.44
788.863	61.54
789.039	62.27
789.216	63.07
789.392	62.16
789.568	61.71
789.744	62.49
789.919	60.59
790.095	61.03
790.271	61.9
790.447	61.05
790.623	60.01
790.799	59.83
790.975	57.81
791.151	58.69
791.327	60.09
791.502	59.7
791.678	58.72
791.854	61.26
792.03	59.64
792.205	59.77
792.381	61.86
792.557	65.35
792.733	65.41
792.908	67.61
793.084	70.16
793.259	69.04
793.435	71.32
793.611	70.5
793.786	69.46
793.962	69.08
794.137	67.77
794.313	66.54
794.488	63.57
794.664	64.77
794.839	63.51
795.015	60.35
795.19	59.07
795.366	57.7
795.541	58.8
795.716	57.65
795.892	59.37
796.067	59.27
796.242	59.12
796.418	58.91
796.593	58.69
796.768	57.65
796.944	58.65
797.119	60.88
797.294	61.41
797.469	61.83
797.644	61.78
797.82	60.73
797.995	60.13
798.17	60.81
798.345	62.46
798.52	62.2
798.695	62.98
798.87	60.82
799.045	60.39
799.22	59.97
799.395	61.43
799.57	62.24
799.745	62.49
799.92	63.56
800.095	64.26
800.27	61.92
800.445	60.23
800.62	58.65
800.795	60.84
800.97	61.19
801.145	61.11
801.319	58.41
801.494	57.47
801.669	59.2
801.844	59.73
802.018	56.96
802.193	58.08
802.368	59.18
802.543	61.74
802.717	62.4
802.892	63.33
803.067	62.22
803.241	62.77
803.416	62.31
803.59	61.2
803.765	60.33
803.94	62.76
804.114	63.52
804.289	64.71
804.463	63.65
804.638	61.51
804.812	58.61
804.986	58.42
805.161	59.9
805.335	60.31
805.51	59.16
805.684	58.4
805.858	57.71
806.033	56.38
806.207	56.28
806.381	56.54
806.556	59.16
806.73	61.12
806.904	61.16
807.078	59.7
807.253	61.08
807.427	62.69
807.601	62.95
807.775	62.89
807.949	62.59
808.123	62.49
808.298	62.28
808.472	61.73
808.646	61.37
808.82	60.94
808.994	59.56
809.168	62.31
809.342	62.05
809.516	64.36
809.69	64.59
809.864	66.23
810.038	68.69
810.212	69.36
810.385	71.16
810.559	72.31
810.733	74.88
810.907	75.4
811.081	72.13
811.255	69.93
811.428	69.06
811.602	68.69
811.776	68.35
811.95	66.69
812.123	66.44
812.297	63.6
812.471	60.59
812.644	60.02
812.818	63.03
812.992	62.05
813.165	63.63
813.339	65.17
813.512	65.36
813.686	66.28
813.86	63.37
814.033	62.27
814.207	60.36
814.38	62.11
814.554	62.24
814.727	58.71
814.9	59.61
815.074	58.17
815.247	58.02
815.421	55.44
815.594	55.18
815.767	55.41
815.941	54.86
816.114	57.31
816.287	56.72
816.46	54.53
816.634	54.06
816.807	54.21
816.98	58.04
817.153	54.09
817.327	52.53
817.5	54.63
817.673	53.33
817.846	58.13
818.019	55.33
818.192	55.58
818.365	57.95
818.538	59.3
818.711	56.92
818.884	54.32
819.057	58.35
819.23	60.27
819.403	58.7
819.576	61.3
819.749	56.34
819.922	56.71
820.095	57.36
820.268	56.79
820.441	53.93
820.614	54.11
820.786	52.72
820.959	49.43
821.132	47.78
821.305	44.17
821.477	41.76
821.65	40.83
821.823	39.71
821.996	38.2
822.168	37.04
822.341	36.88
822.514	35.68
822.686	35.3
822.859	35.04
823.031	34.86
823.204	34.59
823.376	34.61
823.549	34.54
823.722	34.94
823.894	35.66
824.067	35.49
824.239	35.24
824.411	35.84
824.584	35.65
824.756	35.51
824.929	35.41
825.101	35.82
825.273	35.79
825.446	35.39
825.618	35.09
825.79	34.3
825.963	34.19
826.135	35.17
826.307	35.03
826.479	35.65
826.652	35.63
826.824	36.29
826.996	36.36
827.168	36.59
827.34	37.17
827.512	36.82
827.684	36.39
827.856	37.07
828.029	36.99
828.201	36.6
828.373	35.7
828.545	36.2
828.717	37.06
828.889	37.6
829.061	38.13
829.232	39.36
829.404	39.68
829.576	41.11
829.748	42.21
829.92	43.3
830.092	46.1
830.264	48.22
830.436	49.33
830.607	48.8
830.779	48.46
830.951	48.91
831.123	48.19
831.294	49.3
831.466	50.42
831.638	51.23
831.809	49.47
831.981	48.45
832.153	48.76
832.324	47.74
832.496	46.66
832.667	48.53
832.839	49.92
833.011	51.14
833.182	51.94
833.354	49.81
833.525	47.59
833.697	48.01
833.868	47.75
834.039	47.65
834.211	48.46
834.382	48.44
834.554	48.08
834.725	47.42
834.896	46
835.068	44.59
835.239	44.86
835.41	45.62
835.581	47.72
835.753	45.05
835.924	43.99
836.095	43.62
836.266	44.1
836.438	42.91
836.609	42.44
836.78	43.35
836.951	44.68
837.122	43.56
837.293	43.67
837.464	44.38
837.635	48.38
837.806	49.81
837.977	50.99
838.148	51.56
838.319	54.07
838.49	56.45
838.661	55.42
838.832	56.54
839.003	58.09
839.174	59.94
839.345	58.23
839.516	58.98
839.687	63.04
839.857	65
840.028	63.7
840.199	68.34
840.37	65.85
840.54	66.96
840.711	65.98
840.882	66.2
841.053	64.6
841.223	58.87
841.394	57.87
841.564	56.1
841.735	56.34
841.906	58.43
842.076	56.12
842.247	58.07
842.417	62.04
842.588	60.35
842.758	65.83
842.929	66.59
843.099	73.89
843.27	75.02
843.44	74.4
843.611	71.69
843.781	72.4
843.951	68.46
844.122	65.03
844.292	61.52
844.462	66.04
844.633	61.65
844.803	63.31
844.973	59.41
845.144	63.47
845.314	65.35
845.484	68.98
845.654	74.1
845.824	83.44
845.995	84.94
846.165	91.05
846.335	90.84
846.505	102.65
846.675	108.65
846.845	111.39
847.015	111.75
847.185	120.52
847.355	117.97
847.525	115.67
847.695	114.34
847.865	121.84
848.035	116.83
848.205	116.7
848.375	110.87
848.545	106.6
848.715	106.82
848.884	101.23
849.054	92.54
849.224	95.77
849.394	98.89
849.564	102.22
849.733	102.28
849.903	100
850.073	90.43
850.243	87.86
850.412	86.12
850.582	88.47
850.752	94.56
850.921	91.95
851.091	92.76
851.26	88.9
851.43	81.21
851.599	73.01
851.769	72.22
851.939	83.78
852.108	84.74
852.278	87.55
852.447	91.67
852.616	94.18
852.786	91.17
852.955	90.85
853.125	87.69
853.294	94.12
853.463	99.29
853.633	100.2
853.802	96.47
853.971	103.26
854.141	99.34
854.31	94.9
854.479	87.04
854.648	85.28
854.818	77.59
854.987	77.64
855.156	80.24
855.325	87.1
855.494	90.36
855.663	88.13
855.832	79.18
856.001	81.56
856.171	85.2
856.34	95.06
856.509	104.28
856.678	119.92
856.847	129.93
857.016	114.67
857.185	116.85
857.353	130.28
857.522	140.11
857.691	137.35
857.86	142.69
858.029	145.38
858.198	150.33
858.367	150.91
858.535	148.52
858.704	151.09
858.873	168.32
859.042	150.39
859.21	148.76
859.379	141.96
859.548	142.88
859.717	141.02
859.885	146.11
860.054	133.11
860.222	124.96
860.391	118.13
860.56	109.25
860.728	112.22
860.897	110.58
861.065	97.34
861.234	92.7
861.402	99.29
861.571	95.82
861.739	94.55
861.908	100.33
862.076	111.22
862.244	122.84
862.413	129.17
862.581	126.41
862.749	134.8
862.918	152.47
863.086	144.19
863.254	125.47
863.423	121.6
863.591	106.11
863.759	104.08
863.927	101.31
864.096	107.79
864.264	103.33
864.432	101.99
864.6	104.63
864.768	105.44
864.936	107.04
865.104	115.11
865.272	115.32
865.44	130.99
865.608	116.06
865.776	114.5
865.944	104.05
866.112	113.16
866.28	116.61
866.448	106.71
866.616	103.55
866.784	116.3
866.952	109.18
867.12	112.7
867.288	102.33
867.455	109.55
867.623	114.79
867.791	122.5
867.959	115.52
868.127	112.62
868.294	120.76
868.462	113.37
868.63	85.68
868.797	79.14
868.965	76.23
869.133	85.09
869.3	96.96
869.468	92.12
869.636	94.41
869.803	98.97
869.971	93.88
870.138	98.83
870.306	96.56
870.473	104.66
870.641	107.9
870.808	111.44
870.975	99.6
871.143	94.53
871.31	92.79
871.478	85.58
871.645	84.99
871.812	88.22
871.98	92.53
872.147	93.55
872.314	85.14
872.482	84.32
872.649	78.19
872.816	88.06
872.983	89.55
873.15	91
873.318	93.35
873.485	99.33
873.652	99.55
873.819	98.67
873.986	95.09
874.153	105.01
874.32	104.44
874.487	103.47
874.654	95.74
874.821	98.68
874.988	90.91
875.155	91.38
875.322	85.25
875.489	96.2
875.656	92.54
875.823	100.29
875.99	96.52
876.157	96.78
876.324	106.35
876.49	114.37
876.657	111.6
876.824	114.34
876.991	111.2
877.157	117.15
877.324	118.31
877.491	111.47
877.658	108.78
877.824	101.21
877.991	102.25
878.157	98.37
878.324	99.32
878.491	92.35
878.657	98.94
878.824	88.96
878.99	76.84
879.157	70.14
879.323	70.76
879.49	68.14
879.656	71.77
879.823	76.16
879.989	77.13
880.156	77.25
880.322	73.49
880.488	68.78
880.655	80.13
880.821	89.61
880.987	86.84
881.154	87.01
881.32	89.6
881.486	83.78
881.652	77.98
881.819	73.73
881.985	69.22
882.151	66.15
882.317	58.98
882.483	52.34
882.649	46.13
882.816	43.22
882.982	40.72
883.148	38.46
883.314	38.41
883.48	38.53
883.646	36.95
883.812	35.76
883.978	35.58
884.144	36.87
884.31	37.96
884.476	37.96
884.642	38.84
884.807	42.61
884.973	42.97
885.139	44.68
885.305	45.39
885.471	47.45
885.637	48.23
885.802	48.83
885.968	49.72
886.134	50.47
886.3	51.62
886.465	53.4
886.631	52.26
886.797	56.37
886.962	57.66
887.128	60.07
887.293	57.9
887.459	59.76
887.625	62.01
887.79	67.65
887.956	70.33
888.121	75.93
888.287	74.57
888.452	70.61
888.618	67.41
888.783	62.25
