Data from LC_159_Reflection_3.txt Node
Date: Mon Nov 16 22:32:00 EST 2015
User: robert
Spectrometer: USB4E03001
Autoset integration time: false
Trigger mode: 4
Integration Time (sec): 1.000000E-1
Scans to average: 15
Electric dark correction enabled: true
Nonlinearity correction enabled: false
Boxcar width: 5
Stray light correction enabled: false
XAxis mode: Wavelengths
Stop averaging: false
Number of Pixels in Spectrum: 3648
>>>>>Begin Spectral Data<<<<<
177.566	2604.82
177.785	303.98
178.005	-1180.67
178.225	75.56
178.445	-346.58
178.665	951.71
178.885	239.5
179.105	-31.78
179.324	-384.11
179.544	-19.66
179.764	-475.4
179.984	-4.79
180.204	-103.79
180.423	-45.49
180.643	-100.73
180.863	-0.72
181.083	3.07
181.302	-100.44
181.522	-106.96
181.742	-110.02
181.961	-273.17
182.181	-242.87
182.401	-331.19
182.621	-1450.65
182.84	-625.27
183.06	-357.07
183.279	-224.94
183.499	-212.03
183.719	-157.21
183.938	-153.52
184.158	-233.14
184.377	-161.11
184.597	-256.55
184.816	-191.57
185.036	-146.17
185.256	-118.46
185.475	-152.55
185.695	-221.15
185.914	-279.47
186.134	-464.59
186.353	-601.34
186.572	-681.23
186.792	-994.63
187.011	-385.46
187.231	-384.05
187.45	-255.14
187.67	-773.25
187.889	-2209.63
188.108	3622.36
188.328	-1058.07
188.547	-415.69
188.766	-737.32
188.986	-865.47
189.205	-542.53
189.424	-369.76
189.644	-864.19
189.863	-945.97
190.082	-410.59
190.302	-805.72
190.521	-410.28
190.74	449.26
190.959	251.71
191.178	377.49
191.398	460.56
191.617	399.97
191.836	349.33
192.055	767.58
192.274	313.8
192.494	405
192.713	444.31
192.932	1068.9
193.151	881.71
193.37	1583.27
193.589	-974.5
193.808	-197.58
194.027	-270.57
194.246	-3005.87
194.465	694.45
194.685	2029.4
194.904	943.43
195.123	-1264.91
195.342	-759.52
195.561	-337.64
195.78	-463.92
195.999	17701.41
196.218	656.04
196.436	632.51
196.655	-1741.8
196.874	-584.75
197.093	-506.15
197.312	-438.08
197.531	1254.94
197.75	436.77
197.969	-1471.39
198.188	-402.5
198.407	-110.35
198.625	-121.14
198.844	-62.26
199.063	-133.68
199.282	-283.57
199.501	-222.1
199.719	-125.12
199.938	-75.21
200.157	-87.13
200.376	-82.93
200.594	-107.33
200.813	-281.48
201.032	-213.83
201.251	-238.65
201.469	-168.98
201.688	-117.54
201.907	-219.23
202.125	-410.38
202.344	17159.52
202.563	2921.25
202.781	517.4
203	1533.75
203.218	1167.91
203.437	1050.74
203.656	514.27
203.874	310.67
204.093	274.02
204.311	357.2
204.53	345.84
204.748	521.71
204.967	296.95
205.185	293.34
205.404	370.95
205.622	252.41
205.841	193.65
206.059	214.81
206.278	242.96
206.496	716.76
206.715	402.17
206.933	305.29
207.151	251.69
207.37	344.24
207.588	326.28
207.806	299.61
208.025	545.6
208.243	-1084.33
208.461	1812.56
208.68	-16040
208.898	652.09
209.116	712.03
209.335	723.6
209.553	670.84
209.771	5534.58
209.989	1151.58
210.208	2295.44
210.426	-4174.06
210.644	2321.85
210.862	-1944.37
211.081	977.26
211.299	-393.95
211.517	1494.93
211.735	-344.32
211.953	-126057.14
212.171	-2528.61
212.39	-7246.85
212.608	-20595.65
212.826	818.09
213.044	673.63
213.262	498.23
213.48	3265.82
213.698	352.32
213.916	498.79
214.134	366.6
214.352	755.53
214.57	494.09
214.788	606.54
215.006	519.86
215.224	436.32
215.442	310.4
215.66	261.77
215.878	201.34
216.096	233.05
216.314	242.59
216.532	465.54
216.75	364.48
216.968	345.1
217.185	880.07
217.403	1500.83
217.621	-4612.29
217.839	-1260.36
218.057	-1665.71
218.275	2936.43
218.492	934.35
218.71	1362.72
218.928	369.96
219.146	392.73
219.363	316.5
219.581	241.26
219.799	188.06
220.017	171.05
220.234	169.34
220.452	177.5
220.67	193.49
220.887	193.7
221.105	237.55
221.323	201.85
221.54	210.15
221.758	286.36
221.976	282.3
222.193	258.87
222.411	191.47
222.629	180.72
222.846	184.18
223.064	193.48
223.281	155.1
223.499	147.47
223.716	153.16
223.934	113.34
224.151	107.9
224.369	91.73
224.586	92.75
224.804	84.62
225.021	94.29
225.239	77.3
225.456	68.71
225.674	74.01
225.891	56.76
226.108	73.48
226.326	75.27
226.543	71.05
226.76	71.42
226.978	64.25
227.195	68.23
227.413	57.99
227.63	50.46
227.847	47.84
228.064	39.16
228.282	38.04
228.499	30.82
228.716	30.26
228.934	23.97
229.151	23.75
229.368	23.05
229.585	21.62
229.802	22.12
230.02	23.97
230.237	24.42
230.454	27.7
230.671	30
230.888	31.89
231.105	30.48
231.323	36.45
231.54	39.89
231.757	38.05
231.974	42.03
232.191	39.78
232.408	41.1
232.625	38.84
232.842	38.53
233.059	37.25
233.276	34.99
233.493	32.39
233.71	30.05
233.927	28.53
234.144	35.82
234.361	30.29
234.578	34.31
234.795	32.65
235.012	31.48
235.229	31.72
235.446	29.45
235.663	35.4
235.879	39
236.096	36.95
236.313	38.53
236.53	33.04
236.747	32.45
236.964	31.69
237.181	35.31
237.397	36.95
237.614	37.4
237.831	38.17
238.048	33.96
238.264	36.33
238.481	33.22
238.698	31.25
238.915	34.87
239.131	37.41
239.348	36.93
239.565	31.07
239.781	33.52
239.998	30.09
240.215	28.22
240.431	23.7
240.648	21.61
240.865	22.5
241.081	19.17
241.298	18.33
241.514	19.11
241.731	16.99
241.947	17.86
242.164	15.48
242.38	15.23
242.597	14.65
242.814	15.16
243.03	14.58
243.246	15.04
243.463	15.87
243.679	15.78
243.896	12.89
244.112	15.33
244.329	15.09
244.545	17.23
244.762	17.46
244.978	19.45
245.194	18.98
245.411	17.83
245.627	17.44
245.843	16.84
246.06	15.99
246.276	17.1
246.492	15.08
246.709	15.24
246.925	13.83
247.141	13.84
247.357	13.2
247.574	13.53
247.79	13.89
248.006	14.21
248.222	13.97
248.439	13.72
248.655	13.69
248.871	14.4
249.087	13.91
249.303	13.3
249.519	13.96
249.736	15.02
249.952	14.69
250.168	16.01
250.384	16.76
250.6	17.34
250.816	17.26
251.032	16.97
251.248	16.87
251.464	16.98
251.68	18.19
251.896	16.93
252.112	15.37
252.328	17.46
252.544	16.43
252.76	16.36
252.976	15.6
253.192	16.49
253.408	16.32
253.624	18.24
253.84	18.7
254.056	20.92
254.272	21.21
254.487	23.94
254.703	20.77
254.919	20.4
255.135	15.9
255.351	18.22
255.567	19.42
255.782	21.02
255.998	16
256.214	15.75
256.43	11.86
256.646	12.61
256.861	12.15
257.077	11.97
257.293	11.96
257.508	13.91
257.724	14.89
257.94	13.92
258.155	13.53
258.371	14.15
258.587	13.14
258.802	13.08
259.018	13.7
259.234	12.26
259.449	12.72
259.665	12.02
259.88	12.48
260.096	11.7
260.312	10.84
260.527	10.11
260.743	10.48
260.958	10.58
261.174	10.54
261.389	10.52
261.605	11.3
261.82	11.36
262.036	12.2
262.251	13.09
262.466	13.24
262.682	15.78
262.897	17.29
263.113	18.34
263.328	20.02
263.543	20.56
263.759	20.44
263.974	21.53
264.189	20.47
264.405	20.65
264.62	18.47
264.835	19.07
265.051	17.25
265.266	18.57
265.481	17.17
265.696	17.37
265.912	16.32
266.127	15.31
266.342	12.54
266.557	13.62
266.773	13.59
266.988	14.21
267.203	14.05
267.418	14.84
267.633	13.39
267.848	14.33
268.064	13.18
268.279	14.83
268.494	14.45
268.709	16.2
268.924	16.17
269.139	17.24
269.354	16.28
269.569	14.69
269.784	14.59
269.999	15.02
270.214	13.61
270.429	14.62
270.644	13.78
270.859	13.17
271.074	13.16
271.289	12.3
271.504	11.3
271.719	11.35
271.934	12.56
272.149	12.03
272.363	12.23
272.578	11.69
272.793	11.05
273.008	11.09
273.223	11.77
273.438	10.32
273.653	11.55
273.867	11.29
274.082	10.27
274.297	9.64
274.512	10.39
274.726	9.35
274.941	9.58
275.156	10.36
275.371	10.81
275.585	10.61
275.8	11.51
276.015	10.9
276.229	10.24
276.444	13.27
276.659	13.98
276.873	11.61
277.088	12.34
277.302	13.01
277.517	13.86
277.732	14.81
277.946	15.33
278.161	15.88
278.375	15.18
278.59	15.8
278.804	13.82
279.019	13.45
279.233	13.81
279.448	13.18
279.662	12.87
279.877	11.58
280.091	10.18
280.306	9.73
280.52	9.84
280.735	8.9
280.949	9.25
281.163	9.98
281.378	9.27
281.592	9.86
281.806	10.74
282.021	9.91
282.235	10.21
282.449	11.08
282.664	11.71
282.878	11.08
283.092	13.18
283.307	12.6
283.521	12.44
283.735	12.83
283.949	13.77
284.164	13.21
284.378	14.15
284.592	12.83
284.806	12.5
285.02	11.86
285.234	11.07
285.449	9.74
285.663	9.42
285.877	9.21
286.091	9.07
286.305	7.98
286.519	7.28
286.733	6.04
286.947	5.86
287.161	5.2
287.375	5.94
287.589	6.97
287.803	8.08
288.017	8.34
288.231	7.86
288.445	8.38
288.659	9.15
288.873	8.9
289.087	9.87
289.301	10.95
289.515	11.16
289.729	10.43
289.943	10.36
290.157	10.04
290.371	11.12
290.584	10.94
290.798	12.18
291.012	12.9
291.226	13.4
291.44	14.6
291.654	14.7
291.867	15.21
292.081	15.06
292.295	15.85
292.509	15.23
292.722	14.1
292.936	14.41
293.15	13.81
293.364	12.42
293.577	13.66
293.791	12.26
294.005	12.89
294.218	12.89
294.432	13.43
294.645	12.8
294.859	12.75
295.073	13.11
295.286	13.43
295.5	12.15
295.713	13.05
295.927	12.49
296.14	13.68
296.354	12.64
296.568	12.14
296.781	12.55
296.994	12.34
297.208	12.18
297.421	12.25
297.635	11.95
297.848	12.31
298.062	11.66
298.275	12.02
298.489	11.35
298.702	11.64
298.915	12.06
299.129	11.54
299.342	11.25
299.555	11.78
299.769	11.94
299.982	12.52
300.195	13.26
300.409	14.09
300.622	14.45
300.835	15.16
301.048	15.58
301.262	15.4
301.475	14.81
301.688	16.87
301.901	17.02
302.115	16.98
302.328	17.54
302.541	17.43
302.754	17.86
302.967	17.06
303.18	16.04
303.393	16.2
303.607	16.36
303.82	17.88
304.033	16.12
304.246	15.68
304.459	16.34
304.672	16.46
304.885	15.93
305.098	14.57
305.311	14.37
305.524	15.19
305.737	14.72
305.95	15.53
306.163	14.11
306.376	14.14
306.589	14.05
306.802	12.35
307.015	12.11
307.228	13.27
307.44	14.25
307.653	14.52
307.866	13.47
308.079	14.57
308.292	13.65
308.505	14.69
308.718	14.35
308.93	14.14
309.143	15.42
309.356	14.86
309.569	13.79
309.781	12.94
309.994	12.79
310.207	13.71
310.42	12.92
310.632	12.56
310.845	12.23
311.058	11.96
311.27	12.76
311.483	12.25
311.696	11.57
311.908	11.74
312.121	12.66
312.333	14.04
312.546	13.39
312.759	13.34
312.971	13.93
313.184	14.54
313.396	14.58
313.609	15.4
313.821	15.45
314.034	16.58
314.246	17.43
314.459	16.62
314.671	14.88
314.884	14.66
315.096	13.82
315.309	13.92
315.521	13.67
315.733	13.43
315.946	11.25
316.158	11.7
316.371	11.7
316.583	10.83
316.795	11.12
317.008	12.42
317.22	13.66
317.432	13.93
317.644	13.68
317.857	13.59
318.069	13.98
318.281	14.74
318.494	14.03
318.706	14.24
318.918	14.46
319.13	15.36
319.342	15.2
319.555	14.78
319.767	16.45
319.979	16.18
320.191	16.5
320.403	16.56
320.615	16.79
320.827	17.46
321.039	17.14
321.252	16.41
321.464	15.26
321.676	14.55
321.888	14.61
322.1	14
322.312	12.76
322.524	12.18
322.736	11.85
322.948	11.38
323.16	11.23
323.372	11.47
323.584	11.29
323.796	11.78
324.007	12.14
324.219	12.18
324.431	12.54
324.643	13.37
324.855	13.26
325.067	13.99
325.279	14.53
325.491	15.03
325.702	14.3
325.914	14.32
326.126	15
326.338	14.6
326.55	14.46
326.761	14.2
326.973	14.8
327.185	15.15
327.396	15.21
327.608	15.84
327.82	16.09
328.032	17.01
328.243	17.25
328.455	17.41
328.666	17.93
328.878	18.38
329.09	18.45
329.301	19.05
329.513	18.95
329.725	18.84
329.936	18.63
330.148	18.87
330.359	19.15
330.571	20.03
330.782	19.21
330.994	19.82
331.205	20.3
331.417	20.29
331.628	19.83
331.84	20.21
332.051	20.71
332.262	21.3
332.474	20.69
332.685	20.74
332.897	20.74
333.108	21
333.319	20.42
333.531	20.29
333.742	20.82
333.953	20.73
334.165	19.83
334.376	20.39
334.587	19.24
334.799	19.69
335.01	19.17
335.221	18.86
335.432	18.59
335.644	17.99
335.855	17.98
336.066	17.9
336.277	17.21
336.488	18.18
336.7	17.14
336.911	17.88
337.122	17.52
337.333	18.18
337.544	18.85
337.755	19.32
337.966	19.5
338.177	19.49
338.388	19.29
338.599	20.97
338.811	20.79
339.022	21.26
339.233	20.43
339.444	20.68
339.655	19.67
339.866	19.27
340.076	19.47
340.287	20.44
340.498	20.38
340.709	20.12
340.92	19.08
341.131	19.31
341.342	19.06
341.553	19.02
341.764	18.93
341.975	19.67
342.185	19.74
342.396	19.25
342.607	19.33
342.818	19.31
343.029	20
343.239	20.06
343.45	20.14
343.661	19.8
343.872	20.4
344.082	20.21
344.293	20.73
344.504	20.4
344.714	19.7
344.925	18.87
345.136	19.15
345.346	17.68
345.557	18.28
345.768	17.64
345.978	18.11
346.189	18.33
346.399	18.07
346.61	17.96
346.821	18.04
347.031	19.41
347.242	19.57
347.452	19.43
347.663	20.28
347.873	20.43
348.084	20.24
348.294	20.99
348.504	20.78
348.715	20.91
348.925	19.95
349.136	19.63
349.346	18.95
349.557	19.44
349.767	19.6
349.977	19.84
350.188	19.63
350.398	20.64
350.608	19.27
350.819	19.54
351.029	19.8
351.239	20.03
351.449	20.12
351.66	20.23
351.87	20.07
352.08	19.13
352.29	18.64
352.501	17.89
352.711	17.13
352.921	17.89
353.131	17.52
353.341	17.19
353.552	17.08
353.762	16.85
353.972	16.74
354.182	16.91
354.392	17
354.602	17.1
354.812	17.28
355.022	17.88
355.232	17.19
355.442	17.25
355.652	17.18
355.862	16.27
356.072	17.04
356.282	16.34
356.492	16.52
356.702	16.19
356.912	16.51
357.122	16.41
357.332	15.78
357.542	15.8
357.752	15.8
357.962	15.93
358.171	16.75
358.381	17.17
358.591	17.84
358.801	17.42
359.011	18.35
359.221	18.15
359.43	17.98
359.64	18.12
359.85	18.57
360.06	18.58
360.269	19.07
360.479	18.54
360.689	17.61
360.899	17.46
361.108	17.57
361.318	17.34
361.528	17.13
361.737	17.47
361.947	16.97
362.156	16.74
362.366	16.51
362.576	16.01
362.785	16.73
362.995	16.88
363.204	16.98
363.414	16.61
363.623	16.1
363.833	16.45
364.042	15.95
364.252	16.86
364.461	16.89
364.671	16.76
364.88	17.31
365.09	17.39
365.299	17.93
365.509	17.23
365.718	16.98
365.927	17
366.137	17.08
366.346	16.76
366.555	16.27
366.765	16.2
366.974	16.42
367.183	16.01
367.393	14.86
367.602	13.93
367.811	14.57
368.021	14.73
368.23	14.94
368.439	14.3
368.648	15.15
368.857	15.28
369.067	15.63
369.276	15.5
369.485	15.81
369.694	16.4
369.903	16.79
370.112	16.56
370.321	16.34
370.531	16.1
370.74	16.13
370.949	15.71
371.158	15.59
371.367	15.67
371.576	15.48
371.785	15.02
371.994	15.24
372.203	15.39
372.412	15.28
372.621	16.04
372.83	16.24
373.039	16.36
373.248	16.03
373.457	15.88
373.666	15.26
373.874	15.28
374.083	15.73
374.292	15.08
374.501	14.52
374.71	14.15
374.919	13.96
375.128	13.76
375.336	13.87
375.545	14.32
375.754	14.09
375.963	14.11
376.171	14.34
376.38	14.2
376.589	14.77
376.798	14.39
377.006	14.96
377.215	14.94
377.424	15.12
377.632	14.79
377.841	14.6
378.05	14.81
378.258	14.7
378.467	14.43
378.675	14.24
378.884	14.12
379.093	14.32
379.301	13.63
379.51	13.66
379.718	13.25
379.927	13.52
380.135	13.04
380.344	12.93
380.552	12.76
380.761	13.05
380.969	12.8
381.177	12.59
381.386	12.26
381.594	12.51
381.803	12.18
382.011	12.42
382.219	12.07
382.428	11.77
382.636	11.6
382.845	12.27
383.053	11.84
383.261	12.18
383.469	12.18
383.678	12.79
383.886	12.83
384.094	12.53
384.302	12.4
384.511	12.64
384.719	12.95
384.927	12.9
385.135	12.74
385.343	13.04
385.552	12.58
385.76	12.45
385.968	12.63
386.176	12.5
386.384	12.69
386.592	12.55
386.8	12.24
387.008	12.42
387.216	12.86
387.424	12.69
387.633	12.49
387.841	12.26
388.049	12.25
388.257	11.57
388.465	11.47
388.672	11.12
388.88	11.17
389.088	11.13
389.296	11.28
389.504	11.11
389.712	11.06
389.92	11.04
390.128	10.95
390.336	10.84
390.544	11.33
390.751	11.16
390.959	11.34
391.167	11.28
391.375	11.43
391.583	11.03
391.79	10.72
391.998	10.57
392.206	10.56
392.414	10.73
392.621	10.8
392.829	10.7
393.037	10.73
393.244	10.53
393.452	10.76
393.66	10.89
393.867	11.09
394.075	10.77
394.283	10.9
394.49	10.78
394.698	11
394.905	10.92
395.113	10.76
395.32	10.86
395.528	11.02
395.735	10.71
395.943	10.56
396.15	10.24
396.358	10.79
396.565	10.8
396.773	10.83
396.98	10.8
397.188	10.86
397.395	10.85
397.602	10.82
397.81	10.87
398.017	11.13
398.225	11.09
398.432	11.43
398.639	11.22
398.847	11.5
399.054	11.32
399.261	11.2
399.468	11.19
399.676	11.06
399.883	11.15
400.09	11.05
400.297	11.12
400.505	11.19
400.712	10.89
400.919	11.02
401.126	10.73
401.333	10.79
401.54	10.6
401.748	10.56
401.955	10.55
402.162	10.42
402.369	10.59
402.576	10.4
402.783	10.22
402.99	10.37
403.197	9.97
403.404	9.71
403.611	9.67
403.818	9.83
404.025	9.59
404.232	9.62
404.439	9.59
404.646	9.37
404.853	9.15
405.06	9.17
405.267	9.13
405.474	9.38
405.681	9.29
405.887	9.41
406.094	9.22
406.301	9.46
406.508	9.37
406.715	9.46
406.922	9.59
407.128	9.62
407.335	9.72
407.542	9.74
407.749	9.75
407.955	10.07
408.162	9.68
408.369	9.92
408.575	9.6
408.782	9.57
408.989	9.24
409.195	9.33
409.402	9.55
409.609	9.48
409.815	9.43
410.022	9.72
410.228	9.54
410.435	10
410.642	9.59
410.848	9.9
411.055	9.79
411.261	10.12
411.468	10.22
411.674	9.96
411.881	9.96
412.087	10.27
412.294	9.79
412.5	9.71
412.706	9.59
412.913	9.83
413.119	9.57
413.326	9.79
413.532	9.69
413.738	9.33
413.945	9.42
414.151	9.23
414.357	8.91
414.564	9.08
414.77	8.99
414.976	8.66
415.182	8.81
415.389	8.83
415.595	8.64
415.801	8.62
416.007	8.9
416.214	9.09
416.42	9.05
416.626	8.89
416.832	8.81
417.038	8.79
417.244	9.11
417.45	8.75
417.657	9.08
417.863	9.39
418.069	9.58
418.275	9.38
418.481	9.25
418.687	9.27
418.893	9.42
419.099	9.33
419.305	9.51
419.511	9.36
419.717	9.46
419.923	9.28
420.129	9.06
420.335	8.82
420.541	8.85
420.746	8.88
420.952	8.87
421.158	8.77
421.364	8.73
421.57	8.76
421.776	8.81
421.982	8.62
422.187	8.45
422.393	8.42
422.599	8.43
422.805	8.41
423.01	8.35
423.216	8.29
423.422	8.24
423.628	8.33
423.833	8.18
424.039	8.27
424.245	8.5
424.45	8.64
424.656	8.76
424.862	8.81
425.067	8.84
425.273	8.91
425.478	9.04
425.684	9.09
425.889	9.19
426.095	9.37
426.301	9.28
426.506	9.28
426.712	9.42
426.917	9.32
427.123	9.32
427.328	9.24
427.533	9.16
427.739	9.17
427.944	9.07
428.15	8.86
428.355	8.74
428.561	8.72
428.766	8.56
428.971	8.3
429.177	8.46
429.382	8.62
429.587	8.7
429.793	8.68
429.998	8.74
430.203	8.94
430.408	9.16
430.614	8.98
430.819	8.8
431.024	9.15
431.229	9.19
431.434	9.13
431.64	8.99
431.845	9.07
432.05	9.2
432.255	8.96
432.46	8.76
432.665	8.51
432.87	8.74
433.076	8.83
433.281	8.88
433.486	8.88
433.691	8.66
433.896	8.6
434.101	8.64
434.306	8.56
434.511	8.6
434.716	8.76
434.921	8.85
435.126	8.67
435.331	8.49
435.535	8.24
435.74	8.09
435.945	8.42
436.15	8.47
436.355	8.29
436.56	8.29
436.765	8.31
436.97	8.19
437.174	8.18
437.379	8.38
437.584	8.61
437.789	8.58
437.993	8.69
438.198	8.55
438.403	8.63
438.608	8.74
438.812	8.69
439.017	8.75
439.222	8.73
439.426	8.78
439.631	8.72
439.836	8.56
440.04	8.7
440.245	8.7
440.45	8.58
440.654	8.49
440.859	8.33
441.063	8.23
441.268	8.14
441.472	8.23
441.677	8.19
441.881	7.92
442.086	8
442.29	7.8
442.495	7.79
442.699	7.98
442.904	7.99
443.108	8.09
443.312	8.16
443.517	8.15
443.721	7.99
443.925	8.03
444.13	8.25
444.334	8.3
444.538	8.33
444.743	8.27
444.947	8.15
445.151	8.05
445.356	8
445.56	8.13
445.764	8.16
445.968	8.24
446.173	8.28
446.377	8.34
446.581	8.24
446.785	8.29
446.989	8.34
447.193	8.33
447.398	8.37
447.602	8.26
447.806	8.24
448.01	8.34
448.214	8.41
448.418	8.37
448.622	8.38
448.826	8.55
449.03	8.55
449.234	8.66
449.438	8.65
449.642	8.71
449.846	8.94
450.05	8.96
450.254	8.78
450.458	8.84
450.662	8.62
450.866	8.57
451.069	8.46
451.273	8.48
451.477	8.23
451.681	8.14
451.885	7.97
452.089	7.98
452.292	7.87
452.496	7.97
452.7	7.78
452.904	7.98
453.107	7.9
453.311	7.83
453.515	7.66
453.719	7.73
453.922	7.89
454.126	8.03
454.33	7.95
454.533	7.84
454.737	7.82
454.94	7.82
455.144	7.79
455.348	7.83
455.551	7.82
455.755	7.89
455.958	8.09
456.162	8
456.365	8.06
456.569	8.05
456.772	8.24
456.976	8.37
457.179	8.53
457.383	8.46
457.586	8.46
457.79	8.48
457.993	8.53
458.196	8.29
458.4	8.29
458.603	8.06
458.807	8.16
459.01	8.25
459.213	8.04
459.417	7.88
459.62	7.99
459.823	7.94
460.026	7.93
460.23	7.96
460.433	7.99
460.636	8.05
460.839	8.21
461.042	8.17
461.246	8.15
461.449	8.1
461.652	8.21
461.855	8.07
462.058	8.18
462.261	8.1
462.464	7.94
462.668	8.08
462.871	8.02
463.074	8.11
463.277	7.92
463.48	7.99
463.683	8.14
463.886	8.29
464.089	8.33
464.292	8.35
464.495	8.61
464.698	8.74
464.901	8.66
465.104	8.71
465.306	8.65
465.509	8.73
465.712	8.66
465.915	8.7
466.118	8.6
466.321	8.51
466.524	8.58
466.726	8.6
466.929	8.57
467.132	8.62
467.335	8.52
467.538	8.31
467.74	8.22
467.943	8.28
468.146	8.44
468.348	8.44
468.551	8.64
468.754	8.48
468.956	8.27
469.159	8.28
469.362	8.34
469.564	8.28
469.767	8.44
469.969	8.5
470.172	8.32
470.375	8.21
470.577	8.16
470.78	8.05
470.982	7.97
471.185	7.97
471.387	8.09
471.59	7.88
471.792	8.05
471.995	8.08
472.197	8.15
472.399	8.05
472.602	7.9
472.804	7.89
473.007	7.87
473.209	7.85
473.411	7.86
473.614	7.79
473.816	7.86
474.018	7.89
474.22	7.91
474.423	7.97
474.625	8.07
474.827	8.16
475.03	8.26
475.232	8.38
475.434	8.56
475.636	8.71
475.838	8.62
476.04	8.65
476.243	8.43
476.445	8.38
476.647	8.22
476.849	8.14
477.051	8.11
477.253	8.08
477.455	8
477.657	7.82
477.859	7.8
478.061	7.8
478.263	7.62
478.465	7.67
478.667	7.62
478.869	7.7
479.071	7.71
479.273	7.72
479.475	7.72
479.677	7.76
479.879	7.73
480.081	7.8
480.283	7.79
480.485	7.83
480.686	7.91
480.888	8.01
481.09	7.97
481.292	7.97
481.494	7.99
481.695	7.92
481.897	7.76
482.099	7.79
482.301	7.68
482.502	7.59
482.704	7.63
482.906	7.6
483.107	7.55
483.309	7.5
483.511	7.57
483.712	7.53
483.914	7.46
484.115	7.51
484.317	7.51
484.519	7.51
484.72	7.55
484.922	7.52
485.123	7.57
485.325	7.54
485.526	7.59
485.728	7.53
485.929	7.55
486.131	7.64
486.332	7.65
486.534	7.62
486.735	7.67
486.936	7.63
487.138	7.66
487.339	7.57
487.541	7.63
487.742	7.56
487.943	7.58
488.144	7.58
488.346	7.49
488.547	7.47
488.748	7.51
488.95	7.43
489.151	7.47
489.352	7.44
489.553	7.42
489.755	7.36
489.956	7.37
490.157	7.35
490.358	7.33
490.559	7.48
490.76	7.48
490.961	7.35
491.163	7.4
491.364	7.47
491.565	7.45
491.766	7.46
491.967	7.56
492.168	7.55
492.369	7.58
492.57	7.59
492.771	7.55
492.972	7.57
493.173	7.68
493.374	7.64
493.575	7.65
493.776	7.69
493.976	7.69
494.177	7.68
494.378	7.79
494.579	7.75
494.78	7.82
494.981	7.88
495.182	7.89
495.382	7.89
495.583	7.9
495.784	7.78
495.985	7.89
496.185	7.97
496.386	7.83
496.587	7.87
496.788	7.85
496.988	7.85
497.189	7.76
497.39	7.84
497.59	7.84
497.791	7.87
497.992	7.86
498.192	7.82
498.393	7.82
498.593	7.98
498.794	7.9
498.994	8
499.195	8.03
499.395	8.11
499.596	8.16
499.796	8.16
499.997	8.22
500.197	8.29
500.398	8.32
500.598	8.44
500.799	8.46
500.999	8.4
501.199	8.34
501.4	8.33
501.6	8.34
501.801	8.36
502.001	8.49
502.201	8.54
502.402	8.67
502.602	8.71
502.802	8.52
503.002	8.52
503.203	8.74
503.403	8.7
503.603	8.72
503.803	8.66
504.003	8.56
504.204	8.57
504.404	8.55
504.604	8.48
504.804	8.57
505.004	8.72
505.204	8.8
505.404	8.74
505.604	8.95
505.804	8.78
506.005	8.69
506.205	8.65
506.405	8.64
506.605	8.67
506.805	8.74
507.005	8.69
507.204	8.63
507.404	8.55
507.604	8.49
507.804	8.34
508.004	8.45
508.204	8.59
508.404	8.66
508.604	8.65
508.804	8.61
509.003	8.6
509.203	8.62
509.403	8.63
509.603	8.67
509.803	8.86
510.002	8.96
510.202	8.89
510.402	8.82
510.602	8.96
510.801	8.96
511.001	8.96
511.201	8.91
511.4	8.87
511.6	8.81
511.8	8.81
511.999	8.87
512.199	8.82
512.398	8.98
512.598	9.12
512.797	9.06
512.997	9.19
513.197	9.2
513.396	9.23
513.596	9.32
513.795	9.52
513.994	9.58
514.194	9.5
514.393	9.55
514.593	9.58
514.792	9.59
514.992	9.63
515.191	9.56
515.39	9.63
515.59	9.7
515.789	9.6
515.988	9.61
516.188	9.6
516.387	9.51
516.586	9.42
516.786	9.34
516.985	9.38
517.184	9.39
517.383	9.5
517.582	9.53
517.782	9.56
517.981	9.6
518.18	9.57
518.379	9.57
518.578	9.54
518.777	9.71
518.976	9.69
519.176	9.7
519.375	9.72
519.574	9.66
519.773	9.61
519.972	9.57
520.171	9.61
520.37	9.56
520.569	9.58
520.768	9.65
520.967	9.67
521.166	9.77
521.365	9.79
521.564	9.81
521.762	9.96
521.961	10.13
522.16	10.2
522.359	10.15
522.558	10.22
522.757	10.28
522.956	10.31
523.154	10.1
523.353	10.17
523.552	10.17
523.751	10.12
523.949	10.02
524.148	10.02
524.347	10.13
524.546	10.18
524.744	10.18
524.943	10.19
525.142	10.24
525.34	10.47
525.539	10.49
525.737	10.59
525.936	10.6
526.135	10.56
526.333	10.41
526.532	10.37
526.73	10.47
526.929	10.49
527.127	10.48
527.326	10.43
527.524	10.34
527.723	10.33
527.921	10.27
528.12	10.26
528.318	10.32
528.516	10.41
528.715	10.37
528.913	10.31
529.112	10.31
529.31	10.29
529.508	10.28
529.707	10.29
529.905	10.28
530.103	10.29
530.301	10.31
530.5	10.27
530.698	10.24
530.896	10.31
531.094	10.4
531.293	10.48
531.491	10.57
531.689	10.69
531.887	10.78
532.085	10.86
532.283	10.88
532.481	10.94
532.68	10.97
532.878	11.03
533.076	11.01
533.274	10.93
533.472	10.93
533.67	10.91
533.868	10.85
534.066	10.8
534.264	10.72
534.462	10.73
534.66	10.69
534.858	10.72
535.056	10.66
535.253	10.67
535.451	10.8
535.649	10.89
535.847	11.03
536.045	11.07
536.243	11.2
536.441	11.38
536.638	11.41
536.836	11.55
537.034	11.52
537.232	11.61
537.43	11.64
537.627	11.66
537.825	11.52
538.023	11.41
538.22	11.58
538.418	11.52
538.616	11.51
538.813	11.65
539.011	11.71
539.209	11.74
539.406	11.79
539.604	12.05
539.801	12.11
539.999	12.21
540.196	12.31
540.394	12.35
540.591	12.41
540.789	12.32
540.986	12.18
541.184	12.12
541.381	12.18
541.579	12.2
541.776	12.09
541.974	12.02
542.171	12.01
542.368	11.99
542.566	11.89
542.763	11.9
542.96	11.89
543.158	12.03
543.355	12.09
543.552	12.16
543.75	12.2
543.947	12.14
544.144	12.16
544.341	12.29
544.539	12.4
544.736	12.56
544.933	12.52
545.13	12.6
545.327	12.55
545.524	12.48
545.722	12.48
545.919	12.41
546.116	12.55
546.313	12.68
546.51	12.66
546.707	12.57
546.904	12.59
547.101	12.65
547.298	12.84
547.495	12.88
547.692	12.9
547.889	12.88
548.086	13
548.283	13.09
548.48	13.27
548.677	13.31
548.874	13.46
549.07	13.51
549.267	13.65
549.464	13.6
549.661	13.69
549.858	13.88
550.055	14.08
550.251	14.17
550.448	14.17
550.645	14.07
550.842	14.14
551.038	14.2
551.235	13.99
551.432	13.89
551.628	13.86
551.825	13.95
552.022	14.03
552.218	14.07
552.415	14.15
552.612	14.18
552.808	14.12
553.005	14.04
553.201	14.02
553.398	14.37
553.594	14.56
553.791	14.72
553.987	14.9
554.184	14.97
554.38	14.89
554.577	14.87
554.773	14.97
554.97	15.12
555.166	15.33
555.362	15.45
555.559	15.35
555.755	15.28
555.952	15.39
556.148	15.29
556.344	15.18
556.541	15.33
556.737	15.36
556.933	15.38
557.129	15.13
557.326	15.07
557.522	15.22
557.718	15.47
557.914	15.33
558.11	15.2
558.307	15.22
558.503	15.43
558.699	15.53
558.895	15.69
559.091	15.67
559.287	16.01
559.483	16.21
559.679	16.18
559.876	16.05
560.072	16.44
560.268	16.54
560.464	16.63
560.66	16.56
560.856	16.61
561.052	16.6
561.247	16.94
561.443	16.94
561.639	16.78
561.835	17.01
562.031	17.09
562.227	17.06
562.423	17.09
562.619	17.25
562.815	17.44
563.01	17.66
563.206	17.78
563.402	17.69
563.598	17.88
563.793	18.01
563.989	17.75
564.185	17.87
564.381	18.13
564.576	18.14
564.772	18.1
564.968	18.1
565.163	17.86
565.359	17.57
565.555	17.62
565.75	17.53
565.946	17.61
566.141	17.63
566.337	17.61
566.532	17.43
566.728	17.58
566.923	17.43
567.119	17.29
567.314	17.32
567.51	17.53
567.705	17.53
567.901	17.47
568.096	17.55
568.292	17.61
568.487	17.66
568.682	17.7
568.878	17.71
569.073	18.05
569.268	18.26
569.464	18.51
569.659	18.69
569.854	18.71
570.05	18.91
570.245	18.85
570.44	19.05
570.635	19.17
570.831	19.16
571.026	19.24
571.221	18.96
571.416	18.92
571.611	18.81
571.806	18.86
572.002	18.97
572.197	19.06
572.392	19.14
572.587	19.12
572.782	19.08
572.977	19.15
573.172	19.08
573.367	19.32
573.562	19.44
573.757	19.44
573.952	19.51
574.147	19.66
574.342	19.85
574.537	19.91
574.732	20.02
574.927	20.02
575.121	20.14
575.316	20.25
575.511	20.24
575.706	20.15
575.901	20.24
576.096	20.35
576.29	20.26
576.485	20.19
576.68	20.45
576.875	20.41
577.069	20.49
577.264	20.61
577.459	20.95
577.654	21.13
577.848	21.39
578.043	21.79
578.238	21.53
578.432	21.36
578.627	21.25
578.821	21.22
579.016	21.26
579.21	21.57
579.405	21.56
579.6	21.46
579.794	21.49
579.989	21.48
580.183	21.36
580.378	21.63
580.572	21.88
580.766	22.03
580.961	21.85
581.155	22.17
581.35	22.05
581.544	21.98
581.738	21.91
581.933	22
582.127	22.23
582.321	22.12
582.516	22.07
582.71	22.28
582.904	22.23
583.099	22.21
583.293	22.15
583.487	22.29
583.681	22.46
583.875	22.41
584.07	22.47
584.264	22.39
584.458	22.39
584.652	22.45
584.846	22.42
585.04	22.65
585.234	22.77
585.428	22.59
585.623	22.55
585.817	22.25
586.011	22.32
586.205	22.43
586.399	22.47
586.593	22.52
586.787	22.64
586.981	22.61
587.174	22.64
587.368	22.64
587.562	22.86
587.756	22.99
587.95	23.36
588.144	23.35
588.338	23.22
588.532	23.49
588.725	23.7
588.919	23.84
589.113	23.9
589.307	23.89
589.501	23.86
589.694	23.87
589.888	23.85
590.082	23.78
590.275	23.93
590.469	23.94
590.663	23.37
590.856	23.33
591.05	23.29
591.244	23.07
591.437	23.03
591.631	23.25
591.824	23.2
592.018	23.23
592.212	23.34
592.405	23.22
592.599	23.23
592.792	23.59
592.986	23.82
593.179	23.91
593.372	24.12
593.566	24.36
593.759	24.46
593.953	24.5
594.146	24.18
594.339	24.2
594.533	24.37
594.726	24.47
594.92	24.31
595.113	24.25
595.306	24.17
595.499	24.09
595.693	23.99
595.886	23.88
596.079	24.07
596.272	24.31
596.466	24.35
596.659	24.41
596.852	24.56
597.045	24.64
597.238	24.54
597.431	24.69
597.624	24.83
597.818	24.77
598.011	24.76
598.204	24.62
598.397	24.64
598.59	24.41
598.783	24.42
598.976	24.4
599.169	24.39
599.362	24.42
599.555	24.6
599.748	24.79
599.941	24.84
600.134	25.07
600.326	25.24
600.519	25.4
600.712	25.58
600.905	25.48
601.098	25.53
601.291	25.89
601.483	25.94
601.676	25.84
601.869	25.77
602.062	26.01
602.255	25.94
602.447	25.93
602.64	25.84
602.833	26.18
603.025	26.06
603.218	25.92
603.411	25.77
603.603	25.66
603.796	25.55
603.989	25.62
604.181	25.54
604.374	25.57
604.566	25.53
604.759	25.6
604.951	25.43
605.144	25.54
605.336	25.59
605.529	25.62
605.721	25.74
605.914	25.6
606.106	25.63
606.299	25.67
606.491	25.79
606.683	25.82
606.876	25.62
607.068	25.8
607.26	25.94
607.453	26.14
607.645	26.24
607.837	26.11
608.03	26.46
608.222	26.24
608.414	26.24
608.606	26.1
608.799	26.31
608.991	26.31
609.183	26.29
609.375	26.25
609.567	26.01
609.759	26.22
609.952	26.4
610.144	26.37
610.336	26.6
610.528	26.61
610.72	26.71
610.912	26.65
611.104	27.02
611.296	26.96
611.488	26.98
611.68	27.31
611.872	26.85
612.064	26.98
612.256	27.14
612.448	27.25
612.64	27.1
612.832	27.15
613.023	27.19
613.215	27.18
613.407	27.22
613.599	27.47
613.791	27.5
613.983	27.77
614.174	27.62
614.366	27.55
614.558	27.44
614.75	27.48
614.941	27.36
615.133	27.62
615.325	27.76
615.516	27.78
615.708	27.49
615.9	27.39
616.091	27.34
616.283	27.66
616.475	27.46
616.666	27.42
616.858	28.02
617.049	28.1
617.241	27.93
617.432	27.71
617.624	27.84
617.815	27.93
618.007	27.92
618.198	28.34
618.39	28.17
618.581	28.11
618.773	28.46
618.964	28.04
619.155	28.15
619.347	28.14
619.538	28.3
619.729	28.29
619.921	28.41
620.112	28.46
620.303	28.31
620.494	28.21
620.686	28.54
620.877	28.15
621.068	28.22
621.259	28.37
621.451	28.39
621.642	28.22
621.833	28.25
622.024	28.32
622.215	28.56
622.406	28.65
622.597	28.74
622.788	28.68
622.98	28.93
623.171	29.01
623.362	29.02
623.553	29.07
623.744	29.05
623.935	29.18
624.126	29.16
624.317	28.97
624.508	28.74
624.698	28.93
624.889	29.05
625.08	29.17
625.271	29.36
625.462	29.17
625.653	28.95
625.844	29.06
626.034	28.78
626.225	28.77
626.416	28.58
626.607	28.72
626.798	28.76
626.988	28.59
627.179	28.52
627.37	28.17
627.56	28.36
627.751	28.61
627.942	28.58
628.132	28.67
628.323	28.67
628.514	28.94
628.704	29.01
628.895	28.87
629.085	29.11
629.276	29.17
629.466	29.32
629.657	29.2
629.847	29.15
630.038	29.37
630.228	29.59
630.419	29.7
630.609	29.75
630.8	29.81
630.99	29.92
631.181	29.8
631.371	29.67
631.561	29.96
631.752	30.05
631.942	30.06
632.132	30.09
632.323	30.15
632.513	30.27
632.703	30.35
632.893	30.29
633.084	30.32
633.274	30.38
633.464	30.26
633.654	30.27
633.844	30.17
634.034	30.16
634.225	29.91
634.415	29.64
634.605	29.74
634.795	29.46
634.985	29.6
635.175	29.65
635.365	29.68
635.555	30.12
635.745	29.99
635.935	30.2
636.125	30.04
636.315	30.26
636.505	30.51
636.695	30.3
636.885	30.4
637.075	30.18
637.265	30.25
637.455	30.12
637.644	29.96
637.834	30.3
638.024	30.26
638.214	30.48
638.404	30.73
638.593	30.81
638.783	30.92
638.973	31.28
639.163	31.32
639.352	31.32
639.542	31.55
639.732	31.53
639.921	31.57
640.111	31.64
640.301	31.63
640.49	31.32
640.68	31.25
640.87	31.44
641.059	31.33
641.249	31.61
641.438	31.69
641.628	31.38
641.817	31.44
642.007	31.11
642.196	30.86
642.386	31.1
642.575	31.59
642.764	31.34
642.954	31.1
643.143	31.18
643.333	31.49
643.522	31.57
643.711	32.08
643.901	32.1
644.09	32.51
644.279	33.07
644.469	32.8
644.658	32.7
644.847	33.39
645.036	33.41
645.226	33.26
645.415	32.69
645.604	32.56
645.793	32.32
645.982	32.08
646.171	31.53
646.361	31.67
646.55	32.29
646.739	32.16
646.928	31.89
647.117	31.95
647.306	31.96
647.495	32.17
647.684	32.22
647.873	32.47
648.062	32.82
648.251	33.22
648.44	33.11
648.629	32.72
648.818	32.72
649.007	32.73
649.196	32.72
649.384	32.99
649.573	32.82
649.762	32.62
649.951	32.34
650.14	32.3
650.328	32.52
650.517	32.44
650.706	32.29
650.895	32.26
651.083	32.07
651.272	31.82
651.461	31.83
651.65	32.14
651.838	32.37
652.027	32.76
652.216	32.4
652.404	32.26
652.593	32.04
652.781	32.05
652.97	32.52
653.158	32.45
653.347	32.92
653.535	32.76
653.724	32.31
653.912	32.42
654.101	32.09
654.289	32.43
654.478	32.62
654.666	33.06
654.855	33.24
655.043	32.51
655.231	32.51
655.42	32.45
655.608	32.76
655.796	32.89
655.985	32.72
656.173	33.05
656.361	33.27
656.55	32.72
656.738	32.69
656.926	33.19
657.114	33.53
657.302	33.79
657.491	33.4
657.679	32.85
657.867	32.95
658.055	33.1
658.243	32.83
658.431	32.84
658.619	33.25
658.807	33.03
658.996	32.75
659.184	32.58
659.372	32.51
659.56	32.89
659.748	33.05
659.936	33.05
660.124	32.92
660.311	32.98
660.499	33.12
660.687	32.74
660.875	33.02
661.063	33.06
661.251	33.33
661.439	33.68
661.627	33.71
661.814	34.11
662.002	34.31
662.19	34.53
662.378	34.72
662.565	34.55
662.753	35.34
662.941	35.2
663.129	35.25
663.316	35.56
663.504	35.42
663.692	35.45
663.879	35.06
664.067	35.02
664.254	34.82
664.442	34.5
664.63	34.54
664.817	34.38
665.005	34.46
665.192	34.49
665.38	34.48
665.567	34.63
665.755	34.9
665.942	35.02
666.13	35.3
666.317	35.55
666.504	35.94
666.692	36.34
666.879	35.94
667.067	35.51
667.254	35.51
667.441	34.9
667.629	34.74
667.816	34.65
668.003	34.43
668.19	34.29
668.378	34.44
668.565	34.25
668.752	33.71
668.939	34.04
669.127	34.21
669.314	34.09
669.501	34.3
669.688	34.56
669.875	34.47
670.062	34.86
670.249	34.98
670.436	34.65
670.623	35.12
670.81	35.09
670.997	34.78
671.184	34.58
671.371	34.9
671.558	35.19
671.745	35.23
671.932	35.15
672.119	35.05
672.306	35.02
672.493	35.4
672.68	35.21
672.867	36.06
673.054	36.14
673.24	36.49
673.427	36.82
673.614	36.93
673.801	37.11
673.988	37.38
674.174	37.5
674.361	37.46
674.548	36.95
674.734	37.09
674.921	36.63
675.108	37.12
675.294	36.78
675.481	36.59
675.668	36.45
675.854	35.87
676.041	35.55
676.227	35.64
676.414	36.09
676.601	36.51
676.787	36.72
676.974	36.85
677.16	36.51
677.347	36.76
677.533	36.66
677.719	36.62
677.906	36.62
678.092	36.77
678.279	36.64
678.465	35.7
678.651	35.46
678.838	35.05
679.024	34.61
679.21	34.62
679.397	35.07
679.583	35.18
679.769	35.05
679.955	34.76
680.142	34.82
680.328	35.29
680.514	35.47
680.7	35.15
680.886	35.72
681.073	35.86
681.259	36.02
681.445	36.03
681.631	35.38
681.817	35.36
682.003	35.6
682.189	35.48
682.375	34.96
682.561	35.26
682.747	36.18
682.933	36.01
683.119	35.92
683.305	35.92
683.491	35.48
683.677	36.06
683.863	36.56
684.049	37.36
684.235	37.14
684.42	37.17
684.606	37.13
684.792	37.07
684.978	36.83
685.164	37.26
685.349	37.2
685.535	37.65
685.721	37.25
685.907	36.57
686.092	36.13
686.278	36.4
686.464	36.58
686.649	36.58
686.835	36.39
687.021	36.44
687.206	36.19
687.392	35.96
687.577	35.76
687.763	36.03
687.948	36.01
688.134	35.99
688.319	35.99
688.505	36.26
688.69	36.36
688.876	36.3
689.061	36.55
689.247	36.68
689.432	36.79
689.618	37.08
689.803	37.17
689.988	37.61
690.174	37.74
690.359	38.01
690.544	37.73
690.73	38.33
690.915	38.24
691.1	38.13
691.285	38.29
691.471	38.63
691.656	38.05
691.841	37.78
692.026	37.8
692.211	37.92
692.396	38.1
692.582	38.17
692.767	38.07
692.952	38.44
693.137	38.04
693.322	37.93
693.507	37.77
693.692	38.44
693.877	38.72
694.062	39.06
694.247	38.99
694.432	39.07
694.617	39.35
694.802	38.86
694.987	38.47
695.172	38.69
695.357	38.98
695.541	39.05
695.726	38.94
695.911	39.26
696.096	38.71
696.281	38.54
696.466	38.08
696.65	37.56
696.835	37.99
697.02	38.17
697.204	38.46
697.389	38.19
697.574	38
697.759	38.05
697.943	37.9
698.128	38.14
698.312	37.93
698.497	37.56
698.682	37.54
698.866	37.35
699.051	37.2
699.235	37
699.42	37.29
699.604	37.45
699.789	37.28
699.973	37.11
700.158	37.13
700.342	37.26
700.527	37.89
700.711	38.32
700.895	38.18
701.08	38.44
701.264	38.47
701.448	38.33
701.633	38.6
701.817	38.75
702.001	39.11
702.186	38.83
702.37	39.36
702.554	39.12
702.738	39.57
702.923	39.55
703.107	39.72
703.291	40.47
703.475	40.24
703.659	39.83
703.843	40.03
704.027	40.14
704.212	39.96
704.396	39.51
704.58	39.82
704.764	39.28
704.948	39.53
705.132	39.03
705.316	38.36
705.5	38.57
705.684	38.99
705.868	39.16
706.052	38.59
706.235	38.78
706.419	39.36
706.603	39.08
706.787	39.07
706.971	39.48
707.155	39.96
707.339	40.33
707.522	40.27
707.706	39.64
707.89	39.59
708.074	40.21
708.257	40.51
708.441	40.45
708.625	40.83
708.808	40.92
708.992	41.43
709.176	41.29
709.359	41.03
709.543	41.18
709.727	41.76
709.91	41.76
710.094	41.21
710.277	41.86
710.461	41.42
710.644	41.22
710.828	41.13
711.011	40.31
711.195	40.28
711.378	40.4
711.562	40
711.745	39.47
711.928	39.5
712.112	39.42
712.295	39.12
712.478	39.28
712.662	39.79
712.845	39.62
713.028	39.41
713.212	39.8
713.395	39.57
713.578	40.32
713.761	40.57
713.945	39.99
714.128	40.44
714.311	40.84
714.494	40.96
714.677	40.74
714.86	41.04
715.043	41.83
715.227	41.68
715.41	41.72
715.593	40.87
715.776	40.78
715.959	41.34
716.142	41.35
716.325	40.74
716.508	40.37
716.691	40.33
716.874	40.29
717.057	39.74
717.239	39.4
717.422	39.27
717.605	39.92
717.788	39.9
717.971	40.06
718.154	40.39
718.337	40.62
718.519	41.1
718.702	41.74
718.885	41.68
719.068	41.73
719.25	42.1
719.433	41.89
719.616	41.85
719.798	41.68
719.981	42.03
720.164	42.04
720.346	41.8
720.529	42.29
720.712	41.54
720.894	41.54
721.077	41.35
721.259	41.32
721.442	42.64
721.624	43.17
721.807	43.71
721.989	42.23
722.172	42.55
722.354	42.7
722.537	42.39
722.719	42.69
722.901	43.09
723.084	43.46
723.266	42.91
723.448	42.52
723.631	41.55
723.813	41.11
723.995	41.46
724.178	40.53
724.36	41.16
724.542	41.04
724.724	40.89
724.907	41.4
725.089	41.14
725.271	42.52
725.453	42.08
725.635	42.7
725.817	43.49
725.999	44.71
726.181	45.23
726.364	44.53
726.546	44.35
726.728	44.72
726.91	44.03
727.092	44.58
727.274	43.92
727.456	43.93
727.638	43.87
727.819	43.91
728.001	44.01
728.183	44.29
728.365	43.97
728.547	44.37
728.729	44.29
728.911	44.84
729.093	44.7
729.274	44.03
729.456	44.13
729.638	44.14
729.82	44.22
730.001	43.7
730.183	43.61
730.365	44.01
730.546	43.89
730.728	42.79
730.91	42.2
731.091	42.09
731.273	42.44
731.455	42.47
731.636	42.56
731.818	42.83
731.999	42.49
732.181	42.24
732.362	42.32
732.544	42.51
732.725	43.03
732.907	42.17
733.088	42.61
733.27	42.43
733.451	42.66
733.633	43.63
733.814	43.56
733.995	43.93
734.177	44.32
734.358	43.72
734.539	43.71
734.721	44.19
734.902	44.72
735.083	44.08
735.264	45.03
735.446	44.73
735.627	42.96
735.808	42.23
735.989	42.03
736.17	41.82
736.351	42.14
736.533	41.44
736.714	40.1
736.895	41.15
737.076	41.74
737.257	41.41
737.438	41.01
737.619	41.9
737.8	41.79
737.981	42.1
738.162	42.36
738.343	42.83
738.524	43.08
738.705	43.95
738.886	43.5
739.067	43.31
739.247	43.89
739.428	44.45
739.609	43.83
739.79	44.07
739.971	43.84
740.151	43.25
740.332	43.5
740.513	42.91
740.694	43.66
740.874	43.88
741.055	43.47
741.236	42.72
741.417	42.32
741.597	42.71
741.778	42.63
741.958	42.59
742.139	44.02
742.32	43.9
742.5	45.08
742.681	45.31
742.861	44.51
743.042	45.31
743.222	45.8
743.403	45.94
743.583	45.12
743.764	45.38
743.944	46
744.124	44.95
744.305	44.46
744.485	44.13
744.666	42.63
744.846	43.15
745.026	42.19
745.207	41.3
745.387	41.64
745.567	43.37
745.747	42.74
745.928	41.72
746.108	41.8
746.288	42.15
746.468	42.35
746.648	43.38
746.829	43.66
747.009	44.87
747.189	45.91
747.369	46.44
747.549	45.72
747.729	46.69
747.909	46.81
748.089	47.06
748.269	47.02
748.449	47.48
748.629	47.18
748.809	47.11
748.989	47.09
749.169	47.54
749.349	46.71
749.529	46.64
749.709	46.62
749.889	47.31
750.068	46.28
750.248	46.42
750.428	46.14
750.608	46.72
750.788	46.43
750.967	45.81
751.147	44.64
751.327	44.59
751.507	44.33
751.686	43.22
751.866	43.6
752.046	43.56
752.225	43.83
752.405	43.87
752.585	43.52
752.764	43.31
752.944	43.5
753.123	43.89
753.303	44.2
753.482	44.08
753.662	45.07
753.841	44.42
754.021	45.56
754.2	45.55
754.38	44.99
754.559	44.74
754.739	44.57
754.918	44.34
755.097	44.11
755.277	44.33
755.456	44.98
755.635	45.21
755.815	44.7
755.994	43.73
756.173	43.19
756.352	43.17
756.532	43.5
756.711	43.93
756.89	43.34
757.069	44.13
757.248	43.67
757.427	43.31
757.607	43.05
757.786	43.51
757.965	43.43
758.144	43.48
758.323	44.62
758.502	44.93
758.681	45.39
758.86	45.84
759.039	45.15
759.218	45.44
759.397	45.45
759.576	45.29
759.755	44.73
759.934	45.04
760.113	46.18
760.291	44.75
760.47	44.71
760.649	44.31
760.828	44.33
761.007	44.77
761.186	44.89
761.364	45.61
761.543	45.86
761.722	45.54
761.901	44.81
762.079	43.67
762.258	43.15
762.437	43.24
762.615	42.53
762.794	42.9
762.972	42.54
763.151	42.26
763.33	41.99
763.508	41.37
763.687	41.88
763.865	42.46
764.044	42.14
764.222	42.62
764.401	42.18
764.579	42.27
764.758	41.74
764.936	41.91
765.114	41.43
765.293	41.59
765.471	42
765.65	42.17
765.828	42.38
766.006	43.23
766.184	44.23
766.363	44.38
766.541	44.52
766.719	45.53
766.898	46.02
767.076	47.16
767.254	46.71
767.432	47.16
767.61	47.44
767.788	46.92
767.967	46.24
768.145	45.69
768.323	45.56
768.501	45.55
768.679	45.28
768.857	45.33
769.035	45.57
769.213	46.6
769.391	46.79
769.569	46.69
769.747	47.44
769.925	49.02
770.103	47.76
770.281	48.23
770.459	49.65
770.636	49.56
770.814	48.49
770.992	48.3
771.17	47.14
771.348	46.66
771.525	47.47
771.703	46.86
771.881	45.99
772.059	47.05
772.236	46.91
772.414	45.99
772.592	46.5
772.769	47.32
772.947	46.55
773.125	46.75
773.302	46.1
773.48	45.28
773.657	45.73
773.835	45.42
774.013	47.38
774.19	47.99
774.368	47.11
774.545	46.8
774.723	46.53
774.9	47.61
775.077	47.87
775.255	48.06
775.432	49.11
775.61	49.17
775.787	49.48
775.964	48.19
776.142	47.91
776.319	50.82
776.496	49.7
776.674	48.81
776.851	48.75
777.028	49.19
777.205	50
777.382	49.5
777.56	49.92
777.737	52.28
777.914	51.56
778.091	51.59
778.268	50.75
778.445	52.21
778.622	52.14
778.8	51.04
778.977	51.07
779.154	56.87
779.331	56.66
779.508	56.93
779.685	54.46
779.862	54.04
780.038	53.28
780.215	54.23
780.392	53.8
780.569	54.18
780.746	56.05
780.923	55.44
781.1	49.76
781.277	50.4
781.453	50.01
781.63	49.68
781.807	50.77
781.984	51.94
782.16	51.12
782.337	51.42
782.514	51.27
782.691	53.23
782.867	53.6
783.044	53.34
783.221	53.21
783.397	54.08
783.574	53.91
783.75	55.41
783.927	55.88
784.103	56.45
784.28	57.76
784.456	58.14
784.633	55.74
784.809	55.22
784.986	55.07
785.162	54.35
785.339	53.55
785.515	53.2
785.692	50.34
785.868	49.53
786.044	49.17
786.221	47.21
786.397	46.74
786.573	44.91
786.749	45.76
786.926	46.87
787.102	45.38
787.278	45.37
787.454	48.25
787.631	51.32
787.807	49.82
787.983	48.49
788.159	48.27
788.335	50.25
788.511	52.14
788.687	52.09
788.863	51.62
789.039	53.69
789.216	54.01
789.392	52.87
789.568	51.3
789.744	53.3
789.919	51.13
790.095	50.28
790.271	49.88
790.447	49.08
790.623	48.15
790.799	46.54
790.975	45.17
791.151	45.46
791.327	45.51
791.502	45.4
791.678	44.58
791.854	46.15
792.03	49.46
792.205	49.26
792.381	50.22
792.557	52.16
792.733	55.1
792.908	54.75
793.084	52.68
793.259	53.08
793.435	52.52
793.611	52.46
793.786	53.02
793.962	51.17
794.137	52.29
794.313	50.9
794.488	49.05
794.664	48.92
794.839	50.28
795.015	52.27
795.19	51.53
795.366	53.17
795.541	51.73
795.716	52.34
795.892	52.54
796.067	51.5
796.242	49.31
796.418	49.94
796.593	47.62
796.768	49.05
796.944	48.26
797.119	46.75
797.294	46
797.469	48.21
797.644	48.48
797.82	50.02
797.995	49.6
798.17	52.53
798.345	52.19
798.52	53.43
798.695	52.95
798.87	53.63
799.045	54.5
799.22	58.17
799.395	57.72
799.57	57.09
799.745	54.02
799.92	53.19
800.095	54.43
800.27	54.79
800.445	55.01
800.62	53.76
800.795	54.88
800.97	56.14
801.145	51.61
801.319	51.83
801.494	53.23
801.669	55.49
801.844	57.41
802.018	55.8
802.193	56.53
802.368	55.25
802.543	53.64
802.717	52.11
802.892	51.54
803.067	50.1
803.241	49.41
803.416	50.42
803.59	50.61
803.765	49.75
803.94	51.39
804.114	47.2
804.289	48.62
804.463	49.61
804.638	47.33
804.812	47.89
804.986	47.92
805.161	47.66
805.335	45.88
805.51	44.05
805.684	43.77
805.858	41.02
806.033	42.25
806.207	41.8
806.381	44.02
806.556	46.84
806.73	47.35
806.904	49.15
807.078	48.95
807.253	49.27
807.427	48.73
807.601	48.26
807.775	50.11
807.949	53
808.123	54.6
808.298	55.15
808.472	54.69
808.646	53.47
808.82	53.05
808.994	52.27
809.168	53.08
809.342	56.36
809.516	57.46
809.69	56.04
809.864	54.52
810.038	55.57
810.212	53.5
810.385	53.21
810.559	55.98
810.733	57.28
810.907	57.31
811.081	56.7
811.255	54.33
811.428	50.88
811.602	51.42
811.776	54.18
811.95	53.98
812.123	57.72
812.297	59.21
812.471	57.54
812.644	53.59
812.818	56.88
812.992	53.76
813.165	53.79
813.339	56.73
813.512	55.46
813.686	53.41
813.86	53.58
814.033	48.53
814.207	47.71
814.38	45.23
814.554	51.12
814.727	47.54
814.9	50.2
815.074	51.37
815.247	50.08
815.421	50.65
815.594	51.47
815.767	48.34
815.941	48.89
816.114	49.76
816.287	51.67
816.46	48.53
816.634	50.11
816.807	52.23
816.98	51.07
817.153	54.71
817.327	54.58
817.5	54.95
817.673	58.43
817.846	60.67
818.019	59.86
818.192	59.3
818.365	58.87
818.538	59.57
818.711	54.3
818.884	57.57
819.057	55.81
819.23	54.77
819.403	52.25
819.576	48.16
819.749	46.68
819.922	46.45
820.095	46.41
820.268	46.41
820.441	46.96
820.614	48.57
820.786	46.13
820.959	44.13
821.132	44.51
821.305	44.83
821.477	44.75
821.65	44.13
821.823	43.39
821.996	42.29
822.168	41.75
822.341	41.15
822.514	40.82
822.686	39.91
822.859	39.58
823.031	39.36
823.204	39.37
823.376	39.33
823.549	39.51
823.722	39.28
823.894	39.83
824.067	39.7
824.239	40.11
824.411	40.39
824.584	41.1
824.756	41.94
824.929	42.08
825.101	42.19
825.273	42.45
825.446	42.12
825.618	41.88
825.79	42.07
825.963	42.68
826.135	42.23
826.307	41.44
826.479	41.92
826.652	41.58
826.824	41.75
826.996	41.57
827.168	41.84
827.34	42.2
827.512	42.85
827.684	42.84
827.856	42.73
828.029	42.85
828.201	43.78
828.373	43.19
828.545	44.35
828.717	45.33
828.889	45.37
829.061	45.41
829.232	46.49
829.404	46.72
829.576	45.89
829.748	46.03
829.92	47.09
830.092	48.24
830.264	48.75
830.436	47.78
830.607	48.28
830.779	50.14
830.951	50.77
831.123	49.2
831.294	49.15
831.466	48.62
831.638	49.37
831.809	47.87
831.981	48.79
832.153	49.32
832.324	50.32
832.496	49.63
832.667	47.77
832.839	48.14
833.011	48.77
833.182	48.83
833.354	52.18
833.525	52.87
833.697	53.26
833.868	49.14
834.039	50.37
834.211	49.51
834.382	48.14
834.554	48.23
834.725	46.95
834.896	46.52
835.068	45.94
835.239	43.56
835.41	43.51
835.581	44.26
835.753	45.61
835.924	43.55
836.095	43.47
836.266	42.4
836.438	42.05
836.609	42.72
836.78	43.72
836.951	46.6
837.122	47.15
837.293	47.2
837.464	46.52
837.635	49.85
837.806	53.43
837.977	54.51
838.148	58.31
838.319	59.69
838.49	59.56
838.661	59.65
838.832	58.16
839.003	57.31
839.174	55.85
839.345	56.64
839.516	54.58
839.687	51.38
839.857	51.14
840.028	50.38
840.199	50.86
840.37	50.48
840.54	51.02
840.711	48.34
840.882	52.98
841.053	52.85
841.223	52.14
841.394	49.42
841.564	52.5
841.735	53.47
841.906	53.64
842.076	46.64
842.247	51.54
842.417	51.44
842.588	54.6
842.758	54.89
842.929	54.14
843.099	57.76
843.27	63.48
843.44	62.66
843.611	65.11
843.781	61.08
843.951	66.95
844.122	63.06
844.292	64.75
844.462	64.75
844.633	62.65
844.803	66.53
844.973	62.2
845.144	61.27
845.314	61.05
845.484	53.79
845.654	61.9
845.824	65.67
845.995	74.64
846.165	74.79
846.335	75.57
846.505	77.74
846.675	76.47
846.845	78.02
847.015	73.65
847.185	72.78
847.355	82.61
847.525	81.93
847.695	84.82
847.865	78.79
848.035	72.91
848.205	74.34
848.375	78.21
848.545	67.88
848.715	63.87
848.884	60.64
849.054	64.75
849.224	53.14
849.394	60.33
849.564	61.01
849.733	58.06
849.903	64.3
850.073	67.12
850.243	64.77
850.412	68.58
850.582	74.43
850.752	83.28
850.921	75.12
851.091	79.93
851.26	82.05
851.43	77.95
851.599	75.58
851.769	73.05
851.939	65.86
852.108	64.28
852.278	76.77
852.447	78.26
852.616	80.83
852.786	86.76
852.955	83.46
853.125	81.65
853.294	82.45
853.463	83.2
853.633	88.28
853.802	94.2
853.971	101.72
854.141	95.89
854.31	83.78
854.479	65.66
854.648	69.84
854.818	66.4
854.987	63.16
855.156	71.32
855.325	75.86
855.494	73.77
855.663	73.15
855.832	61.55
856.001	56.88
856.171	61.78
856.34	81.67
856.509	78.76
856.678	83.65
856.847	88.69
857.016	80.81
857.185	82.07
857.353	87.78
857.522	89.78
857.691	98.42
857.86	105.52
858.029	96.91
858.198	100.38
858.367	109.25
858.535	108.4
858.704	106.41
858.873	106.3
859.042	102.16
859.21	100.81
859.379	101.71
859.548	90.67
859.717	95.87
859.885	95.86
860.054	88.92
860.222	74.09
860.391	83.29
860.56	81.53
860.728	84.65
860.897	76.43
861.065	69.28
861.234	70.8
861.402	79.36
861.571	71.37
861.739	79.81
861.908	88.14
862.076	97.01
862.244	96.22
862.413	94.09
862.581	93.87
862.749	96.26
862.918	88.19
863.086	85.6
863.254	85.26
863.423	81.79
863.591	90.68
863.759	79.67
863.927	71.52
864.096	63.44
864.264	63.83
864.432	56.25
864.6	60.97
864.768	59.35
864.936	58.06
865.104	56.07
865.272	68
865.44	67.39
865.608	68.21
865.776	65.53
865.944	70.31
866.112	65.69
866.28	71.49
866.448	68.42
866.616	77.66
866.784	86.27
866.952	95.62
867.12	87.28
867.288	84.56
867.455	84.05
867.623	95.27
867.791	86.98
867.959	86.85
868.127	80.33
868.294	88.29
868.462	74.59
868.63	65.22
868.797	61.43
868.965	68.3
869.133	61.56
869.3	61.81
869.468	56.3
869.636	54.91
869.803	61.09
869.971	78.05
870.138	79.56
870.306	81.25
870.473	83.52
870.641	80.4
870.808	76.26
870.975	81.99
871.143	82.5
871.31	85.83
871.478	94.61
871.645	90.22
871.812	74.3
871.98	70.08
872.147	72.48
872.314	71.39
872.482	64.88
872.649	64.71
872.816	65.98
872.983	59.34
873.15	56.96
873.318	63.05
873.485	67.24
873.652	69.69
873.819	82.78
873.986	102.64
874.153	96.27
874.32	93.65
874.487	100.48
874.654	88.05
874.821	89.98
874.988	86.93
875.155	83.84
875.322	82.86
875.489	90.85
875.656	71.25
875.823	58.17
875.99	55.38
876.157	66.06
876.324	62.87
876.49	75.19
876.657	86.41
876.824	87.28
876.991	90.94
877.157	78.29
877.324	79.92
877.491	84.81
877.658	93.92
877.824	97.13
877.991	87.46
878.157	86.59
878.324	82.48
878.491	78.94
878.657	86.86
878.824	80.98
878.99	82.22
879.157	80.79
879.323	78.82
879.49	70
879.656	71.32
879.823	74.69
879.989	76.58
880.156	79.73
880.322	74.31
880.488	66.2
880.655	66.61
880.821	69.34
880.987	66.5
881.154	62
881.32	60.51
881.486	57.53
881.652	57.71
881.819	51.6
881.985	44.18
882.151	43.81
882.317	43.07
882.483	41.58
882.649	41.85
882.816	40.93
882.982	42
883.148	42.37
883.314	41.19
883.48	43.04
883.646	43.09
883.812	43.45
883.978	43.56
884.144	44.23
884.31	42.37
884.476	44.1
884.642	46.25
884.807	47.18
884.973	47.84
885.139	47.8
885.305	45.92
885.471	46.5
885.637	46
885.802	48.08
885.968	48.15
886.134	51.4
886.3	47.49
886.465	44.75
886.631	44.02
886.797	44.21
886.962	43.95
887.128	44.73
887.293	47.54
887.459	53
887.625	49.01
887.79	53.09
887.956	47.94
888.121	54.08
888.287	57.42
888.452	58.15
888.618	57.53
888.783	65.91
