Data from LC_195_Reflection_1.txt Node
Date: Tue Nov 17 13:46:21 EST 2015
User: robert
Spectrometer: USB4E03001
Autoset integration time: false
Trigger mode: 4
Integration Time (sec): 1.000000E-1
Scans to average: 15
Electric dark correction enabled: true
Nonlinearity correction enabled: false
Boxcar width: 5
Stray light correction enabled: false
XAxis mode: Wavelengths
Stop averaging: false
Number of Pixels in Spectrum: 3648
>>>>>Begin Spectral Data<<<<<
177.566	327.35
177.785	428.1
178.005	-2095.52
178.225	505.42
178.445	-689.6
178.665	-325.57
178.885	1.66
179.105	-483.66
179.324	1222.03
179.544	2202.24
179.764	610.02
179.984	255.23
180.204	335.81
180.423	811.8
180.643	1094.02
180.863	-3887.55
181.083	-5677.55
181.302	1214.91
181.522	537.74
181.742	1473.47
181.961	14312.75
182.181	-701.54
182.401	-156.53
182.621	-439.4
182.84	-322.94
183.06	-872.47
183.279	990.22
183.499	-5156.3
183.719	-488.31
183.938	-178.2
184.158	-248.01
184.377	-327.35
184.597	-258.14
184.816	275.7
185.036	256.26
185.256	387.68
185.475	245.5
185.695	335.86
185.914	248.99
186.134	263.45
186.353	167.72
186.572	203.6
186.792	192.46
187.011	221.64
187.231	810.03
187.45	3045.35
187.67	503.01
187.889	602.24
188.108	410.19
188.328	393.5
188.547	416.61
188.766	-1659.08
188.986	1569.54
189.205	448.06
189.424	522.68
189.644	369.65
189.863	230.6
190.082	233.98
190.302	280.62
190.521	434.58
190.74	8745.45
190.959	1237.82
191.178	394.07
191.398	332.42
191.617	934.5
191.836	617.65
192.055	473.73
192.274	-1368.96
192.494	-828.06
192.713	-2482.83
192.932	-1089.94
193.151	2172.03
193.37	32871.43
193.589	-1025050
193.808	29637.08
194.027	-3929.32
194.246	-1835.8
194.465	7455.25
194.685	813.2
194.904	616.1
195.123	98854.17
195.342	2398.36
195.561	632.44
195.78	529.3
195.999	658.06
196.218	391.74
196.436	333.67
196.655	223.27
196.874	277.69
197.093	296.64
197.312	237.19
197.531	217.02
197.75	204
197.969	259.13
198.188	246.08
198.407	239.61
198.625	285.72
198.844	261.74
199.063	231.67
199.282	230.28
199.501	202.83
199.719	298.43
199.938	257.06
200.157	324.54
200.376	864.05
200.594	505.81
200.813	328.56
201.032	460.44
201.251	515.5
201.469	7618.89
201.688	2458.27
201.907	-11441.1
202.125	3468.46
202.344	3400.37
202.563	3021.86
202.781	2015.79
203	-2181.04
203.218	-432.83
203.437	-601.31
203.656	-327.08
203.874	-786.86
204.093	-968.51
204.311	-732.55
204.53	15925
204.748	-616.32
204.967	2255.63
205.185	408.08
205.404	235.77
205.622	229.85
205.841	178.41
206.059	224.35
206.278	180.21
206.496	193.8
206.715	219.5
206.933	260.58
207.151	216.77
207.37	215.6
207.588	247.39
207.806	327.08
208.025	322.5
208.243	324.51
208.461	351.93
208.68	522
208.898	-774.53
209.116	-1244.41
209.335	2576.83
209.553	-1904.06
209.771	842.05
209.989	288.39
210.208	339.34
210.426	244.75
210.644	280.77
210.862	208.86
211.081	163.8
211.299	125.53
211.517	157.34
211.735	152.61
211.953	149.93
212.171	157.72
212.39	488.84
212.608	444.86
212.826	726.78
213.044	656.76
213.262	630.42
213.48	-25611.94
213.698	-1201.18
213.916	557.35
214.134	-1099.3
214.352	-309.14
214.57	-419.98
214.788	3293.77
215.006	1123.56
215.224	1014.43
215.442	727.11
215.66	809.96
215.878	512.57
216.096	240.33
216.314	282.02
216.532	194.43
216.75	155.42
216.968	159.03
217.185	179.89
217.403	211.29
217.621	180.55
217.839	193.05
218.057	191.7
218.275	215.55
218.492	234.24
218.71	237.16
218.928	268.97
219.146	272.01
219.363	308.17
219.581	249.44
219.799	240.86
220.017	287.96
220.234	260.28
220.452	225.36
220.67	191.75
220.887	225.48
221.105	235.11
221.323	187.97
221.54	203.86
221.758	176.43
221.976	175.72
222.193	144.96
222.411	136.36
222.629	167.03
222.846	186.37
223.064	183.49
223.281	173.74
223.499	174.81
223.716	203.49
223.934	189.93
224.151	175.27
224.369	169.96
224.586	199.11
224.804	184.27
225.021	182.98
225.239	171.65
225.456	174.09
225.674	156.49
225.891	137.18
226.108	140.07
226.326	129.65
226.543	120.33
226.76	117.41
226.978	101.01
227.195	92.95
227.413	70.87
227.63	66.01
227.847	56.42
228.064	51.29
228.282	43.77
228.499	45
228.716	42.15
228.934	41.54
229.151	42.42
229.368	39.67
229.585	36.79
229.802	40.56
230.02	39.39
230.237	40.62
230.454	42.51
230.671	48.31
230.888	46.57
231.105	48.08
231.323	48.96
231.54	48.42
231.757	51.25
231.974	54.84
232.191	47.63
232.408	49.74
232.625	48.31
232.842	50.09
233.059	46.72
233.276	49.43
233.493	53.32
233.71	55.99
233.927	48.23
234.144	51.89
234.361	50.88
234.578	59.18
234.795	53.46
235.012	50.43
235.229	50.08
235.446	49.56
235.663	50.56
235.879	50.24
236.096	56.26
236.313	61.3
236.53	55.1
236.747	57.46
236.964	57.11
237.181	61.46
237.397	64.99
237.614	60.49
237.831	62.88
238.048	61.74
238.264	60.34
238.481	49.56
238.698	44.09
238.915	47.3
239.131	50.07
239.348	48.67
239.565	44.19
239.781	49.11
239.998	52.82
240.215	51.62
240.431	48.03
240.648	45.16
240.865	43.96
241.081	44.2
241.298	41.73
241.514	36.83
241.731	33.94
241.947	32.82
242.164	26.9
242.38	21.27
242.597	20.91
242.814	19.76
243.03	19.44
243.246	20.76
243.463	19.59
243.679	20.9
243.896	21.51
244.112	20.75
244.329	23.14
244.545	25.15
244.762	30.1
244.978	29.23
245.194	33
245.411	33.5
245.627	31.91
245.843	32.64
246.06	27.32
246.276	24.28
246.492	24.94
246.709	23.5
246.925	22.85
247.141	22.14
247.357	22.02
247.574	20.89
247.79	20.11
248.006	19.53
248.222	19.01
248.439	19.54
248.655	19.39
248.871	18.45
249.087	18.44
249.303	18.92
249.519	19.01
249.736	20.52
249.952	19.96
250.168	23.65
250.384	23.71
250.6	23.94
250.816	25.25
251.032	27.71
251.248	26.57
251.464	25.66
251.68	25.49
251.896	23.94
252.112	20.56
252.328	22.71
252.544	20.38
252.76	22.22
252.976	21.85
253.192	22.41
253.408	22.67
253.624	23.54
253.84	26.12
254.056	26.7
254.272	28.51
254.487	30.42
254.703	28.78
254.919	27.93
255.135	25.82
255.351	24.65
255.567	24.76
255.782	21.47
255.998	22
256.214	20.48
256.43	18.31
256.646	18.28
256.861	17.13
257.077	18.97
257.293	20.18
257.508	19.87
257.724	20.8
257.94	18.73
258.155	19.06
258.371	20.1
258.587	18.33
258.802	16.71
259.018	14.97
259.234	14.71
259.449	14.87
259.665	14.14
259.88	13.82
260.096	14.25
260.312	13.84
260.527	13.81
260.743	13.72
260.958	13.12
261.174	13.99
261.389	15.19
261.605	15.85
261.82	14.9
262.036	15.97
262.251	16.03
262.466	15.11
262.682	17.24
262.897	18.15
263.113	16.98
263.328	19.95
263.543	22.62
263.759	23.44
263.974	23.95
264.189	24.76
264.405	26.01
264.62	28.59
264.835	29.99
265.051	30.89
265.266	31.42
265.481	32.6
265.696	32.52
265.912	32.07
266.127	29.62
266.342	26.25
266.557	24.08
266.773	21.99
266.988	20.95
267.203	20.5
267.418	20.72
267.633	19.89
267.848	19.46
268.064	17.06
268.279	15.12
268.494	16.07
268.709	17.57
268.924	19.29
269.139	18.82
269.354	19.57
269.569	20.09
269.784	17.73
269.999	18.11
270.214	17.82
270.429	18.94
270.644	18.66
270.859	18.52
271.074	18.39
271.289	18.58
271.504	18.52
271.719	17.43
271.934	17.14
272.149	17.5
272.363	17.58
272.578	17.97
272.793	17.6
273.008	17.56
273.223	17.86
273.438	18.19
273.653	17.5
273.867	18.74
274.082	18.74
274.297	18.54
274.512	18.93
274.726	17.6
274.941	15.81
275.156	16.47
275.371	16.71
275.585	17.12
275.8	17.64
276.015	17.63
276.229	16.34
276.444	15.38
276.659	16.29
276.873	15.25
277.088	16.49
277.302	17.02
277.517	16.49
277.732	15.86
277.946	15.17
278.161	16.23
278.375	18.13
278.59	18.13
278.804	17.76
279.019	16.56
279.233	18.27
279.448	18.2
279.662	19.27
279.877	19.23
280.091	18.81
280.306	18.26
280.52	17.62
280.735	16.01
280.949	14.91
281.163	16.42
281.378	16.82
281.592	15.93
281.806	15.48
282.021	14.95
282.235	15
282.449	15.59
282.664	15.36
282.878	15.38
283.092	14.27
283.307	15.86
283.521	15.68
283.735	13.6
283.949	14.04
284.164	13.82
284.378	12.54
284.592	12.7
284.806	12.84
285.02	12.6
285.234	11.98
285.449	12.92
285.663	12.28
285.877	11.72
286.091	12.45
286.305	12.03
286.519	12.41
286.733	13.97
286.947	13.73
287.161	13.31
287.375	13.09
287.589	13.46
287.803	13.31
288.017	13.22
288.231	13.88
288.445	14.31
288.659	14.01
288.873	13.72
289.087	13.92
289.301	14.94
289.515	15.66
289.729	17.16
289.943	16.66
290.157	16.51
290.371	15.79
290.584	16.27
290.798	16.64
291.012	18.16
291.226	19.14
291.44	18.41
291.654	18.08
291.867	16.81
292.081	15.94
292.295	15.4
292.509	15.48
292.722	16.4
292.936	16.33
293.15	16.89
293.364	15.35
293.577	14.61
293.791	13.62
294.005	13.42
294.218	14.53
294.432	14.37
294.645	15.17
294.859	14.83
295.073	14.69
295.286	13.99
295.5	12.81
295.713	12.79
295.927	12.66
296.14	13.56
296.354	12.36
296.568	13.42
296.781	13.51
296.994	13.7
297.208	13.32
297.421	13.05
297.635	13.82
297.848	13.65
298.062	13.66
298.275	13.96
298.489	13.91
298.702	15.01
298.915	14.47
299.129	14.8
299.342	14.62
299.555	15.25
299.769	16.15
299.982	15.43
300.195	15.92
300.409	16.61
300.622	15.97
300.835	16.65
301.048	16.51
301.262	15.5
301.475	15.27
301.688	16.04
301.901	16.88
302.115	16.63
302.328	16.37
302.541	16.04
302.754	15.69
302.967	16.65
303.18	15.31
303.393	14.93
303.607	15.86
303.82	15.47
304.033	13.81
304.246	13.92
304.459	13.65
304.672	14.19
304.885	14.83
305.098	14.62
305.311	15.29
305.524	16.17
305.737	16.98
305.95	18.61
306.163	18.54
306.376	18.18
306.589	16.93
306.802	16.01
307.015	15.94
307.228	16.89
307.44	16.75
307.653	15.63
307.866	15.81
308.079	15.18
308.292	13.01
308.505	13.06
308.718	14.53
308.93	15.72
309.143	15.89
309.356	15
309.569	13.93
309.781	14.56
309.994	14.01
310.207	12.79
310.42	12.07
310.632	11.8
310.845	12.25
311.058	11.31
311.27	10.01
311.483	10.15
311.696	10.54
311.908	11.08
312.121	10.69
312.333	11.29
312.546	11.85
312.759	11.9
312.971	12.08
313.184	12.54
313.396	12.9
313.609	13.49
313.821	14.44
314.034	15.21
314.246	15.11
314.459	15.63
314.671	14.56
314.884	15.39
315.096	15.2
315.309	15.69
315.521	14.29
315.733	14.94
315.946	14.92
316.158	14.56
316.371	14.25
316.583	14.06
316.795	14.6
317.008	16.17
317.22	16.58
317.432	18.08
317.644	17.5
317.857	17.87
318.069	17.73
318.281	17.92
318.494	17.36
318.706	16.86
318.918	17.52
319.13	17.52
319.342	16.93
319.555	14.42
319.767	14.38
319.979	14.59
320.191	14.28
320.403	14.38
320.615	14.18
320.827	15.07
321.039	15.85
321.252	15.22
321.464	14.33
321.676	14.75
321.888	16.54
322.1	17.13
322.312	17
322.524	17.92
322.736	17.29
322.948	17.99
323.16	17.34
323.372	16.69
323.584	17.04
323.796	17.45
324.007	17.11
324.219	17.67
324.431	18.15
324.643	18.51
324.855	17.76
325.067	18.66
325.279	18.48
325.491	18.4
325.702	18.27
325.914	17.97
326.126	17.36
326.338	18.03
326.55	16.25
326.761	15.53
326.973	15.26
327.185	16.08
327.396	15.69
327.608	15.28
327.82	14.93
328.032	14.89
328.243	14.79
328.455	15.18
328.666	14.88
328.878	15.84
329.09	15.37
329.301	15.63
329.513	14.82
329.725	15.03
329.936	14.96
330.148	16.93
330.359	16.79
330.571	16.13
330.782	15.33
330.994	14.26
331.205	14.42
331.417	14.48
331.628	14.63
331.84	16.21
332.051	15.96
332.262	16.79
332.474	15.87
332.685	17.08
332.897	17.03
333.108	18.24
333.319	18.58
333.531	18.89
333.742	18.82
333.953	18.25
334.165	17.42
334.376	17.21
334.587	16.85
334.799	15.99
335.01	15.98
335.221	15.76
335.432	14.5
335.644	14.65
335.855	15.03
336.066	15.55
336.277	15.74
336.488	15.85
336.7	15.89
336.911	15.96
337.122	16.79
337.333	16.5
337.544	17.83
337.755	18.61
337.966	18.5
338.177	18.7
338.388	17.82
338.599	18.47
338.811	17.97
339.022	17.78
339.233	16.01
339.444	14.97
339.655	14.43
339.866	13.72
340.076	12.91
340.287	13.14
340.498	12.79
340.709	13.71
340.92	12.35
341.131	11.72
341.342	11.94
341.553	13.23
341.764	14.03
341.975	14.92
342.185	14.85
342.396	14.92
342.607	15
342.818	14.64
343.029	14.1
343.239	14.92
343.45	14.92
343.661	14.82
343.872	14.78
344.082	14.91
344.293	14.46
344.504	16.07
344.714	16.07
344.925	15.8
345.136	14.92
345.346	15.02
345.557	14.72
345.768	15.52
345.978	15.86
346.189	16.7
346.399	16.25
346.61	15.98
346.821	14.56
347.031	15.69
347.242	15.61
347.452	16.68
347.663	16.85
347.873	17.72
348.084	17.09
348.294	17.27
348.504	16.25
348.715	16.79
348.925	16.57
349.136	16.18
349.346	15.37
349.557	14.9
349.767	14.31
349.977	13.3
350.188	13.08
350.398	13.88
350.608	13.52
350.819	13.66
351.029	13.69
351.239	14.57
351.449	14.71
351.66	15.24
351.87	15.92
352.08	16.08
352.29	17.31
352.501	16.5
352.711	16.59
352.921	16.52
353.131	17.03
353.341	16.65
353.552	15.03
353.762	15.12
353.972	14.05
354.182	15.31
354.392	15.77
354.602	15.83
354.812	15.64
355.022	15.47
355.232	14.67
355.442	14.16
355.652	14.33
355.862	15.31
356.072	15.13
356.282	15.14
356.492	13.85
356.702	13.27
356.912	12.48
357.122	13.39
357.332	13.42
357.542	13.57
357.752	13.35
357.962	12.89
358.171	12.5
358.381	12.66
358.591	12.28
358.801	12.55
359.011	12.6
359.221	12.87
359.43	12.52
359.64	12.1
359.85	12.43
360.06	12.57
360.269	12.75
360.479	12.5
360.689	12.1
360.899	12.73
361.108	12.42
361.318	12.03
361.528	11.27
361.737	11.5
361.947	11.52
362.156	11.42
362.366	11.3
362.576	10.94
362.785	11.16
362.995	11.13
363.204	10.74
363.414	10.91
363.623	10.94
363.833	11.66
364.042	11.13
364.252	10.87
364.461	11.01
364.671	11.55
364.88	11.76
365.09	12.05
365.299	11.91
365.509	11.84
365.718	11.53
365.927	11.47
366.137	11.66
366.346	11.86
366.555	11.85
366.765	11.65
366.974	11.07
367.183	11.34
367.393	10.96
367.602	11.43
367.811	11.53
368.021	11.23
368.23	11.77
368.439	11.6
368.648	11.21
368.857	11.62
369.067	11.43
369.276	11.43
369.485	11.81
369.694	12.43
369.903	12.25
370.112	12.54
370.321	13.05
370.531	12.4
370.74	12.3
370.949	12
371.158	11.89
371.367	11.98
371.576	12.22
371.785	11.25
371.994	10.85
372.203	11.09
372.412	11.21
372.621	10.98
372.83	11.47
373.039	11.73
373.248	12.14
373.457	11.91
373.666	12
373.874	11.31
374.083	11.6
374.292	11.55
374.501	11.59
374.71	11.15
374.919	11.27
375.128	10.45
375.336	10.34
375.545	10.48
375.754	10.29
375.963	9.97
376.171	10.65
376.38	10.85
376.589	10.59
376.798	10.12
377.006	10.08
377.215	10.1
377.424	10.53
377.632	10
377.841	9.96
378.05	10.23
378.258	10.38
378.467	9.96
378.675	9.68
378.884	9.89
379.093	9.83
379.301	10.16
379.51	9.9
379.718	10.35
379.927	10.42
380.135	9.98
380.344	10.36
380.552	10.66
380.761	10.55
380.969	10.69
381.177	10.59
381.386	10.87
381.594	10.59
381.803	10.5
382.011	10.31
382.219	10.48
382.428	11.07
382.636	10.5
382.845	10.13
383.053	10.59
383.261	10.29
383.469	10.47
383.678	10.42
383.886	10.33
384.094	10.36
384.302	10.09
384.511	10.02
384.719	9.89
384.927	9.57
385.135	9.83
385.343	9.87
385.552	10.16
385.76	10.16
385.968	9.97
386.176	10.31
386.384	10.62
386.592	10.4
386.8	10.49
387.008	9.86
387.216	10.37
387.424	10.35
387.633	10.08
387.841	10.16
388.049	9.88
388.257	10.29
388.465	9.93
388.672	9.66
388.88	10
389.088	9.94
389.296	10.22
389.504	10.42
389.712	10.52
389.92	10.44
390.128	10.48
390.336	10.74
390.544	10.09
390.751	10
390.959	9.98
391.167	9.94
391.375	9.91
391.583	9.81
391.79	9.24
391.998	8.95
392.206	9.44
392.414	8.9
392.621	8.85
392.829	9.17
393.037	9.29
393.244	9.16
393.452	9.11
393.66	8.69
393.867	8.91
394.075	9.03
394.283	9.05
394.49	8.58
394.698	8.75
394.905	8.43
395.113	8.5
395.32	8.48
395.528	8.66
395.735	8.87
395.943	9.38
396.15	9.31
396.358	9.59
396.565	9.48
396.773	9.58
396.98	9.77
397.188	10.07
397.395	9.92
397.602	10.07
397.81	10.32
398.017	10.11
398.225	10.1
398.432	10.09
398.639	10.18
398.847	10.54
399.054	9.98
399.261	10
399.468	9.88
399.676	10.11
399.883	9.77
400.09	9.61
400.297	9.88
400.505	9.53
400.712	9.6
400.919	9.39
401.126	9.2
401.333	9.68
401.54	9.61
401.748	9.5
401.955	9.3
402.162	9.51
402.369	9.15
402.576	8.69
402.783	8.63
402.99	8.46
403.197	8.35
403.404	8.03
403.611	7.79
403.818	7.75
404.025	7.56
404.232	7.32
404.439	7.38
404.646	7.53
404.853	7.65
405.06	7.8
405.267	7.71
405.474	7.4
405.681	7.23
405.887	7.55
406.094	7.74
406.301	8.07
406.508	8.21
406.715	8.21
406.922	8.15
407.128	8.2
407.335	8.09
407.542	8.38
407.749	8.63
407.955	9.06
408.162	8.87
408.369	8.86
408.575	8.99
408.782	9.05
408.989	9
409.195	9.09
409.402	9.2
409.609	9.48
409.815	9.11
410.022	9.37
410.228	9.15
410.435	9.29
410.642	9.06
410.848	8.84
411.055	8.71
411.261	8.68
411.468	8.75
411.674	8.56
411.881	8.22
412.087	8.66
412.294	8.4
412.5	8.44
412.706	8.07
412.913	8.03
413.119	8.27
413.326	8.2
413.532	7.9
413.738	7.75
413.945	7.33
414.151	7.48
414.357	7.26
414.564	7.42
414.77	7.41
414.976	7.88
415.182	8.16
415.389	7.93
415.595	7.87
415.801	8.08
416.007	8.09
416.214	8.62
416.42	8.64
416.626	8.59
416.832	8.52
417.038	8.52
417.244	8.51
417.45	8.3
417.657	8.19
417.863	8.18
418.069	8.05
418.275	7.93
418.481	7.92
418.687	7.73
418.893	7.73
419.099	7.49
419.305	7.59
419.511	7.52
419.717	7.38
419.923	7.43
420.129	7.42
420.335	7.46
420.541	7.33
420.746	7.15
420.952	7.2
421.158	7.16
421.364	7.17
421.57	7.13
421.776	6.99
421.982	6.97
422.187	6.89
422.393	6.87
422.599	6.76
422.805	6.79
423.01	6.87
423.216	6.88
423.422	6.94
423.628	7.05
423.833	7.09
424.039	7.01
424.245	7.09
424.45	7.08
424.656	7.07
424.862	7.07
425.067	7.06
425.273	7.03
425.478	7.03
425.684	6.89
425.889	7.05
426.095	6.94
426.301	7.03
426.506	7.07
426.712	7.18
426.917	7.36
427.123	7.53
427.328	7.69
427.533	7.72
427.739	7.72
427.944	7.73
428.15	7.61
428.355	7.63
428.561	7.63
428.766	7.52
428.971	7.41
429.177	7.31
429.382	7.26
429.587	7.28
429.793	7.37
429.998	7.31
430.203	7.4
430.408	7.19
430.614	7.19
430.819	7.14
431.024	7.22
431.229	7.31
431.434	7.44
431.64	7.56
431.845	7.73
432.05	7.81
432.255	7.88
432.46	8.15
432.665	8.34
432.87	8.22
433.076	8.17
433.281	8.42
433.486	8.36
433.691	8.08
433.896	7.83
434.101	7.77
434.306	7.73
434.511	7.84
434.716	7.55
434.921	7.4
435.126	7.67
435.331	7.67
435.535	7.44
435.74	7.58
435.945	7.74
436.15	7.8
436.355	7.87
436.56	7.76
436.765	7.79
436.97	7.96
437.174	7.86
437.379	7.66
437.584	7.94
437.789	7.83
437.993	7.71
438.198	7.71
438.403	7.96
438.608	7.67
438.812	7.51
439.017	7.49
439.222	7.28
439.426	7.36
439.631	7.31
439.836	7.23
440.04	7.15
440.245	7.21
440.45	7.22
440.654	7.02
440.859	7.04
441.063	7.19
441.268	7.12
441.472	7.27
441.677	7.36
441.881	7.46
442.086	7.43
442.29	7.46
442.495	7.45
442.699	7.55
442.904	7.62
443.108	7.53
443.312	7.59
443.517	7.46
443.721	7.48
443.925	7.19
444.13	7.2
444.334	7.04
444.538	7.06
444.743	6.95
444.947	6.81
445.151	6.79
445.356	6.88
445.56	6.78
445.764	6.91
445.968	6.83
446.173	6.97
446.377	6.85
446.581	6.96
446.785	6.98
446.989	6.98
447.193	7.04
447.398	7.13
447.602	7.26
447.806	7.3
448.01	7.16
448.214	7.13
448.418	7.03
448.622	7.05
448.826	7.1
449.03	7.09
449.234	7.17
449.438	7.01
449.642	6.99
449.846	6.95
450.05	6.79
450.254	6.54
450.458	6.45
450.662	6.55
450.866	6.6
451.069	6.59
451.273	6.52
451.477	6.49
451.681	6.67
451.885	6.53
452.089	6.39
452.292	6.39
452.496	6.73
452.7	6.85
452.904	6.93
453.107	7.09
453.311	7.14
453.515	7.35
453.719	7.42
453.922	7.33
454.126	7.22
454.33	7.34
454.533	7.49
454.737	7.48
454.94	7.38
455.144	7.48
455.348	7.23
455.551	7.09
455.755	7.04
455.958	6.96
456.162	6.92
456.365	6.89
456.569	6.63
456.772	6.67
456.976	6.64
457.179	6.97
457.383	6.76
457.586	6.96
457.79	7.02
457.993	7.07
458.196	6.96
458.4	7.06
458.603	7.21
458.807	7.23
459.01	7.24
459.213	7.17
459.417	6.95
459.62	7.06
459.823	6.95
460.026	6.79
460.23	6.67
460.433	6.82
460.636	6.74
460.839	6.68
461.042	6.85
461.246	6.79
461.449	6.88
461.652	6.95
461.855	6.96
462.058	7.03
462.261	7.28
462.464	7.21
462.668	7.02
462.871	7
463.074	7.03
463.277	6.85
463.48	6.88
463.683	6.72
463.886	6.93
464.089	6.86
464.292	6.72
464.495	6.63
464.698	6.69
464.901	6.79
465.104	6.93
465.306	7.07
465.509	7.05
465.712	6.92
465.915	7.24
466.118	7.02
466.321	6.87
466.524	6.84
466.726	6.83
466.929	7
467.132	7.05
467.335	7.08
467.538	6.89
467.74	7
467.943	7.15
468.146	6.86
468.348	6.96
468.551	7.14
468.754	7.13
468.956	7.12
469.159	7.08
469.362	6.97
469.564	6.87
469.767	7.02
469.969	7.09
470.172	7.13
470.375	7.24
470.577	7.18
470.78	7.23
470.982	7.25
471.185	7.16
471.387	7.2
471.59	7.31
471.792	7.2
471.995	7.11
472.197	7.01
472.399	6.93
472.602	7.02
472.804	7.12
473.007	6.98
473.209	7.01
473.411	7.17
473.614	7.09
473.816	6.95
474.018	7.06
474.22	7.17
474.423	7.28
474.625	7.2
474.827	7.13
475.03	7.08
475.232	6.99
475.434	7.03
475.636	7.02
475.838	7.06
476.04	7.04
476.243	7.01
476.445	6.91
476.647	6.77
476.849	6.71
477.051	6.64
477.253	6.62
477.455	6.66
477.657	6.58
477.859	6.51
478.061	6.39
478.263	6.38
478.465	6.41
478.667	6.37
478.869	6.39
479.071	6.54
479.273	6.52
479.475	6.52
479.677	6.53
479.879	6.64
480.081	6.69
480.283	6.62
480.485	6.61
480.686	6.61
480.888	6.69
481.09	6.53
481.292	6.4
481.494	6.41
481.695	6.33
481.897	6.21
482.099	6.19
482.301	6.16
482.502	6.23
482.704	6.2
482.906	6.2
483.107	6.11
483.309	6.06
483.511	6.12
483.712	6.11
483.914	6.06
484.115	6.07
484.317	6.05
484.519	6.03
484.72	6.03
484.922	6.04
485.123	6.03
485.325	6.04
485.526	6.14
485.728	6.07
485.929	6.07
486.131	6.08
486.332	6.09
486.534	6.02
486.735	6.02
486.936	5.98
487.138	5.93
487.339	5.85
487.541	5.86
487.742	5.86
487.943	5.91
488.144	5.9
488.346	5.94
488.547	5.99
488.748	6.09
488.95	6.11
489.151	6.12
489.352	6.23
489.553	6.33
489.755	6.36
489.956	6.29
490.157	6.31
490.358	6.45
490.559	6.44
490.76	6.4
490.961	6.36
491.163	6.47
491.364	6.48
491.565	6.41
491.766	6.39
491.967	6.41
492.168	6.45
492.369	6.45
492.57	6.38
492.771	6.42
492.972	6.48
493.173	6.54
493.374	6.42
493.575	6.46
493.776	6.54
493.976	6.62
494.177	6.51
494.378	6.51
494.579	6.46
494.78	6.57
494.981	6.47
495.182	6.41
495.382	6.31
495.583	6.32
495.784	6.28
495.985	6.22
496.185	6.28
496.386	6.38
496.587	6.51
496.788	6.67
496.988	6.45
497.189	6.5
497.39	6.49
497.59	6.64
497.791	6.8
497.992	6.8
498.192	6.79
498.393	6.64
498.593	6.66
498.794	6.55
498.994	6.48
499.195	6.48
499.395	6.54
499.596	6.59
499.796	6.31
499.997	6.24
500.197	6.26
500.398	6.32
500.598	6.32
500.799	6.42
500.999	6.49
501.199	6.34
501.4	6.54
501.6	6.45
501.801	6.44
502.001	6.72
502.201	6.76
502.402	6.99
502.602	6.94
502.802	7.15
503.002	7.15
503.203	7.24
503.403	7.18
503.603	7.09
503.803	7.07
504.003	7.02
504.204	7
504.404	7.04
504.604	6.77
504.804	7.07
505.004	7.05
505.204	6.9
505.404	6.86
505.604	7
505.804	6.93
506.005	6.87
506.205	6.86
506.405	6.88
506.605	6.82
506.805	6.99
507.005	6.75
507.204	6.54
507.404	6.5
507.604	6.57
507.804	6.73
508.004	6.9
508.204	7.01
508.404	7.15
508.604	7.17
508.804	7.08
509.003	6.98
509.203	6.93
509.403	7.1
509.603	7.31
509.803	7.18
510.002	7.15
510.202	7.17
510.402	7.23
510.602	7.11
510.801	7.06
511.001	7.08
511.201	7.1
511.4	6.99
511.6	6.94
511.8	6.73
511.999	6.9
512.199	6.79
512.398	6.81
512.598	6.75
512.797	6.92
512.997	6.83
513.197	6.82
513.396	7
513.596	7.22
513.795	7.29
513.994	7.41
514.194	7.44
514.393	7.51
514.593	7.52
514.792	7.5
514.992	7.47
515.191	7.73
515.39	7.73
515.59	7.56
515.789	7.62
515.988	7.63
516.188	7.74
516.387	7.73
516.586	7.62
516.786	7.55
516.985	7.63
517.184	7.71
517.383	7.69
517.582	7.67
517.782	7.7
517.981	7.57
518.18	7.56
518.379	7.58
518.578	7.44
518.777	7.43
518.976	7.45
519.176	7.55
519.375	7.42
519.574	7.43
519.773	7.41
519.972	7.46
520.171	7.55
520.37	7.58
520.569	7.52
520.768	7.6
520.967	7.7
521.166	7.75
521.365	7.71
521.564	7.97
521.762	7.78
521.961	7.82
522.16	7.84
522.359	7.97
522.558	7.88
522.757	7.97
522.956	8.12
523.154	8.09
523.353	7.95
523.552	8
523.751	7.79
523.949	7.92
524.148	8.02
524.347	8
524.546	7.92
524.744	8.03
524.943	8.04
525.142	7.91
525.34	7.93
525.539	8.05
525.737	8.03
525.936	8.03
526.135	8.05
526.333	7.99
526.532	7.92
526.73	7.91
526.929	7.92
527.127	7.95
527.326	7.93
527.524	7.94
527.723	7.92
527.921	7.94
528.12	7.95
528.318	7.91
528.516	7.93
528.715	7.98
528.913	7.95
529.112	7.91
529.31	7.89
529.508	7.96
529.707	8.02
529.905	8.03
530.103	8.01
530.301	8.05
530.5	8.06
530.698	8.09
530.896	8.1
531.094	8.18
531.293	8.21
531.491	8.25
531.689	8.23
531.887	8.2
532.085	8.24
532.283	8.38
532.481	8.36
532.68	8.43
532.878	8.46
533.076	8.53
533.274	8.57
533.472	8.61
533.67	8.56
533.868	8.6
534.066	8.65
534.264	8.64
534.462	8.53
534.66	8.59
534.858	8.61
535.056	8.74
535.253	8.73
535.451	8.75
535.649	8.84
535.847	8.99
536.045	9.09
536.243	9.14
536.441	9.23
536.638	9.4
536.836	9.38
537.034	9.41
537.232	9.4
537.43	9.49
537.627	9.54
537.825	9.62
538.023	9.6
538.22	9.61
538.418	9.66
538.616	9.78
538.813	9.78
539.011	9.95
539.209	9.9
539.406	10.03
539.604	10.09
539.801	10.16
539.999	10.09
540.196	10.04
540.394	10
540.591	9.95
540.789	9.88
540.986	9.86
541.184	9.81
541.381	9.94
541.579	9.85
541.776	9.82
541.974	9.83
542.171	9.88
542.368	9.95
542.566	10.06
542.763	10.03
542.96	10.11
543.158	10.07
543.355	10.15
543.552	10.13
543.75	10.27
543.947	10.32
544.144	10.28
544.341	10.37
544.539	10.4
544.736	10.31
544.933	10.37
545.13	10.37
545.327	10.58
545.524	10.66
545.722	10.78
545.919	10.76
546.116	10.81
546.313	10.91
546.51	10.88
546.707	11.14
546.904	11.36
547.101	11.58
547.298	11.59
547.495	11.61
547.692	11.68
547.889	11.76
548.086	11.96
548.283	12.17
548.48	12.35
548.677	12.55
548.874	12.52
549.07	12.34
549.267	12.48
549.464	12.7
549.661	12.77
549.858	12.81
550.055	12.85
550.251	12.82
550.448	12.82
550.645	12.86
550.842	12.84
551.038	12.85
551.235	13.12
551.432	12.98
551.628	13.17
551.825	13.4
552.022	13.54
552.218	13.62
552.415	13.6
552.612	13.79
552.808	13.9
553.005	13.88
553.201	13.9
553.398	13.95
553.594	14.15
553.791	14.14
553.987	13.96
554.184	13.97
554.38	14.19
554.577	14.31
554.773	14.16
554.97	14.14
555.166	14.48
555.362	14.63
555.559	14.68
555.755	14.81
555.952	14.77
556.148	15.14
556.344	15.24
556.541	15.19
556.737	15.26
556.933	15.59
557.129	15.89
557.326	15.71
557.522	15.93
557.718	16.19
557.914	16.16
558.11	16.33
558.307	16.41
558.503	16.55
558.699	16.69
558.895	16.69
559.091	16.68
559.287	16.59
559.483	16.87
559.679	16.83
559.876	16.74
560.072	16.98
560.268	17.07
560.464	17.07
560.66	16.9
560.856	17.3
561.052	17.49
561.247	17.54
561.443	17.64
561.639	17.57
561.835	17.7
562.031	17.85
562.227	17.87
562.423	17.95
562.619	18.12
562.815	18.65
563.01	18.48
563.206	18.68
563.402	18.66
563.598	18.72
563.793	18.85
563.989	18.96
564.185	19.14
564.381	19.26
564.576	19.27
564.772	19.22
564.968	18.94
565.163	18.88
565.359	18.77
565.555	18.89
565.75	19.14
565.946	19.36
566.141	19.28
566.337	19.21
566.532	19.17
566.728	19.35
566.923	19.5
567.119	19.66
567.314	19.84
567.51	20.06
567.705	19.99
567.901	19.8
568.096	19.8
568.292	19.94
568.487	19.98
568.682	20.14
568.878	20.15
569.073	20.05
569.268	20.08
569.464	20.09
569.659	20.11
569.854	20.53
570.05	20.58
570.245	20.7
570.44	20.84
570.635	21.02
570.831	21.1
571.026	21.26
571.221	21.43
571.416	21.56
571.611	21.53
571.806	21.56
572.002	21.42
572.197	21.47
572.392	21.3
572.587	21.3
572.782	21.39
572.977	21.38
573.172	21.31
573.367	21.35
573.562	21.4
573.757	21.53
573.952	21.49
574.147	21.83
574.342	21.88
574.537	22.15
574.732	22.2
574.927	22.26
575.121	22.49
575.316	22.73
575.511	22.87
575.706	22.86
575.901	23.03
576.096	23.09
576.29	22.89
576.485	23.13
576.68	23.32
576.875	23.2
577.069	23.31
577.264	23.18
577.459	23.23
577.654	23.2
577.848	23.56
578.043	23.4
578.238	23.67
578.432	23.81
578.627	23.69
578.821	23.63
579.016	24.08
579.21	24.04
579.405	24.27
579.6	24.37
579.794	24.51
579.989	24.33
580.183	24.61
580.378	24.46
580.572	24.56
580.766	24.73
580.961	24.88
581.155	24.88
581.35	24.98
581.544	25.06
581.738	25.03
581.933	25.31
582.127	25.27
582.321	25.17
582.516	25.38
582.71	25.57
582.904	25.52
583.099	25.31
583.293	25.32
583.487	25.22
583.681	25.45
583.875	25.47
584.07	25.39
584.264	25.62
584.458	26.01
584.652	26.12
584.846	26.16
585.04	26.25
585.234	26.56
585.428	26.65
585.623	26.98
585.817	26.8
586.011	26.82
586.205	26.92
586.399	27.24
586.593	26.87
586.787	26.85
586.981	26.44
587.174	26.97
587.368	26.85
587.562	26.95
587.756	26.93
587.95	26.92
588.144	27.05
588.338	27.09
588.532	26.74
588.725	26.95
588.919	27.02
589.113	27.34
589.307	26.93
589.501	26.95
589.694	27.17
589.888	27.05
590.082	27.05
590.275	26.88
590.469	26.76
590.663	26.85
590.856	26.54
591.05	26.83
591.244	26.82
591.437	26.96
591.631	27.01
591.824	26.96
592.018	27.1
592.212	27.11
592.405	27.13
592.599	27.26
592.792	27.65
592.986	27.99
593.179	27.92
593.372	27.89
593.566	28.16
593.759	28.44
593.953	28.43
594.146	28.36
594.339	28.58
594.533	28.83
594.726	28.9
594.92	28.7
595.113	29.02
595.306	28.98
595.499	29.29
595.693	29.06
595.886	28.9
596.079	28.76
596.272	28.78
596.466	28.71
596.659	28.76
596.852	28.67
597.045	28.54
597.238	28.22
597.431	28.03
597.624	27.93
597.818	27.88
598.011	27.92
598.204	28.03
598.397	28.08
598.59	28.03
598.783	27.82
598.976	27.81
599.169	27.9
599.362	28.07
599.555	28.3
599.748	28.11
599.941	28.35
600.134	28.47
600.326	28.45
600.519	28.55
600.712	28.6
600.905	28.61
601.098	28.87
601.291	28.82
601.483	29
601.676	29.08
601.869	29.22
602.062	29.01
602.255	28.87
602.447	28.76
602.64	28.69
602.833	28.72
603.025	28.99
603.218	28.79
603.411	28.83
603.603	28.81
603.796	28.8
603.989	28.69
604.181	28.92
604.374	28.92
604.566	28.93
604.759	28.93
604.951	28.79
605.144	28.6
605.336	28.72
605.529	28.64
605.721	28.65
605.914	28.66
606.106	28.8
606.299	28.92
606.491	28.97
606.683	29.21
606.876	29.48
607.068	29.77
607.26	30.03
607.453	29.98
607.645	30.05
607.837	29.97
608.03	29.86
608.222	30.01
608.414	29.83
608.606	29.69
608.799	29.46
608.991	29.22
609.183	29.3
609.375	29.43
609.567	29.78
609.759	29.93
609.952	30
610.144	30.15
610.336	29.99
610.528	29.93
610.72	30.17
610.912	30.41
611.104	30.62
611.296	30.63
611.488	30.74
611.68	30.42
611.872	30.35
612.064	30.42
612.256	30.4
612.448	30.44
612.64	30.65
612.832	30.64
613.023	30.65
613.215	30.47
613.407	30.43
613.599	30.28
613.791	30.56
613.983	30.63
614.174	30.76
614.366	30.78
614.558	30.86
614.75	30.74
614.941	30.62
615.133	30.71
615.325	31.08
615.516	31.05
615.708	30.87
615.9	30.77
616.091	30.83
616.283	30.54
616.475	30.65
616.666	30.64
616.858	31.16
617.049	31.25
617.241	31.12
617.432	30.85
617.624	30.92
617.815	31.28
618.007	31.13
618.198	31.2
618.39	31.21
618.581	31.01
618.773	31.19
618.964	30.74
619.155	31.05
619.347	30.98
619.538	31.25
619.729	31.25
619.921	31.25
620.112	31.31
620.303	31.05
620.494	31.09
620.686	31.3
620.877	31.1
621.068	31.51
621.259	31.18
621.451	31.41
621.642	31.35
621.833	31.11
622.024	30.85
622.215	31.12
622.406	31.48
622.597	31.59
622.788	31.59
622.98	31.63
623.171	31.45
623.362	31.67
623.553	31.94
623.744	32.1
623.935	32.38
624.126	32.47
624.317	32.13
624.508	32.2
624.698	31.97
624.889	31.64
625.08	32.06
625.271	31.9
625.462	31.66
625.653	31.53
625.844	31.51
626.034	31.56
626.225	31.79
626.416	31.82
626.607	32.03
626.798	32.12
626.988	32.33
627.179	32.17
627.37	32.24
627.56	32.63
627.751	32.45
627.942	32.28
628.132	32.21
628.323	32.05
628.514	32.18
628.704	31.87
628.895	31.97
629.085	32.11
629.276	32.16
629.466	32.3
629.657	32.04
629.847	31.9
630.038	31.82
630.228	32.1
630.419	32.23
630.609	32.24
630.8	32.46
630.99	32.34
631.181	32.38
631.371	32.29
631.561	32.31
631.752	32.4
631.942	32.72
632.132	33.01
632.323	32.74
632.513	32.37
632.703	32.34
632.893	32.47
633.084	32.41
633.274	32.57
633.464	32.73
633.654	32.37
633.844	31.94
634.034	31.87
634.225	31.95
634.415	32.33
634.605	32.53
634.795	32.57
634.985	32.58
635.175	33.05
635.365	32.72
635.555	32.48
635.745	32.65
635.935	33.1
636.125	33.25
636.315	33.08
636.505	32.93
636.695	32.73
636.885	32.5
637.075	32.32
637.265	32.29
637.455	32.29
637.644	32.32
637.834	32.17
638.024	32.11
638.214	32.17
638.404	32.2
638.593	31.96
638.783	32.24
638.973	32.65
639.163	32.69
639.352	32.88
639.542	32.87
639.732	33.04
639.921	33.13
640.111	33.62
640.301	33.36
640.49	33.59
640.68	33.85
640.87	33.71
641.059	33.92
641.249	33.93
641.438	33.52
641.628	33.48
641.817	33.46
642.007	33.6
642.196	33.11
642.386	33.16
642.575	33.17
642.764	33.11
642.954	33.37
643.143	32.91
643.333	32.91
643.522	33.13
643.711	33.06
643.901	33.38
644.09	33.29
644.279	33.66
644.469	33.9
644.658	33.84
644.847	33.66
645.036	33.65
645.226	33.77
645.415	33.9
645.604	33.77
645.793	34.13
645.982	33.89
646.171	34.14
646.361	33.95
646.55	33.59
646.739	33.53
646.928	33.62
647.117	33.64
647.306	33.74
647.495	33.42
647.684	33.75
647.873	33.65
648.062	33.91
648.251	33.81
648.44	33.29
648.629	33.5
648.818	33.53
649.007	33.66
649.196	33.47
649.384	33.42
649.573	33.6
649.762	33.1
649.951	33.42
650.14	33.27
650.328	33.49
650.517	34.05
650.706	34.19
650.895	34.22
651.083	34.53
651.272	34.73
651.461	34.85
651.65	35.13
651.838	35.13
652.027	34.6
652.216	34.66
652.404	34.37
652.593	34.67
652.781	34.59
652.97	34.9
653.158	34.46
653.347	34.44
653.535	34.27
653.724	33.78
653.912	34.16
654.101	34.54
654.289	34.55
654.478	34.87
654.666	34.4
654.855	34.13
655.043	33.63
655.231	33.72
655.42	33.85
655.608	33.91
655.796	34.46
655.985	34.34
656.173	34.25
656.361	34.15
656.55	33.84
656.738	34.39
656.926	34.64
657.114	34.68
657.302	34.81
657.491	34.72
657.679	34.46
657.867	34.11
658.055	34.21
658.243	34.33
658.431	34.3
658.619	34.52
658.807	34.22
658.996	34.45
659.184	34.64
659.372	34.39
659.56	34.19
659.748	34.2
659.936	34.51
660.124	34.25
660.311	34.09
660.499	34.25
660.687	34.29
660.875	34.57
661.063	34.37
661.251	34.14
661.439	34.44
661.627	34.76
661.814	34.96
662.002	34.79
662.19	35.39
662.378	35.13
662.565	35.3
662.753	35.26
662.941	35.19
663.129	35.27
663.316	35.36
663.504	35.31
663.692	35.29
663.879	35.69
664.067	35.62
664.254	35
664.442	35.75
664.63	35.67
664.817	35.68
665.005	35.14
665.192	35.37
665.38	35.62
665.567	35.54
665.755	35.39
665.942	34.78
666.13	34.96
666.317	35.18
666.504	35.15
666.692	34.9
666.879	34.83
667.067	35.21
667.254	35.24
667.441	35.56
667.629	35.71
667.816	35.92
668.003	36.48
668.19	36.5
668.378	36.46
668.565	36.54
668.752	36.73
668.939	36.67
669.127	36.99
669.314	36.75
669.501	36.35
669.688	36.85
669.875	36.5
670.062	36.34
670.249	36.55
670.436	36.78
670.623	36.62
670.81	36.54
670.997	36.48
671.184	36.09
671.371	36.13
671.558	36.29
671.745	35.56
671.932	35.95
672.119	36.03
672.306	36.06
672.493	35.86
672.68	35.99
672.867	36.1
673.054	36.58
673.24	36.39
673.427	36.35
673.614	36.46
673.801	36.42
673.988	36.2
674.174	36.03
674.361	35.76
674.548	35.71
674.734	35.8
674.921	35.79
675.108	35.79
675.294	36.04
675.481	35.9
675.668	35.64
675.854	36.17
676.041	36.14
676.227	36.36
676.414	36.7
676.601	37.23
676.787	37.02
676.974	37
677.16	36.57
677.347	36.5
677.533	36.93
677.719	36.48
677.906	36.24
678.092	36.74
678.279	36.66
678.465	36.34
678.651	35.83
678.838	36.09
679.024	35.8
679.21	36.01
679.397	35.78
679.583	35.4
679.769	35.47
679.955	35.63
680.142	35.22
680.328	35.46
680.514	35.1
680.7	35.58
680.886	35.64
681.073	36.01
681.259	35.67
681.445	35.94
681.631	36.14
681.817	36.43
682.003	36.3
682.189	36.32
682.375	36.19
682.561	36.43
682.747	36.14
682.933	36.1
683.119	35.82
683.305	36.21
683.491	36.25
683.677	36.33
683.863	36.6
684.049	36.45
684.235	37.02
684.42	36.68
684.606	36.63
684.792	36.66
684.978	36.47
685.164	36.69
685.349	36.83
685.535	36.95
685.721	36.78
685.907	36.42
686.092	36.68
686.278	36.29
686.464	36.91
686.649	37.17
686.835	36.84
687.021	36.63
687.206	36.38
687.392	36.32
687.577	36.53
687.763	36.99
687.948	37.04
688.134	36.84
688.319	36.94
688.505	36.5
688.69	36.42
688.876	36.66
689.061	36.62
689.247	37.1
689.432	36.83
689.618	36.36
689.803	36.28
689.988	36.89
690.174	37.1
690.359	37.35
690.544	37.43
690.73	37.78
690.915	37.99
691.1	38.26
691.285	37.99
691.471	38.32
691.656	38.61
691.841	38.36
692.026	37.6
692.211	37.78
692.396	37.22
692.582	37.12
692.767	37.37
692.952	36.89
693.137	37.12
693.322	36.79
693.507	37.08
693.692	36.95
693.877	37
694.062	37.09
694.247	36.83
694.432	37.16
694.617	37.37
694.802	36.87
694.987	37.1
695.172	36.91
695.357	37.42
695.541	37.12
695.726	37.34
695.911	37.61
696.096	37.28
696.281	37.83
696.466	37.57
696.65	37
696.835	36.76
697.02	36.84
697.204	36.66
697.389	36.58
697.574	36.56
697.759	36.38
697.943	36.12
698.128	36.73
698.312	36.19
698.497	35.95
698.682	36.33
698.866	36.39
699.051	36.56
699.235	36.68
699.42	36.65
699.604	36.62
699.789	36.65
699.973	36.63
700.158	36.29
700.342	36.45
700.527	36.59
700.711	36.66
700.895	36.81
701.08	36.91
701.264	36.95
701.448	36.94
701.633	37.11
701.817	37.05
702.001	37.5
702.186	37.62
702.37	37.06
702.554	37.27
702.738	37.43
702.923	37.76
703.107	37.78
703.291	38
703.475	37.64
703.659	37.71
703.843	37.97
704.027	38.43
704.212	38.67
704.396	39.54
704.58	39.46
704.764	39.59
704.948	38.9
705.132	38.66
705.316	38.43
705.5	39.16
705.684	39.69
705.868	39.83
706.052	39.21
706.235	39.32
706.419	39.02
706.603	39.71
706.787	39.56
706.971	40.3
707.155	40.25
707.339	40.39
707.522	40.29
707.706	39.73
707.89	39.35
708.074	39.45
708.257	39.5
708.441	39.92
708.625	39.68
708.808	39.87
708.992	39.54
709.176	39.48
709.359	38.52
709.543	38.09
709.727	37.9
709.91	38.28
710.094	37.78
710.277	37.56
710.461	37.13
710.644	37.48
710.828	36.62
711.011	37.26
711.195	37.51
711.378	38.48
711.562	38.73
711.745	38.92
711.928	39.17
712.112	39.45
712.295	39.12
712.478	39.28
712.662	39.03
712.845	39.48
713.028	38.76
713.212	38.04
713.395	38.02
713.578	37.93
713.761	38
713.945	37.39
714.128	37.9
714.311	38.47
714.494	38.25
714.677	38.04
714.86	38.74
715.043	39.21
715.227	39.05
715.41	38.85
715.593	39.16
715.776	38.61
715.959	38.69
716.142	38.25
716.325	37.78
716.508	38.18
716.691	38.55
716.874	38.49
717.057	37.5
717.239	38.8
717.422	38.83
717.605	38.7
717.788	38.67
717.971	39.16
718.154	39.06
718.337	39.67
718.519	39.74
718.702	39.3
718.885	39.12
719.068	40.06
719.25	40
719.433	40.36
719.616	40.1
719.798	40.37
719.981	40.05
720.164	40.18
720.346	39.15
720.529	38.69
720.712	38.48
720.894	38.69
721.077	38.19
721.259	37.53
721.442	37.09
721.624	37.51
721.807	37.78
721.989	37.23
722.172	37.35
722.354	38.76
722.537	39.46
722.719	40.65
722.901	40.51
723.084	40.78
723.266	40.44
723.448	41.49
723.631	41.94
723.813	41.72
723.995	42.09
724.178	41.77
724.36	41.31
724.542	40.99
724.724	40.66
724.907	40.2
725.089	40.29
725.271	41.19
725.453	39.85
725.635	38.9
725.817	39.6
725.999	39.9
726.181	40.68
726.364	41
726.546	40.24
726.728	40.37
726.91	40.39
727.092	39.88
727.274	39.3
727.456	40.29
727.638	40.18
727.819	39.73
728.001	39.07
728.183	38.08
728.365	37.78
728.547	38.78
728.729	38.76
728.911	39.21
729.093	39.99
729.274	40.08
729.456	39.94
729.638	40.56
729.82	40.84
730.001	41.17
730.183	41.68
730.365	40.89
730.546	40.42
730.728	39.76
730.91	39.68
731.091	39.52
731.273	39.33
731.455	39.33
731.636	39.78
731.818	39.94
731.999	39.86
732.181	40.45
732.362	41.4
732.544	42.05
732.725	42.18
732.907	42.22
733.088	42.14
733.27	42.46
733.451	41.83
733.633	41.72
733.814	40.82
733.995	42.03
734.177	41.38
734.358	41.58
734.539	40.85
734.721	41.17
734.902	40.27
735.083	40.18
735.264	40.54
735.446	40.54
735.627	40.43
735.808	40.36
735.989	39.56
736.17	39.76
736.351	39.53
736.533	40.01
736.714	40.18
736.895	40.9
737.076	41.2
737.257	40.97
737.438	40.99
737.619	40.74
737.8	41.62
737.981	41.93
738.162	41.32
738.343	41.91
738.524	41.8
738.705	41.84
738.886	41.94
739.067	41.53
739.247	41.77
739.428	41.9
739.609	42.14
739.79	41.76
739.971	40.85
740.151	41.15
740.332	39.93
740.513	40.04
740.694	39.4
740.874	39.1
741.055	38.69
741.236	38.08
741.417	39.06
741.597	38.68
741.778	39.26
741.958	39.46
742.139	40.94
742.32	41.73
742.5	42.19
742.681	42.93
742.861	43.25
743.042	43.43
743.222	43.04
743.403	41.59
743.583	42.37
743.764	42.43
743.944	43.15
744.124	42.38
744.305	42.95
744.485	43.12
744.666	42.08
744.846	42.97
745.026	43.87
745.207	44.6
745.387	46
745.567	45.42
745.747	45.49
745.928	45.18
746.108	45.05
746.288	44.31
746.468	42.02
746.648	42.79
746.829	41.54
747.009	42.16
747.189	42.06
747.369	41.52
747.549	42.3
747.729	41.39
747.909	41.01
748.089	40.48
748.269	39.78
748.449	41.94
748.629	41.26
748.809	41.08
748.989	40.12
749.169	40.46
749.349	40.71
749.529	40.46
749.709	40.74
749.889	40.98
750.068	41.97
750.248	43.23
750.428	42.25
750.608	42.66
750.788	42.88
750.967	42.39
751.147	41.66
751.327	41.55
751.507	40.82
751.686	41.37
751.866	41.1
752.046	40.6
752.225	40.36
752.405	40.76
752.585	42.09
752.764	42.92
752.944	43.29
753.123	44.18
753.303	43.12
753.482	43.61
753.662	43.56
753.841	43.72
754.021	43.57
754.2	43.76
754.38	43.61
754.559	42.48
754.739	41.14
754.918	41.46
755.097	40.15
755.277	40.78
755.456	40.12
755.635	40.03
755.815	40.38
755.994	40.1
756.173	40.01
756.352	40.21
756.532	40.1
756.711	41.21
756.89	40.48
757.069	41.45
757.248	40.77
757.427	41.71
757.607	41.96
757.786	42.38
757.965	41.66
758.144	41.44
758.323	40.91
758.502	40.7
758.681	40.43
758.86	40.28
759.039	40.84
759.218	41.74
759.397	40.52
759.576	39.9
759.755	39.57
759.934	41.04
760.113	42.06
760.291	42.68
760.47	43.01
760.649	43.14
760.828	43.81
761.007	43.69
761.186	43.68
761.364	44.19
761.543	44.58
761.722	43.83
761.901	42.7
762.079	41.97
762.258	41.62
762.437	41.47
762.615	41.01
762.794	41.55
762.972	41.03
763.151	40.69
763.33	41.04
763.508	40.99
763.687	40.73
763.865	40.83
764.044	40.4
764.222	39.7
764.401	39.62
764.579	39.66
764.758	39.27
764.936	39.65
765.114	40.64
765.293	40.21
765.471	40.6
765.65	41.4
765.828	41.02
766.006	41
766.184	42.65
766.363	42.52
766.541	41.77
766.719	41.82
766.898	41.77
767.076	40.17
767.254	40.87
767.432	40.89
767.61	41.06
767.788	42.47
767.967	42.41
768.145	42.19
768.323	42.67
768.501	43.31
768.679	43.34
768.857	42.42
769.035	44.41
769.213	43.38
769.391	42.84
769.569	42.73
769.747	42.77
769.925	43.72
770.103	43.67
770.281	41.97
770.459	42.46
770.636	43.19
770.814	44.02
770.992	43.95
771.17	45.14
771.348	45.36
771.525	44.88
771.703	44.17
771.881	44
772.059	43.53
772.236	45.19
772.414	46.67
772.592	46.43
772.769	47.2
772.947	48.04
773.125	48.03
773.302	49.81
773.48	51.7
773.657	51.94
773.835	52.16
774.013	54.37
774.19	55.29
774.368	55.59
774.545	55.94
774.723	56.07
774.9	54.74
775.077	54.73
775.255	53.23
775.432	53.03
775.61	53.03
775.787	54.3
775.964	52.23
776.142	50.87
776.319	50.13
776.496	49.72
776.674	49.43
776.851	49.13
777.028	49.37
777.205	48.29
777.382	46.09
777.56	46.86
777.737	48.74
777.914	49.09
778.091	50.07
778.268	50.06
778.445	48.68
778.622	48.51
778.8	49.6
778.977	48.71
779.154	56.41
779.331	57.39
779.508	56.6
779.685	53.77
779.862	54.17
780.038	55.2
780.215	55.99
780.392	57.5
780.569	56.84
780.746	55.37
780.923	56.56
781.1	50.47
781.277	51.34
781.453	50.59
781.63	50.05
781.807	50.34
781.984	48.69
782.16	47.38
782.337	45.49
782.514	46.78
782.691	49.55
782.867	49.39
783.044	47.49
783.221	46.56
783.397	48.22
783.574	47.6
783.75	46.99
783.927	49.01
784.103	49.91
784.28	50.43
784.456	50.43
784.633	48.41
784.809	48.18
784.986	47.83
785.162	46.78
785.339	46.82
785.515	47.71
785.692	46.4
785.868	46.16
786.044	46.4
786.221	48.74
786.397	48.02
786.573	47.89
786.749	47.34
786.926	49.37
787.102	50.48
787.278	49.94
787.454	50.84
787.631	53.14
787.807	51.52
787.983	51.52
788.159	50.24
788.335	50.47
788.511	50.61
788.687	51.31
788.863	51.04
789.039	51.79
789.216	52.46
789.392	51.77
789.568	51.42
789.744	53.72
789.919	52.51
790.095	51.4
790.271	52.38
790.447	53.41
790.623	53.37
790.799	54.28
790.975	52.87
791.151	53.09
791.327	52.3
791.502	50.23
791.678	49.31
791.854	49.83
792.03	50.82
792.205	50.08
792.381	47.74
792.557	47.8
792.733	45.23
792.908	47.39
793.084	46.65
793.259	49.14
793.435	51.68
793.611	51.48
793.786	51.26
793.962	50.66
794.137	51.06
794.313	52.64
794.488	52.39
794.664	55.04
794.839	54.64
795.015	53.79
795.19	50.56
795.366	48.9
795.541	47.86
795.716	46.62
795.892	47.4
796.067	45.86
796.242	44.73
796.418	44.91
796.593	45.05
796.768	44.18
796.944	44.16
797.119	46.13
797.294	46.67
797.469	48.21
797.644	49.45
797.82	47.27
797.995	48.34
798.17	49.1
798.345	49.13
798.52	47.21
798.695	46.71
798.87	46.93
799.045	47.92
799.22	48.44
799.395	47.52
799.57	47.85
799.745	49.27
799.92	47.55
800.095	48.38
800.27	49.28
800.445	49.02
800.62	49.33
800.795	49.59
800.97	50.51
801.145	51.1
801.319	51.25
801.494	49.54
801.669	50.81
801.844	54.99
802.018	54.42
802.193	52.91
802.368	52.23
802.543	53.09
802.717	54.14
802.892	52.42
803.067	50.55
803.241	51.44
803.416	52.67
803.59	53.79
803.765	51.89
803.94	51.28
804.114	50.95
804.289	52.2
804.463	50.59
804.638	49.96
804.812	49.96
804.986	49.79
805.161	50.97
805.335	50.51
805.51	48.2
805.684	46.77
805.858	47.55
806.033	46.48
806.207	46.8
806.381	48.03
806.556	48.81
806.73	49.5
806.904	51.16
807.078	49.72
807.253	51.99
807.427	53.83
807.601	54.51
807.775	55.51
807.949	58.25
808.123	56.88
808.298	56.43
808.472	59.63
808.646	57.5
808.82	56.5
808.994	54.99
809.168	54.41
809.342	53.71
809.516	55.32
809.69	56.03
809.864	56.07
810.038	60
810.212	62.69
810.385	60.67
810.559	64.1
810.733	64.82
810.907	64.24
811.081	62.28
811.255	63.97
811.428	65.08
811.602	63.01
811.776	63.78
811.95	62.18
812.123	58.41
812.297	56.3
812.471	54.35
812.644	53.01
812.818	55.03
812.992	55.22
813.165	54.52
813.339	53.49
813.512	53.57
813.686	52.67
813.86	51.19
814.033	52.16
814.207	52.43
814.38	53
814.554	54.38
814.727	55.09
814.9	56.04
815.074	54.94
815.247	55.63
815.421	53.55
815.594	53.6
815.767	53.21
815.941	53.08
816.114	56.64
816.287	56.51
816.46	55.2
816.634	52.57
816.807	56.91
816.98	55.39
817.153	53.99
817.327	54.7
817.5	56.93
817.673	55.87
817.846	59.25
818.019	55.8
818.192	57.43
818.365	61.11
818.538	60.92
818.711	54.25
818.884	57.51
819.057	59.9
819.23	62.47
819.403	60.29
819.576	62.69
819.749	61.07
819.922	58.05
820.095	53.84
820.268	50.74
820.441	49.68
820.614	52.03
820.786	51.27
820.959	48.65
821.132	45.73
821.305	44.15
821.477	42.5
821.65	41.05
821.823	40.52
821.996	40.57
822.168	41.38
822.341	41.52
822.514	40.45
822.686	39.94
822.859	40.1
823.031	39.88
823.204	39.52
823.376	39.18
823.549	38.96
823.722	39.25
823.894	39.63
824.067	38.72
824.239	38.49
824.411	38.43
824.584	38.57
824.756	38.87
824.929	38.99
825.101	39.11
825.273	39.56
825.446	39.35
825.618	39.63
825.79	39.78
825.963	40.15
826.135	40.09
826.307	40.69
826.479	40.33
826.652	39.52
826.824	39.8
826.996	40.12
827.168	40.25
827.34	41.33
827.512	40.71
827.684	40.32
827.856	41.6
828.029	42.44
828.201	41.58
828.373	40.57
828.545	40.65
828.717	41.97
828.889	41.61
829.061	41.6
829.232	41.99
829.404	42.57
829.576	43.36
829.748	41.96
829.92	42.6
830.092	44.1
830.264	46.62
830.436	47.89
830.607	48.04
830.779	49.15
830.951	50.22
831.123	50.28
831.294	50.81
831.466	51.63
831.638	53.49
831.809	54.45
831.981	54.99
832.153	55.85
832.324	54.86
832.496	50.43
832.667	53.2
832.839	55.23
833.011	53.42
833.182	54.2
833.354	53.4
833.525	54.84
833.697	52.53
833.868	51.92
834.039	51.34
834.211	50.51
834.382	52.05
834.554	50.71
834.725	47.02
834.896	46.61
835.068	46.71
835.239	47.4
835.41	46.46
835.581	48.39
835.753	47.02
835.924	46.81
836.095	47.6
836.266	48.05
836.438	46.74
836.609	46.7
836.78	46.82
836.951	47.26
837.122	45.7
837.293	46.8
837.464	46.28
837.635	49.17
837.806	48.57
837.977	48.59
838.148	49.54
838.319	52.62
838.49	55.96
838.661	56.71
838.832	57.79
839.003	58.96
839.174	60.33
839.345	59.95
839.516	61.81
839.687	65.66
839.857	68.64
840.028	67.66
840.199	68.08
840.37	69.2
840.54	72.25
840.711	67.38
840.882	65.26
841.053	60.66
841.223	58.11
841.394	57.31
841.564	58.75
841.735	59.62
841.906	57.21
842.076	56.9
842.247	54.91
842.417	56.63
842.588	59.09
842.758	61.63
842.929	66.55
843.099	66.51
843.27	66.12
843.44	66.55
843.611	63.28
843.781	65.97
843.951	63.84
844.122	61.12
844.292	57.61
844.462	60.22
844.633	57.02
844.803	59.05
844.973	60.98
845.144	58.94
845.314	58.66
845.484	58.21
845.654	61.15
845.824	69.88
845.995	75.59
846.165	86.25
846.335	84.79
846.505	100.86
846.675	95.66
846.845	90.2
847.015	92.96
847.185	89.3
847.355	86.38
847.525	86.66
847.695	86.55
847.865	87.02
848.035	72.18
848.205	83.87
848.375	81.2
848.545	85.29
848.715	84.6
848.884	88.83
849.054	91.98
849.224	93.55
849.394	88.49
849.564	79.85
849.733	80.14
849.903	86.32
850.073	75.62
850.243	66.06
850.412	56.87
850.582	61.32
850.752	67.11
850.921	63.16
851.091	62.85
851.26	68.84
851.43	70.53
851.599	68.78
851.769	66.89
851.939	71.62
852.108	76.43
852.278	76.75
852.447	79.25
852.616	74.54
852.786	71.88
852.955	75.54
853.125	70.34
853.294	76
853.463	80.65
853.633	82.04
853.802	80.06
853.971	84
854.141	88.76
854.31	91.41
854.479	86.65
854.648	84.63
854.818	84.21
854.987	84.41
855.156	88.82
855.325	93.19
855.494	91.83
855.663	95.35
855.832	95.56
856.001	102.82
856.171	92.48
856.34	98.77
856.509	111.97
856.678	114.77
856.847	110.53
857.016	96.28
857.185	95.67
857.353	106.07
857.522	106.56
857.691	104.93
857.86	102.52
858.029	117.42
858.198	127.76
858.367	129.75
858.535	139.16
858.704	146.67
858.873	162.02
859.042	137.66
859.21	134.74
859.379	128.96
859.548	128.63
859.717	128.14
859.885	122.3
860.054	108.05
860.222	93.27
860.391	81.22
860.56	74.71
860.728	73.36
860.897	75.82
861.065	67.69
861.234	64.92
861.402	69.31
861.571	68
861.739	71.13
861.908	75.02
862.076	83.09
862.244	98.26
862.413	106.65
862.581	106.31
862.749	111.21
862.918	122.69
863.086	104.07
863.254	89.47
863.423	92.29
863.591	85.51
863.759	77.27
863.927	77.21
864.096	75.82
864.264	80.6
864.432	79.44
864.6	81.96
864.768	81.61
864.936	89.41
865.104	99.3
865.272	98.76
865.44	107.83
865.608	111.18
865.776	119.45
865.944	110.27
866.112	112.47
866.28	116.66
866.448	114.12
866.616	110.24
866.784	118.61
866.952	112.62
867.12	116.97
867.288	104.66
867.455	96.62
867.623	90.04
867.791	92.75
867.959	91.47
868.127	94.14
868.294	106.93
868.462	93.82
868.63	77.35
868.797	66.07
868.965	60.9
869.133	69.47
869.3	95.63
869.468	89.94
869.636	96.94
869.803	92.67
869.971	88.45
870.138	94.44
870.306	96.79
870.473	105.05
870.641	102.61
870.808	106.77
870.975	97.17
871.143	83.82
871.31	82.45
871.478	72.67
871.645	70.58
871.812	68.63
871.98	66.51
872.147	70.61
872.314	65.07
872.482	64.92
872.649	61.72
872.816	68.99
872.983	77.79
873.15	84.94
873.318	92.7
873.485	98.84
873.652	110.51
873.819	117.05
873.986	108.38
874.153	111.8
874.32	111.49
874.487	109.75
874.654	104.46
874.821	95.2
874.988	93
875.155	88.27
875.322	87.56
875.489	85.98
875.656	74.58
875.823	81.38
875.99	77.93
876.157	82.58
876.324	87.84
876.49	101.88
876.657	110.31
876.824	101.93
876.991	106.95
877.157	114.06
877.324	110.05
877.491	112.82
877.658	108.69
877.824	107.37
877.991	104.46
878.157	100.01
878.324	91.78
878.491	88.88
878.657	82.8
878.824	75.45
878.99	59.47
879.157	57.46
879.323	56.42
879.49	52
879.656	58.98
879.823	60.7
879.989	58.86
880.156	64.38
880.322	62.31
880.488	74.66
880.655	77.54
880.821	85.21
880.987	80.21
881.154	75.67
881.32	81.41
881.486	77.02
881.652	76.96
881.819	77.43
881.985	72.37
882.151	67.92
882.317	59.61
882.483	56.41
882.649	55.35
882.816	54.03
882.982	52.63
883.148	50.32
883.314	47.12
883.48	46.28
883.646	43.68
883.812	44.12
883.978	44.08
884.144	45.07
884.31	44.73
884.476	44.32
884.642	43.65
884.807	45.47
884.973	45.95
885.139	47.55
885.305	47.1
885.471	47.94
885.637	47.15
885.802	46.96
885.968	48.12
886.134	49.25
886.3	49.03
886.465	51.11
886.631	51.39
886.797	53.7
886.962	54.17
887.128	58.47
887.293	58.74
887.459	59.66
887.625	62.46
887.79	60.78
887.956	64.07
888.121	66.24
888.287	66.19
888.452	63.04
888.618	62.38
888.783	63.44
