Data from LC_152_Reflection_1.txt Node
Date: Mon Nov 16 22:08:44 EST 2015
User: robert
Spectrometer: USB4E03001
Autoset integration time: false
Trigger mode: 4
Integration Time (sec): 1.000000E-1
Scans to average: 15
Electric dark correction enabled: true
Nonlinearity correction enabled: false
Boxcar width: 5
Stray light correction enabled: false
XAxis mode: Wavelengths
Stop averaging: false
Number of Pixels in Spectrum: 3648
>>>>>Begin Spectral Data<<<<<
177.566	-3790.36
177.785	-138.69
178.005	1802.52
178.225	-58.08
178.445	35.52
178.665	31.16
178.885	-193
179.105	-656.07
179.324	-1075.23
179.544	175.04
179.764	97.07
179.984	186.66
180.204	103.32
180.423	83.8
180.643	34.8
180.863	-43.4
181.083	-30.94
181.302	-99.45
181.522	-90.75
181.742	-100.51
181.961	-249.25
182.181	-175.02
182.401	-287.8
182.621	-1239.89
182.84	-646.3
183.06	-470.67
183.279	-264.52
183.499	-188.76
183.719	-122.33
183.938	-85.2
184.158	-94.69
184.377	-38.15
184.597	-103.73
184.816	-60.82
185.036	-24.69
185.256	-6.96
185.475	2.83
185.695	-11.72
185.914	-80.38
186.134	-200.84
186.353	-331.86
186.572	-399.25
186.792	-633.26
187.011	-159.01
187.231	-170.3
187.45	-144.48
187.67	-485.69
187.889	-1833
188.108	3118.35
188.328	-627.19
188.547	-184.78
188.766	-399.36
188.986	-526.28
189.205	-326.27
189.424	-283.01
189.644	-681.87
189.863	-765.14
190.082	-425.55
190.302	-781.32
190.521	-410.53
190.74	554.53
190.959	265.1
191.178	323.36
191.398	293.15
191.617	228.08
191.836	145.05
192.055	232.58
192.274	142.32
192.494	162.29
192.713	93.32
192.932	202.13
193.151	321.19
193.37	649.13
193.589	-329.4
193.808	-25.54
194.027	-117.12
194.246	-1833.8
194.465	423.56
194.685	862.15
194.904	489.55
195.123	-560.8
195.342	-304.27
195.561	-88.74
195.78	-135.42
195.999	6353.52
196.218	368.82
196.436	253.5
196.655	-662.35
196.874	-161.52
197.093	-322.27
197.312	-82.32
197.531	813.12
197.75	439.47
197.969	-1229.31
198.188	-337.63
198.407	-78.12
198.625	-77.73
198.844	-71.08
199.063	-75.15
199.282	-186.29
199.501	-72.95
199.719	-13.62
199.938	33.51
200.157	22.54
200.376	-3.15
200.594	-3.03
200.813	-53.18
201.032	-60.17
201.251	-83.82
201.469	-97.62
201.688	-61.07
201.907	-193.54
202.125	-392.02
202.344	17488.1
202.563	2706.43
202.781	345.47
203	968.86
203.218	867.56
203.437	600.99
203.656	245.13
203.874	132.46
204.093	145.03
204.311	137.82
204.53	93.33
204.748	119.23
204.967	61.77
205.185	46.54
205.404	79.25
205.622	58.15
205.841	53.83
206.059	71.85
206.278	103.68
206.496	146.66
206.715	140.42
206.933	139.27
207.151	123.19
207.37	125.33
207.588	160.63
207.806	146.42
208.025	207.98
208.243	-364.98
208.461	643.2
208.68	-6194.12
208.898	365.73
209.116	288.07
209.335	357.26
209.553	318.48
209.771	3407.08
209.989	696.51
210.208	1524.9
210.426	-2502.39
210.644	1538.91
210.862	-1149.6
211.081	531.55
211.299	-181.88
211.517	1118.66
211.735	-280.93
211.953	-115328.57
212.171	-2521.69
212.39	-7085.59
212.608	-16165.22
212.826	751.93
213.044	495.31
213.262	423.52
213.48	2032.28
213.698	223.58
213.916	304.31
214.134	159.34
214.352	278.93
214.57	160.79
214.788	169.35
215.006	195.02
215.224	197.87
215.442	156.91
215.66	128.74
215.878	87.68
216.096	66.5
216.314	46.56
216.532	185.66
216.75	132.48
216.968	68.32
217.185	128.65
217.403	279.91
217.621	-264.3
217.839	-76.97
218.057	-48.07
218.275	531.1
218.492	205.14
218.71	236.71
218.928	66.5
219.146	110.29
219.363	123.76
219.581	115.83
219.799	81.25
220.017	70.33
220.234	56.63
220.452	79.37
220.67	77
220.887	94.34
221.105	129.24
221.323	79.94
221.54	70.45
221.758	87.97
221.976	68.5
222.193	43.8
222.411	41.82
222.629	79.35
222.846	75.56
223.064	83.29
223.281	70.13
223.499	61.88
223.716	73.21
223.934	64.23
224.151	68.04
224.369	60.05
224.586	70.22
224.804	73.14
225.021	62.34
225.239	51.99
225.456	49.04
225.674	53.77
225.891	43.54
226.108	53.53
226.326	54.82
226.543	46.36
226.76	45.93
226.978	38.67
227.195	40.76
227.413	33.47
227.63	28.44
227.847	23.11
228.064	18.64
228.282	18.63
228.499	14.98
228.716	11.78
228.934	11.22
229.151	14.95
229.368	16.9
229.585	15.96
229.802	16.05
230.02	15.99
230.237	16.15
230.454	17.92
230.671	16.03
230.888	14.57
231.105	16.94
231.323	16.81
231.54	12.95
231.757	8.55
231.974	9.71
232.191	6.71
232.408	5.43
232.625	5.46
232.842	2.88
233.059	8.64
233.276	16.38
233.493	11.7
233.71	12.99
233.927	14.01
234.144	15.62
234.361	13.26
234.578	16.12
234.795	16.24
235.012	18.18
235.229	19.96
235.446	20.95
235.663	19.37
235.879	25.21
236.096	20.98
236.313	18.84
236.53	18.46
236.747	17.65
236.964	17.33
237.181	19.49
237.397	16.57
237.614	13.63
237.831	8.73
238.048	9.28
238.264	5.51
238.481	7.7
238.698	8.13
238.915	9.01
239.131	13.91
239.348	16.06
239.565	15.88
239.781	17.08
239.998	18.45
240.215	19.1
240.431	18.66
240.648	18.3
240.865	19.74
241.081	20.72
241.298	20.09
241.514	19.51
241.731	18.12
241.947	19.55
242.164	18.97
242.38	18.48
242.597	18.47
242.814	18.32
243.03	18.38
243.246	18.23
243.463	18.18
243.679	18.54
243.896	17.01
244.112	17.81
244.329	16.12
244.545	15.99
244.762	15.98
244.978	17.07
245.194	18.06
245.411	16.98
245.627	16.96
245.843	16.2
246.06	15.97
246.276	15.84
246.492	14.61
246.709	14.74
246.925	14.05
247.141	13.84
247.357	13.62
247.574	12.72
247.79	12.99
248.006	12.18
248.222	11.94
248.439	10.78
248.655	10.92
248.871	10.68
249.087	10.2
249.303	9.74
249.519	9.87
249.736	10.22
249.952	10.26
250.168	9.79
250.384	10.75
250.6	12.03
250.816	13.25
251.032	13.25
251.248	13.15
251.464	13.44
251.68	14.82
251.896	15.41
252.112	14.18
252.328	15.26
252.544	15.22
252.76	15.06
252.976	13.37
253.192	13.93
253.408	12.39
253.624	15.41
253.84	14.67
254.056	15.68
254.272	15.25
254.487	16.57
254.703	15
254.919	13.47
255.135	13.28
255.351	14.61
255.567	17.58
255.782	19.95
255.998	16.82
256.214	17.59
256.43	15.12
256.646	15.71
256.861	14.04
257.077	13.94
257.293	14.29
257.508	14.56
257.724	16.51
257.94	15.98
258.155	14.77
258.371	14.44
258.587	12.8
258.802	13.09
259.018	13.48
259.234	13.13
259.449	13.13
259.665	12.64
259.88	12.54
260.096	11.91
260.312	11.28
260.527	11.41
260.743	11.53
260.958	12.31
261.174	11.58
261.389	11.34
261.605	11.45
261.82	11.64
262.036	12.58
262.251	13.11
262.466	12.81
262.682	13.79
262.897	13.16
263.113	12.23
263.328	13.03
263.543	13.55
263.759	14.16
263.974	16.11
264.189	15.9
264.405	15.78
264.62	14.9
264.835	15.85
265.051	14.87
265.266	17.4
265.481	18.06
265.696	17.01
265.912	16.75
266.127	15.06
266.342	13.24
266.557	13.39
266.773	13.13
266.988	12.59
267.203	12.68
267.418	11.39
267.633	9.62
267.848	11.06
268.064	10.06
268.279	11.66
268.494	10.85
268.709	11.15
268.924	11.92
269.139	11.4
269.354	11.79
269.569	10.79
269.784	11.55
269.999	11.94
270.214	10.44
270.429	12.04
270.644	10.76
270.859	10.94
271.074	10.57
271.289	10.7
271.504	10.98
271.719	10.72
271.934	11.54
272.149	10.96
272.363	11.12
272.578	10.33
272.793	9.69
273.008	9.66
273.223	9.61
273.438	8.73
273.653	7.95
273.867	8.3
274.082	8.34
274.297	8.27
274.512	8.9
274.726	8.87
274.941	10.43
275.156	10.69
275.371	11.27
275.585	11.97
275.8	14.28
276.015	14.52
276.229	13.94
276.444	14.35
276.659	13.94
276.873	14.09
277.088	12.73
277.302	12.27
277.517	11.14
277.732	12.82
277.946	12.16
278.161	11.77
278.375	11.48
278.59	11.05
278.804	11.4
279.019	10.94
279.233	10.91
279.448	12.63
279.662	11.17
279.877	12.39
280.091	11.62
280.306	11.67
280.52	11.28
280.735	10.52
280.949	10.53
281.163	9.62
281.378	9.09
281.592	7.97
281.806	7.68
282.021	8.09
282.235	8.1
282.449	7.65
282.664	8.85
282.878	8.82
283.092	9.2
283.307	9.55
283.521	9.87
283.735	10.04
283.949	11.12
284.164	11.25
284.378	11.39
284.592	10.25
284.806	10.16
285.02	9.35
285.234	9.26
285.449	9.03
285.663	8.98
285.877	8.69
286.091	8.54
286.305	7.92
286.519	7.08
286.733	6.44
286.947	7.12
287.161	7.44
287.375	7.66
287.589	8.04
287.803	8.78
288.017	9.19
288.231	9.4
288.445	10.31
288.659	11.13
288.873	11.48
289.087	12.32
289.301	11.75
289.515	10.93
289.729	10.05
289.943	8.89
290.157	8.8
290.371	9.52
290.584	9.51
290.798	9.96
291.012	10.21
291.226	10.29
291.44	11.34
291.654	11.66
291.867	11.67
292.081	12.08
292.295	12.76
292.509	12.33
292.722	11.47
292.936	12.08
293.15	12.1
293.364	12.2
293.577	12.68
293.791	11.53
294.005	12.96
294.218	13.72
294.432	14.36
294.645	14.32
294.859	13.89
295.073	13.52
295.286	12.48
295.5	11.18
295.713	10.96
295.927	10.82
296.14	10.82
296.354	9.65
296.568	8.75
296.781	8.82
296.994	9.2
297.208	8.98
297.421	8.99
297.635	9.34
297.848	9.6
298.062	9.34
298.275	9.77
298.489	10.36
298.702	10.62
298.915	11.01
299.129	10.84
299.342	10.16
299.555	10.75
299.769	10.28
299.982	10.18
300.195	10.47
300.409	11.43
300.622	10.99
300.835	11.05
301.048	11.27
301.262	10.97
301.475	10.02
301.688	10.48
301.901	10.63
302.115	11.26
302.328	11.8
302.541	11.61
302.754	11.44
302.967	11.75
303.18	11.83
303.393	11.32
303.607	10.88
303.82	11.4
304.033	11.66
304.246	11.6
304.459	12.44
304.672	11.8
304.885	11.85
305.098	11.19
305.311	10.89
305.524	10.3
305.737	10.66
305.95	12.43
306.163	13.49
306.376	13.52
306.589	13.24
306.802	12.38
307.015	13.17
307.228	14.04
307.44	13.57
307.653	13.78
307.866	12.73
308.079	13.54
308.292	13.14
308.505	12.72
308.718	11.84
308.93	11.62
309.143	11.32
309.356	10.3
309.569	9.64
309.781	10.41
309.994	10.57
310.207	11.25
310.42	10.5
310.632	10.07
310.845	10.48
311.058	10
311.27	11.24
311.483	11.79
311.696	12.14
311.908	11.86
312.121	12.1
312.333	12.85
312.546	13
312.759	13.65
312.971	13.86
313.184	13.89
313.396	14.52
313.609	14.75
313.821	14.26
314.034	14.86
314.246	15.53
314.459	15.12
314.671	14.7
314.884	14.11
315.096	12.77
315.309	12.2
315.521	11.95
315.733	11.46
315.946	9.78
316.158	9.34
316.371	8.09
316.583	7.89
316.795	7.92
317.008	8.07
317.22	10.32
317.432	10.63
317.644	11.1
317.857	9.51
318.069	11.09
318.281	10.84
318.494	11.28
318.706	12.2
318.918	11.75
319.13	12.4
319.342	12.35
319.555	11.53
319.767	11.62
319.979	11.08
320.191	11.59
320.403	11.28
320.615	13.24
320.827	13.55
321.039	13.67
321.252	13.82
321.464	11.79
321.676	11.18
321.888	9.64
322.1	10.17
322.312	9.45
322.524	9.35
322.736	9.5
322.948	8.41
323.16	7.86
323.372	8.51
323.584	9.21
323.796	9.93
324.007	9.02
324.219	9.75
324.431	9.37
324.643	10.4
324.855	11.22
325.067	10.57
325.279	10.08
325.491	10.74
325.702	9.42
325.914	8.61
326.126	9.15
326.338	10.04
326.55	10.18
326.761	11.06
326.973	10.47
327.185	10.64
327.396	11.18
327.608	12.16
327.82	12.82
328.032	13.26
328.243	13.36
328.455	13.88
328.666	13.73
328.878	13.11
329.09	11.76
329.301	12.26
329.513	11.52
329.725	11.78
329.936	10.78
330.148	10.06
330.359	9.84
330.571	9.79
330.782	9.26
330.994	10.49
331.205	11.2
331.417	12.02
331.628	12.37
331.84	12.81
332.051	12.29
332.262	13.79
332.474	12.77
332.685	14.04
332.897	14.17
333.108	14.18
333.319	12.1
333.531	11.92
333.742	11.76
333.953	11.11
334.165	10.65
334.376	10.5
334.587	8.97
334.799	9.85
335.01	9.37
335.221	8.86
335.432	8.44
335.644	8.98
335.855	9.3
336.066	9.68
336.277	10.23
336.488	10.81
336.7	10.07
336.911	10.38
337.122	9.63
337.333	9.73
337.544	10.45
337.755	11.11
337.966	10.91
338.177	10.37
338.388	10.12
338.599	9.94
338.811	9.62
339.022	10.29
339.233	10.26
339.444	10.98
339.655	9.5
339.866	9.19
340.076	8.94
340.287	9.36
340.498	9.76
340.709	9.02
340.92	7.77
341.131	7.61
341.342	7.42
341.553	7.21
341.764	6.95
341.975	8.28
342.185	7.83
342.396	7.34
342.607	7.58
342.818	6.84
343.029	7.36
343.239	8.31
343.45	8.11
343.661	7.61
343.872	7.98
344.082	8.22
344.293	7.49
344.504	8.06
344.714	7.63
344.925	6.87
345.136	7.44
345.346	7.89
345.557	8.59
345.768	8.29
345.978	8.5
346.189	8.71
346.399	8.42
346.61	9.24
346.821	9.29
347.031	10.09
347.242	9.71
347.452	9.69
347.663	9.07
347.873	8.45
348.084	8.62
348.294	9.34
348.504	8.6
348.715	8.29
348.925	7.87
349.136	7.26
349.346	6.18
349.557	6.85
349.767	7.61
349.977	7.52
350.188	8
350.398	8.62
350.608	8.29
350.819	8.5
351.029	8.67
351.239	8.87
351.449	9.65
351.66	10.76
351.87	11.25
352.08	10.29
352.29	10.44
352.501	9.85
352.711	8.83
352.921	8.57
353.131	8.82
353.341	9.02
353.552	8.44
353.762	7.89
353.972	7.19
354.182	7.3
354.392	7.01
354.602	7.09
354.812	7.03
355.022	7.91
355.232	7.69
355.442	7.59
355.652	8.01
355.862	8.21
356.072	8.02
356.282	7.57
356.492	7.3
356.702	7.54
356.912	7.49
357.122	7.5
357.332	7.11
357.542	7.4
357.752	7.86
357.962	7.57
358.171	7.44
358.381	8.26
358.591	9.21
358.801	8.77
359.011	9.39
359.221	9.18
359.43	9.38
359.64	9.89
359.85	10.13
360.06	9.57
360.269	9.62
360.479	9.51
360.689	8.71
360.899	7.96
361.108	8.18
361.318	7.9
361.528	7.7
361.737	7.27
361.947	6.98
362.156	7.05
362.366	7.24
362.576	7.09
362.785	7.06
362.995	7.02
363.204	7.22
363.414	7.13
363.623	7.37
363.833	7.79
364.042	8.34
364.252	8.58
364.461	8.25
364.671	8.13
364.88	8.25
365.09	8.59
365.299	8.78
365.509	8.6
365.718	8.18
365.927	7.17
366.137	7.38
366.346	7.4
366.555	7.2
366.765	7.21
366.974	6.76
367.183	6.58
367.393	6.01
367.602	6.05
367.811	6.44
368.021	6.45
368.23	7.22
368.439	6.32
368.648	6.4
368.857	6.75
369.067	6.81
369.276	6.87
369.485	7.6
369.694	8.1
369.903	8.75
370.112	8.49
370.321	8.79
370.531	8.26
370.74	8.72
370.949	8.1
371.158	7.53
371.367	7.75
371.576	7.87
371.785	6.72
371.994	6.52
372.203	5.89
372.412	6.41
372.621	6.68
372.83	6.88
373.039	7.16
373.248	7.01
373.457	7.14
373.666	6.79
373.874	6.55
374.083	7.25
374.292	7.33
374.501	7.2
374.71	6.91
374.919	6.94
375.128	6.71
375.336	6.51
375.545	6.94
375.754	6.77
375.963	6.66
376.171	6.72
376.38	6.78
376.589	7.12
376.798	6.95
377.006	6.85
377.215	6.98
377.424	7.16
377.632	7.29
377.841	7.56
378.05	7.11
378.258	7.04
378.467	7.26
378.675	7
378.884	6.53
379.093	6.91
379.301	6.51
379.51	5.96
379.718	6.27
379.927	6.11
380.135	5.64
380.344	6.23
380.552	6.13
380.761	5.93
380.969	5.59
381.177	5.57
381.386	5.6
381.594	5.88
381.803	5.98
382.011	5.56
382.219	5.33
382.428	4.83
382.636	4.54
382.845	5.21
383.053	5.24
383.261	5.3
383.469	5.88
383.678	5.66
383.886	5.9
384.094	5.92
384.302	5.83
384.511	6.25
384.719	6.48
384.927	6.63
385.135	6.08
385.343	6.24
385.552	6.04
385.76	5.35
385.968	5.3
386.176	4.87
386.384	4.57
386.592	4.63
386.8	4.02
387.008	4.64
387.216	4.66
387.424	4.56
387.633	4.65
387.841	4.99
388.049	5.39
388.257	5.17
388.465	5.34
388.672	5.73
388.88	5.71
389.088	5.94
389.296	5.58
389.504	5.83
389.712	6.14
389.92	5.97
390.128	5.74
390.336	5.51
390.544	5.82
390.751	5.47
390.959	5.31
391.167	5.45
391.375	5.61
391.583	5.48
391.79	5.05
391.998	4.89
392.206	4.93
392.414	4.88
392.621	5.03
392.829	5.27
393.037	5.58
393.244	5.52
393.452	5.79
393.66	5.83
393.867	5.98
394.075	6.4
394.283	6.45
394.49	6.33
394.698	6.52
394.905	6.18
395.113	5.8
395.32	5.86
395.528	5.84
395.735	5.39
395.943	5.18
396.15	4.92
396.358	4.78
396.565	4.76
396.773	5.22
396.98	5.17
397.188	5.25
397.395	5.34
397.602	5.06
397.81	4.86
398.017	5.22
398.225	4.93
398.432	5.42
398.639	5.51
398.847	5.62
399.054	5.14
399.261	5.22
399.468	5.41
399.676	5.18
399.883	5.61
400.09	5.82
400.297	5.57
400.505	5.95
400.712	5.42
400.919	5.28
401.126	5.25
401.333	5.26
401.54	5.16
401.748	5.23
401.955	5.52
402.162	5.09
402.369	5.09
402.576	5.16
402.783	5.28
402.99	5.69
403.197	5.43
403.404	5.12
403.611	5.07
403.818	5.22
404.025	5.25
404.232	5.02
404.439	5.13
404.646	5.06
404.853	4.89
405.06	4.7
405.267	4.31
405.474	4.46
405.681	4.53
405.887	4.43
406.094	4.34
406.301	4.43
406.508	4.58
406.715	4.79
406.922	4.87
407.128	4.94
407.335	4.96
407.542	5.16
407.749	5.28
407.955	5.41
408.162	5.63
408.369	5.77
408.575	5.54
408.782	5.44
408.989	5.34
409.195	5.46
409.402	5.46
409.609	5.63
409.815	5.72
410.022	5.83
410.228	5.76
410.435	5.78
410.642	5.48
410.848	5.59
411.055	5.66
411.261	5.77
411.468	5.9
411.674	5.78
411.881	5.59
412.087	5.81
412.294	5.64
412.5	5.57
412.706	5.42
412.913	5.55
413.119	5.19
413.326	4.91
413.532	4.77
413.738	4.55
413.945	4.97
414.151	4.85
414.357	4.56
414.564	4.53
414.77	4.59
414.976	4.61
415.182	4.63
415.389	4.82
415.595	4.82
415.801	4.5
416.007	4.6
416.214	4.38
416.42	4.54
416.626	4.48
416.832	4.2
417.038	4.17
417.244	4.38
417.45	4.28
417.657	4.54
417.863	4.76
418.069	4.97
418.275	4.96
418.481	4.93
418.687	4.91
418.893	5
419.099	5.14
419.305	5.33
419.511	5.23
419.717	5.28
419.923	5.02
420.129	5.01
420.335	5.02
420.541	5.11
420.746	5.14
420.952	5.13
421.158	5.04
421.364	4.99
421.57	4.98
421.776	4.91
421.982	4.91
422.187	4.89
422.393	4.89
422.599	4.76
422.805	4.62
423.01	4.58
423.216	4.46
423.422	4.51
423.628	4.58
423.833	4.37
424.039	4.46
424.245	4.49
424.45	4.58
424.656	4.5
424.862	4.57
425.067	4.56
425.273	4.45
425.478	4.65
425.684	4.63
425.889	4.82
426.095	5.02
426.301	5.01
426.506	5.03
426.712	5.1
426.917	5.12
427.123	5.3
427.328	5.39
427.533	5.65
427.739	5.49
427.944	5.62
428.15	5.35
428.355	5.19
428.561	5.11
428.766	4.9
428.971	4.71
429.177	4.82
429.382	4.8
429.587	4.94
429.793	4.82
429.998	4.85
430.203	4.57
430.408	4.68
430.614	4.79
430.819	4.88
431.024	5.06
431.229	5.3
431.434	5.35
431.64	5.12
431.845	5.04
432.05	5.15
432.255	5.25
432.46	5.31
432.665	5.21
432.87	5.1
433.076	5.14
433.281	5.22
433.486	5.05
433.691	4.87
433.896	4.93
434.101	4.83
434.306	4.8
434.511	4.7
434.716	4.8
434.921	4.89
435.126	4.84
435.331	4.77
435.535	4.72
435.74	4.86
435.945	4.95
436.15	4.89
436.355	5.03
436.56	5.05
436.765	5.12
436.97	4.85
437.174	4.86
437.379	5.03
437.584	4.98
437.789	4.91
437.993	4.88
438.198	4.84
438.403	4.93
438.608	4.95
438.812	4.82
439.017	4.74
439.222	4.85
439.426	4.76
439.631	4.72
439.836	4.67
440.04	4.7
440.245	4.6
440.45	4.62
440.654	4.52
440.859	4.32
441.063	4.36
441.268	4.42
441.472	4.49
441.677	4.45
441.881	4.37
442.086	4.44
442.29	4.35
442.495	4.38
442.699	4.38
442.904	4.44
443.108	4.55
443.312	4.51
443.517	4.47
443.721	4.43
443.925	4.35
444.13	4.53
444.334	4.53
444.538	4.58
444.743	4.56
444.947	4.48
445.151	4.42
445.356	4.35
445.56	4.46
445.764	4.46
445.968	4.45
446.173	4.5
446.377	4.59
446.581	4.49
446.785	4.45
446.989	4.5
447.193	4.7
447.398	4.74
447.602	4.74
447.806	4.74
448.01	4.84
448.214	4.88
448.418	4.96
448.622	4.91
448.826	4.96
449.03	5.04
449.234	5.13
449.438	4.88
449.642	4.89
449.846	4.81
450.05	4.67
450.254	4.51
450.458	4.55
450.662	4.51
450.866	4.31
451.069	4.35
451.273	4.25
451.477	4.08
451.681	4.23
451.885	4.15
452.089	4.35
452.292	4.3
452.496	4.35
452.7	4.27
452.904	4.3
453.107	4.36
453.311	4.53
453.515	4.6
453.719	4.62
453.922	4.49
454.126	4.57
454.33	4.51
454.533	4.51
454.737	4.42
454.94	4.35
455.144	4.44
455.348	4.45
455.551	4.34
455.755	4.38
455.958	4.55
456.162	4.59
456.365	4.63
456.569	4.54
456.772	4.53
456.976	4.58
457.179	4.59
457.383	4.45
457.586	4.45
457.79	4.39
457.993	4.39
458.196	4.14
458.4	4.25
458.603	4.17
458.807	4.33
459.01	4.41
459.213	4.39
459.417	4.26
459.62	4.22
459.823	4.15
460.026	4.12
460.23	4.12
460.433	4.22
460.636	4.13
460.839	4.19
461.042	4.15
461.246	4.23
461.449	4.26
461.652	4.44
461.855	4.41
462.058	4.5
462.261	4.37
462.464	4.33
462.668	4.39
462.871	4.42
463.074	4.33
463.277	4.19
463.48	4.24
463.683	4.24
463.886	4.16
464.089	4.19
464.292	4.23
464.495	4.44
464.698	4.29
464.901	4.14
465.104	4.18
465.306	4.19
465.509	4.37
465.712	4.21
465.915	4.19
466.118	4.14
466.321	4.17
466.524	4.06
466.726	4.19
466.929	4.31
467.132	4.36
467.335	4.29
467.538	4.19
467.74	4.16
467.943	4.31
468.146	4.43
468.348	4.51
468.551	4.6
468.754	4.71
468.956	4.68
469.159	4.7
469.362	4.84
469.564	4.71
469.767	4.84
469.969	4.84
470.172	4.54
470.375	4.4
470.577	4.44
470.78	4.44
470.982	4.35
471.185	4.33
471.387	4.4
471.59	4.36
471.792	4.51
471.995	4.42
472.197	4.28
472.399	4.26
472.602	4.37
472.804	4.3
473.007	4.17
473.209	4.14
473.411	4
473.614	3.97
473.816	3.9
474.018	3.92
474.22	4.04
474.423	4.2
474.625	4.31
474.827	4.31
475.03	4.48
475.232	4.65
475.434	4.67
475.636	4.79
475.838	4.68
476.04	4.6
476.243	4.51
476.445	4.44
476.647	4.45
476.849	4.45
477.051	4.31
477.253	4.28
477.455	4.18
477.657	4.12
477.859	4.26
478.061	4.16
478.263	4.28
478.465	4.41
478.667	4.41
478.869	4.15
479.071	4.15
479.273	4.21
479.475	4.03
479.677	4.06
479.879	3.97
480.081	3.95
480.283	4
480.485	3.88
480.686	3.81
480.888	3.89
481.09	4.03
481.292	3.94
481.494	3.86
481.695	3.95
481.897	3.83
482.099	3.98
482.301	3.95
482.502	4.01
482.704	4.05
482.906	4.07
483.107	4.05
483.309	4.05
483.511	4.12
483.712	4.11
483.914	4.05
484.115	4.11
484.317	4.08
484.519	4.1
484.72	4.08
484.922	4.08
485.123	4.09
485.325	4.05
485.526	4.06
485.728	4.05
485.929	4.04
486.131	4.13
486.332	4.12
486.534	4.1
486.735	4.05
486.936	4.01
487.138	3.97
487.339	3.93
487.541	3.98
487.742	3.99
487.943	3.99
488.144	4.03
488.346	3.92
488.547	3.9
488.748	3.95
488.95	3.9
489.151	3.98
489.352	4
489.553	4
489.755	4
489.956	3.98
490.157	3.98
490.358	3.95
490.559	4.13
490.76	4.08
490.961	4.01
491.163	4.09
491.364	4.18
491.565	4.17
491.766	4.18
491.967	4.2
492.168	4.18
492.369	4.25
492.57	4.3
492.771	4.22
492.972	4.27
493.173	4.36
493.374	4.28
493.575	4.16
493.776	4.23
493.976	4.28
494.177	4.21
494.378	4.31
494.579	4.13
494.78	4.23
494.981	4.21
495.182	4.21
495.382	4.24
495.583	4.18
495.784	4.15
495.985	4.04
496.185	3.98
496.386	4.05
496.587	4.11
496.788	4.15
496.988	4.08
497.189	4.14
497.39	4.22
497.59	4.11
497.791	4.19
497.992	4.17
498.192	4.29
498.393	4.42
498.593	4.38
498.794	4.29
498.994	4.35
499.195	4.33
499.395	4.35
499.596	4.34
499.796	4.39
499.997	4.46
500.197	4.68
500.398	4.69
500.598	4.61
500.799	4.66
500.999	4.73
501.199	4.68
501.4	4.65
501.6	4.71
501.801	4.65
502.001	4.76
502.201	4.82
502.402	4.63
502.602	4.58
502.802	4.61
503.002	4.73
503.203	4.77
503.403	4.73
503.603	4.85
503.803	4.68
504.003	4.62
504.204	4.64
504.404	4.56
504.604	4.67
504.804	4.7
505.004	4.69
505.204	4.58
505.404	4.7
505.604	4.8
505.804	4.69
506.005	4.74
506.205	4.9
506.405	5.02
506.605	5.18
506.805	5.17
507.005	5.2
507.204	5.23
507.404	5.23
507.604	5.12
507.804	5.19
508.004	5.33
508.204	5.31
508.404	5.29
508.604	5.12
508.804	5.04
509.003	5.04
509.203	4.96
509.403	4.96
509.603	4.91
509.803	4.96
510.002	4.95
510.202	4.85
510.402	4.91
510.602	4.93
510.801	5.02
511.001	4.98
511.201	5.02
511.4	5.14
511.6	5.24
511.8	5.28
511.999	5.36
512.199	5.31
512.398	5.46
512.598	5.49
512.797	5.61
512.997	5.65
513.197	5.71
513.396	5.68
513.596	5.65
513.795	5.7
513.994	5.75
514.194	5.6
514.393	5.79
514.593	5.73
514.792	5.83
514.992	5.75
515.191	5.62
515.39	5.6
515.59	5.63
515.789	5.57
515.988	5.58
516.188	5.66
516.387	5.7
516.586	5.46
516.786	5.44
516.985	5.4
517.184	5.4
517.383	5.56
517.582	5.72
517.782	5.77
517.981	5.79
518.18	5.72
518.379	5.81
518.578	5.77
518.777	5.8
518.976	5.8
519.176	5.91
519.375	5.91
519.574	5.9
519.773	5.81
519.972	5.72
520.171	5.78
520.37	5.82
520.569	5.78
520.768	5.8
520.967	5.92
521.166	5.91
521.365	5.9
521.564	6
521.762	6.1
521.961	6.1
522.16	6.2
522.359	6.16
522.558	6.2
522.757	6.2
522.956	6.29
523.154	6.23
523.353	6.36
523.552	6.31
523.751	6.4
523.949	6.29
524.148	6.39
524.347	6.42
524.546	6.56
524.744	6.51
524.943	6.52
525.142	6.39
525.34	6.53
525.539	6.52
525.737	6.55
525.936	6.51
526.135	6.48
526.333	6.44
526.532	6.47
526.73	6.46
526.929	6.47
527.127	6.52
527.326	6.56
527.524	6.51
527.723	6.52
527.921	6.55
528.12	6.57
528.318	6.64
528.516	6.68
528.715	6.67
528.913	6.64
529.112	6.6
529.31	6.54
529.508	6.57
529.707	6.6
529.905	6.64
530.103	6.65
530.301	6.65
530.5	6.63
530.698	6.67
530.896	6.73
531.094	6.81
531.293	6.99
531.491	7.14
531.689	7.19
531.887	7.31
532.085	7.33
532.283	7.38
532.481	7.46
532.68	7.48
532.878	7.51
533.076	7.53
533.274	7.51
533.472	7.53
533.67	7.48
533.868	7.55
534.066	7.51
534.264	7.44
534.462	7.43
534.66	7.4
534.858	7.45
535.056	7.42
535.253	7.43
535.451	7.44
535.649	7.45
535.847	7.58
536.045	7.56
536.243	7.62
536.441	7.85
536.638	7.89
536.836	7.93
537.034	7.95
537.232	7.99
537.43	8.02
537.627	8.18
537.825	8.16
538.023	8.14
538.22	8.29
538.418	8.22
538.616	8.2
538.813	8.31
539.011	8.45
539.209	8.49
539.406	8.51
539.604	8.6
539.801	8.69
539.999	8.85
540.196	9.03
540.394	9
540.591	9.14
540.789	9.17
540.986	9.16
541.184	9.14
541.381	9.2
541.579	9.26
541.776	9.26
541.974	9.2
542.171	9.24
542.368	9.18
542.566	9.19
542.763	9.23
542.96	9.22
543.158	9.3
543.355	9.35
543.552	9.44
543.75	9.54
543.947	9.46
544.144	9.5
544.341	9.62
544.539	9.65
544.736	9.75
544.933	9.65
545.13	9.81
545.327	9.79
545.524	9.76
545.722	9.77
545.919	9.78
546.116	10.03
546.313	10.03
546.51	9.97
546.707	9.96
546.904	10
547.101	10.1
547.298	10.08
547.495	10.17
547.692	10.26
547.889	10.24
548.086	10.34
548.283	10.47
548.48	10.62
548.677	10.63
548.874	10.78
549.07	10.89
549.267	11.09
549.464	11.2
549.661	11.24
549.858	11.32
550.055	11.41
550.251	11.41
550.448	11.46
550.645	11.59
550.842	11.62
551.038	11.73
551.235	11.59
551.432	11.48
551.628	11.38
551.825	11.49
552.022	11.54
552.218	11.66
552.415	11.75
552.612	11.59
552.808	11.5
553.005	11.48
553.201	11.55
553.398	11.67
553.594	11.77
553.791	11.99
553.987	11.98
554.184	12.13
554.38	12.05
554.577	11.95
554.773	12.19
554.97	12.46
555.166	12.75
555.362	12.68
555.559	12.79
555.755	12.85
555.952	12.8
556.148	12.87
556.344	12.72
556.541	12.77
556.737	12.91
556.933	13.05
557.129	12.87
557.326	12.8
557.522	13.01
557.718	12.98
557.914	12.99
558.11	13.25
558.307	13.31
558.503	13.62
558.699	13.8
558.895	13.96
559.091	13.77
559.287	13.85
559.483	13.92
559.679	14.06
559.876	14.13
560.072	14.16
560.268	13.99
560.464	14.05
560.66	13.83
560.856	14.06
561.052	13.98
561.247	14
561.443	14.17
561.639	14.25
561.835	14.15
562.031	14.26
562.227	14.34
562.423	14.57
562.619	14.78
562.815	15.07
563.01	15.03
563.206	15.12
563.402	15.21
563.598	15.1
563.793	15.11
563.989	15.09
564.185	15.13
564.381	15.4
564.576	15.44
564.772	15.31
564.968	15.32
565.163	15.1
565.359	14.89
565.555	15.09
565.75	15.13
565.946	15.23
566.141	15.28
566.337	15.33
566.532	15.28
566.728	15.26
566.923	15.29
567.119	15.29
567.314	15.43
567.51	15.76
567.705	15.84
567.901	15.85
568.096	15.91
568.292	16.09
568.487	16.05
568.682	16.2
568.878	16.22
569.073	16.36
569.268	16.27
569.464	16.48
569.659	16.58
569.854	16.62
570.05	16.66
570.245	16.64
570.44	16.71
570.635	16.99
570.831	16.76
571.026	16.83
571.221	16.77
571.416	16.86
571.611	16.87
571.806	16.89
572.002	16.88
572.197	17.04
572.392	16.99
572.587	17.05
572.782	17.04
572.977	17.24
573.172	17.38
573.367	17.49
573.562	17.57
573.757	17.45
573.952	17.39
574.147	17.45
574.342	17.72
574.537	17.88
574.732	17.86
574.927	17.66
575.121	17.78
575.316	17.72
575.511	17.68
575.706	17.59
575.901	17.72
576.096	17.94
576.29	17.96
576.485	17.73
576.68	17.93
576.875	17.94
577.069	18.19
577.264	18.1
577.459	18.27
577.654	18.29
577.848	18.66
578.043	18.73
578.238	18.6
578.432	18.48
578.627	18.52
578.821	18.37
579.016	18.27
579.21	18.33
579.405	18.23
579.6	18.27
579.794	18.4
579.989	18.19
580.183	18.45
580.378	18.47
580.572	18.71
580.766	18.8
580.961	18.63
581.155	18.91
581.35	18.84
581.544	19.04
581.738	18.9
581.933	19.07
582.127	19.3
582.321	19.19
582.516	19.42
582.71	19.49
582.904	19.55
583.099	19.56
583.293	19.42
583.487	19.58
583.681	19.64
583.875	19.64
584.07	19.73
584.264	19.52
584.458	19.46
584.652	19.25
584.846	19.1
585.04	19.23
585.234	19.44
585.428	19.68
585.623	19.5
585.817	19.26
586.011	19.42
586.205	19.51
586.399	19.69
586.593	19.79
586.787	19.86
586.981	19.99
587.174	19.69
587.368	19.57
587.562	19.68
587.756	19.74
587.95	20
588.144	19.96
588.338	19.75
588.532	19.79
588.725	19.75
588.919	19.88
589.113	19.71
589.307	19.95
589.501	20.09
589.694	19.97
589.888	19.99
590.082	19.95
590.275	20.25
590.469	20.45
590.663	20.21
590.856	20.26
591.05	20.22
591.244	20.48
591.437	20.48
591.631	20.6
591.824	20.51
592.018	20.69
592.212	20.93
592.405	20.63
592.599	20.69
592.792	20.98
592.986	21.09
593.179	21.33
593.372	21.29
593.566	21.36
593.759	21.3
593.953	21.36
594.146	21.24
594.339	21.17
594.533	21.37
594.726	21.52
594.92	21.44
595.113	21.42
595.306	21.26
595.499	21.17
595.693	21.2
595.886	21.37
596.079	21.63
596.272	21.66
596.466	21.73
596.659	21.9
596.852	21.66
597.045	21.72
597.238	21.64
597.431	21.73
597.624	21.8
597.818	21.82
598.011	21.64
598.204	21.39
598.397	21.45
598.59	21.27
598.783	21.11
598.976	21.18
599.169	21.18
599.362	21.22
599.555	21.16
599.748	21.41
599.941	21.34
600.134	21.49
600.326	21.6
600.519	21.74
600.712	21.79
600.905	21.64
601.098	21.75
601.291	21.73
601.483	21.82
601.676	21.95
601.869	21.82
602.062	22.21
602.255	22.18
602.447	22.33
602.64	22.28
602.833	22.42
603.025	22.26
603.218	22.12
603.411	22.15
603.603	22.12
603.796	22.06
603.989	22.26
604.181	22.05
604.374	22.26
604.566	22.14
604.759	22.11
604.951	22.13
605.144	22.47
605.336	22.66
605.529	22.79
605.721	22.96
605.914	23.08
606.106	23.18
606.299	23.32
606.491	23.24
606.683	23.4
606.876	23.31
607.068	23.36
607.26	23.33
607.453	23.36
607.645	23.31
607.837	23.23
608.03	23.18
608.222	22.89
608.414	23.12
608.606	23.13
608.799	23.09
608.991	23.22
609.183	23.4
609.375	23.26
609.567	23.02
609.759	23.16
609.952	23.17
610.144	23.22
610.336	23.2
610.528	22.89
610.72	22.99
610.912	23.09
611.104	23.12
611.296	22.97
611.488	23.14
611.68	23.52
611.872	23.37
612.064	23.66
612.256	23.85
612.448	23.77
612.64	23.68
612.832	23.77
613.023	23.58
613.215	23.77
613.407	23.73
613.599	23.91
613.791	23.72
613.983	23.93
614.174	23.69
614.366	23.59
614.558	23.88
614.75	23.8
614.941	23.59
615.133	23.84
615.325	23.81
615.516	23.86
615.708	23.41
615.9	23.31
616.091	23.11
616.283	23.35
616.475	23.25
616.666	23.21
616.858	23.64
617.049	23.4
617.241	23.28
617.432	23.23
617.624	23.15
617.815	23.64
618.007	23.77
618.198	24.11
618.39	23.86
618.581	23.88
618.773	23.88
618.964	23.62
619.155	23.94
619.347	24.13
619.538	24.15
619.729	24.4
619.921	24.2
620.112	24.32
620.303	24.37
620.494	24.39
620.686	24.24
620.877	24.19
621.068	24.4
621.259	24.51
621.451	24.3
621.642	24.34
621.833	24.18
622.024	24.34
622.215	24.31
622.406	24.17
622.597	24.12
622.788	24.29
622.98	24.49
623.171	24.6
623.362	24.61
623.553	24.92
623.744	24.87
623.935	25.1
624.126	25.08
624.317	24.92
624.508	24.86
624.698	24.77
624.889	24.85
625.08	25.09
625.271	25.29
625.462	25.34
625.653	25.01
625.844	25.17
626.034	25.16
626.225	25.06
626.416	25.08
626.607	24.96
626.798	25.43
626.988	25.47
627.179	25.19
627.37	24.94
627.56	25.03
627.751	25.12
627.942	25.22
628.132	25.05
628.323	25.06
628.514	25.23
628.704	25.41
628.895	25.07
629.085	25.02
629.276	25.05
629.466	25.01
629.657	24.77
629.847	24.91
630.038	24.91
630.228	24.98
630.419	25.02
630.609	24.97
630.8	24.82
630.99	25.01
631.181	25.26
631.371	25.38
631.561	25.67
631.752	26.13
631.942	26.01
632.132	25.84
632.323	25.91
632.513	25.99
632.703	25.98
632.893	26.06
633.084	25.8
633.274	25.56
633.464	25.45
633.654	25.28
633.844	25.13
634.034	25.1
634.225	25.19
634.415	25.14
634.605	25.13
634.795	25.1
634.985	25.14
635.175	25.25
635.365	25.33
635.555	25.48
635.745	25.41
635.935	25.23
636.125	25.34
636.315	25.38
636.505	25.56
636.695	25.48
636.885	25.2
637.075	25.24
637.265	25.53
637.455	25.32
637.644	25.34
637.834	25.58
638.024	25.64
638.214	25.81
638.404	25.83
638.593	25.95
638.783	26.25
638.973	26.78
639.163	26.42
639.352	26.37
639.542	26.64
639.732	26.64
639.921	26.81
640.111	26.92
640.301	26.77
640.49	26.57
640.68	26.32
640.87	26.1
641.059	25.86
641.249	26.32
641.438	26.33
641.628	26.48
641.817	26.19
642.007	25.82
642.196	25.36
642.386	25.61
642.575	25.95
642.764	25.83
642.954	25.84
643.143	26.25
643.333	26.21
643.522	25.84
643.711	25.75
643.901	26.1
644.09	26.32
644.279	26.77
644.469	26.65
644.658	26.49
644.847	26.7
645.036	26.79
645.226	26.41
645.415	26.36
645.604	26.36
645.793	26.15
645.982	26.02
646.171	26.16
646.361	26.64
646.55	26.73
646.739	26.65
646.928	26.92
647.117	26.92
647.306	26.93
647.495	26.81
647.684	26.79
647.873	27.03
648.062	27.17
648.251	27.16
648.44	26.53
648.629	26.7
648.818	27.01
649.007	26.59
649.196	26.71
649.384	26.93
649.573	27.03
649.762	27.36
649.951	27.31
650.14	27.45
650.328	27.49
650.517	27.99
650.706	27.74
650.895	27.64
651.083	27.75
651.272	27.67
651.461	27.69
651.65	28.2
651.838	28.38
652.027	28.64
652.216	28.26
652.404	28.12
652.593	27.83
652.781	28.06
652.97	28.09
653.158	28.16
653.347	28.23
653.535	28.22
653.724	27.91
653.912	27.83
654.101	27.9
654.289	27.95
654.478	27.88
654.666	27.88
654.855	27.8
655.043	27.49
655.231	27.2
655.42	27.42
655.608	27.6
655.796	27.71
655.985	27.66
656.173	27.32
656.361	27.39
656.55	27.19
656.738	27.14
656.926	27.25
657.114	27.7
657.302	28.04
657.491	27.47
657.679	27.27
657.867	27.08
658.055	27.15
658.243	27.31
658.431	27.42
658.619	27.72
658.807	27.98
658.996	27.81
659.184	27.55
659.372	27.6
659.56	27.96
659.748	27.76
659.936	27.82
660.124	27.85
660.311	28.22
660.499	28.19
660.687	28.07
660.875	27.89
661.063	28.08
661.251	28.12
661.439	27.94
661.627	27.89
661.814	28.32
662.002	28.12
662.19	28.09
662.378	27.48
662.565	28.11
662.753	28.51
662.941	28.53
663.129	28.61
663.316	29.26
663.504	29.2
663.692	29.27
663.879	29.38
664.067	29.72
664.254	29.77
664.442	29.57
664.63	29.2
664.817	28.88
665.005	29.04
665.192	29.1
665.38	28.45
665.567	28.69
665.755	28.94
665.942	28.67
666.13	28.91
666.317	28.89
666.504	29.17
666.692	29.23
666.879	29.6
667.067	29.3
667.254	28.74
667.441	28.91
667.629	29.01
667.816	28.81
668.003	28.85
668.19	28.91
668.378	28.51
668.565	28.39
668.752	28.21
668.939	28.01
669.127	28.34
669.314	28.84
669.501	28.72
669.688	29
669.875	29.24
670.062	29.36
670.249	29.17
670.436	29.38
670.623	29.3
670.81	29.52
670.997	29.39
671.184	29.31
671.371	29.65
671.558	29.6
671.745	29.39
671.932	29.14
672.119	29.12
672.306	28.79
672.493	28.9
672.68	28.75
672.867	29.03
673.054	29.11
673.24	29.22
673.427	28.74
673.614	28.97
673.801	29.28
673.988	29.54
674.174	29.58
674.361	29.82
674.548	29.86
674.734	30.15
674.921	29.45
675.108	30.01
675.294	29.43
675.481	29.8
675.668	29.76
675.854	29.13
676.041	28.84
676.227	28.74
676.414	28.85
676.601	29.15
676.787	29.8
676.974	30.2
677.16	29.7
677.347	30.1
677.533	29.62
677.719	29.57
677.906	29.6
678.092	29.8
678.279	29.83
678.465	29.64
678.651	29.39
678.838	28.94
679.024	28.71
679.21	28.78
679.397	29.05
679.583	29.17
679.769	29.14
679.955	29.02
680.142	29.14
680.328	29.62
680.514	29.79
680.7	29.6
680.886	29.91
681.073	30.09
681.259	29.97
681.445	30.05
681.631	30.15
681.817	30.36
682.003	30.76
682.189	30.55
682.375	30.22
682.561	30.03
682.747	30.56
682.933	30.7
683.119	30.65
683.305	30.8
683.491	30.31
683.677	29.86
683.863	30.05
684.049	29.95
684.235	29.84
684.42	29.6
684.606	30.17
684.792	30
684.978	29.72
685.164	29.76
685.349	30.04
685.535	30.77
685.721	30.85
685.907	30.6
686.092	30.81
686.278	31.29
686.464	31.08
686.649	30.98
686.835	30.75
687.021	30.91
687.206	31.07
687.392	30.72
687.577	30.28
687.763	30.17
687.948	30.06
688.134	30.36
688.319	30.24
688.505	30.83
688.69	30.74
688.876	30.73
689.061	30.59
689.247	30.47
689.432	30.86
689.618	30.75
689.803	31.45
689.988	31.45
690.174	31.09
690.359	30.75
690.544	30.32
690.73	30.09
690.915	30.07
691.1	29.95
691.285	29.78
691.471	29.65
691.656	29.82
691.841	29.57
692.026	29.63
692.211	29.89
692.396	30.08
692.582	30.34
692.767	30.82
692.952	31.01
693.137	31.15
693.322	31.71
693.507	31.52
693.692	31.61
693.877	31.53
694.062	31.81
694.247	31.25
694.432	31.2
694.617	30.98
694.802	30.58
694.987	31
695.172	31.06
695.357	30.83
695.541	30.88
695.726	31.05
695.911	31.64
696.096	31.51
696.281	32.13
696.466	32.26
696.65	32.54
696.835	32.78
697.02	32.41
697.204	32.01
697.389	32.14
697.574	31.88
697.759	31.96
697.943	31.21
698.128	31.25
698.312	30.87
698.497	30.57
698.682	30.26
698.866	30.17
699.051	30.31
699.235	30.34
699.42	30.44
699.604	30.57
699.789	30.46
699.973	30.64
700.158	30.62
700.342	30.78
700.527	31.15
700.711	31.46
700.895	31.4
701.08	31.3
701.264	31.48
701.448	31.25
701.633	31.49
701.817	31.19
702.001	31.59
702.186	31.1
702.37	31.21
702.554	30.99
702.738	31.5
702.923	31.33
703.107	31.34
703.291	31.96
703.475	31.64
703.659	31.29
703.843	31.25
704.027	31.25
704.212	31.77
704.396	31.64
704.58	31.53
704.764	31.05
704.948	31.06
705.132	30.97
705.316	30.76
705.5	31.38
705.684	31.8
705.868	31.82
706.052	31.2
706.235	31.28
706.419	31.68
706.603	31.51
706.787	31.22
706.971	31.88
707.155	31.92
707.339	31.95
707.522	31.72
707.706	31.86
707.89	32.29
708.074	32.65
708.257	32.44
708.441	32.08
708.625	32.06
708.808	32.27
708.992	31.99
709.176	32.11
709.359	31.26
709.543	31.65
709.727	31.47
709.91	30.97
710.094	30.58
710.277	30.67
710.461	30.75
710.644	31.04
710.828	31.24
711.011	30.87
711.195	30.9
711.378	31.38
711.562	30.93
711.745	30.82
711.928	31.03
712.112	31.39
712.295	31.62
712.478	31.3
712.662	31.83
712.845	31.35
713.028	32.02
713.212	32.18
713.395	31.96
713.578	31.88
713.761	31.77
713.945	31.87
714.128	31.92
714.311	32.03
714.494	32.37
714.677	32
714.86	32.37
715.043	31.8
715.227	31.87
715.41	32.22
715.593	32.7
715.776	32.81
715.959	33.08
716.142	33.59
716.325	33.18
716.508	33.37
716.691	33.8
716.874	33.4
717.057	33.81
717.239	33.3
717.422	33.75
717.605	33.49
717.788	33.46
717.971	33.13
718.154	32.83
718.337	33.46
718.519	33.09
718.702	33.1
718.885	32.97
719.068	32.93
719.25	33.39
719.433	33.04
719.616	32.76
719.798	32.05
719.981	32.99
720.164	33.04
720.346	33.28
720.529	33.54
720.712	33.84
720.894	34.74
721.077	34.54
721.259	35.38
721.442	35.26
721.624	35.61
721.807	36.08
721.989	35.3
722.172	35.53
722.354	33.94
722.537	34.17
722.719	32.89
722.901	32.89
723.084	33.39
723.266	32.63
723.448	33.01
723.631	33.28
723.813	33.89
723.995	33.62
724.178	33.45
724.36	34.38
724.542	34.22
724.724	35.16
724.907	35.2
725.089	34.47
725.271	34.55
725.453	33.52
725.635	33.59
725.817	33.25
725.999	33.96
726.181	33.88
726.364	33.76
726.546	34.18
726.728	33.41
726.91	32.57
727.092	32.98
727.274	32.73
727.456	33.64
727.638	33.1
727.819	33.37
728.001	32.43
728.183	32.46
728.365	32.17
728.547	32.03
728.729	32.1
728.911	33.27
729.093	33.33
729.274	32.45
729.456	32.6
729.638	32.51
729.82	32.18
730.001	32.5
730.183	32.58
730.365	33.18
730.546	33.26
730.728	34.04
730.91	32.84
731.091	32.98
731.273	33.76
731.455	33.31
731.636	33.92
731.818	34.31
731.999	34.27
732.181	34.12
732.362	34.14
732.544	33.72
732.725	32.9
732.907	33.49
733.088	33.8
733.27	34.11
733.451	33.94
733.633	34.82
733.814	34.46
733.995	34.97
734.177	35.12
734.358	34.9
734.539	35.76
734.721	35.74
734.902	35.24
735.083	34.59
735.264	33.9
735.446	34.66
735.627	33
735.808	33.04
735.989	33.53
736.17	33.52
736.351	33.18
736.533	31.73
736.714	31.55
736.895	32.18
737.076	31.91
737.257	33.67
737.438	32.77
737.619	33.24
737.8	34.26
737.981	33.93
738.162	33.78
738.343	34.26
738.524	34.38
738.705	34.8
738.886	35
739.067	35.02
739.247	33.74
739.428	34.07
739.609	33.82
739.79	33.72
739.971	32.5
740.151	32.17
740.332	32.24
740.513	31.4
740.694	32.14
740.874	31.79
741.055	32.16
741.236	31.89
741.417	31.99
741.597	32.1
741.778	31.33
741.958	31.67
742.139	32.51
742.32	32.4
742.5	33.41
742.681	33.03
742.861	32.71
743.042	32.9
743.222	33.44
743.403	33.18
743.583	32.8
743.764	33
743.944	33.35
744.124	33.01
744.305	32.37
744.485	32.96
744.666	32.02
744.846	32.32
745.026	32.76
745.207	32.92
745.387	33.15
745.567	34.52
745.747	34.36
745.928	34.27
746.108	34.72
746.288	34.15
746.468	33.89
746.648	34.56
746.829	35.33
747.009	35.48
747.189	36.39
747.369	35.79
747.549	34.42
747.729	35
747.909	35.04
748.089	34.95
748.269	36.13
748.449	36.18
748.629	35.17
748.809	34.7
748.989	33.63
749.169	33.38
749.349	33.64
749.529	34.93
749.709	33.52
749.889	34.56
750.068	33.52
750.248	33.7
750.428	33.86
750.608	34.64
750.788	34.65
750.967	35.26
751.147	34.13
751.327	34.74
751.507	33.46
751.686	34.6
751.866	34.77
752.046	35.64
752.225	35.72
752.405	36.34
752.585	36.46
752.764	36.47
752.944	36.49
753.123	36.17
753.303	35.93
753.482	37.09
753.662	36.75
753.841	35.55
754.021	35.87
754.2	35.2
754.38	34.16
754.559	34.35
754.739	33.72
754.918	33.36
755.097	33.74
755.277	33.1
755.456	32.72
755.635	32.86
755.815	32.96
755.994	32.9
756.173	32.42
756.352	32.67
756.532	32.44
756.711	32.78
756.89	31.86
757.069	32.76
757.248	33.95
757.427	33.15
757.607	32.71
757.786	33.72
757.965	32.67
758.144	33.85
758.323	35
758.502	35.3
758.681	36.02
758.86	36.9
759.039	36.66
759.218	36.03
759.397	36.79
759.576	36.74
759.755	35.88
759.934	36.18
760.113	35.4
760.291	34.93
760.47	34.97
760.649	34.14
760.828	35.15
761.007	35.21
761.186	35.49
761.364	36.11
761.543	36.07
761.722	35.46
761.901	35.25
762.079	35.96
762.258	35.68
762.437	35.9
762.615	35.62
762.794	34.44
762.972	34.04
763.151	34.34
763.33	33.86
763.508	34.23
763.687	34.37
763.865	35.08
764.044	34.81
764.222	34.35
764.401	33.7
764.579	33.61
764.758	33.81
764.936	33.69
765.114	32.82
765.293	32.07
765.471	32.37
765.65	32.99
765.828	32.94
766.006	33.93
766.184	34.16
766.363	34.63
766.541	35.02
766.719	35.28
766.898	34.84
767.076	34.61
767.254	34.94
767.432	35.07
767.61	35.08
767.788	34.34
767.967	33.49
768.145	33.51
768.323	33.74
768.501	33.55
768.679	33.8
768.857	34.71
769.035	35.69
769.213	35.9
769.391	35.33
769.569	34.45
769.747	35.35
769.925	35.2
770.103	35.7
770.281	35.91
770.459	36.69
770.636	36.59
770.814	37.25
770.992	37.28
771.17	38.11
771.348	38.43
771.525	39.63
771.703	38.95
771.881	38.9
772.059	39.16
772.236	39.3
772.414	38.83
772.592	38.1
772.769	36.77
772.947	37.12
773.125	36.63
773.302	36.52
773.48	35.68
773.657	35.23
773.835	33.69
774.013	32.8
774.19	33.02
774.368	32.95
774.545	34.16
774.723	34.45
774.9	33.76
775.077	35.65
775.255	34.63
775.432	35.09
775.61	36.58
775.787	38.38
775.964	38.62
776.142	38.47
776.319	39.1
776.496	37.57
776.674	37.51
776.851	37.67
777.028	35.86
777.205	38.04
777.382	38.78
777.56	37.45
777.737	38.17
777.914	37.96
778.091	37.31
778.268	37.3
778.445	38.66
778.622	37.73
778.8	38.38
778.977	38.5
779.154	40.79
779.331	40.66
779.508	41.61
779.685	40.36
779.862	40.22
780.038	40.3
780.215	41.09
780.392	40.39
780.569	40.92
780.746	41.04
780.923	40.97
781.1	37.65
781.277	35.78
781.453	34.6
781.63	33.92
781.807	34.6
781.984	33.63
782.16	33.03
782.337	33.94
782.514	34.66
782.691	35.15
782.867	34.47
783.044	34.54
783.221	35.4
783.397	35.87
783.574	36.64
783.75	37.63
783.927	38.08
784.103	39.66
784.28	40.81
784.456	40.61
784.633	40.51
784.809	41.98
784.986	42.23
785.162	42.32
785.339	40.86
785.515	40.66
785.692	40.09
785.868	40.39
786.044	38.72
786.221	36.54
786.397	37.51
786.573	36.72
786.749	35.55
786.926	36.71
787.102	36.22
787.278	36.38
787.454	36.88
787.631	36.13
787.807	36.72
787.983	34.57
788.159	35.69
788.335	35.61
788.511	35.76
788.687	35.91
788.863	33.76
789.039	34.56
789.216	36.04
789.392	36.69
789.568	36.88
789.744	37.54
789.919	38
790.095	37.74
790.271	38.58
790.447	37.82
790.623	38.79
790.799	39.69
790.975	39.37
791.151	39.29
791.327	39.51
791.502	39.45
791.678	37.75
791.854	39.24
792.03	38.89
792.205	38.88
792.381	40.58
792.557	41.67
792.733	42.03
792.908	41.45
793.084	39.88
793.259	40.65
793.435	40.3
793.611	42.04
793.786	41.97
793.962	42.82
794.137	40.79
794.313	39.62
794.488	36.71
794.664	36.03
794.839	36.08
795.015	37.17
795.19	35.95
795.366	36.8
795.541	36.49
795.716	35.65
795.892	37.06
796.067	36.09
796.242	35.89
796.418	36.02
796.593	35.51
796.768	34.62
796.944	34.25
797.119	34.5
797.294	32.84
797.469	32.96
797.644	34.61
797.82	32
797.995	31.47
798.17	30.76
798.345	32.12
798.52	31.9
798.695	33.21
798.87	34.29
799.045	34.57
799.22	36.25
799.395	36.85
799.57	37.35
799.745	37.94
799.92	39.72
800.095	39.88
800.27	39.53
800.445	39.44
800.62	38.92
800.795	41.32
800.97	41.31
801.145	40.37
801.319	39.89
801.494	40.03
801.669	42.55
801.844	43.54
802.018	43.48
802.193	43.96
802.368	44.28
802.543	45.59
802.717	44.04
802.892	42.27
803.067	43.43
803.241	43.24
803.416	43.88
803.59	40.86
803.765	40.96
803.94	41.04
804.114	39.56
804.289	40.66
804.463	39.45
804.638	37.82
804.812	39.23
804.986	37.93
805.161	36.47
805.335	34.74
805.51	34.96
805.684	33.26
805.858	34.5
806.033	34.13
806.207	32.58
806.381	34.23
806.556	34.15
806.73	32.21
806.904	31.76
807.078	31.91
807.253	31.41
807.427	30.74
807.601	31.31
807.775	30.37
807.949	32.89
808.123	34.14
808.298	34.01
808.472	35.65
808.646	36.4
808.82	36.76
808.994	38.54
809.168	40.12
809.342	41.82
809.516	41.97
809.69	41.83
809.864	40.68
810.038	43.42
810.212	41.25
810.385	39.87
810.559	42.05
810.733	42.86
810.907	41.37
811.081	37.85
811.255	38.09
811.428	37.59
811.602	39.18
811.776	39.08
811.95	36.39
812.123	39.86
812.297	40.76
812.471	40.24
812.644	40.18
812.818	42.93
812.992	44.93
813.165	45.94
813.339	47.06
813.512	44.34
813.686	43.56
813.86	44.72
814.033	40.66
814.207	38.83
814.38	40.34
814.554	40.03
814.727	35.47
814.9	36.53
815.074	36.91
815.247	34.09
815.421	36.76
815.594	37.36
815.767	34.13
815.941	35.99
816.114	38.6
816.287	37.46
816.46	36.92
816.634	38.72
816.807	39.47
816.98	36.87
817.153	39.57
817.327	37.25
817.5	36.81
817.673	39.44
817.846	39.87
818.019	39.66
818.192	40.43
818.365	38.55
818.538	38.66
818.711	34.66
818.884	35.98
819.057	34.37
819.23	34.78
819.403	33.34
819.576	32.66
819.749	33.3
819.922	33.36
820.095	31.22
820.268	32.99
820.441	32.51
820.614	33.93
820.786	31.93
820.959	32.91
821.132	34.07
821.305	35.03
821.477	34.83
821.65	34.97
821.823	34.89
821.996	34.47
822.168	34.86
822.341	35.07
822.514	35.58
822.686	35.93
822.859	35.88
823.031	35.38
823.204	35.73
823.376	35.91
823.549	35.64
823.722	35.41
823.894	36.27
824.067	36.29
824.239	36.75
824.411	36.85
824.584	36.9
824.756	36.79
824.929	37.15
825.101	37.1
825.273	37.2
825.446	36.91
825.618	37.25
825.79	37.32
825.963	37.06
826.135	36.98
826.307	36.12
826.479	36.74
826.652	36.33
826.824	36.51
826.996	36.07
827.168	35.12
827.34	35.89
827.512	35.28
827.684	34.4
827.856	34.77
828.029	34.84
828.201	34.71
828.373	34.51
828.545	35.91
828.717	35.84
828.889	35.68
829.061	37.39
829.232	37.42
829.404	38.73
829.576	39.13
829.748	38.11
829.92	38.25
830.092	38.48
830.264	38.07
830.436	37.52
830.607	38.07
830.779	38.79
830.951	37.97
831.123	36.94
831.294	34.47
831.466	33.92
831.638	34.26
831.809	31.56
831.981	34.71
832.153	35
832.324	36.65
832.496	37.94
832.667	38.41
832.839	39.18
833.011	38.86
833.182	40.1
833.354	41.57
833.525	43.08
833.697	44.3
833.868	42.1
834.039	42.24
834.211	41.02
834.382	39.23
834.554	40.3
834.725	39.63
834.896	39.66
835.068	39.62
835.239	39.5
835.41	39.04
835.581	39.13
835.753	38.61
835.924	38.31
836.095	38.44
836.266	38.66
836.438	36.17
836.609	37.23
836.78	39.13
836.951	40.25
837.122	39.28
837.293	38.82
837.464	38.37
837.635	38.22
837.806	41.08
837.977	41.15
838.148	41.22
838.319	42.12
838.49	40.86
838.661	39.84
838.832	39.19
839.003	39.25
839.174	38.13
839.345	38.59
839.516	42.02
839.687	39.65
839.857	38.39
840.028	39.72
840.199	40.59
840.37	42.47
840.54	42.95
840.711	39.62
840.882	41.98
841.053	45.74
841.223	43.41
841.394	39.26
841.564	38.73
841.735	41.13
841.906	38.83
842.076	31.82
842.247	30.09
842.417	30.57
842.588	34.45
842.758	33.07
842.929	32.37
843.099	39.93
843.27	42.04
843.44	42.3
843.611	42.72
843.781	44.46
843.951	52.46
844.122	54.28
844.292	53.15
844.462	55
844.633	56.23
844.803	54.74
844.973	53.62
845.144	53.78
845.314	56.22
845.484	52.17
845.654	55.35
845.824	50.36
845.995	52.61
846.165	55.12
846.335	57.92
846.505	57.93
846.675	59.68
846.845	54.42
847.015	59
847.185	52.29
847.355	49.88
847.525	46.64
847.695	54.69
847.865	43.62
848.035	40.92
848.205	36.04
848.375	33.9
848.545	22.45
848.715	23.99
848.884	27.85
849.054	31.94
849.224	39.82
849.394	50.4
849.564	50.73
849.733	56.85
849.903	53.85
850.073	55.56
850.243	53.47
850.412	62.79
850.582	63.27
850.752	64.49
850.921	60.51
851.091	57.27
851.26	50.03
851.43	44.36
851.599	40.52
851.769	43.38
851.939	41.7
852.108	51.05
852.278	57.87
852.447	56.13
852.616	51.67
852.786	52.26
852.955	55.78
853.125	58.89
853.294	57.11
853.463	54.86
853.633	57.64
853.802	58.41
853.971	55.56
854.141	52.29
854.31	48.36
854.479	40.64
854.648	41.05
854.818	34.95
854.987	27.91
855.156	28.06
855.325	32.78
855.494	23.99
855.663	20.99
855.832	24.92
856.001	24.76
856.171	32.04
856.34	36.58
856.509	36.92
856.678	49.11
856.847	57.92
857.016	70.59
857.185	72.19
857.353	81.39
857.522	89.63
857.691	82.82
857.86	79.06
858.029	67.69
858.198	68
858.367	76.36
858.535	76.36
858.704	75.16
858.873	67.5
859.042	78.82
859.21	58.7
859.379	60.12
859.548	58.09
859.717	56.88
859.885	49.25
860.054	49.88
860.222	38.08
860.391	44.54
860.56	38.54
860.728	40.16
860.897	21.65
861.065	37.28
861.234	41.54
861.402	40.45
861.571	43.34
861.739	56.49
861.908	64.25
862.076	73.19
862.244	65.3
862.413	70.32
862.581	72.3
862.749	74.68
862.918	62.74
863.086	62.12
863.254	63.29
863.423	62.67
863.591	60.67
863.759	54.91
863.927	53.1
864.096	51.47
864.264	49.27
864.432	43.45
864.6	46.81
864.768	49.77
864.936	48.06
865.104	50.55
865.272	55.29
865.44	63.13
865.608	66.78
865.776	68.81
865.944	69.87
866.112	71.02
866.28	72.87
866.448	73.63
866.616	71.25
866.784	65.97
866.952	62.82
867.12	64.44
867.288	64.02
867.455	55.58
867.623	57.14
867.791	58.5
867.959	59.03
868.127	60.23
868.294	66.55
868.462	70.38
868.63	70.38
868.797	71.76
868.965	75.42
869.133	69.03
869.3	69.62
869.468	63.97
869.636	53.92
869.803	58.41
869.971	64.14
870.138	52.68
870.306	48.02
870.473	50.11
870.641	55.6
870.808	42.48
870.975	43.93
871.143	50.9
871.31	50.15
871.478	59.36
871.645	48.52
871.812	45.96
871.98	49.99
872.147	59.51
872.314	54.72
872.482	51.3
872.649	49.6
872.816	43.84
872.983	34.43
873.15	35.84
873.318	38.33
873.485	47.27
873.652	50.41
873.819	52.17
873.986	48.76
874.153	59.72
874.32	55.76
874.487	58.63
874.654	68.85
874.821	73.31
874.988	68.78
875.155	71.43
875.322	67.61
875.489	64.77
875.656	57.88
875.823	48.1
875.99	40.32
876.157	50.05
876.324	58.82
876.49	55.75
876.657	55.24
876.824	60.43
876.991	55
877.157	49.23
877.324	50.89
877.491	48.18
877.658	51.02
877.824	56.4
877.991	51.88
878.157	52.13
878.324	47.28
878.491	52.72
878.657	52.15
878.824	50.44
878.99	57.62
879.157	54.25
879.323	55.32
879.49	52.5
879.656	55.46
879.823	57.77
879.989	49.99
880.156	50.44
880.322	45.36
880.488	45.08
880.655	48.53
880.821	41.95
880.987	42.41
881.154	40.28
881.32	40.12
881.486	38.13
881.652	37.93
881.819	39.91
881.985	39.19
882.151	40.09
882.317	39.93
882.483	38.75
882.649	39.53
882.816	39.07
882.982	38.28
883.148	38.24
883.314	38.03
883.48	38.42
883.646	37.44
883.812	36.06
883.978	35.46
884.144	35.5
884.31	33.5
884.476	35.05
884.642	35.41
884.807	37.51
884.973	37.81
885.139	37.22
885.305	36.94
885.471	37.97
885.637	38.78
885.802	39.27
885.968	40.17
886.134	43.7
886.3	41.76
886.465	41.83
886.631	40.32
886.797	41.74
886.962	44.7
887.128	46.08
887.293	46.91
887.459	52
887.625	55.24
887.79	52.61
887.956	48.85
888.121	53.22
888.287	54.06
888.452	58.15
888.618	60.05
888.783	55.2
