Data from LC_159_Reflection_1.txt Node
Date: Mon Nov 16 22:31:37 EST 2015
User: robert
Spectrometer: USB4E03001
Autoset integration time: false
Trigger mode: 4
Integration Time (sec): 1.000000E-1
Scans to average: 15
Electric dark correction enabled: true
Nonlinearity correction enabled: false
Boxcar width: 5
Stray light correction enabled: false
XAxis mode: Wavelengths
Stop averaging: false
Number of Pixels in Spectrum: 3648
>>>>>Begin Spectral Data<<<<<
177.566	2003.61
177.785	178.11
178.005	-1455.46
178.225	189.09
178.445	189.21
178.665	-123.29
178.885	-2.52
179.105	645.79
179.324	506.07
179.544	-150.32
179.764	-940.85
179.984	-337.91
180.204	-284.62
180.423	-303.55
180.643	-498
180.863	-394.79
181.083	-343.49
181.302	-402.58
181.522	-303.23
181.742	-263.59
181.961	-403.89
182.181	-340.84
182.401	-376.19
182.621	-1574.41
182.84	-679.49
183.06	-419.24
183.279	-196.75
183.499	-130.09
183.719	-98.39
183.938	-90.55
184.158	-111.96
184.377	-74.81
184.597	-139.13
184.816	-81.04
185.036	-58.23
185.256	-26.7
185.475	-32.9
185.695	-53.26
185.914	-129.56
186.134	-241.23
186.353	-405.88
186.572	-468.69
186.792	-731.13
187.011	-288.54
187.231	-349.59
187.45	-176.91
187.67	-698.38
187.889	-2150.38
188.108	3782.91
188.328	-823.57
188.547	-305.8
188.766	-499.23
188.986	-737.18
189.205	-453.33
189.424	-210.37
189.644	-565.3
189.863	-779.07
190.082	-566.61
190.302	-1023
190.521	-700.58
190.74	794.17
190.959	407.57
191.178	532.88
191.398	435.4
191.617	424.94
191.836	408.12
192.055	966.17
192.274	440.73
192.494	340.65
192.713	298.12
192.932	434.33
193.151	406.69
193.37	505.22
193.589	-452.99
193.808	-112.53
194.027	-162.8
194.246	-2089.11
194.465	501.76
194.685	1002.55
194.904	640.65
195.123	-1044.01
195.342	-718.42
195.561	-288.81
195.78	-411.35
195.999	15166.2
196.218	470.68
196.436	340.19
196.655	-1278.24
196.874	-359.97
197.093	-478.94
197.312	-302.88
197.531	1080.8
197.75	261.43
197.969	-621.75
198.188	-198.78
198.407	-38.9
198.625	-72.01
198.844	-79.25
199.063	-107.85
199.282	-247.57
199.501	-200.9
199.719	-121.87
199.938	-65.69
200.157	-76.75
200.376	-107.32
200.594	-143.02
200.813	-347.24
201.032	-265.03
201.251	-286
201.469	-234.31
201.688	-184
201.907	-293.18
202.125	-527.08
202.344	20015.48
202.563	3893.18
202.781	591.57
203	1865.53
203.218	1433.95
203.437	1177.32
203.656	519.62
203.874	292.23
204.093	286.2
204.311	361.03
204.53	313.35
204.748	449.36
204.967	266.86
205.185	241.73
205.404	271.82
205.622	163.08
205.841	144.96
206.059	155.2
206.278	173.71
206.496	205.26
206.715	215.5
206.933	135.17
207.151	113.02
207.37	128.53
207.588	142.66
207.806	139.19
208.025	269.92
208.243	-469.84
208.461	1038.27
208.68	-9747.06
208.898	476.73
209.116	498.15
209.335	515.72
209.553	526.07
209.771	5006.67
209.989	1167.3
210.208	2583.46
210.426	-4784.3
210.644	2409.11
210.862	-1768.3
211.081	922.05
211.299	-391.35
211.517	1091.12
211.735	-332.2
211.953	-100900
212.171	-1618.37
212.39	-5648.65
212.608	-11143.48
212.826	543.62
213.044	235.24
213.262	221.64
213.48	982.7
213.698	189.12
213.916	320.49
214.134	191.76
214.352	457.74
214.57	335.71
214.788	337.6
215.006	270.92
215.224	164.84
215.442	167.7
215.66	172.83
215.878	170.73
216.096	161.22
216.314	160.74
216.532	351.54
216.75	240.81
216.968	247.85
217.185	549.24
217.403	1175.13
217.621	-3842.55
217.839	-1190.47
218.057	-1483.87
218.275	2638.26
218.492	901.79
218.71	1458.09
218.928	444.11
219.146	448
219.363	327.36
219.581	257.41
219.799	193.82
220.017	187.3
220.234	171.35
220.452	170.44
220.67	173.81
220.887	141.65
221.105	150.72
221.323	74.99
221.54	84.5
221.758	115.26
221.976	172.64
222.193	154.56
222.411	75.88
222.629	97.07
222.846	102.84
223.064	111.85
223.281	108.68
223.499	93.06
223.716	109.94
223.934	90.18
224.151	75.03
224.369	57.98
224.586	51.99
224.804	46.06
225.021	39.24
225.239	22.33
225.456	40.31
225.674	37.08
225.891	37.82
226.108	45.44
226.326	39.52
226.543	43.22
226.76	37.92
226.978	38.07
227.195	53.75
227.413	39.88
227.63	40.25
227.847	30.03
228.064	33.1
228.282	29.83
228.499	26.6
228.716	25.26
228.934	24.61
229.151	26.35
229.368	24.93
229.585	23.25
229.802	26.96
230.02	24.5
230.237	24.18
230.454	23.54
230.671	24.8
230.888	26.32
231.105	27.11
231.323	28.24
231.54	29.33
231.757	29.22
231.974	29.53
232.191	28.42
232.408	35.28
232.625	38.77
232.842	37.4
233.059	39.02
233.276	32.88
233.493	31.68
233.71	32.13
233.927	27.2
234.144	27.09
234.361	21.52
234.578	21.46
234.795	18.83
235.012	19.05
235.229	17.64
235.446	16.71
235.663	18.8
235.879	22.35
236.096	19.52
236.313	19.77
236.53	19.39
236.747	29.6
236.964	26.75
237.181	26.35
237.397	23.77
237.614	27.88
237.831	25.67
238.048	28.29
238.264	27.02
238.481	27.63
238.698	31.02
238.915	34.22
239.131	30.12
239.348	30.4
239.565	32.73
239.781	32.72
239.998	31.13
240.215	31.13
240.431	28.96
240.648	26.35
240.865	25.06
241.081	23.91
241.298	22.51
241.514	21.42
241.731	19.66
241.947	18.24
242.164	17.69
242.38	15.45
242.597	15.8
242.814	15.39
243.03	15.12
243.246	14.65
243.463	14.61
243.679	15.62
243.896	13.43
244.112	14.75
244.329	14.08
244.545	14.33
244.762	14.94
244.978	15.93
245.194	17.62
245.411	16.86
245.627	17.13
245.843	16.55
246.06	15.57
246.276	16.74
246.492	15.57
246.709	14.04
246.925	13.68
247.141	13.96
247.357	13.91
247.574	13.26
247.79	13.43
248.006	12.75
248.222	12.85
248.439	12.37
248.655	13.28
248.871	13.76
249.087	14.87
249.303	14.93
249.519	15.38
249.736	14.99
249.952	15.18
250.168	16.7
250.384	18.89
250.6	18.24
250.816	20.26
251.032	17.45
251.248	17.14
251.464	16.51
251.68	15.67
251.896	14.35
252.112	14.01
252.328	14.95
252.544	15.12
252.76	15
252.976	14.81
253.192	13.02
253.408	15.44
253.624	17.28
253.84	17.13
254.056	20
254.272	21.62
254.487	23.37
254.703	21.19
254.919	20.61
255.135	18.56
255.351	20.11
255.567	23.41
255.782	21.62
255.998	19.18
256.214	21.47
256.43	17.7
256.646	16.86
256.861	15.9
257.077	16.3
257.293	16.36
257.508	17.45
257.724	19.46
257.94	18.06
258.155	16.63
258.371	15.06
258.587	14
258.802	15.2
259.018	15.58
259.234	13.66
259.449	14.45
259.665	13.64
259.88	13.99
260.096	12.93
260.312	11.98
260.527	12.29
260.743	13.41
260.958	13.68
261.174	13.02
261.389	12.95
261.605	14.02
261.82	13.77
262.036	14.24
262.251	14.05
262.466	13.66
262.682	15.09
262.897	15.04
263.113	13.69
263.328	14.69
263.543	16.23
263.759	15.79
263.974	16.65
264.189	15.5
264.405	16.9
264.62	17.39
264.835	17.77
265.051	16.66
265.266	18.6
265.481	20.17
265.696	20.13
265.912	17.76
266.127	15.91
266.342	14.3
266.557	16.63
266.773	15.17
266.988	14.85
267.203	14.57
267.418	14.18
267.633	12.47
267.848	12.29
268.064	10.75
268.279	12.24
268.494	12.59
268.709	13.5
268.924	12.1
269.139	13.2
269.354	14.07
269.569	14.73
269.784	15.79
269.999	16.14
270.214	15.95
270.429	16.8
270.644	16.13
270.859	15.68
271.074	16.07
271.289	15.87
271.504	15.47
271.719	14.69
271.934	13.85
272.149	13.31
272.363	14.01
272.578	12.97
272.793	12.62
273.008	12.02
273.223	12.89
273.438	12.04
273.653	12
273.867	11.06
274.082	9.71
274.297	10.88
274.512	11.89
274.726	11.09
274.941	12.45
275.156	12.49
275.371	13.17
275.585	13.37
275.8	13.73
276.015	14.7
276.229	14.69
276.444	16.02
276.659	14.49
276.873	13.36
277.088	13.68
277.302	13.25
277.517	13.63
277.732	15.1
277.946	14.64
278.161	14.77
278.375	14.27
278.59	15.03
278.804	14.75
279.019	15.12
279.233	15.09
279.448	13.87
279.662	13.04
279.877	13.23
280.091	12.32
280.306	10.52
280.52	10.74
280.735	9.58
280.949	9.83
281.163	10.55
281.378	10.58
281.592	10.34
281.806	11.6
282.021	11.34
282.235	11.78
282.449	12.51
282.664	14.31
282.878	13.03
283.092	14.98
283.307	13.96
283.521	14.13
283.735	14.45
283.949	15.37
284.164	15.41
284.378	16.06
284.592	14.83
284.806	13.79
285.02	13.39
285.234	13.27
285.449	11.03
285.663	11.5
285.877	10.78
286.091	11.08
286.305	10.92
286.519	9.47
286.733	9.02
286.947	9.37
287.161	9.82
287.375	10.43
287.589	11.57
287.803	13.04
288.017	12.68
288.231	12.66
288.445	12.45
288.659	12.51
288.873	13.69
289.087	15.63
289.301	15.32
289.515	14.19
289.729	12.66
289.943	12.38
290.157	11.56
290.371	13.43
290.584	12.66
290.798	12.48
291.012	12.91
291.226	12.5
291.44	11.3
291.654	11.93
291.867	12.18
292.081	12.43
292.295	12.48
292.509	13.19
292.722	13.2
292.936	13.84
293.15	14.52
293.364	13.12
293.577	14.12
293.791	13.99
294.005	13.74
294.218	14.48
294.432	15.45
294.645	15.4
294.859	14.35
295.073	13.14
295.286	13.77
295.5	13.56
295.713	14.2
295.927	13.59
296.14	13.7
296.354	13.26
296.568	12.85
296.781	12.71
296.994	12.48
297.208	12.61
297.421	11.69
297.635	11.14
297.848	10.49
298.062	10.03
298.275	9.9
298.489	9.32
298.702	9.23
298.915	9.25
299.129	9.08
299.342	9.06
299.555	8.94
299.769	9.97
299.982	10.56
300.195	11.31
300.409	11.84
300.622	12.02
300.835	13.53
301.048	13.97
301.262	14.44
301.475	14.27
301.688	15.39
301.901	16.47
302.115	16.61
302.328	16.75
302.541	16.64
302.754	16.83
302.967	17.17
303.18	16.22
303.393	16.19
303.607	15.59
303.82	15.82
304.033	14.37
304.246	13.23
304.459	13.12
304.672	11.76
304.885	11.81
305.098	11.56
305.311	10.77
305.524	11.77
305.737	10.88
305.95	11.37
306.163	11.55
306.376	12.04
306.589	11.94
306.802	12.28
307.015	13.35
307.228	13.39
307.44	12.56
307.653	13.11
307.866	10.7
308.079	12.18
308.292	12.61
308.505	12.61
308.718	11.91
308.93	12.6
309.143	12.19
309.356	12.59
309.569	11.87
309.781	12.55
309.994	12.11
310.207	13.51
310.42	13.24
310.632	11.89
310.845	12.76
311.058	12.11
311.27	12.45
311.483	12.65
311.696	11.37
311.908	11.39
312.121	11.33
312.333	12.63
312.546	12.05
312.759	11.42
312.971	11.67
313.184	10.93
313.396	11.22
313.609	11.26
313.821	11.52
314.034	12.3
314.246	12.59
314.459	13.11
314.671	12.71
314.884	12.81
315.096	11.89
315.309	12.07
315.521	11.95
315.733	12.79
315.946	10.82
316.158	9.41
316.371	9.93
316.583	10.62
316.795	8.88
317.008	8.43
317.22	9.01
317.432	9.41
317.644	9.6
317.857	9.34
318.069	9.29
318.281	10.54
318.494	10.39
318.706	10.18
318.918	8.94
319.13	10.31
319.342	10
319.555	9.2
319.767	10.96
319.979	10.62
320.191	10.51
320.403	11.07
320.615	11.49
320.827	12.79
321.039	12.34
321.252	13.28
321.464	12.69
321.676	12.53
321.888	12.25
322.1	12.01
322.312	11.29
322.524	9.86
322.736	8.31
322.948	8.03
323.16	7.81
323.372	9.02
323.584	8.11
323.796	7.87
324.007	7.8
324.219	8.53
324.431	8.64
324.643	10.13
324.855	11.27
325.067	12.03
325.279	11.67
325.491	11.09
325.702	10.33
325.914	11.14
326.126	11.63
326.338	11.34
326.55	11.31
326.761	11.13
326.973	10.15
327.185	9.76
327.396	9.66
327.608	10.71
327.82	11.52
328.032	12.05
328.243	11.61
328.455	12.44
328.666	13.59
328.878	13.68
329.09	13.13
329.301	13.78
329.513	14.19
329.725	14.64
329.936	12.72
330.148	12.94
330.359	11.66
330.571	11.33
330.782	10.5
330.994	10.79
331.205	11.02
331.417	11.28
331.628	11.07
331.84	11.52
332.051	11.78
332.262	13.1
332.474	12.01
332.685	13.46
332.897	12.8
333.108	13.15
333.319	11.25
333.531	11.22
333.742	11.3
333.953	11.61
334.165	11.29
334.376	11.23
334.587	11.06
334.799	11.49
335.01	10.91
335.221	11.87
335.432	11.04
335.644	11.22
335.855	11.14
336.066	11.93
336.277	11.51
336.488	12.31
336.7	10.84
336.911	10.92
337.122	10.88
337.333	10.92
337.544	12.19
337.755	12.34
337.966	12.64
338.177	12.57
338.388	12.31
338.599	12.89
338.811	11.45
339.022	11.64
339.233	11.78
339.444	12.84
339.655	11.86
339.866	10.69
340.076	11.25
340.287	11.14
340.498	11.9
340.709	11.14
340.92	10.2
341.131	11.3
341.342	12.45
341.553	12.47
341.764	11.5
341.975	12.22
342.185	12.26
342.396	11.75
342.607	12.19
342.818	11.47
343.029	11.36
343.239	11.63
343.45	11.62
343.661	10.54
343.872	10.02
344.082	10.28
344.293	10.39
344.504	10.6
344.714	10.12
344.925	8.72
345.136	8.86
345.346	7.78
345.557	8.09
345.768	7.94
345.978	8.72
346.189	9.03
346.399	8.2
346.61	8.2
346.821	7.87
347.031	9.39
347.242	10.15
347.452	10.55
347.663	11.71
347.873	11.36
348.084	10.94
348.294	10.78
348.504	11.05
348.715	10.89
348.925	10.56
349.136	10.12
349.346	8.55
349.557	9.83
349.767	9.41
349.977	9.43
350.188	10.01
350.398	11.22
350.608	11.23
350.819	10.62
351.029	11.31
351.239	11.42
351.449	11.94
351.66	13.01
351.87	12.51
352.08	11.74
352.29	12
352.501	11.55
352.711	10.59
352.921	10.65
353.131	10.89
353.341	10.87
353.552	11.17
353.762	11.01
353.972	10.21
354.182	10.58
354.392	10.5
354.602	10.15
354.812	10.14
355.022	9.76
355.232	9.23
355.442	9.87
355.652	9.86
355.862	9.51
356.072	9.44
356.282	9.41
356.492	9.53
356.702	9.87
356.912	10.43
357.122	10.36
357.332	10.44
357.542	10.45
357.752	9.97
357.962	9.22
358.171	9.2
358.381	9.7
358.591	9.36
358.801	8.25
359.011	8.87
359.221	8.88
359.43	9.08
359.64	9.51
359.85	10.14
360.06	10.16
360.269	11.23
360.479	10.92
360.689	10
360.899	10.24
361.108	10.75
361.318	10.3
361.528	9.77
361.737	9.65
361.947	9.13
362.156	9
362.366	8.7
362.576	8.33
362.785	8.64
362.995	8.99
363.204	8.98
363.414	8.57
363.623	8.28
363.833	9.05
364.042	9.06
364.252	9.19
364.461	9.2
364.671	9.26
364.88	9.02
365.09	9.57
365.299	9.76
365.509	9.91
365.718	9.91
365.927	10.09
366.137	9.73
366.346	9.54
366.555	9.21
366.765	8.64
366.974	9.1
367.183	9.28
367.393	8.26
367.602	7.93
367.811	7.84
368.021	7.7
368.23	7.41
368.439	6.52
368.648	6.6
368.857	7.34
369.067	7.89
369.276	7.38
369.485	7.69
369.694	8
369.903	8.21
370.112	8.35
370.321	8.55
370.531	8.32
370.74	8.76
370.949	8.73
371.158	8.39
371.367	7.91
371.576	7.79
371.785	6.86
371.994	6.62
372.203	6.82
372.412	6.49
372.621	6.77
372.83	7.22
373.039	7.64
373.248	7.3
373.457	7.88
373.666	8
373.874	8
374.083	8.55
374.292	8.5
374.501	7.82
374.71	7.72
374.919	7.64
375.128	7.51
375.336	6.76
375.545	6.9
375.754	5.83
375.963	5.83
376.171	6.08
376.38	6.17
376.589	6.52
376.798	6.34
377.006	6.63
377.215	6.77
377.424	6.63
377.632	6.88
377.841	7.26
378.05	7.38
378.258	7.18
378.467	6.99
378.675	6.82
378.884	6.8
379.093	7.26
379.301	6.89
379.51	6.75
379.718	6.53
379.927	6.52
380.135	5.57
380.344	6.16
380.552	6.17
380.761	6.49
380.969	6.73
381.177	6.54
381.386	6.03
381.594	5.97
381.803	5.91
382.011	6.32
382.219	5.69
382.428	5.89
382.636	5.53
382.845	5.94
383.053	5.64
383.261	5.41
383.469	5.37
383.678	5.68
383.886	5.89
384.094	5.57
384.302	5.52
384.511	6.08
384.719	6.59
384.927	6.32
385.135	6.14
385.343	6.15
385.552	6.06
385.76	5.99
385.968	6.24
386.176	5.98
386.384	6.16
386.592	5.72
386.8	5.35
387.008	5.31
387.216	5.52
387.424	5.59
387.633	5.72
387.841	5.63
388.049	5.64
388.257	5.3
388.465	5.6
388.672	5.74
388.88	6.28
389.088	6.43
389.296	6.24
389.504	6.15
389.712	6.01
389.92	5.68
390.128	5.67
390.336	5.76
390.544	5.93
390.751	5.37
390.959	5.19
391.167	5.03
391.375	5.01
391.583	5.06
391.79	4.78
391.998	4.87
392.206	5.1
392.414	5.13
392.621	4.88
392.829	5.07
393.037	5.29
393.244	5.24
393.452	5.35
393.66	5.58
393.867	5.46
394.075	5.66
394.283	5.57
394.49	5.28
394.698	5.48
394.905	5.66
395.113	5.43
395.32	5.35
395.528	5.52
395.735	5.36
395.943	5.12
396.15	5.11
396.358	4.96
396.565	4.83
396.773	5.37
396.98	5.12
397.188	5.15
397.395	5.26
397.602	5.67
397.81	5.44
398.017	5.5
398.225	5.7
398.432	5.91
398.639	5.93
398.847	6.15
399.054	5.58
399.261	5.59
399.468	5.51
399.676	5.15
399.883	4.97
400.09	5.17
400.297	5.41
400.505	5.51
400.712	5.34
400.919	5.66
401.126	5.74
401.333	5.91
401.54	5.85
401.748	5.99
401.955	6.38
402.162	6.31
402.369	6.13
402.576	5.84
402.783	5.5
402.99	5.39
403.197	5.27
403.404	4.97
403.611	5.03
403.818	5.2
404.025	5.07
404.232	4.85
404.439	4.75
404.646	4.9
404.853	4.61
405.06	4.72
405.267	4.81
405.474	4.67
405.681	4.58
405.887	4.44
406.094	4.51
406.301	4.5
406.508	4.59
406.715	4.88
406.922	4.72
407.128	4.79
407.335	4.62
407.542	4.6
407.749	4.97
407.955	5.18
408.162	5.13
408.369	5.29
408.575	5.11
408.782	4.95
408.989	4.42
409.195	4.21
409.402	4.4
409.609	4.68
409.815	4.69
410.022	4.67
410.228	4.57
410.435	4.71
410.642	4.14
410.848	4.47
411.055	4.48
411.261	4.68
411.468	5.03
411.674	5.05
411.881	4.94
412.087	5.09
412.294	4.86
412.5	4.71
412.706	4.6
412.913	4.87
413.119	4.61
413.326	4.53
413.532	4.66
413.738	4.35
413.945	4.38
414.151	4.05
414.357	4.02
414.564	3.92
414.77	4.22
414.976	4.16
415.182	4.26
415.389	4.27
415.595	4.24
415.801	4.08
416.007	4.26
416.214	4.21
416.42	4.39
416.626	4.22
416.832	4.3
417.038	4.16
417.244	4.32
417.45	4.11
417.657	4.23
417.863	4.54
418.069	4.46
418.275	4.51
418.481	4.44
418.687	4.36
418.893	4.42
419.099	4.36
419.305	4.4
419.511	4.32
419.717	4.33
419.923	4.07
420.129	3.87
420.335	4.07
420.541	4.05
420.746	4.01
420.952	4.13
421.158	4.06
421.364	4.15
421.57	4.17
421.776	4.16
421.982	4.13
422.187	4.22
422.393	4.17
422.599	4.07
422.805	4.02
423.01	3.99
423.216	3.91
423.422	3.97
423.628	4.03
423.833	3.94
424.039	4.05
424.245	4.08
424.45	4.16
424.656	4.27
424.862	4.25
425.067	4.36
425.273	4.5
425.478	4.63
425.684	4.62
425.889	4.68
426.095	4.71
426.301	4.48
426.506	4.63
426.712	4.81
426.917	4.77
427.123	5.01
427.328	4.89
427.533	4.87
427.739	4.81
427.944	4.93
428.15	4.65
428.355	4.69
428.561	4.97
428.766	4.92
428.971	4.83
429.177	4.88
429.382	4.92
429.587	4.89
429.793	4.66
429.998	4.56
430.203	4.39
430.408	4.53
430.614	4.69
430.819	4.58
431.024	4.67
431.229	4.57
431.434	4.53
431.64	4.15
431.845	4.32
432.05	4.52
432.255	4.57
432.46	4.4
432.665	4.17
432.87	3.97
433.076	3.94
433.281	4.07
433.486	3.93
433.691	3.76
433.896	3.62
434.101	3.46
434.306	3.51
434.511	3.48
434.716	3.63
434.921	3.8
435.126	3.78
435.331	3.74
435.535	3.49
435.74	3.65
435.945	3.91
436.15	4.09
436.355	4.3
436.56	4.29
436.765	4.36
436.97	4.2
437.174	4.11
437.379	4.2
437.584	4.28
437.789	4.26
437.993	4.25
438.198	4.24
438.403	4.5
438.608	4.5
438.812	4.31
439.017	4.26
439.222	4.42
439.426	4.44
439.631	4.46
439.836	4.38
440.04	4.45
440.245	4.39
440.45	4.35
440.654	4.19
440.859	3.98
441.063	4.04
441.268	3.95
441.472	3.97
441.677	3.88
441.881	3.75
442.086	3.83
442.29	3.76
442.495	3.68
442.699	3.64
442.904	3.61
443.108	3.67
443.312	3.64
443.517	3.67
443.721	3.58
443.925	3.67
444.13	3.88
444.334	3.93
444.538	3.87
444.743	3.92
444.947	3.79
445.151	3.83
445.356	3.74
445.56	3.87
445.764	3.92
445.968	3.92
446.173	3.88
446.377	3.86
446.581	3.72
446.785	3.71
446.989	3.78
447.193	3.88
447.398	3.92
447.602	4
447.806	4.05
448.01	4.11
448.214	4.24
448.418	4.3
448.622	4.33
448.826	4.39
449.03	4.47
449.234	4.49
449.438	4.5
449.642	4.51
449.846	4.57
450.05	4.44
450.254	4.24
450.458	4.21
450.662	4.16
450.866	3.99
451.069	3.99
451.273	3.89
451.477	3.88
451.681	3.75
451.885	3.54
452.089	3.54
452.292	3.59
452.496	3.69
452.7	3.62
452.904	3.58
453.107	3.76
453.311	3.93
453.515	3.99
453.719	3.89
453.922	4.11
454.126	4.17
454.33	4.28
454.533	4.21
454.737	4.19
454.94	4.16
455.144	4.39
455.348	4.24
455.551	4.03
455.755	3.9
455.958	3.93
456.162	3.79
456.365	3.84
456.569	3.64
456.772	3.56
456.976	3.6
457.179	3.74
457.383	3.58
457.586	3.67
457.79	3.75
457.993	3.86
458.196	3.81
458.4	3.87
458.603	3.74
458.807	3.85
459.01	3.98
459.213	3.99
459.417	3.79
459.62	3.86
459.823	3.84
460.026	3.85
460.23	3.89
460.433	3.95
460.636	3.89
460.839	3.98
461.042	3.96
461.246	3.92
461.449	3.95
461.652	4.14
461.855	4.05
462.058	4.03
462.261	3.85
462.464	3.68
462.668	3.72
462.871	3.68
463.074	3.87
463.277	3.69
463.48	3.88
463.683	3.8
463.886	3.8
464.089	3.74
464.292	3.79
464.495	3.98
464.698	4.12
464.901	4.09
465.104	4.06
465.306	3.93
465.509	4.11
465.712	3.93
465.915	4
466.118	3.87
466.321	3.94
466.524	3.94
466.726	4.13
466.929	4.13
467.132	4.2
467.335	4.3
467.538	4.04
467.74	3.94
467.943	4.05
468.146	4.2
468.348	4.21
468.551	4.26
468.754	4.16
468.956	3.94
469.159	3.96
469.362	3.88
469.564	3.83
469.767	4
469.969	4.09
470.172	3.87
470.375	3.63
470.577	3.56
470.78	3.54
470.982	3.63
471.185	3.67
471.387	3.75
471.59	3.81
471.792	3.95
471.995	3.98
472.197	3.95
472.399	3.86
472.602	3.71
472.804	3.66
473.007	3.72
473.209	3.76
473.411	3.76
473.614	3.63
473.816	3.52
474.018	3.39
474.22	3.39
474.423	3.46
474.625	3.61
474.827	3.86
475.03	4.01
475.232	4.01
475.434	3.93
475.636	4.01
475.838	4.04
476.04	4.05
476.243	3.95
476.445	3.99
476.647	3.86
476.849	3.73
477.051	3.68
477.253	3.72
477.455	3.7
477.657	3.61
477.859	3.46
478.061	3.38
478.263	3.42
478.465	3.5
478.667	3.44
478.869	3.32
479.071	3.41
479.273	3.42
479.475	3.37
479.677	3.33
479.879	3.34
480.081	3.39
480.283	3.5
480.485	3.47
480.686	3.51
480.888	3.52
481.09	3.67
481.292	3.59
481.494	3.5
481.695	3.56
481.897	3.52
482.099	3.51
482.301	3.58
482.502	3.48
482.704	3.47
482.906	3.47
483.107	3.41
483.309	3.4
483.511	3.45
483.712	3.46
483.914	3.42
484.115	3.41
484.317	3.39
484.519	3.35
484.72	3.37
484.922	3.35
485.123	3.37
485.325	3.42
485.526	3.42
485.728	3.44
485.929	3.4
486.131	3.43
486.332	3.45
486.534	3.44
486.735	3.47
486.936	3.4
487.138	3.41
487.339	3.33
487.541	3.32
487.742	3.3
487.943	3.24
488.144	3.29
488.346	3.19
488.547	3.21
488.748	3.32
488.95	3.27
489.151	3.35
489.352	3.45
489.553	3.45
489.755	3.44
489.956	3.42
490.157	3.49
490.358	3.52
490.559	3.65
490.76	3.63
490.961	3.51
491.163	3.52
491.364	3.57
491.565	3.46
491.766	3.5
491.967	3.56
492.168	3.58
492.369	3.59
492.57	3.54
492.771	3.56
492.972	3.57
493.173	3.66
493.374	3.71
493.575	3.63
493.776	3.67
493.976	3.74
494.177	3.74
494.378	3.86
494.579	3.82
494.78	4.09
494.981	4.02
495.182	4.05
495.382	4.01
495.583	3.93
495.784	4.01
495.985	4.04
496.185	3.94
496.386	3.88
496.587	3.83
496.788	3.81
496.988	3.7
497.189	3.71
497.39	3.81
497.59	3.84
497.791	3.88
497.992	3.73
498.192	3.74
498.393	3.74
498.593	3.79
498.794	3.74
498.994	3.75
499.195	3.67
499.395	3.71
499.596	3.63
499.796	3.56
499.997	3.53
500.197	3.75
500.398	3.85
500.598	3.93
500.799	3.85
500.999	3.91
501.199	3.86
501.4	3.9
501.6	3.94
501.801	3.94
502.001	4.03
502.201	4.2
502.402	4.09
502.602	4.09
502.802	4.04
503.002	4.18
503.203	4.2
503.403	4.25
503.603	3.98
503.803	3.88
504.003	3.87
504.204	3.99
504.404	3.93
504.604	3.96
504.804	3.86
505.004	3.94
505.204	3.95
505.404	3.95
505.604	4.12
505.804	4.22
506.005	4.21
506.205	4.13
506.405	4.09
506.605	4.19
506.805	4.16
507.005	4.21
507.204	4.15
507.404	4.03
507.604	4.05
507.804	3.88
508.004	3.99
508.204	4.04
508.404	4.12
508.604	4.01
508.804	3.89
509.003	3.86
509.203	3.83
509.403	3.9
509.603	3.88
509.803	3.93
510.002	4.04
510.202	4.07
510.402	4
510.602	4.07
510.801	4.14
511.001	4.17
511.201	4.31
511.4	4.22
511.6	4.13
511.8	4.14
511.999	4.2
512.199	4.09
512.398	4.13
512.598	4.31
512.797	4.36
512.997	4.34
513.197	4.31
513.396	4.26
513.596	4.51
513.795	4.68
513.994	4.76
514.194	4.72
514.393	4.79
514.593	4.78
514.792	4.72
514.992	4.7
515.191	4.77
515.39	4.91
515.59	4.92
515.789	4.73
515.988	4.66
516.188	4.64
516.387	4.64
516.586	4.56
516.786	4.6
516.985	4.54
517.184	4.52
517.383	4.55
517.582	4.51
517.782	4.5
517.981	4.48
518.18	4.49
518.379	4.6
518.578	4.54
518.777	4.61
518.976	4.56
519.176	4.64
519.375	4.73
519.574	4.7
519.773	4.67
519.972	4.64
520.171	4.68
520.37	4.65
520.569	4.64
520.768	4.58
520.967	4.68
521.166	4.72
521.365	4.61
521.564	4.58
521.762	4.64
521.961	4.63
522.16	4.71
522.359	4.67
522.558	4.66
522.757	4.71
522.956	4.91
523.154	4.82
523.353	4.9
523.552	4.89
523.751	4.85
523.949	4.75
524.148	4.91
524.347	5.01
524.546	5.03
524.744	5.01
524.943	5.03
525.142	4.96
525.34	5.06
525.539	5.04
525.737	5.19
525.936	5.16
526.135	5.08
526.333	5.02
526.532	4.87
526.73	4.9
526.929	4.91
527.127	4.8
527.326	4.81
527.524	4.73
527.723	4.73
527.921	4.67
528.12	4.67
528.318	4.77
528.516	4.79
528.715	4.84
528.913	4.87
529.112	4.92
529.31	4.97
529.508	4.99
529.707	5.01
529.905	5.01
530.103	5.06
530.301	5.12
530.5	5.13
530.698	5.16
530.896	5.2
531.094	5.25
531.293	5.26
531.491	5.33
531.689	5.35
531.887	5.43
532.085	5.49
532.283	5.49
532.481	5.46
532.68	5.44
532.878	5.4
533.076	5.41
533.274	5.34
533.472	5.43
533.67	5.37
533.868	5.39
534.066	5.37
534.264	5.28
534.462	5.28
534.66	5.33
534.858	5.38
535.056	5.43
535.253	5.39
535.451	5.55
535.649	5.44
535.847	5.59
536.045	5.54
536.243	5.59
536.441	5.84
536.638	5.89
536.836	5.89
537.034	5.89
537.232	5.98
537.43	6.05
537.627	6.02
537.825	6
538.023	6
538.22	6.15
538.418	6.22
538.616	6.18
538.813	6.32
539.011	6.37
539.209	6.34
539.406	6.3
539.604	6.53
539.801	6.63
539.999	6.7
540.196	6.7
540.394	6.74
540.591	6.71
540.789	6.62
540.986	6.53
541.184	6.57
541.381	6.63
541.579	6.64
541.776	6.56
541.974	6.56
542.171	6.61
542.368	6.63
542.566	6.6
542.763	6.62
542.96	6.73
543.158	6.83
543.355	6.85
543.552	6.93
543.75	7.05
543.947	6.94
544.144	6.84
544.341	6.92
544.539	6.95
544.736	7.04
544.933	7.11
545.13	7.14
545.327	7.1
545.524	7.23
545.722	7.31
545.919	7.24
546.116	7.48
546.313	7.65
546.51	7.66
546.707	7.68
546.904	7.7
547.101	7.56
547.298	7.55
547.495	7.6
547.692	7.48
547.889	7.42
548.086	7.56
548.283	7.65
548.48	7.71
548.677	7.69
548.874	7.75
549.07	7.72
549.267	7.85
549.464	7.86
549.661	7.94
549.858	8.22
550.055	8.34
550.251	8.37
550.448	8.3
550.645	8.32
550.842	8.38
551.038	8.38
551.235	8.37
551.432	8.48
551.628	8.56
551.825	8.69
552.022	8.51
552.218	8.65
552.415	8.81
552.612	8.85
552.808	8.77
553.005	8.81
553.201	8.91
553.398	8.95
553.594	9.06
553.791	9.14
553.987	9.19
554.184	9.3
554.38	9.24
554.577	9.1
554.773	9.22
554.97	9.53
555.166	9.75
555.362	9.7
555.559	9.95
555.755	10.1
555.952	10.2
556.148	10.18
556.344	10.21
556.541	10.11
556.737	10.26
556.933	10.38
557.129	10.1
557.326	9.89
557.522	10.06
557.718	10.14
557.914	10.1
558.11	10.01
558.307	9.95
558.503	10.17
558.699	10.28
558.895	10.33
559.091	10.29
559.287	10.54
559.483	10.56
559.679	10.57
559.876	10.4
560.072	10.57
560.268	10.61
560.464	10.61
560.66	10.55
560.856	10.68
561.052	10.92
561.247	10.97
561.443	11.12
561.639	11.33
561.835	11.46
562.031	11.55
562.227	11.56
562.423	11.62
562.619	11.82
562.815	11.95
563.01	12.18
563.206	12.05
563.402	12.06
563.598	11.95
563.793	12.1
563.989	12.06
564.185	12.07
564.381	12.27
564.576	12.54
564.772	12.66
564.968	12.79
565.163	12.57
565.359	12.31
565.555	12.44
565.75	12.61
565.946	12.56
566.141	12.65
566.337	12.8
566.532	12.77
566.728	12.74
566.923	12.73
567.119	12.52
567.314	12.61
567.51	12.91
567.705	12.91
567.901	12.92
568.096	13.05
568.292	13.06
568.487	13.15
568.682	13.09
568.878	13.25
569.073	13.38
569.268	13.61
569.464	13.74
569.659	13.87
569.854	13.97
570.05	14
570.245	13.9
570.44	13.86
570.635	13.98
570.831	13.94
571.026	13.93
571.221	13.91
571.416	14
571.611	13.98
571.806	14.02
572.002	14.01
572.197	14.06
572.392	14.16
572.587	14.39
572.782	14.41
572.977	14.64
573.172	14.84
573.367	14.87
573.562	14.85
573.757	14.94
573.952	14.96
574.147	15.17
574.342	15.4
574.537	15.47
574.732	15.54
574.927	15.43
575.121	15.44
575.316	15.3
575.511	15.43
575.706	15.49
575.901	15.57
576.096	15.75
576.29	15.86
576.485	15.83
576.68	15.99
576.875	15.89
577.069	16.08
577.264	16.18
577.459	16.54
577.654	16.63
577.848	16.71
578.043	16.93
578.238	16.9
578.432	16.82
578.627	16.73
578.821	16.75
579.016	16.89
579.21	17.14
579.405	17.12
579.6	16.92
579.794	16.84
579.989	16.91
580.183	16.76
580.378	16.91
580.572	17.13
580.766	17.05
580.961	16.92
581.155	17
581.35	16.88
581.544	16.82
581.738	16.78
581.933	17.13
582.127	17.31
582.321	17.39
582.516	17.29
582.71	17.13
582.904	17.38
583.099	17.47
583.293	17.41
583.487	17.67
583.681	17.98
583.875	18.14
584.07	17.99
584.264	17.75
584.458	17.91
584.652	17.93
584.846	17.89
585.04	17.92
585.234	18.12
585.428	18.23
585.623	17.9
585.817	17.8
586.011	17.87
586.205	18.04
586.399	18.41
586.593	18.38
586.787	18.52
586.981	18.67
587.174	18.9
587.368	18.79
587.562	18.85
587.756	19.13
587.95	19.12
588.144	19.1
588.338	19.14
588.532	19.14
588.725	19.37
588.919	19.42
589.113	19.44
589.307	19.41
589.501	19.4
589.694	19.35
589.888	19.43
590.082	19.6
590.275	19.79
590.469	19.9
590.663	19.72
590.856	19.74
591.05	19.82
591.244	19.89
591.437	19.97
591.631	20.17
591.824	20.24
592.018	20.23
592.212	20.31
592.405	20.25
592.599	20.15
592.792	20.12
592.986	20.14
593.179	20.22
593.372	20.17
593.566	20.21
593.759	20.18
593.953	20.42
594.146	20.3
594.339	20.33
594.533	20.39
594.726	20.5
594.92	20.67
595.113	20.56
595.306	20.38
595.499	20.35
595.693	20.31
595.886	20.35
596.079	20.39
596.272	20.42
596.466	20.43
596.659	20.35
596.852	20.3
597.045	20.4
597.238	20.38
597.431	20.56
597.624	20.52
597.818	20.57
598.011	20.69
598.204	20.52
598.397	20.59
598.59	20.55
598.783	20.87
598.976	20.88
599.169	20.86
599.362	20.94
599.555	20.94
599.748	21.24
599.941	21.31
600.134	21.34
600.326	21.75
600.519	22.02
600.712	22.02
600.905	21.8
601.098	21.92
601.291	22.04
601.483	22.41
601.676	22.53
601.869	22.42
602.062	22.57
602.255	22.4
602.447	22.22
602.64	22.01
602.833	22.03
603.025	21.87
603.218	21.66
603.411	21.55
603.603	21.35
603.796	21.31
603.989	21.3
604.181	21.14
604.374	21.37
604.566	21.51
604.759	21.57
604.951	21.55
605.144	21.71
605.336	22.04
605.529	22.05
605.721	21.97
605.914	21.95
606.106	22.06
606.299	22.18
606.491	22.16
606.683	22.13
606.876	22.09
607.068	22.26
607.26	22.42
607.453	22.41
607.645	22.69
607.837	22.8
608.03	22.87
608.222	22.94
608.414	23.12
608.606	23.02
608.799	23.1
608.991	23.1
609.183	23.26
609.375	23.11
609.567	22.87
609.759	22.81
609.952	22.79
610.144	22.82
610.336	22.9
610.528	22.66
610.72	22.63
610.912	22.52
611.104	22.72
611.296	22.64
611.488	22.66
611.68	22.92
611.872	22.88
612.064	23.35
612.256	23.31
612.448	23.36
612.64	23.48
612.832	23.69
613.023	23.67
613.215	23.76
613.407	23.73
613.599	23.83
613.791	23.75
613.983	23.7
614.174	23.42
614.366	23.72
614.558	23.72
614.75	23.64
614.941	23.52
615.133	23.93
615.325	23.95
615.516	24.09
615.708	24.02
615.9	23.93
616.091	23.82
616.283	23.97
616.475	23.78
616.666	23.91
616.858	24.46
617.049	24.57
617.241	24.42
617.432	24.34
617.624	24.19
617.815	24.52
618.007	24.77
618.198	25.08
618.39	24.83
618.581	24.76
618.773	24.63
618.964	24.2
619.155	24.19
619.347	24.1
619.538	23.96
619.729	24.27
619.921	24.11
620.112	24.09
620.303	24.19
620.494	24.24
620.686	24.27
620.877	24.32
621.068	24.38
621.259	24.34
621.451	24.31
621.642	24.39
621.833	24.35
622.024	24.44
622.215	24.57
622.406	24.39
622.597	24.54
622.788	24.5
622.98	24.44
623.171	24.61
623.362	24.67
623.553	24.92
623.744	24.77
623.935	24.68
624.126	24.83
624.317	24.78
624.508	24.88
624.698	24.86
624.889	25.18
625.08	25.46
625.271	25.37
625.462	25.47
625.653	25.42
625.844	25.75
626.034	25.63
626.225	25.41
626.416	25.29
626.607	25.28
626.798	25.45
626.988	25.39
627.179	25.34
627.37	25.28
627.56	25.29
627.751	25.36
627.942	25.33
628.132	25.38
628.323	25.69
628.514	25.98
628.704	26.03
628.895	25.94
629.085	25.96
629.276	26.15
629.466	26.32
629.657	26.38
629.847	26.33
630.038	26.2
630.228	26.48
630.419	26.34
630.609	26.29
630.8	26.14
630.99	25.99
631.181	26.23
631.371	26.16
631.561	26.21
631.752	26.41
631.942	26.45
632.132	26.8
632.323	26.59
632.513	26.64
632.703	26.59
632.893	26.77
633.084	26.95
633.274	26.76
633.464	26.62
633.654	26.62
633.844	26.39
634.034	26.15
634.225	26.1
634.415	26.23
634.605	26.31
634.795	26.27
634.985	26.61
635.175	26.45
635.365	26.4
635.555	26.59
635.745	26.57
635.935	26.71
636.125	26.91
636.315	27.05
636.505	26.92
636.695	26.84
636.885	26.89
637.075	26.56
637.265	26.77
637.455	26.63
637.644	26.45
637.834	26.6
638.024	26.81
638.214	27.17
638.404	27.06
638.593	27.26
638.783	27.42
638.973	27.92
639.163	27.79
639.352	27.88
639.542	28.43
639.732	28.7
639.921	28.92
640.111	28.97
640.301	28.77
640.49	28.88
640.68	28.84
640.87	28.51
641.059	28.35
641.249	28.83
641.438	28.76
641.628	28.43
641.817	28.1
642.007	27.87
642.196	27.65
642.386	27.89
642.575	28.03
642.764	27.91
642.954	27.93
643.143	27.81
643.333	27.68
643.522	28.03
643.711	28.22
643.901	28.34
644.09	28.6
644.279	28.82
644.469	28.49
644.658	28.43
644.847	28.58
645.036	28.53
645.226	28.4
645.415	28.58
645.604	28.43
645.793	28.34
645.982	28.06
646.171	27.74
646.361	27.99
646.55	28.39
646.739	28.18
646.928	28.2
647.117	28.43
647.306	28.64
647.495	28.22
647.684	28.61
647.873	29.03
648.062	29.49
648.251	29.79
648.44	29.37
648.629	29.37
648.818	29.71
649.007	29.62
649.196	29.99
649.384	30.06
649.573	30.54
649.762	29.96
649.951	29.57
650.14	29.36
650.328	29.36
650.517	29.6
650.706	29.37
650.895	29.38
651.083	29.71
651.272	29.43
651.461	29.11
651.65	29.18
651.838	29.36
652.027	29.34
652.216	29.23
652.404	29.35
652.593	29.34
652.781	29.27
652.97	29.34
653.158	29.31
653.347	29.55
653.535	29.38
653.724	29.13
653.912	29.23
654.101	29.65
654.289	30.13
654.478	29.9
654.666	29.81
654.855	29.93
655.043	29.49
655.231	29.24
655.42	28.91
655.608	29.54
655.796	29.71
655.985	29.61
656.173	29.37
656.361	29.16
656.55	29
656.738	29.19
656.926	29.14
657.114	29.64
657.302	29.9
657.491	29.61
657.679	29.27
657.867	29.35
658.055	29.54
658.243	29.63
658.431	29.8
658.619	30.35
658.807	30.56
658.996	30.66
659.184	30.25
659.372	30.36
659.56	30.78
659.748	30.53
659.936	30.68
660.124	30.47
660.311	30.58
660.499	30.72
660.687	30.39
660.875	30.2
661.063	30.12
661.251	30.43
661.439	30.23
661.627	30.36
661.814	30.95
662.002	30.78
662.19	31.05
662.378	30.79
662.565	30.86
662.753	31.16
662.941	31.18
663.129	31.52
663.316	31.79
663.504	31.97
663.692	32.01
663.879	32.05
664.067	32.02
664.254	31.98
664.442	31.99
664.63	31.75
664.817	31.53
665.005	31.78
665.192	31.73
665.38	31.47
665.567	31.46
665.755	31.49
665.942	31.57
666.13	31.84
666.317	32.06
666.504	32.44
666.692	32.8
666.879	32.79
667.067	32.19
667.254	31.64
667.441	31.35
667.629	31.26
667.816	31.32
668.003	30.95
668.19	30.74
668.378	30.52
668.565	29.99
668.752	29.65
668.939	29.37
669.127	29.69
669.314	30.06
669.501	30.41
669.688	30.72
669.875	30.56
670.062	31.01
670.249	30.86
670.436	30.91
670.623	31.05
670.81	31.33
670.997	31.71
671.184	31.94
671.371	32.17
671.558	32.26
671.745	32.6
671.932	32.38
672.119	31.81
672.306	31.97
672.493	32.35
672.68	32.38
672.867	32.51
673.054	32.35
673.24	32.48
673.427	32.46
673.614	32.59
673.801	32.28
673.988	33.07
674.174	33.44
674.361	33.29
674.548	33
674.734	33.23
674.921	32.81
675.108	33.37
675.294	32.83
675.481	32.84
675.668	32.84
675.854	32.64
676.041	32.04
676.227	31.92
676.414	32.37
676.601	32.45
676.787	32.71
676.974	33.2
677.16	33.04
677.347	33.02
677.533	33.18
677.719	32.83
677.906	32.58
678.092	33.12
678.279	33.04
678.465	32.97
678.651	33.24
678.838	33.24
679.024	32.85
679.21	32.42
679.397	32.58
679.583	32.74
679.769	32.91
679.955	32.98
680.142	32.85
680.328	33.56
680.514	33.55
680.7	33.21
680.886	33.52
681.073	33.46
681.259	33.49
681.445	33.98
681.631	33.89
681.817	33.8
682.003	33.85
682.189	33.65
682.375	33.04
682.561	32.97
682.747	33.2
682.933	32.95
683.119	33.23
683.305	33.43
683.491	32.9
683.677	32.64
683.863	32.86
684.049	33.02
684.235	32.92
684.42	33.09
684.606	32.91
684.792	32.95
684.978	32.56
685.164	32.49
685.349	32.76
685.535	33.06
685.721	32.85
685.907	33.03
686.092	33.35
686.278	33.48
686.464	33.47
686.649	33.73
686.835	33.63
687.021	34.31
687.206	34.59
687.392	34.61
687.577	34.66
687.763	35.17
687.948	35.03
688.134	34.66
688.319	35.03
688.505	35.44
688.69	35.7
688.876	35.64
689.061	35.25
689.247	35.29
689.432	35.27
689.618	34.75
689.803	34.48
689.988	34.61
690.174	35.1
690.359	35.06
690.544	34.66
690.73	34.41
690.915	35.18
691.1	35.51
691.285	35.69
691.471	35.96
691.656	36.57
691.841	36.66
692.026	36.59
692.211	36.68
692.396	36.62
692.582	36.98
692.767	37.03
692.952	36.52
693.137	36.27
693.322	36.1
693.507	36.36
693.692	36.39
693.877	36.69
694.062	37.1
694.247	36.61
694.432	36.57
694.617	36.45
694.802	36.24
694.987	36.49
695.172	36.71
695.357	36.57
695.541	36.28
695.726	36.7
695.911	36.94
696.096	36.52
696.281	36.98
696.466	37.12
696.65	37.03
696.835	37.67
697.02	37.35
697.204	37.09
697.389	37.27
697.574	36.87
697.759	36.61
697.943	36.41
698.128	36.29
698.312	35.76
698.497	35.18
698.682	35.15
698.866	35.1
699.051	35.1
699.235	35.06
699.42	35.13
699.604	35.19
699.789	35.08
699.973	34.7
700.158	34.94
700.342	35.21
700.527	35.72
700.711	36.06
700.895	35.98
701.08	35.98
701.264	36.18
701.448	35.79
701.633	35.93
701.817	35.71
702.001	36.36
702.186	36.16
702.37	36.62
702.554	36.55
702.738	35.89
702.923	35.51
703.107	35.75
703.291	35.89
703.475	36.08
703.659	35.93
703.843	36.4
704.027	36.52
704.212	36.62
704.396	35.94
704.58	35.71
704.764	36.05
704.948	36.21
705.132	35.99
705.316	35.76
705.5	36.44
705.684	36.87
705.868	36.76
706.052	36.49
706.235	36.79
706.419	37.36
706.603	37.83
706.787	38.16
706.971	38.44
707.155	38.17
707.339	38.71
707.522	38.28
707.706	38.02
707.89	38.09
708.074	38.15
708.257	38.06
708.441	38.11
708.625	38
708.808	37.9
708.992	37.79
709.176	37.96
709.359	37.58
709.543	37.41
709.727	37.82
709.91	37.39
710.094	37.13
710.277	37.03
710.461	36.81
710.644	36.44
710.828	36.59
711.011	36.77
711.195	37.17
711.378	37.18
711.562	37.11
711.745	36.72
711.928	37.13
712.112	37.51
712.295	37.5
712.478	37.83
712.662	38.61
712.845	38.6
713.028	38.16
713.212	38.17
713.395	38.36
713.578	38.65
713.761	38.69
713.945	38.41
714.128	38.09
714.311	38.45
714.494	38.34
714.677	37.91
714.86	38.04
715.043	38.53
715.227	38.15
715.41	37.71
715.593	37.92
715.776	38.47
715.959	38.63
716.142	38.99
716.325	38.31
716.508	38.44
716.691	38.48
716.874	38.27
717.057	38.38
717.239	38.71
717.422	39.15
717.605	38.84
717.788	38.13
717.971	38.55
718.154	38.34
718.337	38.92
718.519	38.92
718.702	39.19
718.885	38.76
719.068	38.63
719.25	39.22
719.433	38.87
719.616	39.18
719.798	38.73
719.981	39.11
720.164	39.05
720.346	38.45
720.529	38.34
720.712	38.35
720.894	38.46
721.077	38.49
721.259	37.85
721.442	38.46
721.624	38.29
721.807	38.61
721.989	38.07
722.172	37.73
722.354	38.26
722.537	39.04
722.719	38.76
722.901	39.59
723.084	39.62
723.266	39.41
723.448	39.61
723.631	39.46
723.813	40.14
723.995	39.74
724.178	40.1
724.36	40.12
724.542	39.28
724.724	39.94
724.907	39.94
725.089	39.61
725.271	40.9
725.453	40.47
725.635	40.81
725.817	41.41
725.999	41.85
726.181	42.22
726.364	41.67
726.546	41.88
726.728	41.48
726.91	40.73
727.092	40.76
727.274	39.59
727.456	39.96
727.638	39.91
727.819	39.69
728.001	39.12
728.183	39.73
728.365	40.3
728.547	40.03
728.729	40.24
728.911	40.88
729.093	40.43
729.274	40.23
729.456	39.77
729.638	39.86
729.82	38.8
730.001	39.37
730.183	38.91
730.365	39.24
730.546	39.98
730.728	39.18
730.91	38.96
731.091	39.59
731.273	39.89
731.455	40.03
731.636	40.09
731.818	41.17
731.999	41.17
732.181	40.98
732.362	40.62
732.544	40.34
732.725	41.1
732.907	41.33
733.088	41.2
733.27	41.28
733.451	41.24
733.633	42.07
733.814	41.38
733.995	41.33
734.177	41.17
734.358	41.36
734.539	41
734.721	40.73
734.902	40.16
735.083	40.21
735.264	40.4
735.446	40.9
735.627	39.34
735.808	39.45
735.989	39.54
736.17	39.76
736.351	39.04
736.533	39.01
736.714	38.31
736.895	38.89
737.076	39.24
737.257	39.2
737.438	38.72
737.619	40.2
737.8	41.21
737.981	41.25
738.162	41.14
738.343	42.07
738.524	41.78
738.705	42.67
738.886	42.57
739.067	42.36
739.247	42.6
739.428	43.03
739.609	41.42
739.79	40.62
739.971	39.94
740.151	39.93
740.332	40.42
740.513	39.8
740.694	40.28
740.874	40.62
741.055	40.68
741.236	40.48
741.417	40.67
741.597	41.28
741.778	41.43
741.958	41.62
742.139	42.42
742.32	42.07
742.5	43.46
742.681	43.74
742.861	42.49
743.042	42.34
743.222	42.23
743.403	41.48
743.583	41.54
743.764	41.97
743.944	42.7
744.124	42.16
744.305	40.91
744.485	41.18
744.666	38.73
744.846	39.28
745.026	40.01
745.207	40.3
745.387	40.49
745.567	40.84
745.747	40.52
745.928	39.94
746.108	39.73
746.288	40.76
746.468	39.77
746.648	41.4
746.829	41.49
747.009	41.49
747.189	41.33
747.369	41.64
747.549	40.94
747.729	41.79
747.909	41.26
748.089	41.48
748.269	41.72
748.449	42.46
748.629	42.07
748.809	42.31
748.989	42.47
749.169	42.78
749.349	42.52
749.529	42.81
749.709	41.22
749.889	42.4
750.068	42.45
750.248	42.53
750.428	42.38
750.608	43.01
750.788	42.17
750.967	41.2
751.147	40.12
751.327	40.52
751.507	40.19
751.686	40.24
751.866	40.2
752.046	39.62
752.225	39.33
752.405	39.58
752.585	40.43
752.764	40.55
752.944	41.22
753.123	41.74
753.303	40.76
753.482	41.27
753.662	41.41
753.841	41.17
754.021	41.89
754.2	42.54
754.38	42.27
754.559	41.51
754.739	42.08
754.918	41.95
755.097	41.8
755.277	42.45
755.456	43.1
755.635	44.23
755.815	44.32
755.994	44.03
756.173	43.09
756.352	42.44
756.532	42.45
756.711	42.39
756.89	41.77
757.069	42.96
757.248	42.52
757.427	41.22
757.607	41.03
757.786	40.85
757.965	40.34
758.144	41.47
758.323	42.03
758.502	41.05
758.681	41.22
758.86	41.72
759.039	40.88
759.218	41.47
759.397	42.11
759.576	41.78
759.755	41.72
759.934	42.32
760.113	42.07
760.291	42.43
760.47	43.92
760.649	43.39
760.828	43.5
761.007	43.91
761.186	43.78
761.364	43.39
761.543	42.23
761.722	42.04
761.901	40.78
762.079	40.63
762.258	40.61
762.437	39.83
762.615	40.95
762.794	40.4
762.972	39.95
763.151	39.6
763.33	39.73
763.508	40.29
763.687	40.02
763.865	41.22
764.044	41.13
764.222	40.7
764.401	40.99
764.579	40.69
764.758	41.09
764.936	40.97
765.114	40.68
765.293	40.73
765.471	41.84
765.65	42.67
765.828	42.72
766.006	42.58
766.184	42.49
766.363	42.12
766.541	40.48
766.719	40.46
766.898	40.86
767.076	41.52
767.254	41.14
767.432	40.53
767.61	40.61
767.788	40.41
767.967	40.1
768.145	40.56
768.323	40.42
768.501	42.05
768.679	41.81
768.857	41.49
769.035	41.53
769.213	42.69
769.391	42.33
769.569	41.98
769.747	43.61
769.925	43.56
770.103	42.83
770.281	43.39
770.459	43.62
770.636	44.11
770.814	44.46
770.992	44.75
771.17	44.93
771.348	45.1
771.525	46.33
771.703	43.72
771.881	44.5
772.059	44.7
772.236	44.49
772.414	44.29
772.592	45.39
772.769	45.7
772.947	45.93
773.125	44.73
773.302	43.58
773.48	42.42
773.657	43.5
773.835	42.36
774.013	43.7
774.19	45.6
774.368	45.09
774.545	43.26
774.723	43.39
774.9	42.24
775.077	42.81
775.255	44.74
775.432	45.82
775.61	46.03
775.787	46.21
775.964	45.38
776.142	45.29
776.319	47.28
776.496	48.88
776.674	48.33
776.851	50.28
777.028	49.98
777.205	49.21
777.382	48.64
777.56	48.17
777.737	50.11
777.914	49.77
778.091	49.09
778.268	48.97
778.445	48.17
778.622	47.53
778.8	47.16
778.977	47.54
779.154	52.27
779.331	51.69
779.508	53.8
779.685	51.99
779.862	51.3
780.038	51.58
780.215	51.09
780.392	50.73
780.569	51.39
780.746	52.12
780.923	53.05
781.1	48.62
781.277	49.44
781.453	47.04
781.63	47.2
781.807	49.4
781.984	48.59
782.16	48.85
782.337	48.38
782.514	47.67
782.691	48.74
782.867	48.81
783.044	47.08
783.221	47.17
783.397	48.14
783.574	47.58
783.75	48.7
783.927	49.27
784.103	50.05
784.28	51.51
784.456	53.08
784.633	50.43
784.809	50.23
784.986	51.09
785.162	50.79
785.339	49.61
785.515	50
785.692	48.68
785.868	47.48
786.044	46.03
786.221	46.08
786.397	44.52
786.573	44.99
786.749	45.53
786.926	47.04
787.102	46.02
787.278	47.37
787.454	47.67
787.631	46.25
787.807	46.28
787.983	45.42
788.159	45.05
788.335	46.19
788.511	46.15
788.687	44.24
788.863	43.69
789.039	44.23
789.216	43.22
789.392	44.73
789.568	45.07
789.744	46.23
789.919	46.41
790.095	46.31
790.271	48.15
790.447	47.81
790.623	48.65
790.799	49.03
790.975	48.03
791.151	48.68
791.327	47.61
791.502	48.29
791.678	47.87
791.854	48.01
792.03	48.55
792.205	46.32
792.381	46.37
792.557	48.31
792.733	48.37
792.908	49.97
793.084	49.6
793.259	49.61
793.435	47.4
793.611	47.57
793.786	47.69
793.962	46.35
794.137	45.69
794.313	44.65
794.488	44.2
794.664	44.46
794.839	44.74
795.015	43.95
795.19	44.06
795.366	45.79
795.541	44.4
795.716	45.06
795.892	48.17
796.067	48.62
796.242	48.46
796.418	47.99
796.593	47.56
796.768	46.64
796.944	48.25
797.119	47.32
797.294	47.58
797.469	46.93
797.644	46.73
797.82	43.57
797.995	43.74
798.17	45.2
798.345	43.2
798.52	42.76
798.695	43.9
798.87	44.49
799.045	46.16
799.22	47.66
799.395	49.27
799.57	48.87
799.745	50.2
799.92	50.07
800.095	51.15
800.27	52.39
800.445	53.33
800.62	51.7
800.795	53.99
800.97	53.96
801.145	51.89
801.319	51.6
801.494	51.65
801.669	53
801.844	55.88
802.018	53.75
802.193	52.55
802.368	50.65
802.543	50.37
802.717	46.14
802.892	45.17
803.067	46.39
803.241	45.56
803.416	47.87
803.59	45.88
803.765	43.65
803.94	44.59
804.114	45.05
804.289	45.67
804.463	46.3
804.638	44.18
804.812	45.2
804.986	42.7
805.161	44.35
805.335	43.52
805.51	44.32
805.684	44.23
805.858	42.61
806.033	42.51
806.207	41.62
806.381	42.62
806.556	45.19
806.73	43.37
806.904	45.51
807.078	46.49
807.253	46.35
807.427	43.91
807.601	43.47
807.775	45.3
807.949	48.31
808.123	50.78
808.298	49.15
808.472	51.82
808.646	52.73
808.82	49.98
808.994	49.15
809.168	49.76
809.342	53.31
809.516	53.86
809.69	54.68
809.864	53.49
810.038	55.02
810.212	55.53
810.385	52.67
810.559	54.21
810.733	54.35
810.907	53.28
811.081	52.51
811.255	51.1
811.428	51.4
811.602	51.26
811.776	52.39
811.95	51.67
812.123	51.55
812.297	51.76
812.471	50.83
812.644	51.72
812.818	53.13
812.992	49.59
813.165	50.44
813.339	49.16
813.512	47.21
813.686	46.43
813.86	45.88
814.033	46.42
814.207	46.26
814.38	45.11
814.554	47.27
814.727	47.32
814.9	48.54
815.074	50.85
815.247	50.55
815.421	49.35
815.594	48.35
815.767	44.73
815.941	45.09
816.114	48.67
816.287	50.63
816.46	48.57
816.634	49.2
816.807	54.19
816.98	51.43
817.153	57.07
817.327	57.84
817.5	56.62
817.673	60.11
817.846	61.55
818.019	59.99
818.192	58.32
818.365	59.27
818.538	58.99
818.711	54.11
818.884	54.73
819.057	49.6
819.23	51.76
819.403	50.28
819.576	47.37
819.749	46.13
819.922	44.48
820.095	43.92
820.268	43.22
820.441	43.28
820.614	43.33
820.786	42.29
820.959	42.07
821.132	40.82
821.305	40.38
821.477	39.72
821.65	39.55
821.823	39.95
821.996	39.02
822.168	39.15
822.341	38.78
822.514	39.08
822.686	39.27
822.859	39.64
823.031	39.34
823.204	39.49
823.376	40.3
823.549	40.51
823.722	40.42
823.894	41.42
824.067	41.33
824.239	41.8
824.411	42.04
824.584	42.15
824.756	42.74
824.929	43.35
825.101	44.17
825.273	44.06
825.446	43.73
825.618	43.91
825.79	43.35
825.963	43.19
826.135	42.06
826.307	41.42
826.479	41.6
826.652	40.89
826.824	40.4
826.996	39.94
827.168	39.53
827.34	39.71
827.512	39.2
827.684	39.78
827.856	40.74
828.029	41.47
828.201	42.16
828.373	42.2
828.545	42.42
828.717	43.1
828.889	43.37
829.061	43.97
829.232	44.55
829.404	44.85
829.576	45.06
829.748	43.93
829.92	45.87
830.092	47.15
830.264	46.49
830.436	46.37
830.607	47.23
830.779	47.99
830.951	48.64
831.123	46.55
831.294	45.32
831.466	44.79
831.638	46.33
831.809	43.08
831.981	42.3
832.153	44.01
832.324	43.74
832.496	43.55
832.667	43.62
832.839	45.08
833.011	46.76
833.182	48.73
833.354	49.21
833.525	49.84
833.697	50.23
833.868	48.99
834.039	49.97
834.211	48.96
834.382	48.36
834.554	47.96
834.725	46.18
834.896	46.13
835.068	45.62
835.239	45.81
835.41	46.13
835.581	48.06
835.753	47.54
835.924	45.54
836.095	45.45
836.266	43.1
836.438	43.13
836.609	43.3
836.78	43.83
836.951	45.95
837.122	43.69
837.293	44.17
837.464	43.27
837.635	45.26
837.806	44.59
837.977	47.72
838.148	50.01
838.319	50.48
838.49	51.76
838.661	51.68
838.832	51.24
839.003	50.57
839.174	48.88
839.345	46.78
839.516	47.12
839.687	49.61
839.857	48.42
840.028	50.35
840.199	49.69
840.37	50.49
840.54	51.41
840.711	48.25
840.882	53.79
841.053	52.71
841.223	56.01
841.394	52.54
841.564	53.03
841.735	50.47
841.906	50.27
842.076	43.97
842.247	46.12
842.417	48.05
842.588	52.48
842.758	51.65
842.929	50.08
843.099	52.8
843.27	57.46
843.44	58.78
843.611	60.49
843.781	57.64
843.951	60.46
844.122	59.08
844.292	58.56
844.462	57.57
844.633	55.15
844.803	59.29
844.973	54.87
845.144	52.7
845.314	53.01
845.484	53.18
845.654	58.98
845.824	63.06
845.995	63.67
846.165	59.08
846.335	60.66
846.505	65.46
846.675	65.99
846.845	64.54
847.015	66.08
847.185	62.69
847.355	61.89
847.525	57.09
847.695	64.73
847.865	59.17
848.035	64.53
848.205	61.43
848.375	61.37
848.545	52.61
848.715	57.95
848.884	59.32
849.054	63.34
849.224	68.48
849.394	72
849.564	67.34
849.733	70.16
849.903	74.18
850.073	79.88
850.243	79.74
850.412	79.74
850.582	77.04
850.752	72.92
850.921	71.51
851.091	73.51
851.26	75.79
851.43	75.33
851.599	68.58
851.769	65.36
851.939	58.45
852.108	59.6
852.278	69.84
852.447	58.85
852.616	62.12
852.786	54.59
852.955	55.19
853.125	61.87
853.294	63.32
853.463	68
853.633	73.3
853.802	74.96
853.971	72.81
854.141	74.67
854.31	76.43
854.479	71.93
854.648	76.25
854.818	75.48
854.987	68.06
855.156	65.39
855.325	68.57
855.494	65.69
855.663	69.05
855.832	65.15
856.001	68.61
856.171	81.56
856.34	86.62
856.509	93.4
856.678	86.84
856.847	93.46
857.016	97.37
857.185	90.67
857.353	92.17
857.522	96.4
857.691	97.77
857.86	90.84
858.029	74.57
858.198	85.14
858.367	86.79
858.535	98.01
858.704	98.39
858.873	99.48
859.042	98.2
859.21	96.46
859.379	90.15
859.548	79.05
859.717	85.5
859.885	92.93
860.054	79.72
860.222	62.8
860.391	58.37
860.56	45.08
860.728	39.48
860.897	36.45
861.065	30.04
861.234	37.12
861.402	40.77
861.571	36.48
861.739	45.36
861.908	52.23
862.076	69.83
862.244	70.39
862.413	71.6
862.581	68.66
862.749	72.05
862.918	75.11
863.086	70.87
863.254	74.27
863.423	79.48
863.591	88.15
863.759	79.26
863.927	69.62
864.096	65.13
864.264	67.4
864.432	69.57
864.6	68.23
864.768	65.19
864.936	72.21
865.104	73.26
865.272	78.85
865.44	71.94
865.608	66.58
865.776	77.52
865.944	74.09
866.112	74.41
866.28	74.87
866.448	74.18
866.616	70.92
866.784	67.71
866.952	67.58
867.12	59.17
867.288	56.9
867.455	61.9
867.623	57.06
867.791	64.8
867.959	66.74
868.127	60.95
868.294	68.88
868.462	69.23
868.63	69.2
868.797	76.06
868.965	79.6
869.133	78.71
869.3	82.36
869.468	79.14
869.636	67.87
869.803	75.02
869.971	88.93
870.138	87.58
870.306	85.05
870.473	85.31
870.641	70.57
870.808	58.85
870.975	57.98
871.143	57.94
871.31	55.39
871.478	69.31
871.645	54.47
871.812	53.39
871.98	52.07
872.147	57.24
872.314	51.84
872.482	55.77
872.649	66.42
872.816	63.62
872.983	58.22
873.15	51.17
873.318	44.07
873.485	58.1
873.652	52.03
873.819	59.07
873.986	63.23
874.153	70.96
874.32	77.59
874.487	70.16
874.654	83.01
874.821	88.73
874.988	92.9
875.155	94.7
875.322	91.28
875.489	103.57
875.656	96.49
875.823	79.78
875.99	71.09
876.157	68.37
876.324	78.93
876.49	71.59
876.657	69.44
876.824	67.42
876.991	71.46
877.157	65.1
877.324	61.21
877.491	65.55
877.658	82.51
877.824	83.11
877.991	80.81
878.157	76.68
878.324	72.71
878.491	77.27
878.657	92.19
878.824	92.44
878.99	94.64
879.157	100.5
879.323	89.72
879.49	84.04
879.656	89.63
879.823	83.06
879.989	82.91
880.156	83.12
880.322	73.84
880.488	65.55
880.655	61.97
880.821	64.45
880.987	61.97
881.154	64.6
881.32	59.41
881.486	56.88
881.652	59.74
881.819	59.76
881.985	55.89
882.151	57.96
882.317	55.58
882.483	52.31
882.649	51.25
882.816	49.94
882.982	48.14
883.148	47.63
883.314	46.68
883.48	48.48
883.646	46.98
883.812	47.04
883.978	47.33
884.144	48.42
884.31	47.19
884.476	47.44
884.642	47.87
884.807	48.23
884.973	48.32
885.139	49.7
885.305	49.73
885.471	49.57
885.637	49.35
885.802	48.66
885.968	48.35
886.134	53.2
886.3	51.88
886.465	50.9
886.631	51.56
886.797	53.46
886.962	50.75
887.128	49.7
887.293	50.49
887.459	53.01
887.625	50.89
887.79	51.97
887.956	46.38
888.121	47.91
888.287	48.01
888.452	47.7
888.618	43.59
888.783	48.35
