Data from LC_188_Reflection_2.txt Node
Date: Tue Nov 17 13:25:18 EST 2015
User: robert
Spectrometer: USB4E03001
Autoset integration time: false
Trigger mode: 4
Integration Time (sec): 1.000000E-1
Scans to average: 15
Electric dark correction enabled: true
Nonlinearity correction enabled: false
Boxcar width: 5
Stray light correction enabled: false
XAxis mode: Wavelengths
Stop averaging: false
Number of Pixels in Spectrum: 3648
>>>>>Begin Spectral Data<<<<<
177.566	259.32
177.785	330.99
178.005	-1767.16
178.225	565.98
178.445	-757.95
178.665	-184.33
178.885	-91.56
179.105	-354.53
179.324	808.45
179.544	1154.6
179.764	250.79
179.984	136.55
180.204	155.72
180.423	347.01
180.643	532.3
180.863	-1472.03
181.083	-1787.76
181.302	304.68
181.522	136.52
181.742	260.29
181.961	1645.1
182.181	-157.47
182.401	-9.01
182.621	-176.54
182.84	-147.35
183.06	-582.83
183.279	963.5
183.499	-2600.84
183.719	-284.39
183.938	-127.59
184.158	-215.34
184.377	-237.41
184.597	-171.48
184.816	254.55
185.036	218.85
185.256	242.38
185.475	132.28
185.695	143.18
185.914	126.36
186.134	131.98
186.353	71.62
186.572	74.26
186.792	92.28
187.011	110.6
187.231	239.05
187.45	715.84
187.67	191.72
187.889	266.59
188.108	168.59
188.328	222.62
188.547	234.76
188.766	-831.33
188.986	899.36
189.205	215.48
189.424	228.76
189.644	189.21
189.863	119.65
190.082	148.39
190.302	135.97
190.521	263.77
190.74	4322.73
190.959	635.7
191.178	190.68
191.398	189.44
191.617	584.53
191.836	462.31
192.055	305.22
192.274	-948.06
192.494	-503.74
192.713	-1507.55
192.932	-451.89
193.151	1053.95
193.37	16076.19
193.589	-652650
193.808	15747.19
194.027	-1998.05
194.246	-748.63
194.465	3350.83
194.685	317.44
194.904	218.63
195.123	30554.17
195.342	995.76
195.561	310.4
195.78	253.12
195.999	305.22
196.218	197.21
196.436	165.75
196.655	139.63
196.874	137.24
197.093	185
197.312	143.07
197.531	128.83
197.75	130.76
197.969	157.97
198.188	177.22
198.407	158.3
198.625	189.88
198.844	202.09
199.063	148.56
199.282	172.85
199.501	112.54
199.719	164.83
199.938	199.07
200.157	248.94
200.376	466.47
200.594	226.76
200.813	160.25
201.032	168.23
201.251	194.55
201.469	3091.33
201.688	978.76
201.907	-5178.39
202.125	1597.38
202.344	1540.39
202.563	945.57
202.781	734.52
203	-770.24
203.218	-146.62
203.437	-263.53
203.656	-142.81
203.874	-507.86
204.093	-772.89
204.311	-736.58
204.53	14318.42
204.748	-518.05
204.967	2930.24
205.185	606.08
205.404	282.16
205.622	280.35
205.841	222.08
206.059	262.44
206.278	197.44
206.496	204.59
206.715	199.62
206.933	240.48
207.151	214.09
207.37	191.39
207.588	200.6
207.806	254.27
208.025	199.87
208.243	242.96
208.461	246.78
208.68	378.19
208.898	-368.84
209.116	-587.56
209.335	1480.4
209.553	-866.17
209.771	289.77
209.989	132.99
210.208	155.51
210.426	184.81
210.644	127.35
210.862	87.64
211.081	54.83
211.299	47.93
211.517	68.16
211.735	63.56
211.953	59.3
212.171	86
212.39	159.84
212.608	174.72
212.826	233.81
213.044	218.65
213.262	219.75
213.48	-10556.72
213.698	-620.53
213.916	218.38
214.134	-211.87
214.352	-89.4
214.57	-182.34
214.788	2042.64
215.006	802.63
215.224	771.56
215.442	570.24
215.66	665.11
215.878	389.9
216.096	187.27
216.314	224.04
216.532	161.43
216.75	111.77
216.968	102.07
217.185	115.59
217.403	123.59
217.621	111.07
217.839	111.19
218.057	116.91
218.275	132.12
218.492	141.76
218.71	153.52
218.928	177.73
219.146	235.11
219.363	253.94
219.581	209.49
219.799	200.7
220.017	225.74
220.234	202.02
220.452	157.27
220.67	144.81
220.887	153.68
221.105	152.25
221.323	129.78
221.54	109.76
221.758	99.82
221.976	101.36
222.193	83.16
222.411	64.6
222.629	67.03
222.846	73.43
223.064	55.11
223.281	58.06
223.499	60.86
223.716	72.51
223.934	74.36
224.151	69.25
224.369	55.11
224.586	85.87
224.804	104.13
225.021	116.55
225.239	112.06
225.456	104.49
225.674	91.98
225.891	85.09
226.108	82.04
226.326	79.43
226.543	65.36
226.76	69.07
226.978	54.15
227.195	46.93
227.413	42.1
227.63	30.43
227.847	30.41
228.064	30.23
228.282	29.65
228.499	30.43
228.716	26.83
228.934	26.88
229.151	27.55
229.368	27.97
229.585	27.06
229.802	28.38
230.02	34.06
230.237	35.39
230.454	36.1
230.671	36.35
230.888	34.51
231.105	39.4
231.323	40.88
231.54	39.73
231.757	43.63
231.974	46.52
232.191	40.97
232.408	39.48
232.625	38.66
232.842	39.05
233.059	38.5
233.276	41.09
233.493	38.84
233.71	38.73
233.927	34.17
234.144	34.42
234.361	25.71
234.578	36.08
234.795	34.52
235.012	30.99
235.229	28.29
235.446	26.85
235.663	29.1
235.879	32.39
236.096	36.75
236.313	41.14
236.53	34.13
236.747	40.33
236.964	35.19
237.181	37.13
237.397	35.62
237.614	37.69
237.831	43.14
238.048	40.21
238.264	37.84
238.481	33.53
238.698	32.06
238.915	34.74
239.131	39.04
239.348	39.94
239.565	36.14
239.781	40.87
239.998	40.02
240.215	35.2
240.431	32.16
240.648	29.75
240.865	30.68
241.081	29.9
241.298	30.86
241.514	26.33
241.731	24.54
241.947	22.38
242.164	21.6
242.38	18.72
242.597	18.72
242.814	20.56
243.03	19.21
243.246	17.67
243.463	17
243.679	15.6
243.896	13.96
244.112	13.3
244.329	16.47
244.545	16.57
244.762	19.33
244.978	19
245.194	17.11
245.411	19.06
245.627	22.53
245.843	20.62
246.06	19.76
246.276	19.28
246.492	18.28
246.709	16.5
246.925	17.13
247.141	17.42
247.357	16.12
247.574	16.36
247.79	16.06
248.006	13.77
248.222	15.17
248.439	15.44
248.655	16.05
248.871	16.71
249.087	17.25
249.303	16.78
249.519	17.01
249.736	18.53
249.952	18.36
250.168	20.31
250.384	22.9
250.6	21.86
250.816	18.46
251.032	17.47
251.248	17.61
251.464	17.6
251.68	16.85
251.896	16.22
252.112	14.87
252.328	16.11
252.544	14.16
252.76	14.41
252.976	14.02
253.192	16.5
253.408	18.54
253.624	18.9
253.84	17.63
254.056	16.56
254.272	14.92
254.487	18.75
254.703	18.84
254.919	19.51
255.135	20.07
255.351	20.71
255.567	19.01
255.782	14.78
255.998	14.48
256.214	19.02
256.43	18.61
256.646	20.51
256.861	17.81
257.077	16.64
257.293	16.43
257.508	16.88
257.724	17.09
257.94	16.6
258.155	17.07
258.371	17.25
258.587	14.53
258.802	15.52
259.018	13.33
259.234	12.97
259.449	13.57
259.665	13.3
259.88	12.28
260.096	12.81
260.312	12.69
260.527	12.64
260.743	12.28
260.958	12.18
261.174	11.92
261.389	13.3
261.605	14.01
261.82	13.98
262.036	14.52
262.251	14.65
262.466	12.49
262.682	13.88
262.897	14.51
263.113	13.59
263.328	14.58
263.543	17.12
263.759	17.43
263.974	16.38
264.189	14.71
264.405	15.18
264.62	16.76
264.835	18.63
265.051	17.31
265.266	18.56
265.481	20.6
265.696	20.7
265.912	18.07
266.127	15.4
266.342	15.4
266.557	14.78
266.773	14.41
266.988	14.89
267.203	15.39
267.418	17.54
267.633	16.81
267.848	15.69
268.064	14.88
268.279	14.92
268.494	15.25
268.709	15.07
268.924	16.64
269.139	16.59
269.354	16.55
269.569	16.06
269.784	14.13
269.999	13.33
270.214	13.34
270.429	15.29
270.644	14.64
270.859	14.58
271.074	15.73
271.289	15.76
271.504	15.98
271.719	14.74
271.934	14.63
272.149	14.54
272.363	15.52
272.578	16.12
272.793	14.67
273.008	14.09
273.223	14.82
273.438	14.14
273.653	13.78
273.867	14.06
274.082	15.82
274.297	16.36
274.512	17.54
274.726	16.75
274.941	15.7
275.156	16.74
275.371	17.99
275.585	17.82
275.8	18.3
276.015	18.83
276.229	18.62
276.444	16.82
276.659	17.01
276.873	16.58
277.088	16.71
277.302	16.29
277.517	15.03
277.732	14.13
277.946	13.73
278.161	13.91
278.375	13.2
278.59	13.75
278.804	14.07
279.019	13.57
279.233	12.59
279.448	12.42
279.662	14.68
279.877	15.79
280.091	16.37
280.306	16.81
280.52	16.74
280.735	17.55
280.949	16.13
281.163	15.97
281.378	16.09
281.592	16.03
281.806	15.54
282.021	14.89
282.235	13.91
282.449	13.87
282.664	14.22
282.878	14.16
283.092	12.56
283.307	12.97
283.521	12.86
283.735	11.92
283.949	10.87
284.164	10.76
284.378	9.37
284.592	9.39
284.806	9.6
285.02	8.86
285.234	7.96
285.449	9.01
285.663	9.22
285.877	10.4
286.091	10.68
286.305	11.61
286.519	11.93
286.733	11.98
286.947	12.51
287.161	12.43
287.375	12.25
287.589	12.98
287.803	12.28
288.017	12.02
288.231	11.11
288.445	11.31
288.659	10.98
288.873	11.12
289.087	12.3
289.301	12.62
289.515	12.04
289.729	12.85
289.943	12.69
290.157	13.03
290.371	12.52
290.584	12.44
290.798	12.7
291.012	14.38
291.226	14.68
291.44	14.56
291.654	14.56
291.867	14.81
292.081	14.09
292.295	13.6
292.509	13.23
292.722	13.79
292.936	12.91
293.15	12.68
293.364	11.05
293.577	11.18
293.791	10.58
294.005	10.21
294.218	10.79
294.432	11.37
294.645	12.34
294.859	12.96
295.073	12.38
295.286	12.86
295.5	11.51
295.713	12.16
295.927	11.9
296.14	12.22
296.354	11.29
296.568	10.94
296.781	11.26
296.994	11.43
297.208	11.11
297.421	10.93
297.635	11.48
297.848	11.53
298.062	11.56
298.275	11.07
298.489	10.95
298.702	12.61
298.915	13.31
299.129	13.5
299.342	13.25
299.555	12.64
299.769	14.35
299.982	14.24
300.195	14.72
300.409	13.78
300.622	14.01
300.835	15.34
301.048	14.04
301.262	13.31
301.475	12.57
301.688	12.65
301.901	13.19
302.115	12.67
302.328	12.06
302.541	11.84
302.754	12.32
302.967	12.61
303.18	11.44
303.393	11.06
303.607	11.42
303.82	11.7
304.033	10.25
304.246	10.7
304.459	9.97
304.672	9.99
304.885	11.07
305.098	11.28
305.311	11.85
305.524	11.46
305.737	12.95
305.95	13.46
306.163	12.64
306.376	14.49
306.589	14.54
306.802	14.17
307.015	14.83
307.228	16.35
307.44	15.83
307.653	15.48
307.866	15.44
308.079	14.14
308.292	13.14
308.505	13.3
308.718	12.3
308.93	12.37
309.143	12.65
309.356	11.68
309.569	9.69
309.781	9.84
309.994	8.45
310.207	8.65
310.42	8.56
310.632	9.02
310.845	10.17
311.058	10.32
311.27	9.61
311.483	10.12
311.696	10.76
311.908	11.16
312.121	11.31
312.333	11.87
312.546	11.72
312.759	11.89
312.971	12.43
313.184	11.68
313.396	12.07
313.609	13.32
313.821	14.11
314.034	14.16
314.246	14.34
314.459	14.22
314.671	15.43
314.884	16.35
315.096	16.61
315.309	15.95
315.521	15.32
315.733	15.7
315.946	15.05
316.158	13.62
316.371	13
316.583	13.16
316.795	12.98
317.008	12.82
317.22	12.64
317.432	12.85
317.644	12.78
317.857	13.24
318.069	13.94
318.281	14.86
318.494	15.21
318.706	15.64
318.918	16
319.13	16.97
319.342	16.71
319.555	15.63
319.767	16.48
319.979	16.4
320.191	17.19
320.403	17.34
320.615	17.3
320.827	16.98
321.039	17.58
321.252	17.57
321.464	15.84
321.676	16.43
321.888	17.35
322.1	17.05
322.312	17.06
322.524	16.65
322.736	15.53
322.948	15.27
323.16	15.91
323.372	15.12
323.584	14.89
323.796	17.92
324.007	17.78
324.219	18.56
324.431	18.57
324.643	19.12
324.855	20.33
325.067	21.05
325.279	20.99
325.491	21.43
325.702	22.56
325.914	22.62
326.126	20.82
326.338	21.72
326.55	20.74
326.761	20.9
326.973	20.97
327.185	19.5
327.396	18.58
327.608	18.91
327.82	18.36
328.032	18.27
328.243	17.78
328.455	18.11
328.666	17.22
328.878	17.18
329.09	16.92
329.301	16.77
329.513	17.32
329.725	18.61
329.936	18.61
330.148	20.04
330.359	19.8
330.571	20.44
330.782	20.46
330.994	19.26
331.205	19.58
331.417	20.17
331.628	19.95
331.84	21.68
332.051	20.86
332.262	20.44
332.474	18.68
332.685	18.88
332.897	18.8
333.108	19.11
333.319	19.61
333.531	19.34
333.742	18.75
333.953	17.98
334.165	17.43
334.376	18.18
334.587	18.08
334.799	18.71
335.01	18.84
335.221	18.27
335.432	17.64
335.644	18.66
335.855	19.06
336.066	19.01
336.277	19.52
336.488	19.28
336.7	19.55
336.911	20.02
337.122	20.52
337.333	19.74
337.544	21.53
337.755	21.72
337.966	21.04
338.177	21.44
338.388	21.39
338.599	21.89
338.811	21.26
339.022	19.82
339.233	18.9
339.444	18.18
339.655	18.74
339.866	17.18
340.076	16.68
340.287	16.62
340.498	16.51
340.709	17.6
340.92	17.38
341.131	17.23
341.342	17.86
341.553	18.06
341.764	17.79
341.975	17.68
342.185	18.27
342.396	18.16
342.607	18.64
342.818	19.48
343.029	17.69
343.239	17.3
343.45	17.43
343.661	17.52
343.872	18.1
344.082	18.57
344.293	17.96
344.504	18.38
344.714	18.42
344.925	18.06
345.136	16.62
345.346	17.23
345.557	17.59
345.768	18.15
345.978	17.94
346.189	17.92
346.399	17.69
346.61	17.99
346.821	16.5
347.031	16.71
347.242	16.32
347.452	16.19
347.663	16.29
347.873	16.07
348.084	15.2
348.294	15.86
348.504	15.34
348.715	15.88
348.925	16.54
349.136	16.48
349.346	16.93
349.557	17.13
349.767	16.95
349.977	15.99
350.188	16.24
350.398	16.72
350.608	16.27
350.819	16.35
351.029	15.91
351.239	15.72
351.449	16.83
351.66	17.33
351.87	17.96
352.08	18.95
352.29	20.45
352.501	20.51
352.711	20.98
352.921	20.83
353.131	20.78
353.341	20.67
353.552	20.19
353.762	19.78
353.972	18.79
354.182	19.07
354.392	18.81
354.602	18.48
354.812	17.64
355.022	17.15
355.232	16.6
355.442	16.67
355.652	16.81
355.862	17.46
356.072	17.13
356.282	17.68
356.492	16.71
356.702	16.42
356.912	16.17
357.122	16.73
357.332	16.5
357.542	16.63
357.752	16.5
357.962	16.19
358.171	16.25
358.381	16.39
358.591	15.7
358.801	15.92
359.011	15.64
359.221	15.95
359.43	15.75
359.64	15.18
359.85	15.09
360.06	14.93
360.269	15.11
360.479	14.68
360.689	14.56
360.899	14.65
361.108	14.25
361.318	14.31
361.528	13.79
361.737	13.81
361.947	14.21
362.156	14.27
362.366	14.15
362.576	13.56
362.785	13.66
362.995	13.67
363.204	13.3
363.414	13.63
363.623	13.66
363.833	14.02
364.042	13.59
364.252	12.82
364.461	12.88
364.671	13.26
364.88	13.45
365.09	13.52
365.299	13.82
365.509	14.29
365.718	14.04
365.927	13.92
366.137	14.23
366.346	14.76
366.555	15.59
366.765	15.71
366.974	15.67
367.183	16.31
367.393	16.11
367.602	15.95
367.811	15.87
368.021	15.94
368.23	16.51
368.439	16.46
368.648	16.28
368.857	15.87
369.067	15.52
369.276	15.64
369.485	15.17
369.694	14.98
369.903	15.24
370.112	15.14
370.321	15.23
370.531	14.47
370.74	13.85
370.949	13.6
371.158	14.21
371.367	14.37
371.576	14.61
371.785	14.87
371.994	14.72
372.203	14.75
372.412	14.53
372.621	14.44
372.83	14.58
373.039	14.85
373.248	14.96
373.457	14.81
373.666	14.55
373.874	14
374.083	13.61
374.292	14.09
374.501	13.71
374.71	14.14
374.919	13.93
375.128	13.78
375.336	13.71
375.545	13.68
375.754	13.09
375.963	12.85
376.171	12.9
376.38	13.11
376.589	12.41
376.798	12.24
377.006	12.09
377.215	12.59
377.424	12.79
377.632	12.48
377.841	12.7
378.05	13.23
378.258	13.7
378.467	13.67
378.675	13.2
378.884	13.66
379.093	13.79
379.301	13.94
379.51	13.54
379.718	13.44
379.927	13.53
380.135	13.11
380.344	12.97
380.552	12.36
380.761	12.49
380.969	12.97
381.177	12.67
381.386	11.98
381.594	12.04
381.803	12.08
382.011	11.92
382.219	11.68
382.428	12.15
382.636	12.23
382.845	12.58
383.053	12.55
383.261	12.3
383.469	12.55
383.678	13.44
383.886	12.68
384.094	12.45
384.302	12.6
384.511	12.84
384.719	12.56
384.927	12.22
385.135	12.24
385.343	12.14
385.552	12.34
385.76	12.01
385.968	11.67
386.176	11.85
386.384	12.09
386.592	11.58
386.8	11.78
387.008	11.43
387.216	11.57
387.424	11.26
387.633	11.24
387.841	11.07
388.049	11.22
388.257	11.16
388.465	11.4
388.672	11.06
388.88	11.34
389.088	11.22
389.296	11.63
389.504	11.86
389.712	12.09
389.92	12.12
390.128	12.2
390.336	12.04
390.544	12.05
390.751	11.93
390.959	12.12
391.167	12.14
391.375	11.94
391.583	11.62
391.79	11.31
391.998	11.47
392.206	11.31
392.414	10.9
392.621	10.9
392.829	10.75
393.037	10.64
393.244	10.65
393.452	10.79
393.66	10.55
393.867	10.65
394.075	10.74
394.283	10.51
394.49	10.42
394.698	10.75
394.905	10.67
395.113	10.85
395.32	11.08
395.528	11.13
395.735	11.24
395.943	11.29
396.15	11.45
396.358	11.34
396.565	10.97
396.773	11.3
396.98	11.38
397.188	11.56
397.395	11.51
397.602	11.52
397.81	11.57
398.017	11.28
398.225	11.62
398.432	11.58
398.639	11.61
398.847	12.17
399.054	11.64
399.261	11.56
399.468	11.34
399.676	11.43
399.883	11.22
400.09	11.02
400.297	11.24
400.505	10.98
400.712	11.09
400.919	10.92
401.126	10.79
401.333	11.18
401.54	11.14
401.748	11.06
401.955	11.01
402.162	11.22
402.369	11.18
402.576	11.21
402.783	11.11
402.99	10.8
403.197	11.03
403.404	11.03
403.611	10.98
403.818	10.88
404.025	10.93
404.232	10.73
404.439	10.56
404.646	10.58
404.853	10.25
405.06	10.35
405.267	10.41
405.474	9.78
405.681	9.63
405.887	9.66
406.094	9.67
406.301	9.89
406.508	9.9
406.715	9.97
406.922	10.01
407.128	10.22
407.335	10.04
407.542	10.26
407.749	10.87
407.955	11.05
408.162	11.14
408.369	11.15
408.575	11.21
408.782	11.05
408.989	10.84
409.195	10.86
409.402	11.05
409.609	11.03
409.815	10.63
410.022	10.56
410.228	10.55
410.435	10.31
410.642	10.38
410.848	10.19
411.055	10.41
411.261	10.4
411.468	10.46
411.674	10.09
411.881	10.19
412.087	10.58
412.294	10.56
412.5	10.39
412.706	10.57
412.913	10.25
413.119	10.38
413.326	10.51
413.532	10.55
413.738	10.57
413.945	10.52
414.151	10.57
414.357	10.55
414.564	10.54
414.77	10.66
414.976	10.63
415.182	10.95
415.389	10.93
415.595	10.76
415.801	10.9
416.007	10.75
416.214	10.84
416.42	10.75
416.626	10.6
416.832	10.74
417.038	10.6
417.244	10.44
417.45	10.69
417.657	10.49
417.863	10.59
418.069	10.4
418.275	10.13
418.481	10.25
418.687	10.15
418.893	10.08
419.099	9.89
419.305	10.06
419.511	10.02
419.717	9.76
419.923	9.71
420.129	9.6
420.335	9.58
420.541	9.59
420.746	9.43
420.952	9.41
421.158	9.46
421.364	9.48
421.57	9.4
421.776	9.41
421.982	9.35
422.187	9.32
422.393	9.29
422.599	9.31
422.805	9.35
423.01	9.44
423.216	9.57
423.422	9.63
423.628	9.63
423.833	9.57
424.039	9.52
424.245	9.5
424.45	9.56
424.656	9.65
424.862	9.61
425.067	9.66
425.273	9.62
425.478	9.48
425.684	9.33
425.889	9.39
426.095	9.36
426.301	9.4
426.506	9.41
426.712	9.48
426.917	9.24
427.123	9.42
427.328	9.48
427.533	9.43
427.739	9.53
427.944	9.55
428.15	9.45
428.355	9.4
428.561	9.44
428.766	9.36
428.971	9.31
429.177	9.58
429.382	9.45
429.587	9.47
429.793	9.7
429.998	9.68
430.203	9.7
430.408	9.67
430.614	9.7
430.819	9.65
431.024	9.7
431.229	9.68
431.434	9.62
431.64	9.7
431.845	9.66
432.05	9.57
432.255	9.52
432.46	9.68
432.665	9.87
432.87	9.96
433.076	9.92
433.281	10.13
433.486	10.18
433.691	10.15
433.896	10.1
434.101	9.95
434.306	10.06
434.511	10.26
434.716	9.97
434.921	9.86
435.126	9.77
435.331	9.87
435.535	9.71
435.74	9.67
435.945	9.76
436.15	9.68
436.355	9.81
436.56	9.69
436.765	9.75
436.97	9.98
437.174	9.74
437.379	9.76
437.584	9.82
437.789	9.87
437.993	9.73
438.198	9.57
438.403	9.53
438.608	9.54
438.812	9.41
439.017	9.17
439.222	9.1
439.426	9.36
439.631	9.26
439.836	9.19
440.04	9.12
440.245	9.2
440.45	9.1
440.654	9.19
440.859	9.12
441.063	9.18
441.268	9.12
441.472	9.22
441.677	9.27
441.881	9.5
442.086	9.52
442.29	9.45
442.495	9.52
442.699	9.56
442.904	9.55
443.108	9.61
443.312	9.56
443.517	9.59
443.721	9.53
443.925	9.4
444.13	9.25
444.334	9.19
444.538	9.24
444.743	9.05
444.947	9.36
445.151	9.26
445.356	9.27
445.56	9.43
445.764	9.53
445.968	9.54
446.173	9.42
446.377	9.43
446.581	9.5
446.785	9.5
446.989	9.53
447.193	9.47
447.398	9.56
447.602	9.64
447.806	9.62
448.01	9.47
448.214	9.48
448.418	9.57
448.622	9.63
448.826	9.69
449.03	9.77
449.234	9.92
449.438	9.69
449.642	9.72
449.846	9.59
450.05	9.45
450.254	9.51
450.458	9.48
450.662	9.44
450.866	9.26
451.069	9.26
451.273	9.05
451.477	9.02
451.681	9.36
451.885	9.31
452.089	9.3
452.292	9.22
452.496	9.18
452.7	9.17
452.904	9.16
453.107	9.27
453.311	9.13
453.515	9.28
453.719	9.28
453.922	9
454.126	9.01
454.33	9.02
454.533	9.08
454.737	9.23
454.94	9.02
455.144	9.07
455.348	9.03
455.551	8.88
455.755	9.04
455.958	8.97
456.162	9.08
456.365	8.92
456.569	8.89
456.772	8.95
456.976	8.86
457.179	9.26
457.383	9.08
457.586	9.2
457.79	9.24
457.993	9.27
458.196	9.22
458.4	9.39
458.603	9.6
458.807	9.52
459.01	9.54
459.213	9.6
459.417	9.29
459.62	9.49
459.823	9.31
460.026	9.32
460.23	9.24
460.433	9.23
460.636	8.98
460.839	8.84
461.042	8.91
461.246	8.87
461.449	8.88
461.652	9.05
461.855	9.02
462.058	9.04
462.261	8.91
462.464	8.77
462.668	8.75
462.871	8.82
463.074	8.84
463.277	8.68
463.48	8.65
463.683	8.61
463.886	8.58
464.089	8.5
464.292	8.55
464.495	8.77
464.698	8.82
464.901	8.83
465.104	8.85
465.306	9
465.509	9.12
465.712	9.07
465.915	9.19
466.118	9.2
466.321	9.2
466.524	9.06
466.726	8.94
466.929	9.11
467.132	9.18
467.335	9.16
467.538	8.98
467.74	8.96
467.943	9.06
468.146	8.81
468.348	8.76
468.551	8.78
468.754	9.12
468.956	9.26
469.159	9.21
469.362	9.13
469.564	9.12
469.767	9.24
469.969	9.24
470.172	9.29
470.375	9.31
470.577	9.26
470.78	9.14
470.982	9.04
471.185	8.89
471.387	8.88
471.59	8.98
471.792	8.95
471.995	8.91
472.197	8.92
472.399	8.86
472.602	9.05
472.804	9.13
473.007	9.15
473.209	9.09
473.411	9.18
473.614	9.12
473.816	9.09
474.018	9.24
474.22	9.29
474.423	9.47
474.625	9.43
474.827	9.28
475.03	9.25
475.232	9.35
475.434	9.32
475.636	9.29
475.838	9.24
476.04	9.18
476.243	9.38
476.445	9.17
476.647	9.12
476.849	8.95
477.051	9.01
477.253	8.99
477.455	8.96
477.657	8.76
477.859	8.86
478.061	8.93
478.263	8.92
478.465	8.84
478.667	9
478.869	9.05
479.071	9.18
479.273	9.14
479.475	9.17
479.677	9.06
479.879	9.31
480.081	9.23
480.283	9.21
480.485	9.06
480.686	8.95
480.888	8.95
481.09	8.72
481.292	8.62
481.494	8.55
481.695	8.59
481.897	8.62
482.099	8.53
482.301	8.58
482.502	8.51
482.704	8.56
482.906	8.54
483.107	8.43
483.309	8.41
483.511	8.43
483.712	8.45
483.914	8.37
484.115	8.36
484.317	8.35
484.519	8.29
484.72	8.32
484.922	8.27
485.123	8.25
485.325	8.28
485.526	8.33
485.728	8.3
485.929	8.26
486.131	8.33
486.332	8.33
486.534	8.31
486.735	8.39
486.936	8.33
487.138	8.41
487.339	8.39
487.541	8.43
487.742	8.46
487.943	8.5
488.144	8.54
488.346	8.55
488.547	8.61
488.748	8.65
488.95	8.6
489.151	8.64
489.352	8.63
489.553	8.68
489.755	8.64
489.956	8.53
490.157	8.51
490.358	8.54
490.559	8.51
490.76	8.41
490.961	8.43
491.163	8.45
491.364	8.53
491.565	8.52
491.766	8.54
491.967	8.57
492.168	8.65
492.369	8.7
492.57	8.73
492.771	8.71
492.972	8.86
493.173	8.87
493.374	9.01
493.575	8.9
493.776	8.95
493.976	9.01
494.177	9.11
494.378	9.18
494.579	9.22
494.78	9.24
494.981	9.26
495.182	9.11
495.382	9.13
495.583	9.06
495.784	9.2
495.985	9.11
496.185	9.02
496.386	8.9
496.587	8.88
496.788	8.97
496.988	8.99
497.189	9.03
497.39	9.08
497.59	9.1
497.791	9.14
497.992	9.19
498.192	9.29
498.393	9.24
498.593	9.35
498.794	9.19
498.994	9.18
499.195	9.03
499.395	9.15
499.596	8.99
499.796	8.78
499.997	8.72
500.197	8.76
500.398	8.83
500.598	9.04
500.799	9.15
500.999	9.32
501.199	9.2
501.4	9.36
501.6	9.2
501.801	9.36
502.001	9.62
502.201	9.67
502.402	9.65
502.602	9.52
502.802	9.43
503.002	9.33
503.203	9.41
503.403	9.44
503.603	9.39
503.803	9.43
504.003	9.39
504.204	9.37
504.404	9.4
504.604	9.4
504.804	9.75
505.004	9.66
505.204	9.7
505.404	9.65
505.604	9.61
505.804	9.57
506.005	9.57
506.205	9.6
506.405	9.53
506.605	9.57
506.805	9.56
507.005	9.29
507.204	9.17
507.404	9.06
507.604	8.98
507.804	9.12
508.004	9.37
508.204	9.47
508.404	9.63
508.604	9.71
508.804	9.59
509.003	9.59
509.203	9.59
509.403	9.93
509.603	10.1
509.803	10.11
510.002	10.16
510.202	10.13
510.402	10.06
510.602	9.95
510.801	9.87
511.001	9.98
511.201	9.87
511.4	9.85
511.6	9.66
511.8	9.46
511.999	9.57
512.199	9.51
512.398	9.47
512.598	9.47
512.797	9.57
512.997	9.56
513.197	9.49
513.396	9.57
513.596	9.63
513.795	9.78
513.994	9.87
514.194	9.83
514.393	9.85
514.593	9.83
514.792	10.03
514.992	9.96
515.191	10.19
515.39	10.24
515.59	10.25
515.789	10.27
515.988	10.29
516.188	10.52
516.387	10.62
516.586	10.46
516.786	10.44
516.985	10.25
517.184	10.37
517.383	10.3
517.582	10.25
517.782	10.29
517.981	10.4
518.18	10.39
518.379	10.3
518.578	10.32
518.777	10.34
518.976	10.4
519.176	10.51
519.375	10.48
519.574	10.57
519.773	10.68
519.972	10.6
520.171	10.51
520.37	10.53
520.569	10.43
520.768	10.4
520.967	10.48
521.166	10.49
521.365	10.44
521.564	10.5
521.762	10.52
521.961	10.49
522.16	10.64
522.359	10.79
522.558	10.77
522.757	10.82
522.956	10.99
523.154	11.15
523.353	11.11
523.552	11.15
523.751	11.09
523.949	11.03
524.148	11.18
524.347	11.21
524.546	11.23
524.744	11.33
524.943	11.46
525.142	11.36
525.34	11.3
525.539	11.34
525.737	11.36
525.936	11.48
526.135	11.49
526.333	11.37
526.532	11.37
526.73	11.34
526.929	11.31
527.127	11.33
527.326	11.33
527.524	11.44
527.723	11.49
527.921	11.54
528.12	11.47
528.318	11.5
528.516	11.54
528.715	11.54
528.913	11.53
529.112	11.54
529.31	11.46
529.508	11.49
529.707	11.49
529.905	11.49
530.103	11.45
530.301	11.46
530.5	11.49
530.698	11.5
530.896	11.57
531.094	11.67
531.293	11.69
531.491	11.89
531.689	11.99
531.887	12.15
532.085	12.18
532.283	12.36
532.481	12.43
532.68	12.41
532.878	12.5
533.076	12.54
533.274	12.64
533.472	12.68
533.67	12.7
533.868	12.74
534.066	12.65
534.264	12.68
534.462	12.64
534.66	12.64
534.858	12.71
535.056	12.78
535.253	12.81
535.451	12.8
535.649	12.88
535.847	12.91
536.045	12.91
536.243	13.05
536.441	13.11
536.638	13.18
536.836	13.29
537.034	13.35
537.232	13.28
537.43	13.28
537.627	13.3
537.825	13.32
538.023	13.31
538.22	13.51
538.418	13.48
538.616	13.47
538.813	13.52
539.011	13.62
539.209	13.63
539.406	13.87
539.604	14.05
539.801	14.23
539.999	14.31
540.196	14.46
540.394	14.39
540.591	14.36
540.789	14.46
540.986	14.53
541.184	14.45
541.381	14.55
541.579	14.43
541.776	14.44
541.974	14.37
542.171	14.38
542.368	14.32
542.566	14.42
542.763	14.5
542.96	14.5
543.158	14.47
543.355	14.62
543.552	14.64
543.75	14.82
543.947	14.9
544.144	14.95
544.341	15.12
544.539	15.37
544.736	15.25
544.933	15.31
545.13	15.45
545.327	15.66
545.524	15.73
545.722	15.91
545.919	15.98
546.116	16.07
546.313	16.19
546.51	16.18
546.707	16.37
546.904	16.6
547.101	16.78
547.298	16.89
547.495	16.86
547.692	16.91
547.889	16.98
548.086	17.22
548.283	17.42
548.48	17.58
548.677	17.62
548.874	17.54
549.07	17.46
549.267	17.61
549.464	17.74
549.661	18.03
549.858	18.25
550.055	18.26
550.251	18.22
550.448	18.19
550.645	18.31
550.842	18.62
551.038	18.71
551.235	19.07
551.432	19.01
551.628	19.06
551.825	19.08
552.022	19.4
552.218	19.53
552.415	19.58
552.612	19.81
552.808	19.98
553.005	20.14
553.201	20.16
553.398	20.21
553.594	20.42
553.791	20.62
553.987	20.53
554.184	20.42
554.38	20.64
554.577	20.81
554.773	20.91
554.97	21.05
555.166	21.13
555.362	21.34
555.559	21.49
555.755	21.63
555.952	21.76
556.148	22.13
556.344	22.31
556.541	22.24
556.737	22.4
556.933	22.43
557.129	22.45
557.326	22.48
557.522	22.62
557.718	22.85
557.914	23.12
558.11	23.1
558.307	23.26
558.503	23.49
558.699	23.78
558.895	23.79
559.091	23.86
559.287	23.87
559.483	24.03
559.679	24.31
559.876	24.35
560.072	24.46
560.268	24.57
560.464	24.74
560.66	24.56
560.856	24.6
561.052	24.75
561.247	24.81
561.443	25.18
561.639	25.27
561.835	25.2
562.031	25.28
562.227	25.16
562.423	25.51
562.619	25.56
562.815	25.93
563.01	26.04
563.206	26.17
563.402	26.44
563.598	26.52
563.793	26.61
563.989	26.77
564.185	27.03
564.381	27.21
564.576	27.09
564.772	27.07
564.968	27.06
565.163	27.04
565.359	27.27
565.555	27.38
565.75	27.47
565.946	27.51
566.141	27.58
566.337	27.55
566.532	27.74
566.728	27.96
566.923	28.13
567.119	28.25
567.314	28.55
567.51	28.6
567.705	28.58
567.901	28.63
568.096	28.76
568.292	28.87
568.487	29.08
568.682	29.08
568.878	28.91
569.073	29.13
569.268	29.13
569.464	29.26
569.659	29.4
569.854	29.65
570.05	29.62
570.245	29.88
570.44	29.85
570.635	29.81
570.831	30.02
571.026	30.2
571.221	30.04
571.416	30.21
571.611	30.1
571.806	30.08
572.002	30.13
572.197	30.29
572.392	30.12
572.587	30.43
572.782	30.65
572.977	30.61
573.172	30.69
573.367	31
573.562	31.15
573.757	31.32
573.952	31.45
574.147	31.64
574.342	31.66
574.537	31.93
574.732	31.8
574.927	31.82
575.121	31.81
575.316	31.82
575.511	31.79
575.706	31.86
575.901	31.89
576.096	31.98
576.29	31.91
576.485	32.17
576.68	32.31
576.875	32.54
577.069	32.67
577.264	32.98
577.459	33.18
577.654	33.26
577.848	33.36
578.043	33.44
578.238	33.59
578.432	33.63
578.627	33.56
578.821	33.45
579.016	33.39
579.21	33.48
579.405	33.52
579.6	33.7
579.794	33.99
579.989	33.92
580.183	34.16
580.378	34.23
580.572	34.38
580.766	34.66
580.961	34.85
581.155	35.01
581.35	34.81
581.544	34.88
581.738	34.91
581.933	34.9
582.127	35.19
582.321	35.3
582.516	34.98
582.71	35.18
582.904	35.15
583.099	35.07
583.293	35.1
583.487	35.43
583.681	35.52
583.875	35.72
584.07	35.66
584.264	35.85
584.458	35.73
584.652	36.09
584.846	35.98
585.04	36.1
585.234	36.55
585.428	36.69
585.623	36.85
585.817	36.95
586.011	36.94
586.205	37.21
586.399	36.93
586.593	37.07
586.787	36.97
586.981	36.83
587.174	36.93
587.368	36.89
587.562	36.98
587.756	36.91
587.95	36.96
588.144	37
588.338	36.82
588.532	37.02
588.725	37.06
588.919	37.4
589.113	37.61
589.307	37.44
589.501	37.43
589.694	37.52
589.888	37.36
590.082	37.16
590.275	37.2
590.469	37.19
590.663	37.17
590.856	37.08
591.05	37.04
591.244	37.08
591.437	37.23
591.631	37.42
591.824	37.42
592.018	37.66
592.212	37.79
592.405	38.1
592.599	38.37
592.792	38.41
592.986	38.6
593.179	38.62
593.372	38.65
593.566	38.63
593.759	38.73
593.953	38.73
594.146	38.67
594.339	38.85
594.533	38.5
594.726	38.31
594.92	38.41
595.113	38.67
595.306	38.56
595.499	38.5
595.693	38.32
595.886	38.17
596.079	38.27
596.272	38.11
596.466	38.03
596.659	38.11
596.852	38.22
597.045	38.07
597.238	37.85
597.431	37.85
597.624	38.08
597.818	38.26
598.011	38.27
598.204	38.22
598.397	38.51
598.59	38.54
598.783	38.53
598.976	38.57
599.169	38.69
599.362	38.77
599.555	38.96
599.748	38.92
599.941	38.98
600.134	38.92
600.326	39
600.519	39
600.712	38.88
600.905	38.97
601.098	39.15
601.291	39.35
601.483	39.42
601.676	39.39
601.869	39.35
602.062	39.3
602.255	39.29
602.447	39.3
602.64	39.23
602.833	39.34
603.025	39.52
603.218	39.46
603.411	39.28
603.603	39.33
603.796	39.39
603.989	39.37
604.181	39.33
604.374	39.28
604.566	39.13
604.759	39.08
604.951	39.19
605.144	38.92
605.336	38.72
605.529	38.77
605.721	38.96
605.914	39.06
606.106	39.13
606.299	39.42
606.491	39.62
606.683	39.99
606.876	40.25
607.068	40.35
607.26	40.74
607.453	41.17
607.645	41.44
607.837	41.07
608.03	41.06
608.222	41.24
608.414	41.04
608.606	41.06
608.799	40.8
608.991	40.75
609.183	40.58
609.375	40.68
609.567	40.68
609.759	40.58
609.952	40.64
610.144	40.45
610.336	40.29
610.528	40.38
610.72	40.57
610.912	40.71
611.104	40.84
611.296	41.12
611.488	41.27
611.68	41.21
611.872	41.43
612.064	41.71
612.256	42.21
612.448	42.41
612.64	42.67
612.832	42.61
613.023	42.84
613.215	42.71
613.407	42.68
613.599	42.61
613.791	42.7
613.983	42.9
614.174	42.95
614.366	42.56
614.558	42.4
614.75	42.24
614.941	42.04
615.133	41.87
615.325	41.99
615.516	42.09
615.708	41.82
615.9	42.08
616.091	41.57
616.283	41.5
616.475	41.89
616.666	42.28
616.858	42.51
617.049	42.85
617.241	42.91
617.432	43.1
617.624	43.15
617.815	43.47
618.007	42.96
618.198	43.19
618.39	43.18
618.581	43.03
618.773	42.99
618.964	42.68
619.155	42.76
619.347	42.75
619.538	42.77
619.729	42.82
619.921	42.47
620.112	42.81
620.303	42.67
620.494	42.79
620.686	42.83
620.877	42.66
621.068	43.07
621.259	42.87
621.451	43.12
621.642	43.02
621.833	42.65
622.024	43.06
622.215	42.95
622.406	43.22
622.597	42.98
622.788	42.79
622.98	42.75
623.171	42.96
623.362	42.96
623.553	42.88
623.744	43.05
623.935	43.15
624.126	42.71
624.317	42.49
624.508	42.49
624.698	42.46
624.889	42.42
625.08	42.67
625.271	42.31
625.462	42.35
625.653	42.13
625.844	41.8
626.034	41.8
626.225	42.07
626.416	42.33
626.607	42.4
626.798	42.57
626.988	42.77
627.179	42.65
627.37	42.75
627.56	42.59
627.751	42.49
627.942	42.71
628.132	42.88
628.323	42.85
628.514	42.96
628.704	42.71
628.895	42.72
629.085	42.9
629.276	43.06
629.466	43.16
629.657	43.2
629.847	43.47
630.038	43.42
630.228	43.42
630.419	43.6
630.609	43.52
630.8	43.72
630.99	43.6
631.181	43.42
631.371	43.44
631.561	43.31
631.752	43.57
631.942	43.68
632.132	43.58
632.323	43.61
632.513	43.36
632.703	43.42
632.893	43.53
633.084	43.41
633.274	43.53
633.464	43.42
633.654	43.32
633.844	43.21
634.034	43.09
634.225	43.3
634.415	43.54
634.605	43.7
634.795	43.79
634.985	43.54
635.175	43.72
635.365	43.59
635.555	43.74
635.745	43.82
635.935	43.81
636.125	44.01
636.315	44.11
636.505	44.19
636.695	43.95
636.885	43.59
637.075	43.96
637.265	44.53
637.455	44.74
637.644	44.75
637.834	44.7
638.024	44.81
638.214	44.7
638.404	44.68
638.593	44.41
638.783	44.75
638.973	45.19
639.163	44.87
639.352	44.69
639.542	44.34
639.732	44.33
639.921	44.4
640.111	44.77
640.301	44.93
640.49	45.19
640.68	45.43
640.87	45.54
641.059	45.57
641.249	45.78
641.438	45.25
641.628	45.62
641.817	45.81
642.007	45.81
642.196	45.41
642.386	45.24
642.575	45.47
642.764	45.28
642.954	45.06
643.143	45.05
643.333	45.13
643.522	45.46
643.711	45.17
643.901	44.97
644.09	45.15
644.279	45.34
644.469	45.67
644.658	45.43
644.847	45.22
645.036	45.38
645.226	45.14
645.415	45
645.604	45.49
645.793	45.48
645.982	45.88
646.171	46.19
646.361	46
646.55	45.82
646.739	45.93
646.928	45.74
647.117	45.45
647.306	45.84
647.495	45.98
647.684	45.4
647.873	45.5
648.062	45.32
648.251	44.97
648.44	44.77
648.629	44.66
648.818	44.91
649.007	45.37
649.196	45.28
649.384	45.18
649.573	45.07
649.762	45.4
649.951	45.54
650.14	45.76
650.328	45.68
650.517	45.96
650.706	46.06
650.895	45.7
651.083	45.68
651.272	45.98
651.461	46.18
651.65	46.3
651.838	46.26
652.027	46.08
652.216	45.6
652.404	45.73
652.593	46.12
652.781	46.27
652.97	46.16
653.158	46.2
653.347	46.33
653.535	46.46
653.724	46.41
653.912	46.16
654.101	46.5
654.289	46.51
654.478	46.5
654.666	46.34
654.855	45.85
655.043	45.83
655.231	45.59
655.42	45.55
655.608	45.12
655.796	45.29
655.985	45.54
656.173	45.26
656.361	45.73
656.55	45.67
656.738	45.38
656.926	45.78
657.114	45.66
657.302	46
657.491	45.98
657.679	45.84
657.867	45.69
658.055	45.67
658.243	45.66
658.431	45.38
658.619	45.48
658.807	45.59
658.996	45.38
659.184	45.19
659.372	44.96
659.56	44.78
659.748	44.67
659.936	44.7
660.124	44.46
660.311	44.42
660.499	44.59
660.687	44.68
660.875	44.78
661.063	44.75
661.251	44.76
661.439	45.06
661.627	45.35
661.814	45.71
662.002	45.95
662.19	46.46
662.378	46.52
662.565	46.06
662.753	45.87
662.941	45.93
663.129	46.18
663.316	46.87
663.504	46.79
663.692	46.85
663.879	47.32
664.067	47.82
664.254	47.7
664.442	48.33
664.63	48.65
664.817	48.85
665.005	48.93
665.192	49.2
665.38	48.79
665.567	48.82
665.755	48.59
665.942	48.08
666.13	47.58
666.317	47.14
666.504	46.93
666.692	46.96
666.879	46.84
667.067	46.66
667.254	46.73
667.441	47.05
667.629	47.24
667.816	47.32
668.003	47.26
668.19	47.19
668.378	47.52
668.565	47.36
668.752	47.28
668.939	47.37
669.127	47.73
669.314	47.23
669.501	47.17
669.688	47.05
669.875	46.88
670.062	47.04
670.249	47.34
670.436	47.44
670.623	48.06
670.81	48.43
670.997	48.42
671.184	48.14
671.371	48.79
671.558	49.1
671.745	49.27
671.932	49.87
672.119	50.11
672.306	49.95
672.493	49.72
672.68	49.16
672.867	49.2
673.054	49.39
673.24	49.47
673.427	49.23
673.614	49.23
673.801	49.14
673.988	48.61
674.174	48.68
674.361	48.77
674.548	49.25
674.734	49.56
674.921	49.43
675.108	49.52
675.294	49.28
675.481	49.38
675.668	49.15
675.854	49.23
676.041	49.42
676.227	49.25
676.414	49.28
676.601	49.24
676.787	48.78
676.974	48.74
677.16	48.91
677.347	48.87
677.533	48.81
677.719	48.44
677.906	47.88
678.092	48.18
678.279	47.92
678.465	47.64
678.651	47.32
678.838	47.43
679.024	47.18
679.21	46.73
679.397	46.54
679.583	46.19
679.769	46.06
679.955	46.43
680.142	46.04
680.328	46.25
680.514	45.78
680.7	46.06
680.886	46.21
681.073	46.36
681.259	46.13
681.445	46.48
681.631	46.78
681.817	47.11
682.003	47.22
682.189	47.4
682.375	47.3
682.561	47.77
682.747	47.33
682.933	47.32
683.119	47.34
683.305	47.66
683.491	47.52
683.677	47.57
683.863	47.53
684.049	47.6
684.235	47.94
684.42	48.13
684.606	48.02
684.792	48.18
684.978	47.95
685.164	48.26
685.349	48.51
685.535	48.54
685.721	48.22
685.907	48.34
686.092	48.15
686.278	47.95
686.464	47.93
686.649	48.29
686.835	48
687.021	48.23
687.206	47.46
687.392	47.48
687.577	47.77
687.763	48.13
687.948	47.95
688.134	47.75
688.319	47.45
688.505	47.22
688.69	47.26
688.876	47.59
689.061	47.6
689.247	48.19
689.432	47.76
689.618	47.5
689.803	47.82
689.988	48.43
690.174	49.06
690.359	49.57
690.544	49.83
690.73	49.86
690.915	50.29
691.1	50.57
691.285	50.45
691.471	50.71
691.656	50.67
691.841	50.43
692.026	49.81
692.211	49.21
692.396	48.63
692.582	48.74
692.767	48.42
692.952	47.76
693.137	47.37
693.322	47.51
693.507	47.63
693.692	47.76
693.877	47.44
694.062	47.78
694.247	47.78
694.432	48.26
694.617	47.8
694.802	47.82
694.987	48.03
695.172	48
695.357	48.37
695.541	48.29
695.726	48.31
695.911	48.65
696.096	48.14
696.281	48.17
696.466	47.94
696.65	47.61
696.835	47.41
697.02	48.02
697.204	47.88
697.389	47.41
697.574	47.52
697.759	47.32
697.943	46.34
698.128	46.86
698.312	46.84
698.497	46.32
698.682	46.75
698.866	46.92
699.051	46.34
699.235	46.43
699.42	46.16
699.604	45.8
699.789	45.66
699.973	45.88
700.158	45.45
700.342	45.53
700.527	45.79
700.711	45.93
700.895	45.84
701.08	46.27
701.264	46.22
701.448	46.65
701.633	46.82
701.817	47.32
702.001	48.14
702.186	48.41
702.37	48.4
702.554	48.94
702.738	49.64
702.923	50.14
703.107	50.08
703.291	50.19
703.475	49.79
703.659	50.39
703.843	50.61
704.027	50.86
704.212	50.8
704.396	51.65
704.58	51.98
704.764	51.26
704.948	51.21
705.132	51.59
705.316	51.43
705.5	51.66
705.684	52.15
705.868	52.34
706.052	52.53
706.235	52.61
706.419	51.86
706.603	51.76
706.787	51.66
706.971	51.79
707.155	51.09
707.339	51.14
707.522	51.2
707.706	51.1
707.89	50.58
708.074	50.44
708.257	51.03
708.441	51.38
708.625	51.4
708.808	51.45
708.992	51.26
709.176	51.46
709.359	51.58
709.543	51.79
709.727	51.25
709.91	51.65
710.094	51.09
710.277	50.48
710.461	50.52
710.644	50.7
710.828	49.85
711.011	50.21
711.195	50.55
711.378	50.8
711.562	50.78
711.745	50.8
711.928	51.14
712.112	51.09
712.295	51.22
712.478	51.32
712.662	50.63
712.845	51.25
713.028	50.75
713.212	50.47
713.395	50.08
713.578	50.42
713.761	49.84
713.945	49.39
714.128	49.93
714.311	49.54
714.494	48.8
714.677	49.53
714.86	49.97
715.043	49.52
715.227	49.62
715.41	50.44
715.593	50.14
715.776	50.61
715.959	50.78
716.142	50.72
716.325	50.71
716.508	50.69
716.691	49.85
716.874	49.96
717.057	50.12
717.239	50.35
717.422	49.77
717.605	50.38
717.788	50.32
717.971	50.43
718.154	50.07
718.337	50.14
718.519	50.55
718.702	51.01
718.885	49.95
719.068	50.66
719.25	50.54
719.433	50.75
719.616	50.36
719.798	50.29
719.981	50.26
720.164	49.9
720.346	50.34
720.529	50.31
720.712	50.41
720.894	51.99
721.077	51.94
721.259	51.54
721.442	51.49
721.624	51.56
721.807	51.94
721.989	51.53
722.172	52.59
722.354	52.53
722.537	53.22
722.719	53.5
722.901	52.43
723.084	52.12
723.266	52.6
723.448	52.89
723.631	53.75
723.813	53.87
723.995	53.7
724.178	53.61
724.36	54
724.542	54.06
724.724	53.8
724.907	54.39
725.089	54.89
725.271	55.48
725.453	55.1
725.635	54
725.817	53.81
725.999	54.36
726.181	54.3
726.364	54.11
726.546	53.13
726.728	52.59
726.91	52.25
727.092	51.69
727.274	51.2
727.456	51.38
727.638	51.05
727.819	50.57
728.001	50.65
728.183	50.92
728.365	50.37
728.547	50.53
728.729	51.23
728.911	51.49
729.093	51.23
729.274	51.44
729.456	51.04
729.638	51.09
729.82	51.61
730.001	51.33
730.183	50.34
730.365	50.25
730.546	50.52
730.728	50.31
730.91	50.85
731.091	51.07
731.273	50.11
731.455	50.74
731.636	51.29
731.818	51.94
731.999	51.71
732.181	52.64
732.362	53.14
732.544	53.25
732.725	53.13
732.907	52.45
733.088	53.09
733.27	53.37
733.451	53.61
733.633	53.55
733.814	53.48
733.995	54.21
734.177	53.99
734.358	54.46
734.539	54.54
734.721	54.93
734.902	55.45
735.083	54.93
735.264	55.84
735.446	55.03
735.627	55.39
735.808	55.1
735.989	55.37
736.17	55.52
736.351	55.67
736.533	56.09
736.714	55.77
736.895	55.09
737.076	55.99
737.257	56.64
737.438	56.43
737.619	56.33
737.8	56.57
737.981	55.54
738.162	55.17
738.343	54.71
738.524	54.62
738.705	55.58
738.886	55.95
739.067	56.16
739.247	55.66
739.428	57.02
739.609	56.95
739.79	57.23
739.971	57.28
740.151	57.28
740.332	57.24
740.513	57.39
740.694	56.73
740.874	56.95
741.055	56.27
741.236	56.54
741.417	55.75
741.597	56.2
741.778	55.88
741.958	55.33
742.139	56.53
742.32	56.95
742.5	56.78
742.681	57.11
742.861	56.03
743.042	56.83
743.222	56.27
743.403	56.94
743.583	57.51
743.764	57.74
743.944	59.48
744.124	59.07
744.305	60.22
744.485	61
744.666	60.75
744.846	61.95
745.026	61.2
745.207	61.48
745.387	61.79
745.567	60.42
745.747	60.76
745.928	60.46
746.108	61.53
746.288	60.99
746.468	59.97
746.648	60.56
746.829	60.94
747.009	61.19
747.189	60.7
747.369	59.5
747.549	60.3
747.729	59.61
747.909	59.63
748.089	58.05
748.269	57.71
748.449	58.69
748.629	58.56
748.809	57.91
748.989	57.74
749.169	57.97
749.349	58.66
749.529	58.13
749.709	58.08
749.889	56.91
750.068	58.15
750.248	58.04
750.428	57.09
750.608	57.39
750.788	57.96
750.967	57.45
751.147	57.1
751.327	56.15
751.507	56.05
751.686	56.24
751.866	56.58
752.046	55.67
752.225	55.7
752.405	56.58
752.585	57.28
752.764	57
752.944	57.84
753.123	57.86
753.303	58.89
753.482	58.77
753.662	58.99
753.841	59.45
754.021	59.21
754.2	59.63
754.38	59.48
754.559	58.56
754.739	57.96
754.918	57.59
755.097	58.19
755.277	58.69
755.456	59.45
755.635	59.12
755.815	59.6
755.994	60.46
756.173	60.34
756.352	59.03
756.532	57.91
756.711	59.2
756.89	60
757.069	58.72
757.248	56.87
757.427	56.86
757.607	56.79
757.786	57.16
757.965	56.35
758.144	56.19
758.323	56.48
758.502	56.74
758.681	55.03
758.86	53.74
759.039	54.78
759.218	55.43
759.397	54.87
759.576	54.23
759.755	53.19
759.934	53.3
760.113	52.76
760.291	52.05
760.47	52.17
760.649	51.87
760.828	52.46
761.007	52.45
761.186	52.36
761.364	51.57
761.543	51.51
761.722	51.2
761.901	49.88
762.079	49.6
762.258	50.11
762.437	49.35
762.615	49.96
762.794	49.78
762.972	49.6
763.151	49.01
763.33	49.69
763.508	49.7
763.687	48.93
763.865	49.49
764.044	48.75
764.222	48.22
764.401	48.62
764.579	48.58
764.758	48.46
764.936	48.48
765.114	49.47
765.293	49.73
765.471	50.66
765.65	51.34
765.828	51.84
766.006	53.27
766.184	54.96
766.363	55.71
766.541	55.96
766.719	56.43
766.898	56.76
767.076	56.96
767.254	57.86
767.432	57.48
767.61	59.35
767.788	60.37
767.967	60.75
768.145	60.99
768.323	60.85
768.501	62.34
768.679	62.15
768.857	62.4
769.035	63.03
769.213	61.31
769.391	61.86
769.569	61.31
769.747	60.87
769.925	60.86
770.103	60.74
770.281	61.25
770.459	60.08
770.636	60.6
770.814	60.42
770.992	59.82
771.17	60.73
771.348	60.57
771.525	60.19
771.703	60.42
771.881	60.68
772.059	59.89
772.236	59.06
772.414	59.18
772.592	59.88
772.769	60.43
772.947	61.93
773.125	63.27
773.302	64.76
773.48	65.3
773.657	65.8
773.835	65.83
774.013	67.61
774.19	68.81
774.368	70.62
774.545	69.77
774.723	68.6
774.9	67.34
775.077	67.15
775.255	66.02
775.432	66.21
775.61	64.87
775.787	66.22
775.964	64.72
776.142	65.04
776.319	63.77
776.496	64.47
776.674	63.84
776.851	63.43
777.028	62.3
777.205	60.32
777.382	60.57
777.56	61.54
777.737	62.5
777.914	64.77
778.091	64.97
778.268	64.36
778.445	63.2
778.622	63.99
778.8	65.26
778.977	65.63
779.154	71.99
779.331	70.8
779.508	71.77
779.685	70.38
779.862	69.56
780.038	69.43
780.215	70.4
780.392	71.2
780.569	71.47
780.746	69.45
780.923	70.01
781.1	65.79
781.277	66.51
781.453	64.58
781.63	65.01
781.807	64.59
781.984	64.25
782.16	63.91
782.337	63.37
782.514	64.24
782.691	66.37
782.867	67.04
783.044	67.07
783.221	66.32
783.397	66.89
783.574	66.85
783.75	65.92
783.927	65.25
784.103	66.29
784.28	67.16
784.456	65.12
784.633	63.87
784.809	62.65
784.986	61.86
785.162	61
785.339	61.77
785.515	61.24
785.692	60.27
785.868	61.09
786.044	61.88
786.221	62.11
786.397	63.12
786.573	62.95
786.749	62.15
786.926	62.82
787.102	64
787.278	62.84
787.454	60.95
787.631	61.23
787.807	60.42
787.983	59.45
788.159	60.1
788.335	59.82
788.511	60.56
788.687	60.27
788.863	59.47
789.039	60
789.216	60.08
789.392	60.78
789.568	60.44
789.744	61.91
789.919	62
790.095	61.16
790.271	62.98
790.447	61.54
790.623	62.48
790.799	61.48
790.975	59.79
791.151	61.66
791.327	62.51
791.502	63.24
791.678	62.13
791.854	62
792.03	61.8
792.205	62.61
792.381	62.33
792.557	63.95
792.733	65.42
792.908	66.93
793.084	66.17
793.259	66.67
793.435	68.77
793.611	68.15
793.786	67.06
793.962	65.02
794.137	62.87
794.313	64.13
794.488	62.69
794.664	63.86
794.839	64.38
795.015	63.98
795.19	61.59
795.366	60.3
795.541	60.87
795.716	60.91
795.892	63.2
796.067	63.59
796.242	64.54
796.418	65.07
796.593	65
796.768	64.64
796.944	64.69
797.119	66.37
797.294	66.13
797.469	65.58
797.644	66.71
797.82	66.97
797.995	66.13
798.17	66.86
798.345	66.08
798.52	64.92
798.695	63.46
798.87	62.28
799.045	63.49
799.22	63.17
799.395	63.23
799.57	62.81
799.745	62.42
799.92	63.03
800.095	61.37
800.27	60.01
800.445	60.22
800.62	60.81
800.795	62.95
800.97	61.4
801.145	60.98
801.319	62.08
801.494	62.65
801.669	61.82
801.844	64.27
802.018	64.14
802.193	65.95
802.368	64.79
802.543	65.62
802.717	66.88
802.892	67.5
803.067	69.22
803.241	68.28
803.416	67.45
803.59	69.19
803.765	66.04
803.94	66.59
804.114	66.28
804.289	69.02
804.463	68.4
804.638	65.97
804.812	64.93
804.986	64.56
805.161	65.33
805.335	65.48
805.51	64.5
805.684	63.68
805.858	63.71
806.033	62.52
806.207	62.47
806.381	63.31
806.556	64.8
806.73	65.45
806.904	64.87
807.078	64.58
807.253	65.13
807.427	64.75
807.601	66.04
807.775	67.94
807.949	68.5
808.123	67.84
808.298	67.12
808.472	67.55
808.646	67.86
808.82	67.94
808.994	67.12
809.168	67.88
809.342	69.25
809.516	71.9
809.69	69.51
809.864	72.99
810.038	72.51
810.212	73.56
810.385	72.43
810.559	73.73
810.733	74.61
810.907	75.28
811.081	72.94
811.255	74
811.428	73.02
811.602	73.44
811.776	71.06
811.95	71.17
812.123	67.73
812.297	65.45
812.471	64.5
812.644	64.06
812.818	65.12
812.992	64.04
813.165	62.7
813.339	64.29
813.512	65.93
813.686	64.63
813.86	62.12
814.033	66.16
814.207	67.36
814.38	67.89
814.554	68.84
814.727	66.55
814.9	67
815.074	66.63
815.247	65.09
815.421	62.25
815.594	64.65
815.767	64.69
815.941	64.84
816.114	65.99
816.287	64.76
816.46	62.48
816.634	64.59
816.807	66
816.98	66.77
817.153	65
817.327	64.95
817.5	64.61
817.673	67.05
817.846	66.53
818.019	63.37
818.192	65.6
818.365	67.47
818.538	66.72
818.711	64.16
818.884	64.07
819.057	63.65
819.23	64.43
819.403	60.4
819.576	58.81
819.749	57.29
819.922	58.97
820.095	55.04
820.268	54.18
820.441	52.46
820.614	53.74
820.786	52.11
820.959	49.96
821.132	48.14
821.305	48.28
821.477	48.09
821.65	47.7
821.823	46.93
821.996	47.3
822.168	46.77
822.341	46.35
822.514	45.41
822.686	45.01
822.859	45.26
823.031	44.98
823.204	44.85
823.376	44.52
823.549	44.08
823.722	44.26
823.894	44.25
824.067	44.58
824.239	44.2
824.411	44.37
824.584	44.08
824.756	43.96
824.929	44.24
825.101	44.55
825.273	44.71
825.446	44.45
825.618	44.17
825.79	43.87
825.963	43.2
826.135	43.67
826.307	44.08
826.479	44.6
826.652	45.1
826.824	44.93
826.996	44.97
827.168	45.04
827.34	45.68
827.512	45.19
827.684	46.14
827.856	46.93
828.029	47.77
828.201	46.81
828.373	46.43
828.545	46.94
828.717	48.69
828.889	49.13
829.061	49.73
829.232	51.09
829.404	51.96
829.576	51.85
829.748	52.38
829.92	52.04
830.092	54.04
830.264	55.53
830.436	55.73
830.607	54.26
830.779	54.92
830.951	55.39
831.123	54.23
831.294	55.88
831.466	57.47
831.638	56.76
831.809	56.94
831.981	56.03
832.153	54.12
832.324	55.15
832.496	55.55
832.667	54.55
832.839	55.42
833.011	55.45
833.182	56.12
833.354	55.2
833.525	54.34
833.697	53.58
833.868	53.79
834.039	56.03
834.211	54.96
834.382	54.9
834.554	54.51
834.725	55.19
834.896	54.96
835.068	52.52
835.239	51.23
835.41	52.33
835.581	54.44
835.753	54.22
835.924	53.06
836.095	53.1
836.266	53.19
836.438	53.14
836.609	51.4
836.78	51.5
836.951	53.52
837.122	53.6
837.293	54.25
837.464	55.44
837.635	56.65
837.806	58.76
837.977	58.66
838.148	59.44
838.319	59.9
838.49	60.54
838.661	60.45
838.832	59.45
839.003	59.9
839.174	61.46
839.345	57.83
839.516	58.74
839.687	62.25
839.857	64.62
840.028	66.66
840.199	69.81
840.37	68.21
840.54	74.29
840.711	74.38
840.882	74.87
841.053	70.17
841.223	69.03
841.394	70.05
841.564	66.26
841.735	65.07
841.906	64.18
842.076	62.65
842.247	66.1
842.417	63.96
842.588	62.99
842.758	66.5
842.929	67.72
843.099	71.83
843.27	73.1
843.44	72.84
843.611	72.25
843.781	73.29
843.951	70.83
844.122	67.07
844.292	64.44
844.462	66.71
844.633	62.99
844.803	66.88
844.973	61.68
845.144	58.57
845.314	60.96
845.484	65.53
845.654	66.01
845.824	76.8
845.995	80.42
846.165	88.29
846.335	89.67
846.505	105.67
846.675	110.57
846.845	117.37
847.015	118.48
847.185	121.56
847.355	122.23
847.525	124.73
847.695	116.42
847.865	119.62
848.035	114.28
848.205	121.85
848.375	108.09
848.545	99.67
848.715	99.71
848.884	96.72
849.054	96.35
849.224	97.19
849.394	93.64
849.564	97.49
849.733	96.18
849.903	101.22
850.073	90.16
850.243	85.32
850.412	85.13
850.582	84.43
850.752	92.91
850.921	90.4
851.091	83.37
851.26	87.13
851.43	86.67
851.599	85.74
851.769	77.18
851.939	85.11
852.108	85.25
852.278	86.39
852.447	86.8
852.616	81.47
852.786	82.84
852.955	81.9
853.125	78.55
853.294	75.81
853.463	76.58
853.633	72.65
853.802	64.47
853.971	72.17
854.141	76.68
854.31	79.84
854.479	82.21
854.648	74.95
854.818	75.08
854.987	72.95
855.156	84.58
855.325	91.06
855.494	105.15
855.663	110.15
855.832	109.98
856.001	104.77
856.171	100.79
856.34	106.89
856.509	113.7
856.678	113.65
856.847	109.79
857.016	84.55
857.185	79.77
857.353	82.41
857.522	86.03
857.691	82.56
857.86	95.68
858.029	105.5
858.198	106.54
858.367	112.44
858.535	133.4
858.704	149.09
858.873	181.95
859.042	166.25
859.21	159.5
859.379	158.37
859.548	162.95
859.717	149.99
859.885	144.76
860.054	127.34
860.222	118.02
860.391	96.39
860.56	79.75
860.728	79.19
860.897	76.17
861.065	63.54
861.234	62.31
861.402	50.78
861.571	51.47
861.739	51.84
861.908	54.18
862.076	53.36
862.244	72.52
862.413	85.4
862.581	67.53
862.749	75.12
862.918	92.19
863.086	87.9
863.254	88.82
863.423	86.46
863.591	83.51
863.759	82.88
863.927	78.8
864.096	73.09
864.264	74.92
864.432	78.92
864.6	74.18
864.768	78.6
864.936	71.55
865.104	81.62
865.272	79.43
865.44	88.18
865.608	81.69
865.776	89.07
865.944	87.57
866.112	94.97
866.28	105.19
866.448	120.22
866.616	112.14
866.784	122.04
866.952	113.52
867.12	125.41
867.288	112.41
867.455	102.87
867.623	107.72
867.791	113.71
867.959	99.57
868.127	80.36
868.294	67.52
868.462	51.02
868.63	49.11
868.797	38.91
868.965	30.8
869.133	39.05
869.3	67.8
869.468	71.88
869.636	78.12
869.803	81.96
869.971	88.01
870.138	91.37
870.306	92.09
870.473	92.93
870.641	103.18
870.808	106.27
870.975	96.01
871.143	89.25
871.31	85.39
871.478	77.2
871.645	75.92
871.812	75.06
871.98	74.61
872.147	80.88
872.314	80.11
872.482	77.16
872.649	75.06
872.816	79.28
872.983	79.57
873.15	80.35
873.318	91.88
873.485	101.21
873.652	104.5
873.819	114.14
873.986	102.83
874.153	110.35
874.32	104.11
874.487	101.14
874.654	102.26
874.821	102.55
874.988	97.84
875.155	89.51
875.322	82.79
875.489	87.79
875.656	72.05
875.823	88.94
875.99	80.71
876.157	88.93
876.324	94.53
876.49	90.12
876.657	95.17
876.824	92.23
876.991	90.61
877.157	98.67
877.324	92.87
877.491	99.24
877.658	99.92
877.824	103.3
877.991	100.78
878.157	99.54
878.324	106.82
878.491	99.03
878.657	99.29
878.824	91.36
878.99	76.67
879.157	77.31
879.323	74.12
879.49	65.1
879.656	68.51
879.823	68.54
879.989	67.04
880.156	61.33
880.322	66.77
880.488	71.33
880.655	76.02
880.821	80.66
880.987	73.46
881.154	72.41
881.32	75.64
881.486	70.08
881.652	67.97
881.819	68.25
881.985	66.64
882.151	62.3
882.317	59.24
882.483	58.7
882.649	54.72
882.816	54.75
882.982	52.72
883.148	50.94
883.314	50.62
883.48	47.68
883.646	46.58
883.812	46.46
883.978	44.87
884.144	43.55
884.31	43.49
884.476	45.42
884.642	45.12
884.807	45.67
884.973	46.12
885.139	46.49
885.305	48.53
885.471	49.42
885.637	50.31
885.802	50.96
885.968	53.05
886.134	53.88
886.3	55.61
886.465	57.37
886.631	59.83
886.797	63.1
886.962	64.47
887.128	68.89
887.293	67.33
887.459	68.92
887.625	72.27
887.79	72.66
887.956	74.48
888.121	72.46
888.287	72.16
888.452	70.66
888.618	68.74
888.783	65.68
