Data from LC_158_Reflection_1.txt Node
Date: Mon Nov 16 22:28:37 EST 2015
User: robert
Spectrometer: USB4E03001
Autoset integration time: false
Trigger mode: 4
Integration Time (sec): 1.000000E-1
Scans to average: 15
Electric dark correction enabled: true
Nonlinearity correction enabled: false
Boxcar width: 5
Stray light correction enabled: false
XAxis mode: Wavelengths
Stop averaging: false
Number of Pixels in Spectrum: 3648
>>>>>Begin Spectral Data<<<<<
177.566	3551.81
177.785	384.24
178.005	-2869.75
178.225	140.21
178.445	224.86
178.665	324.66
178.885	662.46
179.105	1414.95
179.324	1518.22
179.544	-181.38
179.764	-903.95
179.984	-175.81
180.204	-187.14
180.423	-160.14
180.643	-190.47
180.863	-134.63
181.083	-28.92
181.302	-20.15
181.522	-35.01
181.742	-66.44
181.961	-146.52
182.181	-109.69
182.401	-133.85
182.621	-609.35
182.84	-315.02
183.06	-108.54
183.279	-80.81
183.499	-107.12
183.719	-111.78
183.938	-119.07
184.158	-120.58
184.377	-68.76
184.597	-137.91
184.816	-89.04
185.036	-70.81
185.256	-46.13
185.475	-87.66
185.695	-155.32
185.914	-241.38
186.134	-400.34
186.353	-399.35
186.572	-454.85
186.792	-671.45
187.011	-273.99
187.231	-306.67
187.45	-223.11
187.67	-632.13
187.889	-1761.38
188.108	2967.3
188.328	-711.52
188.547	-268.16
188.766	-634.36
188.986	-1103.83
189.205	-770.89
189.424	-486.38
189.644	-1259.36
189.863	-1259.1
190.082	-742.91
190.302	-1266.84
190.521	-667.02
190.74	721.64
190.959	329.41
191.178	434.57
191.398	273.95
191.617	273
191.836	282.83
192.055	535.16
192.274	276.42
192.494	387.03
192.713	442.08
192.932	937.73
193.151	713.18
193.37	1092.77
193.589	-693.94
193.808	-236.43
194.027	-278.88
194.246	-2000.56
194.465	493.32
194.685	1484.95
194.904	705.25
195.123	-930.84
195.342	-550.98
195.561	-268.67
195.78	-519.97
195.999	20230.99
196.218	711.53
196.436	608.35
196.655	-2433.68
196.874	-901.81
197.093	-1193.29
197.312	-870.15
197.531	2486.12
197.75	817.77
197.969	-2897.87
198.188	-580.42
198.407	-158.8
198.625	-216.3
198.844	-194.12
199.063	-198.73
199.282	-366.11
199.501	-186.09
199.719	-121.99
199.938	-72.34
200.157	-75.48
200.376	-61.2
200.594	-69.95
200.813	-235.28
201.032	-121.84
201.251	-144.24
201.469	-148.58
201.688	-117.94
201.907	-265.25
202.125	-366.94
202.344	13695.24
202.563	2475.63
202.781	416.91
203	1218
203.218	915.04
203.437	822.68
203.656	416.55
203.874	221.95
204.093	210.04
204.311	260.35
204.53	296.72
204.748	481.55
204.967	296.46
205.185	336.53
205.404	394.22
205.622	255.1
205.841	188.19
206.059	194.28
206.278	257.15
206.496	523.93
206.715	289.96
206.933	232.96
207.151	174.13
207.37	220.37
207.588	230.75
207.806	222.41
208.025	485.61
208.243	-990.38
208.461	1639.91
208.68	-14849.41
208.898	641.09
209.116	630.26
209.335	610.38
209.553	645.42
209.771	6992.5
209.989	1573.54
210.208	3222.62
210.426	-4911.26
210.644	2716.06
210.862	-2554.52
211.081	1184.46
211.299	-538.03
211.517	2759.96
211.735	-687.64
211.953	-257014.29
212.171	-4584.94
212.39	-10469.37
212.608	-26478.26
212.826	1090.37
213.044	736.21
213.262	486.84
213.48	3060.55
213.698	359.86
213.916	458.5
214.134	348.39
214.352	668.83
214.57	394.92
214.788	442.98
215.006	386.33
215.224	331.64
215.442	273.09
215.66	252.72
215.878	191.84
216.096	202.8
216.314	207
216.532	341.82
216.75	207.5
216.968	239.51
217.185	660.42
217.403	1013.12
217.621	-3033.1
217.839	-839.06
218.057	-1060.67
218.275	1626.83
218.492	496.38
218.71	744.8
218.928	231.57
219.146	272.07
219.363	220.92
219.581	173.65
219.799	145.56
220.017	142.01
220.234	132.51
220.452	106.23
220.67	125.69
220.887	146.12
221.105	192.45
221.323	148.32
221.54	134.41
221.758	166.93
221.976	189.24
222.193	211
222.411	124.87
222.629	132.52
222.846	157.53
223.064	177.41
223.281	153.15
223.499	120.81
223.716	113
223.934	80.81
224.151	71.52
224.369	51.41
224.586	38.54
224.804	37.37
225.021	20.96
225.239	15.59
225.456	11.54
225.674	3.62
225.891	18.83
226.108	46.57
226.326	55.56
226.543	52.89
226.76	55.96
226.978	50.95
227.195	52.25
227.413	47.42
227.63	48.85
227.847	44.06
228.064	40.53
228.282	33.21
228.499	27.64
228.716	24.51
228.934	21.91
229.151	20.18
229.368	18.13
229.585	18.92
229.802	22.41
230.02	19.89
230.237	20.93
230.454	21.72
230.671	22.41
230.888	21.82
231.105	23.75
231.323	25.54
231.54	26.71
231.757	27.47
231.974	29.55
232.191	24.05
232.408	23
232.625	18.38
232.842	17.37
233.059	19.68
233.276	17.99
233.493	16.56
233.71	16.52
233.927	18.61
234.144	20.14
234.361	13.62
234.578	15.85
234.795	15.03
235.012	17.5
235.229	14.64
235.446	15.12
235.663	14.99
235.879	17.16
236.096	17.4
236.313	17.2
236.53	14.36
236.747	19.8
236.964	21.43
237.181	25.4
237.397	29.76
237.614	34.01
237.831	32.01
238.048	36.26
238.264	37.38
238.481	34.63
238.698	32.72
238.915	37.47
239.131	35.09
239.348	30.85
239.565	27.06
239.781	25.68
239.998	23.51
240.215	23.42
240.431	21.96
240.648	21.43
240.865	23.14
241.081	21.71
241.298	21.64
241.514	22.21
241.731	22.47
241.947	22.77
242.164	21.03
242.38	21.25
242.597	20.45
242.814	19.91
243.03	18.14
243.246	16.98
243.463	16.42
243.679	16.03
243.896	13.37
244.112	14.28
244.329	13
244.545	14.01
244.762	13
244.978	14.04
245.194	13.95
245.411	14.58
245.627	15.57
245.843	16.19
246.06	14.71
246.276	16.1
246.492	15.32
246.709	15.9
246.925	14.24
247.141	13.79
247.357	12.85
247.574	12.62
247.79	13.19
248.006	12.62
248.222	12.52
248.439	12.32
248.655	12.86
248.871	12.41
249.087	12.46
249.303	12.8
249.519	13.18
249.736	15.32
249.952	15.77
250.168	16.86
250.384	17.36
250.6	17.51
250.816	18.14
251.032	14.57
251.248	14.96
251.464	13.73
251.68	14.05
251.896	15.12
252.112	13.43
252.328	14.2
252.544	11.97
252.76	11.23
252.976	11.08
253.192	10.65
253.408	12.98
253.624	14.29
253.84	13.47
254.056	16.24
254.272	13.72
254.487	15.89
254.703	14.12
254.919	13.99
255.135	12.55
255.351	14.33
255.567	15.38
255.782	16.01
255.998	14.02
256.214	16.14
256.43	11
256.646	14.34
256.861	12.15
257.077	13.26
257.293	12.7
257.508	15.21
257.724	15.86
257.94	15.84
258.155	13.81
258.371	13.6
258.587	14.13
258.802	14.14
259.018	14.34
259.234	13.47
259.449	13.57
259.665	13.08
259.88	12.9
260.096	12.08
260.312	11.46
260.527	11.26
260.743	11.33
260.958	10.61
261.174	11.13
261.389	10.33
261.605	11.15
261.82	10.96
262.036	11.94
262.251	12.93
262.466	13.09
262.682	14.35
262.897	14.6
263.113	13.63
263.328	14.42
263.543	13.84
263.759	12.15
263.974	11.27
264.189	11.23
264.405	9.36
264.62	8.79
264.835	7.84
265.051	7.32
265.266	9.28
265.481	10.31
265.696	12.36
265.912	11.76
266.127	11.86
266.342	10.99
266.557	11.53
266.773	12.39
266.988	11.76
267.203	13.12
267.418	13.26
267.633	11.85
267.848	13.14
268.064	10.72
268.279	12.02
268.494	12.5
268.709	13.27
268.924	12.46
269.139	12.68
269.354	11.7
269.569	9.84
269.784	9.69
269.999	10.61
270.214	9.26
270.429	11.31
270.644	10.28
270.859	10.25
271.074	11.65
271.289	12.48
271.504	12.34
271.719	13.89
271.934	15.18
272.149	14.5
272.363	14.35
272.578	13.85
272.793	12.66
273.008	12.12
273.223	11.72
273.438	9.9
273.653	10.31
273.867	9.96
274.082	8.34
274.297	7.81
274.512	8.36
274.726	8.03
274.941	8.7
275.156	9.27
275.371	10.6
275.585	11.44
275.8	12.25
276.015	11.04
276.229	10.65
276.444	11.97
276.659	12.62
276.873	12.41
277.088	12.09
277.302	12.67
277.517	13.16
277.732	14.32
277.946	14.76
278.161	16.25
278.375	16.47
278.59	16.51
278.804	16.78
279.019	16.21
279.233	17.01
279.448	16.85
279.662	15.38
279.877	15.26
280.091	14.18
280.306	12.33
280.52	10.68
280.735	9.63
280.949	10.46
281.163	9.7
281.378	9.1
281.592	8.23
281.806	8.99
282.021	9.54
282.235	9.35
282.449	9.21
282.664	10.84
282.878	10.93
283.092	11.46
283.307	11.17
283.521	11.3
283.735	12.13
283.949	13.9
284.164	13.81
284.378	14.08
284.592	13.48
284.806	13.1
285.02	12.53
285.234	12.21
285.449	11.87
285.663	11.99
285.877	12.17
286.091	11.64
286.305	10.29
286.519	10.18
286.733	9.37
286.947	10.08
287.161	9.41
287.375	10.33
287.589	10.27
287.803	10.99
288.017	10.2
288.231	8.92
288.445	8.63
288.659	9.28
288.873	8.63
289.087	9.82
289.301	8.88
289.515	9.94
289.729	8.75
289.943	8.95
290.157	8.81
290.371	10.72
290.584	10.99
290.798	11.78
291.012	11.81
291.226	12.03
291.44	12.01
291.654	12.8
291.867	13.07
292.081	13.01
292.295	14.43
292.509	13.91
292.722	13.29
292.936	13.94
293.15	14.95
293.364	14.52
293.577	14.5
293.791	13.9
294.005	14.35
294.218	14.58
294.432	15.48
294.645	14.92
294.859	15
295.073	14.99
295.286	15.87
295.5	14.04
295.713	14.52
295.927	14.51
296.14	15.35
296.354	14.29
296.568	13.38
296.781	13.39
296.994	13.27
297.208	13.51
297.421	12.91
297.635	12
297.848	12.65
298.062	11.97
298.275	12.48
298.489	11.98
298.702	12.51
298.915	13.27
299.129	13.18
299.342	12.91
299.555	12.38
299.769	12.86
299.982	12.99
300.195	13.1
300.409	13.41
300.622	13.47
300.835	14.01
301.048	13.48
301.262	13.43
301.475	12.97
301.688	14.08
301.901	15.22
302.115	15.14
302.328	14.88
302.541	14.14
302.754	14.62
302.967	14.98
303.18	15.51
303.393	16.03
303.607	15.46
303.82	15.5
304.033	14.31
304.246	14.1
304.459	14.13
304.672	15.3
304.885	16.66
305.098	16.15
305.311	15.34
305.524	14.94
305.737	14.47
305.95	16.1
306.163	15.6
306.376	14.8
306.589	14.39
306.802	14.36
307.015	14.61
307.228	14.09
307.44	13.7
307.653	14.48
307.866	13.29
308.079	14.52
308.292	13.86
308.505	15.06
308.718	16.08
308.93	16.46
309.143	16.13
309.356	15.59
309.569	14.71
309.781	16.22
309.994	15.49
310.207	16.12
310.42	14.69
310.632	13.33
310.845	12.98
311.058	12.02
311.27	12.61
311.483	12.62
311.696	12.57
311.908	12.73
312.121	12.26
312.333	12.94
312.546	12.11
312.759	13.34
312.971	13.8
313.184	14.51
313.396	14.62
313.609	14.21
313.821	13.9
314.034	13.95
314.246	15.62
314.459	15.78
314.671	16.27
314.884	16.42
315.096	15.07
315.309	14.79
315.521	15.02
315.733	14.96
315.946	14.18
316.158	14.91
316.371	14.56
316.583	13.38
316.795	12.17
317.008	11.56
317.22	13.54
317.432	14.34
317.644	14.13
317.857	12.19
318.069	12.85
318.281	12.23
318.494	11.11
318.706	11.91
318.918	11.16
319.13	11.5
319.342	12.42
319.555	11.17
319.767	11.29
319.979	12.38
320.191	13.14
320.403	14
320.615	14.84
320.827	16.45
321.039	15.64
321.252	16.06
321.464	15.3
321.676	15.07
321.888	14.4
322.1	14.02
322.312	13.03
322.524	11.61
322.736	10.71
322.948	10.35
323.16	9.64
323.372	11.09
323.584	10.58
323.796	9.95
324.007	9.01
324.219	9.72
324.431	9.86
324.643	9.96
324.855	11.25
325.067	11.09
325.279	11.54
325.491	11.67
325.702	9.97
325.914	10.98
326.126	12.86
326.338	13.13
326.55	13.11
326.761	13.5
326.973	13.67
327.185	13.28
327.396	14.26
327.608	14.3
327.82	14.01
328.032	14.35
328.243	13.39
328.455	13.69
328.666	12.56
328.878	11.75
329.09	11.32
329.301	10.83
329.513	10.78
329.725	10.55
329.936	9.73
330.148	10
330.359	9.56
330.571	10.08
330.782	9.91
330.994	11.24
331.205	11.88
331.417	11.61
331.628	12.59
331.84	13.77
332.051	13.69
332.262	15.06
332.474	14.87
332.685	15.29
332.897	15.18
333.108	14.94
333.319	13.68
333.531	13.57
333.742	14.45
333.953	13.64
334.165	13.07
334.376	12.6
334.587	11.11
334.799	10.65
335.01	11
335.221	10.74
335.432	9.75
335.644	9.66
335.855	9.77
336.066	9.5
336.277	9.58
336.488	9.51
336.7	8.78
336.911	9.93
337.122	10.55
337.333	10.97
337.544	12.1
337.755	12.33
337.966	12.69
338.177	12.59
338.388	12.38
338.599	13.37
338.811	13.76
339.022	14.39
339.233	14.46
339.444	14.48
339.655	12.34
339.866	11.66
340.076	12.3
340.287	13.29
340.498	13.39
340.709	13.39
340.92	12.76
341.131	12.62
341.342	12.28
341.553	11.41
341.764	11.08
341.975	12.63
342.185	12.23
342.396	12.16
342.607	11.48
342.818	11.87
343.029	12.24
343.239	12.68
343.45	11.99
343.661	12.04
343.872	11.6
344.082	12.1
344.293	13.08
344.504	14.01
344.714	12.76
344.925	12.1
345.136	12.12
345.346	11.3
345.557	10.77
345.768	10.35
345.978	9.88
346.189	10.8
346.399	10.48
346.61	9.73
346.821	8.92
347.031	9.79
347.242	10.34
347.452	9.84
347.663	10.21
347.873	10.85
348.084	11.36
348.294	12.35
348.504	11.38
348.715	11.4
348.925	10.59
349.136	9.45
349.346	8.94
349.557	8.74
349.767	9.63
349.977	9.98
350.188	9.83
350.398	10.81
350.608	10.86
350.819	11.47
351.029	11.09
351.239	11.62
351.449	12.16
351.66	12.94
351.87	13.78
352.08	12.61
352.29	12.38
352.501	11.99
352.711	11.07
352.921	10.72
353.131	10.19
353.341	10.61
353.552	10.59
353.762	11.25
353.972	10.87
354.182	11.19
354.392	11.84
354.602	11.67
354.812	11.54
355.022	11.46
355.232	11.51
355.442	12.36
355.652	12.01
355.862	11.47
356.072	11.91
356.282	11.45
356.492	10.42
356.702	9.88
356.912	10.05
357.122	9.96
357.332	9.79
357.542	9.46
357.752	9.31
357.962	9.5
358.171	9.96
358.381	9.9
358.591	9.72
358.801	9.58
359.011	10.07
359.221	9.99
359.43	10.38
359.64	11
359.85	11.3
360.06	10.97
360.269	10.88
360.479	10.54
360.689	9.51
360.899	10.18
361.108	10.45
361.318	10.32
361.528	10.35
361.737	9.64
361.947	9.03
362.156	8.84
362.366	8.89
362.576	9.1
362.785	9.2
362.995	9.55
363.204	9.43
363.414	9.32
363.623	8.88
363.833	9.06
364.042	9.53
364.252	10.15
364.461	10.29
364.671	10.5
364.88	10.64
365.09	11.14
365.299	11.33
365.509	10.9
365.718	10.21
365.927	10.2
366.137	10.45
366.346	11.16
366.555	10.91
366.765	10.49
366.974	10.11
367.183	9.77
367.393	8.98
367.602	8.43
367.811	8.45
368.021	8.77
368.23	9.07
368.439	8.06
368.648	7.63
368.857	7.72
369.067	8.03
369.276	8.03
369.485	8.4
369.694	8.53
369.903	9.32
370.112	9.72
370.321	9.77
370.531	9.59
370.74	9.8
370.949	9.49
371.158	9.44
371.367	9.66
371.576	9.53
371.785	8.96
371.994	9.22
372.203	9.26
372.412	9.37
372.621	9.81
372.83	9.97
373.039	10.01
373.248	10.07
373.457	10.03
373.666	9.32
373.874	9.34
374.083	10.05
374.292	9.86
374.501	9.3
374.71	8.63
374.919	8.62
375.128	8.65
375.336	8.51
375.545	8.61
375.754	7.67
375.963	7.81
376.171	7.66
376.38	7.16
376.589	7.27
376.798	7.16
377.006	7.49
377.215	7.7
377.424	7.57
377.632	7.83
377.841	7.74
378.05	8.69
378.258	8.76
378.467	9.11
378.675	9.03
378.884	8.76
379.093	8.65
379.301	8.23
379.51	7.66
379.718	7.68
379.927	7.57
380.135	7.12
380.344	6.83
380.552	6.89
380.761	6.68
380.969	6.56
381.177	6.86
381.386	6.53
381.594	6.86
381.803	6.84
382.011	6.54
382.219	6.03
382.428	5.82
382.636	5.58
382.845	5.67
383.053	5.86
383.261	5.78
383.469	5.61
383.678	6.17
383.886	5.98
384.094	5.76
384.302	6.14
384.511	6.79
384.719	7.21
384.927	7.28
385.135	7.15
385.343	7.27
385.552	7.47
385.76	7.24
385.968	7.04
386.176	6.8
386.384	6.92
386.592	6.57
386.8	6.24
387.008	6.36
387.216	6.78
387.424	6.82
387.633	6.58
387.841	6.31
388.049	6.42
388.257	6.51
388.465	6.57
388.672	6.8
388.88	7.05
389.088	7.04
389.296	6.75
389.504	6.7
389.712	6.87
389.92	6.54
390.128	6.52
390.336	6.53
390.544	6.88
390.751	6.78
390.959	6.75
391.167	6.53
391.375	6.55
391.583	6.38
391.79	6.05
391.998	5.92
392.206	6.18
392.414	6.07
392.621	6.1
392.829	6.01
393.037	6.17
393.244	6.1
393.452	6.37
393.66	6.39
393.867	6.68
394.075	6.59
394.283	6.47
394.49	6.23
394.698	6.59
394.905	6.54
395.113	6.22
395.32	6.14
395.528	6.09
395.735	5.7
395.943	5.35
396.15	5.28
396.358	5.29
396.565	5.3
396.773	5.7
396.98	5.32
397.188	5.26
397.395	5.49
397.602	5.59
397.81	5.75
398.017	5.99
398.225	6.01
398.432	6.29
398.639	6.61
398.847	6.64
399.054	6.31
399.261	6.38
399.468	6.54
399.676	6.26
399.883	6.17
400.09	6.05
400.297	6.1
400.505	6.64
400.712	6.42
400.919	6.3
401.126	6.32
401.333	6.36
401.54	6.45
401.748	6.47
401.955	6.63
402.162	6.44
402.369	6.3
402.576	6.13
402.783	5.81
402.99	5.69
403.197	5.62
403.404	5.33
403.611	5.49
403.818	5.45
404.025	5.3
404.232	5.19
404.439	5.31
404.646	5.18
404.853	5.32
405.06	5.35
405.267	5.15
405.474	5.17
405.681	5.17
405.887	5.13
406.094	5.41
406.301	5.42
406.508	5.48
406.715	5.85
406.922	6.13
407.128	5.61
407.335	5.52
407.542	5.64
407.749	5.57
407.955	5.9
408.162	5.82
408.369	5.53
408.575	5.63
408.782	5.57
408.989	5.23
409.195	5.1
409.402	5.61
409.609	5.71
409.815	6.07
410.022	6.25
410.228	6.1
410.435	6.21
410.642	6.19
410.848	6.28
411.055	6.15
411.261	6.08
411.468	6.31
411.674	5.92
411.881	5.87
412.087	5.88
412.294	5.78
412.5	5.56
412.706	5.44
412.913	5.22
413.119	4.9
413.326	4.78
413.532	5.09
413.738	4.56
413.945	4.94
414.151	4.82
414.357	4.64
414.564	4.43
414.77	4.65
414.976	4.69
415.182	5.06
415.389	4.94
415.595	5.07
415.801	4.81
416.007	5.23
416.214	5.25
416.42	5.24
416.626	5.14
416.832	5.09
417.038	5.01
417.244	5.19
417.45	4.93
417.657	5.18
417.863	5.56
418.069	5.65
418.275	5.65
418.481	5.55
418.687	5.58
418.893	5.67
419.099	5.75
419.305	5.84
419.511	5.65
419.717	5.68
419.923	5.56
420.129	5.37
420.335	5.41
420.541	5.4
420.746	5.39
420.952	5.59
421.158	5.46
421.364	5.44
421.57	5.41
421.776	5.46
421.982	5.45
422.187	5.27
422.393	5.21
422.599	5.02
422.805	5.02
423.01	4.94
423.216	4.63
423.422	4.62
423.628	4.67
423.833	4.67
424.039	4.7
424.245	4.68
424.45	4.94
424.656	4.96
424.862	5.05
425.067	4.97
425.273	4.86
425.478	5.06
425.684	4.99
425.889	5.18
426.095	5.27
426.301	5.21
426.506	5.24
426.712	5.2
426.917	5.18
427.123	5.29
427.328	5.25
427.533	5.64
427.739	5.57
427.944	5.55
428.15	5.1
428.355	5.03
428.561	4.85
428.766	4.87
428.971	4.79
429.177	4.77
429.382	4.81
429.587	5.01
429.793	4.84
429.998	4.78
430.203	4.88
430.408	5.07
430.614	5.05
430.819	5.16
431.024	5.14
431.229	5.15
431.434	5.14
431.64	4.88
431.845	4.8
432.05	4.85
432.255	4.85
432.46	4.73
432.665	4.72
432.87	4.77
433.076	4.77
433.281	4.91
433.486	4.91
433.691	4.82
433.896	4.72
434.101	4.72
434.306	4.84
434.511	4.74
434.716	4.97
434.921	4.99
435.126	4.76
435.331	4.7
435.535	4.56
435.74	4.63
435.945	4.83
436.15	4.87
436.355	4.91
436.56	4.79
436.765	4.97
436.97	4.81
437.174	4.79
437.379	5
437.584	5.18
437.789	5.13
437.993	5.05
438.198	5.04
438.403	5.36
438.608	5.39
438.812	5.15
439.017	5.08
439.222	5.03
439.426	5.02
439.631	4.97
439.836	4.83
440.04	4.86
440.245	4.84
440.45	4.76
440.654	4.57
440.859	4.47
441.063	4.57
441.268	4.52
441.472	4.72
441.677	4.77
441.881	4.67
442.086	4.69
442.29	4.71
442.495	4.59
442.699	4.72
442.904	4.76
443.108	4.67
443.312	4.57
443.517	4.5
443.721	4.31
443.925	4.25
444.13	4.42
444.334	4.48
444.538	4.5
444.743	4.47
444.947	4.26
445.151	4.23
445.356	4.24
445.56	4.37
445.764	4.45
445.968	4.55
446.173	4.49
446.377	4.47
446.581	4.44
446.785	4.41
446.989	4.5
447.193	4.53
447.398	4.54
447.602	4.66
447.806	4.7
448.01	4.77
448.214	4.77
448.418	4.76
448.622	4.82
448.826	4.77
449.03	4.8
449.234	4.9
449.438	4.95
449.642	5.04
449.846	4.93
450.05	4.94
450.254	4.82
450.458	4.87
450.662	4.9
450.866	4.72
451.069	4.77
451.273	4.8
451.477	4.65
451.681	4.63
451.885	4.51
452.089	4.52
452.292	4.51
452.496	4.53
452.7	4.29
452.904	4.32
453.107	4.39
453.311	4.45
453.515	4.33
453.719	4.33
453.922	4.4
454.126	4.32
454.33	4.38
454.533	4.22
454.737	4.21
454.94	4.4
455.144	4.43
455.348	4.59
455.551	4.55
455.755	4.35
455.958	4.43
456.162	4.29
456.365	4.47
456.569	4.45
456.772	4.5
456.976	4.53
457.179	4.42
457.383	4.4
457.586	4.38
457.79	4.35
457.993	4.58
458.196	4.44
458.4	4.55
458.603	4.33
458.807	4.43
459.01	4.57
459.213	4.5
459.417	4.44
459.62	4.5
459.823	4.29
460.026	4.21
460.23	4.19
460.433	4.28
460.636	4.25
460.839	4.42
461.042	4.37
461.246	4.27
461.449	4.23
461.652	4.27
461.855	4.16
462.058	4.26
462.261	4.2
462.464	4.14
462.668	4.19
462.871	4.28
463.074	4.29
463.277	4.07
463.48	4.24
463.683	4.28
463.886	4.36
464.089	4.22
464.292	4.29
464.495	4.57
464.698	4.76
464.901	4.69
465.104	4.64
465.306	4.53
465.509	4.6
465.712	4.29
465.915	4.34
466.118	4.28
466.321	4.31
466.524	4.42
466.726	4.43
466.929	4.35
467.132	4.38
467.335	4.37
467.538	4.28
467.74	4.34
467.943	4.47
468.146	4.62
468.348	4.7
468.551	4.79
468.754	4.64
468.956	4.42
469.159	4.48
469.362	4.54
469.564	4.42
469.767	4.58
469.969	4.51
470.172	4.34
470.375	4.28
470.577	4.25
470.78	4.25
470.982	4.17
471.185	4.31
471.387	4.34
471.59	4.29
471.792	4.39
471.995	4.3
472.197	4.27
472.399	4.47
472.602	4.27
472.804	4.32
473.007	4.27
473.209	4.48
473.411	4.5
473.614	4.43
473.816	4.45
474.018	4.47
474.22	4.64
474.423	4.73
474.625	4.61
474.827	4.85
475.03	4.81
475.232	4.82
475.434	4.69
475.636	4.73
475.838	4.66
476.04	4.59
476.243	4.47
476.445	4.4
476.647	4.39
476.849	4.31
477.051	4.13
477.253	4.19
477.455	4.28
477.657	4.28
477.859	4.1
478.061	4.1
478.263	4.08
478.465	4.18
478.667	4.14
478.869	4.1
479.071	4.13
479.273	4.19
479.475	4.07
479.677	4.05
479.879	4
480.081	4.14
480.283	4.15
480.485	4.05
480.686	4.03
480.888	4.11
481.09	4.16
481.292	4.05
481.494	4.02
481.695	4.04
481.897	3.94
482.099	3.91
482.301	3.92
482.502	3.93
482.704	4.05
482.906	3.98
483.107	3.93
483.309	3.91
483.511	4.01
483.712	3.96
483.914	3.95
484.115	3.98
484.317	3.95
484.519	3.92
484.72	3.88
484.922	3.83
485.123	3.87
485.325	3.85
485.526	3.84
485.728	3.77
485.929	3.82
486.131	3.84
486.332	3.83
486.534	3.85
486.735	3.91
486.936	3.91
487.138	3.9
487.339	3.87
487.541	3.9
487.742	3.91
487.943	3.95
488.144	3.92
488.346	3.86
488.547	3.88
488.748	3.93
488.95	3.83
489.151	3.93
489.352	4
489.553	3.9
489.755	3.87
489.956	3.84
490.157	3.81
490.358	3.82
490.559	3.97
490.76	3.88
490.961	3.82
491.163	3.94
491.364	3.91
491.565	3.78
491.766	3.87
491.967	3.9
492.168	3.91
492.369	3.92
492.57	3.92
492.771	3.86
492.972	3.95
493.173	4.02
493.374	3.92
493.575	3.91
493.776	3.99
493.976	4.01
494.177	4.03
494.378	4.11
494.579	4.02
494.78	4.23
494.981	4.15
495.182	4.09
495.382	4.09
495.583	4.11
495.784	4.07
495.985	4.18
496.185	4.16
496.386	4.07
496.587	4.18
496.788	4.24
496.988	4.15
497.189	4.2
497.39	4.23
497.59	4.23
497.791	4.19
497.992	4.12
498.192	4.15
498.393	4.14
498.593	4.26
498.794	4
498.994	4.05
499.195	4.01
499.395	4.03
499.596	4.19
499.796	4.16
499.997	4.33
500.197	4.42
500.398	4.49
500.598	4.64
500.799	4.52
500.999	4.66
501.199	4.62
501.4	4.77
501.6	4.63
501.801	4.57
502.001	4.66
502.201	4.67
502.402	4.56
502.602	4.4
502.802	4.35
503.002	4.45
503.203	4.44
503.403	4.44
503.603	4.39
503.803	4.5
504.003	4.44
504.204	4.57
504.404	4.49
504.604	4.57
504.804	4.65
505.004	4.6
505.204	4.57
505.404	4.66
505.604	4.83
505.804	4.63
506.005	4.53
506.205	4.53
506.405	4.57
506.605	4.49
506.805	4.48
507.005	4.54
507.204	4.63
507.404	4.55
507.604	4.5
507.804	4.38
508.004	4.5
508.204	4.53
508.404	4.55
508.604	4.41
508.804	4.48
509.003	4.56
509.203	4.49
509.403	4.51
509.603	4.66
509.803	4.75
510.002	4.81
510.202	4.73
510.402	4.82
510.602	4.83
510.801	4.79
511.001	4.74
511.201	4.76
511.4	4.72
511.6	4.63
511.8	4.47
511.999	4.53
512.199	4.52
512.398	4.65
512.598	4.71
512.797	4.8
512.997	4.84
513.197	4.9
513.396	4.93
513.596	5.01
513.795	5.13
513.994	5.32
514.194	5.14
514.393	5.1
514.593	5.12
514.792	5.28
514.992	5.16
515.191	5.1
515.39	5.17
515.59	5.08
515.789	5.03
515.988	4.98
516.188	4.86
516.387	4.88
516.586	4.84
516.786	4.84
516.985	4.59
517.184	4.62
517.383	4.82
517.582	4.89
517.782	4.85
517.981	4.82
518.18	4.81
518.379	4.99
518.578	4.92
518.777	5.05
518.976	4.98
519.176	5.1
519.375	5.1
519.574	5.06
519.773	5.03
519.972	5.02
520.171	5.15
520.37	5.22
520.569	5.12
520.768	5.26
520.967	5.25
521.166	5.3
521.365	5.18
521.564	5.33
521.762	5.4
521.961	5.38
522.16	5.37
522.359	5.15
522.558	5.1
522.757	5.07
522.956	5.04
523.154	5.03
523.353	5.22
523.552	5.3
523.751	5.35
523.949	5.18
524.148	5.28
524.347	5.36
524.546	5.52
524.744	5.44
524.943	5.48
525.142	5.48
525.34	5.61
525.539	5.53
525.737	5.57
525.936	5.43
526.135	5.46
526.333	5.3
526.532	5.29
526.73	5.34
526.929	5.3
527.127	5.27
527.326	5.31
527.524	5.22
527.723	5.24
527.921	5.24
528.12	5.28
528.318	5.34
528.516	5.45
528.715	5.47
528.913	5.44
529.112	5.56
529.31	5.57
529.508	5.56
529.707	5.57
529.905	5.61
530.103	5.57
530.301	5.56
530.5	5.56
530.698	5.49
530.896	5.52
531.094	5.55
531.293	5.53
531.491	5.6
531.689	5.62
531.887	5.76
532.085	5.75
532.283	5.86
532.481	5.93
532.68	5.96
532.878	6.02
533.076	6.01
533.274	5.98
533.472	6.04
533.67	6
533.868	6.04
534.066	6.03
534.264	5.97
534.462	5.98
534.66	6.02
534.858	6.05
535.056	6
535.253	6.03
535.451	6.09
535.649	6.08
535.847	6.27
536.045	6.28
536.243	6.39
536.441	6.49
536.638	6.53
536.836	6.6
537.034	6.62
537.232	6.8
537.43	6.89
537.627	7.04
537.825	7.06
538.023	6.94
538.22	7.11
538.418	7.06
538.616	7.24
538.813	7.34
539.011	7.38
539.209	7.4
539.406	7.38
539.604	7.53
539.801	7.51
539.999	7.58
540.196	7.7
540.394	7.64
540.591	7.66
540.789	7.55
540.986	7.52
541.184	7.56
541.381	7.58
541.579	7.58
541.776	7.52
541.974	7.57
542.171	7.58
542.368	7.57
542.566	7.63
542.763	7.64
542.96	7.71
543.158	7.79
543.355	7.82
543.552	7.88
543.75	8
543.947	7.95
544.144	7.84
544.341	7.95
544.539	7.98
544.736	8.07
544.933	8.07
545.13	8.1
545.327	8.16
545.524	8.11
545.722	8.12
545.919	8.09
546.116	8.37
546.313	8.64
546.51	8.61
546.707	8.63
546.904	8.6
547.101	8.73
547.298	8.85
547.495	8.86
547.692	8.9
547.889	9
548.086	9.22
548.283	9.28
548.48	9.28
548.677	9.27
548.874	9.29
549.07	9.36
549.267	9.38
549.464	9.29
549.661	9.34
549.858	9.47
550.055	9.63
550.251	9.48
550.448	9.48
550.645	9.6
550.842	9.81
551.038	9.89
551.235	9.78
551.432	9.9
551.628	10.07
551.825	10.3
552.022	10.21
552.218	10.15
552.415	10.41
552.612	10.41
552.808	10.33
553.005	10.29
553.201	10.48
553.398	10.65
553.594	10.68
553.791	10.71
553.987	10.74
554.184	10.91
554.38	11.04
554.577	10.92
554.773	11.1
554.97	11.26
555.166	11.38
555.362	11.41
555.559	11.56
555.755	11.71
555.952	11.82
556.148	11.75
556.344	11.84
556.541	11.76
556.737	11.9
556.933	11.98
557.129	11.88
557.326	12.03
557.522	12.25
557.718	12.33
557.914	12.29
558.11	12.3
558.307	12.38
558.503	12.46
558.699	12.64
558.895	12.82
559.091	12.61
559.287	12.72
559.483	12.72
559.679	12.7
559.876	12.78
560.072	12.89
560.268	12.88
560.464	12.86
560.66	12.85
560.856	12.93
561.052	12.84
561.247	13.1
561.443	13.32
561.639	13.45
561.835	13.53
562.031	13.41
562.227	13.46
562.423	13.65
562.619	13.89
562.815	14.22
563.01	14.39
563.206	14.46
563.402	14.39
563.598	14.34
563.793	14.38
563.989	14.38
564.185	14.48
564.381	14.79
564.576	14.87
564.772	14.89
564.968	14.86
565.163	14.73
565.359	14.66
565.555	14.88
565.75	15.05
565.946	15.18
566.141	15.19
566.337	15.36
566.532	15.32
566.728	15.48
566.923	15.66
567.119	15.57
567.314	15.58
567.51	15.86
567.705	15.97
567.901	15.94
568.096	15.91
568.292	16.08
568.487	16.15
568.682	16.07
568.878	16
569.073	15.93
569.268	16.13
569.464	16.3
569.659	16.47
569.854	16.45
570.05	16.56
570.245	16.65
570.44	16.61
570.635	16.72
570.831	16.84
571.026	16.85
571.221	16.97
571.416	16.93
571.611	17.04
571.806	16.91
572.002	16.91
572.197	17.02
572.392	17.08
572.587	17.17
572.782	17.16
572.977	17.3
573.172	17.42
573.367	17.34
573.562	17.54
573.757	17.58
573.952	17.79
574.147	17.97
574.342	18.08
574.537	18.24
574.732	18.34
574.927	18.34
575.121	18.49
575.316	18.72
575.511	18.98
575.706	18.97
575.901	19.11
576.096	19.2
576.29	19.21
576.485	19.39
576.68	19.52
576.875	19.57
577.069	19.77
577.264	19.66
577.459	19.61
577.654	19.47
577.848	19.58
578.043	19.72
578.238	19.59
578.432	19.55
578.627	19.25
578.821	19.06
579.016	19.02
579.21	19.19
579.405	19.34
579.6	19.4
579.794	19.52
579.989	19.41
580.183	19.34
580.378	19.46
580.572	19.91
580.766	20.11
580.961	20.18
581.155	20.3
581.35	20.12
581.544	20.04
581.738	20.02
581.933	20.31
582.127	20.85
582.321	20.85
582.516	20.93
582.71	20.84
582.904	21.02
583.099	21.05
583.293	21.02
583.487	21.34
583.681	21.6
583.875	21.85
584.07	21.86
584.264	21.61
584.458	21.72
584.652	21.6
584.846	21.45
585.04	21.56
585.234	21.79
585.428	21.9
585.623	21.73
585.817	21.63
586.011	21.47
586.205	21.5
586.399	21.6
586.593	21.64
586.787	21.88
586.981	22.1
587.174	21.9
587.368	21.78
587.562	21.87
587.756	22.04
587.95	22.2
588.144	22.34
588.338	22.31
588.532	22.52
588.725	22.69
588.919	22.66
589.113	22.62
589.307	22.87
589.501	22.93
589.694	22.96
589.888	22.96
590.082	22.87
590.275	22.84
590.469	23.2
590.663	22.82
590.856	22.84
591.05	22.95
591.244	22.98
591.437	22.97
591.631	23.09
591.824	23
592.018	23.3
592.212	23.31
592.405	23.39
592.599	23.07
592.792	23.21
592.986	23.36
593.179	23.45
593.372	23.5
593.566	23.56
593.759	23.41
593.953	23.67
594.146	23.36
594.339	23.49
594.533	23.5
594.726	23.77
594.92	23.98
595.113	23.71
595.306	23.64
595.499	23.75
595.693	23.76
595.886	24.04
596.079	24.11
596.272	24.13
596.466	24.27
596.659	24.3
596.852	24.24
597.045	24.2
597.238	24.42
597.431	24.4
597.624	24.24
597.818	24.25
598.011	24.16
598.204	23.99
598.397	24.2
598.59	24.09
598.783	24.22
598.976	24.31
599.169	24.42
599.362	24.27
599.555	24.4
599.748	24.9
599.941	24.84
600.134	24.93
600.326	25.04
600.519	24.97
600.712	25.07
600.905	24.97
601.098	25.06
601.291	24.97
601.483	25.11
601.676	25.22
601.869	25.09
602.062	25.37
602.255	25.21
602.447	25.35
602.64	25.33
602.833	25.31
603.025	25.35
603.218	25.19
603.411	25.35
603.603	25.29
603.796	25.37
603.989	25.34
604.181	25.27
604.374	25.6
604.566	25.65
604.759	25.87
604.951	25.91
605.144	25.99
605.336	26.15
605.529	25.96
605.721	26.25
605.914	26.18
606.106	26.22
606.299	26.2
606.491	26.08
606.683	26.15
606.876	26.05
607.068	26.16
607.26	26.15
607.453	26.19
607.645	26.41
607.837	26.19
608.03	26.32
608.222	26.4
608.414	26.78
608.606	26.78
608.799	26.82
608.991	26.73
609.183	26.94
609.375	26.95
609.567	26.73
609.759	26.72
609.952	26.7
610.144	26.8
610.336	26.75
610.528	26.46
610.72	26.55
610.912	26.61
611.104	26.81
611.296	26.65
611.488	26.78
611.68	26.96
611.872	27.08
612.064	27.36
612.256	27.35
612.448	27.32
612.64	27.24
612.832	27.14
613.023	26.91
613.215	26.87
613.407	26.7
613.599	26.75
613.791	26.66
613.983	26.68
614.174	26.44
614.366	26.38
614.558	26.51
614.75	26.57
614.941	26.77
615.133	26.98
615.325	27.34
615.516	27.7
615.708	27.56
615.9	27.67
616.091	27.77
616.283	28.03
616.475	28.13
616.666	28.02
616.858	28.39
617.049	28.17
617.241	28.18
617.432	27.95
617.624	27.86
617.815	27.92
618.007	28.04
618.198	28.03
618.39	28.07
618.581	28.16
618.773	28.36
618.964	28.26
619.155	28.55
619.347	28.61
619.538	28.65
619.729	28.58
619.921	28.59
620.112	28.52
620.303	28.45
620.494	28.52
620.686	28.31
620.877	28.4
621.068	28.17
621.259	28.11
621.451	28
621.642	27.84
621.833	28.04
622.024	28.25
622.215	28.54
622.406	28.68
622.597	28.75
622.788	28.58
622.98	28.32
623.171	28.59
623.362	28.72
623.553	29.27
623.744	29.2
623.935	29.24
624.126	29.1
624.317	29.02
624.508	29.11
624.698	28.92
624.889	29.16
625.08	29.61
625.271	29.85
625.462	29.79
625.653	29.32
625.844	29.64
626.034	29.45
626.225	29.55
626.416	29.42
626.607	29.42
626.798	29.68
626.988	29.75
627.179	29.52
627.37	29.19
627.56	29.34
627.751	29.64
627.942	29.57
628.132	29.59
628.323	29.48
628.514	29.68
628.704	29.72
628.895	29.43
629.085	29.45
629.276	29.5
629.466	29.58
629.657	29.43
629.847	29.22
630.038	29.03
630.228	29.26
630.419	29.59
630.609	29.55
630.8	29.51
630.99	29.52
631.181	29.69
631.371	29.86
631.561	30.16
631.752	30.44
631.942	30.18
632.132	30.6
632.323	30.42
632.513	30.38
632.703	30.39
632.893	30.49
633.084	30.39
633.274	30.27
633.464	30.03
633.654	30.03
633.844	29.79
634.034	30.11
634.225	29.9
634.415	29.83
634.605	29.84
634.795	29.68
634.985	29.63
635.175	29.69
635.365	29.56
635.555	29.81
635.745	29.58
635.935	29.69
636.125	29.72
636.315	29.79
636.505	30.14
636.695	29.78
636.885	29.96
637.075	29.46
637.265	29.84
637.455	29.95
637.644	29.9
637.834	30.15
638.024	30.02
638.214	30
638.404	30.11
638.593	30.16
638.783	30.66
638.973	30.98
639.163	31.16
639.352	31.19
639.542	31.36
639.732	31.41
639.921	31.37
640.111	31.56
640.301	31.57
640.49	31.36
640.68	31.42
640.87	31.16
641.059	30.78
641.249	31.17
641.438	30.87
641.628	30.49
641.817	30.39
642.007	30.34
642.196	30.37
642.386	30.75
642.575	31.07
642.764	30.51
642.954	30.48
643.143	30.72
643.333	30.79
643.522	31.04
643.711	31.35
643.901	31.42
644.09	31.77
644.279	32.05
644.469	31.55
644.658	31.72
644.847	32.19
645.036	32.27
645.226	32.18
645.415	32.34
645.604	32.35
645.793	32.64
645.982	32.65
646.171	32.6
646.361	32.66
646.55	32.92
646.739	32.52
646.928	32.56
647.117	32.61
647.306	32.65
647.495	32.75
647.684	32.72
647.873	32.81
648.062	32.95
648.251	32.98
648.44	32.71
648.629	32.66
648.818	32.88
649.007	32.67
649.196	32.62
649.384	32.73
649.573	32.4
649.762	32.11
649.951	31.94
650.14	31.94
650.328	32.02
650.517	32.27
650.706	32.47
650.895	32.42
651.083	32.63
651.272	32.42
651.461	32.58
651.65	33.2
651.838	33.75
652.027	33.58
652.216	33.02
652.404	32.85
652.593	32.99
652.781	32.78
652.97	32.96
653.158	33.05
653.347	33.39
653.535	33.18
653.724	32.5
653.912	32.55
654.101	32.83
654.289	33.5
654.478	33.67
654.666	33.69
654.855	33.78
655.043	33.47
655.231	33.11
655.42	33.53
655.608	33.59
655.796	33.75
655.985	33.61
656.173	33.54
656.361	33.48
656.55	33.31
656.738	32.81
656.926	32.96
657.114	33.36
657.302	33.56
657.491	32.95
657.679	32.81
657.867	32.95
658.055	32.98
658.243	33.06
658.431	33.28
658.619	33.67
658.807	33.81
658.996	33.91
659.184	33.64
659.372	33.75
659.56	33.87
659.748	33.7
659.936	33.98
660.124	34.04
660.311	34.07
660.499	33.98
660.687	33.79
660.875	33.96
661.063	33.9
661.251	34.04
661.439	34.04
661.627	34.13
661.814	34.53
662.002	33.98
662.19	33.89
662.378	34.02
662.565	33.93
662.753	33.77
662.941	33.61
663.129	33.39
663.316	33.73
663.504	33.35
663.692	33.5
663.879	33.6
664.067	33.88
664.254	33.86
664.442	33.41
664.63	33.41
664.817	33.82
665.005	33.83
665.192	34.16
665.38	33.89
665.567	34.47
665.755	34.56
665.942	34.44
666.13	34.66
666.317	34.89
666.504	34.91
666.692	35
666.879	34.7
667.067	34.54
667.254	34.51
667.441	34.38
667.629	34.2
667.816	34.11
668.003	33.78
668.19	33.82
668.378	33.52
668.565	33.61
668.752	33.54
668.939	33.51
669.127	33.62
669.314	33.54
669.501	33.87
669.688	33.85
669.875	34.07
670.062	34.5
670.249	34.81
670.436	34.71
670.623	34.76
670.81	34.79
670.997	34.8
671.184	35.18
671.371	35.51
671.558	35.26
671.745	35.21
671.932	34.94
672.119	34.71
672.306	34.27
672.493	34.87
672.68	35.16
672.867	35.75
673.054	35.87
673.24	35.4
673.427	35.64
673.614	36.15
673.801	36.7
673.988	37.26
674.174	37.6
674.361	37.89
674.548	37.18
674.734	37.12
674.921	36.34
675.108	36.58
675.294	36.46
675.481	35.96
675.668	35.68
675.854	35.37
676.041	35.32
676.227	35.28
676.414	34.94
676.601	35.85
676.787	35.89
676.974	36.67
677.16	36.62
677.347	37.15
677.533	37.14
677.719	37.14
677.906	36.8
678.092	36.55
678.279	36.3
678.465	35.99
678.651	35.53
678.838	35.56
679.024	34.88
679.21	34.72
679.397	34.46
679.583	34.33
679.769	34.48
679.955	34.59
680.142	34.68
680.328	35.44
680.514	35.64
680.7	35.5
680.886	35.76
681.073	36.2
681.259	36.13
681.445	36.43
681.631	36.57
681.817	36.34
682.003	36.6
682.189	36.37
682.375	35.8
682.561	36.42
682.747	36.62
682.933	36.29
683.119	36.04
683.305	36.42
683.491	36.31
683.677	36.34
683.863	36.37
684.049	36.37
684.235	36.38
684.42	36.28
684.606	35.6
684.792	35.83
684.978	35.87
685.164	36.04
685.349	35.51
685.535	35.62
685.721	35.74
685.907	35.55
686.092	35.9
686.278	35.96
686.464	35.99
686.649	36.15
686.835	36.11
687.021	36.4
687.206	36.45
687.392	36.71
687.577	36.84
687.763	36.51
687.948	36.91
688.134	36.33
688.319	36.58
688.505	37.04
688.69	37.24
688.876	36.82
689.061	36.66
689.247	36.7
689.432	36.68
689.618	36.16
689.803	36.69
689.988	36.64
690.174	37.2
690.359	37.17
690.544	36.77
690.73	36.53
690.915	36.93
691.1	36.8
691.285	36.89
691.471	37.4
691.656	38.26
691.841	37.71
692.026	38.22
692.211	37.9
692.396	37.99
692.582	38.31
692.767	38.53
692.952	38.48
693.137	38.72
693.322	38.84
693.507	38.51
693.692	38.07
693.877	38.28
694.062	37.81
694.247	37.51
694.432	38.05
694.617	37.82
694.802	37.7
694.987	38.09
695.172	37.93
695.357	37.91
695.541	37.55
695.726	37.84
695.911	38.29
696.096	37.91
696.281	38.39
696.466	37.77
696.65	37.77
696.835	38.32
697.02	38.34
697.204	38.39
697.389	38.18
697.574	38.16
697.759	37.97
697.943	37.71
698.128	38.14
698.312	37.85
698.497	37.7
698.682	37.74
698.866	37.36
699.051	37.05
699.235	36.97
699.42	37.29
699.604	37.47
699.789	37.46
699.973	37.31
700.158	37.45
700.342	37.62
700.527	38.09
700.711	38.35
700.895	38.55
701.08	38.66
701.264	38.63
701.448	38.53
701.633	38.99
701.817	38.93
702.001	39.54
702.186	39.39
702.37	39.36
702.554	38.61
702.738	38.66
702.923	38.36
703.107	38.54
703.291	38.96
703.475	38.63
703.659	38.25
703.843	38.43
704.027	38.42
704.212	38.02
704.396	37.93
704.58	38.3
704.764	37.86
704.948	38.24
705.132	38.14
705.316	38.07
705.5	38.58
705.684	38.69
705.868	38.34
706.052	38.03
706.235	38.12
706.419	38.43
706.603	38.25
706.787	38.25
706.971	38.47
707.155	38.01
707.339	37.93
707.522	37.98
707.706	37.87
707.89	38.37
708.074	38.56
708.257	38.45
708.441	39.08
708.625	39.6
708.808	39.84
708.992	39.14
709.176	39.5
709.359	39.87
709.543	39.79
709.727	40.31
709.91	39.84
710.094	39.73
710.277	40.24
710.461	39.45
710.644	39.25
710.828	39.29
711.011	39.86
711.195	40.04
711.378	39.77
711.562	39.4
711.745	39.12
711.928	39.26
712.112	39.03
712.295	38.66
712.478	38.85
712.662	38.99
712.845	38.68
713.028	38.63
713.212	39.02
713.395	39.16
713.578	39.84
713.761	39.43
713.945	39.24
714.128	39.57
714.311	39.8
714.494	39.86
714.677	40.37
714.86	40.45
715.043	40.69
715.227	40.61
715.41	40.9
715.593	40.43
715.776	40.76
715.959	41.09
716.142	41.16
716.325	41.14
716.508	41.17
716.691	40.83
716.874	41.16
717.057	41.12
717.239	40.47
717.422	40.26
717.605	40
717.788	40.19
717.971	40.76
718.154	40.81
718.337	41.11
718.519	41.26
718.702	41.93
718.885	41.61
719.068	41.65
719.25	42.76
719.433	42.16
719.616	42.31
719.798	41.63
719.981	41.74
720.164	41.79
720.346	41.13
720.529	42.12
720.712	42
720.894	42.55
721.077	41.97
721.259	41.72
721.442	42.44
721.624	42.84
721.807	44
721.989	43.57
722.172	43.29
722.354	43.44
722.537	42.27
722.719	41.27
722.901	41.17
723.084	41.46
723.266	41.03
723.448	40.66
723.631	40.13
723.813	39.45
723.995	39.09
724.178	39.33
724.36	39.68
724.542	40.06
724.724	40.67
724.907	40.62
725.089	40.45
725.271	41.05
725.453	41
725.635	41.2
725.817	41.51
725.999	41.97
726.181	42.08
726.364	41.45
726.546	41.14
726.728	41.07
726.91	41.06
727.092	41.91
727.274	41.84
727.456	42.09
727.638	42.41
727.819	42.01
728.001	42.05
728.183	42.48
728.365	43.12
728.547	42.99
728.729	42.98
728.911	43.18
729.093	42.48
729.274	41.34
729.456	40.99
729.638	40.84
729.82	41.12
730.001	40.9
730.183	39.85
730.365	40.06
730.546	40.01
730.728	39.56
730.91	39.32
731.091	39.66
731.273	40.48
731.455	40.61
731.636	40.89
731.818	41.16
731.999	40.97
732.181	41.39
732.362	41.15
732.544	42.22
732.725	42.41
732.907	42.69
733.088	42.94
733.27	43.21
733.451	43.45
733.633	44.06
733.814	43.27
733.995	43.63
734.177	43.95
734.358	44.15
734.539	43.7
734.721	43.53
734.902	42.73
735.083	42.46
735.264	42.62
735.446	42.65
735.627	41.52
735.808	41.16
735.989	41.2
736.17	40.94
736.351	40.81
736.533	40.21
736.714	40.48
736.895	41.4
737.076	41.92
737.257	42.34
737.438	41.73
737.619	41.94
737.8	43.64
737.981	43.42
738.162	43.86
738.343	44.18
738.524	43.6
738.705	42.95
738.886	42.17
739.067	41.44
739.247	40.5
739.428	40.51
739.609	40.29
739.79	40.7
739.971	40.65
740.151	40.37
740.332	40.74
740.513	41.8
740.694	43.34
740.874	43.92
741.055	43.97
741.236	44.39
741.417	45.7
741.597	45.63
741.778	45.24
741.958	44.81
742.139	44.86
742.32	44.46
742.5	44.85
742.681	44.79
742.861	44.52
743.042	44.12
743.222	43.54
743.403	42.46
743.583	42.87
743.764	42.83
743.944	43.07
744.124	43.02
744.305	42.42
744.485	41.33
744.666	40.1
744.846	40.03
745.026	41.02
745.207	41.39
745.387	42.12
745.567	43.62
745.747	42.46
745.928	42.58
746.108	42.99
746.288	42.89
746.468	43.22
746.648	43.86
746.829	43.42
747.009	43.58
747.189	43.54
747.369	43.99
747.549	42.42
747.729	43.2
747.909	43.34
748.089	43.12
748.269	44.11
748.449	44.72
748.629	44.58
748.809	44.97
748.989	45.23
749.169	45.34
749.349	44.36
749.529	44.7
749.709	44.04
749.889	45.17
750.068	44.35
750.248	44.89
750.428	44.43
750.608	44.27
750.788	43.51
750.967	42.72
751.147	42.03
751.327	42.4
751.507	41.77
751.686	41.73
751.866	41.03
752.046	41.86
752.225	41.44
752.405	41.54
752.585	41.68
752.764	42.95
752.944	42.77
753.123	42.6
753.303	42.35
753.482	43.73
753.662	44.38
753.841	44.44
754.021	45.29
754.2	44.34
754.38	43.54
754.559	42.86
754.739	42
754.918	42.29
755.097	43.05
755.277	42.73
755.456	42.74
755.635	42.74
755.815	43.14
755.994	41.97
756.173	42.7
756.352	42.45
756.532	42.62
756.711	43.12
756.89	42.53
757.069	43.4
757.248	43.65
757.427	42.84
757.607	43.01
757.786	43.22
757.965	42.77
758.144	42.53
758.323	44.32
758.502	44.94
758.681	45.46
758.86	46.96
759.039	45.36
759.218	46.2
759.397	45.88
759.576	45.15
759.755	44.67
759.934	45.75
760.113	45.75
760.291	44.72
760.47	45.02
760.649	44.2
760.828	43.4
761.007	44
761.186	43.14
761.364	43.85
761.543	44.3
761.722	44.19
761.901	43.53
762.079	44.66
762.258	44.91
762.437	44.13
762.615	44.36
762.794	43.98
762.972	43.78
763.151	43.96
763.33	44.16
763.508	43.92
763.687	43.63
763.865	44.41
764.044	43.82
764.222	43.71
764.401	44.48
764.579	44.69
764.758	44.85
764.936	44.79
765.114	44.56
765.293	44.09
765.471	44.53
765.65	45.35
765.828	45.05
766.006	45.08
766.184	45.34
766.363	44.74
766.541	44.63
766.719	44.16
766.898	44.83
767.076	44.97
767.254	45.39
767.432	45.67
767.61	44.67
767.788	45.03
767.967	44.66
768.145	44.32
768.323	43.62
768.501	43.61
768.679	43.99
768.857	43.97
769.035	43.87
769.213	44.72
769.391	44.17
769.569	45.88
769.747	46.51
769.925	46.69
770.103	46.22
770.281	46.62
770.459	47.84
770.636	47.4
770.814	47.7
770.992	47.79
771.17	46.82
771.348	46.97
771.525	44.69
771.703	43.12
771.881	42.67
772.059	43.61
772.236	43.78
772.414	42.5
772.592	43.47
772.769	41.78
772.947	42.1
773.125	41.26
773.302	41.07
773.48	41.86
773.657	41.76
773.835	41.5
774.013	42.85
774.19	44.82
774.368	43.77
774.545	44.82
774.723	46.06
774.9	45.3
775.077	47.06
775.255	46.96
775.432	47.65
775.61	48.43
775.787	48.96
775.964	48.07
776.142	47.74
776.319	49.76
776.496	49.03
776.674	49.15
776.851	50.9
777.028	49.73
777.205	50.27
777.382	49.55
777.56	48.34
777.737	50.17
777.914	50.01
778.091	49.25
778.268	48.37
778.445	47.45
778.622	46.41
778.8	45.28
778.977	45.17
779.154	49.6
779.331	48.79
779.508	50.83
779.685	49.19
779.862	48.91
780.038	48.45
780.215	50.27
780.392	50.88
780.569	50.45
780.746	51.5
780.923	51.29
781.1	47.03
781.277	48.3
781.453	48.07
781.63	47.98
781.807	47.98
781.984	47.84
782.16	46.73
782.337	45.84
782.514	46.81
782.691	49.33
782.867	48.21
783.044	47
783.221	46.28
783.397	45.81
783.574	45.02
783.75	47.64
783.927	48.31
784.103	46.76
784.28	48.99
784.456	48.62
784.633	45.51
784.809	46
784.986	46.91
785.162	48.49
785.339	47.19
785.515	46.91
785.692	44.66
785.868	45.09
786.044	47.07
786.221	47.25
786.397	47.04
786.573	46.82
786.749	47.96
786.926	51.16
787.102	51.17
787.278	52.19
787.454	53.35
787.631	53.84
787.807	53.14
787.983	51.58
788.159	50.11
788.335	51.23
788.511	50.82
788.687	51.02
788.863	46.97
789.039	46.19
789.216	44.46
789.392	45.19
789.568	45.77
789.744	45.88
789.919	45.21
790.095	44.57
790.271	45.28
790.447	44.96
790.623	45.15
790.799	46.58
790.975	44.37
791.151	46.65
791.327	47.1
791.502	46.19
791.678	44.48
791.854	46.55
792.03	48.12
792.205	49.1
792.381	49.56
792.557	49.73
792.733	49.63
792.908	50.5
793.084	49.22
793.259	47.48
793.435	44.31
793.611	47.22
793.786	45.99
793.962	43.93
794.137	42.19
794.313	42.25
794.488	41.62
794.664	43.67
794.839	44.02
795.015	46.43
795.19	46.16
795.366	47.71
795.541	47.02
795.716	48.54
795.892	51.76
796.067	50.97
796.242	50.28
796.418	50.14
796.593	49.15
796.768	48.97
796.944	48.09
797.119	48.02
797.294	49.47
797.469	49.21
797.644	48.81
797.82	47.55
797.995	48.15
798.17	48.17
798.345	47.6
798.52	46.95
798.695	49
798.87	49.01
799.045	49.11
799.22	50.21
799.395	51.62
799.57	51.4
799.745	51.21
799.92	52.3
800.095	54.66
800.27	55.62
800.445	56.02
800.62	53.67
800.795	54.75
800.97	56.23
801.145	54.6
801.319	54.53
801.494	54.15
801.669	54.22
801.844	54.62
802.018	52.7
802.193	52.44
802.368	52.4
802.543	52.94
802.717	50.4
802.892	49.62
803.067	49.47
803.241	48.3
803.416	48.27
803.59	48.69
803.765	47.9
803.94	50.01
804.114	50.73
804.289	48.21
804.463	49.08
804.638	48.98
804.812	50.42
804.986	48.66
805.161	47.38
805.335	45.86
805.51	44.69
805.684	43.58
805.858	41.69
806.033	39.76
806.207	41.09
806.381	41.03
806.556	40.95
806.73	39.43
806.904	40.65
807.078	41.16
807.253	44.01
807.427	43.92
807.601	42.96
807.775	44.66
807.949	45.64
808.123	46.23
808.298	48.38
808.472	49.55
808.646	51.03
808.82	50.17
808.994	51.12
809.168	49.73
809.342	49.9
809.516	51.31
809.69	49.57
809.864	49.36
810.038	50.86
810.212	48.28
810.385	45.9
810.559	44.56
810.733	45.39
810.907	44.94
811.081	44.56
811.255	44.41
811.428	46.46
811.602	47.43
811.776	50.38
811.95	47.55
812.123	48.46
812.297	51.98
812.471	54.01
812.644	53.19
812.818	54.18
812.992	55.13
813.165	55.58
813.339	52.65
813.512	52.33
813.686	48.63
813.86	51.38
814.033	50.96
814.207	48.63
814.38	45.42
814.554	45.9
814.727	44.01
814.9	45.75
815.074	47.11
815.247	48.66
815.421	48.29
815.594	50.21
815.767	47.75
815.941	47.74
816.114	50.42
816.287	53.34
816.46	52.28
816.634	53.97
816.807	55.3
816.98	55.27
817.153	56.31
817.327	56.53
817.5	58.41
817.673	61.56
817.846	61.56
818.019	60.88
818.192	59.21
818.365	61.1
818.538	61.35
818.711	54.05
818.884	51.65
819.057	48.76
819.23	49.96
819.403	45.51
819.576	42.13
819.749	41.63
819.922	40.85
820.095	41.48
820.268	40.65
820.441	39.05
820.614	39.82
820.786	41.56
820.959	43.9
821.132	41.94
821.305	42.81
821.477	44.17
821.65	45.38
821.823	45.79
821.996	45.31
822.168	45.27
822.341	45.44
822.514	46.47
822.686	45.91
822.859	45.62
823.031	46.27
823.204	47.2
823.376	46.85
823.549	46.81
823.722	47.07
823.894	47.39
824.067	47.6
824.239	47.65
824.411	48.02
824.584	48.73
824.756	49.02
824.929	49.06
825.101	48.49
825.273	49.48
825.446	49.5
825.618	49.26
825.79	49.11
825.963	49.47
826.135	49.75
826.307	48.4
826.479	48.81
826.652	48.29
826.824	47.95
826.996	47.91
827.168	47.43
827.34	47.73
827.512	47.46
827.684	47.33
827.856	47.54
828.029	48.07
828.201	48.99
828.373	48.25
828.545	48.9
828.717	49.88
828.889	50.02
829.061	50.46
829.232	49.99
829.404	50.26
829.576	51.04
829.748	50.08
829.92	50.58
830.092	50.89
830.264	50.09
830.436	49.73
830.607	49.99
830.779	50.07
830.951	50.14
831.123	49.88
831.294	49.43
831.466	48.59
831.638	49.17
831.809	48.14
831.981	50.44
832.153	52.25
832.324	52.46
832.496	51.55
832.667	53.36
832.839	52.67
833.011	53.14
833.182	54.26
833.354	55.54
833.525	58.29
833.697	57.46
833.868	53.04
834.039	53.1
834.211	51.73
834.382	51.52
834.554	50.41
834.725	50.28
834.896	50.22
835.068	49.97
835.239	49.23
835.41	47.95
835.581	49.2
835.753	50.49
835.924	49.51
836.095	49.98
836.266	49.15
836.438	48.55
836.609	48.13
836.78	48.72
836.951	50.22
837.122	49.73
837.293	50.41
837.464	49.12
837.635	49.6
837.806	51.63
837.977	52.23
838.148	54.56
838.319	57.59
838.49	58.92
838.661	58.98
838.832	54.67
839.003	53.98
839.174	51.66
839.345	50.18
839.516	52.48
839.687	51.51
839.857	53
840.028	52.66
840.199	48.38
840.37	47.89
840.54	50.78
840.711	51.96
840.882	56.26
841.053	55.91
841.223	59.39
841.394	56.81
841.564	60.12
841.735	63.22
841.906	63.03
842.076	61.9
842.247	65
842.417	61.54
842.588	64.69
842.758	59.97
842.929	61.7
843.099	62.36
843.27	63.78
843.44	60.33
843.611	57.56
843.781	53.92
843.951	57.18
844.122	54.96
844.292	56.04
844.462	54.48
844.633	58.92
844.803	57.37
844.973	54.86
845.144	53.38
845.314	56.77
845.484	52.32
845.654	56.44
845.824	62.48
845.995	61.82
846.165	60.87
846.335	64.13
846.505	64.08
846.675	67.59
846.845	69.14
847.015	72.14
847.185	72.23
847.355	75.76
847.525	79.42
847.695	82.29
847.865	82.43
848.035	86.35
848.205	81.37
848.375	80.74
848.545	61.56
848.715	58.88
848.884	56.71
849.054	50.6
849.224	52.87
849.394	56.4
849.564	49.33
849.733	51.31
849.903	48.97
850.073	50.46
850.243	55.66
850.412	67.76
850.582	71.48
850.752	73.17
850.921	73.26
851.091	74.8
851.26	70.89
851.43	71.62
851.599	73.19
851.769	72.29
851.939	63.05
852.108	58.81
852.278	58.77
852.447	55.06
852.616	49
852.786	42.75
852.955	41.03
853.125	48.3
853.294	47.27
853.463	41.95
853.633	48.94
853.802	50.14
853.971	51.78
854.141	53.15
854.31	50.98
854.479	55.96
854.648	64.32
854.818	61.33
854.987	55.59
855.156	54.95
855.325	56.12
855.494	51.78
855.663	53.34
855.832	51.68
856.001	46.42
856.171	51.47
856.34	52.11
856.509	64.35
856.678	72.59
856.847	72.96
857.016	78.96
857.185	77.28
857.353	78.86
857.522	90.34
857.691	89.65
857.86	102.17
858.029	95.3
858.198	99.34
858.367	97.07
858.535	87.45
858.704	90.38
858.873	86.56
859.042	90.09
859.21	91.88
859.379	91.99
859.548	87.6
859.717	83.06
859.885	78.68
860.054	67.32
860.222	51.07
860.391	67.21
860.56	60.61
860.728	61.68
860.897	53.85
861.065	51.17
861.234	55.58
861.402	58.91
861.571	58.32
861.739	67.3
861.908	75.91
862.076	85.7
862.244	77.32
862.413	76.25
862.581	81.87
862.749	79.22
862.918	79.46
863.086	71.1
863.254	71.08
863.423	61.47
863.591	65.3
863.759	59.28
863.927	58.81
864.096	55.6
864.264	66.8
864.432	59.7
864.6	67.38
864.768	61.36
864.936	71.19
865.104	66.87
865.272	78.19
865.44	77.61
865.608	73.59
865.776	72.03
865.944	77.43
866.112	68.98
866.28	74.23
866.448	66.48
866.616	68.76
866.784	61.12
866.952	65.39
867.12	61.93
867.288	56.52
867.455	58.08
867.623	65.73
867.791	65.89
867.959	64.79
868.127	55.5
868.294	64.51
868.462	60.15
868.63	62.81
868.797	58.67
868.965	64.52
869.133	61.16
869.3	59.78
869.468	54.65
869.636	46.51
869.803	47.49
869.971	67.56
870.138	60.45
870.306	62.18
870.473	58.55
870.641	62.76
870.808	51.97
870.975	57.54
871.143	55.77
871.31	53.83
871.478	59.61
871.645	57.97
871.812	48.64
871.98	52.27
872.147	58.71
872.314	57.69
872.482	58.77
872.649	64.86
872.816	61.5
872.983	60.5
873.15	59.73
873.318	59.6
873.485	64.68
873.652	63.01
873.819	72.77
873.986	73.75
874.153	82.11
874.32	90.13
874.487	86.97
874.654	82.74
874.821	88.86
874.988	88.62
875.155	89.29
875.322	91.02
875.489	97.51
875.656	83.83
875.823	73.76
875.99	68.23
876.157	52.19
876.324	55.3
876.49	53.53
876.657	52.9
876.824	50.05
876.991	50.34
877.157	53.64
877.324	56.78
877.491	64.89
877.658	70.83
877.824	72.79
877.991	75.52
878.157	81.4
878.324	81.61
878.491	91.7
878.657	102.16
878.824	93.59
878.99	79.06
879.157	77.66
879.323	68.81
879.49	68.41
879.656	65.64
879.823	62.75
879.989	61.16
880.156	59.83
880.322	53.91
880.488	46.11
880.655	52.53
880.821	56.67
880.987	53.58
881.154	52
881.32	46.7
881.486	51.51
881.652	54.06
881.819	53.32
881.985	53.09
882.151	52.27
882.317	55.99
882.483	56.22
882.649	56.36
882.816	56.68
882.982	55.8
883.148	56.76
883.314	54.79
883.48	56
883.646	53.12
883.812	52.83
883.978	52.38
884.144	52.69
884.31	50
884.476	51.33
884.642	51.7
884.807	53.8
884.973	53.1
885.139	52.74
885.305	51.91
885.471	52.14
885.637	51.52
885.802	52.64
885.968	50.84
886.134	52.06
886.3	48.75
886.465	46.16
886.631	42.78
886.797	43.46
886.962	42.22
887.128	40.99
887.293	42.98
887.459	44.69
887.625	42.41
887.79	42.23
887.956	43.16
888.121	45.83
888.287	48.16
888.452	50.06
888.618	48.42
888.783	57.12
