Data from LC_195_Reflection_2.txt Node
Date: Tue Nov 17 13:46:26 EST 2015
User: robert
Spectrometer: USB4E03001
Autoset integration time: false
Trigger mode: 4
Integration Time (sec): 1.000000E-1
Scans to average: 15
Electric dark correction enabled: true
Nonlinearity correction enabled: false
Boxcar width: 5
Stray light correction enabled: false
XAxis mode: Wavelengths
Stop averaging: false
Number of Pixels in Spectrum: 3648
>>>>>Begin Spectral Data<<<<<
177.566	111.62
177.785	146.06
178.005	-1177.61
178.225	321.5
178.445	-300.3
178.665	-109.63
178.885	70.33
179.105	-145.47
179.324	659.85
179.544	1136.19
179.764	325.78
179.984	173.33
180.204	235.93
180.423	610.35
180.643	919.5
180.863	-3122.22
181.083	-4794.39
181.302	1135.31
181.522	553.8
181.742	1620.81
181.961	19279.41
182.181	-1106.39
182.401	-250.94
182.621	-618.1
182.84	-649.84
183.06	-1920.22
183.279	2395.32
183.499	-13335.29
183.719	-1371.29
183.938	-402.98
184.158	-663.03
184.377	-890.23
184.597	-774.76
184.816	706.49
185.036	684.44
185.256	787.42
185.475	455.35
185.695	632.37
185.914	477.5
186.134	471.97
186.353	293.21
186.572	321.24
186.792	256.28
187.011	252.69
187.231	839.43
187.45	3356.04
187.67	573.14
187.889	668.51
188.108	444.05
188.328	420.37
188.547	426.37
188.766	-2213.81
188.986	1890
189.205	523.54
189.424	607.87
189.644	458.07
189.863	355.41
190.082	346.45
190.302	373.4
190.521	522.28
190.74	11207.79
190.959	1698.05
191.178	456.62
191.398	425.46
191.617	1258.23
191.836	926.03
192.055	574.35
192.274	-1473.63
192.494	-851.48
192.713	-2499.76
192.932	-1225.24
193.151	2370.79
193.37	35052.38
193.589	-1096350
193.808	28361.8
194.027	-3825.11
194.246	-1693.12
194.465	7565.47
194.685	752.38
194.904	608.84
195.123	108695.83
195.342	2410.5
195.561	712
195.78	518.88
195.999	623.71
196.218	405.81
196.436	336.19
196.655	228.16
196.874	282.89
197.093	311.95
197.312	238.15
197.531	207.91
197.75	193.25
197.969	200.11
198.188	217.03
198.407	218.95
198.625	237.07
198.844	223.68
199.063	213.93
199.282	209.85
199.501	178.64
199.719	266.21
199.938	268.07
200.157	328.4
200.376	1165.18
200.594	585.9
200.813	324.33
201.032	468.54
201.251	490.96
201.469	6957.59
201.688	2129.23
201.907	-10569.07
202.125	3453.58
202.344	3033.9
202.563	2903.22
202.781	1761.18
203	-1984.74
203.218	-488.16
203.437	-692.15
203.656	-469.76
203.874	-1182.35
204.093	-1544.32
204.311	-1454.9
204.53	26080.26
204.748	-1122.45
204.967	4507.51
205.185	891.75
205.404	454.53
205.622	417.05
205.841	343.68
206.059	400.89
206.278	285.27
206.496	281.89
206.715	273.07
206.933	314.52
207.151	298.08
207.37	273.26
207.588	327.89
207.806	412.93
208.025	337.65
208.243	330.37
208.461	380.33
208.68	634.86
208.898	-1012.42
209.116	-1777.16
209.335	3984.16
209.553	-2355.04
209.771	1092.93
209.989	376.38
210.208	458.73
210.426	461.69
210.644	452.02
210.862	321.44
211.081	237.71
211.299	161.29
211.517	173.6
211.735	167.75
211.953	181.53
212.171	217.76
212.39	568.65
212.608	563.78
212.826	812.04
213.044	740.92
213.262	667.7
213.48	-28147.76
213.698	-1608.39
213.916	822.95
214.134	-1634.52
214.352	-441.67
214.57	-431.28
214.788	4579.8
215.006	1464.71
215.224	1409.43
215.442	1079.29
215.66	1034.46
215.878	669.56
216.096	305.22
216.314	316
216.532	217.18
216.75	166.89
216.968	193.09
217.185	209.06
217.403	236.93
217.621	211.41
217.839	223.43
218.057	257.03
218.275	260.05
218.492	281.13
218.71	312.3
218.928	367.98
219.146	415.02
219.363	446.8
219.581	338.33
219.799	359.88
220.017	383.12
220.234	365.76
220.452	299.88
220.67	264.43
220.887	268.23
221.105	268.46
221.323	239.67
221.54	238.8
221.758	193.6
221.976	201.67
222.193	164.47
222.411	170.65
222.629	175.11
222.846	164.06
223.064	144.24
223.281	153.94
223.499	154.97
223.716	154.15
223.934	145.95
224.151	156.79
224.369	162.36
224.586	177.26
224.804	174.59
225.021	185.71
225.239	191.92
225.456	196.57
225.674	178.23
225.891	148.4
226.108	160.01
226.326	149.7
226.543	126.29
226.76	109.04
226.978	98.74
227.195	88.22
227.413	69.41
227.63	65.36
227.847	61.43
228.064	60.36
228.282	57.91
228.499	55.06
228.716	53.19
228.934	51.22
229.151	49.07
229.368	43.83
229.585	39.29
229.802	41.74
230.02	39.59
230.237	40.03
230.454	39.93
230.671	44.8
230.888	44.14
231.105	44.98
231.323	45.86
231.54	47.1
231.757	55.85
231.974	58.69
232.191	58.32
232.408	63.99
232.625	63.93
232.842	61.45
233.059	56.21
233.276	56.79
233.493	56.15
233.71	56.04
233.927	51.79
234.144	44.2
234.361	45.24
234.578	47.67
234.795	41.18
235.012	39.05
235.229	35.27
235.446	38.54
235.663	42.4
235.879	40.25
236.096	47.29
236.313	50.31
236.53	51.6
236.747	50.39
236.964	48.52
237.181	54.09
237.397	57.66
237.614	65.89
237.831	62.47
238.048	59.15
238.264	62.1
238.481	62.37
238.698	59.49
238.915	60.78
239.131	60.93
239.348	58.1
239.565	53.01
239.781	54.6
239.998	51.07
240.215	50.59
240.431	46.14
240.648	43.04
240.865	36.04
241.081	34.19
241.298	30.67
241.514	30.89
241.731	29.19
241.947	26.48
242.164	23.83
242.38	19.64
242.597	20.04
242.814	18.9
243.03	17.92
243.246	20.02
243.463	20.96
243.679	22.21
243.896	20.61
244.112	20.28
244.329	24.1
244.545	22.36
244.762	25.1
244.978	24.69
245.194	24.94
245.411	25.98
245.627	25.61
245.843	24.67
246.06	21.26
246.276	18.97
246.492	17.47
246.709	16.87
246.925	16.77
247.141	17.19
247.357	16.27
247.574	17.67
247.79	17.28
248.006	15.93
248.222	15.67
248.439	16.3
248.655	17.1
248.871	18.92
249.087	18.67
249.303	19.36
249.519	19.84
249.736	21.78
249.952	22.41
250.168	26.75
250.384	28.34
250.6	28.12
250.816	30.03
251.032	29.82
251.248	27.9
251.464	26.61
251.68	26.86
251.896	26.65
252.112	24.51
252.328	23.98
252.544	22.71
252.76	22.91
252.976	24.92
253.192	24.51
253.408	25.97
253.624	25.79
253.84	26.25
254.056	27.48
254.272	27.43
254.487	29.3
254.703	29.52
254.919	28.86
255.135	30.27
255.351	27.3
255.567	28.69
255.782	26.63
255.998	26.58
256.214	28.49
256.43	28
256.646	29.13
256.861	24.93
257.077	25.08
257.293	25.03
257.508	23.47
257.724	22.44
257.94	21.75
258.155	21.29
258.371	21.82
258.587	18.45
258.802	17.15
259.018	15.78
259.234	16.4
259.449	16.81
259.665	15.17
259.88	15.07
260.096	15.44
260.312	14.41
260.527	14.15
260.743	14
260.958	14.23
261.174	14.85
261.389	14.82
261.605	15.42
261.82	13.99
262.036	14.48
262.251	13.9
262.466	13.7
262.682	15.82
262.897	16.43
263.113	16.19
263.328	16.77
263.543	17.16
263.759	17.79
263.974	17.72
264.189	17.9
264.405	19.48
264.62	20.93
264.835	21.33
265.051	19.36
265.266	19.47
265.481	20.64
265.696	24.03
265.912	23.54
266.127	22.31
266.342	20.89
266.557	19.09
266.773	17.34
266.988	17.53
267.203	17.2
267.418	18.82
267.633	18.6
267.848	17.13
268.064	13.53
268.279	12.46
268.494	13.81
268.709	14.49
268.924	16.81
269.139	17.7
269.354	17.71
269.569	17.16
269.784	15.75
269.999	14.88
270.214	15.05
270.429	16.91
270.644	15.4
270.859	13.38
271.074	13.44
271.289	14.11
271.504	13.94
271.719	13.28
271.934	13.96
272.149	13.9
272.363	15.1
272.578	15.21
272.793	14.56
273.008	15.56
273.223	17.01
273.438	16.61
273.653	15.9
273.867	16.52
274.082	16.82
274.297	16.28
274.512	17.16
274.726	17.52
274.941	17.62
275.156	18.83
275.371	18.85
275.585	20.35
275.8	22.63
276.015	22.93
276.229	22.34
276.444	22.58
276.659	23.82
276.873	23.7
277.088	23.58
277.302	23.79
277.517	22.83
277.732	22.42
277.946	20.46
278.161	19.87
278.375	19.46
278.59	20.09
278.804	19.05
279.019	18.36
279.233	17.23
279.448	16.39
279.662	16.33
279.877	16.16
280.091	16.07
280.306	16.19
280.52	15.69
280.735	15.78
280.949	15.51
281.163	15.83
281.378	16.17
281.592	16.98
281.806	15.43
282.021	15.35
282.235	15.43
282.449	15.83
282.664	16.11
282.878	16.92
283.092	16.98
283.307	16.5
283.521	16.89
283.735	15.71
283.949	15.33
284.164	17.07
284.378	16.77
284.592	16.24
284.806	16.62
285.02	16.06
285.234	14.1
285.449	13.29
285.663	13.63
285.877	13.75
286.091	13.97
286.305	13.97
286.519	13.34
286.733	13.28
286.947	13.78
287.161	13.56
287.375	13.79
287.589	14.34
287.803	14.58
288.017	13.8
288.231	13.79
288.445	13.39
288.659	13.12
288.873	12.52
289.087	13.45
289.301	13.57
289.515	14.62
289.729	15.08
289.943	14.71
290.157	14.2
290.371	14.73
290.584	14.81
290.798	15.55
291.012	15.38
291.226	16.36
291.44	16.03
291.654	15.94
291.867	14.45
292.081	12.79
292.295	13.84
292.509	13.85
292.722	13.58
292.936	12.45
293.15	13.17
293.364	13.02
293.577	13.32
293.791	11.53
294.005	11.86
294.218	13.03
294.432	14.64
294.645	13.86
294.859	14.16
295.073	14.01
295.286	14.25
295.5	12.63
295.713	13.17
295.927	12.12
296.14	12.98
296.354	12.13
296.568	12.19
296.781	11.98
296.994	12.39
297.208	12.74
297.421	12.36
297.635	13.15
297.848	12.94
298.062	12.52
298.275	12.99
298.489	13.68
298.702	14.92
298.915	14.49
299.129	14.72
299.342	14.69
299.555	14.63
299.769	16.12
299.982	16.35
300.195	17.49
300.409	18.1
300.622	18.09
300.835	17.52
301.048	16.38
301.262	17.16
301.475	16.84
301.688	17.3
301.901	17.68
302.115	17.65
302.328	17.23
302.541	16.87
302.754	17.17
302.967	16.95
303.18	16.81
303.393	16.57
303.607	16.48
303.82	16.4
304.033	15.68
304.246	14.6
304.459	13.59
304.672	13.06
304.885	13.95
305.098	13.71
305.311	14.01
305.524	14.39
305.737	15.07
305.95	15.68
306.163	14.05
306.376	13.36
306.589	13.92
306.802	13.92
307.015	14.21
307.228	15.07
307.44	14.86
307.653	15.17
307.866	15.37
308.079	14.41
308.292	12.49
308.505	14.11
308.718	14.95
308.93	15.6
309.143	16.78
309.356	16.51
309.569	15.63
309.781	16.08
309.994	14.73
310.207	14.32
310.42	14.91
310.632	14.96
310.845	15.31
311.058	14.16
311.27	13.35
311.483	12.5
311.696	12.54
311.908	11.79
312.121	11.25
312.333	12.28
312.546	12.2
312.759	11.57
312.971	12.28
313.184	12.66
313.396	13.22
313.609	13.85
313.821	14.26
314.034	14.75
314.246	15.67
314.459	16.09
314.671	16.32
314.884	16.88
315.096	18.12
315.309	18.31
315.521	17.32
315.733	17.57
315.946	16.29
316.158	16.88
316.371	17.03
316.583	17.13
316.795	17.07
317.008	17.71
317.22	17.07
317.432	17.2
317.644	17.21
317.857	16.55
318.069	17.61
318.281	18.71
318.494	18.56
318.706	18.22
318.918	17.62
319.13	18.53
319.342	17.87
319.555	17.73
319.767	17.76
319.979	17.58
320.191	19.2
320.403	19.66
320.615	19.55
320.827	18.13
321.039	19.37
321.252	20.18
321.464	20.01
321.676	21.4
321.888	21.76
322.1	21.84
322.312	21.4
322.524	20.65
322.736	20.14
322.948	20.38
323.16	20.39
323.372	18.83
323.584	18.33
323.796	18.6
324.007	17.7
324.219	18.01
324.431	17.88
324.643	18.07
324.855	18.76
325.067	18.72
325.279	18.77
325.491	19.44
325.702	19.55
325.914	19.75
326.126	18.82
326.338	19
326.55	17.98
326.761	18.43
326.973	19.16
327.185	18.52
327.396	18.5
327.608	18.13
327.82	17.44
328.032	16.98
328.243	16.59
328.455	17.1
328.666	16.37
328.878	17.71
329.09	16.4
329.301	15.75
329.513	16.14
329.725	16.9
329.936	17.87
330.148	19.19
330.359	20.55
330.571	20.69
330.782	19.71
330.994	19.91
331.205	19.32
331.417	20.65
331.628	21.21
331.84	21.52
332.051	20.96
332.262	20.11
332.474	18.97
332.685	19.33
332.897	18.8
333.108	19.42
333.319	18.85
333.531	18.89
333.742	18.03
333.953	16.38
334.165	15.55
334.376	15.19
334.587	15.52
334.799	16.02
335.01	15.46
335.221	15.56
335.432	14.9
335.644	14.61
335.855	14.86
336.066	15.13
336.277	16.65
336.488	16.81
336.7	17.23
336.911	17.08
337.122	17.12
337.333	17.21
337.544	17.86
337.755	18.19
337.966	18.73
338.177	18.77
338.388	17.85
338.599	17.5
338.811	17.17
339.022	16.38
339.233	15.72
339.444	15.09
339.655	15.25
339.866	14.88
340.076	14.57
340.287	14.68
340.498	13.59
340.709	15.25
340.92	15.26
341.131	15.66
341.342	16.33
341.553	17.43
341.764	17.6
341.975	17.6
342.185	17.73
342.396	17.83
342.607	18.41
342.818	20.34
343.029	19.39
343.239	19.1
343.45	18.34
343.661	17.9
343.872	17.55
344.082	18.09
344.293	18.16
344.504	19.5
344.714	19.85
344.925	18.88
345.136	17.01
345.346	16.55
345.557	16.02
345.768	17.15
345.978	17.71
346.189	17.84
346.399	17.71
346.61	17.31
346.821	15.54
347.031	16.23
347.242	16.02
347.452	16.95
347.663	17.18
347.873	17.74
348.084	15.91
348.294	15.72
348.504	15.03
348.715	15.6
348.925	15.67
349.136	15.74
349.346	14.77
349.557	15.25
349.767	14.77
349.977	14.82
350.188	15.03
350.398	16.63
350.608	16.59
350.819	16.7
351.029	15.27
351.239	15.27
351.449	15.3
351.66	16.03
351.87	15.53
352.08	15.85
352.29	16.39
352.501	15.38
352.711	15.64
352.921	15.44
353.131	15.57
353.341	16.27
353.552	15.48
353.762	15.48
353.972	14.6
354.182	16.13
354.392	15.89
354.602	16.64
354.812	17.13
355.022	16.58
355.232	16.33
355.442	15.59
355.652	15.52
355.862	15.98
356.072	15.57
356.282	16.2
356.492	14.92
356.702	14.49
356.912	13.68
357.122	14.25
357.332	14.34
357.542	14.09
357.752	14.74
357.962	15.1
358.171	14.79
358.381	15.5
358.591	14.51
358.801	15.13
359.011	14.99
359.221	14.91
359.43	14.26
359.64	13.65
359.85	13.67
360.06	13.4
360.269	12.75
360.479	12.38
360.689	11.93
360.899	12.42
361.108	11.7
361.318	12.06
361.528	11.33
361.737	11.63
361.947	11.73
362.156	11.97
362.366	12.14
362.576	11.98
362.785	12.42
362.995	12.56
363.204	12.36
363.414	12.83
363.623	12.9
363.833	13.49
364.042	13.31
364.252	12.87
364.461	12.67
364.671	12.36
364.88	12.45
365.09	12.51
365.299	12.77
365.509	12.89
365.718	13.11
365.927	12.8
366.137	13.09
366.346	12.96
366.555	12.91
366.765	12.71
366.974	12.63
367.183	13.22
367.393	12.63
367.602	12.23
367.811	12.08
368.021	11.1
368.23	11.71
368.439	11.46
368.648	11.35
368.857	11.96
369.067	12.47
369.276	12.92
369.485	12.81
369.694	13.21
369.903	13.38
370.112	13.87
370.321	15.1
370.531	14.32
370.74	13.93
370.949	13.39
371.158	12.89
371.367	12.54
371.576	12.56
371.785	11.97
371.994	11.72
372.203	11.46
372.412	11.18
372.621	10.02
372.83	10.34
373.039	10.52
373.248	11.02
373.457	11.85
373.666	11.8
373.874	10.86
374.083	11.29
374.292	11.46
374.501	11.87
374.71	11.84
374.919	12.16
375.128	12.24
375.336	12.63
375.545	12.81
375.754	11.97
375.963	11.31
376.171	12.1
376.38	12.3
376.589	12.01
376.798	11.46
377.006	11.61
377.215	12.04
377.424	11.64
377.632	11.31
377.841	11.61
378.05	12.12
378.258	12.72
378.467	12.18
378.675	11.67
378.884	12.23
379.093	12.65
379.301	12.66
379.51	12.41
379.718	12.67
379.927	12.85
380.135	12.4
380.344	12.11
380.552	11.97
380.761	12.22
380.969	12.16
381.177	11.98
381.386	11.74
381.594	11.48
381.803	11.01
382.011	10.72
382.219	10.27
382.428	10.13
382.636	10.05
382.845	9.89
383.053	9.98
383.261	9.85
383.469	9.93
383.678	10.24
383.886	9.63
384.094	9.8
384.302	9.79
384.511	9.72
384.719	9.83
384.927	10.01
385.135	10.32
385.343	10.27
385.552	10.96
385.76	10.79
385.968	10.6
386.176	11
386.384	11.01
386.592	11.17
386.8	11.5
387.008	11.22
387.216	11.09
387.424	10.89
387.633	10.93
387.841	10.45
388.049	10.67
388.257	10.47
388.465	10.6
388.672	10.73
388.88	10.83
389.088	10.92
389.296	11.09
389.504	11.51
389.712	11.4
389.92	11.1
390.128	11.17
390.336	10.91
390.544	10.97
390.751	10.88
390.959	10.79
391.167	10.48
391.375	10.35
391.583	10.25
391.79	9.92
391.998	9.92
392.206	10.35
392.414	9.89
392.621	9.83
392.829	9.95
393.037	9.85
393.244	9.97
393.452	10.15
393.66	9.75
393.867	9.81
394.075	9.74
394.283	9.83
394.49	9.4
394.698	9.76
394.905	9.83
395.113	9.82
395.32	9.5
395.528	9.38
395.735	9.4
395.943	9.55
396.15	9.6
396.358	9.68
396.565	9.47
396.773	9.41
396.98	9.56
397.188	9.62
397.395	9.31
397.602	9.75
397.81	9.87
398.017	9.84
398.225	10.22
398.432	10.09
398.639	10.06
398.847	10.46
399.054	10.34
399.261	10.15
399.468	9.65
399.676	10.04
399.883	10.15
400.09	9.8
400.297	9.9
400.505	9.66
400.712	10.02
400.919	10.12
401.126	9.82
401.333	9.89
401.54	10.01
401.748	10.27
401.955	10.01
402.162	9.91
402.369	10.08
402.576	10.04
402.783	9.76
402.99	9.35
403.197	9.28
403.404	9.04
403.611	8.99
403.818	8.77
404.025	8.53
404.232	8.32
404.439	8.25
404.646	8.23
404.853	8
405.06	8.22
405.267	8.31
405.474	7.94
405.681	7.78
405.887	8.05
406.094	8.21
406.301	8.71
406.508	8.85
406.715	8.83
406.922	8.74
407.128	8.92
407.335	8.77
407.542	8.9
407.749	9.25
407.955	9.6
408.162	9.4
408.369	9.2
408.575	8.92
408.782	8.92
408.989	8.87
409.195	9.06
409.402	9.11
409.609	9.23
409.815	8.97
410.022	8.94
410.228	8.73
410.435	8.83
410.642	9
410.848	9.23
411.055	9.25
411.261	9.17
411.468	9.3
411.674	9.28
411.881	9.05
412.087	9.32
412.294	9.21
412.5	9.26
412.706	9.44
412.913	9.26
413.119	9.28
413.326	9.18
413.532	8.78
413.738	8.68
413.945	8.42
414.151	8.52
414.357	8.56
414.564	8.5
414.77	8.59
414.976	8.53
415.182	8.59
415.389	8.14
415.595	7.87
415.801	8.31
416.007	8.15
416.214	8.3
416.42	8.31
416.626	7.95
416.832	8.11
417.038	8.27
417.244	8.06
417.45	8
417.657	7.94
417.863	8.05
418.069	8.11
418.275	7.92
418.481	7.89
418.687	7.8
418.893	7.97
419.099	7.76
419.305	7.72
419.511	7.7
419.717	7.68
419.923	7.57
420.129	7.52
420.335	7.46
420.541	7.35
420.746	7.33
420.952	7.22
421.158	7.1
421.364	7.12
421.57	7.19
421.776	7.1
421.982	7.03
422.187	7.1
422.393	7.18
422.599	7.17
422.805	7.26
423.01	7.24
423.216	7.3
423.422	7.38
423.628	7.39
423.833	7.27
424.039	7.17
424.245	7.23
424.45	7.33
424.656	7.27
424.862	7.19
425.067	7.25
425.273	7.21
425.478	7.23
425.684	7.11
425.889	7.25
426.095	7.25
426.301	7.42
426.506	7.44
426.712	7.52
426.917	7.55
427.123	7.63
427.328	7.77
427.533	7.83
427.739	7.78
427.944	7.71
428.15	7.41
428.355	7.39
428.561	7.53
428.766	7.45
428.971	7.35
429.177	7.53
429.382	7.6
429.587	7.67
429.793	7.77
429.998	7.67
430.203	7.87
430.408	8.03
430.614	7.89
430.819	7.78
431.024	7.8
431.229	7.83
431.434	7.79
431.64	7.9
431.845	7.89
432.05	7.75
432.255	7.95
432.46	8
432.665	8.2
432.87	8.24
433.076	8.15
433.281	8.26
433.486	8.13
433.691	7.96
433.896	7.63
434.101	7.51
434.306	7.57
434.511	7.71
434.716	7.68
434.921	7.45
435.126	7.64
435.331	7.71
435.535	7.72
435.74	7.81
435.945	7.96
436.15	8.08
436.355	8.21
436.56	8.27
436.765	8.25
436.97	8.16
437.174	8.11
437.379	7.89
437.584	8.09
437.789	7.88
437.993	7.8
438.198	7.63
438.403	7.65
438.608	7.43
438.812	7.18
439.017	7
439.222	7.02
439.426	7.05
439.631	6.94
439.836	6.83
440.04	6.76
440.245	6.74
440.45	6.83
440.654	6.86
440.859	6.82
441.063	6.92
441.268	6.88
441.472	6.95
441.677	7.08
441.881	7.22
442.086	7.13
442.29	7.25
442.495	7.44
442.699	7.43
442.904	7.45
443.108	7.4
443.312	7.36
443.517	7.39
443.721	7.36
443.925	7.12
444.13	7.13
444.334	7.13
444.538	7.22
444.743	7
444.947	6.92
445.151	6.85
445.356	7.03
445.56	7.16
445.764	7.24
445.968	7.14
446.173	7.22
446.377	7.18
446.581	7.24
446.785	7.05
446.989	7.03
447.193	7.16
447.398	7.24
447.602	7.23
447.806	7.18
448.01	7.13
448.214	7.23
448.418	7.33
448.622	7.4
448.826	7.32
449.03	7.46
449.234	7.59
449.438	7.44
449.642	7.47
449.846	7.41
450.05	7.33
450.254	7.19
450.458	7.18
450.662	6.88
450.866	6.66
451.069	6.74
451.273	6.64
451.477	6.63
451.681	6.82
451.885	6.77
452.089	6.79
452.292	6.82
452.496	6.98
452.7	6.84
452.904	6.97
453.107	7.11
453.311	7.12
453.515	7.24
453.719	7.25
453.922	7.14
454.126	7.08
454.33	7.12
454.533	7.08
454.737	7.05
454.94	7
455.144	7.01
455.348	6.97
455.551	6.76
455.755	6.84
455.958	6.82
456.162	6.74
456.365	6.62
456.569	6.46
456.772	6.44
456.976	6.5
457.179	6.91
457.383	6.94
457.586	7.04
457.79	7.18
457.993	7.24
458.196	7.2
458.4	7.34
458.603	7.55
458.807	7.51
459.01	7.61
459.213	7.53
459.417	7.22
459.62	7.29
459.823	7.16
460.026	7.22
460.23	7.1
460.433	7.12
460.636	6.95
460.839	6.88
461.042	7
461.246	6.92
461.449	6.99
461.652	7.18
461.855	7.14
462.058	7.11
462.261	7.1
462.464	7.12
462.668	7.1
462.871	7.24
463.074	7.39
463.277	7.25
463.48	7.46
463.683	7.33
463.886	7.19
464.089	7.15
464.292	7.21
464.495	7.19
464.698	7.11
464.901	7.28
465.104	7.16
465.306	7.09
465.509	7.18
465.712	6.97
465.915	7.3
466.118	7.18
466.321	7.09
466.524	7.08
466.726	7.21
466.929	7.44
467.132	7.27
467.335	7.33
467.538	7.2
467.74	7.1
467.943	7.21
468.146	6.92
468.348	7.04
468.551	7.03
468.754	7.27
468.956	7.12
469.159	7.05
469.362	7.18
469.564	7.21
469.767	7.32
469.969	7.36
470.172	7.46
470.375	7.38
470.577	7.37
470.78	7.38
470.982	7.15
471.185	7.15
471.387	7.16
471.59	7.12
471.792	7.16
471.995	6.99
472.197	6.99
472.399	6.98
472.602	7.25
472.804	7.35
473.007	7.34
473.209	7.29
473.411	7.38
473.614	7.32
473.816	7.27
474.018	7.26
474.22	7.11
474.423	7.18
474.625	6.95
474.827	6.68
475.03	6.73
475.232	6.83
475.434	7.02
475.636	6.94
475.838	6.84
476.04	6.65
476.243	6.6
476.445	6.8
476.647	6.82
476.849	6.83
477.051	6.87
477.253	6.84
477.455	6.74
477.657	6.5
477.859	6.47
478.061	6.52
478.263	6.58
478.465	6.61
478.667	6.6
478.869	6.69
479.071	6.63
479.273	6.6
479.475	6.55
479.677	6.56
479.879	6.75
480.081	6.77
480.283	6.75
480.485	6.67
480.686	6.68
480.888	6.65
481.09	6.44
481.292	6.39
481.494	6.38
481.695	6.32
481.897	6.25
482.099	6.16
482.301	6.19
482.502	6.19
482.704	6.21
482.906	6.18
483.107	6.13
483.309	6.05
483.511	6.02
483.712	6.01
483.914	5.96
484.115	5.95
484.317	5.94
484.519	5.89
484.72	5.86
484.922	5.88
485.123	5.91
485.325	5.91
485.526	6.01
485.728	6.07
485.929	6.09
486.131	6.19
486.332	6.2
486.534	6.22
486.735	6.2
486.936	6.23
487.138	6.18
487.339	6.1
487.541	6.17
487.742	6.11
487.943	6.14
488.144	6.08
488.346	6.02
488.547	6.06
488.748	6.1
488.95	6.16
489.151	6.23
489.352	6.28
489.553	6.34
489.755	6.32
489.956	6.35
490.157	6.35
490.358	6.44
490.559	6.48
490.76	6.49
490.961	6.45
491.163	6.41
491.364	6.38
491.565	6.33
491.766	6.34
491.967	6.39
492.168	6.39
492.369	6.38
492.57	6.48
492.771	6.54
492.972	6.58
493.173	6.58
493.374	6.71
493.575	6.76
493.776	6.82
493.976	6.94
494.177	6.97
494.378	6.97
494.579	7.06
494.78	6.96
494.981	6.79
495.182	6.78
495.382	6.74
495.583	6.5
495.784	6.49
495.985	6.55
496.185	6.43
496.386	6.28
496.587	6.37
496.788	6.49
496.988	6.46
497.189	6.51
497.39	6.6
497.59	6.77
497.791	6.92
497.992	6.94
498.192	6.89
498.393	6.83
498.593	6.84
498.794	6.7
498.994	6.63
499.195	6.59
499.395	6.67
499.596	6.68
499.796	6.45
499.997	6.4
500.197	6.38
500.398	6.32
500.598	6.53
500.799	6.74
500.999	6.95
501.199	6.77
501.4	6.87
501.6	6.81
501.801	6.7
502.001	6.88
502.201	7.02
502.402	7.11
502.602	7.12
502.802	7.06
503.002	6.94
503.203	6.94
503.403	7.01
503.603	7.04
503.803	6.97
504.003	6.9
504.204	6.9
504.404	7.02
504.604	6.98
504.804	7.31
505.004	7.3
505.204	7.36
505.404	7.42
505.604	7.46
505.804	7.36
506.005	7.43
506.205	7.42
506.405	7.49
506.605	7.28
506.805	7.3
507.005	7.08
507.204	6.99
507.404	6.86
507.604	6.87
507.804	6.9
508.004	7.06
508.204	7.19
508.404	7.31
508.604	7.12
508.804	7.21
509.003	7.2
509.203	7.22
509.403	7.31
509.603	7.43
509.803	7.35
510.002	7.36
510.202	7.34
510.402	7.33
510.602	7.23
510.801	7.42
511.001	7.29
511.201	7.07
511.4	6.9
511.6	6.73
511.8	6.57
511.999	6.62
512.199	6.64
512.398	6.68
512.598	6.61
512.797	6.72
512.997	6.67
513.197	6.69
513.396	6.91
513.596	7.11
513.795	7.24
513.994	7.42
514.194	7.39
514.393	7.39
514.593	7.28
514.792	7.41
514.992	7.54
515.191	7.76
515.39	7.86
515.59	7.82
515.789	7.84
515.988	7.92
516.188	7.9
516.387	7.84
516.586	7.75
516.786	7.83
516.985	7.72
517.184	7.65
517.383	7.58
517.582	7.51
517.782	7.5
517.981	7.5
518.18	7.49
518.379	7.51
518.578	7.45
518.777	7.45
518.976	7.48
519.176	7.54
519.375	7.45
519.574	7.49
519.773	7.46
519.972	7.5
520.171	7.43
520.37	7.42
520.569	7.38
520.768	7.47
520.967	7.51
521.166	7.46
521.365	7.49
521.564	7.69
521.762	7.59
521.961	7.74
522.16	7.79
522.359	7.97
522.558	7.97
522.757	8.04
522.956	8.18
523.154	8.2
523.353	8.22
523.552	8.2
523.751	8.1
523.949	8.16
524.148	8.19
524.347	8.1
524.546	8
524.744	8.05
524.943	8.01
525.142	8
525.34	8.01
525.539	7.98
525.737	8.04
525.936	8.18
526.135	8.11
526.333	8
526.532	8.05
526.73	8.07
526.929	8.09
527.127	8.11
527.326	8.08
527.524	8.09
527.723	8.14
527.921	8.14
528.12	8.03
528.318	8.07
528.516	8.1
528.715	8.06
528.913	8.06
529.112	8.05
529.31	8.05
529.508	8.08
529.707	8.1
529.905	8.1
530.103	8.04
530.301	8.04
530.5	8.03
530.698	8.07
530.896	8.13
531.094	8.27
531.293	8.26
531.491	8.33
531.689	8.31
531.887	8.41
532.085	8.47
532.283	8.62
532.481	8.68
532.68	8.6
532.878	8.66
533.076	8.72
533.274	8.66
533.472	8.71
533.67	8.62
533.868	8.76
534.066	8.77
534.264	8.76
534.462	8.7
534.66	8.76
534.858	8.88
535.056	8.87
535.253	8.86
535.451	8.92
535.649	8.93
535.847	9.17
536.045	9.15
536.243	9.17
536.441	9.18
536.638	9.33
536.836	9.37
537.034	9.43
537.232	9.45
537.43	9.49
537.627	9.57
537.825	9.71
538.023	9.66
538.22	9.75
538.418	9.84
538.616	9.95
538.813	9.98
539.011	10.05
539.209	10.15
539.406	10.33
539.604	10.49
539.801	10.46
539.999	10.54
540.196	10.5
540.394	10.32
540.591	10.18
540.789	10.2
540.986	10.19
541.184	10.25
541.381	10.25
541.579	10.16
541.776	10.13
541.974	10.11
542.171	10.04
542.368	10.17
542.566	10.24
542.763	10.33
542.96	10.36
543.158	10.37
543.355	10.28
543.552	10.29
543.75	10.42
543.947	10.47
544.144	10.53
544.341	10.66
544.539	10.6
544.736	10.59
544.933	10.58
545.13	10.62
545.327	10.69
545.524	10.81
545.722	10.82
545.919	10.88
546.116	10.91
546.313	10.99
546.51	11.08
546.707	11.3
546.904	11.42
547.101	11.58
547.298	11.65
547.495	11.61
547.692	11.63
547.889	11.77
548.086	11.82
548.283	11.9
548.48	12
548.677	11.91
548.874	11.87
549.07	11.77
549.267	11.94
549.464	12.05
549.661	12.4
549.858	12.55
550.055	12.66
550.251	12.77
550.448	12.98
550.645	13.03
550.842	13.18
551.038	13.3
551.235	13.67
551.432	13.67
551.628	13.69
551.825	13.71
552.022	13.86
552.218	13.91
552.415	13.9
552.612	14.03
552.808	14.16
553.005	14.16
553.201	14.16
553.398	14.16
553.594	14.3
553.791	14.37
553.987	14.21
554.184	14.27
554.38	14.49
554.577	14.68
554.773	14.61
554.97	14.69
555.166	14.86
555.362	14.93
555.559	15.03
555.755	15.14
555.952	15.41
556.148	15.76
556.344	15.91
556.541	15.93
556.737	16.09
556.933	16.36
557.129	16.59
557.326	16.7
557.522	16.82
557.718	16.96
557.914	16.84
558.11	16.76
558.307	16.64
558.503	16.65
558.699	16.7
558.895	16.62
559.091	16.57
559.287	16.47
559.483	16.68
559.679	16.87
559.876	16.93
560.072	17.35
560.268	17.58
560.464	17.83
560.66	17.84
560.856	17.89
561.052	18.05
561.247	18.08
561.443	18.36
561.639	18.27
561.835	18.18
562.031	18.27
562.227	18.01
562.423	17.88
562.619	18.03
562.815	18.24
563.01	18.31
563.206	18.29
563.402	18.33
563.598	18.1
563.793	18.23
563.989	18.25
564.185	18.25
564.381	18.52
564.576	18.62
564.772	18.5
564.968	18.55
565.163	18.63
565.359	18.63
565.555	18.67
565.75	19.12
565.946	19.26
566.141	19.59
566.337	19.73
566.532	19.82
566.728	20.1
566.923	20.35
567.119	20.42
567.314	20.58
567.51	20.77
567.705	20.88
567.901	20.56
568.096	20.49
568.292	20.56
568.487	20.65
568.682	20.62
568.878	20.76
569.073	20.84
569.268	20.92
569.464	20.91
569.659	21.09
569.854	21.34
570.05	21.71
570.245	22.11
570.44	22.12
570.635	22.23
570.831	22.55
571.026	22.41
571.221	22.42
571.416	22.55
571.611	22.59
571.806	22.69
572.002	22.75
572.197	22.72
572.392	22.51
572.587	22.44
572.782	22.55
572.977	22.42
573.172	22.47
573.367	22.73
573.562	22.85
573.757	23.06
573.952	23.04
574.147	23.27
574.342	23.24
574.537	23.43
574.732	23.51
574.927	23.56
575.121	23.71
575.316	23.8
575.511	23.63
575.706	23.65
575.901	23.65
576.096	23.79
576.29	23.75
576.485	23.93
576.68	24.19
576.875	24.46
577.069	24.6
577.264	24.87
577.459	25
577.654	25.06
577.848	25.18
578.043	25.38
578.238	25.37
578.432	25.31
578.627	25.3
578.821	25.2
579.016	25.25
579.21	25.23
579.405	25.01
579.6	25.12
579.794	25.28
579.989	25.4
580.183	25.3
580.378	25.34
580.572	25.47
580.766	25.91
580.961	26.01
581.155	26.11
581.35	26.22
581.544	26.3
581.738	26.39
581.933	26.55
582.127	26.59
582.321	26.72
582.516	26.74
582.71	26.95
582.904	26.57
583.099	26.45
583.293	26.43
583.487	26.53
583.681	26.59
583.875	26.45
584.07	26.52
584.264	26.57
584.458	26.62
584.652	26.89
584.846	26.96
585.04	26.98
585.234	27.21
585.428	27.3
585.623	27.26
585.817	27.37
586.011	27.65
586.205	27.7
586.399	27.77
586.593	27.69
586.787	27.61
586.981	27.38
587.174	27.9
587.368	27.94
587.562	27.86
587.756	28.06
587.95	28.15
588.144	28.09
588.338	28.1
588.532	27.79
588.725	28.01
588.919	28.02
589.113	28.01
589.307	27.78
589.501	27.78
589.694	27.87
589.888	27.64
590.082	27.63
590.275	27.54
590.469	27.6
590.663	27.86
590.856	27.7
591.05	28.1
591.244	28.28
591.437	28.69
591.631	28.66
591.824	28.76
592.018	28.79
592.212	28.87
592.405	28.96
592.599	29
592.792	29.17
592.986	29.43
593.179	29.02
593.372	28.79
593.566	28.69
593.759	28.75
593.953	28.86
594.146	29.12
594.339	29.04
594.533	29.24
594.726	29.15
594.92	29.08
595.113	29.18
595.306	29.48
595.499	29.74
595.693	29.49
595.886	29.46
596.079	29.32
596.272	29.15
596.466	29.3
596.659	29.24
596.852	29.18
597.045	29.32
597.238	29.24
597.431	29.05
597.624	29.25
597.818	29.28
598.011	29.38
598.204	29.5
598.397	29.78
598.59	29.68
598.783	29.6
598.976	29.74
599.169	29.68
599.362	29.69
599.555	30.03
599.748	30.15
599.941	30.21
600.134	30.36
600.326	30.33
600.519	30.18
600.712	30.31
600.905	30.47
601.098	30.87
601.291	30.84
601.483	30.99
601.676	30.94
601.869	30.7
602.062	30.76
602.255	30.75
602.447	30.74
602.64	30.71
602.833	30.59
603.025	30.73
603.218	30.47
603.411	30.45
603.603	30.56
603.796	30.36
603.989	30.32
604.181	30.34
604.374	30.31
604.566	30.31
604.759	30.44
604.951	30.45
605.144	30.44
605.336	30.52
605.529	30.54
605.721	30.53
605.914	30.69
606.106	30.8
606.299	30.9
606.491	30.93
606.683	31.17
606.876	31.35
607.068	31.58
607.26	31.58
607.453	31.53
607.645	31.5
607.837	31.18
608.03	31.04
608.222	30.98
608.414	30.97
608.606	30.98
608.799	30.83
608.991	30.63
609.183	30.51
609.375	30.52
609.567	30.66
609.759	30.86
609.952	30.9
610.144	30.96
610.336	30.99
610.528	30.94
610.72	30.93
610.912	30.97
611.104	31.08
611.296	31.22
611.488	31.34
611.68	31.41
611.872	31.23
612.064	31.56
612.256	31.81
612.448	31.66
612.64	31.87
612.832	32.04
613.023	32.15
613.215	32.06
613.407	32.21
613.599	32.33
613.791	32.41
613.983	32.57
614.174	32.51
614.366	32.48
614.558	32.62
614.75	32.35
614.941	32.3
615.133	32.17
615.325	32.48
615.516	32.09
615.708	31.73
615.9	31.8
616.091	31.84
616.283	31.82
616.475	31.42
616.666	31.34
616.858	31.88
617.049	31.88
617.241	31.84
617.432	31.65
617.624	32.01
617.815	32.27
618.007	32.06
618.198	31.83
618.39	31.69
618.581	31.74
618.773	32.24
618.964	31.99
619.155	32.11
619.347	32.26
619.538	32.53
619.729	32.5
619.921	32.46
620.112	32.2
620.303	32.26
620.494	32.27
620.686	32.63
620.877	32.41
621.068	32.35
621.259	32.19
621.451	32.35
621.642	32.21
621.833	32.04
622.024	31.78
622.215	31.96
622.406	32.35
622.597	32.47
622.788	32.53
622.98	32.38
623.171	32.69
623.362	33.11
623.553	33.2
623.744	33.56
623.935	33.73
624.126	34.06
624.317	33.82
624.508	33.81
624.698	33.56
624.889	33.14
625.08	33.69
625.271	33.34
625.462	32.8
625.653	32.71
625.844	32.23
626.034	32.16
626.225	32.29
626.416	32.25
626.607	31.96
626.798	31.98
626.988	32.29
627.179	31.96
627.37	32.03
627.56	32.43
627.751	32.11
627.942	32.22
628.132	32.21
628.323	32.06
628.514	32.18
628.704	32.43
628.895	32.62
629.085	32.69
629.276	32.65
629.466	32.95
629.657	32.67
629.847	32.91
630.038	32.94
630.228	33.24
630.419	33.64
630.609	33.79
630.8	33.85
630.99	33.62
631.181	33.48
631.371	33.57
631.561	33.28
631.752	33.08
631.942	33.03
632.132	33
632.323	32.95
632.513	32.42
632.703	32.55
632.893	32.66
633.084	32.63
633.274	32.98
633.464	32.95
633.654	33.07
633.844	33.2
634.034	33.22
634.225	33.26
634.415	33.31
634.605	33.41
634.795	33.33
634.985	33.26
635.175	33.74
635.365	33.38
635.555	33.47
635.745	33.34
635.935	33.88
636.125	34.07
636.315	34.08
636.505	34.21
636.695	34.34
636.885	34.32
637.075	34.32
637.265	34.29
637.455	34.65
637.644	34.65
637.834	34.59
638.024	34.38
638.214	34.3
638.404	34.17
638.593	34.02
638.783	33.98
638.973	34.26
639.163	34.07
639.352	34.25
639.542	34.16
639.732	34.4
639.921	34.42
640.111	34.41
640.301	34.64
640.49	34.89
640.68	35.15
640.87	35.02
641.059	34.7
641.249	35.04
641.438	34.85
641.628	34.74
641.817	34.62
642.007	34.83
642.196	34.56
642.386	34.42
642.575	34.78
642.764	34.25
642.954	34.45
643.143	34.78
643.333	34.58
643.522	34.58
643.711	34.25
643.901	33.96
644.09	33.8
644.279	34
644.469	34.15
644.658	34.12
644.847	34.29
645.036	34.58
645.226	34.37
645.415	34.38
645.604	34.43
645.793	34.61
645.982	34.82
646.171	35.1
646.361	35.16
646.55	35.03
646.739	34.77
646.928	34.84
647.117	34.54
647.306	34.84
647.495	34.55
647.684	34.54
647.873	34.81
648.062	34.98
648.251	35.07
648.44	34.6
648.629	34.34
648.818	34.32
649.007	34.38
649.196	34.49
649.384	34.2
649.573	34.36
649.762	34.4
649.951	34.53
650.14	34.58
650.328	34.42
650.517	34.89
650.706	35.59
650.895	35.78
651.083	35.81
651.272	35.69
651.461	36.06
651.65	35.91
651.838	35.97
652.027	35.84
652.216	35.52
652.404	35.4
652.593	35.44
652.781	34.98
652.97	34.6
653.158	34.49
653.347	34.47
653.535	34.2
653.724	34.44
653.912	34.39
654.101	34.63
654.289	34.82
654.478	35.1
654.666	35.13
654.855	34.96
655.043	34.66
655.231	34.6
655.42	34.91
655.608	34.92
655.796	35.11
655.985	34.99
656.173	34.58
656.361	34.99
656.55	34.62
656.738	35.11
656.926	35.36
657.114	35.86
657.302	35.84
657.491	35.73
657.679	35.66
657.867	35.57
658.055	36.07
658.243	36.12
658.431	35.78
658.619	36.2
658.807	35.81
658.996	36.09
659.184	35.93
659.372	35.83
659.56	35.87
659.748	35.89
659.936	35.84
660.124	35.49
660.311	35.24
660.499	34.99
660.687	34.93
660.875	35.04
661.063	34.83
661.251	34.87
661.439	34.99
661.627	35.18
661.814	35.3
662.002	35.31
662.19	35.75
662.378	35.89
662.565	36.54
662.753	36.81
662.941	36.78
663.129	36.54
663.316	36.68
663.504	36.92
663.692	36.82
663.879	36.76
664.067	37.19
664.254	36.56
664.442	37.38
664.63	37.01
664.817	36.57
665.005	36.54
665.192	36.78
665.38	36.48
665.567	36.07
665.755	35.86
665.942	36.06
666.13	35.54
666.317	36.32
666.504	35.45
666.692	35.56
666.879	35.81
667.067	35.94
667.254	35.8
667.441	36.71
667.629	37.19
667.816	37.33
668.003	37.02
668.19	37.33
668.378	36.84
668.565	37.39
668.752	37.22
668.939	37.01
669.127	37.17
669.314	37.12
669.501	36.38
669.688	36.45
669.875	36.3
670.062	36.55
670.249	36.56
670.436	37.11
670.623	37.32
670.81	37.47
670.997	37.56
671.184	37.06
671.371	37.41
671.558	37.74
671.745	37.44
671.932	37.85
672.119	37.9
672.306	37.82
672.493	37.26
672.68	36.79
672.867	37.05
673.054	36.86
673.24	36.97
673.427	37.01
673.614	37.26
673.801	37.35
673.988	36.78
674.174	36.52
674.361	36.76
674.548	37.07
674.734	37.15
674.921	36.81
675.108	36.73
675.294	36.71
675.481	37.14
675.668	36.93
675.854	37.05
676.041	37.17
676.227	37.48
676.414	37.8
676.601	37.4
676.787	37.24
676.974	37.33
677.16	37.93
677.347	38.13
677.533	37.8
677.719	37.75
677.906	37.59
678.092	37.77
678.279	37.79
678.465	37.21
678.651	37.4
678.838	37.63
679.024	37.66
679.21	36.97
679.397	36.87
679.583	36.45
679.769	36.24
679.955	36.11
680.142	36.15
680.328	36.2
680.514	36.17
680.7	36.24
680.886	36.14
681.073	36.43
681.259	36.65
681.445	36.97
681.631	36.94
681.817	36.96
682.003	37
682.189	36.8
682.375	36.94
682.561	37.18
682.747	37.1
682.933	37.38
683.119	37.17
683.305	37.37
683.491	37.25
683.677	37.68
683.863	37.71
684.049	38.47
684.235	38.53
684.42	38.06
684.606	37.72
684.792	37.77
684.978	37.7
685.164	37.73
685.349	37.74
685.535	37.74
685.721	37.03
685.907	37.39
686.092	36.64
686.278	36.76
686.464	37.51
686.649	37.75
686.835	37.28
687.021	37.54
687.206	37.61
687.392	37.58
687.577	37.72
687.763	38.44
687.948	38.18
688.134	37.99
688.319	38.08
688.505	37.48
688.69	37.35
688.876	37.74
689.061	37.25
689.247	37.26
689.432	37.56
689.618	37.25
689.803	37.07
689.988	37.74
690.174	38.03
690.359	37.94
690.544	38.07
690.73	38.36
690.915	38.39
691.1	38.57
691.285	39.04
691.471	38.83
691.656	38.83
691.841	38.71
692.026	38.22
692.211	38.33
692.396	38.1
692.582	38.62
692.767	38.98
692.952	38.76
693.137	38.91
693.322	38.23
693.507	37.91
693.692	37.65
693.877	38.14
694.062	38.05
694.247	38.2
694.432	38.98
694.617	38.61
694.802	38.17
694.987	38.16
695.172	37.84
695.357	38.1
695.541	38.77
695.726	39.22
695.911	39.8
696.096	39.82
696.281	40.2
696.466	39.58
696.65	39.07
696.835	39.07
697.02	39.38
697.204	39.42
697.389	39.25
697.574	39.26
697.759	39.25
697.943	38.36
698.128	38.32
698.312	37.97
698.497	37.46
698.682	37.7
698.866	37.49
699.051	37.34
699.235	37.66
699.42	37.84
699.604	37.39
699.789	36.89
699.973	36.99
700.158	36.9
700.342	37
700.527	37.69
700.711	37.73
700.895	37.95
701.08	38.22
701.264	37.74
701.448	37.4
701.633	37.49
701.817	38.3
702.001	38.74
702.186	39.26
702.37	38.89
702.554	38.77
702.738	39.03
702.923	39.14
703.107	39.11
703.291	39.21
703.475	39.08
703.659	39.43
703.843	39.08
704.027	38.99
704.212	38.63
704.396	39.68
704.58	39.99
704.764	39.9
704.948	39.75
705.132	39.67
705.316	40.07
705.5	40.33
705.684	40.79
705.868	40.52
706.052	40.75
706.235	40.73
706.419	40.25
706.603	40.36
706.787	40.76
706.971	40.89
707.155	40.44
707.339	40.43
707.522	40.42
707.706	40.3
707.89	40.51
708.074	40.47
708.257	40.56
708.441	40.64
708.625	41.05
708.808	40.68
708.992	40.94
709.176	41.32
709.359	40.44
709.543	40.51
709.727	39.6
709.91	39.72
710.094	38.82
710.277	39.15
710.461	38.44
710.644	38.21
710.828	37.94
711.011	38.31
711.195	38.71
711.378	39.43
711.562	40.18
711.745	40.19
711.928	40.37
712.112	40.82
712.295	40.25
712.478	40.65
712.662	40.55
712.845	40.51
713.028	39.84
713.212	39.81
713.395	39.77
713.578	39.21
713.761	39.53
713.945	39.71
714.128	40.03
714.311	40.63
714.494	40.42
714.677	40.18
714.86	40.79
715.043	40.65
715.227	40.05
715.41	40.13
715.593	40.48
715.776	40.21
715.959	39.43
716.142	39.52
716.325	38.91
716.508	38.52
716.691	38.09
716.874	37.89
717.057	37.78
717.239	38.3
717.422	38.45
717.605	37.53
717.788	37.23
717.971	38.18
718.154	37.75
718.337	38.08
718.519	38.79
718.702	39.16
718.885	39.18
719.068	39.6
719.25	39.91
719.433	39.2
719.616	39.55
719.798	40.06
719.981	39.94
720.164	39.8
720.346	39.18
720.529	39.14
720.712	39.35
720.894	39.44
721.077	39.02
721.259	38.22
721.442	39
721.624	38.92
721.807	39.16
721.989	38.86
722.172	39.41
722.354	40.8
722.537	40.93
722.719	40.67
722.901	40.75
723.084	41.13
723.266	41.21
723.448	41.97
723.631	42.12
723.813	42.74
723.995	42.78
724.178	42.7
724.36	42.08
724.542	42.28
724.724	42.64
724.907	41.82
725.089	42.28
725.271	43
725.453	41.38
725.635	41.92
725.817	41.96
725.999	42.97
726.181	42.91
726.364	42.65
726.546	42.4
726.728	42.59
726.91	43.27
727.092	43.38
727.274	42.14
727.456	42.61
727.638	41.97
727.819	40.97
728.001	39.62
728.183	39.55
728.365	39.5
728.547	39.65
728.729	39.84
728.911	40.05
729.093	39.5
729.274	40.41
729.456	40.65
729.638	40.94
729.82	41.95
730.001	42.5
730.183	41.64
730.365	41.35
730.546	41.04
730.728	41.3
730.91	41.78
731.091	41.57
731.273	41.38
731.455	42.08
731.636	42.05
731.818	42.14
731.999	41.54
732.181	43.24
732.362	43.94
732.544	44.12
732.725	43.21
732.907	43.12
733.088	43.73
733.27	44.01
733.451	43.28
733.633	43.91
733.814	43.64
733.995	44.26
734.177	42.95
734.358	42.45
734.539	42.06
734.721	42.71
734.902	41.81
735.083	41.11
735.264	41.13
735.446	41.2
735.627	40.45
735.808	39.5
735.989	40.1
736.17	40.57
736.351	41.2
736.533	41.19
736.714	41.05
736.895	41.5
737.076	42.51
737.257	41.74
737.438	41.54
737.619	41.79
737.8	41.92
737.981	40.71
738.162	40.59
738.343	40.45
738.524	41.34
738.705	41.22
738.886	41
739.067	39.92
739.247	40.54
739.428	40.89
739.609	40.65
739.79	40.92
739.971	41.2
740.151	41.45
740.332	41.24
740.513	40.9
740.694	40.42
740.874	40.3
741.055	40.76
741.236	40.94
741.417	40.83
741.597	40.91
741.778	42.06
741.958	41.83
742.139	41.16
742.32	41.67
742.5	41.73
742.681	42.68
742.861	42.65
743.042	42.75
743.222	42.13
743.403	41.89
743.583	42.39
743.764	41.85
743.944	42.69
744.124	43.91
744.305	44.29
744.485	44.36
744.666	43.52
744.846	44.5
745.026	45.06
745.207	45.23
745.387	46.09
745.567	45.97
745.747	46.19
745.928	46.3
746.108	46.62
746.288	45.48
746.468	45.65
746.648	46.68
746.829	46.18
747.009	46.28
747.189	45.47
747.369	44.64
747.549	44.7
747.729	45.07
747.909	44.31
748.089	43.06
748.269	43.48
748.449	43.68
748.629	43.67
748.809	43.09
748.989	42.77
749.169	43.64
749.349	44.38
749.529	44.18
749.709	43.53
749.889	43.66
750.068	45.77
750.248	45.64
750.428	45.21
750.608	44.57
750.788	45.11
750.967	43.98
751.147	44.29
751.327	43.85
751.507	43.55
751.686	43.49
751.866	43.55
752.046	43.12
752.225	43.44
752.405	43.9
752.585	44.69
752.764	44.65
752.944	44.63
753.123	45.56
753.303	45.99
753.482	47.11
753.662	45.89
753.841	46.25
754.021	45.04
754.2	45.04
754.38	44.24
754.559	44.58
754.739	44.49
754.918	46.22
755.097	43.75
755.277	43.22
755.456	42.19
755.635	43.97
755.815	44.52
755.994	44.9
756.173	44.26
756.352	45.01
756.532	44.36
756.711	44.32
756.89	43.45
757.069	44.08
757.248	43.35
757.427	43.72
757.607	44.13
757.786	44.49
757.965	44
758.144	44.58
758.323	44.6
758.502	44
758.681	42.98
758.86	42.74
759.039	43.93
759.218	44.24
759.397	43.32
759.576	42.03
759.755	41.43
759.934	42.18
760.113	43.1
760.291	42.63
760.47	43.02
760.649	43.72
760.828	43.77
761.007	43.78
761.186	44.54
761.364	45.11
761.543	45.98
761.722	45.21
761.901	44.09
762.079	43.27
762.258	42.78
762.437	42.15
762.615	42.23
762.794	42.28
762.972	41.46
763.151	41.61
763.33	41.35
763.508	41
763.687	40.84
763.865	41.11
764.044	40.56
764.222	40.32
764.401	40.57
764.579	41
764.758	40.66
764.936	41.19
765.114	41.02
765.293	41.16
765.471	40.96
765.65	41.67
765.828	42.4
766.006	43.27
766.184	44.8
766.363	45.38
766.541	45.64
766.719	46.87
766.898	47.26
767.076	46.7
767.254	47.93
767.432	48.35
767.61	48.45
767.788	48.31
767.967	47.88
768.145	47.12
768.323	46.93
768.501	46.39
768.679	45.3
768.857	44.87
769.035	46.92
769.213	44.77
769.391	44.63
769.569	44.1
769.747	45.21
769.925	45.55
770.103	47.07
770.281	47.16
770.459	47.74
770.636	49.15
770.814	49.19
770.992	49.11
771.17	50.15
771.348	51.34
771.525	52.41
771.703	50.94
771.881	51.34
772.059	50.01
772.236	49.9
772.414	51.41
772.592	51.3
772.769	51.25
772.947	50.97
773.125	52.11
773.302	51.06
773.48	50.83
773.657	51.34
773.835	50.26
774.013	51.59
774.19	52.21
774.368	50.43
774.545	50.39
774.723	50.88
774.9	51.01
775.077	49.84
775.255	49.54
775.432	49.7
775.61	49.9
775.787	52.49
775.964	50.76
776.142	51.25
776.319	51.26
776.496	50.85
776.674	50.29
776.851	48.94
777.028	50.51
777.205	50.54
777.382	50.7
777.56	50.71
777.737	50.78
777.914	51.46
778.091	51.03
778.268	50.18
778.445	49.7
778.622	49.25
778.8	50.58
778.977	49.58
779.154	58.08
779.331	55.89
779.508	54.61
779.685	54.46
779.862	56.45
780.038	55.36
780.215	56.93
780.392	58.35
780.569	60.22
780.746	57.88
780.923	58.37
781.1	52.02
781.277	54.13
781.453	53.55
781.63	52.39
781.807	51.48
781.984	52.41
782.16	50.54
782.337	48.87
782.514	48.21
782.691	51.17
782.867	50.86
783.044	49.19
783.221	48.13
783.397	49.52
783.574	49.34
783.75	47.4
783.927	48.52
784.103	50.83
784.28	51.59
784.456	50.95
784.633	49.67
784.809	50.87
784.986	51.15
785.162	50.54
785.339	50.43
785.515	49.98
785.692	48.69
785.868	47.89
786.044	48.95
786.221	48.64
786.397	47.37
786.573	47.52
786.749	46.18
786.926	46.86
787.102	49.47
787.278	49.49
787.454	49.76
787.631	51.91
787.807	51.34
787.983	49.84
788.159	50.83
788.335	52.44
788.511	51.19
788.687	50.09
788.863	50.19
789.039	48.82
789.216	49.32
789.392	50.59
789.568	51.27
789.744	53.1
789.919	51.76
790.095	50.8
790.271	51.86
790.447	53.35
790.623	54.66
790.799	53.69
790.975	55.75
791.151	56.03
791.327	54.85
791.502	52.97
791.678	52.03
791.854	53.74
792.03	52.57
792.205	53.08
792.381	53.55
792.557	54.26
792.733	55.6
792.908	54.52
793.084	54.09
793.259	54.92
793.435	55.47
793.611	54.19
793.786	53.58
793.962	54.49
794.137	53.94
794.313	54
794.488	55.41
794.664	55.62
794.839	54.82
795.015	54.88
795.19	51.78
795.366	51.52
795.541	51.34
795.716	51.42
795.892	52.95
796.067	52.26
796.242	51.86
796.418	49.37
796.593	48.46
796.768	47.4
796.944	47.93
797.119	50.54
797.294	51.81
797.469	52.6
797.644	51.93
797.82	51.14
797.995	51.68
798.17	52.19
798.345	52.44
798.52	51.91
798.695	52.77
798.87	52.19
799.045	53.3
799.22	53.12
799.395	53.13
799.57	54.85
799.745	53.79
799.92	50.83
800.095	53.23
800.27	53.06
800.445	53.35
800.62	52.7
800.795	52.84
800.97	53.73
801.145	52.55
801.319	51.98
801.494	49.9
801.669	53.26
801.844	57.61
802.018	53.04
802.193	54.85
802.368	54.44
802.543	55.96
802.717	58.53
802.892	59.1
803.067	59.51
803.241	60.99
803.416	60.02
803.59	59.21
803.765	57.45
803.94	60.64
804.114	59.33
804.289	60.65
804.463	57.44
804.638	54.37
804.812	51.3
804.986	51.73
805.161	52.52
805.335	52.47
805.51	50.53
805.684	50.04
805.858	48.08
806.033	47.01
806.207	46.66
806.381	48.49
806.556	48.9
806.73	48.46
806.904	48.17
807.078	45.71
807.253	48.06
807.427	49.32
807.601	49.36
807.775	51.17
807.949	51.4
808.123	49.75
808.298	50.56
808.472	52.95
808.646	54.27
808.82	54.64
808.994	53.22
809.168	54.3
809.342	55.73
809.516	58.56
809.69	57.26
809.864	61.99
810.038	65.55
810.212	65.46
810.385	63.78
810.559	66.91
810.733	67.56
810.907	69.93
811.081	68.46
811.255	68.91
811.428	66.79
811.602	66.14
811.776	63.08
811.95	61.38
812.123	60.66
812.297	62.04
812.471	60.07
812.644	61
812.818	61.34
812.992	61.37
813.165	60.6
813.339	64.06
813.512	63.49
813.686	62.86
813.86	61.1
814.033	60.29
814.207	59.24
814.38	59.25
814.554	57.51
814.727	59.96
814.9	59.38
815.074	58.22
815.247	57.46
815.421	57.49
815.594	58.84
815.767	58.33
815.941	60.94
816.114	61.53
816.287	59.1
816.46	58.25
816.634	53.98
816.807	54.72
816.98	55.09
817.153	53.62
817.327	52.13
817.5	53.62
817.673	57.05
817.846	56.81
818.019	55.35
818.192	60.64
818.365	63.36
818.538	66.62
818.711	63.97
818.884	64.03
819.057	66.19
819.23	69.64
819.403	66.96
819.576	64.7
819.749	62.76
819.922	61.1
820.095	56.74
820.268	56.55
820.441	53.27
820.614	54.93
820.786	52.89
820.959	50.42
821.132	47.81
821.305	46.05
821.477	44.18
821.65	44
821.823	44.17
821.996	43.76
822.168	42.5
822.341	42.56
822.514	41.07
822.686	41.4
822.859	40.47
823.031	40.45
823.204	40.27
823.376	40.34
823.549	40.09
823.722	39.9
823.894	40.44
824.067	40.94
824.239	41.14
824.411	42.11
824.584	41.64
824.756	42.15
824.929	41.68
825.101	41.98
825.273	42.08
825.446	41.63
825.618	40.77
825.79	39.8
825.963	39.6
826.135	39.65
826.307	38.96
826.479	38.91
826.652	38.92
826.824	39.6
826.996	39.99
827.168	40.41
827.34	41.73
827.512	41.38
827.684	41.9
827.856	42.2
828.029	41.98
828.201	41.39
828.373	40.86
828.545	41.75
828.717	43.65
828.889	43.57
829.061	43.4
829.232	43.28
829.404	45.05
829.576	46.49
829.748	46.41
829.92	47.96
830.092	51
830.264	53.58
830.436	53.87
830.607	52.72
830.779	51.97
830.951	54.08
831.123	53.63
831.294	56.17
831.466	55.35
831.638	55.86
831.809	55.44
831.981	53.55
832.153	53.91
832.324	53.96
832.496	52.52
832.667	55.66
832.839	57.65
833.011	59.56
833.182	58.67
833.354	58.3
833.525	58.88
833.697	56.56
833.868	55.97
834.039	56.7
834.211	56.23
834.382	56.76
834.554	56.64
834.725	54.94
834.896	54.03
835.068	51.98
835.239	52.55
835.41	53.08
835.581	54.42
835.753	53.85
835.924	50.89
836.095	48.9
836.266	48.57
836.438	48.04
836.609	47.49
836.78	47.74
836.951	50.57
837.122	49.56
837.293	49.11
837.464	49.47
837.635	51.56
837.806	55.38
837.977	57.65
838.148	60.89
838.319	61.09
838.49	64.77
838.661	64.17
838.832	62.55
839.003	63.6
839.174	64.68
839.345	64.32
839.516	65.65
839.687	68.35
839.857	73.11
840.028	68.48
840.199	70.33
840.37	67.85
840.54	71.2
840.711	71.42
840.882	72.06
841.053	68.47
841.223	65.91
841.394	66.17
841.564	64.4
841.735	63.89
841.906	68.3
842.076	68.3
842.247	70.81
842.417	72.52
842.588	72.99
842.758	74.41
842.929	78.56
843.099	84.37
843.27	84.63
843.44	85.01
843.611	78.52
843.781	72.12
843.951	68.88
844.122	65.55
844.292	63.61
844.462	63.95
844.633	60.58
844.803	61.31
844.973	61.17
845.144	57.8
845.314	55.75
845.484	61.73
845.654	70.68
845.824	76.45
845.995	81.67
846.165	88.02
846.335	96.71
846.505	116.48
846.675	119.55
846.845	111.2
847.015	116.96
847.185	118.86
847.355	125.63
847.525	130.1
847.695	132.71
847.865	132.74
848.035	116.1
848.205	105.29
848.375	92.41
848.545	87.38
848.715	97.78
848.884	97.41
849.054	95.25
849.224	89.26
849.394	83.05
849.564	82.1
849.733	76.58
849.903	77.97
850.073	72.8
850.243	70.29
850.412	75.68
850.582	66.15
850.752	72.64
850.921	75.58
851.091	77.63
851.26	79.74
851.43	81.57
851.599	80.54
851.769	82.34
851.939	95.3
852.108	96.18
852.278	94.75
852.447	98.78
852.616	95.28
852.786	92.24
852.955	87.24
853.125	89.55
853.294	82.3
853.463	82.57
853.633	81.33
853.802	74.39
853.971	79.13
854.141	77.68
854.31	80.04
854.479	82.38
854.648	82.89
854.818	85.99
854.987	84.3
855.156	95.16
855.325	108.33
855.494	112.81
855.663	113.97
855.832	115.72
856.001	125.77
856.171	124.22
856.34	120.32
856.509	128.24
856.678	125.38
856.847	125.33
857.016	107.79
857.185	97.59
857.353	103.96
857.522	114.02
857.691	104.11
857.86	103.89
858.029	113.23
858.198	128.4
858.367	120.87
858.535	135.42
858.704	137.06
858.873	158.8
859.042	148.68
859.21	149.49
859.379	136.4
859.548	150.71
859.717	152.39
859.885	148.33
860.054	131
860.222	125.69
860.391	114.96
860.56	109.37
860.728	107.85
860.897	111.15
861.065	101.98
861.234	105.36
861.402	103.88
861.571	104.17
861.739	103.38
861.908	109.81
862.076	115.66
862.244	123.41
862.413	137.41
862.581	134.25
862.749	143.87
862.918	151.81
863.086	136.46
863.254	127.02
863.423	124.13
863.591	117
863.759	110.49
863.927	112.57
864.096	113.62
864.264	110.04
864.432	104.92
864.6	100.89
864.768	105.39
864.936	110.97
865.104	115.49
865.272	112.94
865.44	125.04
865.608	118.44
865.776	119.03
865.944	113.15
866.112	119.27
866.28	125.74
866.448	123.76
866.616	116.21
866.784	119.84
866.952	112.88
867.12	116.95
867.288	106.93
867.455	112.97
867.623	113.53
867.791	118.22
867.959	112.1
868.127	116.1
868.294	133.19
868.462	116.62
868.63	97.84
868.797	106.4
868.965	98.12
869.133	104.09
869.3	113.05
869.468	102.76
869.636	111.86
869.803	108.99
869.971	108.63
870.138	101.35
870.306	101.87
870.473	106.55
870.641	104.98
870.808	111.93
870.975	102.51
871.143	98.2
871.31	105.66
871.478	96.37
871.645	97.29
871.812	96.44
871.98	106.09
872.147	110.08
872.314	107.48
872.482	99.7
872.649	93.44
872.816	99.4
872.983	103.7
873.15	100.13
873.318	106.18
873.485	111.74
873.652	115.52
873.819	120.83
873.986	112.55
874.153	120.3
874.32	121.01
874.487	123.88
874.654	119.19
874.821	117.4
874.988	118.69
875.155	118.28
875.322	115.98
875.489	112.17
875.656	106.07
875.823	111.87
875.99	108.74
876.157	116.4
876.324	114.45
876.49	112.67
876.657	104.21
876.824	99.25
876.991	90.11
877.157	94.81
877.324	101.08
877.491	98.84
877.658	103.03
877.824	95.96
877.991	95.83
878.157	98.45
878.324	109.78
878.491	118.44
878.657	120.86
878.824	111.95
878.99	99.41
879.157	97.97
879.323	95.19
879.49	86.41
879.656	97.16
879.823	96.47
879.989	95.94
880.156	90.02
880.322	82.66
880.488	80.23
880.655	87.07
880.821	98.16
880.987	90.98
881.154	89.58
881.32	99.48
881.486	89.09
881.652	82.5
881.819	83.96
881.985	78.93
882.151	77.08
882.317	72.09
882.483	68.28
882.649	62.79
882.816	61.67
882.982	58.74
883.148	54.43
883.314	53.2
883.48	54.23
883.646	50.51
883.812	50.03
883.978	49.86
884.144	50.34
884.31	48.58
884.476	48.58
884.642	47.2
884.807	49.7
884.973	50.29
885.139	50.12
885.305	49.92
885.471	52.36
885.637	52.8
885.802	52.64
885.968	54.49
886.134	57.1
886.3	59.54
886.465	62.18
886.631	61.42
886.797	64.17
886.962	68
887.128	73.37
887.293	75.39
887.459	78.09
887.625	79.28
887.79	77.88
887.956	82.56
888.121	81.42
888.287	83.92
888.452	82.71
888.618	83.96
888.783	79.69
