Data from LC_155_Reflection_3.txt Node
Date: Mon Nov 16 22:18:30 EST 2015
User: robert
Spectrometer: USB4E03001
Autoset integration time: false
Trigger mode: 4
Integration Time (sec): 1.000000E-1
Scans to average: 15
Electric dark correction enabled: true
Nonlinearity correction enabled: false
Boxcar width: 5
Stray light correction enabled: false
XAxis mode: Wavelengths
Stop averaging: false
Number of Pixels in Spectrum: 3648
>>>>>Begin Spectral Data<<<<<
177.566	2128.92
177.785	281.61
178.005	-2362.18
178.225	130.16
178.445	262.02
178.665	410.96
178.885	41.18
179.105	694.39
179.324	-95.33
179.544	4.28
179.764	-6.3
179.984	124.19
180.204	36.89
180.423	74.09
180.643	126.04
180.863	58.28
181.083	103.05
181.302	17.18
181.522	10.67
181.742	-46.58
181.961	-104.09
182.181	-132.73
182.401	-150.21
182.621	-1022.26
182.84	-563.02
183.06	-365.19
183.279	-222.99
183.499	-142.19
183.719	-111.27
183.938	-85.07
184.158	-120.2
184.377	-90.72
184.597	-160.42
184.816	-108.03
185.036	-47.36
185.256	-23.8
185.475	-47.31
185.695	-86.75
185.914	-131.48
186.134	-271.86
186.353	-349.96
186.572	-378.75
186.792	-757.91
187.011	-287.67
187.231	-309.13
187.45	-184.72
187.67	-619.85
187.889	-1571.88
188.108	2609.07
188.328	-733.86
188.547	-250.92
188.766	-499.79
188.986	-805.36
189.205	-431.81
189.424	-249.22
189.644	-545.99
189.863	-647.18
190.082	-207.18
190.302	-570.39
190.521	-267.6
190.74	395.85
190.959	149.12
191.178	198.02
191.398	152.95
191.617	113.96
191.836	123.09
192.055	101.87
192.274	48.08
192.494	101.61
192.713	109.17
192.932	89.58
193.151	31.68
193.37	-8.17
193.589	-81.12
193.808	82.14
194.027	-4.04
194.246	-596.65
194.465	223.1
194.685	808.45
194.904	508.88
195.123	-578.55
195.342	-382.05
195.561	-127.66
195.78	-231.25
195.999	9069.01
196.218	425.06
196.436	365.54
196.655	-602.42
196.874	-266.55
197.093	-286.3
197.312	176.07
197.531	-159.89
197.75	47.97
197.969	-289.83
198.188	-118.52
198.407	2.27
198.625	-28.8
198.844	24.45
199.063	-27.02
199.282	-82.61
199.501	-60.83
199.719	-77.25
199.938	-43.46
200.157	-45.52
200.376	-12.65
200.594	-4.92
200.813	-68.23
201.032	-32.94
201.251	-41.39
201.469	-58.47
201.688	-8.62
201.907	-46.35
202.125	-81
202.344	5019.05
202.563	933.33
202.781	287.4
203	804.23
203.218	752.1
203.437	577.94
203.656	317.53
203.874	167.53
204.093	184.23
204.311	238.94
204.53	257.17
204.748	374.67
204.967	235.06
205.185	192.72
205.404	242.21
205.622	136.2
205.841	133.29
206.059	134.11
206.278	151.66
206.496	319.88
206.715	158.09
206.933	32.74
207.151	24.92
207.37	49.31
207.588	76.58
207.806	59.03
208.025	94.25
208.243	42.16
208.461	45.29
208.68	-1320
208.898	225.15
209.116	315.96
209.335	497.29
209.553	519.83
209.771	3901.67
209.989	864.48
210.208	1562.74
210.426	-2778.84
210.644	1208.11
210.862	-1049.29
211.081	435.3
211.299	42.96
211.517	-223.01
211.735	172.98
211.953	46928.57
212.171	911.14
212.39	1999.1
212.608	5191.3
212.826	-48.07
213.044	41.88
213.262	86.45
213.48	453.38
213.698	175.47
213.916	296.9
214.134	189.41
214.352	403.08
214.57	259.78
214.788	263.15
215.006	301.31
215.224	256.64
215.442	174.45
215.66	125.05
215.878	116.3
216.096	97.87
216.314	33.51
216.532	80.05
216.75	82.35
216.968	108.46
217.185	379.97
217.403	591.66
217.621	-1276.36
217.839	-450.83
218.057	-648.15
218.275	1296.65
218.492	404.8
218.71	909.54
218.928	267.89
219.146	283.53
219.363	233.12
219.581	162.95
219.799	148.59
220.017	158.38
220.234	140.71
220.452	167.56
220.67	189.31
220.887	190.48
221.105	169.16
221.323	143.38
221.54	130.05
221.758	127.19
221.976	164.74
222.193	140.1
222.411	82.54
222.629	112.7
222.846	94.94
223.064	103.63
223.281	95.4
223.499	87.58
223.716	93.41
223.934	64.88
224.151	65.41
224.369	52.9
224.586	53.2
224.804	57.85
225.021	52.88
225.239	55.54
225.456	55.7
225.674	60.89
225.891	49.7
226.108	66.43
226.326	66.07
226.543	68.51
226.76	54.29
226.978	48.78
227.195	50.45
227.413	37.62
227.63	28.01
227.847	23.88
228.064	20.82
228.282	16.4
228.499	12.34
228.716	13.24
228.934	10.12
229.151	13.68
229.368	11.67
229.585	12.1
229.802	12.97
230.02	15.13
230.237	15.81
230.454	15.97
230.671	17.56
230.888	17.33
231.105	16.2
231.323	20.23
231.54	19.57
231.757	21.83
231.974	20.11
232.191	22.59
232.408	22.86
232.625	19.54
232.842	15.27
233.059	22.46
233.276	22.53
233.493	26.02
233.71	22.42
233.927	23.8
234.144	26.39
234.361	22.87
234.578	23.76
234.795	21.39
235.012	22.57
235.229	25.34
235.446	23.82
235.663	23.09
235.879	26.36
236.096	24.93
236.313	22.69
236.53	18.76
236.747	27.07
236.964	24.47
237.181	27.82
237.397	28.56
237.614	31.7
237.831	27.27
238.048	30.56
238.264	25.85
238.481	25.28
238.698	28.74
238.915	26.64
239.131	23.07
239.348	22.45
239.565	22.16
239.781	20.77
239.998	20.82
240.215	21.21
240.431	19.16
240.648	15.89
240.865	17.9
241.081	16.04
241.298	17.67
241.514	16.77
241.731	16.12
241.947	16.89
242.164	15.86
242.38	12.61
242.597	13
242.814	13.1
243.03	13.64
243.246	12.73
243.463	12.97
243.679	12.52
243.896	11.65
244.112	12.87
244.329	10.48
244.545	10.9
244.762	12.59
244.978	13.54
245.194	12.93
245.411	14
245.627	13.25
245.843	12.72
246.06	12.34
246.276	13.17
246.492	12.54
246.709	12.91
246.925	12.53
247.141	12.71
247.357	12.46
247.574	12.6
247.79	11.87
248.006	11.66
248.222	11.35
248.439	11.48
248.655	11.26
248.871	11.03
249.087	11.1
249.303	10.69
249.519	10.49
249.736	11.08
249.952	9.71
250.168	11.02
250.384	12.65
250.6	12.66
250.816	11.19
251.032	10.13
251.248	9.04
251.464	8.98
251.68	8.92
251.896	8.98
252.112	6.94
252.328	9.19
252.544	9.66
252.76	8.36
252.976	8.24
253.192	9.37
253.408	9.14
253.624	12.94
253.84	11.96
254.056	14.27
254.272	14.48
254.487	15.13
254.703	12.7
254.919	12.27
255.135	12.99
255.351	12.92
255.567	14.94
255.782	17.26
255.998	11.52
256.214	12.75
256.43	9.6
256.646	10.87
256.861	13.8
257.077	12.77
257.293	10.76
257.508	10.99
257.724	12.99
257.94	11.3
258.155	9.13
258.371	8.89
258.587	8.03
258.802	8.86
259.018	9.63
259.234	7.51
259.449	9.32
259.665	8.99
259.88	9.56
260.096	9.09
260.312	8.42
260.527	9.16
260.743	10.03
260.958	9.9
261.174	9.85
261.389	9.55
261.605	9.85
261.82	9.52
262.036	9.9
262.251	9.68
262.466	9.39
262.682	11.03
262.897	10.3
263.113	9.47
263.328	10.39
263.543	10.55
263.759	10.03
263.974	11.57
264.189	10.95
264.405	13.25
264.62	10.72
264.835	11.9
265.051	11.8
265.266	13.05
265.481	13.38
265.696	14.33
265.912	12.87
266.127	11.88
266.342	10.67
266.557	11.39
266.773	10.48
266.988	11.29
267.203	11.07
267.418	10.09
267.633	9.47
267.848	9.68
268.064	8.61
268.279	9.3
268.494	8.7
268.709	9.29
268.924	8.69
269.139	9.67
269.354	8.88
269.569	7.83
269.784	9.45
269.999	9.82
270.214	9.65
270.429	10.26
270.644	9.78
270.859	9.29
271.074	9.09
271.289	9.13
271.504	8.06
271.719	8.22
271.934	8.49
272.149	7.69
272.363	7.1
272.578	5.4
272.793	5.13
273.008	5.37
273.223	5.69
273.438	4.86
273.653	5.09
273.867	4.35
274.082	4.18
274.297	4.13
274.512	4.29
274.726	4.08
274.941	6.05
275.156	7.27
275.371	7.81
275.585	9.18
275.8	10.84
276.015	10.36
276.229	11.97
276.444	13.17
276.659	12.56
276.873	12.42
277.088	12.43
277.302	13.08
277.517	12.54
277.732	14.16
277.946	13.74
278.161	14.45
278.375	14.21
278.59	13.61
278.804	13.04
279.019	14
279.233	13.09
279.448	13.36
279.662	12.36
279.877	12.91
280.091	11.29
280.306	10.6
280.52	9.97
280.735	9.02
280.949	9.71
281.163	10.31
281.378	9.53
281.592	9.25
281.806	9.53
282.021	8.95
282.235	8.38
282.449	9.37
282.664	9.7
282.878	8.5
283.092	10.03
283.307	9.45
283.521	9.5
283.735	10.25
283.949	10.86
284.164	10.23
284.378	10.77
284.592	9.63
284.806	9.67
285.02	9.72
285.234	10.08
285.449	8.64
285.663	8.17
285.877	7.59
286.091	7.16
286.305	6.93
286.519	7.1
286.733	6.32
286.947	6.81
287.161	5.82
287.375	6.17
287.589	6.23
287.803	6.7
288.017	7
288.231	5.8
288.445	5.86
288.659	6.42
288.873	6.96
289.087	7.52
289.301	7.64
289.515	6.99
289.729	5.59
289.943	5.7
290.157	6.63
290.371	7.79
290.584	8.58
290.798	8.93
291.012	9.1
291.226	7.77
291.44	8.74
291.654	9.19
291.867	10
292.081	10.15
292.295	11.13
292.509	10.04
292.722	9.92
292.936	11.04
293.15	11.96
293.364	11.12
293.577	12.79
293.791	11.32
294.005	12.56
294.218	11.7
294.432	12.99
294.645	12.07
294.859	12.01
295.073	11.37
295.286	10.71
295.5	9.43
295.713	9.52
295.927	9.07
296.14	9.95
296.354	8.5
296.568	9.02
296.781	8.54
296.994	8.08
297.208	8.26
297.421	8.43
297.635	8.16
297.848	8.2
298.062	7.54
298.275	7.53
298.489	6.93
298.702	7.39
298.915	7.16
299.129	7.43
299.342	7.84
299.555	7.96
299.769	7.64
299.982	8.28
300.195	8.51
300.409	10.33
300.622	10.83
300.835	12.13
301.048	11.82
301.262	11.38
301.475	11.36
301.688	11.2
301.901	11.25
302.115	11.46
302.328	11.87
302.541	11.98
302.754	11.85
302.967	11.6
303.18	11.18
303.393	11.63
303.607	11.86
303.82	12.51
304.033	12.57
304.246	13.12
304.459	12.87
304.672	12.04
304.885	12.97
305.098	11.79
305.311	11.7
305.524	11.41
305.737	11.39
305.95	12.74
306.163	11.17
306.376	10.73
306.589	10.24
306.802	9.98
307.015	10.97
307.228	10.75
307.44	10.99
307.653	10.58
307.866	9.58
308.079	10.93
308.292	11.12
308.505	12.25
308.718	12.84
308.93	12.55
309.143	12.39
309.356	10.98
309.569	9.78
309.781	10.42
309.994	11.56
310.207	12.83
310.42	10.6
310.632	9.28
310.845	9.18
311.058	8.84
311.27	9.25
311.483	9.84
311.696	10.4
311.908	10.87
312.121	10.67
312.333	10.95
312.546	10.39
312.759	11.22
312.971	12.24
313.184	12.21
313.396	12.19
313.609	12.16
313.821	11.69
314.034	11.51
314.246	12.85
314.459	12.55
314.671	11.67
314.884	11.57
315.096	10.36
315.309	8.97
315.521	9.35
315.733	9.37
315.946	7.96
316.158	8.12
316.371	9.28
316.583	7.83
316.795	7.98
317.008	7.95
317.22	8.27
317.432	9.22
317.644	9.38
317.857	8.26
318.069	9.32
318.281	11.03
318.494	10.69
318.706	9.97
318.918	9.53
319.13	10.65
319.342	10.79
319.555	10.93
319.767	12.37
319.979	12.92
320.191	13.88
320.403	13.12
320.615	12.4
320.827	13.4
321.039	13.12
321.252	13.4
321.464	12.75
321.676	12.34
321.888	11.25
322.1	9.66
322.312	7.81
322.524	6.22
322.736	6.16
322.948	7.25
323.16	5.72
323.372	6.4
323.584	6.89
323.796	6.4
324.007	6.6
324.219	7.56
324.431	8.11
324.643	9.43
324.855	10.34
325.067	10.22
325.279	9.38
325.491	10.6
325.702	10.48
325.914	10.69
326.126	11.63
326.338	12.12
326.55	12.76
326.761	13.61
326.973	13.8
327.185	14.46
327.396	14.57
327.608	14.59
327.82	14.74
328.032	15.2
328.243	14.81
328.455	15.29
328.666	14.95
328.878	14.64
329.09	13.91
329.301	14.43
329.513	14.12
329.725	14.62
329.936	15.89
330.148	16.95
330.359	16.08
330.571	16.81
330.782	16.7
330.994	17.84
331.205	18.3
331.417	17.95
331.628	17.46
331.84	18.18
332.051	19.02
332.262	19.5
332.474	17.47
332.685	19.25
332.897	18.77
333.108	19.01
333.319	17.72
333.531	17.29
333.742	19.12
333.953	19.19
334.165	18.9
334.376	18.33
334.587	18.1
334.799	18.7
335.01	17.85
335.221	18.49
335.432	18.28
335.644	18.68
335.855	18.64
336.066	18.93
336.277	19.25
336.488	19.02
336.7	19.67
336.911	20.27
337.122	20.67
337.333	21.79
337.544	22.64
337.755	23.19
337.966	23.61
338.177	24.07
338.388	22.89
338.599	24.46
338.811	24.73
339.022	24.78
339.233	24.28
339.444	24.19
339.655	22.53
339.866	21.57
340.076	21.46
340.287	21.35
340.498	20.81
340.709	21.26
340.92	20.05
341.131	20.36
341.342	20.24
341.553	20.21
341.764	20.81
341.975	21.36
342.185	20.72
342.396	20.37
342.607	20.84
342.818	20.87
343.029	20.94
343.239	20.82
343.45	21.15
343.661	21.09
343.872	20.65
344.082	20.49
344.293	21.05
344.504	22.12
344.714	21.46
344.925	20.95
345.136	21.19
345.346	21.55
345.557	22.12
345.768	21.49
345.978	21
346.189	22.39
346.399	21.91
346.61	21.91
346.821	21.47
347.031	22.44
347.242	21.74
347.452	22.09
347.663	21.05
347.873	20.48
348.084	21.06
348.294	20.79
348.504	19.52
348.715	19.87
348.925	19.45
349.136	18.83
349.346	17.89
349.557	18.92
349.767	19.08
349.977	20.07
350.188	20.18
350.398	20.78
350.608	21.39
350.819	21.58
351.029	21.71
351.239	21.9
351.449	22.05
351.66	22.34
351.87	22.79
352.08	23.06
352.29	22.05
352.501	21.61
352.711	20.92
352.921	21.9
353.131	21.56
353.341	21.18
353.552	20.77
353.762	21.04
353.972	20.91
354.182	20.93
354.392	20.2
354.602	20.93
354.812	21.37
355.022	21.1
355.232	20.27
355.442	21.05
355.652	21.54
355.862	21.56
356.072	22.16
356.282	21.92
356.492	21.53
356.702	21.49
356.912	21.53
357.122	21.6
357.332	21.5
357.542	21.22
357.752	20.78
357.962	20.45
358.171	20.6
358.381	20.66
358.591	21.2
358.801	20.94
359.011	21.24
359.221	20.63
359.43	20.82
359.64	21.28
359.85	21.72
360.06	21.73
360.269	22.2
360.479	22.04
360.689	21.69
360.899	21.41
361.108	21.31
361.318	21.05
361.528	21.15
361.737	20.61
361.947	20.06
362.156	19.78
362.366	19.41
362.576	18.96
362.785	19.02
362.995	18.8
363.204	18.68
363.414	19
363.623	18.97
363.833	18.99
364.042	19.39
364.252	19.58
364.461	19.35
364.671	19.7
364.88	19.9
365.09	19.97
365.299	20.14
365.509	19.6
365.718	18.97
365.927	19.05
366.137	19.66
366.346	19.4
366.555	19.83
366.765	19.76
366.974	19.44
367.183	19.27
367.393	18.76
367.602	18.29
367.811	18.68
368.021	18.7
368.23	18.53
368.439	17.79
368.648	17.11
368.857	16.86
369.067	17.09
369.276	17.31
369.485	17.22
369.694	17.68
369.903	18.07
370.112	18.29
370.321	17.97
370.531	17.96
370.74	18.04
370.949	18.51
371.158	18.33
371.367	18.16
371.576	17.84
371.785	17.52
371.994	17.14
372.203	17.33
372.412	17.6
372.621	17.92
372.83	18.1
373.039	18.38
373.248	18.39
373.457	18.2
373.666	18
373.874	18.22
374.083	18.57
374.292	18.54
374.501	18.17
374.71	17.99
374.919	18.03
375.128	17.7
375.336	17.52
375.545	17.99
375.754	17.94
375.963	18.16
376.171	17.98
376.38	17.71
376.589	17.71
376.798	17.08
377.006	17.39
377.215	17.69
377.424	17.63
377.632	17.62
377.841	17.12
378.05	16.95
378.258	16.61
378.467	16.63
378.675	16.91
378.884	17.09
379.093	17.64
379.301	16.94
379.51	16.39
379.718	16.11
379.927	16.08
380.135	15.61
380.344	15.85
380.552	15.78
380.761	15.71
380.969	15.49
381.177	15.13
381.386	14.91
381.594	15.14
381.803	15.49
382.011	15.41
382.219	14.81
382.428	14.66
382.636	14.98
382.845	15.37
383.053	15.34
383.261	14.96
383.469	15.16
383.678	15.29
383.886	15.18
384.094	14.95
384.302	15.15
384.511	15.58
384.719	15.92
384.927	15.31
385.135	15.52
385.343	15.85
385.552	15.96
385.76	16.18
385.968	15.98
386.176	15.74
386.384	15.41
386.592	15.23
386.8	15.03
387.008	15.54
387.216	15.95
387.424	15.47
387.633	15.31
387.841	15.27
388.049	14.8
388.257	14.95
388.465	14.95
388.672	15.19
388.88	15.34
389.088	15.2
389.296	14.59
389.504	14.52
389.712	14.95
389.92	14.51
390.128	14.49
390.336	14.4
390.544	14.78
390.751	14.38
390.959	14.33
391.167	14.28
391.375	14.49
391.583	14.51
391.79	14.08
391.998	13.67
392.206	13.59
392.414	13.46
392.621	13.97
392.829	13.71
393.037	13.91
393.244	13.84
393.452	13.7
393.66	13.48
393.867	13.76
394.075	13.86
394.283	13.79
394.49	13.82
394.698	13.8
394.905	13.37
395.113	13.1
395.32	13.24
395.528	13.31
395.735	13.52
395.943	13.44
396.15	13.06
396.358	13.06
396.565	13.15
396.773	13.48
396.98	13.46
397.188	13.44
397.395	13.46
397.602	13.45
397.81	13.24
398.017	13.12
398.225	13.25
398.432	13.13
398.639	13.07
398.847	12.97
399.054	12.48
399.261	12.38
399.468	12.49
399.676	12.09
399.883	12.08
400.09	11.96
400.297	11.96
400.505	11.74
400.712	11.93
400.919	11.91
401.126	12.04
401.333	12.26
401.54	12.57
401.748	12.48
401.955	12.88
402.162	12.74
402.369	12.91
402.576	12.86
402.783	12.99
402.99	12.92
403.197	12.92
403.404	12.68
403.611	12.61
403.818	12.33
404.025	12.18
404.232	12.05
404.439	12.01
404.646	11.98
404.853	11.89
405.06	11.86
405.267	11.82
405.474	11.76
405.681	11.63
405.887	11.71
406.094	11.97
406.301	12.08
406.508	12.06
406.715	12.44
406.922	12.35
407.128	12.19
407.335	12.14
407.542	12.19
407.749	12.45
407.955	13
408.162	12.88
408.369	12.81
408.575	12.62
408.782	12.49
408.989	12.08
409.195	12.1
409.402	12.32
409.609	12.62
409.815	12.55
410.022	12.48
410.228	12.07
410.435	12.24
410.642	12.09
410.848	12.44
411.055	12.33
411.261	12.37
411.468	12.43
411.674	12.07
411.881	11.7
412.087	11.93
412.294	11.82
412.5	11.77
412.706	11.54
412.913	11.46
413.119	10.96
413.326	11.04
413.532	11
413.738	10.86
413.945	11.25
414.151	11.12
414.357	11.04
414.564	10.83
414.77	11
414.976	11.18
415.182	11.39
415.389	11.59
415.595	11.61
415.801	11.55
416.007	11.71
416.214	11.68
416.42	11.71
416.626	11.46
416.832	11.42
417.038	11.37
417.244	11.54
417.45	11.37
417.657	11.46
417.863	11.49
418.069	11.67
418.275	11.59
418.481	11.51
418.687	11.61
418.893	11.65
419.099	11.73
419.305	11.8
419.511	11.56
419.717	11.52
419.923	11.41
420.129	11.44
420.335	11.44
420.541	11.47
420.746	11.5
420.952	11.45
421.158	11.4
421.364	11.37
421.57	11.34
421.776	11.33
421.982	11.36
422.187	11.24
422.393	11.19
422.599	11.01
422.805	11.07
423.01	11.03
423.216	10.92
423.422	10.98
423.628	11.06
423.833	10.92
424.039	10.98
424.245	11.03
424.45	11.25
424.656	11.27
424.862	11.31
425.067	11.32
425.273	11.19
425.478	11.25
425.684	11.19
425.889	11.24
426.095	11.39
426.301	11.27
426.506	11.29
426.712	11.18
426.917	11.16
427.123	11.26
427.328	11.21
427.533	11.44
427.739	11.47
427.944	11.37
428.15	11.15
428.355	11.07
428.561	11.1
428.766	10.91
428.971	10.73
429.177	10.63
429.382	10.72
429.587	10.56
429.793	10.37
429.998	10.44
430.203	10.56
430.408	10.61
430.614	10.68
430.819	10.69
431.024	10.79
431.229	10.96
431.434	11.16
431.64	11.02
431.845	11.24
432.05	11.41
432.255	11.41
432.46	11.2
432.665	11.11
432.87	11.02
433.076	11.04
433.281	11.03
433.486	11.07
433.691	10.76
433.896	10.55
434.101	10.43
434.306	10.41
434.511	10.38
434.716	10.58
434.921	10.74
435.126	10.75
435.331	10.7
435.535	10.64
435.74	10.59
435.945	10.83
436.15	11.03
436.355	10.99
436.56	10.9
436.765	10.85
436.97	10.69
437.174	10.63
437.379	10.63
437.584	10.72
437.789	10.76
437.993	10.76
438.198	10.7
438.403	10.71
438.608	10.73
438.812	10.59
439.017	10.6
439.222	10.79
439.426	10.69
439.631	10.63
439.836	10.65
440.04	10.7
440.245	10.59
440.45	10.6
440.654	10.57
440.859	10.51
441.063	10.68
441.268	10.64
441.472	10.53
441.677	10.56
441.881	10.48
442.086	10.46
442.29	10.34
442.495	10.46
442.699	10.45
442.904	10.35
443.108	10.37
443.312	10.35
443.517	10.33
443.721	10.29
443.925	10.22
444.13	10.36
444.334	10.19
444.538	10.17
444.743	10.05
444.947	10.01
445.151	10.01
445.356	10
445.56	9.91
445.764	9.91
445.968	9.91
446.173	10.01
446.377	10.04
446.581	10.1
446.785	10.09
446.989	10.07
447.193	10.05
447.398	10.07
447.602	10.01
447.806	10.1
448.01	10.2
448.214	10.26
448.418	10.18
448.622	10.11
448.826	10.11
449.03	10.27
449.234	10.38
449.438	10.39
449.642	10.34
449.846	10.48
450.05	10.47
450.254	10.31
450.458	10.34
450.662	10.22
450.866	10.14
451.069	10.07
451.273	9.97
451.477	9.9
451.681	9.73
451.885	9.63
452.089	9.49
452.292	9.37
452.496	9.52
452.7	9.4
452.904	9.5
453.107	9.64
453.311	9.85
453.515	9.78
453.719	9.68
453.922	9.88
454.126	9.92
454.33	9.95
454.533	9.85
454.737	9.63
454.94	9.71
455.144	9.78
455.348	9.62
455.551	9.51
455.755	9.47
455.958	9.64
456.162	9.62
456.365	9.73
456.569	9.56
456.772	9.79
456.976	9.92
457.179	10.1
457.383	9.98
457.586	10.17
457.79	10.07
457.993	10.14
458.196	10.03
458.4	10.05
458.603	9.98
458.807	10.13
459.01	10.19
459.213	10.1
459.417	9.96
459.62	10.08
459.823	10
460.026	10.05
460.23	10.02
460.433	10.12
460.636	10.14
460.839	10.17
461.042	10.24
461.246	10.14
461.449	10.15
461.652	10.22
461.855	10.09
462.058	10.01
462.261	9.87
462.464	9.84
462.668	9.93
462.871	9.92
463.074	10.05
463.277	9.77
463.48	9.89
463.683	9.94
463.886	9.8
464.089	9.7
464.292	9.94
464.495	10
464.698	10.05
464.901	9.94
465.104	9.82
465.306	9.8
465.509	9.95
465.712	9.83
465.915	9.92
466.118	10.03
466.321	10.1
466.524	10.04
466.726	10.25
466.929	10.24
467.132	10.3
467.335	10.22
467.538	10
467.74	9.96
467.943	10.16
468.146	10.17
468.348	10.12
468.551	10.13
468.754	10.2
468.956	10.04
469.159	10.2
469.362	9.98
469.564	10.1
469.767	10.3
469.969	10.34
470.172	10
470.375	9.76
470.577	9.81
470.78	9.8
470.982	9.64
471.185	9.76
471.387	9.72
471.59	9.94
471.792	9.98
471.995	9.84
472.197	9.77
472.399	9.94
472.602	9.97
472.804	10.01
473.007	9.99
473.209	10.01
473.411	9.84
473.614	9.6
473.816	9.52
474.018	9.56
474.22	9.64
474.423	9.75
474.625	9.8
474.827	10
475.03	9.96
475.232	10.14
475.434	10.04
475.636	10.17
475.838	10.27
476.04	10.24
476.243	10.13
476.445	10.18
476.647	10.18
476.849	10.04
477.051	9.92
477.253	10.01
477.455	10.01
477.657	10.08
477.859	9.98
478.061	10.01
478.263	9.89
478.465	9.97
478.667	9.94
478.869	9.93
479.071	9.89
479.273	9.86
479.475	9.67
479.677	9.57
479.879	9.52
480.081	9.59
480.283	9.48
480.485	9.55
480.686	9.5
480.888	9.48
481.09	9.51
481.292	9.55
481.494	9.59
481.695	9.71
481.897	9.6
482.099	9.66
482.301	9.68
482.502	9.73
482.704	9.78
482.906	9.8
483.107	9.78
483.309	9.73
483.511	9.76
483.712	9.71
483.914	9.63
484.115	9.7
484.317	9.69
484.519	9.66
484.72	9.64
484.922	9.58
485.123	9.53
485.325	9.51
485.526	9.52
485.728	9.5
485.929	9.51
486.131	9.56
486.332	9.58
486.534	9.53
486.735	9.54
486.936	9.5
487.138	9.49
487.339	9.53
487.541	9.59
487.742	9.56
487.943	9.55
488.144	9.56
488.346	9.53
488.547	9.47
488.748	9.53
488.95	9.46
489.151	9.56
489.352	9.62
489.553	9.59
489.755	9.52
489.956	9.51
490.157	9.58
490.358	9.53
490.559	9.63
490.76	9.61
490.961	9.53
491.163	9.65
491.364	9.72
491.565	9.66
491.766	9.63
491.967	9.7
492.168	9.67
492.369	9.69
492.57	9.79
492.771	9.76
492.972	9.76
493.173	9.9
493.374	9.86
493.575	9.81
493.776	9.89
493.976	10
494.177	10.05
494.378	10.18
494.579	10.08
494.78	10.19
494.981	10.17
495.182	10.24
495.382	10.09
495.583	10.09
495.784	10.03
495.985	10.05
496.185	10.09
496.386	10.04
496.587	10.11
496.788	10.06
496.988	9.93
497.189	10.06
497.39	10.02
497.59	10.07
497.791	10.08
497.992	10.09
498.192	10.11
498.393	10.14
498.593	10.23
498.794	10.17
498.994	10.34
499.195	10.28
499.395	10.19
499.596	10.26
499.796	10.34
499.997	10.37
500.197	10.49
500.398	10.59
500.598	10.51
500.799	10.47
500.999	10.57
501.199	10.56
501.4	10.75
501.6	10.65
501.801	10.68
502.001	10.71
502.201	10.79
502.402	10.68
502.602	10.62
502.802	10.67
503.002	10.73
503.203	10.84
503.403	10.81
503.603	10.72
503.803	10.82
504.003	10.88
504.204	10.93
504.404	10.96
504.604	10.95
504.804	11.03
505.004	11.04
505.204	10.99
505.404	10.89
505.604	11.04
505.804	11.11
506.005	11.15
506.205	11.16
506.405	11.28
506.605	11.41
506.805	11.56
507.005	11.57
507.204	11.62
507.404	11.65
507.604	11.67
507.804	11.58
508.004	11.66
508.204	11.71
508.404	11.69
508.604	11.63
508.804	11.54
509.003	11.57
509.203	11.58
509.403	11.6
509.603	11.59
509.803	11.68
510.002	11.8
510.202	11.66
510.402	11.58
510.602	11.65
510.801	11.69
511.001	11.72
511.201	11.71
511.4	11.68
511.6	11.69
511.8	11.77
511.999	11.9
512.199	11.8
512.398	12.01
512.598	12.21
512.797	12.31
512.997	12.34
513.197	12.4
513.396	12.34
513.596	12.47
513.795	12.68
513.994	12.75
514.194	12.59
514.393	12.61
514.593	12.6
514.792	12.62
514.992	12.61
515.191	12.61
515.39	12.66
515.59	12.61
515.789	12.58
515.988	12.46
516.188	12.42
516.387	12.41
516.586	12.4
516.786	12.54
516.985	12.42
517.184	12.35
517.383	12.47
517.582	12.65
517.782	12.88
517.981	12.85
518.18	12.88
518.379	13.03
518.578	13.07
518.777	13.31
518.976	13.18
519.176	13.38
519.375	13.45
519.574	13.41
519.773	13.31
519.972	13.16
520.171	13.33
520.37	13.39
520.569	13.33
520.768	13.33
520.967	13.28
521.166	13.38
521.365	13.37
521.564	13.43
521.762	13.48
521.961	13.44
522.16	13.56
522.359	13.37
522.558	13.42
522.757	13.48
522.956	13.71
523.154	13.69
523.353	13.81
523.552	13.78
523.751	13.89
523.949	14.01
524.148	14.05
524.347	14.23
524.546	14.41
524.744	14.36
524.943	14.47
525.142	14.4
525.34	14.51
525.539	14.56
525.737	14.62
525.936	14.59
526.135	14.54
526.333	14.52
526.532	14.53
526.73	14.64
526.929	14.63
527.127	14.56
527.326	14.64
527.524	14.64
527.723	14.67
527.921	14.69
528.12	14.73
528.318	14.77
528.516	14.84
528.715	14.82
528.913	14.78
529.112	14.87
529.31	14.93
529.508	14.92
529.707	14.93
529.905	14.92
530.103	14.96
530.301	14.94
530.5	14.98
530.698	15.04
530.896	15.12
531.094	15.17
531.293	15.21
531.491	15.3
531.689	15.4
531.887	15.55
532.085	15.62
532.283	15.69
532.481	15.79
532.68	15.8
532.878	15.87
533.076	15.83
533.274	15.79
533.472	15.82
533.67	15.75
533.868	15.72
534.066	15.66
534.264	15.62
534.462	15.56
534.66	15.62
534.858	15.69
535.056	15.57
535.253	15.62
535.451	15.75
535.649	15.79
535.847	16.02
536.045	16.11
536.243	16.23
536.441	16.39
536.638	16.6
536.836	16.58
537.034	16.58
537.232	16.69
537.43	16.83
537.627	16.91
537.825	16.88
538.023	16.81
538.22	16.98
538.418	16.99
538.616	17.13
538.813	17.1
539.011	17.22
539.209	17.26
539.406	17.36
539.604	17.46
539.801	17.6
539.999	17.71
540.196	17.8
540.394	17.81
540.591	17.86
540.789	17.79
540.986	17.78
541.184	17.81
541.381	17.91
541.579	17.95
541.776	17.95
541.974	17.88
542.171	17.92
542.368	17.92
542.566	17.88
542.763	17.87
542.96	17.91
543.158	17.98
543.355	18.01
543.552	18.03
543.75	18.1
543.947	17.96
544.144	17.98
544.341	18.07
544.539	18.09
544.736	18.2
544.933	18.25
545.13	18.23
545.327	18.31
545.524	18.37
545.722	18.44
545.919	18.56
546.116	18.9
546.313	19.02
546.51	18.99
546.707	19.07
546.904	19.16
547.101	19.24
547.298	19.44
547.495	19.56
547.692	19.52
547.889	19.47
548.086	19.52
548.283	19.5
548.48	19.56
548.677	19.63
548.874	19.65
549.07	19.65
549.267	19.71
549.464	19.64
549.661	19.59
549.858	19.81
550.055	19.98
550.251	20.02
550.448	20.09
550.645	20.26
550.842	20.32
551.038	20.41
551.235	20.46
551.432	20.45
551.628	20.64
551.825	20.74
552.022	20.84
552.218	20.99
552.415	20.99
552.612	21.01
552.808	20.85
553.005	21.06
553.201	21.12
553.398	21.18
553.594	21.26
553.791	21.27
553.987	21.33
554.184	21.41
554.38	21.32
554.577	21.39
554.773	21.63
554.97	21.98
555.166	22.09
555.362	22.15
555.559	22.23
555.755	22.34
555.952	22.3
556.148	22.35
556.344	22.45
556.541	22.46
556.737	22.71
556.933	22.82
557.129	22.47
557.326	22.41
557.522	22.58
557.718	22.87
557.914	22.93
558.11	23.01
558.307	22.93
558.503	22.99
558.699	23.03
558.895	23.16
559.091	23.06
559.287	23.29
559.483	23.3
559.679	23.48
559.876	23.33
560.072	23.7
560.268	23.84
560.464	24.09
560.66	24.06
560.856	24.26
561.052	24.18
561.247	24.15
561.443	24.34
561.639	24.59
561.835	24.53
562.031	24.66
562.227	24.71
562.423	24.84
562.619	24.94
562.815	25.04
563.01	25.3
563.206	25.4
563.402	25.48
563.598	25.55
563.793	25.53
563.989	25.58
564.185	25.53
564.381	25.6
564.576	25.68
564.772	25.73
564.968	25.79
565.163	25.56
565.359	25.45
565.555	25.62
565.75	25.62
565.946	25.74
566.141	25.56
566.337	25.78
566.532	25.84
566.728	25.92
566.923	26
567.119	25.96
567.314	26.07
567.51	26.19
567.705	26.21
567.901	26.36
568.096	26.34
568.292	26.71
568.487	26.65
568.682	26.69
568.878	26.61
569.073	26.71
569.268	26.8
569.464	27.04
569.659	27.15
569.854	27.36
570.05	27.45
570.245	27.47
570.44	27.65
570.635	27.76
570.831	27.76
571.026	27.9
571.221	27.88
571.416	27.95
571.611	27.96
571.806	28.1
572.002	28.07
572.197	28.19
572.392	28.17
572.587	28.08
572.782	28.17
572.977	28.13
573.172	28.2
573.367	28.23
573.562	28.33
573.757	28.24
573.952	28.23
574.147	28.39
574.342	28.71
574.537	28.91
574.732	28.99
574.927	28.96
575.121	29.11
575.316	29.23
575.511	29.24
575.706	29.37
575.901	29.4
576.096	29.61
576.29	29.66
576.485	29.31
576.68	29.47
576.875	29.52
577.069	29.61
577.264	29.81
577.459	29.97
577.654	30.19
577.848	30.13
578.043	30.55
578.238	30.46
578.432	30.4
578.627	30.53
578.821	30.49
579.016	30.41
579.21	30.62
579.405	30.59
579.6	30.43
579.794	30.48
579.989	30.58
580.183	30.77
580.378	30.87
580.572	31.04
580.766	31.04
580.961	31.12
581.155	31.33
581.35	31.28
581.544	31.31
581.738	31.38
581.933	31.5
582.127	31.8
582.321	31.56
582.516	31.71
582.71	31.91
582.904	32.06
583.099	32.11
583.293	32.17
583.487	32.32
583.681	32.41
583.875	32.38
584.07	32.32
584.264	32.14
584.458	32.06
584.652	31.87
584.846	31.7
585.04	31.66
585.234	31.7
585.428	31.83
585.623	31.82
585.817	31.66
586.011	31.86
586.205	32.14
586.399	32.22
586.593	32.44
586.787	32.59
586.981	32.6
587.174	32.73
587.368	32.71
587.562	32.78
587.756	32.68
587.95	32.97
588.144	33.23
588.338	33.2
588.532	33.38
588.725	33.49
588.919	33.65
589.113	33.69
589.307	33.62
589.501	33.61
589.694	33.7
589.888	33.97
590.082	33.84
590.275	33.75
590.469	33.77
590.663	33.55
590.856	33.53
591.05	33.54
591.244	33.68
591.437	33.9
591.631	33.96
591.824	33.79
592.018	33.82
592.212	33.89
592.405	33.73
592.599	33.97
592.792	34.16
592.986	34.19
593.179	34.27
593.372	34.22
593.566	34.37
593.759	34.63
593.953	34.81
594.146	34.76
594.339	35.03
594.533	35.38
594.726	35.17
594.92	35.19
595.113	35.11
595.306	35.11
595.499	35
595.693	34.86
595.886	34.78
596.079	34.85
596.272	34.83
596.466	34.57
596.659	34.45
596.852	34.39
597.045	34.41
597.238	34.49
597.431	34.35
597.624	34.36
597.818	34.3
598.011	34.33
598.204	34.25
598.397	34.4
598.59	34.46
598.783	34.55
598.976	34.65
599.169	34.87
599.362	34.97
599.555	35.29
599.748	35.7
599.941	35.92
600.134	36.07
600.326	36.26
600.519	36.26
600.712	36.44
600.905	36.13
601.098	36.31
601.291	36.29
601.483	36.17
601.676	36.12
601.869	35.87
602.062	35.85
602.255	35.62
602.447	35.67
602.64	35.76
602.833	35.99
603.025	36.14
603.218	35.88
603.411	35.87
603.603	35.79
603.796	35.86
603.989	36.02
604.181	36.07
604.374	36.37
604.566	36.13
604.759	36.11
604.951	35.89
605.144	36.02
605.336	36.07
605.529	36.02
605.721	36.26
605.914	36.25
606.106	36.4
606.299	36.29
606.491	36.11
606.683	36.35
606.876	36.42
607.068	36.56
607.26	36.69
607.453	36.89
607.645	36.95
607.837	36.89
608.03	37.02
608.222	36.9
608.414	37.13
608.606	37.11
608.799	37.22
608.991	37.07
609.183	37.24
609.375	37.07
609.567	37.02
609.759	37.06
609.952	37.09
610.144	37.07
610.336	37.05
610.528	36.9
610.72	36.91
610.912	36.91
611.104	37.2
611.296	37.14
611.488	37.24
611.68	37.41
611.872	37.37
612.064	37.84
612.256	38.03
612.448	38.07
612.64	38.13
612.832	38.27
613.023	38.25
613.215	38.2
613.407	38.07
613.599	38.16
613.791	38.23
613.983	38.4
614.174	37.97
614.366	38.07
614.558	37.9
614.75	37.69
614.941	37.67
615.133	37.75
615.325	38.01
615.516	38.12
615.708	38.02
615.9	37.76
616.091	37.76
616.283	37.81
616.475	37.35
616.666	37.69
616.858	38.17
617.049	38.13
617.241	38.24
617.432	38.03
617.624	38.2
617.815	38.13
618.007	38.38
618.198	38.4
618.39	38.27
618.581	38.76
618.773	38.81
618.964	38.87
619.155	38.95
619.347	38.85
619.538	38.79
619.729	38.72
619.921	38.87
620.112	39.01
620.303	39.17
620.494	39.51
620.686	39.17
620.877	39.25
621.068	39.21
621.259	39.38
621.451	39.69
621.642	39.63
621.833	39.64
622.024	39.76
622.215	39.67
622.406	39.69
622.597	39.71
622.788	39.67
622.98	39.43
623.171	39.3
623.362	39.13
623.553	39.24
623.744	39.21
623.935	39.34
624.126	39.25
624.317	39.17
624.508	38.99
624.698	38.72
624.889	39.04
625.08	39.43
625.271	39.62
625.462	39.48
625.653	39.16
625.844	39.33
626.034	39.24
626.225	39.31
626.416	39.37
626.607	39.35
626.798	39.67
626.988	39.72
627.179	39.44
627.37	39.24
627.56	39.54
627.751	39.57
627.942	39.58
628.132	39.51
628.323	39.63
628.514	39.6
628.704	39.86
628.895	39.79
629.085	39.57
629.276	39.69
629.466	40.05
629.657	40.04
629.847	39.91
630.038	39.93
630.228	40.13
630.419	40.12
630.609	40.29
630.8	40.02
630.99	39.87
631.181	40.16
631.371	40.04
631.561	40.2
631.752	40.23
631.942	40.26
632.132	40.49
632.323	40.39
632.513	40.36
632.703	40.36
632.893	40.41
633.084	40.39
633.274	40.11
633.464	40.46
633.654	40.26
633.844	40.16
634.034	40.19
634.225	40.03
634.415	40.03
634.605	40.07
634.795	39.81
634.985	40.07
635.175	39.88
635.365	39.98
635.555	39.91
635.745	39.81
635.935	39.84
636.125	40.18
636.315	40.31
636.505	40.36
636.695	40.26
636.885	40.28
637.075	40.12
637.265	40.64
637.455	40.61
637.644	40.37
637.834	40.55
638.024	40.65
638.214	40.37
638.404	40.34
638.593	40.69
638.783	40.81
638.973	41.34
639.163	41.5
639.352	41.49
639.542	41.41
639.732	41.55
639.921	41.68
640.111	41.82
640.301	41.98
640.49	41.74
640.68	41.72
640.87	41.73
641.059	41.37
641.249	41.42
641.438	41.31
641.628	41.13
641.817	40.94
642.007	40.75
642.196	40.59
642.386	40.79
642.575	41.16
642.764	40.69
642.954	40.52
643.143	40.98
643.333	40.97
643.522	40.94
643.711	41.31
643.901	41.61
644.09	41.53
644.279	41.77
644.469	41.6
644.658	41.43
644.847	41.65
645.036	42.17
645.226	42.14
645.415	42.32
645.604	42
645.793	42.09
645.982	41.87
646.171	42.04
646.361	42.41
646.55	42.83
646.739	42.66
646.928	42.88
647.117	42.63
647.306	42.62
647.495	42.18
647.684	42.54
647.873	42.66
648.062	42.91
648.251	42.9
648.44	42.65
648.629	42.35
648.818	42.54
649.007	42.29
649.196	42.44
649.384	42.4
649.573	42.51
649.762	42.48
649.951	42.33
650.14	42.16
650.328	42.2
650.517	42.15
650.706	42.19
650.895	42.44
651.083	42.45
651.272	41.93
651.461	42.14
651.65	42.69
651.838	42.76
652.027	42.76
652.216	42.7
652.404	43.15
652.593	43.02
652.781	42.78
652.97	42.8
653.158	43.21
653.347	44.03
653.535	43.74
653.724	42.81
653.912	42.98
654.101	42.92
654.289	43.21
654.478	42.75
654.666	43.12
654.855	43.39
655.043	42.96
655.231	42.3
655.42	42.17
655.608	42.22
655.796	42.46
655.985	42.57
656.173	42.81
656.361	42.47
656.55	42.07
656.738	41.72
656.926	41.93
657.114	42.28
657.302	42.83
657.491	42.34
657.679	42.23
657.867	42.6
658.055	42.23
658.243	42.29
658.431	42.68
658.619	43.1
658.807	43.02
658.996	42.88
659.184	42.61
659.372	42.66
659.56	42.91
659.748	42.76
659.936	42.89
660.124	42.96
660.311	42.8
660.499	42.77
660.687	42.79
660.875	42.74
661.063	42.86
661.251	42.86
661.439	42.41
661.627	42.82
661.814	43.33
662.002	42.9
662.19	43.07
662.378	43.01
662.565	43.29
662.753	43.24
662.941	43.29
663.129	43.24
663.316	43.66
663.504	43.59
663.692	43.32
663.879	42.98
664.067	43.32
664.254	43.29
664.442	43.06
664.63	42.52
664.817	42.74
665.005	42.69
665.192	42.59
665.38	42.3
665.567	42.66
665.755	42.49
665.942	42.43
666.13	42.55
666.317	42.7
666.504	43.03
666.692	43.52
666.879	43.45
667.067	43.65
667.254	43.42
667.441	43.3
667.629	43.55
667.816	43.37
668.003	43.32
668.19	43.29
668.378	43.18
668.565	43.19
668.752	42.9
668.939	42.77
669.127	42.94
669.314	43.4
669.501	43.89
669.688	43.73
669.875	44.14
670.062	44.39
670.249	44.62
670.436	44.69
670.623	44.76
670.81	44.65
670.997	44.18
671.184	43.91
671.371	43.87
671.558	43.97
671.745	44.13
671.932	43.95
672.119	43.74
672.306	43.59
672.493	43.53
672.68	43.79
672.867	44.37
673.054	44.99
673.24	45.31
673.427	45.58
673.614	45.47
673.801	46.1
673.988	46.51
674.174	46.99
674.361	46.88
674.548	46.97
674.734	46.71
674.921	46.27
675.108	46.66
675.294	46.14
675.481	45.48
675.668	45.45
675.854	44.56
676.041	44.14
676.227	43.87
676.414	43.84
676.601	44.04
676.787	44.39
676.974	44.56
677.16	44.35
677.347	44.59
677.533	45.08
677.719	44.8
677.906	44.8
678.092	45.07
678.279	44.85
678.465	44.75
678.651	44.35
678.838	44.15
679.024	44.05
679.21	43.86
679.397	44.14
679.583	44.12
679.769	44.27
679.955	44.25
680.142	44.2
680.328	44.64
680.514	44.44
680.7	44.32
680.886	44.51
681.073	44.66
681.259	44.34
681.445	44.49
681.631	44.36
681.817	44.78
682.003	44.97
682.189	44.75
682.375	44.23
682.561	44.71
682.747	45.37
682.933	45.36
683.119	45.3
683.305	45.5
683.491	45.36
683.677	45.5
683.863	44.92
684.049	44.92
684.235	45.08
684.42	45.34
684.606	45.2
684.792	45
684.978	44.41
685.164	44.57
685.349	45.2
685.535	45.6
685.721	45.27
685.907	45.01
686.092	45.31
686.278	45.4
686.464	45.36
686.649	45.11
686.835	44.86
687.021	45.08
687.206	45.08
687.392	44.37
687.577	43.84
687.763	43.98
687.948	44.25
688.134	44.16
688.319	43.96
688.505	44.3
688.69	44.4
688.876	44.68
689.061	45.2
689.247	45.2
689.432	45.54
689.618	45.51
689.803	45.88
689.988	46
690.174	46.14
690.359	46.28
690.544	46.18
690.73	46.64
690.915	46.38
691.1	46.09
691.285	46.03
691.471	46.17
691.656	46.81
691.841	46.33
692.026	46.8
692.211	47.17
692.396	47.15
692.582	47.29
692.767	47.27
692.952	47.19
693.137	47.1
693.322	47.22
693.507	47.28
693.692	47.11
693.877	47.34
694.062	47.12
694.247	46.77
694.432	47.31
694.617	46.99
694.802	46.9
694.987	47.28
695.172	47.54
695.357	47.51
695.541	47.44
695.726	47.29
695.911	47.69
696.096	47.52
696.281	47.58
696.466	46.91
696.65	46.95
696.835	46.82
697.02	46.75
697.204	46.6
697.389	46.79
697.574	46.19
697.759	45.93
697.943	45.67
698.128	45.35
698.312	45.16
698.497	44.86
698.682	44.7
698.866	44.77
699.051	44.64
699.235	44.76
699.42	44.72
699.604	45.26
699.789	45.35
699.973	45.13
700.158	45.46
700.342	45.66
700.527	46.16
700.711	46.49
700.895	46.27
701.08	46.49
701.264	46.64
701.448	46.44
701.633	46.56
701.817	46.16
702.001	46.76
702.186	46.49
702.37	46.38
702.554	46.28
702.738	46.28
702.923	46.52
703.107	46.76
703.291	46.28
703.475	46.32
703.659	46.02
703.843	46.86
704.027	46.93
704.212	47.6
704.396	47.68
704.58	47.73
704.764	47.75
704.948	47.29
705.132	46.96
705.316	47.55
705.5	47.79
705.684	48.5
705.868	48.25
706.052	47.75
706.235	47.28
706.419	46.7
706.603	46.42
706.787	46.43
706.971	47.21
707.155	47.11
707.339	47.2
707.522	47.21
707.706	46.74
707.89	46.84
708.074	47.21
708.257	47.01
708.441	47.6
708.625	47.98
708.808	47.81
708.992	47.83
709.176	47.66
709.359	47.53
709.543	47.13
709.727	47.06
709.91	46.92
710.094	46.26
710.277	47.02
710.461	46.72
710.644	46.69
710.828	46.5
711.011	46.69
711.195	46.87
711.378	47.32
711.562	47.57
711.745	47.34
711.928	47.2
712.112	47.67
712.295	47.3
712.478	47.66
712.662	47.99
712.845	47.97
713.028	47.58
713.212	47.43
713.395	46.72
713.578	46.96
713.761	47.07
713.945	46.77
714.128	46.78
714.311	46.81
714.494	46.69
714.677	46.68
714.86	47.22
715.043	47.54
715.227	47.85
715.41	47.82
715.593	47.76
715.776	47.8
715.959	48.24
716.142	48.23
716.325	48.35
716.508	48.54
716.691	48.39
716.874	47.99
717.057	47.47
717.239	47.4
717.422	47.34
717.605	47.22
717.788	47.31
717.971	47.44
718.154	47.24
718.337	47.32
718.519	46.86
718.702	47.49
718.885	47.6
719.068	48.09
719.25	48.23
719.433	48.09
719.616	47.78
719.798	47.59
719.981	48.28
720.164	48.38
720.346	48.37
720.529	49
720.712	48.23
720.894	48.11
721.077	48.04
721.259	48.45
721.442	49.23
721.624	49.35
721.807	49.28
721.989	49.03
722.172	49.56
722.354	49.5
722.537	48.8
722.719	48.84
722.901	49.99
723.084	50.16
723.266	50.17
723.448	49.8
723.631	49.69
723.813	49.69
723.995	48.79
724.178	48.23
724.36	48.29
724.542	48.41
724.724	48.86
724.907	48.06
725.089	47.46
725.271	47.97
725.453	47.59
725.635	48.68
725.817	49.43
725.999	50.36
726.181	50.63
726.364	50.15
726.546	50.42
726.728	50.01
726.91	50.12
727.092	50.59
727.274	49.91
727.456	50.42
727.638	50.46
727.819	49.68
728.001	49.28
728.183	49.62
728.365	49.6
728.547	49.33
728.729	49.67
728.911	50.17
729.093	49.73
729.274	48.79
729.456	48.66
729.638	47.96
729.82	48.15
730.001	48.19
730.183	47.92
730.365	48.51
730.546	48.67
730.728	47.78
730.91	47.38
731.091	47.92
731.273	48.49
731.455	48.52
731.636	48.64
731.818	49.28
731.999	49.02
732.181	48.99
732.362	48.88
732.544	49.3
732.725	49.72
732.907	49.43
733.088	49.68
733.27	50.33
733.451	50.12
733.633	50.22
733.814	49.79
733.995	50.53
734.177	51.01
734.358	50.42
734.539	50.85
734.721	51.21
734.902	51.51
735.083	51.16
735.264	50.86
735.446	51.4
735.627	51.22
735.808	50.62
735.989	50.57
736.17	50.7
736.351	50.94
736.533	50.09
736.714	49.39
736.895	49.69
737.076	49.73
737.257	49.73
737.438	48.72
737.619	48.94
737.8	49.97
737.981	49.78
738.162	49.69
738.343	49.85
738.524	49.68
738.705	50.77
738.886	50.09
739.067	50.16
739.247	50.24
739.428	51.16
739.609	50.3
739.79	49.68
739.971	48.5
740.151	47.77
740.332	48.58
740.513	47.82
740.694	47.64
740.874	47.87
741.055	47.79
741.236	47.32
741.417	47.11
741.597	47.75
741.778	48.17
741.958	48.99
742.139	49.89
742.32	49.53
742.5	50.97
742.681	51.01
742.861	51.24
743.042	50.92
743.222	51.22
743.403	51.92
743.583	51.55
743.764	51.38
743.944	52.05
744.124	52.07
744.305	51
744.485	50.15
744.666	49.39
744.846	49.28
745.026	50.63
745.207	50.02
745.387	48.93
745.567	49.78
745.747	50.03
745.928	49.21
746.108	49.26
746.288	50.12
746.468	51.17
746.648	52.04
746.829	51.64
747.009	51.07
747.189	51.74
747.369	52.38
747.549	52.12
747.729	51.69
747.909	51
748.089	51.09
748.269	51.3
748.449	50.5
748.629	50.3
748.809	51.45
748.989	50.73
749.169	51.25
749.349	50.89
749.529	51.39
749.709	51.22
749.889	52.64
750.068	51.73
750.248	52.28
750.428	52.49
750.608	52.65
750.788	51.6
750.967	51.67
751.147	51.73
751.327	52.61
751.507	51.65
751.686	52.18
751.866	52.16
752.046	52.68
752.225	52.61
752.405	52.92
752.585	52.41
752.764	52.36
752.944	52.43
753.123	51.41
753.303	50.46
753.482	51.53
753.662	52.13
753.841	51.82
754.021	52.37
754.2	51.5
754.38	51.08
754.559	51.5
754.739	51.59
754.918	51.85
755.097	52.36
755.277	53.05
755.456	52.72
755.635	52.01
755.815	51.83
755.994	50.67
756.173	50.86
756.352	50.25
756.532	49.49
756.711	49.51
756.89	48.62
757.069	48.5
757.248	47.73
757.427	46.91
757.607	46.77
757.786	47.4
757.965	46.7
758.144	47.77
758.323	49.23
758.502	49.61
758.681	49.65
758.86	50.46
759.039	50.62
759.218	51.34
759.397	52.69
759.576	53.01
759.755	52.71
759.934	53.83
760.113	53.23
760.291	52.39
760.47	52.7
760.649	52.52
760.828	52.45
761.007	52.16
761.186	52.18
761.364	51.25
761.543	50.84
761.722	50.13
761.901	49.47
762.079	50.16
762.258	50.14
762.437	49.7
762.615	49.97
762.794	49.8
762.972	49.47
763.151	48.6
763.33	48.58
763.508	48.78
763.687	48.32
763.865	48.57
764.044	47.62
764.222	47.21
764.401	47.04
764.579	46.9
764.758	46.79
764.936	47.44
765.114	47.5
765.293	47.42
765.471	47.23
765.65	48.54
765.828	48.47
766.006	48.44
766.184	48.96
766.363	50.15
766.541	49.74
766.719	50.28
766.898	49.93
767.076	50.21
767.254	49.83
767.432	50.66
767.61	50.62
767.788	50.44
767.967	50.92
768.145	51.57
768.323	49.97
768.501	51.34
768.679	51.15
768.857	51.93
769.035	53.23
769.213	54.46
769.391	53.43
769.569	53.02
769.747	54.68
769.925	54.34
770.103	53.54
770.281	54.85
770.459	55.39
770.636	55.24
770.814	54.99
770.992	54.51
771.17	54.34
771.348	55.33
771.525	55.84
771.703	55.37
771.881	55.99
772.059	56.42
772.236	56.25
772.414	54.16
772.592	53.52
772.769	52.51
772.947	51.97
773.125	51.67
773.302	50.82
773.48	50.14
773.657	50.01
773.835	48.75
774.013	49.7
774.19	49.9
774.368	49.64
774.545	51.98
774.723	53.35
774.9	52.48
775.077	52.95
775.255	53.17
775.432	54.22
775.61	53.65
775.787	54.75
775.964	53.95
776.142	54.07
776.319	55.98
776.496	54.44
776.674	53.7
776.851	54.58
777.028	53.56
777.205	53.52
777.382	53.09
777.56	53.21
777.737	55.28
777.914	54.19
778.091	53.83
778.268	54.4
778.445	53.21
778.622	53.05
778.8	52.28
778.977	52.62
779.154	58.16
779.331	57.59
779.508	57.18
779.685	55.97
779.862	56.55
780.038	56.07
780.215	56.41
780.392	56.87
780.569	56.59
780.746	57.66
780.923	57.9
781.1	52.84
781.277	53.31
781.453	54.39
781.63	52.5
781.807	53.15
781.984	53.4
782.16	51.42
782.337	51.78
782.514	51.61
782.691	54.18
782.867	54.45
783.044	54.78
783.221	55.63
783.397	55.5
783.574	56.04
783.75	56.89
783.927	58.89
784.103	59.82
784.28	60.41
784.456	61.49
784.633	58.41
784.809	57.79
784.986	56.87
785.162	55.99
785.339	54.87
785.515	54.24
785.692	51.53
785.868	50.37
786.044	51.52
786.221	51.24
786.397	48.9
786.573	49.09
786.749	47.6
786.926	49.34
787.102	48.31
787.278	48.67
787.454	48.63
787.631	50.93
787.807	50.98
787.983	47.49
788.159	46.16
788.335	49.04
788.511	50.49
788.687	52.57
788.863	50.65
789.039	50.78
789.216	51.23
789.392	53.64
789.568	53.53
789.744	53.89
789.919	55.35
790.095	56.92
790.271	56.62
790.447	55.65
790.623	56.03
790.799	57.16
790.975	57.08
791.151	56.79
791.327	56.99
791.502	56.26
791.678	55.49
791.854	56.5
792.03	56.74
792.205	56.84
792.381	58.27
792.557	56.84
792.733	56.91
792.908	58.46
793.084	56.95
793.259	54.95
793.435	53.55
793.611	54.48
793.786	52.52
793.962	52.81
794.137	52.31
794.313	51.59
794.488	53.21
794.664	51.78
794.839	49.87
795.015	51.37
795.19	51.93
795.366	52.6
795.541	51.93
795.716	55
795.892	54.61
796.067	53.27
796.242	51.7
796.418	50.59
796.593	51.38
796.768	51.68
796.944	51.75
797.119	50.47
797.294	51.46
797.469	50.92
797.644	49.27
797.82	50.85
797.995	51.8
798.17	52.75
798.345	53.34
798.52	52.33
798.695	52.63
798.87	52.43
799.045	52.3
799.22	52.43
799.395	53.14
799.57	52.5
799.745	50.05
799.92	49.88
800.095	49.21
800.27	49.02
800.445	50.41
800.62	49.26
800.795	51.09
800.97	51.5
801.145	50.16
801.319	51.23
801.494	53.7
801.669	53.42
801.844	55.95
802.018	55.05
802.193	56.46
802.368	56.45
802.543	56.44
802.717	56.31
802.892	56.85
803.067	56.81
803.241	54.31
803.416	54.85
803.59	56.18
803.765	53.78
803.94	55.66
804.114	54.65
804.289	55.28
804.463	55.73
804.638	52.85
804.812	55.74
804.986	56.06
805.161	56.79
805.335	55.32
805.51	54.23
805.684	53.05
805.858	52.08
806.033	48.74
806.207	47.48
806.381	48.3
806.556	50.31
806.73	49.02
806.904	49.44
807.078	48.34
807.253	47.3
807.427	49.71
807.601	50.24
807.775	51.05
807.949	55.1
808.123	55.67
808.298	55.4
808.472	56.3
808.646	54.42
808.82	54.46
808.994	55.39
809.168	56.56
809.342	56.29
809.516	57.92
809.69	56.85
809.864	55.95
810.038	58.46
810.212	58.79
810.385	56.54
810.559	59.38
810.733	60.3
810.907	60.61
811.081	60.76
811.255	59.53
811.428	57.27
811.602	57.36
811.776	57.66
811.95	55.2
812.123	56.85
812.297	58.01
812.471	55.78
812.644	54.98
812.818	55.38
812.992	53.17
813.165	54.15
813.339	55.19
813.512	53.57
813.686	54.12
813.86	52.74
814.033	49.19
814.207	47.83
814.38	45.43
814.554	47.35
814.727	45.18
814.9	45.46
815.074	44.88
815.247	44.85
815.421	45.26
815.594	46.22
815.767	45.8
815.941	46.27
816.114	46.34
816.287	49.46
816.46	48.27
816.634	50.32
816.807	52.28
816.98	50.97
817.153	51.42
817.327	52.59
817.5	50.13
817.673	52.17
817.846	52.78
818.019	52.48
818.192	52.9
818.365	49.16
818.538	49.89
818.711	47.56
818.884	49.26
819.057	47.85
819.23	48.48
819.403	47.75
819.576	47.53
819.749	48.24
819.922	49.49
820.095	49.54
820.268	53.29
820.441	52.68
820.614	54.78
820.786	51.94
820.959	51.48
821.132	51.36
821.305	50.21
821.477	48.96
821.65	48.61
821.823	48.05
821.996	47.1
822.168	45.46
822.341	45.26
822.514	44.16
822.686	44.34
822.859	44.38
823.031	44.1
823.204	44.69
823.376	45.27
823.549	45.35
823.722	45.26
823.894	45.42
824.067	45.76
824.239	46.24
824.411	46.94
824.584	47.39
824.756	47.5
824.929	47.62
825.101	47.9
825.273	47.71
825.446	47.45
825.618	47.66
825.79	48.38
825.963	48.39
826.135	47.38
826.307	46.7
826.479	47.21
826.652	47.14
826.824	46.37
826.996	45.55
827.168	45.22
827.34	46.13
827.512	46.21
827.684	45.07
827.856	45.43
828.029	46.14
828.201	47
828.373	46.5
828.545	46.82
828.717	48.9
828.889	49.27
829.061	49.21
829.232	48.07
829.404	47.77
829.576	49.8
829.748	49.51
829.92	50.12
830.092	51.49
830.264	52.8
830.436	54.21
830.607	53.68
830.779	54.49
830.951	55.79
831.123	54.73
831.294	53.88
831.466	50.96
831.638	52.52
831.809	50.86
831.981	50.38
832.153	47.16
832.324	45.13
832.496	43.06
832.667	45.04
832.839	43.83
833.011	45.2
833.182	45.61
833.354	46.2
833.525	47.15
833.697	49.55
833.868	47.02
834.039	48.95
834.211	49.23
834.382	50.15
834.554	49.91
834.725	50.92
834.896	51.66
835.068	51.4
835.239	50.73
835.41	49.36
835.581	49.37
835.753	49.2
835.924	49.19
836.095	48.97
836.266	48.26
836.438	46.86
836.609	46.36
836.78	45.45
836.951	47.02
837.122	46.99
837.293	47.98
837.464	46.78
837.635	48.63
837.806	50.93
837.977	52.31
838.148	55.55
838.319	54.71
838.49	53.91
838.661	55.33
838.832	55.77
839.003	57.77
839.174	55.88
839.345	56.7
839.516	59.41
839.687	58.06
839.857	56.49
840.028	57.55
840.199	57.78
840.37	57.56
840.54	59.35
840.711	56.16
840.882	56.51
841.053	58.74
841.223	54.9
841.394	49.32
841.564	49.73
841.735	52.42
841.906	46.68
842.076	42.86
842.247	45.2
842.417	45.06
842.588	47.74
842.758	50.82
842.929	51.83
843.099	57.9
843.27	61.52
843.44	60.61
843.611	60.09
843.781	60.36
843.951	65.09
844.122	65.16
844.292	63.17
844.462	65.41
844.633	64.53
844.803	62.49
844.973	62.98
845.144	60.54
845.314	62.58
845.484	55.71
845.654	57.36
845.824	63.52
845.995	65.71
846.165	65.36
846.335	64.44
846.505	60.9
846.675	62.69
846.845	63.46
847.015	68.57
847.185	60.88
847.355	67.39
847.525	70.65
847.695	75.73
847.865	71.75
848.035	72.6
848.205	70.24
848.375	79.26
848.545	68.03
848.715	64.8
848.884	64.43
849.054	71.13
849.224	70.14
849.394	73.01
849.564	63.89
849.733	70.2
849.903	75.32
850.073	77.61
850.243	73.03
850.412	77.72
850.582	74.23
850.752	74.18
850.921	69.46
851.091	69
851.26	66.41
851.43	68.51
851.599	65.35
851.769	65.36
851.939	61.47
852.108	62.93
852.278	69.53
852.447	69.76
852.616	68.94
852.786	67.3
852.955	73.75
853.125	77.22
853.294	70.93
853.463	63.7
853.633	62.65
853.802	66.38
853.971	69.69
854.141	68.34
854.31	66.94
854.479	60.68
854.648	71.02
854.818	62.44
854.987	59.16
855.156	64.4
855.325	68.98
855.494	70.26
855.663	70.43
855.832	60.91
856.001	64.92
856.171	70.97
856.34	71.86
856.509	62.9
856.678	62.01
856.847	67.03
857.016	60.6
857.185	60.68
857.353	59.77
857.522	61.87
857.691	68.47
857.86	61.07
858.029	50.22
858.198	58.75
858.367	65.7
858.535	67.94
858.704	67.84
858.873	69.72
859.042	67.98
859.21	75.4
859.379	70.63
859.548	66.41
859.717	67.19
859.885	78.64
860.054	73.26
860.222	60.47
860.391	64.72
860.56	43.07
860.728	45.69
860.897	42.26
861.065	36.85
861.234	41.8
861.402	41.59
861.571	33.43
861.739	30.13
861.908	33.62
862.076	44.97
862.244	43.35
862.413	50.45
862.581	52.44
862.749	60.67
862.918	55.44
863.086	55.1
863.254	50.84
863.423	64.69
863.591	65.02
863.759	61.22
863.927	56.69
864.096	59.38
864.264	68.21
864.432	60.34
864.6	57.65
864.768	66.52
864.936	76.51
865.104	75
865.272	70.12
865.44	71.51
865.608	69.68
865.776	70.7
865.944	73.33
866.112	66.82
866.28	76.81
866.448	77.26
866.616	69.12
866.784	61.3
866.952	61.46
867.12	63.49
867.288	64.4
867.455	59.75
867.623	64.66
867.791	59.87
867.959	60.56
868.127	45.82
868.294	49.68
868.462	47.82
868.63	33.4
868.797	32.95
868.965	31.05
869.133	33.2
869.3	31.67
869.468	28.27
869.636	16.6
869.803	26.5
869.971	41.62
870.138	32.61
870.306	31.96
870.473	48.76
870.641	51.74
870.808	51.72
870.975	50
871.143	61.59
871.31	63.65
871.478	74.05
871.645	62.24
871.812	63.02
871.98	70.81
872.147	81.97
872.314	78.06
872.482	73.91
872.649	75.62
872.816	76.56
872.983	68.32
873.15	65.46
873.318	69.49
873.485	75.7
873.652	73.27
873.819	71.98
873.986	72.99
874.153	83.79
874.32	85.29
874.487	88.31
874.654	80.12
874.821	93.59
874.988	87.72
875.155	85.37
875.322	73.66
875.489	76.8
875.656	73.12
875.823	61.05
875.99	52.13
876.157	50.37
876.324	54.2
876.49	51.66
876.657	46.66
876.824	53.79
876.991	51.81
877.157	57.63
877.324	54.52
877.491	58.87
877.658	67.26
877.824	60.67
877.991	60.89
878.157	59.39
878.324	54.39
878.491	52.24
878.657	60.27
878.824	63.1
878.99	60.01
879.157	59.07
879.323	55.34
879.49	56.72
879.656	63.3
879.823	59.59
879.989	56.77
880.156	66.76
880.322	61.09
880.488	56.45
880.655	56.21
880.821	55.89
880.987	50.8
881.154	51.05
881.32	49.29
881.486	44.09
881.652	48.31
881.819	48.19
881.985	45
882.151	45.84
882.317	45.34
882.483	43.3
882.649	47.25
882.816	48.89
882.982	48.11
883.148	46.62
883.314	47.18
883.48	44.86
883.646	45.18
883.812	44.96
883.978	45.39
884.144	45.62
884.31	45.21
884.476	45.13
884.642	46.02
884.807	47.36
884.973	47.23
885.139	47.34
885.305	49.25
885.471	49.96
885.637	49.44
885.802	48.52
885.968	47.99
886.134	49.55
886.3	47.13
886.465	45.12
886.631	42.17
886.797	41.93
886.962	42.12
887.128	41.27
887.293	38.62
887.459	40.03
887.625	40.65
887.79	39.17
887.956	35.15
888.121	37.73
888.287	38.05
888.452	38.52
888.618	37.76
888.783	35.53
