Data from LC_192_Reflection_2.txt Node
Date: Tue Nov 17 13:36:34 EST 2015
User: robert
Spectrometer: USB4E03001
Autoset integration time: false
Trigger mode: 4
Integration Time (sec): 1.000000E-1
Scans to average: 15
Electric dark correction enabled: true
Nonlinearity correction enabled: false
Boxcar width: 5
Stray light correction enabled: false
XAxis mode: Wavelengths
Stop averaging: false
Number of Pixels in Spectrum: 3648
>>>>>Begin Spectral Data<<<<<
177.566	121.34
177.785	170.85
178.005	-808.58
178.225	181.21
178.445	-213.67
178.665	-41.07
178.885	-84.65
179.105	-93.31
179.324	419.95
179.544	661.19
179.764	243.09
179.984	140.69
180.204	189.63
180.423	400.86
180.643	532.19
180.863	-2188.89
181.083	-3226.53
181.302	684.27
181.522	348.96
181.742	1021.13
181.961	11520.59
182.181	-628.76
182.401	-115.3
182.621	-319.36
182.84	-329.6
183.06	-964.19
183.279	1074.24
183.499	-5931.09
183.719	-706.34
183.938	-263.99
184.158	-440.57
184.377	-535.97
184.597	-448.15
184.816	424.3
185.036	433.67
185.256	542.49
185.475	343.5
185.695	497.65
185.914	376.29
186.134	383.1
186.353	241.64
186.572	258.69
186.792	226.78
187.011	235.42
187.231	948.86
187.45	3263.96
187.67	567.02
187.889	629.95
188.108	404.41
188.328	395.43
188.547	391.8
188.766	-1855.12
188.986	1679.17
189.205	488.93
189.424	580.72
189.644	438.19
189.863	315.58
190.082	345.54
190.302	374.74
190.521	512.49
190.74	11674.03
190.959	1637.29
191.178	392.39
191.398	335.57
191.617	995.49
191.836	667.38
192.055	462.63
192.274	-1205.23
192.494	-627.67
192.713	-1781.24
192.932	-712.56
193.151	1231.87
193.37	19498.41
193.589	-746800
193.808	21777.53
194.027	-2822.71
194.246	-1297.33
194.465	5199.72
194.685	568.09
194.904	405.84
195.123	72470.83
195.342	1782.08
195.561	522.54
195.78	416.19
195.999	535.49
196.218	328.79
196.436	294.01
196.655	201.23
196.874	215.32
197.093	244.6
197.312	206.3
197.531	188.52
197.75	175.07
197.969	204.51
198.188	188.43
198.407	158.92
198.625	177.5
198.844	157.03
199.063	142.43
199.282	146.27
199.501	123.98
199.719	192.38
199.938	160.35
200.157	246.8
200.376	688.22
200.594	408.67
200.813	300.52
201.032	450.77
201.251	486.3
201.469	6962.54
201.688	2311.56
201.907	-10008.47
202.125	2855.92
202.344	2644.43
202.563	2499.65
202.781	1806.57
203	-2147.68
203.218	-405.24
203.437	-606.83
203.656	-336.68
203.874	-851.61
204.093	-1224.04
204.311	-1172.4
204.53	24425
204.748	-1039.01
204.967	3842.38
205.185	670.14
205.404	325.63
205.622	290.55
205.841	209.68
206.059	267.76
206.278	194.13
206.496	170.65
206.715	177.26
206.933	208.92
207.151	195.26
207.37	178.21
207.588	201.83
207.806	238.36
208.025	232.45
208.243	229.29
208.461	261.62
208.68	361.45
208.898	-561.68
209.116	-985.33
209.335	1902.18
209.553	-1190.38
209.771	475.13
209.989	187.33
210.208	221.1
210.426	177.26
210.644	195.37
210.862	140.63
211.081	126.35
211.299	85.07
211.517	113.62
211.735	128.15
211.953	128.35
212.171	156.47
212.39	382.05
212.608	406.28
212.826	607.7
213.044	581.9
213.262	563.39
213.48	-24019.4
213.698	-1332.52
213.916	540.07
214.134	-882.39
214.352	-205.32
214.57	-237.97
214.788	2745.64
215.006	874.17
215.224	775.66
215.442	674.97
215.66	749
215.878	517.07
216.096	210.99
216.314	258.26
216.532	186.63
216.75	160.35
216.968	182.2
217.185	183.74
217.403	191.53
217.621	187.3
217.839	190.35
218.057	201.67
218.275	211.82
218.492	237.69
218.71	246.7
218.928	285.7
219.146	289.86
219.363	288.34
219.581	234.65
219.799	257.01
220.017	255.85
220.234	238.77
220.452	165.36
220.67	136.37
220.887	153.53
221.105	171.19
221.323	144.22
221.54	158.39
221.758	151.82
221.976	149.07
222.193	120.93
222.411	121.34
222.629	123.31
222.846	157.1
223.064	150.84
223.281	162.37
223.499	160.64
223.716	173.7
223.934	154.86
224.151	150.17
224.369	151.58
224.586	182.85
224.804	157.9
225.021	172.13
225.239	152.23
225.456	149.19
225.674	128.6
225.891	117.45
226.108	119.05
226.326	116.87
226.543	104.48
226.76	97.09
226.978	79.09
227.195	75.12
227.413	55.02
227.63	52.25
227.847	51
228.064	52.47
228.282	46.56
228.499	47.04
228.716	43.8
228.934	43.42
229.151	44.34
229.368	41.95
229.585	40.06
229.802	41.48
230.02	42.46
230.237	41.91
230.454	40.68
230.671	45.03
230.888	40.83
231.105	42.38
231.323	38.69
231.54	35.61
231.757	37.98
231.974	40.41
232.191	39.31
232.408	38.01
232.625	37.6
232.842	37.58
233.059	33.15
233.276	40.74
233.493	40.91
233.71	44.13
233.927	46.53
234.144	44.33
234.361	44.87
234.578	47.74
234.795	47.28
235.012	48.35
235.229	48.64
235.446	45.73
235.663	42.83
235.879	38.21
236.096	40.12
236.313	38.82
236.53	41.94
236.747	44.28
236.964	43.29
237.181	45.48
237.397	43.69
237.614	42
237.831	50.04
238.048	48
238.264	48.92
238.481	45.76
238.698	40.93
238.915	40.46
239.131	39.97
239.348	39.54
239.565	37.51
239.781	37.88
239.998	39.66
240.215	36.82
240.431	31.44
240.648	28.31
240.865	29.94
241.081	30.98
241.298	30.35
241.514	28.81
241.731	25.97
241.947	23.82
242.164	21.79
242.38	18.56
242.597	17.55
242.814	20.74
243.03	21.71
243.246	22.37
243.463	21.3
243.679	20.34
243.896	19.41
244.112	19.69
244.329	21.42
244.545	23.33
244.762	24.85
244.978	23.89
245.194	22.36
245.411	21.43
245.627	22.75
245.843	22.55
246.06	21.62
246.276	20.21
246.492	19.32
246.709	18.81
246.925	19.05
247.141	19
247.357	18.66
247.574	18.59
247.79	18.13
248.006	16.17
248.222	17
248.439	16.75
248.655	16.24
248.871	16.76
249.087	16.78
249.303	15.6
249.519	15.92
249.736	17.05
249.952	16.3
250.168	19.92
250.384	20.28
250.6	18.07
250.816	18.28
251.032	19.42
251.248	18.92
251.464	17.18
251.68	19.43
251.896	19.23
252.112	15.88
252.328	18.2
252.544	16.21
252.76	15.69
252.976	15.62
253.192	16.14
253.408	18.77
253.624	20.08
253.84	21.41
254.056	20.21
254.272	19.54
254.487	24.18
254.703	22.59
254.919	22.68
255.135	25.16
255.351	26.8
255.567	25.91
255.782	19.8
255.998	18.86
256.214	19.88
256.43	17.38
256.646	21.27
256.861	19.14
257.077	20.11
257.293	19.93
257.508	20.89
257.724	21.05
257.94	20.9
258.155	21.85
258.371	21.58
258.587	19.19
258.802	18.97
259.018	15.56
259.234	14.46
259.449	13.51
259.665	13.13
259.88	12.19
260.096	11.66
260.312	11.47
260.527	11.48
260.743	11.5
260.958	11.64
261.174	12.43
261.389	12.61
261.605	14.16
261.82	14.5
262.036	14.91
262.251	14.86
262.466	14.41
262.682	15.76
262.897	15.73
263.113	13.95
263.328	15.03
263.543	13.53
263.759	15.79
263.974	13.56
264.189	15.23
264.405	16.73
264.62	20.89
264.835	21.92
265.051	20.81
265.266	22.27
265.481	24.78
265.696	25.67
265.912	26.98
266.127	24.86
266.342	24.33
266.557	20.81
266.773	19.32
266.988	17.32
267.203	18.54
267.418	19.94
267.633	18.95
267.848	16.9
268.064	14.26
268.279	12.9
268.494	12.78
268.709	13.46
268.924	15.06
269.139	14.1
269.354	14.85
269.569	15.24
269.784	13.67
269.999	14.91
270.214	16.13
270.429	18.01
270.644	17.94
270.859	17.72
271.074	17.77
271.289	17.34
271.504	18.13
271.719	17.16
271.934	15.63
272.149	15.22
272.363	15.11
272.578	15.42
272.793	15.08
273.008	15.8
273.223	16.48
273.438	15.46
273.653	15.71
273.867	15.45
274.082	15.53
274.297	15.9
274.512	17.33
274.726	16.08
274.941	15.14
275.156	15.1
275.371	13.93
275.585	15.03
275.8	16.16
276.015	16.79
276.229	16.28
276.444	15.44
276.659	15.32
276.873	13.52
277.088	14.37
277.302	14.6
277.517	13.52
277.732	13.15
277.946	11.49
278.161	13.47
278.375	13.44
278.59	13.37
278.804	13.35
279.019	13.88
279.233	14.27
279.448	13.82
279.662	14.3
279.877	14.94
280.091	15.36
280.306	15.3
280.52	13.18
280.735	13.02
280.949	12.63
281.163	13.18
281.378	13.33
281.592	13.53
281.806	12.7
282.021	13.19
282.235	13.04
282.449	14.21
282.664	14.85
282.878	15.93
283.092	15.1
283.307	16.61
283.521	16.84
283.735	15.81
283.949	14.49
284.164	15.59
284.378	14.57
284.592	14.58
284.806	13.53
285.02	12.01
285.234	10.24
285.449	10.37
285.663	9.89
285.877	10.51
286.091	10.93
286.305	12.01
286.519	10.83
286.733	10.96
286.947	10.67
287.161	10.46
287.375	11.27
287.589	12.99
287.803	12.47
288.017	12.06
288.231	11.45
288.445	11.4
288.659	11.26
288.873	11.66
289.087	12.74
289.301	13.47
289.515	13.72
289.729	14.7
289.943	13.87
290.157	14.45
290.371	14.34
290.584	14.27
290.798	14.37
291.012	15.29
291.226	16.96
291.44	17.1
291.654	17.69
291.867	17.64
292.081	15.49
292.295	16.14
292.509	15.58
292.722	16.12
292.936	16.17
293.15	16.42
293.364	16.11
293.577	15.02
293.791	14.98
294.005	15.03
294.218	14.97
294.432	16.88
294.645	16.75
294.859	17.05
295.073	16.41
295.286	16.14
295.5	15.94
295.713	15.76
295.927	15.59
296.14	14.42
296.354	13.28
296.568	13.67
296.781	13.83
296.994	13.7
297.208	13.75
297.421	14.35
297.635	14.45
297.848	13.57
298.062	13.27
298.275	12.94
298.489	13.01
298.702	13.97
298.915	13.43
299.129	13.47
299.342	13.45
299.555	13.47
299.769	13.74
299.982	14.34
300.195	15.32
300.409	15.06
300.622	15.39
300.835	15.87
301.048	14.96
301.262	15.75
301.475	15.87
301.688	16.28
301.901	16.1
302.115	16.7
302.328	16.19
302.541	16.88
302.754	16.43
302.967	16.89
303.18	16.42
303.393	16.42
303.607	16.08
303.82	15.51
304.033	13.73
304.246	13.73
304.459	13.21
304.672	13.83
304.885	12.7
305.098	14
305.311	14.33
305.524	14.52
305.737	15.24
305.95	16.78
306.163	15.52
306.376	16.85
306.589	17.2
306.802	15.92
307.015	14.99
307.228	16.53
307.44	15.88
307.653	15.81
307.866	15.61
308.079	14.56
308.292	13.41
308.505	14.31
308.718	14.67
308.93	14.8
309.143	14.95
309.356	14.23
309.569	13.69
309.781	15.14
309.994	13.37
310.207	13.58
310.42	13.17
310.632	12.64
310.845	12.53
311.058	11.33
311.27	10.61
311.483	11.23
311.696	11.74
311.908	11.48
312.121	10
312.333	11.52
312.546	11.75
312.759	12.29
312.971	12.42
313.184	13.25
313.396	13.9
313.609	15.13
313.821	15.59
314.034	16.54
314.246	17.12
314.459	18.56
314.671	17.9
314.884	17.24
315.096	17.51
315.309	18.09
315.521	17.95
315.733	18.08
315.946	16.73
316.158	16.85
316.371	15.3
316.583	14.36
316.795	14.02
317.008	14.89
317.22	14.38
317.432	15.4
317.644	14.73
317.857	13.81
318.069	14.47
318.281	14.37
318.494	13.07
318.706	13.8
318.918	14.08
319.13	14.51
319.342	13.82
319.555	14.58
319.767	14.01
319.979	14.43
320.191	15.21
320.403	15.45
320.615	15.75
320.827	16.3
321.039	17.26
321.252	17.11
321.464	16.2
321.676	16.69
321.888	17.15
322.1	17.33
322.312	17.23
322.524	16.57
322.736	15.86
322.948	16.7
323.16	16.07
323.372	15.42
323.584	16.43
323.796	17.52
324.007	17.53
324.219	18.14
324.431	18.69
324.643	18.57
324.855	19.04
325.067	19.96
325.279	19.39
325.491	20.48
325.702	20.42
325.914	19.76
326.126	19.18
326.338	19.51
326.55	17.97
326.761	17.53
326.973	18.23
327.185	18.33
327.396	17.35
327.608	17.91
327.82	16.91
328.032	16.97
328.243	15.75
328.455	15.33
328.666	15.16
328.878	15.7
329.09	15.26
329.301	14.06
329.513	14.59
329.725	15.12
329.936	14.6
330.148	15.96
330.359	16.16
330.571	17.41
330.782	17.84
330.994	17.52
331.205	17.39
331.417	17.57
331.628	19.07
331.84	19.5
332.051	19.2
332.262	19.26
332.474	18.79
332.685	18.78
332.897	18.87
333.108	19.01
333.319	18.79
333.531	18.92
333.742	18.29
333.953	16.7
334.165	15.52
334.376	15.85
334.587	15.72
334.799	15.16
335.01	15.33
335.221	14.8
335.432	13.72
335.644	13.28
335.855	13.43
336.066	13.88
336.277	13.85
336.488	14.65
336.7	14.39
336.911	14.04
337.122	14.16
337.333	14.57
337.544	15.35
337.755	15.37
337.966	15.52
338.177	14.94
338.388	14.33
338.599	15.4
338.811	14.22
339.022	13.93
339.233	13.53
339.444	12.73
339.655	12.1
339.866	12.64
340.076	11.77
340.287	12.23
340.498	12.7
340.709	13.79
340.92	13.38
341.131	12.88
341.342	13.08
341.553	14.53
341.764	15.81
341.975	15.3
342.185	14.21
342.396	14.87
342.607	14.98
342.818	15.53
343.029	14.63
343.239	14.06
343.45	14.07
343.661	14.27
343.872	14.09
344.082	14.16
344.293	14.59
344.504	16.04
344.714	16.19
344.925	15.99
345.136	15.16
345.346	15.76
345.557	15.83
345.768	17.39
345.978	16.85
346.189	16.25
346.399	15.45
346.61	15.34
346.821	14.14
347.031	14.22
347.242	13.68
347.452	14.03
347.663	13.8
347.873	13.99
348.084	13.17
348.294	13.5
348.504	13.23
348.715	13.55
348.925	12.76
349.136	12.35
349.346	12.26
349.557	12.53
349.767	12.23
349.977	11.25
350.188	11.82
350.398	12.03
350.608	12.09
350.819	11.73
351.029	11.07
351.239	12.28
351.449	12.52
351.66	12.26
351.87	11.88
352.08	12.09
352.29	12.9
352.501	12.12
352.711	12.2
352.921	12.63
353.131	13.71
353.341	14.28
353.552	12.99
353.762	13.02
353.972	13.09
354.182	14.47
354.392	14.9
354.602	14.99
354.812	15.46
355.022	15.5
355.232	14.55
355.442	14.5
355.652	14.35
355.862	15.33
356.072	15.35
356.282	15.53
356.492	14.28
356.702	13.55
356.912	13.83
357.122	13.39
357.332	12.51
357.542	12.66
357.752	12.15
357.962	12.19
358.171	11.83
358.381	12.1
358.591	11.65
358.801	12
359.011	12.2
359.221	11.97
359.43	12.26
359.64	12.23
359.85	12.06
360.06	11.79
360.269	11.23
360.479	10.72
360.689	10.3
360.899	10.45
361.108	10.2
361.318	10.32
361.528	9.76
361.737	9.6
361.947	9.65
362.156	9.67
362.366	10.15
362.576	10.33
362.785	10.68
362.995	10.57
363.204	10.49
363.414	10.47
363.623	10.07
363.833	10.42
364.042	10.19
364.252	9.87
364.461	9.99
364.671	9.92
364.88	9.34
365.09	9.49
365.299	9.59
365.509	9.51
365.718	10.07
365.927	10.45
366.137	10.67
366.346	11.28
366.555	11.7
366.765	11.56
366.974	11.29
367.183	12.09
367.393	11.97
367.602	12.03
367.811	12.36
368.021	11.97
368.23	12.16
368.439	11.94
368.648	11.58
368.857	11.7
369.067	11.97
369.276	12.31
369.485	12.27
369.694	12.15
369.903	12.6
370.112	12.58
370.321	12.71
370.531	11.57
370.74	11.07
370.949	10.36
371.158	10.11
371.367	9.81
371.576	9.7
371.785	9.15
371.994	9.11
372.203	8.44
372.412	8.43
372.621	8.01
372.83	8.38
373.039	8.72
373.248	9.14
373.457	9.31
373.666	9.82
373.874	9.41
374.083	9.69
374.292	9.75
374.501	9.98
374.71	9.77
374.919	9.91
375.128	10.03
375.336	10
375.545	10.43
375.754	10.05
375.963	9.57
376.171	9.74
376.38	10.18
376.589	10.18
376.798	9.7
377.006	9.61
377.215	9.7
377.424	9.8
377.632	9.58
377.841	9.17
378.05	9.52
378.258	9.63
378.467	9.61
378.675	8.99
378.884	9.12
379.093	9.34
379.301	9.63
379.51	9.7
379.718	9.61
379.927	9.84
380.135	9.84
380.344	9.99
380.552	10
380.761	10.16
380.969	10.41
381.177	10.33
381.386	9.73
381.594	9.36
381.803	8.88
382.011	8.97
382.219	8.95
382.428	8.99
382.636	9.11
382.845	8.54
383.053	8.19
383.261	7.94
383.469	8.04
383.678	9.15
383.886	8.67
384.094	8.93
384.302	8.72
384.511	8.53
384.719	8.55
384.927	8.17
385.135	8.96
385.343	9.66
385.552	9.87
385.76	9.76
385.968	9.18
386.176	9.88
386.384	9.65
386.592	9.58
386.8	10.1
387.008	9.91
387.216	9.76
387.424	9.34
387.633	8.55
387.841	8.46
388.049	8.53
388.257	8.78
388.465	8.74
388.672	8.96
388.88	9.33
389.088	8.89
389.296	8.76
389.504	9.23
389.712	9.6
389.92	9.75
390.128	9.86
390.336	9.35
390.544	9.16
390.751	9
390.959	9.1
391.167	8.86
391.375	8.86
391.583	8.98
391.79	8.48
391.998	8.2
392.206	8.37
392.414	8.05
392.621	8.52
392.829	8.43
393.037	8.35
393.244	8.21
393.452	8.21
393.66	8.06
393.867	8.33
394.075	8.41
394.283	8.4
394.49	8
394.698	8.39
394.905	8.1
395.113	8.26
395.32	8.38
395.528	8.43
395.735	8.42
395.943	8.45
396.15	8.25
396.358	8.42
396.565	7.91
396.773	8.09
396.98	8.03
397.188	8.15
397.395	8.01
397.602	8.22
397.81	8.28
398.017	8.47
398.225	8.77
398.432	8.87
398.639	8.66
398.847	9.23
399.054	9.01
399.261	9.08
399.468	8.91
399.676	9.23
399.883	9.18
400.09	8.94
400.297	8.75
400.505	8.36
400.712	8.32
400.919	8.6
401.126	8.43
401.333	8.99
401.54	8.77
401.748	8.91
401.955	8.66
402.162	8.73
402.369	8.8
402.576	8.71
402.783	8.61
402.99	8.58
403.197	8.3
403.404	8.44
403.611	8.32
403.818	8.23
404.025	7.93
404.232	7.73
404.439	7.39
404.646	7.52
404.853	7.65
405.06	8.08
405.267	8.15
405.474	7.98
405.681	7.83
405.887	7.88
406.094	8.1
406.301	8.35
406.508	8.39
406.715	8.51
406.922	8.21
407.128	8.23
407.335	7.89
407.542	7.83
407.749	8.23
407.955	8.44
408.162	8.33
408.369	8.46
408.575	8.56
408.782	8.54
408.989	8.54
409.195	8.95
409.402	9.01
409.609	8.88
409.815	8.54
410.022	8.43
410.228	8.02
410.435	7.84
410.642	7.43
410.848	7.36
411.055	7.56
411.261	7.6
411.468	7.7
411.674	7.39
411.881	7.57
412.087	7.91
412.294	7.83
412.5	8.12
412.706	8.16
412.913	8.1
413.119	8.08
413.326	7.81
413.532	7.59
413.738	7.1
413.945	6.86
414.151	6.8
414.357	6.79
414.564	6.88
414.77	6.78
414.976	7.01
415.182	7.14
415.389	7.15
415.595	7.19
415.801	7.28
416.007	7.35
416.214	7.63
416.42	7.67
416.626	7.45
416.832	7.35
417.038	7.27
417.244	7.06
417.45	7.14
417.657	6.92
417.863	7.02
418.069	6.95
418.275	6.77
418.481	6.84
418.687	6.73
418.893	6.86
419.099	6.78
419.305	6.87
419.511	6.9
419.717	6.76
419.923	6.76
420.129	6.5
420.335	6.52
420.541	6.43
420.746	6.26
420.952	6.27
421.158	6.18
421.364	6.16
421.57	6.23
421.776	6.11
421.982	6.19
422.187	6.19
422.393	6.33
422.599	6.4
422.805	6.52
423.01	6.67
423.216	6.7
423.422	6.8
423.628	6.83
423.833	6.64
424.039	6.42
424.245	6.38
424.45	6.38
424.656	6.39
424.862	6.31
425.067	6.27
425.273	6.27
425.478	6.25
425.684	6
425.889	6.12
426.095	6.19
426.301	6.58
426.506	6.62
426.712	6.63
426.917	6.58
427.123	6.62
427.328	6.83
427.533	6.69
427.739	6.73
427.944	6.81
428.15	6.52
428.355	6.63
428.561	6.62
428.766	6.44
428.971	6.46
429.177	6.67
429.382	6.7
429.587	6.69
429.793	6.81
429.998	6.7
430.203	6.96
430.408	7.12
430.614	6.91
430.819	6.73
431.024	6.58
431.229	6.5
431.434	6.5
431.64	6.43
431.845	6.51
432.05	6.49
432.255	6.56
432.46	6.59
432.665	6.62
432.87	6.67
433.076	6.68
433.281	6.9
433.486	7
433.691	6.91
433.896	6.95
434.101	6.69
434.306	6.77
434.511	6.92
434.716	6.8
434.921	6.75
435.126	6.95
435.331	7.01
435.535	7.03
435.74	7.02
435.945	7.15
436.15	7.06
436.355	7.16
436.56	6.98
436.765	7.13
436.97	7.13
437.174	6.98
437.379	6.91
437.584	7.09
437.789	7.04
437.993	7.05
438.198	6.91
438.403	6.96
438.608	6.94
438.812	6.82
439.017	6.43
439.222	6.45
439.426	6.46
439.631	6.35
439.836	6.19
440.04	6.13
440.245	6.16
440.45	6.13
440.654	6.13
440.859	6.04
441.063	6.18
441.268	6.35
441.472	6.4
441.677	6.56
441.881	6.64
442.086	6.76
442.29	6.76
442.495	6.84
442.699	6.9
442.904	6.9
443.108	6.88
443.312	6.85
443.517	6.77
443.721	6.66
443.925	6.59
444.13	6.4
444.334	6.21
444.538	6.28
444.743	6.11
444.947	5.97
445.151	5.93
445.356	6
445.56	6.12
445.764	6.22
445.968	6.25
446.173	6.2
446.377	6.21
446.581	6.26
446.785	6.27
446.989	6.24
447.193	6.39
447.398	6.53
447.602	6.54
447.806	6.56
448.01	6.52
448.214	6.47
448.418	6.51
448.622	6.63
448.826	6.66
449.03	6.58
449.234	6.72
449.438	6.49
449.642	6.5
449.846	6.51
450.05	6.4
450.254	6.26
450.458	6.18
450.662	6.13
450.866	6.03
451.069	5.97
451.273	5.9
451.477	5.86
451.681	5.98
451.885	5.86
452.089	5.77
452.292	5.65
452.496	5.74
452.7	5.78
452.904	5.89
453.107	6.01
453.311	6.09
453.515	6.15
453.719	6.03
453.922	6.05
454.126	5.99
454.33	6.11
454.533	6.17
454.737	6.2
454.94	6.04
455.144	6
455.348	5.99
455.551	5.83
455.755	6.15
455.958	6.17
456.162	6.06
456.365	6.02
456.569	5.91
456.772	6.06
456.976	6.01
457.179	6.31
457.383	6.12
457.586	6.17
457.79	6.22
457.993	6.22
458.196	6.23
458.4	6.39
458.603	6.47
458.807	6.46
459.01	6.43
459.213	6.37
459.417	6.3
459.62	6.48
459.823	6.33
460.026	6.31
460.23	6.17
460.433	6.1
460.636	6.03
460.839	5.92
461.042	5.94
461.246	5.89
461.449	5.91
461.652	5.92
461.855	5.86
462.058	5.95
462.261	5.98
462.464	5.96
462.668	5.91
462.871	5.89
463.074	5.99
463.277	5.81
463.48	5.8
463.683	5.79
463.886	5.8
464.089	5.75
464.292	5.71
464.495	5.69
464.698	5.66
464.901	5.87
465.104	6
465.306	5.98
465.509	6.26
465.712	6.17
465.915	6.36
466.118	6.36
466.321	6.31
466.524	6.3
466.726	6.32
466.929	6.54
467.132	6.43
467.335	6.36
467.538	6.4
467.74	6.2
467.943	6.34
468.146	6.22
468.348	6.15
468.551	6.17
468.754	6.17
468.956	6.2
469.159	5.97
469.362	6.08
469.564	6.07
469.767	6.12
469.969	6.3
470.172	6.24
470.375	6.07
470.577	6.21
470.78	6.27
470.982	6.26
471.185	6.14
471.387	6.2
471.59	6.34
471.792	6.24
471.995	6.09
472.197	6.13
472.399	6.27
472.602	6.53
472.804	6.43
473.007	6.4
473.209	6.4
473.411	6.41
473.614	6.49
473.816	6.33
474.018	6.53
474.22	6.59
474.423	6.61
474.625	6.45
474.827	6.31
475.03	6.41
475.232	6.35
475.434	6.35
475.636	6.57
475.838	6.48
476.04	6.39
476.243	6.42
476.445	6.34
476.647	6.35
476.849	6.2
477.051	6.26
477.253	6.23
477.455	6.3
477.657	6.19
477.859	6.02
478.061	6.01
478.263	6.14
478.465	6.06
478.667	6.07
478.869	6.05
479.071	6.28
479.273	6.22
479.475	6.09
479.677	6.11
479.879	6.27
480.081	6.35
480.283	6.23
480.485	6.07
480.686	6.08
480.888	6.16
481.09	6.09
481.292	5.79
481.494	5.73
481.695	5.82
481.897	5.67
482.099	5.5
482.301	5.45
482.502	5.45
482.704	5.45
482.906	5.44
483.107	5.33
483.309	5.31
483.511	5.38
483.712	5.38
483.914	5.33
484.115	5.35
484.317	5.43
484.519	5.4
484.72	5.41
484.922	5.43
485.123	5.42
485.325	5.45
485.526	5.5
485.728	5.44
485.929	5.42
486.131	5.47
486.332	5.48
486.534	5.36
486.735	5.39
486.936	5.4
487.138	5.34
487.339	5.31
487.541	5.34
487.742	5.28
487.943	5.34
488.144	5.41
488.346	5.38
488.547	5.4
488.748	5.5
488.95	5.49
489.151	5.52
489.352	5.59
489.553	5.65
489.755	5.66
489.956	5.64
490.157	5.67
490.358	5.71
490.559	5.7
490.76	5.69
490.961	5.6
491.163	5.63
491.364	5.55
491.565	5.53
491.766	5.6
491.967	5.63
492.168	5.74
492.369	5.77
492.57	5.72
492.771	5.73
492.972	5.76
493.173	5.89
493.374	5.92
493.575	6.11
493.776	6.17
493.976	6.1
494.177	6.06
494.378	6.04
494.579	6.1
494.78	6.17
494.981	6.14
495.182	6.15
495.382	6.15
495.583	6.15
495.784	6.12
495.985	6.06
496.185	6.17
496.386	6.15
496.587	6.16
496.788	6.33
496.988	6.26
497.189	6.36
497.39	6.39
497.59	6.39
497.791	6.48
497.992	6.39
498.192	6.41
498.393	6.46
498.593	6.56
498.794	6.49
498.994	6.38
499.195	6.33
499.395	6.41
499.596	6.45
499.796	6.4
499.997	6.33
500.197	6.36
500.398	6.47
500.598	6.43
500.799	6.41
500.999	6.46
501.199	6.29
501.4	6.5
501.6	6.44
501.801	6.43
502.001	6.56
502.201	6.68
502.402	6.83
502.602	6.65
502.802	6.68
503.002	6.86
503.203	6.91
503.403	6.99
503.603	6.87
503.803	6.89
504.003	6.85
504.204	6.86
504.404	6.73
504.604	6.73
504.804	7.15
505.004	7.15
505.204	7.05
505.404	7.06
505.604	7.17
505.804	7.18
506.005	7.17
506.205	7.19
506.405	7.11
506.605	7.16
506.805	7.21
507.005	7.02
507.204	6.97
507.404	6.84
507.604	6.92
507.804	6.95
508.004	7.2
508.204	7.26
508.404	7.35
508.604	7.42
508.804	7.47
509.003	7.46
509.203	7.45
509.403	7.53
509.603	7.74
509.803	7.78
510.002	7.78
510.202	7.76
510.402	7.88
510.602	7.88
510.801	7.78
511.001	7.81
511.201	7.75
511.4	7.69
511.6	7.62
511.8	7.47
511.999	7.49
512.199	7.55
512.398	7.54
512.598	7.47
512.797	7.59
512.997	7.62
513.197	7.65
513.396	7.73
513.596	7.83
513.795	7.97
513.994	8.16
514.194	8.21
514.393	8.26
514.593	8.17
514.792	8.42
514.992	8.45
515.191	8.82
515.39	8.84
515.59	8.79
515.789	8.99
515.988	8.97
516.188	8.99
516.387	9.03
516.586	8.93
516.786	8.96
516.985	8.74
517.184	8.7
517.383	8.62
517.582	8.59
517.782	8.63
517.981	8.46
518.18	8.44
518.379	8.49
518.578	8.41
518.777	8.41
518.976	8.48
519.176	8.6
519.375	8.54
519.574	8.61
519.773	8.52
519.972	8.53
520.171	8.68
520.37	8.85
520.569	8.79
520.768	8.88
520.967	8.92
521.166	8.91
521.365	8.8
521.564	8.96
521.762	8.88
521.961	9.14
522.16	9.23
522.359	9.21
522.558	9.07
522.757	9.16
522.956	9.23
523.154	9.29
523.353	9.31
523.552	9.28
523.751	9.25
523.949	9.21
524.148	9.2
524.347	9.24
524.546	9.38
524.744	9.46
524.943	9.57
525.142	9.57
525.34	9.53
525.539	9.58
525.737	9.69
525.936	9.79
526.135	9.87
526.333	9.94
526.532	9.9
526.73	9.79
526.929	9.7
527.127	9.62
527.326	9.55
527.524	9.55
527.723	9.49
527.921	9.57
528.12	9.53
528.318	9.47
528.516	9.47
528.715	9.45
528.913	9.47
529.112	9.54
529.31	9.56
529.508	9.67
529.707	9.73
529.905	9.84
530.103	9.81
530.301	9.81
530.5	9.92
530.698	9.95
530.896	10.03
531.094	10.1
531.293	10.12
531.491	10.17
531.689	10.21
531.887	10.28
532.085	10.25
532.283	10.35
532.481	10.33
532.68	10.26
532.878	10.31
533.076	10.41
533.274	10.5
533.472	10.56
533.67	10.58
533.868	10.66
534.066	10.71
534.264	10.83
534.462	10.83
534.66	10.92
534.858	10.99
535.056	11
535.253	10.96
535.451	10.97
535.649	11.05
535.847	11.04
536.045	11.04
536.243	10.98
536.441	10.95
536.638	11.01
536.836	11.11
537.034	11.2
537.232	11.28
537.43	11.43
537.627	11.43
537.825	11.5
538.023	11.66
538.22	11.72
538.418	11.89
538.616	12.02
538.813	12.09
539.011	12.2
539.209	12.25
539.406	12.22
539.604	12.34
539.801	12.42
539.999	12.37
540.196	12.37
540.394	12.37
540.591	12.27
540.789	12.26
540.986	12.2
541.184	12.11
541.381	12.19
541.579	12.24
541.776	12.21
541.974	12.18
542.171	12.25
542.368	12.32
542.566	12.28
542.763	12.35
542.96	12.35
543.158	12.37
543.355	12.49
543.552	12.49
543.75	12.7
543.947	12.76
544.144	12.82
544.341	12.82
544.539	12.79
544.736	12.75
544.933	12.78
545.13	13
545.327	13.18
545.524	13.28
545.722	13.43
545.919	13.25
546.116	13.25
546.313	13.36
546.51	13.5
546.707	13.77
546.904	14.03
547.101	14.18
547.298	14.13
547.495	14.14
547.692	14.14
547.889	14.11
548.086	14.31
548.283	14.54
548.48	14.7
548.677	14.66
548.874	14.56
549.07	14.4
549.267	14.65
549.464	14.77
549.661	14.83
549.858	14.87
550.055	15.08
550.251	15.29
550.448	15.26
550.645	15.5
550.842	15.65
551.038	15.84
551.235	16.11
551.432	15.99
551.628	15.91
551.825	16.18
552.022	16.35
552.218	16.28
552.415	16.18
552.612	16.19
552.808	15.95
553.005	16.02
553.201	15.96
553.398	16.02
553.594	16.19
553.791	16.45
553.987	16.29
554.184	16.34
554.38	16.46
554.577	16.75
554.773	17
554.97	17.21
555.166	17.35
555.362	17.43
555.559	17.62
555.755	17.64
555.952	17.65
556.148	17.9
556.344	18.14
556.541	18.23
556.737	18.12
556.933	18.29
557.129	18.5
557.326	18.54
557.522	18.83
557.718	18.9
557.914	18.94
558.11	19.04
558.307	19.18
558.503	19.25
558.699	19.45
558.895	19.51
559.091	19.49
559.287	19.62
559.483	19.9
559.679	19.75
559.876	19.84
560.072	20.07
560.268	20.17
560.464	20.02
560.66	19.94
560.856	20.1
561.052	20.16
561.247	20.18
561.443	20.27
561.639	20.16
561.835	20.41
562.031	20.6
562.227	20.57
562.423	20.67
562.619	21.01
562.815	21.35
563.01	21.31
563.206	21.5
563.402	21.55
563.598	21.72
563.793	21.63
563.989	21.73
564.185	21.9
564.381	22.11
564.576	22.02
564.772	21.95
564.968	21.86
565.163	22
565.359	22.09
565.555	22.29
565.75	22.34
565.946	22.71
566.141	22.7
566.337	22.64
566.532	22.79
566.728	23.13
566.923	23.35
567.119	23.52
567.314	23.72
567.51	23.89
567.705	23.77
567.901	23.77
568.096	23.74
568.292	23.89
568.487	24.02
568.682	23.85
568.878	23.72
569.073	23.83
569.268	23.87
569.464	23.92
569.659	23.94
569.854	24.11
570.05	24.18
570.245	24.37
570.44	24.47
570.635	24.61
570.831	25.04
571.026	25.27
571.221	25.49
571.416	25.54
571.611	25.53
571.806	25.63
572.002	25.78
572.197	25.84
572.392	25.94
572.587	26.15
572.782	26.22
572.977	26.09
573.172	26.23
573.367	26.2
573.562	26.38
573.757	26.63
573.952	26.75
574.147	27.02
574.342	27.26
574.537	27.41
574.732	27.3
574.927	27.46
575.121	27.59
575.316	27.8
575.511	27.92
575.706	28
575.901	27.92
576.096	27.94
576.29	27.9
576.485	27.95
576.68	28.14
576.875	28.31
577.069	28.44
577.264	28.57
577.459	28.41
577.654	28.38
577.848	28.44
578.043	28.62
578.238	28.88
578.432	28.95
578.627	28.94
578.821	28.8
579.016	29.08
579.21	29.09
579.405	29.22
579.6	29.4
579.794	29.68
579.989	29.77
580.183	29.49
580.378	29.44
580.572	29.44
580.766	29.51
580.961	29.62
581.155	29.6
581.35	29.58
581.544	29.66
581.738	29.67
581.933	29.6
582.127	29.7
582.321	29.94
582.516	29.81
582.71	29.8
582.904	30.03
583.099	29.89
583.293	30.05
583.487	29.98
583.681	30.07
583.875	30.18
584.07	30.46
584.264	30.76
584.458	31.05
584.652	31.37
584.846	31.57
585.04	31.58
585.234	32.02
585.428	32
585.623	32.3
585.817	32.45
586.011	32.72
586.205	32.66
586.399	32.42
586.593	32.48
586.787	32.39
586.981	32.25
587.174	32.58
587.368	32.46
587.562	32.54
587.756	32.66
587.95	32.54
588.144	32.49
588.338	32.7
588.532	32.78
588.725	32.79
588.919	33.02
589.113	33.42
589.307	32.88
589.501	32.98
589.694	33.3
589.888	33.24
590.082	33.25
590.275	33.1
590.469	32.88
590.663	33.05
590.856	32.95
591.05	33.01
591.244	33.07
591.437	33.6
591.631	33.62
591.824	33.39
592.018	33.47
592.212	33.71
592.405	33.75
592.599	33.87
592.792	33.97
592.986	34.28
593.179	34.37
593.372	34.29
593.566	34.33
593.759	34.71
593.953	34.77
594.146	34.78
594.339	34.63
594.533	34.8
594.726	35.06
594.92	35.15
595.113	35.17
595.306	35.17
595.499	35.17
595.693	35.12
595.886	34.87
596.079	34.85
596.272	34.87
596.466	35.08
596.659	34.97
596.852	34.91
597.045	34.9
597.238	34.77
597.431	34.72
597.624	34.84
597.818	34.77
598.011	34.85
598.204	34.8
598.397	34.97
598.59	34.99
598.783	35.19
598.976	35.17
599.169	35.1
599.362	35.32
599.555	35.64
599.748	35.68
599.941	35.91
600.134	36.14
600.326	36.2
600.519	36.11
600.712	36
600.905	36.05
601.098	36.18
601.291	36.24
601.483	36.16
601.676	36.01
601.869	35.89
602.062	35.65
602.255	35.47
602.447	35.65
602.64	35.49
602.833	35.49
603.025	35.54
603.218	35.29
603.411	35.35
603.603	35.49
603.796	35.48
603.989	35.57
604.181	35.77
604.374	35.91
604.566	35.88
604.759	36.02
604.951	36.23
605.144	36.15
605.336	36.42
605.529	36.41
605.721	36.37
605.914	36.43
606.106	36.54
606.299	36.67
606.491	36.67
606.683	36.79
606.876	37.02
607.068	36.91
607.26	37.36
607.453	37.46
607.645	37.56
607.837	37.7
608.03	37.7
608.222	37.79
608.414	37.8
608.606	37.79
608.799	37.7
608.991	37.74
609.183	37.73
609.375	37.68
609.567	37.89
609.759	37.97
609.952	37.84
610.144	37.81
610.336	37.71
610.528	37.82
610.72	37.86
610.912	38
611.104	37.8
611.296	38.05
611.488	38.03
611.68	37.81
611.872	37.81
612.064	38.07
612.256	38.24
612.448	38.16
612.64	38.15
612.832	38.09
613.023	38
613.215	38.16
613.407	38.16
613.599	37.96
613.791	38.04
613.983	38.18
614.174	37.99
614.366	37.73
614.558	37.87
614.75	37.55
614.941	37.78
615.133	37.93
615.325	37.89
615.516	37.74
615.708	37.76
615.9	37.75
616.091	37.63
616.283	37.65
616.475	37.73
616.666	37.84
616.858	38.44
617.049	38.44
617.241	38.36
617.432	38.43
617.624	38.55
617.815	38.74
618.007	38.59
618.198	38.73
618.39	38.79
618.581	38.74
618.773	39.01
618.964	38.65
619.155	38.74
619.347	38.91
619.538	39.05
619.729	39.04
619.921	39.13
620.112	39.44
620.303	39.28
620.494	39.49
620.686	39.61
620.877	39.31
621.068	39.57
621.259	39.37
621.451	39.47
621.642	39.45
621.833	39.3
622.024	39.33
622.215	39.27
622.406	39.15
622.597	38.95
622.788	39.4
622.98	39.45
623.171	39.74
623.362	40.14
623.553	40.22
623.744	40.37
623.935	40.78
624.126	40.53
624.317	40.11
624.508	40.35
624.698	40.23
624.889	39.79
625.08	40.05
625.271	39.84
625.462	39.62
625.653	39.55
625.844	39.4
626.034	39.07
626.225	39.36
626.416	39.45
626.607	39.47
626.798	39.71
626.988	39.82
627.179	39.81
627.37	39.78
627.56	40.03
627.751	40.13
627.942	40.02
628.132	40.13
628.323	40.2
628.514	40.52
628.704	40.61
628.895	40.68
629.085	41.03
629.276	40.78
629.466	41.02
629.657	40.33
629.847	40.27
630.038	40.41
630.228	40.47
630.419	40.59
630.609	40.68
630.8	40.86
630.99	40.74
631.181	40.59
631.371	40.82
631.561	40.58
631.752	41.11
631.942	41.13
632.132	40.98
632.323	41.27
632.513	41
632.703	40.91
632.893	40.95
633.084	40.97
633.274	41.09
633.464	41.14
633.654	41.14
633.844	41.12
634.034	41.21
634.225	41.49
634.415	41.11
634.605	41.21
634.795	41.09
634.985	40.96
635.175	40.99
635.365	41.04
635.555	41.11
635.745	41.26
635.935	41.29
636.125	41.01
636.315	41.25
636.505	41.53
636.695	41.53
636.885	41.43
637.075	41.47
637.265	41.88
637.455	41.82
637.644	41.93
637.834	41.34
638.024	41.3
638.214	41.72
638.404	41.28
638.593	41.29
638.783	41.27
638.973	41.49
639.163	41.52
639.352	41.49
639.542	41.49
639.732	41.65
639.921	41.76
640.111	41.77
640.301	41.78
640.49	42.28
640.68	42.43
640.87	42.38
641.059	42.34
641.249	42.16
641.438	41.84
641.628	41.68
641.817	41.45
642.007	41.94
642.196	41.78
642.386	41.49
642.575	41.48
642.764	41.33
642.954	41.25
643.143	41.36
643.333	41.55
643.522	41.68
643.711	41.82
643.901	41.67
644.09	41.61
644.279	42.16
644.469	42.38
644.658	42.24
644.847	42.16
645.036	42.78
645.226	42.95
645.415	42.83
645.604	42.9
645.793	42.93
645.982	42.96
646.171	43.19
646.361	43.28
646.55	43.3
646.739	43.77
646.928	43.87
647.117	43.67
647.306	43.7
647.495	43.8
647.684	43.78
647.873	43.88
648.062	44.28
648.251	44.3
648.44	43.97
648.629	43.72
648.818	43.58
649.007	43.63
649.196	43.34
649.384	43.28
649.573	43.12
649.762	43.06
649.951	42.95
650.14	42.98
650.328	43.09
650.517	43.38
650.706	43.76
650.895	43.69
651.083	43.51
651.272	43.82
651.461	43.96
651.65	44.27
651.838	44.22
652.027	44.28
652.216	44.07
652.404	43.39
652.593	43.42
652.781	43.25
652.97	43.34
653.158	43.42
653.347	43.25
653.535	43.42
653.724	43.46
653.912	43.78
654.101	43.98
654.289	44.04
654.478	44.6
654.666	44.53
654.855	44.42
655.043	44.57
655.231	44.87
655.42	45.2
655.608	44.84
655.796	45.1
655.985	44.57
656.173	44.14
656.361	44.3
656.55	43.49
656.738	43.75
656.926	44.21
657.114	44
657.302	44.19
657.491	43.76
657.679	43.91
657.867	43.52
658.055	44.13
658.243	44.44
658.431	44.34
658.619	45.21
658.807	45.08
658.996	44.9
659.184	44.85
659.372	44.37
659.56	44.4
659.748	44.27
659.936	44.58
660.124	44.23
660.311	44.3
660.499	44.3
660.687	44.16
660.875	44.17
661.063	43.77
661.251	43.87
661.439	44.52
661.627	44.91
661.814	44.82
662.002	44.76
662.19	44.82
662.378	44.55
662.565	44.5
662.753	44.45
662.941	44.41
663.129	44.71
663.316	44.79
663.504	44.75
663.692	44.61
663.879	45.36
664.067	45.53
664.254	45.91
664.442	46.63
664.63	46.65
664.817	46.46
665.005	46.24
665.192	46.24
665.38	45.98
665.567	45.51
665.755	45.14
665.942	44.51
666.13	44.17
666.317	43.85
666.504	43.48
666.692	43.74
666.879	43.92
667.067	44.31
667.254	44.71
667.441	45.36
667.629	45.74
667.816	46.39
668.003	46.44
668.19	46.42
668.378	46.61
668.565	46.33
668.752	46.56
668.939	46.59
669.127	46.51
669.314	46.58
669.501	45.92
669.688	45.85
669.875	45.56
670.062	45.83
670.249	46.51
670.436	46.52
670.623	46.93
670.81	46.76
670.997	46.63
671.184	46.45
671.371	46.73
671.558	47.05
671.745	47
671.932	47.27
672.119	47.41
672.306	46.99
672.493	46.78
672.68	46.63
672.867	46.51
673.054	46.53
673.24	46.59
673.427	46.08
673.614	46.22
673.801	46.09
673.988	45.72
674.174	45.65
674.361	45.36
674.548	45.65
674.734	45.38
674.921	45.42
675.108	45.64
675.294	45.84
675.481	45.52
675.668	45.69
675.854	46.11
676.041	46.24
676.227	46.1
676.414	46.55
676.601	47.01
676.787	47.56
676.974	47.64
677.16	47.75
677.347	47.63
677.533	48.02
677.719	47.7
677.906	47.34
678.092	47.7
678.279	47.67
678.465	47.4
678.651	46.8
678.838	46.96
679.024	46.9
679.21	46.59
679.397	46.46
679.583	46.23
679.769	46.15
679.955	46.14
680.142	45.94
680.328	45.89
680.514	45.73
680.7	45.99
680.886	45.69
681.073	45.73
681.259	45.95
681.445	46.22
681.631	46.5
681.817	46.68
682.003	47.05
682.189	46.75
682.375	46.87
682.561	47.18
682.747	47.03
682.933	47.2
683.119	47.19
683.305	47.05
683.491	47.06
683.677	47.06
683.863	46.48
684.049	46.46
684.235	46.55
684.42	46.86
684.606	46.71
684.792	47.1
684.978	46.83
685.164	46.81
685.349	47.14
685.535	47.43
685.721	47.56
685.907	47.82
686.092	47.76
686.278	48.01
686.464	48.17
686.649	48.43
686.835	47.96
687.021	48.03
687.206	48.2
687.392	48.3
687.577	48.31
687.763	48.39
687.948	48.56
688.134	48.21
688.319	48.68
688.505	48.42
688.69	48.52
688.876	48.49
689.061	48.37
689.247	48.95
689.432	48.54
689.618	48.25
689.803	48.38
689.988	48.92
690.174	49.04
690.359	48.74
690.544	48.26
690.73	48.18
690.915	48.86
691.1	49.19
691.285	48.5
691.471	48.7
691.656	48.51
691.841	48.26
692.026	47.75
692.211	47.97
692.396	47.59
692.582	48.09
692.767	48.04
692.952	47.6
693.137	47.63
693.322	47.65
693.507	47.54
693.692	47.59
693.877	47.34
694.062	47.32
694.247	47.13
694.432	47.24
694.617	47.23
694.802	47.15
694.987	47.11
695.172	46.94
695.357	46.77
695.541	47.23
695.726	47.91
695.911	48.63
696.096	48.36
696.281	48.85
696.466	48.85
696.65	48.19
696.835	48.04
697.02	48.36
697.204	48.51
697.389	49.12
697.574	49.11
697.759	48.89
697.943	48.14
698.128	48.4
698.312	48.21
698.497	48.04
698.682	48.38
698.866	48.22
699.051	48.12
699.235	48.05
699.42	47.74
699.604	47.61
699.789	47.39
699.973	47.45
700.158	47.38
700.342	47.28
700.527	47.43
700.711	47.83
700.895	48.09
701.08	48.46
701.264	48.23
701.448	47.95
701.633	47.9
701.817	48.23
702.001	48.71
702.186	48.87
702.37	49.05
702.554	49.37
702.738	49.5
702.923	49.55
703.107	49.35
703.291	49.9
703.475	49.82
703.659	49.81
703.843	49.61
704.027	49.6
704.212	49.39
704.396	49.85
704.58	50
704.764	49.86
704.948	50.58
705.132	50.07
705.316	50.13
705.5	50.5
705.684	51.33
705.868	51.83
706.052	51.88
706.235	52.31
706.419	51.98
706.603	52.08
706.787	51.55
706.971	51.22
707.155	51.15
707.339	50.96
707.522	50.92
707.706	50.9
707.89	50.25
708.074	50.23
708.257	50.02
708.441	49.93
708.625	49.71
708.808	50.5
708.992	49.89
709.176	50.9
709.359	50.34
709.543	50.6
709.727	49.92
709.91	50.43
710.094	50.23
710.277	50.74
710.461	50.6
710.644	50.76
710.828	50.01
711.011	50.62
711.195	50.05
711.378	50.54
711.562	50.72
711.745	51
711.928	51.45
712.112	50.95
712.295	50.67
712.478	50.55
712.662	50.75
712.845	51.31
713.028	50.96
713.212	50.58
713.395	50.83
713.578	50.85
713.761	50.64
713.945	50.23
714.128	51.39
714.311	51.4
714.494	51.57
714.677	51.24
714.86	51.35
715.043	51.28
715.227	51.36
715.41	51.47
715.593	51.23
715.776	51.07
715.959	50.19
716.142	50.18
716.325	49.83
716.508	49.79
716.691	49.5
716.874	48.93
717.057	48.81
717.239	49.57
717.422	49.52
717.605	49.75
717.788	49.71
717.971	50.68
718.154	49.88
718.337	49.98
718.519	50.72
718.702	50.86
718.885	51.12
719.068	51.38
719.25	51.33
719.433	51.42
719.616	51.54
719.798	50.83
719.981	50.86
720.164	51.04
720.346	50.82
720.529	50.4
720.712	50.95
720.894	51.09
721.077	51.65
721.259	52.03
721.442	52.01
721.624	52.26
721.807	53.12
721.989	52.71
722.172	52.75
722.354	53.73
722.537	53.93
722.719	54.07
722.901	54.13
723.084	53.66
723.266	52.91
723.448	53.59
723.631	53.24
723.813	53.83
723.995	53.78
724.178	53.94
724.36	53.93
724.542	53.7
724.724	53.51
724.907	53.41
725.089	54.03
725.271	54.61
725.453	53.35
725.635	53.48
725.817	53.25
725.999	54.62
726.181	54.32
726.364	54.11
726.546	53.94
726.728	53.8
726.91	53.78
727.092	53.28
727.274	52.36
727.456	53.03
727.638	52.57
727.819	52.63
728.001	51.29
728.183	51.29
728.365	51.11
728.547	51.29
728.729	51.47
728.911	52.12
729.093	51.56
729.274	51.94
729.456	51.2
729.638	51.24
729.82	51.81
730.001	52.33
730.183	51.88
730.365	51.63
730.546	51.14
730.728	51.5
730.91	51.57
731.091	52.25
731.273	51.69
731.455	52.5
731.636	53.33
731.818	52.89
731.999	52.22
732.181	53.14
732.362	53.43
732.544	53.45
732.725	52.62
732.907	52.1
733.088	51.93
733.27	52.77
733.451	52.98
733.633	52.23
733.814	52.19
733.995	52.6
734.177	53.01
734.358	52.59
734.539	52.97
734.721	52.86
734.902	52.4
735.083	52.96
735.264	52.3
735.446	51.23
735.627	51.81
735.808	51.3
735.989	51.6
736.17	51.22
736.351	51.17
736.533	51.1
736.714	52.09
736.895	52.44
737.076	52.52
737.257	53.48
737.438	53.94
737.619	52.83
737.8	53.29
737.981	52.79
738.162	52.2
738.343	52.68
738.524	52.93
738.705	53.33
738.886	52.81
739.067	52.26
739.247	52.77
739.428	52.96
739.609	54.18
739.79	54.36
739.971	54.4
740.151	54.45
740.332	53.82
740.513	54.06
740.694	53.81
740.874	54.02
741.055	54.43
741.236	52.91
741.417	52.22
741.597	50.74
741.778	50.89
741.958	50.67
742.139	51.23
742.32	52.27
742.5	51.74
742.681	51.44
742.861	51.58
743.042	51.73
743.222	52.39
743.403	53.29
743.583	54.54
743.764	54.42
743.944	55.17
744.124	55.46
744.305	55.38
744.485	55.64
744.666	54.98
744.846	55.05
745.026	54.37
745.207	53.54
745.387	53.3
745.567	52.68
745.747	53.14
745.928	52.68
746.108	53.02
746.288	52.59
746.468	51
746.648	52.44
746.829	53.14
747.009	53.77
747.189	54.24
747.369	54.26
747.549	54.68
747.729	53.42
747.909	54.15
748.089	53
748.269	52.79
748.449	54.85
748.629	53.93
748.809	53.72
748.989	53.2
749.169	53.31
749.349	54.06
749.529	54.49
749.709	55.37
749.889	54.76
750.068	55.74
750.248	56.34
750.428	55.12
750.608	54.6
750.788	54.96
750.967	54.61
751.147	55.41
751.327	54.76
751.507	54.73
751.686	54.43
751.866	54.47
752.046	53.79
752.225	54.24
752.405	55.38
752.585	56.96
752.764	55.89
752.944	55.68
753.123	55.3
753.303	55.54
753.482	55.51
753.662	55.24
753.841	55.09
754.021	55.25
754.2	54.81
754.38	54.72
754.559	54.65
754.739	54.48
754.918	54.98
755.097	53.42
755.277	53
755.456	52.61
755.635	53.89
755.815	54.94
755.994	54.4
756.173	54.55
756.352	54.42
756.532	53.37
756.711	54.76
756.89	54.73
757.069	55.55
757.248	54.63
757.427	54.15
757.607	53.03
757.786	53.43
757.965	53.2
758.144	53.68
758.323	53.61
758.502	54.01
758.681	52.75
758.86	52.14
759.039	51.79
759.218	51.78
759.397	52.34
759.576	51.63
759.755	50.67
759.934	51.94
760.113	51.06
760.291	51.21
760.47	51.11
760.649	52
760.828	51.75
761.007	52.74
761.186	53.81
761.364	53.45
761.543	54.24
761.722	53.09
761.901	52.05
762.079	52.36
762.258	52.08
762.437	51.94
762.615	51.64
762.794	52.39
762.972	52.28
763.151	51.85
763.33	52.02
763.508	51.27
763.687	51.71
763.865	51.69
764.044	51.08
764.222	50.67
764.401	50.98
764.579	51.39
764.758	51.32
764.936	51.25
765.114	52.18
765.293	52.05
765.471	52.8
765.65	53.1
765.828	53.7
766.006	54.45
766.184	55.03
766.363	53.86
766.541	53.84
766.719	54.84
766.898	54.63
767.076	54.03
767.254	54.61
767.432	54.25
767.61	54.25
767.788	55.06
767.967	54.1
768.145	54.21
768.323	54.78
768.501	54.82
768.679	54.3
768.857	54.64
769.035	55.03
769.213	54.15
769.391	55.43
769.569	55.73
769.747	55.42
769.925	56.78
770.103	56.7
770.281	57.09
770.459	55.81
770.636	55.9
770.814	54.98
770.992	54.74
771.17	56.02
771.348	56.46
771.525	56.01
771.703	55.8
771.881	55.48
772.059	55.9
772.236	55.55
772.414	56.81
772.592	57.62
772.769	59.23
772.947	60.66
773.125	60.23
773.302	60.28
773.48	60.81
773.657	60.86
773.835	61.17
774.013	61.98
774.19	62.87
774.368	62.87
774.545	62.94
774.723	63.26
774.9	62
775.077	61.43
775.255	60.27
775.432	60.89
775.61	60.01
775.787	60.55
775.964	59.41
776.142	59.7
776.319	60.43
776.496	59.23
776.674	58.02
776.851	58.42
777.028	58.58
777.205	58.1
777.382	59.17
777.56	61.78
777.737	62.99
777.914	62.99
778.091	62.12
778.268	61.98
778.445	61.12
778.622	60.73
778.8	60.56
778.977	61.43
779.154	63.98
779.331	61.82
779.508	60.03
779.685	58.69
779.862	59.32
780.038	59.84
780.215	60.04
780.392	61.8
780.569	63.2
780.746	62.26
780.923	63.41
781.1	61.46
781.277	61.78
781.453	60.35
781.63	61.04
781.807	61.75
781.984	61.59
782.16	61.46
782.337	59.88
782.514	59.15
782.691	60.42
782.867	60.03
783.044	60.02
783.221	60.62
783.397	61.33
783.574	60.04
783.75	58.53
783.927	60.69
784.103	61.76
784.28	61.56
784.456	61.61
784.633	61.32
784.809	60.65
784.986	59.21
785.162	57.86
785.339	59.54
785.515	59.7
785.692	58.83
785.868	57.19
786.044	56.94
786.221	57.99
786.397	57.72
786.573	56.96
786.749	56.23
786.926	58.95
787.102	60.01
787.278	57.42
787.454	57.46
787.631	59.77
787.807	59.61
787.983	57.76
788.159	58.25
788.335	58.44
788.511	58.7
788.687	59.26
788.863	58.52
789.039	59.17
789.216	58.97
789.392	58.8
789.568	58.13
789.744	57.38
789.919	57.27
790.095	56.88
790.271	56.6
790.447	56.41
790.623	56.58
790.799	56.09
790.975	55.77
791.151	57.51
791.327	58.24
791.502	57.36
791.678	58.08
791.854	58.4
792.03	57.78
792.205	58.81
792.381	58.55
792.557	59.1
792.733	59.07
792.908	59.89
793.084	62.11
793.259	64.23
793.435	65.82
793.611	64.01
793.786	63.42
793.962	63.13
794.137	63.8
794.313	62.76
794.488	63.09
794.664	64.02
794.839	63.44
795.015	61.46
795.19	57.92
795.366	55.86
795.541	57.26
795.716	57.85
795.892	59.53
796.067	57.82
796.242	60.72
796.418	58.32
796.593	56.44
796.768	56.18
796.944	57.31
797.119	57.41
797.294	58.93
797.469	60.19
797.644	59.97
797.82	57.98
797.995	58.31
798.17	59.36
798.345	61.02
798.52	61.75
798.695	61.29
798.87	58.73
799.045	59.45
799.22	59.35
799.395	59.15
799.57	60.59
799.745	62.63
799.92	62.09
800.095	59.94
800.27	59.63
800.445	60.95
800.62	61.25
800.795	63.1
800.97	64.21
801.145	64.53
801.319	65.35
801.494	64.58
801.669	64.24
801.844	65.56
802.018	64.03
802.193	63.18
802.368	61.17
802.543	63.3
802.717	65.89
802.892	65.63
803.067	64.36
803.241	62.29
803.416	62.6
803.59	63.72
803.765	63.05
803.94	65.35
804.114	65.08
804.289	67.45
804.463	65.69
804.638	63.24
804.812	62.6
804.986	62.2
805.161	63.52
805.335	63.43
805.51	61.15
805.684	60.93
805.858	59.79
806.033	60.11
806.207	58.99
806.381	60.65
806.556	60.56
806.73	61.05
806.904	62.14
807.078	60.15
807.253	59.58
807.427	59.93
807.601	60.64
807.775	63.31
807.949	64.46
808.123	65.16
808.298	63.05
808.472	65.6
808.646	66.52
808.82	66.99
808.994	66.88
809.168	71.01
809.342	71.02
809.516	73.65
809.69	72.56
809.864	73.15
810.038	74.49
810.212	75.34
810.385	73.86
810.559	74.65
810.733	74.92
810.907	76.05
811.081	72.09
811.255	73.88
811.428	71.95
811.602	72.89
811.776	73.11
811.95	70.98
812.123	70.73
812.297	69.45
812.471	67.36
812.644	65.09
812.818	66.17
812.992	67.89
813.165	67.59
813.339	67.17
813.512	64.13
813.686	63.97
813.86	64.08
814.033	63.35
814.207	62.05
814.38	61.6
814.554	63.75
814.727	63.96
814.9	61.23
815.074	60.01
815.247	62.55
815.421	61.06
815.594	59.54
815.767	58.54
815.941	60.18
816.114	62.6
816.287	65.59
816.46	64.56
816.634	62.9
816.807	64.97
816.98	65.91
817.153	63.16
817.327	62.91
817.5	65.51
817.673	67.54
817.846	67.75
818.019	63.73
818.192	64.63
818.365	68.53
818.538	71.07
818.711	67.59
818.884	67.2
819.057	67.67
819.23	70.15
819.403	67.12
819.576	64.17
819.749	62.33
819.922	62.62
820.095	58.89
820.268	54.68
820.441	51.38
820.614	55.08
820.786	53.68
820.959	52.89
821.132	51.47
821.305	51.4
821.477	51.15
821.65	50.86
821.823	50.64
821.996	51.01
822.168	51.49
822.341	51.65
822.514	49.96
822.686	50.24
822.859	50.1
823.031	49.93
823.204	50.03
823.376	50.15
823.549	50.03
823.722	50.02
823.894	50.49
824.067	49.99
824.239	50.03
824.411	50.67
824.584	50.47
824.756	50.59
824.929	50.74
825.101	50.83
825.273	50.81
825.446	50.48
825.618	50.06
825.79	49.07
825.963	49.77
826.135	49.68
826.307	49.95
826.479	50.29
826.652	49.76
826.824	50.07
826.996	50.04
827.168	50.48
827.34	50.83
827.512	51.6
827.684	52.17
827.856	51.47
828.029	52.26
828.201	50.56
828.373	50.3
828.545	51.15
828.717	51.35
828.889	51.69
829.061	51.69
829.232	52.96
829.404	52.83
829.576	52.7
829.748	53.6
829.92	54.21
830.092	56.55
830.264	57.57
830.436	57.79
830.607	58.29
830.779	57.17
830.951	58.24
831.123	58.83
831.294	61.38
831.466	61.63
831.638	62.26
831.809	61.1
831.981	61.52
832.153	61
832.324	61.09
832.496	59.09
832.667	62.89
832.839	63.2
833.011	62.37
833.182	62.52
833.354	63.24
833.525	64.45
833.697	62.24
833.868	62
834.039	62.06
834.211	62.1
834.382	62.52
834.554	61.28
834.725	60.54
834.896	58.96
835.068	57.03
835.239	56.78
835.41	56.52
835.581	58.59
835.753	56.7
835.924	55.24
836.095	53.93
836.266	54.05
836.438	52.56
836.609	51.63
836.78	51.74
836.951	52.03
837.122	51.79
837.293	52
837.464	51.42
837.635	52.83
837.806	55.71
837.977	57.05
838.148	59.38
838.319	59.8
838.49	61
838.661	60.42
838.832	59.66
839.003	58.35
839.174	58.59
839.345	59.5
839.516	61.49
839.687	63.11
839.857	65.71
840.028	63.86
840.199	66.35
840.37	65.96
840.54	67.8
840.711	69.43
840.882	66.54
841.053	65.45
841.223	61.53
841.394	62.64
841.564	62.67
841.735	63.84
841.906	64.83
842.076	63.27
842.247	65.92
842.417	66.8
842.588	67.94
842.758	73.1
842.929	73.31
843.099	76.89
843.27	75.67
843.44	75.78
843.611	74.24
843.781	71.5
843.951	73.08
844.122	66.77
844.292	67.54
844.462	64.89
844.633	62.4
844.803	61.67
844.973	62.27
845.144	61.45
845.314	61.47
845.484	60.07
845.654	64.98
845.824	71.21
845.995	76.6
846.165	77.22
846.335	81.99
846.505	97.93
846.675	102.8
846.845	98.82
847.015	89.57
847.185	88.53
847.355	84.91
847.525	81.86
847.695	79.19
847.865	80.29
848.035	75.65
848.205	69.59
848.375	66.38
848.545	70.83
848.715	80.48
848.884	93.21
849.054	93.57
849.224	100
849.394	96.1
849.564	100.13
849.733	97.8
849.903	107.56
850.073	106.89
850.243	100.72
850.412	96.43
850.582	87.86
850.752	88.73
850.921	85.16
851.091	81.12
851.26	86.73
851.43	80.63
851.599	79.66
851.769	71.93
851.939	74.96
852.108	73.76
852.278	77.17
852.447	75.18
852.616	78
852.786	78.34
852.955	84.92
853.125	79.2
853.294	78.59
853.463	81.35
853.633	90.88
853.802	86.42
853.971	85.68
854.141	85.12
854.31	88.82
854.479	84.29
854.648	84.67
854.818	77.45
854.987	80.74
855.156	95.09
855.325	103
855.494	109.7
855.663	113.44
855.832	123.35
856.001	130.54
856.171	134.64
856.34	137.89
856.509	145.4
856.678	159.56
856.847	156.85
857.016	126.94
857.185	121.02
857.353	122.44
857.522	133.6
857.691	122.88
857.86	126.84
858.029	135.48
858.198	136.73
858.367	131.55
858.535	130.01
858.704	135.17
858.873	153.87
859.042	148.81
859.21	144.4
859.379	131.78
859.548	128.82
859.717	118.19
859.885	109.76
860.054	105.65
860.222	101.64
860.391	95.97
860.56	95.25
860.728	87.99
860.897	84.72
861.065	78.89
861.234	75.57
861.402	90.59
861.571	97.26
861.739	105.73
861.908	111.3
862.076	125.59
862.244	127.37
862.413	116.16
862.581	123.5
862.749	136.26
862.918	149.81
863.086	134.45
863.254	104.78
863.423	93.61
863.591	81.36
863.759	83.47
863.927	81.1
864.096	91.38
864.264	95.98
864.432	98.8
864.6	96.92
864.768	95.78
864.936	102.73
865.104	111.82
865.272	112.83
865.44	127.12
865.608	120.71
865.776	123.14
865.944	110.99
866.112	119
866.28	120.38
866.448	123.45
866.616	115.68
866.784	122.46
866.952	114.19
867.12	119.6
867.288	108
867.455	104.95
867.623	102.46
867.791	114.47
867.959	113.57
868.127	111.98
868.294	118.53
868.462	106.62
868.63	85.79
868.797	85.92
868.965	84.02
869.133	92.4
869.3	105.52
869.468	95.32
869.636	96.74
869.803	89.02
869.971	93.51
870.138	95.86
870.306	102.15
870.473	108.8
870.641	107.59
870.808	109.5
870.975	108.12
871.143	102.91
871.31	111.53
871.478	96.61
871.645	98.86
871.812	94.88
871.98	94.9
872.147	92.98
872.314	96.56
872.482	93.5
872.649	86.88
872.816	91.61
872.983	96.26
873.15	97.97
873.318	106.95
873.485	108.52
873.652	115.61
873.819	121.67
873.986	113.58
874.153	115.22
874.32	107.58
874.487	110.8
874.654	103.74
874.821	96.8
874.988	90.32
875.155	89.7
875.322	94.08
875.489	88.96
875.656	81.62
875.823	93.81
875.99	77.98
876.157	91.29
876.324	100.75
876.49	109.24
876.657	117.63
876.824	110.77
876.991	102.42
877.157	100.85
877.324	96.9
877.491	89.49
877.658	84.65
877.824	92.87
877.991	93.16
878.157	89.91
878.324	85.47
878.491	78.46
878.657	83.61
878.824	76.7
878.99	65.1
879.157	70.31
879.323	73.49
879.49	71.67
879.656	73.27
879.823	77.14
879.989	76.82
880.156	77.74
880.322	76.42
880.488	76.5
880.655	82.82
880.821	89.89
880.987	85.92
881.154	85.4
881.32	94.78
881.486	92.56
881.652	85.73
881.819	83.74
881.985	81.55
882.151	77.59
882.317	75.37
882.483	73.97
882.649	72.49
882.816	69.31
882.982	65.72
883.148	61.35
883.314	59.05
883.48	58.25
883.646	56.6
883.812	54.9
883.978	54.6
884.144	53.73
884.31	53.9
884.476	52.76
884.642	52.62
884.807	55.31
884.973	55.3
885.139	54.73
885.305	54.64
885.471	54.93
885.637	57.1
885.802	57.52
885.968	59.74
886.134	59
886.3	60.48
886.465	64.01
886.631	64.29
886.797	67.75
886.962	73.87
887.128	78.13
887.293	79.78
887.459	80.04
887.625	83.83
887.79	81.73
887.956	88.83
888.121	91.66
888.287	87.76
888.452	84.03
888.618	84.2
888.783	76.49
