Data from LC_168_Reflection_3.txt Node
Date: Mon Nov 16 23:07:13 EST 2015
User: robert
Spectrometer: USB4E03001
Autoset integration time: false
Trigger mode: 4
Integration Time (sec): 1.000000E-1
Scans to average: 15
Electric dark correction enabled: true
Nonlinearity correction enabled: false
Boxcar width: 5
Stray light correction enabled: false
XAxis mode: Wavelengths
Stop averaging: false
Number of Pixels in Spectrum: 3648
>>>>>Begin Spectral Data<<<<<
177.566	4380.72
177.785	370.86
178.005	-2238.66
178.225	92.71
178.445	-219.95
178.665	1278.77
178.885	594.4
179.105	1331.78
179.324	2273.36
179.544	-212.87
179.764	-1157.69
179.984	-351.95
180.204	-299.16
180.423	-253.65
180.643	-290.93
180.863	-166.4
181.083	-162.45
181.302	-322.92
181.522	-309.82
181.742	-219.55
181.961	-420.18
182.181	-339.36
182.401	-530.5
182.621	-2183.76
182.84	-1030.19
183.06	-680.08
183.279	-376.8
183.499	-255.47
183.719	-214.47
183.938	-185.14
184.158	-244.79
184.377	-164.78
184.597	-250.77
184.816	-157.98
185.036	-98.49
185.256	-75.62
185.475	-101.71
185.695	-169.71
185.914	-262.31
186.134	-440.73
186.353	-622.69
186.572	-814.19
186.792	-1132.82
187.011	-494.14
187.231	-431.24
187.45	-332.25
187.67	-872.54
187.889	-2397.25
188.108	4405.27
188.328	-1073.63
188.547	-407.46
188.766	-699.7
188.986	-914.85
189.205	-750.11
189.424	-478.11
189.644	-1494.35
189.863	-1674.96
190.082	-1078.46
190.302	-2195.68
190.521	-1109.95
190.74	1096.49
190.959	483.33
191.178	670.95
191.398	561.45
191.617	455.01
191.836	420.76
192.055	927.5
192.274	393.13
192.494	482.35
192.713	537.85
192.932	1316.65
193.151	1154.87
193.37	2144.44
193.589	-1389.32
193.808	-425.89
194.027	-596.96
194.246	-5407.82
194.465	989.21
194.685	2343.06
194.904	1016.12
195.123	-1350.47
195.342	-795.27
195.561	-353.5
195.78	-568.4
195.999	22763.38
196.218	830.33
196.436	690.08
196.655	-2371.5
196.874	-753.66
197.093	-1044.64
197.312	-905.76
197.531	2531.37
197.75	797.94
197.969	-2499.29
198.188	-374.45
198.407	-94.08
198.625	-82
198.844	-81.71
199.063	-75.7
199.282	-223.8
199.501	-190.33
199.719	-111.39
199.938	-69.34
200.157	-67.51
200.376	-91.4
200.594	-158.98
200.813	-351.58
201.032	-276.39
201.251	-247.26
201.469	-230.99
201.688	-164.66
201.907	-260.36
202.125	-486.61
202.344	18033.33
202.563	3462.18
202.781	565.33
203	1608.01
203.218	1226.64
203.437	1092.89
203.656	530.61
203.874	322.68
204.093	311.04
204.311	408.41
204.53	374.72
204.748	544.14
204.967	347.53
205.185	308.58
205.404	315.34
205.622	200.63
205.841	145.37
206.059	166.45
206.278	181.03
206.496	380.34
206.715	194.63
206.933	154.86
207.151	177.03
207.37	201.5
207.588	188.64
207.806	229.55
208.025	450.65
208.243	-875.99
208.461	1078.92
208.68	-10418.82
208.898	543.18
209.116	559.04
209.335	593.2
209.553	506.76
209.771	5179.58
209.989	1313.23
210.208	2543.73
210.426	-4673.04
210.644	2462.75
210.862	-2425.36
211.081	1224.58
211.299	-470.58
211.517	2146.01
211.735	-547.68
211.953	-200242.86
212.171	-4151.51
212.39	-12171.17
212.608	-31743.48
212.826	1084.97
213.044	790.73
213.262	583.27
213.48	2852.95
213.698	359.4
213.916	506.47
214.134	336.73
214.352	717.47
214.57	431.39
214.788	577.28
215.006	489.62
215.224	372.64
215.442	296.79
215.66	244.29
215.878	206.09
216.096	195.68
216.314	219.09
216.532	433.66
216.75	327.95
216.968	261.27
217.185	469.18
217.403	1015.39
217.621	-3206.15
217.839	-956.68
218.057	-1305.71
218.275	2219.97
218.492	764.6
218.71	1102.96
218.928	282.11
219.146	239.01
219.363	238.38
219.581	209.85
219.799	158.06
220.017	159.33
220.234	151.04
220.452	172.62
220.67	193.72
220.887	182.44
221.105	210.94
221.323	161.64
221.54	181.03
221.758	245.52
221.976	242.88
222.193	259.4
222.411	196.07
222.629	190.59
222.846	185.5
223.064	196.27
223.281	174.78
223.499	156.8
223.716	167.9
223.934	128.79
224.151	123.83
224.369	110.15
224.586	98.12
224.804	111.49
225.021	115.96
225.239	95.96
225.456	90.63
225.674	93.91
225.891	75.69
226.108	96.09
226.326	108.79
226.543	89.53
226.76	89.27
226.978	78.43
227.195	75.09
227.413	62.89
227.63	56.03
227.847	51.28
228.064	44.19
228.282	39.85
228.499	33.58
228.716	26.44
228.934	22.19
229.151	19.48
229.368	18.73
229.585	17
229.802	18.19
230.02	17.15
230.237	17.78
230.454	17.98
230.671	21.4
230.888	21.59
231.105	25.24
231.323	29.39
231.54	30.11
231.757	32.19
231.974	31.32
232.191	26.32
232.408	33.17
232.625	30.26
232.842	31.29
233.059	28.22
233.276	25.24
233.493	23.72
233.71	22.21
233.927	24.61
234.144	25.9
234.361	26.05
234.578	32.31
234.795	27.92
235.012	29.33
235.229	27.56
235.446	28.7
235.663	33.94
235.879	33.59
236.096	30.62
236.313	30.86
236.53	30.67
236.747	30.36
236.964	28
237.181	27.92
237.397	28.71
237.614	33.52
237.831	26.91
238.048	24.04
238.264	26.42
238.481	28.92
238.698	28.91
238.915	23.45
239.131	24.36
239.348	25.26
239.565	26.26
239.781	28.14
239.998	25.71
240.215	26.86
240.431	24.41
240.648	24.54
240.865	22.72
241.081	22.21
241.298	21.46
241.514	22.8
241.731	19.37
241.947	19.85
242.164	19.26
242.38	18.43
242.597	18.15
242.814	18.34
243.03	16.21
243.246	16.1
243.463	15.13
243.679	16.51
243.896	13.79
244.112	15.78
244.329	15.34
244.545	14.43
244.762	13.71
244.978	16.31
245.194	16.68
245.411	18.55
245.627	19.88
245.843	20.47
246.06	19.21
246.276	19.69
246.492	18.44
246.709	17.24
246.925	15.91
247.141	15.31
247.357	13.75
247.574	12.82
247.79	11.49
248.006	10.74
248.222	10.35
248.439	10.24
248.655	10.24
248.871	10.41
249.087	11.05
249.303	10.69
249.519	11.41
249.736	12.46
249.952	12.6
250.168	16.47
250.384	17.35
250.6	18.1
250.816	17.77
251.032	16.5
251.248	16.89
251.464	15.42
251.68	16.45
251.896	16.93
252.112	17.03
252.328	18.25
252.544	17.15
252.76	17.37
252.976	15.86
253.192	16.2
253.408	18.1
253.624	20.82
253.84	20.97
254.056	23.11
254.272	22.13
254.487	23.59
254.703	23.47
254.919	24.05
255.135	24.54
255.351	26.85
255.567	28.36
255.782	27.89
255.998	21.2
256.214	21.71
256.43	16.84
256.646	20.39
256.861	18.13
257.077	18.33
257.293	17.48
257.508	17.2
257.724	18.06
257.94	15.59
258.155	13
258.371	13.95
258.587	13.6
258.802	14.34
259.018	13.36
259.234	12.06
259.449	11.98
259.665	10.63
259.88	11.12
260.096	10.54
260.312	10.57
260.527	10.77
260.743	11.32
260.958	10.97
261.174	11.42
261.389	11.63
261.605	13.05
261.82	13.87
262.036	15
262.251	14.99
262.466	14.99
262.682	15.55
262.897	16.46
263.113	15.89
263.328	16.93
263.543	15.97
263.759	14.54
263.974	13.34
264.189	11.6
264.405	11.55
264.62	11.34
264.835	12.36
265.051	12.7
265.266	13.21
265.481	14.8
265.696	15.51
265.912	16.7
266.127	16.17
266.342	15.32
266.557	15.91
266.773	15.21
266.988	14.35
267.203	13.63
267.418	12.69
267.633	12.35
267.848	11.59
268.064	10.19
268.279	9.76
268.494	9.28
268.709	9.84
268.924	9.58
269.139	9.76
269.354	10.32
269.569	10.57
269.784	10.95
269.999	11.69
270.214	10.55
270.429	13.73
270.644	13.09
270.859	13.62
271.074	14.07
271.289	13.87
271.504	13.93
271.719	13.86
271.934	13.87
272.149	14.24
272.363	13.6
272.578	13.66
272.793	11.63
273.008	11.28
273.223	10.85
273.438	10.26
273.653	10.66
273.867	10.61
274.082	10.24
274.297	9.75
274.512	9.75
274.726	8.84
274.941	9.36
275.156	10.14
275.371	10.39
275.585	11.12
275.8	12.51
276.015	12.56
276.229	14.15
276.444	14.49
276.659	16.41
276.873	17.44
277.088	18.43
277.302	18.99
277.517	18.55
277.732	20.57
277.946	19.92
278.161	21.09
278.375	20.58
278.59	18.85
278.804	18.54
279.019	18.21
279.233	16.64
279.448	16.4
279.662	14.6
279.877	13.86
280.091	11.7
280.306	11.03
280.52	9.16
280.735	8.15
280.949	8.14
281.163	8.18
281.378	6.68
281.592	7.29
281.806	7.64
282.021	7.74
282.235	8.6
282.449	8.78
282.664	10.44
282.878	9.71
283.092	10.37
283.307	10.51
283.521	10.59
283.735	11.67
283.949	11.77
284.164	11.46
284.378	12.21
284.592	11.59
284.806	12.28
285.02	12.37
285.234	12.27
285.449	11.6
285.663	11.38
285.877	10.83
286.091	10.34
286.305	10.4
286.519	10.24
286.733	9.81
286.947	9.61
287.161	8.79
287.375	8.21
287.589	9.05
287.803	9.1
288.017	9
288.231	9.16
288.445	9.46
288.659	9.77
288.873	9.55
289.087	10.67
289.301	11.1
289.515	11.97
289.729	10.85
289.943	11.13
290.157	11.83
290.371	13.01
290.584	14.01
290.798	14.72
291.012	15.11
291.226	15.27
291.44	14.72
291.654	15.34
291.867	15.11
292.081	15.64
292.295	16.26
292.509	17.17
292.722	17.55
292.936	17.07
293.15	16.62
293.364	15.87
293.577	16.69
293.791	16.37
294.005	16.96
294.218	17.37
294.432	17.77
294.645	16.48
294.859	15.47
295.073	14.97
295.286	15.11
295.5	13.59
295.713	13.53
295.927	13.18
296.14	12.51
296.354	11.7
296.568	11.41
296.781	11.56
296.994	11.69
297.208	11.14
297.421	10.78
297.635	9.93
297.848	10.52
298.062	10.17
298.275	10.62
298.489	11.35
298.702	11.35
298.915	11.32
299.129	12.08
299.342	12.48
299.555	13.99
299.769	14.77
299.982	15.98
300.195	16.05
300.409	16.3
300.622	16.29
300.835	17.46
301.048	17.94
301.262	17.99
301.475	17.58
301.688	17.55
301.901	17.29
302.115	17.8
302.328	17.77
302.541	17.77
302.754	19.08
302.967	18.51
303.18	18.2
303.393	18.34
303.607	18.61
303.82	18.28
304.033	17.8
304.246	18.33
304.459	18.2
304.672	17.06
304.885	18.67
305.098	17.77
305.311	18.24
305.524	18.34
305.737	16.92
305.95	17.48
306.163	16.55
306.376	16.64
306.589	15.76
306.802	14.26
307.015	16.51
307.228	15.17
307.44	15.03
307.653	14.12
307.866	13.2
308.079	15.3
308.292	14.87
308.505	15.64
308.718	15.43
308.93	15.47
309.143	15.91
309.356	14.69
309.569	14.97
309.781	15.32
309.994	15.33
310.207	15.27
310.42	13.76
310.632	12.62
310.845	12.93
311.058	12.32
311.27	12.77
311.483	12.47
311.696	11.95
311.908	12.13
312.121	11.82
312.333	13.36
312.546	13.21
312.759	13.39
312.971	14.63
313.184	15.24
313.396	15.07
313.609	15.61
313.821	15.89
314.034	17.71
314.246	18.36
314.459	18.34
314.671	17.89
314.884	17.08
315.096	17.29
315.309	16.57
315.521	17.09
315.733	17.83
315.946	15.37
316.158	15.97
316.371	14.43
316.583	14.14
316.795	14.27
317.008	14.38
317.22	17.16
317.432	16.95
317.644	18.35
317.857	16.42
318.069	16.87
318.281	17.53
318.494	16.5
318.706	18.46
318.918	16.54
319.13	17.41
319.342	17.05
319.555	16.21
319.767	17.8
319.979	17.19
320.191	18.32
320.403	19.59
320.615	19.96
320.827	21.15
321.039	19.43
321.252	20.62
321.464	19.47
321.676	20.01
321.888	19.94
322.1	19.14
322.312	16.89
322.524	15.47
322.736	14.26
322.948	14.32
323.16	13.98
323.372	15.8
323.584	15.85
323.796	16.05
324.007	15.55
324.219	15.6
324.431	15.66
324.643	17.58
324.855	18.49
325.067	19.77
325.279	20.23
325.491	20.55
325.702	19.56
325.914	20.42
326.126	21.74
326.338	22.27
326.55	22.56
326.761	22.92
326.973	22.72
327.185	23.3
327.396	23.27
327.608	23.24
327.82	23.79
328.032	24.78
328.243	23.58
328.455	23.6
328.666	23.11
328.878	22.67
329.09	22.12
329.301	22.75
329.513	23.25
329.725	22.98
329.936	23.58
330.148	24.49
330.359	23.43
330.571	24.76
330.782	24.61
330.994	26.47
331.205	27.45
331.417	27.84
331.628	28.43
331.84	28.72
332.051	28.68
332.262	29.99
332.474	28.43
332.685	30.28
332.897	29.76
333.108	30.58
333.319	29.02
333.531	29.19
333.742	31.44
333.953	30.9
334.165	30.47
334.376	31.77
334.587	30.84
334.799	31.86
335.01	31.08
335.221	32.2
335.432	32.06
335.644	32.13
335.855	32.21
336.066	31.61
336.277	31.84
336.488	32.27
336.7	31.45
336.911	31.89
337.122	31.57
337.333	32.19
337.544	32.1
337.755	32.66
337.966	32.71
338.177	32.54
338.388	32.15
338.599	32.89
338.811	33.25
339.022	32.97
339.233	32.71
339.444	33.02
339.655	31.18
339.866	31.24
340.076	31.47
340.287	32.68
340.498	32.8
340.709	32.64
340.92	32.42
341.131	31.97
341.342	32.54
341.553	33
341.764	32.39
341.975	33.65
342.185	32.88
342.396	31.59
342.607	30.73
342.818	30.69
343.029	31.18
343.239	31.15
343.45	31.1
343.661	30.4
343.872	30.08
344.082	30.58
344.293	30.65
344.504	32.92
344.714	32.97
344.925	32.48
345.136	32.67
345.346	31.52
345.557	31.34
345.768	30.63
345.978	30.89
346.189	30.97
346.399	30.59
346.61	30.32
346.821	28.36
347.031	28.79
347.242	28.74
347.452	28.19
347.663	28.69
347.873	28.96
348.084	29.68
348.294	30.47
348.504	30.69
348.715	30.83
348.925	30.17
349.136	29.85
349.346	29.33
349.557	30.23
349.767	31.06
349.977	31.14
350.188	31.17
350.398	31.31
350.608	30.68
350.819	30.3
351.029	30.28
351.239	31.62
351.449	31.82
351.66	32.07
351.87	32.32
352.08	31.9
352.29	32.02
352.501	30.82
352.711	30.09
352.921	29.99
353.131	29.67
353.341	29.29
353.552	28.39
353.762	28.63
353.972	28.53
354.182	29.1
354.392	29.08
354.602	28.52
354.812	29.03
355.022	29.61
355.232	29.66
355.442	30.43
355.652	30.92
355.862	30.77
356.072	30.39
356.282	29.81
356.492	28.84
356.702	28.58
356.912	29.15
357.122	29.2
357.332	28.71
357.542	28.32
357.752	27.69
357.962	27.2
358.171	27.22
358.381	27.65
358.591	28.39
358.801	28.21
359.011	28.71
359.221	28.13
359.43	28.29
359.64	28.93
359.85	29.49
360.06	29.66
360.269	30.31
360.479	30.24
360.689	30.65
360.899	30.28
361.108	30.26
361.318	30.17
361.528	30.14
361.737	29.74
361.947	29
362.156	28.57
362.366	28.53
362.576	28.4
362.785	28.4
362.995	27.39
363.204	27.67
363.414	27.46
363.623	27.38
363.833	27.9
364.042	28.2
364.252	28.57
364.461	28.84
364.671	28.52
364.88	28.48
365.09	28.72
365.299	29.35
365.509	28.44
365.718	28.43
365.927	28.16
366.137	28.4
366.346	29.08
366.555	28.48
366.765	27.9
366.974	27.99
367.183	27.72
367.393	26.98
367.602	26.55
367.811	27.19
368.021	26.81
368.23	26.46
368.439	25.59
368.648	24.52
368.857	25.33
369.067	25.85
369.276	25.89
369.485	25.96
369.694	27.04
369.903	27.24
370.112	27.48
370.321	27.62
370.531	27.91
370.74	28
370.949	27.67
371.158	27.53
371.367	27.63
371.576	27.29
371.785	26.88
371.994	26.31
372.203	26.21
372.412	25.76
372.621	26.09
372.83	25.81
373.039	25.92
373.248	25.84
373.457	25.59
373.666	25.01
373.874	25.05
374.083	25.62
374.292	25.61
374.501	25.26
374.71	24.98
374.919	24.88
375.128	24.69
375.336	24.52
375.545	25.32
375.754	24.99
375.963	24.49
376.171	24.08
376.38	23.78
376.589	23.5
376.798	23.35
377.006	23.61
377.215	24.06
377.424	24.28
377.632	24.11
377.841	23.63
378.05	23.44
378.258	23.7
378.467	23.99
378.675	23.72
378.884	23.74
379.093	23.82
379.301	23.44
379.51	22.91
379.718	22.66
379.927	22.71
380.135	21.84
380.344	22.01
380.552	21.95
380.761	21.91
380.969	22.04
381.177	21.6
381.386	20.71
381.594	20.57
381.803	20.25
382.011	20.06
382.219	19.51
382.428	19.54
382.636	19.35
382.845	19.2
383.053	18.73
383.261	18.58
383.469	19
383.678	20.05
383.886	19.61
384.094	19.4
384.302	19.6
384.511	20
384.719	20.37
384.927	20.52
385.135	20.92
385.343	21.11
385.552	21.09
385.76	20.87
385.968	20.5
386.176	20.87
386.384	20.79
386.592	20.71
386.8	20.3
387.008	20.62
387.216	20.53
387.424	20.13
387.633	19.87
387.841	19.69
388.049	19.67
388.257	19.62
388.465	19.54
388.672	19.73
388.88	19.65
389.088	19.88
389.296	19.7
389.504	19.3
389.712	19.27
389.92	19.58
390.128	19.48
390.336	19.53
390.544	20.06
390.751	19.75
390.959	19.86
391.167	19.84
391.375	19.82
391.583	19.52
391.79	19.82
391.998	19.76
392.206	19.78
392.414	19.58
392.621	19.53
392.829	19.03
393.037	19.11
393.244	18.8
393.452	18.64
393.66	18.42
393.867	18.53
394.075	18.14
394.283	18.2
394.49	17.81
394.698	17.82
394.905	17.66
395.113	17.59
395.32	17.83
395.528	18.04
395.735	18.17
395.943	18.33
396.15	18.19
396.358	18.4
396.565	18.11
396.773	18.45
396.98	18.31
397.188	18.21
397.395	18.22
397.602	17.86
397.81	17.43
398.017	17.18
398.225	17.01
398.432	16.84
398.639	16.83
398.847	17.02
399.054	16.52
399.261	16.53
399.468	16.53
399.676	16.19
399.883	16.35
400.09	16.85
400.297	16.95
400.505	16.99
400.712	16.99
400.919	17.12
401.126	17.08
401.333	17.49
401.54	17.64
401.748	17.76
401.955	18
402.162	17.82
402.369	17.37
402.576	17.4
402.783	17.28
402.99	17.36
403.197	17.05
403.404	16.85
403.611	16.73
403.818	16.88
404.025	16.88
404.232	16.73
404.439	16.64
404.646	16.68
404.853	16.47
405.06	16.49
405.267	16.49
405.474	16.48
405.681	16.46
405.887	16.42
406.094	16.35
406.301	16.23
406.508	16.21
406.715	16.42
406.922	16.39
407.128	16.33
407.335	16.3
407.542	16.09
407.749	16.12
407.955	16.59
408.162	16.5
408.369	16.59
408.575	16.62
408.782	16.69
408.989	16.4
409.195	16.22
409.402	16.46
409.609	16.48
409.815	16.65
410.022	16.66
410.228	16.1
410.435	16.11
410.642	15.82
410.848	15.85
411.055	15.62
411.261	15.73
411.468	15.99
411.674	15.66
411.881	15.68
412.087	15.67
412.294	15.69
412.5	15.7
412.706	15.81
412.913	15.89
413.119	15.54
413.326	15.53
413.532	15.57
413.738	15.16
413.945	15.49
414.151	15.26
414.357	15.18
414.564	15.09
414.77	15.29
414.976	14.95
415.182	14.97
415.389	15.3
415.595	15.28
415.801	15.09
416.007	15.38
416.214	15.35
416.42	15.19
416.626	15.12
416.832	15.12
417.038	15.02
417.244	15.07
417.45	14.86
417.657	14.79
417.863	15.03
418.069	15.15
418.275	15.16
418.481	14.96
418.687	15
418.893	15.06
419.099	14.95
419.305	14.93
419.511	14.87
419.717	14.87
419.923	14.68
420.129	14.39
420.335	14.32
420.541	14.12
420.746	14.1
420.952	14.19
421.158	14
421.364	14
421.57	13.97
421.776	13.98
421.982	13.94
422.187	13.83
422.393	13.91
422.599	13.65
422.805	13.72
423.01	13.65
423.216	13.42
423.422	13.4
423.628	13.51
423.833	13.51
424.039	13.43
424.245	13.36
424.45	13.58
424.656	13.48
424.862	13.68
425.067	13.7
425.273	13.72
425.478	13.85
425.684	13.88
425.889	13.87
426.095	13.8
426.301	13.85
426.506	13.96
426.712	13.84
426.917	14.02
427.123	14.06
427.328	13.98
427.533	14.04
427.739	14.14
427.944	14.11
428.15	13.86
428.355	13.96
428.561	13.92
428.766	13.82
428.971	13.82
429.177	13.71
429.382	13.77
429.587	13.88
429.793	13.74
429.998	13.71
430.203	13.88
430.408	13.94
430.614	13.87
430.819	13.97
431.024	14.17
431.229	13.97
431.434	14.07
431.64	13.94
431.845	13.86
432.05	13.94
432.255	13.82
432.46	13.61
432.665	13.67
432.87	13.45
433.076	13.56
433.281	13.54
433.486	13.59
433.691	13.34
433.896	13.18
434.101	13.16
434.306	13.26
434.511	13.16
434.716	13.23
434.921	13.28
435.126	13.48
435.331	13.31
435.535	13.24
435.74	13.34
435.945	13.58
436.15	13.8
436.355	14.02
436.56	13.97
436.765	14.07
436.97	14.11
437.174	13.9
437.379	13.92
437.584	14.04
437.789	14.03
437.993	14.04
438.198	13.95
438.403	14
438.608	13.82
438.812	13.67
439.017	13.51
439.222	13.49
439.426	13.57
439.631	13.48
439.836	13.38
440.04	13.35
440.245	13.37
440.45	13.32
440.654	13.11
440.859	13.05
441.063	13.02
441.268	13.07
441.472	13.07
441.677	13.11
441.881	13.13
442.086	13.11
442.29	13.05
442.495	12.95
442.699	12.96
442.904	12.93
443.108	12.96
443.312	12.97
443.517	13.01
443.721	12.91
443.925	12.76
444.13	12.69
444.334	12.65
444.538	12.74
444.743	12.72
444.947	12.63
445.151	12.64
445.356	12.64
445.56	12.71
445.764	12.71
445.968	12.71
446.173	12.71
446.377	12.75
446.581	12.71
446.785	12.61
446.989	12.66
447.193	12.64
447.398	12.65
447.602	12.61
447.806	12.57
448.01	12.62
448.214	12.7
448.418	12.66
448.622	12.68
448.826	12.69
449.03	12.69
449.234	12.68
449.438	12.74
449.642	12.75
449.846	12.68
450.05	12.85
450.254	12.78
450.458	12.87
450.662	12.99
450.866	12.89
451.069	12.92
451.273	13.1
451.477	13
451.681	13.12
451.885	12.93
452.089	13
452.292	12.78
452.496	12.79
452.7	12.66
452.904	12.65
453.107	12.64
453.311	12.77
453.515	12.71
453.719	12.7
453.922	12.67
454.126	12.73
454.33	12.7
454.533	12.61
454.737	12.4
454.94	12.38
455.144	12.43
455.348	12.38
455.551	12.23
455.755	12.07
455.958	12.08
456.162	12.14
456.365	12.31
456.569	12.24
456.772	12.36
456.976	12.64
457.179	12.63
457.383	12.41
457.586	12.64
457.79	12.7
457.993	12.75
458.196	12.59
458.4	12.49
458.603	12.31
458.807	12.43
459.01	12.54
459.213	12.31
459.417	12.13
459.62	12.2
459.823	12.03
460.026	11.9
460.23	11.92
460.433	12.05
460.636	12.01
460.839	12.18
461.042	12.17
461.246	12.08
461.449	12.07
461.652	12.22
461.855	12.17
462.058	12.11
462.261	12.1
462.464	12.08
462.668	12.16
462.871	12.18
463.074	12.03
463.277	11.82
463.48	11.82
463.683	11.89
463.886	11.99
464.089	12.05
464.292	12.29
464.495	12.44
464.698	12.38
464.901	12.22
465.104	12.32
465.306	12.45
465.509	12.72
465.712	12.69
465.915	12.88
466.118	12.78
466.321	12.73
466.524	12.59
466.726	12.72
466.929	12.8
467.132	12.8
467.335	12.59
467.538	12.4
467.74	12.22
467.943	12.42
468.146	12.42
468.348	12.48
468.551	12.54
468.754	12.62
468.956	12.57
469.159	12.74
469.362	12.83
469.564	12.91
469.767	13.14
469.969	13.23
470.172	12.94
470.375	12.91
470.577	12.91
470.78	12.74
470.982	12.7
471.185	12.49
471.387	12.31
471.59	12.31
471.792	12.42
471.995	12.26
472.197	12.26
472.399	12.23
472.602	12.15
472.804	12.28
473.007	12.45
473.209	12.54
473.411	12.58
473.614	12.68
473.816	12.6
474.018	12.64
474.22	12.78
474.423	12.78
474.625	12.87
474.827	13
475.03	12.95
475.232	12.92
475.434	12.97
475.636	13.06
475.838	12.97
476.04	13.05
476.243	13.03
476.445	13.07
476.647	13.09
476.849	12.96
477.051	12.84
477.253	12.9
477.455	12.97
477.657	12.78
477.859	12.8
478.061	12.82
478.263	12.7
478.465	12.62
478.667	12.43
478.869	12.3
479.071	12.32
479.273	12.14
479.475	11.8
479.677	11.78
479.879	11.86
480.081	11.78
480.283	11.73
480.485	11.82
480.686	11.78
480.888	11.87
481.09	11.96
481.292	11.97
481.494	12.18
481.695	12.31
481.897	12.16
482.099	12.04
482.301	12.11
482.502	12.08
482.704	12.09
482.906	12.11
483.107	12.08
483.309	12
483.511	12.01
483.712	11.97
483.914	11.94
484.115	11.96
484.317	12
484.519	11.97
484.72	11.97
484.922	11.91
485.123	11.89
485.325	11.83
485.526	11.88
485.728	11.9
485.929	11.86
486.131	11.96
486.332	12.01
486.534	12
486.735	11.98
486.936	11.94
487.138	11.96
487.339	11.96
487.541	12.05
487.742	12.04
487.943	12.05
488.144	12.09
488.346	11.97
488.547	11.93
488.748	11.96
488.95	11.91
489.151	11.97
489.352	12.02
489.553	12.04
489.755	12.01
489.956	11.99
490.157	12
490.358	12.05
490.559	12.18
490.76	12.15
490.961	12.06
491.163	12.24
491.364	12.31
491.565	12.24
491.766	12.29
491.967	12.37
492.168	12.38
492.369	12.35
492.57	12.31
492.771	12.33
492.972	12.41
493.173	12.5
493.374	12.38
493.575	12.4
493.776	12.46
493.976	12.49
494.177	12.55
494.378	12.72
494.579	12.79
494.78	12.97
494.981	13.01
495.182	13
495.382	13.07
495.583	13.11
495.784	13.11
495.985	13.17
496.185	13.17
496.386	13.03
496.587	13.01
496.788	12.98
496.988	12.91
497.189	12.92
497.39	13.1
497.59	13.12
497.791	13.18
497.992	13.07
498.192	13
498.393	13.13
498.593	13.25
498.794	13.19
498.994	13.29
499.195	13.27
499.395	13.29
499.596	13.22
499.796	13.22
499.997	13.29
500.197	13.52
500.398	13.66
500.598	13.58
500.799	13.52
500.999	13.54
501.199	13.5
501.4	13.6
501.6	13.54
501.801	13.56
502.001	13.55
502.201	13.68
502.402	13.61
502.602	13.67
502.802	13.68
503.002	13.79
503.203	14.03
503.403	14.05
503.603	14.07
503.803	14.14
504.003	14.22
504.204	14.33
504.404	14.32
504.604	14.23
504.804	14.34
505.004	14.41
505.204	14.49
505.404	14.56
505.604	14.7
505.804	14.6
506.005	14.69
506.205	14.66
506.405	14.76
506.605	14.7
506.805	14.88
507.005	14.8
507.204	14.82
507.404	14.83
507.604	14.78
507.804	14.65
508.004	14.96
508.204	14.95
508.404	15.06
508.604	15.04
508.804	15.24
509.003	15.3
509.203	15.44
509.403	15.45
509.603	15.42
509.803	15.53
510.002	15.8
510.202	15.72
510.402	15.73
510.602	15.76
510.801	15.78
511.001	15.66
511.201	15.64
511.4	15.55
511.6	15.65
511.8	15.74
511.999	15.81
512.199	15.68
512.398	15.75
512.598	15.85
512.797	16
512.997	16.14
513.197	16.27
513.396	16.44
513.596	16.71
513.795	16.91
513.994	16.96
514.194	16.97
514.393	17.13
514.593	17.32
514.792	17.44
514.992	17.38
515.191	17.3
515.39	17.38
515.59	17.24
515.789	17.16
515.988	17.16
516.188	17.32
516.387	17.29
516.586	17.23
516.786	17.33
516.985	17.35
517.184	17.41
517.383	17.66
517.582	17.71
517.782	17.9
517.981	17.83
518.18	17.84
518.379	17.89
518.578	17.95
518.777	18.11
518.976	17.93
519.176	18.08
519.375	18.16
519.574	18.07
519.773	18.1
519.972	18.12
520.171	18.33
520.37	18.46
520.569	18.44
520.768	18.54
520.967	18.64
521.166	18.76
521.365	18.64
521.564	18.8
521.762	19.01
521.961	19.12
522.16	19.13
522.359	19.02
522.558	18.91
522.757	19.04
522.956	19.07
523.154	19
523.353	19.26
523.552	19.45
523.751	19.52
523.949	19.54
524.148	19.57
524.347	19.79
524.546	19.98
524.744	19.93
524.943	20.03
525.142	20.02
525.34	20.1
525.539	20
525.737	20.09
525.936	20.06
526.135	20.07
526.333	20.03
526.532	19.96
526.73	20.07
526.929	20.19
527.127	20.23
527.326	20.31
527.524	20.43
527.723	20.57
527.921	20.55
528.12	20.56
528.318	20.63
528.516	20.69
528.715	20.72
528.913	20.73
529.112	20.8
529.31	20.8
529.508	20.79
529.707	20.78
529.905	20.81
530.103	20.84
530.301	20.9
530.5	20.91
530.698	20.95
530.896	21.09
531.094	21.19
531.293	21.28
531.491	21.49
531.689	21.63
531.887	21.74
532.085	21.77
532.283	21.86
532.481	21.99
532.68	22.01
532.878	22.08
533.076	22.03
533.274	21.97
533.472	21.99
533.67	21.94
533.868	21.96
534.066	21.96
534.264	22
534.462	22
534.66	21.99
534.858	22.07
535.056	22.15
535.253	22.18
535.451	22.24
535.649	22.24
535.847	22.41
536.045	22.49
536.243	22.61
536.441	22.64
536.638	22.82
536.836	22.82
537.034	22.96
537.232	23
537.43	23.09
537.627	23.23
537.825	23.33
538.023	23.31
538.22	23.37
538.418	23.42
538.616	23.52
538.813	23.54
539.011	23.77
539.209	23.77
539.406	23.85
539.604	24.15
539.801	24.21
539.999	24.19
540.196	24.29
540.394	24.43
540.591	24.41
540.789	24.37
540.986	24.28
541.184	24.15
541.381	24.13
541.579	24.08
541.776	23.94
541.974	23.9
542.171	24.01
542.368	23.95
542.566	23.9
542.763	23.98
542.96	24.09
543.158	24.24
543.355	24.4
543.552	24.55
543.75	24.75
543.947	24.81
544.144	24.9
544.341	24.94
544.539	25.12
544.736	25.21
544.933	25.26
545.13	25.36
545.327	25.24
545.524	25.18
545.722	25.24
545.919	25.22
546.116	25.43
546.313	25.53
546.51	25.6
546.707	25.76
546.904	25.81
547.101	25.85
547.298	25.93
547.495	26.11
547.692	26.14
547.889	26.05
548.086	26.17
548.283	26.27
548.48	26.3
548.677	26.28
548.874	26.08
549.07	26.17
549.267	26.22
549.464	26.05
549.661	26.25
549.858	26.52
550.055	26.68
550.251	26.55
550.448	26.43
550.645	26.53
550.842	26.72
551.038	26.86
551.235	26.86
551.432	26.77
551.628	26.95
551.825	27.01
552.022	27.05
552.218	27.11
552.415	27.33
552.612	27.33
552.808	27.36
553.005	27.46
553.201	27.56
553.398	27.68
553.594	27.97
553.791	28.03
553.987	27.99
554.184	28.03
554.38	28.07
554.577	28.11
554.773	28.31
554.97	28.42
555.166	28.51
555.362	28.46
555.559	28.48
555.755	28.43
555.952	28.53
556.148	28.6
556.344	28.75
556.541	28.69
556.737	28.84
556.933	28.93
557.129	28.89
557.326	28.83
557.522	28.85
557.718	28.92
557.914	28.85
558.11	28.87
558.307	28.7
558.503	28.88
558.699	29.1
558.895	29.13
559.091	29.09
559.287	29.24
559.483	29.29
559.679	29.57
559.876	29.67
560.072	29.96
560.268	30.07
560.464	30.13
560.66	29.78
560.856	29.91
561.052	29.94
561.247	30.17
561.443	30.21
561.639	30.38
561.835	30.36
562.031	30.47
562.227	30.39
562.423	30.21
562.619	30.4
562.815	30.79
563.01	31.11
563.206	31.3
563.402	31.32
563.598	31.31
563.793	31.26
563.989	31.31
564.185	31.27
564.381	31.65
564.576	31.91
564.772	31.89
564.968	31.89
565.163	31.65
565.359	31.33
565.555	31.25
565.75	31.38
565.946	31.44
566.141	31.38
566.337	31.44
566.532	31.32
566.728	31.32
566.923	31.4
567.119	31.42
567.314	31.38
567.51	31.66
567.705	31.95
567.901	31.92
568.096	31.91
568.292	32.08
568.487	32.05
568.682	32.05
568.878	32.01
569.073	32.2
569.268	32.13
569.464	32.44
569.659	32.44
569.854	32.23
570.05	32.37
570.245	32.58
570.44	32.57
570.635	32.86
570.831	32.93
571.026	33.23
571.221	33.28
571.416	33.28
571.611	33.14
571.806	33.21
572.002	33.38
572.197	33.45
572.392	33.47
572.587	33.44
572.782	33.4
572.977	33.48
573.172	33.51
573.367	33.57
573.562	33.84
573.757	33.97
573.952	34.03
574.147	34.12
574.342	34.3
574.537	34.33
574.732	34.5
574.927	34.43
575.121	34.63
575.316	34.6
575.511	34.43
575.706	34.26
575.901	34.33
576.096	34.36
576.29	34.33
576.485	34.27
576.68	34.33
576.875	34.25
577.069	34.44
577.264	34.28
577.459	34.39
577.654	34.61
577.848	34.72
578.043	34.92
578.238	35.09
578.432	35.13
578.627	35.02
578.821	35.08
579.016	35.14
579.21	35.41
579.405	35.37
579.6	35.46
579.794	35.49
579.989	35.5
580.183	35.39
580.378	35.23
580.572	35.21
580.766	35.42
580.961	35.49
581.155	35.79
581.35	35.58
581.544	35.7
581.738	35.49
581.933	35.61
582.127	36.14
582.321	36.08
582.516	36.01
582.71	36.39
582.904	36.53
583.099	36.48
583.293	36.48
583.487	36.6
583.681	36.6
583.875	36.89
584.07	37.07
584.264	36.74
584.458	37.07
584.652	37.18
584.846	37.05
585.04	37
585.234	36.97
585.428	36.98
585.623	36.89
585.817	36.93
586.011	36.88
586.205	36.87
586.399	36.92
586.593	36.9
586.787	37.09
586.981	36.97
587.174	36.96
587.368	37.01
587.562	37.24
587.756	37.4
587.95	37.72
588.144	37.73
588.338	37.97
588.532	38.18
588.725	38
588.919	38.22
589.113	38.1
589.307	38.04
589.501	38.07
589.694	38.06
589.888	38.14
590.082	38.08
590.275	38.18
590.469	38.22
590.663	37.95
590.856	38.01
591.05	37.85
591.244	37.98
591.437	38.15
591.631	38.26
591.824	38.2
592.018	38.06
592.212	38.08
592.405	38.01
592.599	37.97
592.792	38.21
592.986	38.38
593.179	38.36
593.372	38.68
593.566	38.87
593.759	39
593.953	38.98
594.146	39.05
594.339	39.02
594.533	39.27
594.726	39.22
594.92	39.19
595.113	39.12
595.306	39.04
595.499	38.84
595.693	38.58
595.886	38.46
596.079	38.45
596.272	38.44
596.466	38.43
596.659	38.34
596.852	38.17
597.045	38.19
597.238	38.15
597.431	38.26
597.624	38.39
597.818	38.47
598.011	38.47
598.204	38.58
598.397	38.67
598.59	38.74
598.783	38.83
598.976	39.01
599.169	39.13
599.362	39.29
599.555	39.58
599.748	39.7
599.941	39.62
600.134	39.97
600.326	40.17
600.519	40.37
600.712	40.28
600.905	40.25
601.098	40.54
601.291	40.53
601.483	40.61
601.676	40.53
601.869	40.37
602.062	40.58
602.255	40.42
602.447	40.4
602.64	40.25
602.833	40.51
603.025	40.39
603.218	40.26
603.411	40.13
603.603	40.05
603.796	39.84
603.989	39.87
604.181	39.86
604.374	39.7
604.566	39.44
604.759	39.32
604.951	39.18
605.144	39.11
605.336	39.15
605.529	39.12
605.721	39.17
605.914	39.31
606.106	39.24
606.299	39.37
606.491	39.6
606.683	39.73
606.876	39.99
607.068	40.06
607.26	40.37
607.453	40.51
607.645	40.92
607.837	40.82
608.03	40.96
608.222	40.95
608.414	40.84
608.606	40.78
608.799	41.01
608.991	40.8
609.183	40.93
609.375	40.79
609.567	40.52
609.759	40.35
609.952	40.34
610.144	40.36
610.336	40.47
610.528	40.27
610.72	40.28
610.912	40.34
611.104	40.66
611.296	40.52
611.488	40.58
611.68	40.61
611.872	40.5
612.064	41.04
612.256	41
612.448	41.2
612.64	41.44
612.832	41.47
613.023	41.29
613.215	41.13
613.407	41.07
613.599	41.33
613.791	41.51
613.983	41.64
614.174	41.33
614.366	41.39
614.558	41.28
614.75	41.26
614.941	41.37
615.133	41.63
615.325	41.92
615.516	42.11
615.708	41.83
615.9	41.69
616.091	41.71
616.283	41.74
616.475	41.66
616.666	41.72
616.858	42.23
617.049	42.04
617.241	41.64
617.432	41.45
617.624	41.83
617.815	41.77
618.007	42.05
618.198	42.24
618.39	42.2
618.581	42.32
618.773	42.34
618.964	41.95
619.155	42.15
619.347	42.18
619.538	42.27
619.729	41.97
619.921	42.34
620.112	41.93
620.303	41.93
620.494	42.15
620.686	42.22
620.877	42.5
621.068	42.55
621.259	42.64
621.451	43.05
621.642	42.95
621.833	42.86
622.024	42.82
622.215	43.41
622.406	43.49
622.597	43.28
622.788	43.23
622.98	43.07
623.171	43.28
623.362	43.2
623.553	43.02
623.744	43.14
623.935	43.1
624.126	43.07
624.317	42.77
624.508	42.74
624.698	42.83
624.889	42.7
625.08	42.8
625.271	42.86
625.462	42.85
625.653	42.88
625.844	42.75
626.034	42.84
626.225	42.82
626.416	42.9
626.607	43.01
626.798	43.04
626.988	43.16
627.179	43.01
627.37	42.8
627.56	42.98
627.751	42.96
627.942	43.04
628.132	42.9
628.323	42.85
628.514	42.93
628.704	42.64
628.895	42.53
629.085	42.45
629.276	42.34
629.466	42.51
629.657	42.49
629.847	42.62
630.038	42.66
630.228	42.88
630.419	42.98
630.609	43.15
630.8	43
630.99	43.02
631.181	43.15
631.371	43.2
631.561	43.23
631.752	43.28
631.942	43.06
632.132	43.17
632.323	43.11
632.513	43.32
632.703	43.28
632.893	43.46
633.084	43.31
633.274	43.27
633.464	43.68
633.654	43.53
633.844	43.5
634.034	43.41
634.225	43.14
634.415	43.09
634.605	43.01
634.795	42.74
634.985	43.16
635.175	43.25
635.365	43.06
635.555	42.81
635.745	42.94
635.935	42.75
636.125	43
636.315	43.23
636.505	43.21
636.695	42.85
636.885	42.79
637.075	42.57
637.265	42.65
637.455	42.9
637.644	42.9
637.834	42.93
638.024	42.94
638.214	42.97
638.404	43.13
638.593	43.47
638.783	43.75
638.973	44.05
639.163	43.84
639.352	43.75
639.542	43.9
639.732	44.14
639.921	43.95
640.111	44.03
640.301	44.02
640.49	43.57
640.68	43.32
640.87	43.54
641.059	43.65
641.249	43.85
641.438	43.9
641.628	43.75
641.817	43.54
642.007	43.99
642.196	43.99
642.386	44.31
642.575	44.93
642.764	45.2
642.954	45.11
643.143	45.27
643.333	45.45
643.522	45.43
643.711	45.45
643.901	45.46
644.09	45.33
644.279	45.87
644.469	45.73
644.658	45.59
644.847	45.58
645.036	45.71
645.226	45.53
645.415	45.29
645.604	45.08
645.793	45.17
645.982	45.12
646.171	45.05
646.361	44.94
646.55	44.93
646.739	44.82
646.928	44.62
647.117	44.34
647.306	44.33
647.495	44.61
647.684	45.33
647.873	45.46
648.062	45.69
648.251	45.83
648.44	45.46
648.629	45.27
648.818	45.21
649.007	45.11
649.196	45.42
649.384	45.36
649.573	45.09
649.762	44.53
649.951	44.22
650.14	44.25
650.328	44.33
650.517	44.44
650.706	44.53
650.895	44.74
651.083	45.03
651.272	44.55
651.461	44.76
651.65	45.18
651.838	45.21
652.027	45.47
652.216	45.12
652.404	44.96
652.593	45.27
652.781	45.08
652.97	45.2
653.158	45.36
653.347	45.8
653.535	45.53
653.724	45.05
653.912	45.56
654.101	45.7
654.289	45.92
654.478	45.82
654.666	46.04
654.855	46.38
655.043	45.63
655.231	45.11
655.42	45.44
655.608	45.75
655.796	46.07
655.985	46.11
656.173	45.87
656.361	45.81
656.55	45.55
656.738	45.28
656.926	45.16
657.114	45.84
657.302	46.43
657.491	45.88
657.679	45.27
657.867	45.22
658.055	44.82
658.243	44.7
658.431	44.94
658.619	45.32
658.807	45.08
658.996	45.17
659.184	44.72
659.372	44.69
659.56	44.66
659.748	44.66
659.936	44.77
660.124	44.83
660.311	44.97
660.499	44.86
660.687	44.86
660.875	45.14
661.063	44.95
661.251	45.12
661.439	44.83
661.627	45.17
661.814	45.58
662.002	45.38
662.19	45.48
662.378	45.58
662.565	45.6
662.753	46
662.941	46.16
663.129	46.24
663.316	46.59
663.504	46.56
663.692	46.68
663.879	46.71
664.067	46.81
664.254	46.96
664.442	46.86
664.63	46.94
664.817	46.77
665.005	46.17
665.192	46.6
665.38	46.46
665.567	46.89
665.755	46.53
665.942	46.72
666.13	46.92
666.317	46.86
666.504	46.88
666.692	47.4
666.879	47.25
667.067	47.84
667.254	47.81
667.441	47.89
667.629	47.79
667.816	48.15
668.003	47.8
668.19	47.07
668.378	46.73
668.565	46.58
668.752	45.84
668.939	45.68
669.127	45.43
669.314	45.11
669.501	45.13
669.688	44.95
669.875	44.84
670.062	45.01
670.249	45.67
670.436	45.73
670.623	45.86
670.81	46.42
670.997	46.31
671.184	46.49
671.371	47.03
671.558	47.42
671.745	47.58
671.932	47.46
672.119	47.25
672.306	47.17
672.493	47.38
672.68	47.65
672.867	47.88
673.054	47.84
673.24	47.86
673.427	47.77
673.614	47.6
673.801	47.85
673.988	48.27
674.174	48.57
674.361	48.48
674.548	48.42
674.734	48.55
674.921	48.15
675.108	48.63
675.294	48.24
675.481	47.83
675.668	47.69
675.854	47.25
676.041	46.72
676.227	46.81
676.414	47.04
676.601	47.35
676.787	47.31
676.974	47.25
677.16	47.16
677.347	47.13
677.533	47.17
677.719	46.88
677.906	46.75
678.092	47.18
678.279	46.69
678.465	46.32
678.651	46.01
678.838	45.84
679.024	45.7
679.21	45.53
679.397	45.69
679.583	45.77
679.769	45.83
679.955	45.87
680.142	45.68
680.328	46.28
680.514	46.45
680.7	46.5
680.886	46.55
681.073	46.71
681.259	46.62
681.445	46.83
681.631	46.69
681.817	46.58
682.003	46.51
682.189	46.36
682.375	46.08
682.561	46.34
682.747	46.69
682.933	46.74
683.119	46.57
683.305	46.59
683.491	46.51
683.677	46.73
683.863	47.17
684.049	47.56
684.235	47.59
684.42	47.83
684.606	47.82
684.792	48.16
684.978	47.82
685.164	48
685.349	48.01
685.535	48.22
685.721	47.93
685.907	47.64
686.092	47.51
686.278	47.98
686.464	47.63
686.649	47.49
686.835	46.63
687.021	47.32
687.206	47.36
687.392	47.25
687.577	47.05
687.763	47.09
687.948	47
688.134	46.82
688.319	47.06
688.505	47.02
688.69	47.26
688.876	47.45
689.061	47.37
689.247	47.3
689.432	47.51
689.618	47.4
689.803	47.69
689.988	48.14
690.174	48.56
690.359	48.28
690.544	48.25
690.73	48.11
690.915	48.28
691.1	48.23
691.285	48.07
691.471	48.66
691.656	49
691.841	49.04
692.026	49.19
692.211	49.3
692.396	48.95
692.582	49.36
692.767	49.43
692.952	49.22
693.137	48.75
693.322	49.19
693.507	49.11
693.692	48.88
693.877	49.08
694.062	48.95
694.247	48.93
694.432	49.63
694.617	49.62
694.802	49.67
694.987	50.13
695.172	50.19
695.357	50.3
695.541	49.92
695.726	50
695.911	50.2
696.096	49.8
696.281	49.82
696.466	49.72
696.65	49.42
696.835	49.61
697.02	49.28
697.204	49.57
697.389	49.55
697.574	49.2
697.759	49.19
697.943	48.86
698.128	48.95
698.312	48.39
698.497	47.6
698.682	47.55
698.866	47.43
699.051	47.57
699.235	47.29
699.42	47.2
699.604	47.4
699.789	47.06
699.973	46.92
700.158	47.09
700.342	47.26
700.527	47.67
700.711	48.16
700.895	48.11
701.08	47.95
701.264	48.29
701.448	48.21
701.633	48.57
701.817	48.66
702.001	49.24
702.186	48.98
702.37	50
702.554	49.82
702.738	49.59
702.923	49.34
703.107	49.9
703.291	50.11
703.475	50.26
703.659	49.7
703.843	50.09
704.027	49.45
704.212	49.72
704.396	49.02
704.58	49.07
704.764	48.97
704.948	49.21
705.132	48.4
705.316	48.59
705.5	49.26
705.684	50.02
705.868	50
706.052	49.7
706.235	49.67
706.419	49.64
706.603	50.1
706.787	49.77
706.971	50.19
707.155	50.29
707.339	50.38
707.522	49.67
707.706	49.78
707.89	49.98
708.074	50.62
708.257	50.07
708.441	50.54
708.625	51
708.808	51.59
708.992	51.06
709.176	51.19
709.359	50.64
709.543	50.55
709.727	50.22
709.91	49.77
710.094	49.33
710.277	50.34
710.461	49.68
710.644	49.27
710.828	49.36
711.011	49.38
711.195	49.69
711.378	49.92
711.562	50.21
711.745	50.1
711.928	50.29
712.112	50.3
712.295	50.27
712.478	50.7
712.662	50.94
712.845	50.81
713.028	51.44
713.212	51.34
713.395	51.02
713.578	51.05
713.761	50.69
713.945	50.39
714.128	50.5
714.311	50.38
714.494	50.08
714.677	50
714.86	50.26
715.043	50.34
715.227	50.14
715.41	50.35
715.593	49.94
715.776	50
715.959	50.25
716.142	50.56
716.325	49.82
716.508	50.06
716.691	50.07
716.874	49.69
717.057	49.27
717.239	49.56
717.422	49.07
717.605	49.51
717.788	50.04
717.971	50.29
718.154	50.38
718.337	50.9
718.519	50.99
718.702	51.62
718.885	51.32
719.068	51.6
719.25	51.86
719.433	52.27
719.616	51.84
719.798	50.78
719.981	51.08
720.164	50.72
720.346	50.41
720.529	50.09
720.712	49.1
720.894	49.57
721.077	49.2
721.259	49.39
721.442	49.64
721.624	50.31
721.807	51.55
721.989	50.97
722.172	51.86
722.354	52.27
722.537	52.62
722.719	52.59
722.901	52.65
723.084	52.85
723.266	52.09
723.448	52.79
723.631	52.67
723.813	51.98
723.995	52.51
724.178	52.02
724.36	52.01
724.542	51.78
724.724	51.83
724.907	51.9
725.089	51.7
725.271	53.17
725.453	52.18
725.635	51.84
725.817	52.56
725.999	52.32
726.181	52.84
726.364	52.67
726.546	53.14
726.728	54.56
726.91	54.01
727.092	53.66
727.274	52.69
727.456	53.37
727.638	53.61
727.819	53.01
728.001	52.84
728.183	52.84
728.365	53.05
728.547	52.12
728.729	51.19
728.911	51.9
729.093	52.21
729.274	51.09
729.456	50.6
729.638	50.99
729.82	51.41
730.001	51.33
730.183	50.65
730.365	50.59
730.546	50.64
730.728	50.35
730.91	49.87
731.091	49.9
731.273	50.82
731.455	50.31
731.636	50.17
731.818	49.84
731.999	50.54
732.181	51.28
732.362	50.91
732.544	51.91
732.725	52.22
732.907	53.03
733.088	53.7
733.27	53.85
733.451	54.72
733.633	55.26
733.814	56.06
733.995	55.58
734.177	55.07
734.358	55.5
734.539	55.3
734.721	55.39
734.902	54.66
735.083	53.76
735.264	54.12
735.446	54.09
735.627	52.81
735.808	51.58
735.989	51.98
736.17	51.59
736.351	51.51
736.533	51.43
736.714	51.14
736.895	51.54
737.076	52.16
737.257	51.64
737.438	51.58
737.619	52.91
737.8	54.25
737.981	53.91
738.162	54.37
738.343	54.16
738.524	53.61
738.705	53.12
738.886	53.39
739.067	53.41
739.247	53.73
739.428	53.65
739.609	52.93
739.79	52.75
739.971	52.08
740.151	51.72
740.332	53.01
740.513	52.94
740.694	53.54
740.874	53.2
741.055	53.07
741.236	52.96
741.417	53.37
741.597	53.59
741.778	53.34
741.958	54.21
742.139	54.87
742.32	54.2
742.5	55.35
742.681	55.83
742.861	55.2
743.042	54.79
743.222	55.44
743.403	55.29
743.583	55.7
743.764	55.11
743.944	55.44
744.124	56.01
744.305	55.66
744.485	55.55
744.666	55.28
744.846	55.13
745.026	55.7
745.207	55.05
745.387	55.17
745.567	55.21
745.747	56.48
745.928	55.94
746.108	54.86
746.288	54.68
746.468	54.12
746.648	54.09
746.829	55.33
747.009	55.37
747.189	55.72
747.369	55.54
747.549	55.01
747.729	54.35
747.909	54.31
748.089	55.39
748.269	55.74
748.449	56.22
748.629	56.19
748.809	56.07
748.989	56.09
749.169	55.67
749.349	55.67
749.529	56.04
749.709	56.01
749.889	56.63
750.068	55.68
750.248	56.52
750.428	56.57
750.608	57.15
750.788	56.52
750.967	56.19
751.147	56.32
751.327	56.67
751.507	55.14
751.686	55.45
751.866	56.12
752.046	57.25
752.225	56.85
752.405	57.9
752.585	57.56
752.764	57.76
752.944	57.9
753.123	58.03
753.303	57.89
753.482	59.6
753.662	59
753.841	57.7
754.021	57.62
754.2	58.1
754.38	57.2
754.559	56.29
754.739	55.99
754.918	56.5
755.097	56.67
755.277	56.69
755.456	56.21
755.635	56.95
755.815	57.69
755.994	56.7
756.173	56.11
756.352	55.48
756.532	56.1
756.711	56.78
756.89	55.66
757.069	56.37
757.248	55.84
757.427	55.02
757.607	54.46
757.786	54.02
757.965	53.75
758.144	53.73
758.323	54.32
758.502	54.29
758.681	54.62
758.86	55.09
759.039	53.51
759.218	53.94
759.397	54.61
759.576	54.48
759.755	54.4
759.934	54.61
760.113	54.74
760.291	54.15
760.47	54.85
760.649	54.27
760.828	54.25
761.007	54.81
761.186	54.31
761.364	53.65
761.543	53.36
761.722	53.38
761.901	52.56
762.079	52.33
762.258	52.31
762.437	51.57
762.615	50.79
762.794	50.82
762.972	50.38
763.151	51.12
763.33	50.95
763.508	50.13
763.687	50.1
763.865	51.17
764.044	50.66
764.222	50.25
764.401	50.32
764.579	50.56
764.758	50.41
764.936	51.13
765.114	50.09
765.293	50.25
765.471	51.35
765.65	51.76
765.828	51.68
766.006	52.67
766.184	53.21
766.363	52.66
766.541	52.46
766.719	53.02
766.898	52.71
767.076	52.81
767.254	52.95
767.432	53.89
767.61	53.47
767.788	53.74
767.967	53.36
768.145	53.14
768.323	53.77
768.501	55.38
768.679	55.5
768.857	55.77
769.035	57.72
769.213	58.32
769.391	58.64
769.569	58.28
769.747	58.98
769.925	58.59
770.103	58.64
770.281	58.85
770.459	58.82
770.636	58.43
770.814	58.35
770.992	58.56
771.17	59.21
771.348	57.66
771.525	59.13
771.703	57.83
771.881	57.59
772.059	58.13
772.236	58.18
772.414	58.22
772.592	58.14
772.769	58.78
772.947	57.22
773.125	56.87
773.302	57.34
773.48	57.62
773.657	58.08
773.835	58.22
774.013	59.58
774.19	61.15
774.368	60.49
774.545	60.49
774.723	61.12
774.9	60.45
775.077	60.61
775.255	60.71
775.432	60.14
775.61	60.44
775.787	61.43
775.964	60.55
776.142	61.57
776.319	61.9
776.496	62.54
776.674	61.21
776.851	62.9
777.028	62.65
777.205	62.97
777.382	62.77
777.56	63.06
777.737	66.09
777.914	64.71
778.091	62.74
778.268	62.74
778.445	62.15
778.622	62.11
778.8	61.24
778.977	62.03
779.154	68.57
779.331	68.69
779.508	67.99
779.685	65.34
779.862	66.52
780.038	66.77
780.215	67.44
780.392	67.65
780.569	66.86
780.746	67.79
780.923	67.33
781.1	60.78
781.277	60.47
781.453	60.62
781.63	58.83
781.807	59.54
781.984	58.49
782.16	58.72
782.337	59.29
782.514	60.7
782.691	61.63
782.867	60.84
783.044	60.33
783.221	59.94
783.397	60.26
783.574	61.44
783.75	62.83
783.927	65.72
784.103	65.14
784.28	65.01
784.456	64.36
784.633	62.44
784.809	63.68
784.986	62.4
785.162	62.61
785.339	61.13
785.515	60.36
785.692	58.19
785.868	57.3
786.044	58.48
786.221	58.01
786.397	57.74
786.573	59.29
786.749	56.9
786.926	61.07
787.102	61.44
787.278	63.68
787.454	63.71
787.631	63.69
787.807	62.02
787.983	59.4
788.159	58.86
788.335	58.81
788.511	58.35
788.687	61.09
788.863	58.73
789.039	57.87
789.216	56.4
789.392	55.86
789.568	56.46
789.744	57.56
789.919	57.79
790.095	57.94
790.271	59.43
790.447	58.66
790.623	58.76
790.799	58.63
790.975	58.82
791.151	59.67
791.327	61.22
791.502	62.64
791.678	61.98
791.854	62.82
792.03	65.01
792.205	64.21
792.381	65.89
792.557	65.75
792.733	67.72
792.908	69.36
793.084	68.44
793.259	67.67
793.435	65.13
793.611	65.97
793.786	64.3
793.962	62.14
794.137	63.48
794.313	60.93
794.488	60.13
794.664	60.49
794.839	60.03
795.015	61.06
795.19	62.34
795.366	61.67
795.541	59.45
795.716	59.87
795.892	61.09
796.067	59.59
796.242	60.41
796.418	59.71
796.593	60.07
796.768	60.31
796.944	60.35
797.119	58.84
797.294	59.72
797.469	61.54
797.644	61.55
797.82	62.68
797.995	61.1
798.17	61.59
798.345	62.9
798.52	61.56
798.695	61.69
798.87	60.35
799.045	61.48
799.22	62.23
799.395	62.24
799.57	64.68
799.745	63.47
799.92	65.01
800.095	66.01
800.27	65.67
800.445	65.06
800.62	63.57
800.795	67.27
800.97	67.71
801.145	64.76
801.319	65.27
801.494	63.38
801.669	61.94
801.844	62.38
802.018	61.2
802.193	60.52
802.368	59.79
802.543	60.05
802.717	58.69
802.892	57.24
803.067	60.41
803.241	58.54
803.416	60.39
803.59	62.82
803.765	62.98
803.94	63.7
804.114	62.54
804.289	63.3
804.463	64.75
804.638	61.7
804.812	62.65
804.986	60.24
805.161	60.06
805.335	59.04
805.51	56.77
805.684	54.81
805.858	53.61
806.033	53.71
806.207	52.8
806.381	53.87
806.556	55.4
806.73	57.62
806.904	58.24
807.078	59.11
807.253	60.36
807.427	60.92
807.601	64.93
807.775	66.97
807.949	71.27
808.123	72.49
808.298	73.2
808.472	74.53
808.646	70.56
808.82	70.55
808.994	70.14
809.168	70.01
809.342	72.05
809.516	70.14
809.69	70.62
809.864	65.65
810.038	69.83
810.212	64.87
810.385	62.12
810.559	63.61
810.733	65.82
810.907	66.46
811.081	64.65
811.255	64.34
811.428	63.34
811.602	61.57
811.776	65.38
811.95	59.65
812.123	63.11
812.297	64.33
812.471	64.51
812.644	63
812.818	64.04
812.992	63.46
813.165	61.54
813.339	61.11
813.512	60.33
813.686	59.21
813.86	61.71
814.033	59.12
814.207	61.65
814.38	57.8
814.554	59.07
814.727	58.54
814.9	60.29
815.074	62.93
815.247	63.92
815.421	65.01
815.594	67.58
815.767	67.16
815.941	68.43
816.114	64.61
816.287	68.75
816.46	67.32
816.634	69.75
816.807	69.37
816.98	67.47
817.153	70.68
817.327	72.13
817.5	70.74
817.673	71.82
817.846	71.49
818.019	73.93
818.192	72.43
818.365	71.24
818.538	67.05
818.711	64.12
818.884	64.84
819.057	60.64
819.23	57.38
819.403	54.07
819.576	51.83
819.749	52.17
819.922	52.18
820.095	51.72
820.268	52.79
820.441	53.37
820.614	52.27
820.786	51.2
820.959	51.5
821.132	51.14
821.305	50.97
821.477	50.73
821.65	49.78
821.823	48.54
821.996	47.13
822.168	46.15
822.341	45.87
822.514	46.13
822.686	45.81
822.859	45.37
823.031	44.98
823.204	44.98
823.376	44.6
823.549	44.68
823.722	44.29
823.894	45.51
824.067	45.35
824.239	46.01
824.411	46.38
824.584	46.16
824.756	46.01
824.929	46.57
825.101	46.85
825.273	46.85
825.446	46.94
825.618	47.44
825.79	46.74
825.963	47.44
826.135	46.32
826.307	45.43
826.479	46.2
826.652	46.58
826.824	46.52
826.996	45.7
827.168	46.54
827.34	46.22
827.512	46.18
827.684	46.49
827.856	46.94
828.029	47.51
828.201	47.69
828.373	47.04
828.545	47.41
828.717	47.72
828.889	47.72
829.061	47.79
829.232	48.8
829.404	49.04
829.576	48.97
829.748	47.79
829.92	48.55
830.092	50.19
830.264	51.18
830.436	51.8
830.607	52.12
830.779	54.82
830.951	56.41
831.123	55.21
831.294	53.87
831.466	53.7
831.638	53.78
831.809	52.66
831.981	53.39
832.153	54.41
832.324	53.64
832.496	54.73
832.667	55.63
832.839	54.53
833.011	54.6
833.182	54.88
833.354	55.77
833.525	58.38
833.697	59.52
833.868	57.49
834.039	58.51
834.211	57.56
834.382	55.89
834.554	55.13
834.725	53.75
834.896	54.68
835.068	56.49
835.239	55.27
835.41	54.75
835.581	54.64
835.753	54.83
835.924	53.33
836.095	54.56
836.266	54.41
836.438	53.07
836.609	53.81
836.78	53.62
836.951	54.25
837.122	54.78
837.293	52.82
837.464	52.19
837.635	54.08
837.806	55.39
837.977	55.62
838.148	61.79
838.319	63.7
838.49	64.22
838.661	64.91
838.832	63.96
839.003	65.7
839.174	68.06
839.345	69.58
839.516	69.58
839.687	68.48
839.857	68.74
840.028	64.7
840.199	63.21
840.37	65.42
840.54	70.01
840.711	65.49
840.882	65.64
841.053	67.39
841.223	64.59
841.394	62.44
841.564	64.21
841.735	63.78
841.906	61.63
842.076	57.71
842.247	57.87
842.417	55.74
842.588	62.07
842.758	61.81
842.929	60.77
843.099	65.51
843.27	67.83
843.44	66.51
843.611	66.73
843.781	64.87
843.951	68.46
844.122	71.13
844.292	70.21
844.462	71.25
844.633	68.12
844.803	69
844.973	64.83
845.144	65.16
845.314	68.41
845.484	64.25
845.654	67
845.824	73.95
845.995	66.38
846.165	65.44
846.335	66.1
846.505	69.72
846.675	69.8
846.845	78.6
847.015	80.63
847.185	75.58
847.355	83.16
847.525	93
847.695	99.02
847.865	105.8
848.035	109.25
848.205	99.25
848.375	103.58
848.545	84.44
848.715	72.25
848.884	72.02
849.054	74.67
849.224	70.78
849.394	66.56
849.564	61.78
849.733	64.55
849.903	69.67
850.073	72.51
850.243	75.89
850.412	89.65
850.582	94.52
850.752	93.38
850.921	91.43
851.091	97.44
851.26	99.95
851.43	96.14
851.599	91.15
851.769	88.52
851.939	87.31
852.108	83.38
852.278	86.49
852.447	77.17
852.616	81.55
852.786	84.04
852.955	82.15
853.125	85.72
853.294	88.19
853.463	81.86
853.633	86.51
853.802	89.22
853.971	93.28
854.141	89.24
854.31	95.33
854.479	82.08
854.648	85.63
854.818	80.06
854.987	74.18
855.156	77.97
855.325	87.41
855.494	90.2
855.663	89.15
855.832	86.26
856.001	92.37
856.171	91.04
856.34	107
856.509	110.76
856.678	123.06
856.847	132.31
857.016	127.57
857.185	128.53
857.353	127.19
857.522	136.72
857.691	141.08
857.86	134.86
858.029	128.68
858.198	131.75
858.367	126.18
858.535	122.5
858.704	109.53
858.873	116
859.042	106.46
859.21	106.14
859.379	102.67
859.548	88.45
859.717	84.69
859.885	84.05
860.054	78.27
860.222	71.01
860.391	72.06
860.56	74
860.728	74.87
860.897	72.12
861.065	72.18
861.234	74.27
861.402	81.27
861.571	88.76
861.739	93.49
861.908	92.31
862.076	107.31
862.244	111
862.413	106.23
862.581	100.26
862.749	106.5
862.918	95.33
863.086	87.81
863.254	95.42
863.423	98.1
863.591	109.87
863.759	102.72
863.927	94.76
864.096	89.82
864.264	92.41
864.432	91.82
864.6	90.75
864.768	99.18
864.936	105.6
865.104	96.47
865.272	96.78
865.44	97.36
865.608	90.12
865.776	91.78
865.944	95.43
866.112	101.1
866.28	96.85
866.448	94.7
866.616	87.36
866.784	88.98
866.952	88.11
867.12	91.62
867.288	85.16
867.455	99.23
867.623	104.98
867.791	93.16
867.959	83.13
868.127	80.18
868.294	83.95
868.462	84.03
868.63	73.73
868.797	75.32
868.965	69.62
869.133	71.1
869.3	70.56
869.468	68.96
869.636	65.4
869.803	73.45
869.971	87.58
870.138	83.64
870.306	76.16
870.473	79.45
870.641	78.17
870.808	70.79
870.975	79.01
871.143	81.59
871.31	82.68
871.478	102.36
871.645	98.2
871.812	85.07
871.98	90.9
872.147	96.57
872.314	102.44
872.482	105.28
872.649	107.87
872.816	94.85
872.983	90.17
873.15	80.45
873.318	71.66
873.485	80.21
873.652	83.78
873.819	93.01
873.986	100.27
874.153	99.77
874.32	104.1
874.487	105.94
874.654	103.74
874.821	105.16
874.988	110.68
875.155	108.24
875.322	104.75
875.489	110.16
875.656	92.69
875.823	87.47
875.99	85.4
876.157	85.74
876.324	82.08
876.49	86.05
876.657	80.17
876.824	71.68
876.991	80.58
877.157	75.42
877.324	80.29
877.491	78.97
877.658	84.3
877.824	81.69
877.991	76.54
878.157	83.35
878.324	83.07
878.491	88.81
878.657	99.18
878.824	96.31
878.99	97.57
879.157	101.73
879.323	101.31
879.49	96.05
879.656	105.1
879.823	107.84
879.989	102.15
880.156	99.29
880.322	91.5
880.488	85.98
880.655	80.83
880.821	82.95
880.987	75.41
881.154	68.36
881.32	65.26
881.486	60.24
881.652	58.41
881.819	57.76
881.985	53.97
882.151	54.59
882.317	52.2
882.483	51.59
882.649	52.2
882.816	52.11
882.982	53.07
883.148	51.58
883.314	51.05
883.48	51.33
883.646	50.62
883.812	51.26
883.978	51.03
884.144	51.91
884.31	50.18
884.476	48.72
884.642	49.55
884.807	50.11
884.973	50.07
885.139	48.59
885.305	48.93
885.471	51.03
885.637	50.37
885.802	50.81
885.968	51.79
886.134	54.48
886.3	53.42
886.465	51.51
886.631	50.64
886.797	53.16
886.962	55.39
887.128	56.43
887.293	52.89
887.459	55.49
887.625	58.23
887.79	59
887.956	55.4
888.121	61.86
888.287	63.86
888.452	67.91
888.618	68.13
888.783	73.63
