Data from LC_193_Reflection_1.txt Node
Date: Tue Nov 17 13:40:43 EST 2015
User: robert
Spectrometer: USB4E03001
Autoset integration time: false
Trigger mode: 4
Integration Time (sec): 1.000000E-1
Scans to average: 15
Electric dark correction enabled: true
Nonlinearity correction enabled: false
Boxcar width: 5
Stray light correction enabled: false
XAxis mode: Wavelengths
Stop averaging: false
Number of Pixels in Spectrum: 3648
>>>>>Begin Spectral Data<<<<<
177.566	204.37
177.785	258.82
178.005	-2154.85
178.225	453.64
178.445	-545.77
178.665	-225.04
178.885	42.71
179.105	-225.59
179.324	594
179.544	753.98
179.764	165.69
179.984	108.91
180.204	136.03
180.423	308.21
180.643	317.12
180.863	-1432.76
181.083	-2584.44
181.302	491.47
181.522	213.62
181.742	583.72
181.961	10289.22
182.181	-658.64
182.401	-94.77
182.621	-270.98
182.84	-332.88
183.06	-1279.9
183.279	1286.23
183.499	-5913.45
183.719	-571.12
183.938	-202.96
184.158	-377.6
184.377	-474.9
184.597	-365.56
184.816	450.73
185.036	453.96
185.256	457.8
185.475	267.05
185.695	331.77
185.914	200.15
186.134	256.43
186.353	135.87
186.572	159.16
186.792	133.91
187.011	144.8
187.231	211.71
187.45	863.17
187.67	274.99
187.889	289.89
188.108	258.7
188.328	310.22
188.547	295.45
188.766	-1386.96
188.986	1123.85
189.205	324.02
189.424	426.32
189.644	379.72
189.863	283.31
190.082	316.78
190.302	345.09
190.521	406.1
190.74	8165.58
190.959	1052.79
191.178	301.32
191.398	290.42
191.617	912.77
191.836	582.99
192.055	373.79
192.274	-932.86
192.494	-470.56
192.713	-1585.51
192.932	-866.65
193.151	1640.53
193.37	25634.92
193.589	-901100
193.808	22411.24
194.027	-2661.2
194.246	-1207.35
194.465	5456.08
194.685	619.95
194.904	473.14
195.123	77529.17
195.342	1863.97
195.561	582.34
195.78	442.12
195.999	607.13
196.218	375.03
196.436	334.1
196.655	233.29
196.874	257.98
197.093	254.95
197.312	194.18
197.531	158.07
197.75	137.96
197.969	149.26
198.188	151.64
198.407	117.99
198.625	139.32
198.844	151.33
199.063	133.73
199.282	141.49
199.501	128.91
199.719	216.46
199.938	231.1
200.157	269.74
200.376	735.73
200.594	446.83
200.813	289.22
201.032	406.41
201.251	377.19
201.469	5961.92
201.688	1847.74
201.907	-7421.61
202.125	2138.57
202.344	2191.55
202.563	1925.78
202.781	1335.65
203	-1554.22
203.218	-318.73
203.437	-468.2
203.656	-326.85
203.874	-604.87
204.093	-772.12
204.311	-913.76
204.53	14972.37
204.748	-536.03
204.967	2259.38
205.185	375.63
205.404	173.59
205.622	159.9
205.841	111
206.059	105.65
206.278	84.5
206.496	104.92
206.715	97.47
206.933	118.02
207.151	150.23
207.37	146.87
207.588	194.39
207.806	237.95
208.025	211.44
208.243	220.36
208.461	255.31
208.68	402.47
208.898	-687.84
209.116	-1324.39
209.335	3143.96
209.553	-1593.83
209.771	699.49
209.989	257.28
210.208	323.19
210.426	282.98
210.644	272.35
210.862	192.12
211.081	142.98
211.299	84.14
211.517	109.53
211.735	110.27
211.953	120.74
212.171	151.08
212.39	369.76
212.608	333.89
212.826	487.52
213.044	458.11
213.262	438.25
213.48	-18652.24
213.698	-1131.19
213.916	507.7
214.134	-1095.58
214.352	-337.75
214.57	-365.06
214.788	3991.77
215.006	1341.33
215.224	1383.44
215.442	960.67
215.66	1058.7
215.878	687.04
216.096	277.69
216.314	290.49
216.532	166.94
216.75	117.66
216.968	119.72
217.185	130.88
217.403	157.11
217.621	140.57
217.839	157.68
218.057	181.97
218.275	183.06
218.492	213.41
218.71	210.73
218.928	276.19
219.146	311.7
219.363	334.97
219.581	234.7
219.799	249.07
220.017	302.1
220.234	279.17
220.452	217.83
220.67	194.08
220.887	208.96
221.105	220.21
221.323	169.12
221.54	147.6
221.758	132.65
221.976	139.13
222.193	111.36
222.411	93.88
222.629	93.7
222.846	92.04
223.064	80.77
223.281	106.99
223.499	109.34
223.716	120.01
223.934	126.72
224.151	115.33
224.369	104.49
224.586	108.99
224.804	106.64
225.021	114.33
225.239	114.7
225.456	122.32
225.674	92.28
225.891	87.37
226.108	86.37
226.326	77.11
226.543	71.69
226.76	74.98
226.978	70.58
227.195	66.49
227.413	57.56
227.63	51.55
227.847	49.51
228.064	47.92
228.282	43.18
228.499	43.68
228.716	43.02
228.934	44.04
229.151	44.22
229.368	41.63
229.585	38.62
229.802	41.9
230.02	43.58
230.237	42.82
230.454	45.3
230.671	48.11
230.888	48.78
231.105	50.57
231.323	49.82
231.54	54.37
231.757	60.2
231.974	64.3
232.191	59.73
232.408	57.11
232.625	57.83
232.842	52.14
233.059	52.52
233.276	52.28
233.493	50.96
233.71	54.39
233.927	43.9
234.144	40.52
234.361	34.75
234.578	37.98
234.795	38.15
235.012	34.03
235.229	33.94
235.446	30.59
235.663	32.19
235.879	34.16
236.096	37.22
236.313	46.92
236.53	46.23
236.747	49.17
236.964	44.44
237.181	45.97
237.397	49.92
237.614	48.61
237.831	50.95
238.048	50.91
238.264	51.17
238.481	44.74
238.698	34.96
238.915	36.63
239.131	41.16
239.348	42.71
239.565	37.63
239.781	40.88
239.998	42.93
240.215	43.98
240.431	38.21
240.648	32.32
240.865	29.8
241.081	31.62
241.298	30.71
241.514	29.28
241.731	29.35
241.947	29.74
242.164	26.28
242.38	23.78
242.597	22.63
242.814	23.39
243.03	24.85
243.246	27.06
243.463	27.6
243.679	27.15
243.896	26.94
244.112	24.03
244.329	23.68
244.545	24.05
244.762	24.45
244.978	23.89
245.194	22.25
245.411	21.82
245.627	20.07
245.843	18.76
246.06	17.4
246.276	14.95
246.492	15.76
246.709	15.97
246.925	17.03
247.141	17.16
247.357	16.81
247.574	17.52
247.79	17.18
248.006	16.66
248.222	16.91
248.439	17.12
248.655	17.63
248.871	17.99
249.087	17.99
249.303	17.43
249.519	19.52
249.736	20.48
249.952	20.99
250.168	24.95
250.384	26.39
250.6	26.29
250.816	25.68
251.032	25.42
251.248	26.06
251.464	27.69
251.68	28.34
251.896	25.56
252.112	23.98
252.328	24.23
252.544	21.36
252.76	20.94
252.976	19.05
253.192	20.04
253.408	20.93
253.624	19.36
253.84	17.34
254.056	16.74
254.272	15.76
254.487	17.64
254.703	15.08
254.919	16.94
255.135	19.88
255.351	21.22
255.567	21.54
255.782	17.77
255.998	22.31
256.214	25.54
256.43	24.49
256.646	25.23
256.861	22.12
257.077	23.22
257.293	22.49
257.508	22.08
257.724	22.41
257.94	21.91
258.155	22.89
258.371	22.21
258.587	18.63
258.802	17.14
259.018	15.99
259.234	15.77
259.449	16.08
259.665	14.97
259.88	13.82
260.096	13.97
260.312	13.38
260.527	12.9
260.743	12.71
260.958	12.85
261.174	13.78
261.389	14.06
261.605	15.31
261.82	14.58
262.036	14.52
262.251	14.41
262.466	14.43
262.682	16
262.897	15.3
263.113	14.08
263.328	15.08
263.543	16.16
263.759	16.59
263.974	15.79
264.189	15.98
264.405	18.53
264.62	20.24
264.835	20.53
265.051	20.22
265.266	23.34
265.481	24.45
265.696	26.14
265.912	25.32
266.127	23.59
266.342	20.59
266.557	20.53
266.773	19.36
266.988	19.82
267.203	19.51
267.418	19.77
267.633	18.82
267.848	17.51
268.064	14.74
268.279	13.03
268.494	13.2
268.709	15.25
268.924	15.62
269.139	15.18
269.354	14.3
269.569	14.14
269.784	12.29
269.999	13.43
270.214	14.48
270.429	16.46
270.644	15.88
270.859	16.11
271.074	14.88
271.289	14.9
271.504	15.01
271.719	15.35
271.934	15.38
272.149	15.83
272.363	16.04
272.578	15.84
272.793	15
273.008	16.45
273.223	16.81
273.438	16.31
273.653	16.27
273.867	16.37
274.082	15.23
274.297	14.51
274.512	14.92
274.726	13.62
274.941	12.1
275.156	13.4
275.371	11.72
275.585	12.94
275.8	15.12
276.015	16.59
276.229	14.31
276.444	14.44
276.659	14.44
276.873	14.5
277.088	14.77
277.302	15.92
277.517	14.29
277.732	13.72
277.946	11.92
278.161	12.23
278.375	10.36
278.59	13.5
278.804	14.12
279.019	14.35
279.233	13.49
279.448	13.97
279.662	14.84
279.877	14.6
280.091	15.04
280.306	15.12
280.52	14.33
280.735	14.21
280.949	13.66
281.163	13.79
281.378	14.3
281.592	13.93
281.806	12.64
282.021	13.18
282.235	14.02
282.449	15.1
282.664	15.21
282.878	16.05
283.092	15.34
283.307	14.67
283.521	14.62
283.735	13.65
283.949	13.95
284.164	14.81
284.378	13.41
284.592	12.6
284.806	12.2
285.02	11.79
285.234	10.81
285.449	11.77
285.663	12.47
285.877	12.3
286.091	11.85
286.305	11.84
286.519	11.57
286.733	12.31
286.947	12.23
287.161	12.07
287.375	12.39
287.589	12.82
287.803	12.36
288.017	11.01
288.231	11.05
288.445	12.08
288.659	12.15
288.873	12.17
289.087	12.26
289.301	12.94
289.515	13.07
289.729	13.69
289.943	13.46
290.157	12.88
290.371	13.02
290.584	13.4
290.798	13.13
291.012	14.09
291.226	14.98
291.44	14.45
291.654	14.9
291.867	13.93
292.081	12.34
292.295	11.62
292.509	11.95
292.722	13.03
292.936	12.97
293.15	13.18
293.364	12.24
293.577	11.72
293.791	10.79
294.005	10.9
294.218	12.25
294.432	13.95
294.645	14.51
294.859	15.42
295.073	14.13
295.286	13.38
295.5	13.52
295.713	14.03
295.927	13.32
296.14	13.74
296.354	12.88
296.568	12.41
296.781	12.07
296.994	12.19
297.208	11.87
297.421	11.82
297.635	12.25
297.848	11.47
298.062	11.35
298.275	11.38
298.489	11.02
298.702	11.66
298.915	12.46
299.129	12.89
299.342	13.12
299.555	13
299.769	14.29
299.982	14.78
300.195	15.15
300.409	14.84
300.622	14.71
300.835	16.23
301.048	15.71
301.262	15.84
301.475	15.34
301.688	14.6
301.901	15.02
302.115	15.69
302.328	15.74
302.541	16.05
302.754	15.94
302.967	16.52
303.18	15.64
303.393	14.83
303.607	14.54
303.82	14.72
304.033	14.59
304.246	13.97
304.459	12.95
304.672	11.76
304.885	12.51
305.098	12.79
305.311	13.61
305.524	13.6
305.737	13.94
305.95	15.02
306.163	13.17
306.376	12.7
306.589	12.44
306.802	11.84
307.015	11.99
307.228	12.94
307.44	12.42
307.653	11.96
307.866	11.79
308.079	12.58
308.292	11.35
308.505	12.29
308.718	13.19
308.93	13.12
309.143	13.84
309.356	13.82
309.569	11.8
309.781	12.36
309.994	11.15
310.207	10.78
310.42	9.9
310.632	8.78
310.845	9.35
311.058	8.81
311.27	8.28
311.483	8.23
311.696	8.66
311.908	9.11
312.121	8.73
312.333	9.83
312.546	10.88
312.759	11.57
312.971	12.33
313.184	12.6
313.396	13.39
313.609	14.71
313.821	15.16
314.034	15.53
314.246	16.69
314.459	17.35
314.671	16.44
314.884	16.12
315.096	16.3
315.309	16.04
315.521	15.81
315.733	15.56
315.946	15.39
316.158	14.39
316.371	13.96
316.583	13.31
316.795	13.42
317.008	14.72
317.22	14.64
317.432	15.53
317.644	15.18
317.857	15.3
318.069	15.91
318.281	16.59
318.494	16.18
318.706	15.96
318.918	15.13
319.13	15.19
319.342	14.74
319.555	13.5
319.767	13.33
319.979	14.5
320.191	14.62
320.403	15.18
320.615	14.08
320.827	14.98
321.039	16.49
321.252	17.51
321.464	17.66
321.676	18.26
321.888	19.43
322.1	18.51
322.312	17.34
322.524	17.22
322.736	15.24
322.948	15.84
323.16	15.15
323.372	13.43
323.584	13.65
323.796	14.73
324.007	14.7
324.219	15.32
324.431	16.06
324.643	16.95
324.855	17.65
325.067	18.74
325.279	18.94
325.491	19.6
325.702	20.09
325.914	19.49
326.126	18.53
326.338	17.78
326.55	16.15
326.761	15.7
326.973	15.96
327.185	15.64
327.396	15.77
327.608	15.08
327.82	14.69
328.032	15.27
328.243	15.17
328.455	14.83
328.666	15.52
328.878	16.93
329.09	17.35
329.301	17.12
329.513	16.84
329.725	17.01
329.936	17.87
330.148	20.21
330.359	19.45
330.571	20.03
330.782	20.07
330.994	18.94
331.205	18.03
331.417	17.83
331.628	18.79
331.84	19.61
332.051	19.24
332.262	18.33
332.474	16.94
332.685	18.22
332.897	18.15
333.108	17.85
333.319	18.88
333.531	19.49
333.742	19.29
333.953	17.88
334.165	16.59
334.376	16.93
334.587	17.84
334.799	16.54
335.01	16.61
335.221	16.54
335.432	16.08
335.644	15.52
335.855	15.32
336.066	16.14
336.277	17.28
336.488	18.49
336.7	18.05
336.911	18.09
337.122	18.62
337.333	17.96
337.544	18.44
337.755	19.23
337.966	19.7
338.177	19.74
338.388	19.32
338.599	18.67
338.811	17.71
339.022	17.46
339.233	16.2
339.444	16.63
339.655	17.15
339.866	17.2
340.076	16.34
340.287	16.29
340.498	16.03
340.709	15.61
340.92	15.38
341.131	15.17
341.342	14.92
341.553	15.67
341.764	15.41
341.975	15.24
342.185	14.8
342.396	14.88
342.607	14.95
342.818	15.93
343.029	15.97
343.239	15.76
343.45	16.49
343.661	17.35
343.872	17.29
344.082	17.59
344.293	17.41
344.504	18.98
344.714	19.78
344.925	19.64
345.136	18.32
345.346	18.42
345.557	18.81
345.768	19.23
345.978	18.81
346.189	19.93
346.399	20.12
346.61	20.5
346.821	19.16
347.031	19.6
347.242	19.54
347.452	20.46
347.663	20.7
347.873	20.19
348.084	19.18
348.294	19.44
348.504	18.13
348.715	18.18
348.925	17.33
349.136	16.32
349.346	15.25
349.557	14.76
349.767	14.38
349.977	13.37
350.188	13.66
350.398	13.97
350.608	13.4
350.819	12.88
351.029	12.25
351.239	13.13
351.449	14.34
351.66	14.42
351.87	15.1
352.08	15.06
352.29	16.25
352.501	16.23
352.711	16.83
352.921	17.5
353.131	18.24
353.341	18.22
353.552	17.31
353.762	17.19
353.972	16.75
354.182	17.35
354.392	18.07
354.602	18.06
354.812	17.97
355.022	17.84
355.232	17.1
355.442	16.82
355.652	16.86
355.862	16.82
356.072	16.31
356.282	16.89
356.492	16.07
356.702	15.37
356.912	15.68
357.122	16.46
357.332	15.98
357.542	15.91
357.752	15.92
357.962	15.99
358.171	16.08
358.381	16.3
358.591	15.8
358.801	15.77
359.011	15.51
359.221	15.2
359.43	15.05
359.64	14.81
359.85	14.8
360.06	15.01
360.269	15.13
360.479	14.79
360.689	14.86
360.899	14.66
361.108	13.92
361.318	13.86
361.528	13.21
361.737	12.46
361.947	12.51
362.156	12.55
362.366	11.95
362.576	11.77
362.785	11.98
362.995	11.6
363.204	11.96
363.414	12.43
363.623	12.52
363.833	13
364.042	13.38
364.252	13.15
364.461	13.08
364.671	14.01
364.88	13.48
365.09	13.79
365.299	14.14
365.509	14.24
365.718	14.54
365.927	14.77
366.137	14.72
366.346	14.99
366.555	14.96
366.765	15.23
366.974	14.64
367.183	14.86
367.393	14.04
367.602	13.7
367.811	13.54
368.021	13.15
368.23	13.42
368.439	13.27
368.648	12.75
368.857	13.07
369.067	13.02
369.276	13.5
369.485	13.96
369.694	13.97
369.903	14.27
370.112	13.76
370.321	13.59
370.531	12.67
370.74	12.3
370.949	11.98
371.158	12.11
371.367	11.91
371.576	12.15
371.785	11.98
371.994	12.29
372.203	12.22
372.412	12.69
372.621	12.6
372.83	12.9
373.039	13.17
373.248	13.35
373.457	13.56
373.666	13.37
373.874	12.58
374.083	12.26
374.292	12.17
374.501	12.27
374.71	12.19
374.919	12.7
375.128	12.63
375.336	12.66
375.545	13
375.754	12.25
375.963	12.17
376.171	12.59
376.38	13.05
376.589	13.4
376.798	12.99
377.006	12.82
377.215	12.88
377.424	12.8
377.632	12.16
377.841	12.22
378.05	12.46
378.258	12.67
378.467	12.06
378.675	11.73
378.884	11.21
379.093	11.41
379.301	11.55
379.51	11.6
379.718	11.69
379.927	12.16
380.135	11.69
380.344	11.93
380.552	12.09
380.761	12.17
380.969	12.14
381.177	12.46
381.386	12.48
381.594	12.46
381.803	12.25
382.011	12.21
382.219	12.16
382.428	12.46
382.636	12.29
382.845	12.17
383.053	12.62
383.261	12.47
383.469	12.92
383.678	12.88
383.886	12.44
384.094	12.21
384.302	12.21
384.511	12.32
384.719	11.99
384.927	11.95
385.135	12.29
385.343	12.01
385.552	12.4
385.76	11.73
385.968	11.84
386.176	12.16
386.384	12.13
386.592	11.99
386.8	12.15
387.008	11.88
387.216	11.74
387.424	11.4
387.633	11.33
387.841	10.91
388.049	11.12
388.257	11.1
388.465	10.97
388.672	10.88
388.88	11.01
389.088	10.71
389.296	11.15
389.504	11.61
389.712	11.74
389.92	11.86
390.128	12.22
390.336	11.92
390.544	11.51
390.751	11.33
390.959	11.43
391.167	11.34
391.375	11.44
391.583	11.47
391.79	11
391.998	10.92
392.206	11.08
392.414	10.67
392.621	10.84
392.829	10.91
393.037	11.07
393.244	11.27
393.452	11.06
393.66	10.79
393.867	10.63
394.075	10.69
394.283	10.65
394.49	10.29
394.698	10.5
394.905	10.66
395.113	10.87
395.32	10.5
395.528	10.39
395.735	10.78
395.943	11
396.15	10.87
396.358	10.77
396.565	10.44
396.773	10.63
396.98	10.75
397.188	10.49
397.395	10.28
397.602	10.77
397.81	10.89
398.017	10.44
398.225	10.57
398.432	10.71
398.639	10.86
398.847	11.42
399.054	11.21
399.261	11.02
399.468	11
399.676	11.49
399.883	11.68
400.09	11.6
400.297	11.97
400.505	11.76
400.712	12.07
400.919	12.15
401.126	11.86
401.333	12.1
401.54	12.12
401.748	12.18
401.955	11.8
402.162	11.48
402.369	11.52
402.576	11.37
402.783	10.96
402.99	10.66
403.197	10.61
403.404	10.45
403.611	10.33
403.818	10.32
404.025	10.1
404.232	9.81
404.439	9.92
404.646	9.73
404.853	9.63
405.06	9.84
405.267	10
405.474	9.51
405.681	9.52
405.887	9.49
406.094	9.84
406.301	10.24
406.508	10.19
406.715	10.25
406.922	10.3
407.128	10.5
407.335	10.63
407.542	10.4
407.749	10.94
407.955	11.42
408.162	11.59
408.369	11.4
408.575	11.14
408.782	11.49
408.989	11.25
409.195	11.35
409.402	11.43
409.609	11.32
409.815	11.28
410.022	11.14
410.228	10.72
410.435	10.53
410.642	10.41
410.848	10.51
411.055	10.34
411.261	10.38
411.468	10.39
411.674	10.22
411.881	10.21
412.087	10.47
412.294	10.31
412.5	10.35
412.706	10.34
412.913	10.3
413.119	10.46
413.326	10.5
413.532	10.37
413.738	10.21
413.945	9.96
414.151	10
414.357	10.01
414.564	10.26
414.77	10.22
414.976	10.43
415.182	10.7
415.389	10.49
415.595	10.45
415.801	10.54
416.007	10.69
416.214	11.01
416.42	10.97
416.626	10.64
416.832	10.53
417.038	10.41
417.244	10.3
417.45	10.15
417.657	9.99
417.863	9.87
418.069	9.66
418.275	9.42
418.481	9.36
418.687	9.26
418.893	9.33
419.099	9.2
419.305	9.38
419.511	9.27
419.717	9.21
419.923	9.19
420.129	9.14
420.335	9.21
420.541	9.11
420.746	9.1
420.952	9.25
421.158	9.19
421.364	9.27
421.57	9.17
421.776	9.12
421.982	9.06
422.187	9.05
422.393	9.19
422.599	9.16
422.805	9.26
423.01	9.14
423.216	9.01
423.422	9.09
423.628	9.17
423.833	9.12
424.039	9.07
424.245	9.1
424.45	9.11
424.656	9.08
424.862	9.07
425.067	9.05
425.273	9.19
425.478	9.11
425.684	8.95
425.889	8.88
426.095	8.99
426.301	9.05
426.506	9.14
426.712	9.12
426.917	9.21
427.123	9.4
427.328	9.58
427.533	9.45
427.739	9.53
427.944	9.6
428.15	9.39
428.355	9.32
428.561	9.38
428.766	9.05
428.971	9.13
429.177	9.01
429.382	8.95
429.587	8.83
429.793	9.06
429.998	9.03
430.203	9.08
430.408	9.28
430.614	9.29
430.819	9.14
431.024	9.25
431.229	9.09
431.434	9.1
431.64	9.06
431.845	9.23
432.05	9.19
432.255	9.11
432.46	9.22
432.665	9.28
432.87	9.2
433.076	9.34
433.281	9.4
433.486	9.62
433.691	9.55
433.896	9.39
434.101	9.17
434.306	9.05
434.511	9.12
434.716	9.02
434.921	9.04
435.126	9.29
435.331	9.15
435.535	9.19
435.74	8.99
435.945	8.97
436.15	9.12
436.355	9.22
436.56	9.28
436.765	9.66
436.97	9.72
437.174	9.47
437.379	9.24
437.584	9.66
437.789	9.57
437.993	9.71
438.198	9.66
438.403	9.61
438.608	9.64
438.812	9.45
439.017	9.27
439.222	9.24
439.426	9.41
439.631	9.34
439.836	9.06
440.04	9.01
440.245	9
440.45	8.96
440.654	9.04
440.859	8.97
441.063	9.1
441.268	9.08
441.472	9.24
441.677	9.3
441.881	9.39
442.086	9.54
442.29	9.63
442.495	9.68
442.699	9.73
442.904	9.66
443.108	9.61
443.312	9.54
443.517	9.48
443.721	9.29
443.925	9.02
444.13	8.9
444.334	8.74
444.538	8.48
444.743	8.3
444.947	8.39
445.151	8.38
445.356	8.48
445.56	8.52
445.764	8.56
445.968	8.55
446.173	8.65
446.377	8.69
446.581	8.69
446.785	8.77
446.989	8.81
447.193	8.88
447.398	9
447.602	8.98
447.806	8.94
448.01	8.9
448.214	8.93
448.418	8.87
448.622	8.92
448.826	8.91
449.03	8.98
449.234	9.03
449.438	8.87
449.642	8.7
449.846	8.68
450.05	8.7
450.254	8.48
450.458	8.26
450.662	8.3
450.866	8.14
451.069	8.22
451.273	8.09
451.477	8.14
451.681	8.37
451.885	8.52
452.089	8.45
452.292	8.45
452.496	8.56
452.7	8.73
452.904	8.73
453.107	8.94
453.311	8.91
453.515	9.06
453.719	9.02
453.922	8.81
454.126	8.56
454.33	8.57
454.533	8.51
454.737	8.61
454.94	8.5
455.144	8.64
455.348	8.5
455.551	8.51
455.755	8.48
455.958	8.31
456.162	8.14
456.365	8.17
456.569	8.26
456.772	8.28
456.976	8.28
457.179	8.28
457.383	8.1
457.586	8.21
457.79	8.24
457.993	8.43
458.196	8.6
458.4	8.95
458.603	9.11
458.807	8.92
459.01	9.03
459.213	8.96
459.417	9.04
459.62	9.08
459.823	8.93
460.026	8.85
460.23	8.69
460.433	8.68
460.636	8.52
460.839	8.41
461.042	8.54
461.246	8.63
461.449	8.64
461.652	8.55
461.855	8.48
462.058	8.47
462.261	8.48
462.464	8.46
462.668	8.31
462.871	8.33
463.074	8.34
463.277	8.17
463.48	7.87
463.683	7.92
463.886	8.08
464.089	8.24
464.292	8.29
464.495	8.34
464.698	8.39
464.901	8.55
465.104	8.56
465.306	8.6
465.509	8.77
465.712	8.86
465.915	9.03
466.118	8.91
466.321	8.65
466.524	8.65
466.726	8.76
466.929	8.78
467.132	8.68
467.335	8.61
467.538	8.52
467.74	8.47
467.943	8.39
468.146	8.22
468.348	8.19
468.551	8.29
468.754	8.41
468.956	8.31
469.159	8.24
469.362	8.32
469.564	8.3
469.767	8.53
469.969	8.57
470.172	8.8
470.375	8.8
470.577	8.94
470.78	8.79
470.982	8.66
471.185	8.61
471.387	8.8
471.59	8.88
471.792	8.77
471.995	8.73
472.197	8.65
472.399	8.47
472.602	8.55
472.804	8.57
473.007	8.69
473.209	8.74
473.411	8.7
473.614	8.63
473.816	8.5
474.018	8.74
474.22	8.59
474.423	8.73
474.625	8.68
474.827	8.51
475.03	8.34
475.232	8.5
475.434	8.58
475.636	8.59
475.838	8.53
476.04	8.48
476.243	8.26
476.445	8.34
476.647	8.35
476.849	8.3
477.051	8.41
477.253	8.55
477.455	8.43
477.657	8.2
477.859	8.3
478.061	8.25
478.263	8.29
478.465	8.49
478.667	8.48
478.869	8.38
479.071	8.54
479.273	8.49
479.475	8.5
479.677	8.58
479.879	8.86
480.081	8.81
480.283	8.9
480.485	8.81
480.686	8.64
480.888	8.65
481.09	8.56
481.292	8.38
481.494	8.27
481.695	8.2
481.897	7.93
482.099	7.84
482.301	7.88
482.502	7.79
482.704	7.85
482.906	7.91
483.107	7.77
483.309	7.74
483.511	7.78
483.712	7.81
483.914	7.75
484.115	7.86
484.317	7.82
484.519	7.79
484.72	7.82
484.922	7.8
485.123	7.78
485.325	7.81
485.526	7.86
485.728	7.84
485.929	7.82
486.131	7.92
486.332	7.91
486.534	7.93
486.735	7.97
486.936	7.94
487.138	7.94
487.339	7.92
487.541	8.02
487.742	8
487.943	8.05
488.144	8.08
488.346	8.04
488.547	8.08
488.748	8.09
488.95	8.06
489.151	8.08
489.352	8.06
489.553	8.13
489.755	8.14
489.956	8.06
490.157	7.99
490.358	8.02
490.559	8.01
490.76	7.96
490.961	7.98
491.163	8.04
491.364	8.06
491.565	8.1
491.766	8.04
491.967	8.04
492.168	8.16
492.369	8.21
492.57	8.24
492.771	8.33
492.972	8.38
493.173	8.43
493.374	8.47
493.575	8.52
493.776	8.48
493.976	8.62
494.177	8.65
494.378	8.58
494.579	8.68
494.78	8.67
494.981	8.54
495.182	8.43
495.382	8.51
495.583	8.51
495.784	8.64
495.985	8.77
496.185	8.74
496.386	8.65
496.587	8.73
496.788	8.85
496.988	8.85
497.189	9.01
497.39	9.07
497.59	9.11
497.791	9.1
497.992	8.96
498.192	8.99
498.393	8.89
498.593	8.94
498.794	8.96
498.994	9.03
499.195	8.91
499.395	8.82
499.596	8.9
499.796	8.68
499.997	8.67
500.197	8.76
500.398	8.67
500.598	8.82
500.799	8.88
500.999	8.84
501.199	8.61
501.4	8.86
501.6	8.82
501.801	8.95
502.001	9.23
502.201	9.44
502.402	9.51
502.602	9.61
502.802	9.63
503.002	9.73
503.203	9.9
503.403	9.91
503.603	9.82
503.803	9.92
504.003	9.84
504.204	9.77
504.404	9.86
504.604	9.72
504.804	9.96
505.004	9.91
505.204	9.81
505.404	9.92
505.604	9.98
505.804	10.06
506.005	10.02
506.205	9.97
506.405	10.01
506.605	9.85
506.805	10.06
507.005	9.94
507.204	9.98
507.404	10
507.604	10.03
507.804	10.05
508.004	10.23
508.204	10.39
508.404	10.61
508.604	10.61
508.804	10.74
509.003	10.81
509.203	10.81
509.403	10.88
509.603	11.06
509.803	10.92
510.002	11.04
510.202	11.02
510.402	11.07
510.602	10.9
510.801	10.93
511.001	10.92
511.201	10.9
511.4	10.81
511.6	10.93
511.8	10.86
511.999	11
512.199	10.94
512.398	10.94
512.598	10.89
512.797	11.12
512.997	11.08
513.197	11.06
513.396	11.07
513.596	11.16
513.795	11.21
513.994	11.36
514.194	11.4
514.393	11.48
514.593	11.39
514.792	11.57
514.992	11.67
515.191	12.05
515.39	12.16
515.59	12.18
515.789	12.42
515.988	12.37
516.188	12.35
516.387	12.25
516.586	12.27
516.786	12.35
516.985	12.26
517.184	12.29
517.383	12.13
517.582	12.09
517.782	12.09
517.981	11.99
518.18	12.06
518.379	12.13
518.578	12.15
518.777	12.17
518.976	12.32
519.176	12.46
519.375	12.39
519.574	12.49
519.773	12.53
519.972	12.58
520.171	12.74
520.37	12.77
520.569	12.79
520.768	12.88
520.967	12.91
521.166	12.84
521.365	12.8
521.564	12.9
521.762	12.93
521.961	13.04
522.16	13.06
522.359	13.1
522.558	13.02
522.757	13.05
522.956	13.23
523.154	13.27
523.353	13.26
523.552	13.35
523.751	13.35
523.949	13.43
524.148	13.56
524.347	13.73
524.546	13.77
524.744	13.98
524.943	14.17
525.142	14.12
525.34	14.19
525.539	14.31
525.737	14.34
525.936	14.47
526.135	14.51
526.333	14.46
526.532	14.41
526.73	14.43
526.929	14.39
527.127	14.39
527.326	14.42
527.524	14.48
527.723	14.49
527.921	14.53
528.12	14.48
528.318	14.45
528.516	14.43
528.715	14.45
528.913	14.44
529.112	14.49
529.31	14.4
529.508	14.5
529.707	14.51
529.905	14.59
530.103	14.55
530.301	14.57
530.5	14.63
530.698	14.75
530.896	14.85
531.094	15.05
531.293	15.09
531.491	15.21
531.689	15.19
531.887	15.26
532.085	15.31
532.283	15.51
532.481	15.56
532.68	15.53
532.878	15.55
533.076	15.56
533.274	15.57
533.472	15.68
533.67	15.7
533.868	15.78
534.066	15.86
534.264	15.85
534.462	15.84
534.66	15.93
534.858	16.08
535.056	16.09
535.253	16.19
535.451	16.21
535.649	16.22
535.847	16.38
536.045	16.42
536.243	16.47
536.441	16.47
536.638	16.53
536.836	16.56
537.034	16.57
537.232	16.79
537.43	16.9
537.627	16.9
537.825	17.02
538.023	17.08
538.22	17.18
538.418	17.27
538.616	17.52
538.813	17.64
539.011	17.85
539.209	17.89
539.406	18
539.604	18.11
539.801	18.33
539.999	18.33
540.196	18.48
540.394	18.48
540.591	18.45
540.789	18.4
540.986	18.4
541.184	18.34
541.381	18.42
541.579	18.28
541.776	18.31
541.974	18.25
542.171	18.31
542.368	18.22
542.566	18.3
542.763	18.31
542.96	18.4
543.158	18.41
543.355	18.46
543.552	18.48
543.75	18.77
543.947	18.77
544.144	18.85
544.341	19.01
544.539	19.09
544.736	19.11
544.933	19.17
545.13	19.3
545.327	19.53
545.524	19.67
545.722	19.83
545.919	19.7
546.116	19.9
546.313	20.02
546.51	20
546.707	20.32
546.904	20.54
547.101	20.7
547.298	20.75
547.495	20.73
547.692	20.81
547.889	20.91
548.086	21.14
548.283	21.22
548.48	21.21
548.677	21.25
548.874	21.3
549.07	21.13
549.267	21.34
549.464	21.47
549.661	21.67
549.858	21.85
550.055	21.91
550.251	21.91
550.448	22.03
550.645	22.32
550.842	22.56
551.038	22.49
551.235	22.81
551.432	22.86
551.628	22.82
551.825	22.92
552.022	22.98
552.218	23.05
552.415	23.12
552.612	23.28
552.808	23.39
553.005	23.49
553.201	23.65
553.398	23.58
553.594	23.68
553.791	23.81
553.987	23.68
554.184	23.83
554.38	24.08
554.577	24.34
554.773	24.23
554.97	24.32
555.166	24.34
555.362	24.33
555.559	24.48
555.755	24.51
555.952	24.54
556.148	24.83
556.344	24.89
556.541	24.74
556.737	24.63
556.933	24.82
557.129	25.04
557.326	25.12
557.522	25.38
557.718	25.6
557.914	25.67
558.11	25.84
558.307	26
558.503	26.05
558.699	26.57
558.895	26.66
559.091	26.79
559.287	26.78
559.483	26.7
559.679	26.74
559.876	26.81
560.072	27.09
560.268	27.22
560.464	27.27
560.66	27.2
560.856	27.05
561.052	27.19
561.247	27.13
561.443	27.21
561.639	27.41
561.835	27.29
562.031	27.25
562.227	27.11
562.423	27.2
562.619	27.26
562.815	27.43
563.01	27.49
563.206	27.61
563.402	27.72
563.598	27.62
563.793	27.66
563.989	27.89
564.185	28.14
564.381	28.33
564.576	28.39
564.772	28.3
564.968	28.41
565.163	28.36
565.359	28.39
565.555	28.4
565.75	28.77
565.946	28.93
566.141	28.87
566.337	28.94
566.532	29
566.728	29.01
566.923	29.34
567.119	29.42
567.314	29.61
567.51	29.76
567.705	29.87
567.901	29.67
568.096	29.76
568.292	29.89
568.487	29.93
568.682	30.13
568.878	30.17
569.073	30
569.268	29.92
569.464	30.13
569.659	30.17
569.854	30.35
570.05	30.41
570.245	30.56
570.44	30.68
570.635	30.73
570.831	30.78
571.026	30.92
571.221	31.06
571.416	31.31
571.611	31.14
571.806	31.23
572.002	31.18
572.197	31.23
572.392	31.13
572.587	31.29
572.782	31.36
572.977	31.2
573.172	31.38
573.367	31.37
573.562	31.41
573.757	31.46
573.952	31.48
574.147	31.75
574.342	31.8
574.537	31.97
574.732	31.83
574.927	31.95
575.121	32.04
575.316	32
575.511	32.1
575.706	32.17
575.901	32.19
576.096	32.19
576.29	32.22
576.485	32.35
576.68	32.48
576.875	32.62
577.069	32.68
577.264	32.83
577.459	32.79
577.654	33.11
577.848	33.17
578.043	33.37
578.238	33.5
578.432	33.37
578.627	33.41
578.821	33.46
579.016	33.51
579.21	33.58
579.405	33.8
579.6	34.02
579.794	33.88
579.989	33.97
580.183	33.74
580.378	33.49
580.572	33.4
580.766	33.52
580.961	33.55
581.155	33.86
581.35	33.91
581.544	33.99
581.738	34.08
581.933	34.15
582.127	34.34
582.321	34.72
582.516	34.85
582.71	35.3
582.904	35.47
583.099	35.4
583.293	35.38
583.487	35.38
583.681	35.27
583.875	35.22
584.07	35.26
584.264	35.17
584.458	35.46
584.652	35.75
584.846	35.58
585.04	35.73
585.234	36.07
585.428	36.01
585.623	36.18
585.817	36.35
586.011	36.57
586.205	36.74
586.399	36.76
586.593	36.57
586.787	36.9
586.981	36.86
587.174	37.07
587.368	37.03
587.562	37.36
587.756	37.21
587.95	37.23
588.144	37.15
588.338	37.03
588.532	36.93
588.725	36.97
588.919	36.73
589.113	36.82
589.307	36.35
589.501	36.37
589.694	36.32
589.888	36.45
590.082	36.52
590.275	36.55
590.469	36.64
590.663	36.69
590.856	36.62
591.05	36.83
591.244	36.96
591.437	37.34
591.631	37.02
591.824	37.01
592.018	37.11
592.212	37.08
592.405	37.06
592.599	37.2
592.792	37.5
592.986	37.41
593.179	37.53
593.372	37.7
593.566	37.7
593.759	38.28
593.953	38.14
594.146	38.21
594.339	38.19
594.533	38.37
594.726	38.34
594.92	38.33
595.113	38.74
595.306	38.46
595.499	38.33
595.693	38.38
595.886	38.16
596.079	38.31
596.272	37.99
596.466	38.09
596.659	38.16
596.852	37.96
597.045	37.9
597.238	37.75
597.431	37.91
597.624	38.06
597.818	37.9
598.011	37.9
598.204	37.84
598.397	38.04
598.59	37.95
598.783	37.88
598.976	37.98
599.169	38.08
599.362	38.06
599.555	38.14
599.748	38.09
599.941	38.35
600.134	38.51
600.326	38.61
600.519	38.88
600.712	38.86
600.905	38.79
601.098	39.27
601.291	39.26
601.483	39.45
601.676	39.49
601.869	39.45
602.062	39.4
602.255	39.46
602.447	39.47
602.64	39.28
602.833	39.25
603.025	39.41
603.218	39.37
603.411	39.47
603.603	39.59
603.796	39.54
603.989	39.44
604.181	39.45
604.374	39.43
604.566	39.39
604.759	39.52
604.951	39.72
605.144	39.67
605.336	39.58
605.529	39.28
605.721	39.22
605.914	39.41
606.106	39.61
606.299	39.72
606.491	39.83
606.683	40.04
606.876	40.15
607.068	40.34
607.26	40.58
607.453	40.65
607.645	40.81
607.837	40.57
608.03	40.42
608.222	40.53
608.414	40.53
608.606	40.41
608.799	40.24
608.991	40.08
609.183	40.03
609.375	40.11
609.567	40.24
609.759	40.44
609.952	40.74
610.144	40.79
610.336	40.8
610.528	40.88
610.72	41.15
610.912	41.46
611.104	41.62
611.296	41.64
611.488	41.72
611.68	41.82
611.872	42.06
612.064	42.18
612.256	42.26
612.448	42.28
612.64	42.31
612.832	42.09
613.023	42.05
613.215	42.15
613.407	42.05
613.599	41.93
613.791	41.9
613.983	41.85
614.174	41.8
614.366	41.6
614.558	41.71
614.75	41.65
614.941	41.73
615.133	41.64
615.325	41.89
615.516	41.89
615.708	41.73
615.9	41.74
616.091	41.63
616.283	41.54
616.475	41.9
616.666	41.61
616.858	41.92
617.049	41.88
617.241	41.75
617.432	41.43
617.624	41.62
617.815	41.87
618.007	41.84
618.198	42.14
618.39	42.32
618.581	42.17
618.773	42.33
618.964	42.07
619.155	42.41
619.347	42.46
619.538	42.6
619.729	42.67
619.921	42.73
620.112	42.73
620.303	42.06
620.494	41.94
620.686	42.14
620.877	42.35
621.068	42.69
621.259	42.54
621.451	42.88
621.642	42.93
621.833	42.99
622.024	42.97
622.215	43.14
622.406	43.47
622.597	43.45
622.788	43.48
622.98	43.38
623.171	43.45
623.362	43.46
623.553	43.56
623.744	43.74
623.935	43.59
624.126	43.45
624.317	43.03
624.508	43.37
624.698	43.24
624.889	43
625.08	43.23
625.271	43.01
625.462	42.7
625.653	42.43
625.844	42.44
626.034	42.34
626.225	42.64
626.416	42.68
626.607	42.73
626.798	42.7
626.988	42.8
627.179	42.85
627.37	42.85
627.56	43.13
627.751	43.01
627.942	42.59
628.132	42.66
628.323	42.67
628.514	42.82
628.704	42.57
628.895	42.8
629.085	42.96
629.276	42.75
629.466	43.04
629.657	42.79
629.847	43.15
630.038	43.61
630.228	43.79
630.419	43.88
630.609	44.2
630.8	44.44
630.99	44.33
631.181	44.3
631.371	44.54
631.561	44.23
631.752	44.41
631.942	44.44
632.132	44.14
632.323	44.07
632.513	43.88
632.703	43.52
632.893	43.37
633.084	43.46
633.274	43.57
633.464	43.21
633.654	43.23
633.844	43.31
634.034	42.94
634.225	43.13
634.415	43.29
634.605	43.32
634.795	43.27
634.985	43.57
635.175	43.59
635.365	43.21
635.555	43.46
635.745	43.59
635.935	43.85
636.125	44.17
636.315	44.46
636.505	44.22
636.695	43.85
636.885	43.77
637.075	43.85
637.265	43.89
637.455	44.37
637.644	44.41
637.834	44.18
638.024	43.95
638.214	44.06
638.404	43.79
638.593	43.98
638.783	44.26
638.973	44.73
639.163	44.3
639.352	44.53
639.542	44.3
639.732	44.53
639.921	44.5
640.111	44.9
640.301	44.93
640.49	45
640.68	45.18
640.87	45.34
641.059	45.07
641.249	45.2
641.438	45.07
641.628	45.18
641.817	45.18
642.007	45.48
642.196	44.83
642.386	44.59
642.575	44.71
642.764	44.64
642.954	44.61
643.143	45.03
643.333	45.27
643.522	45.36
643.711	45.22
643.901	44.73
644.09	44.66
644.279	45.01
644.469	45.27
644.658	45.32
644.847	45.37
645.036	45.83
645.226	45.52
645.415	45.36
645.604	45.3
645.793	45.26
645.982	45.39
646.171	45.57
646.361	45.58
646.55	45.74
646.739	45.86
646.928	45.32
647.117	44.81
647.306	45
647.495	44.91
647.684	45.01
647.873	45.28
648.062	45.67
648.251	45.68
648.44	45.27
648.629	44.84
648.818	44.69
649.007	45.06
649.196	45.08
649.384	44.71
649.573	44.39
649.762	44.28
649.951	44.53
650.14	44.59
650.328	44.76
650.517	44.91
650.706	45.32
650.895	45.26
651.083	45.55
651.272	45.59
651.461	46.05
651.65	46.56
651.838	46.4
652.027	46.01
652.216	45.39
652.404	45.15
652.593	45.83
652.781	45.4
652.97	45.52
653.158	45.3
653.347	45.35
653.535	45.1
653.724	45.16
653.912	45.53
654.101	45.78
654.289	46.05
654.478	46.06
654.666	45.54
654.855	45.54
655.043	45.18
655.231	45.38
655.42	46.07
655.608	46.23
655.796	46.22
655.985	45.88
656.173	45.49
656.361	45.76
656.55	45.78
656.738	46.16
656.926	46.71
657.114	46.88
657.302	46.95
657.491	46.37
657.679	46.25
657.867	46.17
658.055	46.44
658.243	46.95
658.431	46.82
658.619	46.69
658.807	46.52
658.996	46.21
659.184	46.62
659.372	46.47
659.56	46.3
659.748	46.21
659.936	46.39
660.124	46.16
660.311	45.72
660.499	45.89
660.687	46.08
660.875	46.05
661.063	45.95
661.251	45.64
661.439	45.4
661.627	45.56
661.814	45.76
662.002	45.5
662.19	45.77
662.378	45.79
662.565	45.74
662.753	45.9
662.941	46.23
663.129	46.48
663.316	46.57
663.504	47.02
663.692	47.08
663.879	47.29
664.067	47.26
664.254	47.24
664.442	48.04
664.63	47.87
664.817	47.91
665.005	47.36
665.192	47.59
665.38	47.22
665.567	47.06
665.755	46.78
665.942	46.29
666.13	46.77
666.317	46.83
666.504	46.26
666.692	46.3
666.879	45.92
667.067	46.6
667.254	46.61
667.441	47.44
667.629	47.7
667.816	47.86
668.003	47.99
668.19	47.6
668.378	47.34
668.565	47.32
668.752	47.21
668.939	47.32
669.127	46.95
669.314	46.9
669.501	46.33
669.688	45.89
669.875	46.02
670.062	46.11
670.249	46.3
670.436	46.7
670.623	46.91
670.81	47.1
670.997	47.13
671.184	47.11
671.371	47.67
671.558	47.89
671.745	48.18
671.932	48.68
672.119	48.78
672.306	48.93
672.493	48.99
672.68	48.96
672.867	49.19
673.054	48.88
673.24	48.8
673.427	48.4
673.614	48.94
673.801	48.87
673.988	48.05
674.174	47.87
674.361	47.25
674.548	47.15
674.734	47.34
674.921	47.26
675.108	47.65
675.294	47.82
675.481	47.51
675.668	46.83
675.854	46.94
676.041	47.31
676.227	47.66
676.414	48.37
676.601	48.38
676.787	48.16
676.974	47.77
677.16	47.81
677.347	47.69
677.533	48.07
677.719	47.75
677.906	47.77
678.092	47.96
678.279	48.04
678.465	47.62
678.651	47.69
678.838	48.01
679.024	48.2
679.21	48.28
679.397	48.22
679.583	47.9
679.769	48.21
679.955	48.14
680.142	48.27
680.328	48.19
680.514	48.17
680.7	48.16
680.886	48.21
681.073	48.43
681.259	48.16
681.445	48.41
681.631	48.39
681.817	48.32
682.003	48.46
682.189	48.14
682.375	48.16
682.561	48.39
682.747	48.09
682.933	47.8
683.119	47.7
683.305	48.27
683.491	48.1
683.677	48.22
683.863	48.09
684.049	48.26
684.235	48.6
684.42	48.6
684.606	48.17
684.792	48.97
684.978	48.88
685.164	48.82
685.349	48.62
685.535	49.2
685.721	48.77
685.907	49.23
686.092	49.08
686.278	48.77
686.464	48.85
686.649	49.53
686.835	48.75
687.021	48.85
687.206	49.03
687.392	49.32
687.577	49.22
687.763	49.94
687.948	49.87
688.134	49.69
688.319	49.61
688.505	49.67
688.69	49.31
688.876	49.26
689.061	49.33
689.247	49.38
689.432	48.87
689.618	48.55
689.803	48.51
689.988	48.62
690.174	48.9
690.359	49.22
690.544	49.27
690.73	49.73
690.915	50.29
691.1	50.21
691.285	49.6
691.471	49.54
691.656	49.72
691.841	49.71
692.026	49.16
692.211	48.89
692.396	48.44
692.582	48.16
692.767	48.18
692.952	47.97
693.137	48.05
693.322	48.15
693.507	48.34
693.692	48.29
693.877	48.31
694.062	48.63
694.247	48.62
694.432	49.18
694.617	49.33
694.802	49.19
694.987	49.1
695.172	48.97
695.357	49.27
695.541	48.87
695.726	48.64
695.911	48.84
696.096	48.69
696.281	49.12
696.466	48.48
696.65	47.91
696.835	47.85
697.02	47.89
697.204	47.79
697.389	48.09
697.574	48.44
697.759	48.53
697.943	48.08
698.128	48.09
698.312	47.63
698.497	47.52
698.682	47.76
698.866	47.39
699.051	47.55
699.235	47.87
699.42	47.37
699.604	47.26
699.789	47.37
699.973	47.31
700.158	47.42
700.342	47.82
700.527	48.17
700.711	48.47
700.895	49.01
701.08	49.27
701.264	49.1
701.448	49.55
701.633	49.49
701.817	49.26
702.001	49.82
702.186	49.87
702.37	49.49
702.554	49.56
702.738	49.76
702.923	49.23
703.107	49.21
703.291	49.37
703.475	49.03
703.659	49.67
703.843	49.68
704.027	50.08
704.212	49.94
704.396	50.83
704.58	51.1
704.764	50.96
704.948	50.88
705.132	50.8
705.316	50.42
705.5	51.14
705.684	51.47
705.868	52.16
706.052	51.42
706.235	52.22
706.419	51.81
706.603	51.77
706.787	51.65
706.971	51.78
707.155	50.97
707.339	51.1
707.522	50.82
707.706	50.32
707.89	50.25
708.074	50.42
708.257	49.58
708.441	49.44
708.625	49.99
708.808	49.76
708.992	50.18
709.176	50.64
709.359	50.37
709.543	50.44
709.727	50.01
709.91	50.12
710.094	49.81
710.277	50.22
710.461	50.42
710.644	50.29
710.828	50.17
711.011	50.85
711.195	51.16
711.378	51.27
711.562	51.38
711.745	51.77
711.928	51.49
712.112	51.48
712.295	51.04
712.478	50.8
712.662	50.71
712.845	51.03
713.028	50.14
713.212	50.16
713.395	50.51
713.578	50.71
713.761	49.92
713.945	49.88
714.128	50.35
714.311	50.88
714.494	50.53
714.677	50.98
714.86	51.48
715.043	51.25
715.227	50.74
715.41	50.47
715.593	50.2
715.776	50.33
715.959	49.93
716.142	49.91
716.325	49.22
716.508	49.47
716.691	48.81
716.874	48.6
717.057	48.24
717.239	48.74
717.422	49.22
717.605	48.97
717.788	49.34
717.971	50.15
718.154	50.35
718.337	50.57
718.519	51.15
718.702	50.92
718.885	50.58
719.068	52.11
719.25	51.96
719.433	52.12
719.616	52.05
719.798	51.78
719.981	51.87
720.164	51.12
720.346	51.41
720.529	51.21
720.712	51.59
720.894	52.6
721.077	51.75
721.259	51.7
721.442	51.76
721.624	52.56
721.807	53.13
721.989	52.89
722.172	53.72
722.354	53.91
722.537	54.59
722.719	54.78
722.901	53.57
723.084	53.75
723.266	53.12
723.448	53.49
723.631	53.58
723.813	53.57
723.995	53.13
724.178	52.69
724.36	52.91
724.542	52.29
724.724	52
724.907	52.21
725.089	52.49
725.271	53.52
725.453	52.37
725.635	52.61
725.817	53.37
725.999	53.85
726.181	53.94
726.364	53.74
726.546	53.03
726.728	53.05
726.91	53.38
727.092	52.62
727.274	51.7
727.456	52.24
727.638	50.74
727.819	50
728.001	49.6
728.183	48.84
728.365	48.23
728.547	48.25
728.729	48.89
728.911	48.74
729.093	49.31
729.274	49.88
729.456	49.9
729.638	50.7
729.82	51.02
730.001	51.04
730.183	51.36
730.365	52.13
730.546	52.56
730.728	52.15
730.91	52.94
731.091	53.01
731.273	53.03
731.455	53.05
731.636	52.94
731.818	52.9
731.999	52.77
732.181	53.64
732.362	53.26
732.544	54.19
732.725	53.78
732.907	53.25
733.088	53.27
733.27	53.33
733.451	53.46
733.633	53.64
733.814	53.91
733.995	54.28
734.177	54.34
734.358	54.48
734.539	53.43
734.721	53.91
734.902	53.89
735.083	53.59
735.264	54.08
735.446	53.8
735.627	54.24
735.808	53.79
735.989	53.72
736.17	53.32
736.351	53.07
736.533	53.77
736.714	53.61
736.895	52.98
737.076	53.65
737.257	52.94
737.438	52.93
737.619	52.42
737.8	52.58
737.981	51.88
738.162	51.27
738.343	51.88
738.524	51.18
738.705	51.01
738.886	50.73
739.067	50.65
739.247	50.82
739.428	52.05
739.609	52.75
739.79	53.12
739.971	53.57
740.151	54.33
740.332	53.31
740.513	53.76
740.694	54.16
740.874	54.3
741.055	54.05
741.236	53.84
741.417	52.58
741.597	51.4
741.778	51.94
741.958	51.25
742.139	50.69
742.32	51.48
742.5	51.8
742.681	52.18
742.861	52.42
743.042	52.42
743.222	52.48
743.403	52.43
743.583	53.48
743.764	52.61
743.944	53.87
744.124	54.76
744.305	54.6
744.485	54.4
744.666	53.6
744.846	55.06
745.026	55.26
745.207	55.23
745.387	55.74
745.567	56.12
745.747	56.72
745.928	57.26
746.108	57.12
746.288	57.79
746.468	55.94
746.648	56.14
746.829	55.03
747.009	55.2
747.189	55.01
747.369	54.09
747.549	53.96
747.729	53.14
747.909	52.56
748.089	51.37
748.269	50.55
748.449	52.82
748.629	52.68
748.809	53.34
748.989	54.33
749.169	54.55
749.349	55.55
749.529	56.05
749.709	56.44
749.889	55.89
750.068	57.49
750.248	58.1
750.428	56.85
750.608	57.04
750.788	57.14
750.967	56.05
751.147	56.32
751.327	55.52
751.507	54.69
751.686	55.26
751.866	55.67
752.046	55.19
752.225	54.38
752.405	55.51
752.585	56.22
752.764	54.97
752.944	55.13
753.123	55.3
753.303	55.89
753.482	55.85
753.662	54.9
753.841	54.9
754.021	53.96
754.2	54.84
754.38	54.19
754.559	54.55
754.739	54.44
754.918	54.05
755.097	53.41
755.277	52.33
755.456	52.12
755.635	52.78
755.815	53.22
755.994	53.38
756.173	53.1
756.352	53.27
756.532	51.92
756.711	53.08
756.89	53.06
757.069	52.97
757.248	53.24
757.427	53.56
757.607	54.3
757.786	54.51
757.965	54.63
758.144	54.94
758.323	55.1
758.502	55.08
758.681	54.43
758.86	55.05
759.039	55.18
759.218	56.02
759.397	54.98
759.576	53.06
759.755	53.1
759.934	53.71
760.113	53.46
760.291	53.9
760.47	54.61
760.649	54.2
760.828	53.12
761.007	54.26
761.186	54.19
761.364	54.49
761.543	55.73
761.722	54.59
761.901	53.26
762.079	53.17
762.258	52.23
762.437	51.74
762.615	52.74
762.794	53.66
762.972	53.14
763.151	52.95
763.33	53.52
763.508	53.07
763.687	53.06
763.865	53.17
764.044	52.64
764.222	51.9
764.401	51.81
764.579	51.06
764.758	50.67
764.936	50.33
765.114	50.91
765.293	50.35
765.471	50.72
765.65	51.16
765.828	52.33
766.006	52.81
766.184	55.26
766.363	55.16
766.541	55.17
766.719	55.36
766.898	55.66
767.076	54.88
767.254	55.74
767.432	55.27
767.61	54.6
767.788	55.17
767.967	54.56
768.145	53.53
768.323	54.05
768.501	54.47
768.679	53.98
768.857	54.46
769.035	55.24
769.213	54.55
769.391	54.51
769.569	54.91
769.747	54.52
769.925	55.7
770.103	55.84
770.281	55.54
770.459	55.64
770.636	56.85
770.814	56.08
770.992	56.12
771.17	56.4
771.348	56.37
771.525	56.64
771.703	55.66
771.881	56.42
772.059	55.77
772.236	55.67
772.414	56.18
772.592	55.88
772.769	56.79
772.947	57.14
773.125	57.36
773.302	59.25
773.48	59.93
773.657	60.38
773.835	58.51
774.013	59.27
774.19	61.3
774.368	62.72
774.545	63.19
774.723	62.91
774.9	62.02
775.077	61.71
775.255	60.94
775.432	61.5
775.61	61.16
775.787	63.56
775.964	62.61
776.142	61.05
776.319	60.76
776.496	59.53
776.674	59.74
776.851	58.62
777.028	58.3
777.205	56.18
777.382	54.98
777.56	54.91
777.737	55.61
777.914	55.89
778.091	56.8
778.268	56.22
778.445	55.12
778.622	53.67
778.8	55.52
778.977	55.12
779.154	62.57
779.331	62.13
779.508	61.09
779.685	58.76
779.862	59.03
780.038	58.43
780.215	58
780.392	59.42
780.569	60.83
780.746	59.3
780.923	59.88
781.1	54.15
781.277	55.19
781.453	54.9
781.63	57.39
781.807	57.82
781.984	56.41
782.16	55.76
782.337	53.71
782.514	52.17
782.691	54.69
782.867	57.06
783.044	56.64
783.221	56.6
783.397	57.04
783.574	55.46
783.75	55.36
783.927	57.31
784.103	59.52
784.28	61.7
784.456	62.85
784.633	61.06
784.809	58.98
784.986	56.5
785.162	54.84
785.339	57.97
785.515	58.59
785.692	57.38
785.868	56.83
786.044	55.41
786.221	55.53
786.397	55.27
786.573	55.53
786.749	55.42
786.926	56.62
787.102	58.24
787.278	56.46
787.454	54.39
787.631	54.83
787.807	54.65
787.983	53.7
788.159	54.87
788.335	55.8
788.511	55.37
788.687	56.27
788.863	57.69
789.039	57.76
789.216	56.41
789.392	56.98
789.568	57.89
789.744	56.91
789.919	56.44
790.095	54.62
790.271	54.24
790.447	53.42
790.623	52.52
790.799	50.88
790.975	49.75
791.151	51.4
791.327	51.34
791.502	50.37
791.678	52.52
791.854	54.44
792.03	54.09
792.205	54.96
792.381	55.21
792.557	56.63
792.733	57.22
792.908	59.5
793.084	60.05
793.259	61.77
793.435	63.12
793.611	62.21
793.786	61.96
793.962	62.8
794.137	60.87
794.313	62.2
794.488	62.62
794.664	62.04
794.839	61.01
795.015	60.08
795.19	57.7
795.366	56.52
795.541	56.8
795.716	55.08
795.892	55.34
796.067	56.09
796.242	57.39
796.418	55.68
796.593	56.84
796.768	56.5
796.944	57.49
797.119	58.64
797.294	60
797.469	61.14
797.644	62.64
797.82	60.78
797.995	60.61
798.17	59.59
798.345	61.06
798.52	61.29
798.695	61.14
798.87	59.61
799.045	60.9
799.22	61.58
799.395	61.85
799.57	63.89
799.745	64.04
799.92	62.62
800.095	64.77
800.27	62.75
800.445	63.69
800.62	62.78
800.795	64.38
800.97	63.97
801.145	63.26
801.319	60.93
801.494	58.31
801.669	60.97
801.844	63.6
802.018	58.86
802.193	58.45
802.368	57.36
802.543	59.58
802.717	59.23
802.892	59.73
803.067	57.68
803.241	58.5
803.416	58.81
803.59	57.58
803.765	56.21
803.94	58.1
804.114	59.57
804.289	60.95
804.463	60.84
804.638	60.29
804.812	59.04
804.986	59.25
805.161	60.45
805.335	62.41
805.51	62.91
805.684	62.96
805.858	65.01
806.033	63.01
806.207	62.53
806.381	61.11
806.556	61.56
806.73	63.16
806.904	65.24
807.078	63.15
807.253	60.28
807.427	59.98
807.601	61.22
807.775	60.52
807.949	60.7
808.123	61.13
808.298	61.46
808.472	62.55
808.646	60.42
808.82	59.71
808.994	61.96
809.168	63.3
809.342	63.33
809.516	63.85
809.69	64.35
809.864	67.73
810.038	69.62
810.212	69.27
810.385	67.04
810.559	67.8
810.733	67.29
810.907	64.65
811.081	64.75
811.255	67.16
811.428	67.67
811.602	67.45
811.776	68.4
811.95	63.47
812.123	65.46
812.297	66.57
812.471	66.88
812.644	68.2
812.818	68.08
812.992	67.65
813.165	67.44
813.339	66.96
813.512	65.07
813.686	63.5
813.86	65.08
814.033	64.21
814.207	63.11
814.38	64.13
814.554	64.03
814.727	68.06
814.9	67.41
815.074	64.76
815.247	65.24
815.421	63.13
815.594	64.21
815.767	63.89
815.941	64.34
816.114	66.39
816.287	66.28
816.46	63.05
816.634	59.32
816.807	61.17
816.98	63.47
817.153	61.11
817.327	62.45
817.5	64.67
817.673	64.78
817.846	67.59
818.019	64.5
818.192	67.84
818.365	72.58
818.538	73.82
818.711	72.39
818.884	72.83
819.057	76.54
819.23	75.82
819.403	72.45
819.576	73.28
819.749	69.5
819.922	70.28
820.095	67.02
820.268	64.91
820.441	62.09
820.614	62.81
820.786	60.58
820.959	59.25
821.132	58.31
821.305	57.22
821.477	55.55
821.65	54.52
821.823	53.62
821.996	53.36
822.168	53.23
822.341	52.92
822.514	51.47
822.686	51.17
822.859	50.91
823.031	51.15
823.204	50.87
823.376	50.98
823.549	51.03
823.722	51.09
823.894	51.25
824.067	51.1
824.239	51.5
824.411	51.78
824.584	52.44
824.756	51.73
824.929	51.43
825.101	51.29
825.273	51.18
825.446	50.72
825.618	50.26
825.79	49.76
825.963	50.01
826.135	49.64
826.307	50.25
826.479	49.85
826.652	50.46
826.824	51.17
826.996	52.18
827.168	52.14
827.34	53.37
827.512	53.45
827.684	53.5
827.856	53.3
828.029	53.53
828.201	52.06
828.373	51.51
828.545	52.17
828.717	52.71
828.889	51.98
829.061	52.23
829.232	53.21
829.404	54.01
829.576	54.78
829.748	55.65
829.92	57.5
830.092	59.76
830.264	61.08
830.436	60.72
830.607	59.2
830.779	59
830.951	61.08
831.123	59.95
831.294	61.57
831.466	63.02
831.638	63.12
831.809	61.14
831.981	61.78
832.153	62.49
832.324	61.72
832.496	60.55
832.667	60.79
832.839	60.02
833.011	58.67
833.182	57.13
833.354	55.19
833.525	54.71
833.697	55.28
833.868	54.22
834.039	53.82
834.211	53.89
834.382	54.62
834.554	54.98
834.725	55.15
834.896	54.71
835.068	54.6
835.239	53.99
835.41	54.82
835.581	55.46
835.753	55.42
835.924	53.99
836.095	54.15
836.266	55.36
836.438	55.14
836.609	53.58
836.78	52.9
836.951	56.59
837.122	57.14
837.293	56.27
837.464	56.6
837.635	57.99
837.806	58.94
837.977	58.72
838.148	57.55
838.319	59.12
838.49	62.28
838.661	62.98
838.832	59.16
839.003	61.18
839.174	63.79
839.345	62.88
839.516	61.48
839.687	65.04
839.857	69.26
840.028	71.86
840.199	72.3
840.37	68.86
840.54	71.12
840.711	67.56
840.882	64.43
841.053	59.27
841.223	57.61
841.394	58.7
841.564	55.79
841.735	55.47
841.906	53.17
842.076	53.09
842.247	55.11
842.417	54.02
842.588	57.64
842.758	58.74
842.929	59.78
843.099	61.63
843.27	61.39
843.44	66.56
843.611	62.26
843.781	65.31
843.951	65.08
844.122	61.79
844.292	59.84
844.462	61.26
844.633	61.42
844.803	64.92
844.973	62.15
845.144	63.94
845.314	59.15
845.484	62.73
845.654	61.54
845.824	70.4
845.995	72.88
846.165	83.21
846.335	80.1
846.505	91.47
846.675	98.91
846.845	103.67
847.015	105.85
847.185	109.92
847.355	109.64
847.525	105.71
847.695	92.36
847.865	87.97
848.035	81.12
848.205	97.4
848.375	84.89
848.545	78.71
848.715	78.07
848.884	72.89
849.054	72.05
849.224	73.43
849.394	79.87
849.564	80.08
849.733	86.83
849.903	85.21
850.073	76.23
850.243	75.41
850.412	72.87
850.582	71.25
850.752	77.19
850.921	77.5
851.091	77.85
851.26	76.07
851.43	79.15
851.599	78.45
851.769	79.11
851.939	81.65
852.108	85.83
852.278	90.1
852.447	89.65
852.616	92.55
852.786	89.46
852.955	89.9
853.125	88.03
853.294	90.03
853.463	85.84
853.633	86.73
853.802	82.79
853.971	85.62
854.141	84.46
854.31	93.29
854.479	91.95
854.648	95.01
854.818	92.84
854.987	94.65
855.156	100.52
855.325	108.23
855.494	114.76
855.663	114.55
855.832	107.38
856.001	113.52
856.171	107.3
856.34	108.23
856.509	110.81
856.678	117.7
856.847	119.28
857.016	101.07
857.185	95.59
857.353	97.79
857.522	99.88
857.691	96.72
857.86	98.24
858.029	106.26
858.198	108.84
858.367	97.51
858.535	100.07
858.704	102.64
858.873	123.45
859.042	119.7
859.21	118.14
859.379	118.43
859.548	132.36
859.717	128.36
859.885	124.85
860.054	115.97
860.222	121.48
860.391	110.09
860.56	98.83
860.728	90.07
860.897	86.72
861.065	81.15
861.234	83.4
861.402	81.45
861.571	80.56
861.739	82.05
861.908	86.71
862.076	83.29
862.244	88.71
862.413	95.7
862.581	95.86
862.749	107.26
862.918	108.19
863.086	98.68
863.254	86.09
863.423	88.78
863.591	74.18
863.759	69.38
863.927	70.63
864.096	76.82
864.264	81.86
864.432	84.45
864.6	81.35
864.768	82.98
864.936	81.48
865.104	90.67
865.272	86.82
865.44	93.19
865.608	90.04
865.776	91.06
865.944	80.38
866.112	88.12
866.28	86.27
866.448	93.41
866.616	96.06
866.784	97.97
866.952	90.99
867.12	98.18
867.288	103.11
867.455	103.15
867.623	109.18
867.791	119.3
867.959	106.67
868.127	100.67
868.294	99.96
868.462	92.31
868.63	87.15
868.797	88.9
868.965	74.21
869.133	76.56
869.3	89.44
869.468	85.85
869.636	98.76
869.803	95.57
869.971	97.91
870.138	95.04
870.306	98.64
870.473	103.51
870.641	108.04
870.808	116.25
870.975	104.34
871.143	102.62
871.31	98.84
871.478	85.05
871.645	92.36
871.812	97.15
871.98	100.68
872.147	99.04
872.314	93.95
872.482	87.02
872.649	82.79
872.816	92.15
872.983	86.75
873.15	93.25
873.318	104.69
873.485	110.45
873.652	109
873.819	115.65
873.986	111.89
874.153	112.78
874.32	107.98
874.487	108.09
874.654	102.95
874.821	103.92
874.988	98.4
875.155	90.6
875.322	84.76
875.489	90.88
875.656	86.62
875.823	92.65
875.99	98.02
876.157	105.51
876.324	103.91
876.49	103.71
876.657	105.6
876.824	98.05
876.991	99.39
877.157	103.06
877.324	91.71
877.491	94.36
877.658	84.67
877.824	82.71
877.991	82.07
878.157	84.6
878.324	86.71
878.491	86.08
878.657	88.65
878.824	83.09
878.99	72.84
879.157	75.09
879.323	66.79
879.49	66.48
879.656	73.62
879.823	75.79
879.989	75.29
880.156	74.61
880.322	71.51
880.488	77.71
880.655	80.9
880.821	84.19
880.987	81.69
881.154	83.82
881.32	94.55
881.486	88.3
881.652	82.34
881.819	80.23
881.985	79.64
882.151	76.2
882.317	71.55
882.483	67.89
882.649	66.68
882.816	64.78
882.982	63.2
883.148	59.28
883.314	58.09
883.48	60.75
883.646	59.83
883.812	58.94
883.978	59.14
884.144	59.6
884.31	59
884.476	57.51
884.642	57.71
884.807	60.11
884.973	59.55
885.139	59.6
885.305	57.59
885.471	57.52
885.637	57.47
885.802	58.32
885.968	59.33
886.134	62.47
886.3	64.12
886.465	64.54
886.631	63.25
886.797	67.07
886.962	67.67
887.128	72.59
887.293	72.91
887.459	72.19
887.625	73.59
887.79	67.12
887.956	68.55
888.121	69.21
888.287	70.24
888.452	68.67
888.618	64.48
888.783	63.2
