Data from LC_187_Reflection_2.txt Node
Date: Tue Nov 17 13:20:25 EST 2015
User: robert
Spectrometer: USB4E03001
Autoset integration time: false
Trigger mode: 4
Integration Time (sec): 1.000000E-1
Scans to average: 15
Electric dark correction enabled: true
Nonlinearity correction enabled: false
Boxcar width: 5
Stray light correction enabled: false
XAxis mode: Wavelengths
Stop averaging: false
Number of Pixels in Spectrum: 3648
>>>>>Begin Spectral Data<<<<<
177.566	113.56
177.785	209.61
178.005	-591.79
178.225	313.46
178.445	-202.82
178.665	11.38
178.885	-182.86
179.105	-386.42
179.324	846.51
179.544	801.99
179.764	254.37
179.984	72.02
180.204	115.56
180.423	176.82
180.643	282.33
180.863	-505.56
181.083	-776.02
181.302	74.37
181.522	66.36
181.742	80.54
181.961	879.41
182.181	80.7
182.401	52.61
182.621	75.18
182.84	129.79
183.06	159.93
183.279	98.48
183.499	1627.73
183.719	-120.45
183.938	20.06
184.158	-8.18
184.377	9.94
184.597	30.37
184.816	152.64
185.036	145.04
185.256	170.82
185.475	46.55
185.695	-5.15
185.914	6.64
186.134	-4.73
186.353	13.77
186.572	-30.78
186.792	2.64
187.011	34.31
187.231	-216.43
187.45	-553.47
187.67	-15.12
187.889	103.25
188.108	105.5
188.328	94.76
188.547	87.2
188.766	-297.57
188.986	552.2
189.205	162.5
189.424	94.26
189.644	116.88
189.863	42.16
190.082	1.68
190.302	10
190.521	39.14
190.74	202.6
190.959	41.45
191.178	-3.88
191.398	-75.54
191.617	-209.2
191.836	-150.96
192.055	-82.93
192.274	418.92
192.494	98.38
192.713	456.03
192.932	314.7
193.151	-107.61
193.37	-2826.98
193.589	-103350
193.808	6850.56
194.027	-707.67
194.246	-463.73
194.465	1824.31
194.685	340.65
194.904	265.79
195.123	44362.5
195.342	1202.31
195.561	356.06
195.78	269.68
195.999	298.48
196.218	217.73
196.436	173.81
196.655	123.85
196.874	115.15
197.093	80.35
197.312	54.21
197.531	29.75
197.75	26.02
197.969	28.97
198.188	31.15
198.407	14.98
198.625	-33.56
198.844	-6.7
199.063	-32.25
199.282	16.2
199.501	-11.29
199.719	21.83
199.938	66.52
200.157	43.06
200.376	-21.6
200.594	-3.8
200.813	58.01
201.032	96.53
201.251	115.33
201.469	1364.4
201.688	210.15
201.907	-1547.88
202.125	338.43
202.344	345.29
202.563	222.9
202.781	-50.08
203	-48.06
203.218	68.45
203.437	40.57
203.656	6.31
203.874	-59.47
204.093	-307.53
204.311	-317.34
204.53	5696.05
204.748	-240.8
204.967	1343.05
205.185	414.72
205.404	181.32
205.622	187.04
205.841	128.76
206.059	111.35
206.278	114.46
206.496	139.56
206.715	124.96
206.933	124.31
207.151	106.74
207.37	92.55
207.588	69.48
207.806	78.37
208.025	63.06
208.243	48.37
208.461	30.27
208.68	-62.96
208.898	370.84
209.116	684.74
209.335	-988.51
209.553	858.2
209.771	-425.13
209.989	-71.1
210.208	-120.76
210.426	-83.1
210.644	-45.48
210.862	-10
211.081	19.92
211.299	25.9
211.517	44.65
211.735	46.69
211.953	59.68
212.171	99.79
212.39	250.13
212.608	223.04
212.826	276.91
213.044	315.98
213.262	249.73
213.48	-7683.58
213.698	-307.68
213.916	153.7
214.134	-244.07
214.352	-10.89
214.57	-6.19
214.788	158.85
215.006	114.97
215.224	30.9
215.442	6.09
215.66	147.01
215.878	165.27
216.096	118.96
216.314	115.58
216.532	90.76
216.75	85.12
216.968	89.01
217.185	90.76
217.403	112.99
217.621	99.22
217.839	109.79
218.057	115.15
218.275	117.55
218.492	121.38
218.71	145.32
218.928	154.58
219.146	156.16
219.363	169.67
219.581	171.86
219.799	177.8
220.017	181.33
220.234	167.01
220.452	114.05
220.67	89.05
220.887	91.28
221.105	79.5
221.323	63.33
221.54	24.88
221.758	13.3
221.976	-37.52
222.193	-24.55
222.411	-29.26
222.629	-31.78
222.846	-28.85
223.064	-39
223.281	-20.82
223.499	-25.56
223.716	-11.11
223.934	34.65
224.151	48.69
224.369	74.58
224.586	93.4
224.804	112.53
225.021	104.75
225.239	93.2
225.456	84.73
225.674	64.09
225.891	58.05
226.108	48.63
226.326	35.33
226.543	31.1
226.76	36.84
226.978	34.38
227.195	23.15
227.413	25.08
227.63	24.23
227.847	27.38
228.064	27.31
228.282	27.62
228.499	30.42
228.716	27.16
228.934	27.41
229.151	25.54
229.368	22.31
229.585	24.74
229.802	26.65
230.02	30.25
230.237	29.83
230.454	31.51
230.671	31.36
230.888	29.11
231.105	34.13
231.323	32.52
231.54	30.44
231.757	33.59
231.974	32.09
232.191	23.58
232.408	18.07
232.625	20.27
232.842	19.65
233.059	20.36
233.276	22.62
233.493	16.62
233.71	20.08
233.927	15.93
234.144	13.05
234.361	12.49
234.578	15.63
234.795	18.92
235.012	19.56
235.229	14.38
235.446	11.35
235.663	19.46
235.879	19.04
236.096	26.96
236.313	32.1
236.53	34.13
236.747	30.28
236.964	29.9
237.181	27.29
237.397	23.35
237.614	29.34
237.831	38.94
238.048	33.43
238.264	32.93
238.481	20.28
238.698	17.18
238.915	18.74
239.131	26.98
239.348	31.24
239.565	31.22
239.781	33.95
239.998	33.24
240.215	30.87
240.431	26.95
240.648	28.03
240.865	28.04
241.081	28
241.298	24.59
241.514	19.45
241.731	17.26
241.947	17.72
242.164	16.56
242.38	14.67
242.597	12.71
242.814	13.35
243.03	13.13
243.246	12.23
243.463	12.45
243.679	14
243.896	16.9
244.112	15.76
244.329	15.48
244.545	14.27
244.762	16.27
244.978	16.66
245.194	17.31
245.411	17.47
245.627	19.86
245.843	19.62
246.06	16.56
246.276	12.48
246.492	12.82
246.709	13.25
246.925	14.07
247.141	13.34
247.357	13.71
247.574	14.19
247.79	13.1
248.006	12.09
248.222	13.58
248.439	14.26
248.655	16.09
248.871	16.33
249.087	15.86
249.303	16.53
249.519	17.29
249.736	15.85
249.952	14.6
250.168	16.72
250.384	17.29
250.6	13.34
250.816	12.86
251.032	11.12
251.248	12.37
251.464	12.66
251.68	10.05
251.896	10.26
252.112	10.98
252.328	13.43
252.544	13
252.76	14.55
252.976	13.57
253.192	14.2
253.408	16.39
253.624	16.95
253.84	17.24
254.056	18.56
254.272	18.87
254.487	20.23
254.703	17.53
254.919	15.9
255.135	16.65
255.351	17.47
255.567	16.77
255.782	9.27
255.998	6.13
256.214	5.67
256.43	7.02
256.646	7.24
256.861	5.24
257.077	5.57
257.293	9.38
257.508	7.65
257.724	8.14
257.94	7.46
258.155	10.62
258.371	12.09
258.587	11.88
258.802	10.71
259.018	9.54
259.234	10.26
259.449	10.87
259.665	9.8
259.88	9.06
260.096	9.55
260.312	9.92
260.527	9.38
260.743	9.35
260.958	9.52
261.174	9.36
261.389	9.29
261.605	9.71
261.82	8.88
262.036	8.85
262.251	9.99
262.466	8.65
262.682	10.35
262.897	10.29
263.113	8.1
263.328	7.4
263.543	9.31
263.759	12.04
263.974	11.3
264.189	12.04
264.405	13
264.62	12.44
264.835	13.83
265.051	11.53
265.266	13.29
265.481	15.36
265.696	17.94
265.912	17.74
266.127	14.01
266.342	13.66
266.557	12.42
266.773	13.13
266.988	13.42
267.203	13.41
267.418	14.64
267.633	14.13
267.848	13.3
268.064	10.39
268.279	8.77
268.494	10.4
268.709	10.98
268.924	13.36
269.139	12.68
269.354	14.09
269.569	14.71
269.784	12.92
269.999	12.75
270.214	13.66
270.429	15.46
270.644	14.95
270.859	14.55
271.074	14.18
271.289	12.9
271.504	12.25
271.719	10.6
271.934	9.8
272.149	9.53
272.363	9.79
272.578	9.81
272.793	8.9
273.008	10.06
273.223	9.88
273.438	9.87
273.653	9.86
273.867	10.17
274.082	10.35
274.297	10.64
274.512	11.44
274.726	10.81
274.941	10.29
275.156	11
275.371	9.87
275.585	11.73
275.8	11.91
276.015	12.38
276.229	11.8
276.444	10.19
276.659	10.94
276.873	9.95
277.088	9.43
277.302	9.47
277.517	8.2
277.732	6.86
277.946	5.1
278.161	4.91
278.375	4.04
278.59	6.09
278.804	6.23
279.019	5.49
279.233	5.74
279.448	7.9
279.662	8.45
279.877	8.77
280.091	10.26
280.306	12.47
280.52	13.11
280.735	14.65
280.949	11.66
281.163	13.33
281.378	14.64
281.592	14.85
281.806	12.56
282.021	12.77
282.235	13.3
282.449	13.36
282.664	12.21
282.878	12.67
283.092	10.72
283.307	12.34
283.521	11.2
283.735	9.1
283.949	8.93
284.164	9.66
284.378	8.8
284.592	8.47
284.806	7.82
285.02	7.1
285.234	5.65
285.449	6.15
285.663	6.01
285.877	6.65
286.091	7.45
286.305	7.27
286.519	7.61
286.733	8.14
286.947	8.65
287.161	9.36
287.375	9.51
287.589	10.2
287.803	9.99
288.017	10.13
288.231	9.94
288.445	9.45
288.659	10.14
288.873	9.14
289.087	9.24
289.301	9.68
289.515	10.12
289.729	11.75
289.943	11.6
290.157	11.73
290.371	11.02
290.584	12.09
290.798	12.2
291.012	13.36
291.226	14.25
291.44	14.17
291.654	13.38
291.867	13.23
292.081	11.17
292.295	11.32
292.509	11.77
292.722	11.58
292.936	10.13
293.15	11.08
293.364	8.27
293.577	7.97
293.791	7.13
294.005	7.96
294.218	8.18
294.432	9.46
294.645	9.86
294.859	9.06
295.073	9.72
295.286	9.77
295.5	9
295.713	9.45
295.927	9.79
296.14	10.87
296.354	10.46
296.568	10.54
296.781	9.86
296.994	10.15
297.208	10.53
297.421	10.09
297.635	10.84
297.848	10.19
298.062	10.46
298.275	10.75
298.489	10.02
298.702	9.75
298.915	9.84
299.129	10.5
299.342	10.55
299.555	10.15
299.769	10.81
299.982	10.64
300.195	11.08
300.409	11.5
300.622	11.02
300.835	11.39
301.048	11.63
301.262	10.77
301.475	10.09
301.688	9.16
301.901	9.57
302.115	10.24
302.328	10.46
302.541	10.51
302.754	9.92
302.967	9.8
303.18	9.57
303.393	8.89
303.607	9.57
303.82	10.43
304.033	9.85
304.246	9.41
304.459	9.99
304.672	9.36
304.885	9.62
305.098	9.21
305.311	9.51
305.524	9.64
305.737	11.2
305.95	11.54
306.163	10.17
306.376	10.07
306.589	11.24
306.802	9.03
307.015	8.34
307.228	9.81
307.44	11.46
307.653	11
307.866	10.68
308.079	9.8
308.292	9.23
308.505	10.02
308.718	10.41
308.93	9.76
309.143	10.77
309.356	11.09
309.569	10.47
309.781	9.77
309.994	8.79
310.207	8.71
310.42	8.14
310.632	8.19
310.845	7.83
311.058	7.78
311.27	7.39
311.483	7.53
311.696	7.63
311.908	7.46
312.121	7.01
312.333	7.88
312.546	8.35
312.759	8.12
312.971	8.01
313.184	9.29
313.396	9.24
313.609	10.05
313.821	11.05
314.034	11.71
314.246	11.97
314.459	12.25
314.671	12.24
314.884	12.21
315.096	13.13
315.309	12.72
315.521	11.23
315.733	11.84
315.946	11.03
316.158	10.38
316.371	9.68
316.583	10.59
316.795	10.8
317.008	11.63
317.22	10.76
317.432	11.07
317.644	11.25
317.857	11.86
318.069	12.77
318.281	13.33
318.494	12.39
318.706	12.1
318.918	10.6
319.13	11.99
319.342	11.71
319.555	12.17
319.767	12.51
319.979	12.36
320.191	12.23
320.403	11.76
320.615	11.86
320.827	11.37
321.039	13.34
321.252	13.3
321.464	12.38
321.676	12.96
321.888	13.46
322.1	13.6
322.312	14.13
322.524	14.44
322.736	13.25
322.948	14
323.16	14.88
323.372	12.83
323.584	13.25
323.796	14.27
324.007	13.61
324.219	13.79
324.431	13.69
324.643	14.26
324.855	14.38
325.067	15.25
325.279	14.37
325.491	14.08
325.702	14.63
325.914	14.09
326.126	12.95
326.338	13.69
326.55	12.81
326.761	12.82
326.973	12.18
327.185	11.48
327.396	11.71
327.608	11.22
327.82	10.37
328.032	9.97
328.243	9
328.455	8.8
328.666	8.61
328.878	8.83
329.09	8.6
329.301	8.56
329.513	8.81
329.725	8.71
329.936	9.39
330.148	10.91
330.359	11.39
330.571	12.21
330.782	12.74
330.994	12.91
331.205	13.08
331.417	12.05
331.628	12.51
331.84	13.87
332.051	13.39
332.262	12.92
332.474	12.58
332.685	13.05
332.897	13.64
333.108	13.54
333.319	12.07
333.531	11.46
333.742	11.46
333.953	10.65
334.165	8.56
334.376	8.44
334.587	8.83
334.799	8.17
335.01	8.05
335.221	7.43
335.432	6.59
335.644	7.04
335.855	7.1
336.066	8.07
336.277	8.61
336.488	9.73
336.7	9.91
336.911	9.96
337.122	9.82
337.333	8.44
337.544	10.04
337.755	10.46
337.966	11.1
338.177	11.77
338.388	11.25
338.599	11
338.811	10.86
339.022	10.4
339.233	9.78
339.444	10
339.655	11.44
339.866	10.43
340.076	9.96
340.287	9.44
340.498	9.07
340.709	9.92
340.92	10.09
341.131	9.59
341.342	9.88
341.553	10.34
341.764	10.7
341.975	10.34
342.185	9.92
342.396	10.02
342.607	10.26
342.818	11.2
343.029	10.09
343.239	9.74
343.45	9.94
343.661	10.01
343.872	9.76
344.082	9.61
344.293	9.74
344.504	9.56
344.714	9.61
344.925	9.57
345.136	8.24
345.346	8.67
345.557	8.96
345.768	9.43
345.978	9.6
346.189	9.88
346.399	10.23
346.61	10.37
346.821	10.1
347.031	10.23
347.242	9.29
347.452	9.72
347.663	9.44
347.873	9.16
348.084	8.13
348.294	8.07
348.504	7.73
348.715	8
348.925	8.23
349.136	8.4
349.346	8.45
349.557	9.33
349.767	9.38
349.977	9.31
350.188	9.37
350.398	10.24
350.608	9.86
350.819	9.65
351.029	8.43
351.239	8.12
351.449	8.12
351.66	8.51
351.87	8.2
352.08	8.48
352.29	9.2
352.501	8.91
352.711	8.57
352.921	9.13
353.131	9.84
353.341	10.52
353.552	10.11
353.762	10.8
353.972	9.83
354.182	10.84
354.392	10.93
354.602	10.85
354.812	11.41
355.022	11.44
355.232	10.01
355.442	9.17
355.652	9.18
355.862	9.23
356.072	8.7
356.282	9.61
356.492	8.74
356.702	8.37
356.912	8.28
357.122	8.41
357.332	8.56
357.542	9.82
357.752	11.08
357.962	10.99
358.171	10.88
358.381	10.85
358.591	9.73
358.801	9.92
359.011	9.42
359.221	9.5
359.43	9.33
359.64	8.75
359.85	8.01
360.06	7.09
360.269	6.96
360.479	6.61
360.689	6.59
360.899	7.25
361.108	6.77
361.318	7.08
361.528	6.77
361.737	6.87
361.947	7.38
362.156	7.43
362.366	7.22
362.576	7.08
362.785	7.72
362.995	7.66
363.204	7.18
363.414	7.59
363.623	7.43
363.833	7.53
364.042	6.64
364.252	6.02
364.461	5.82
364.671	5.99
364.88	6.08
365.09	5.64
365.299	5.82
365.509	6.36
365.718	6.56
365.927	6.95
366.137	6.85
366.346	7.35
366.555	7.12
366.765	7.44
366.974	7.21
367.183	7.64
367.393	7.91
367.602	7.84
367.811	7.79
368.021	7.02
368.23	7.46
368.439	6.98
368.648	6.7
368.857	7.16
369.067	7.5
369.276	7.71
369.485	7.71
369.694	7.41
369.903	7.5
370.112	7.44
370.321	8.12
370.531	7.37
370.74	7.19
370.949	7.14
371.158	7.54
371.367	7.13
371.576	7.71
371.785	7.51
371.994	7.55
372.203	7.67
372.412	8.23
372.621	7.77
372.83	7.84
373.039	8.45
373.248	8.9
373.457	8.66
373.666	8.96
373.874	8.3
374.083	7.71
374.292	7.7
374.501	7.56
374.71	7.37
374.919	7.25
375.128	7.14
375.336	7.19
375.545	7.05
375.754	6.23
375.963	5.88
376.171	6.27
376.38	7.1
376.589	7.04
376.798	6.59
377.006	6.02
377.215	6.73
377.424	6.74
377.632	6.79
377.841	6.87
378.05	7.59
378.258	7.75
378.467	7.59
378.675	7.32
378.884	7.46
379.093	7.91
379.301	8.22
379.51	7.68
379.718	7.49
379.927	7.43
380.135	7
380.344	7.37
380.552	7.66
380.761	7.61
380.969	7.3
381.177	6.89
381.386	6.3
381.594	5.99
381.803	6.29
382.011	6.42
382.219	6.07
382.428	6.11
382.636	5.66
382.845	5.19
383.053	5.55
383.261	5.75
383.469	6.34
383.678	7.2
383.886	7.01
384.094	6.61
384.302	6.8
384.511	6.95
384.719	7.11
384.927	6.8
385.135	7.05
385.343	6.86
385.552	6.89
385.76	6.95
385.968	6.52
386.176	6.88
386.384	7.06
386.592	6.79
386.8	7.1
387.008	6.87
387.216	6.92
387.424	6.76
387.633	6.79
387.841	6.79
388.049	6.41
388.257	6.64
388.465	6.91
388.672	7.21
388.88	7.18
389.088	7.05
389.296	7.12
389.504	7.53
389.712	7.76
389.92	7.59
390.128	7.59
390.336	7.75
390.544	7.46
390.751	7.05
390.959	6.71
391.167	6.96
391.375	6.68
391.583	6.67
391.79	6.28
391.998	6.15
392.206	6.01
392.414	5.44
392.621	5.43
392.829	5.5
393.037	5.53
393.244	5.42
393.452	5.31
393.66	4.9
393.867	5.16
394.075	5.38
394.283	5.38
394.49	5.37
394.698	5.83
394.905	5.74
395.113	5.69
395.32	5.39
395.528	5.53
395.735	5.63
395.943	5.97
396.15	5.86
396.358	5.67
396.565	5.24
396.773	5.12
396.98	5.15
397.188	5.35
397.395	5.44
397.602	5.89
397.81	5.99
398.017	5.95
398.225	6.31
398.432	6.26
398.639	6.36
398.847	6.89
399.054	6.82
399.261	6.58
399.468	6
399.676	5.76
399.883	5.56
400.09	5.25
400.297	5.16
400.505	4.86
400.712	4.87
400.919	4.9
401.126	4.69
401.333	4.98
401.54	5.19
401.748	5.42
401.955	5.73
402.162	5.85
402.369	6.05
402.576	6.19
402.783	5.79
402.99	6.02
403.197	6.14
403.404	5.85
403.611	5.66
403.818	5.41
404.025	5.49
404.232	5.28
404.439	5.44
404.646	5.74
404.853	5.62
405.06	6.03
405.267	5.59
405.474	5.23
405.681	5.02
405.887	5.27
406.094	5.34
406.301	5.34
406.508	5.21
406.715	4.97
406.922	4.62
407.128	4.59
407.335	4.25
407.542	4.45
407.749	4.7
407.955	5.09
408.162	5.09
408.369	5.25
408.575	5.33
408.782	5.49
408.989	5.59
409.195	5.77
409.402	5.71
409.609	5.75
409.815	5.53
410.022	5.53
410.228	5.3
410.435	5.08
410.642	4.86
410.848	4.85
411.055	4.8
411.261	4.63
411.468	4.7
411.674	4.64
411.881	4.76
412.087	5.1
412.294	5.01
412.5	5.07
412.706	5.04
412.913	4.89
413.119	4.93
413.326	4.99
413.532	4.9
413.738	4.58
413.945	4.44
414.151	4.43
414.357	4.36
414.564	4.33
414.77	4.39
414.976	4.55
415.182	4.86
415.389	4.59
415.595	4.51
415.801	4.61
416.007	4.66
416.214	4.8
416.42	4.97
416.626	4.75
416.832	4.77
417.038	4.72
417.244	4.52
417.45	4.55
417.657	4.52
417.863	4.56
418.069	4.55
418.275	4.38
418.481	4.64
418.687	4.41
418.893	4.5
419.099	4.4
419.305	4.56
419.511	4.66
419.717	4.57
419.923	4.63
420.129	4.55
420.335	4.5
420.541	4.4
420.746	4.09
420.952	4.09
421.158	4.11
421.364	4.18
421.57	4.09
421.776	4.02
421.982	3.95
422.187	3.8
422.393	3.8
422.599	3.74
422.805	3.79
423.01	3.85
423.216	3.92
423.422	3.93
423.628	3.96
423.833	3.93
424.039	3.82
424.245	3.81
424.45	3.89
424.656	3.88
424.862	3.95
425.067	4.04
425.273	4.13
425.478	4.12
425.684	3.94
425.889	3.95
426.095	3.99
426.301	4.14
426.506	4.24
426.712	4.23
426.917	4.29
427.123	4.26
427.328	4.25
427.533	4.25
427.739	4.28
427.944	4.49
428.15	4.31
428.355	4.26
428.561	4.24
428.766	3.95
428.971	4.02
429.177	4.16
429.382	4.21
429.587	4.12
429.793	4.1
429.998	3.89
430.203	3.84
430.408	3.82
430.614	3.74
430.819	3.73
431.024	3.75
431.229	3.63
431.434	3.49
431.64	3.64
431.845	3.61
432.05	3.53
432.255	3.72
432.46	3.75
432.665	3.94
432.87	4.03
433.076	3.91
433.281	4.2
433.486	4.3
433.691	4.22
433.896	4.02
434.101	4.07
434.306	4.16
434.511	4.06
434.716	3.94
434.921	3.71
435.126	3.8
435.331	3.89
435.535	3.8
435.74	3.79
435.945	3.9
436.15	3.84
436.355	4
436.56	3.89
436.765	4.26
436.97	4.3
437.174	4.25
437.379	4.11
437.584	4.24
437.789	4.29
437.993	4.2
438.198	4.13
438.403	4.21
438.608	4.14
438.812	4.1
439.017	3.85
439.222	3.8
439.426	3.83
439.631	3.77
439.836	3.61
440.04	3.38
440.245	3.46
440.45	3.41
440.654	3.39
440.859	3.2
441.063	3.3
441.268	3.28
441.472	3.43
441.677	3.52
441.881	3.65
442.086	3.83
442.29	3.87
442.495	4.07
442.699	4.18
442.904	4.24
443.108	4.24
443.312	4.13
443.517	4.1
443.721	4.07
443.925	4.06
444.13	3.93
444.334	3.8
444.538	3.81
444.743	3.56
444.947	3.5
445.151	3.43
445.356	3.64
445.56	3.68
445.764	3.71
445.968	3.65
446.173	3.58
446.377	3.58
446.581	3.61
446.785	3.62
446.989	3.58
447.193	3.65
447.398	3.72
447.602	3.67
447.806	3.65
448.01	3.52
448.214	3.49
448.418	3.51
448.622	3.52
448.826	3.47
449.03	3.56
449.234	3.64
449.438	3.45
449.642	3.56
449.846	3.48
450.05	3.41
450.254	3.5
450.458	3.52
450.662	3.45
450.866	3.46
451.069	3.52
451.273	3.4
451.477	3.47
451.681	3.6
451.885	3.42
452.089	3.4
452.292	3.5
452.496	3.44
452.7	3.53
452.904	3.67
453.107	3.76
453.311	3.67
453.515	3.68
453.719	3.56
453.922	3.54
454.126	3.42
454.33	3.64
454.533	3.59
454.737	3.66
454.94	3.52
455.144	3.46
455.348	3.44
455.551	3.44
455.755	3.5
455.958	3.28
456.162	3.36
456.365	3.32
456.569	3.02
456.772	3.08
456.976	3.1
457.179	3.22
457.383	3.26
457.586	3.23
457.79	3.26
457.993	3.29
458.196	3.47
458.4	3.6
458.603	3.88
458.807	3.93
459.01	4.06
459.213	4.08
459.417	3.96
459.62	3.99
459.823	3.84
460.026	3.89
460.23	3.79
460.433	3.83
460.636	3.65
460.839	3.39
461.042	3.45
461.246	3.23
461.449	3.09
461.652	3.17
461.855	3.13
462.058	3.23
462.261	3.14
462.464	3.09
462.668	2.97
462.871	2.91
463.074	3.11
463.277	3
463.48	3.08
463.683	3.23
463.886	3.28
464.089	3.28
464.292	3.18
464.495	3.19
464.698	3.16
464.901	3.33
465.104	3.44
465.306	3.4
465.509	3.32
465.712	3.25
465.915	3.51
466.118	3.33
466.321	3.1
466.524	3.1
466.726	3.22
466.929	3.52
467.132	3.34
467.335	3.26
467.538	3.27
467.74	3.32
467.943	3.42
468.146	3.02
468.348	3.07
468.551	3.19
468.754	3.48
468.956	3.51
469.159	3.44
469.362	3.24
469.564	3.24
469.767	3.28
469.969	3.36
470.172	3.4
470.375	3.36
470.577	3.42
470.78	3.51
470.982	3.28
471.185	3.12
471.387	3.12
471.59	3.36
471.792	3.36
471.995	3.42
472.197	3.38
472.399	3.34
472.602	3.56
472.804	3.74
473.007	3.62
473.209	3.5
473.411	3.5
473.614	3.5
473.816	3.47
474.018	3.61
474.22	3.41
474.423	3.61
474.625	3.49
474.827	3.31
475.03	3.19
475.232	3.18
475.434	3.3
475.636	3.33
475.838	3.32
476.04	3.45
476.243	3.4
476.445	3.45
476.647	3.44
476.849	3.45
477.051	3.61
477.253	3.56
477.455	3.55
477.657	3.58
477.859	3.6
478.061	3.51
478.263	3.38
478.465	3.35
478.667	3.31
478.869	3.27
479.071	3.4
479.273	3.32
479.475	3.23
479.677	3.29
479.879	3.32
480.081	3.25
480.283	3.29
480.485	3.25
480.686	3.25
480.888	3.37
481.09	3.29
481.292	3.18
481.494	3.12
481.695	3.21
481.897	3.11
482.099	3.04
482.301	3.09
482.502	3.02
482.704	3.08
482.906	3.13
483.107	3.05
483.309	2.98
483.511	2.93
483.712	2.97
483.914	2.9
484.115	2.89
484.317	2.9
484.519	2.86
484.72	2.91
484.922	2.92
485.123	2.9
485.325	2.89
485.526	2.92
485.728	2.94
485.929	2.96
486.131	3.05
486.332	3.1
486.534	3.08
486.735	3.08
486.936	3.09
487.138	3.06
487.339	3.04
487.541	3.11
487.742	3.14
487.943	3.17
488.144	3.13
488.346	3.11
488.547	3.13
488.748	3.17
488.95	3.18
489.151	3.2
489.352	3.14
489.553	3.18
489.755	3.2
489.956	3.11
490.157	3.07
490.358	3.08
490.559	3.03
490.76	2.98
490.961	3.01
491.163	3.11
491.364	3.03
491.565	3.1
491.766	3.04
491.967	3.04
492.168	3.17
492.369	3.23
492.57	3.31
492.771	3.41
492.972	3.5
493.173	3.57
493.374	3.49
493.575	3.59
493.776	3.57
493.976	3.66
494.177	3.54
494.378	3.43
494.579	3.49
494.78	3.51
494.981	3.49
495.182	3.37
495.382	3.28
495.583	3.31
495.784	3.24
495.985	3.31
496.185	3.28
496.386	3.36
496.587	3.43
496.788	3.5
496.988	3.35
497.189	3.26
497.39	3.38
497.59	3.36
497.791	3.34
497.992	3.38
498.192	3.45
498.393	3.42
498.593	3.48
498.794	3.36
498.994	3.36
499.195	3.18
499.395	3.2
499.596	3.14
499.796	3.08
499.997	3.14
500.197	3.09
500.398	3.02
500.598	3.09
500.799	3.14
500.999	3.26
501.199	3.09
501.4	3.41
501.6	3.38
501.801	3.4
502.001	3.48
502.201	3.51
502.402	3.5
502.602	3.36
502.802	3.37
503.002	3.28
503.203	3.33
503.403	3.33
503.603	3.22
503.803	3.25
504.003	3.19
504.204	3.16
504.404	3.24
504.604	3.38
504.804	3.71
505.004	3.72
505.204	3.81
505.404	3.89
505.604	3.81
505.804	3.87
506.005	3.91
506.205	3.96
506.405	3.89
506.605	3.8
506.805	3.82
507.005	3.61
507.204	3.48
507.404	3.5
507.604	3.48
507.804	3.69
508.004	3.85
508.204	3.9
508.404	4.09
508.604	4.24
508.804	4.2
509.003	4.27
509.203	4.29
509.403	4.39
509.603	4.43
509.803	4.41
510.002	4.42
510.202	4.38
510.402	4.32
510.602	4.11
510.801	4.09
511.001	4.16
511.201	3.95
511.4	3.99
511.6	3.89
511.8	3.76
511.999	3.84
512.199	3.9
512.398	3.97
512.598	4.11
512.797	4.33
512.997	4.21
513.197	4.19
513.396	4.28
513.596	4.3
513.795	4.49
513.994	4.67
514.194	4.69
514.393	4.61
514.593	4.45
514.792	4.55
514.992	4.44
515.191	4.75
515.39	4.8
515.59	4.87
515.789	5.01
515.988	5.07
516.188	5
516.387	5.03
516.586	5
516.786	5.05
516.985	5.02
517.184	5.11
517.383	5.1
517.582	5.05
517.782	5.1
517.981	4.95
518.18	4.95
518.379	4.97
518.578	4.92
518.777	4.95
518.976	5
519.176	5.04
519.375	5
519.574	4.98
519.773	5.05
519.972	5.04
520.171	5.04
520.37	5.04
520.569	5.09
520.768	5.05
520.967	5.02
521.166	5.02
521.365	4.91
521.564	5.05
521.762	5.05
521.961	5.11
522.16	5.12
522.359	5.29
522.558	5.24
522.757	5.28
522.956	5.54
523.154	5.68
523.353	5.76
523.552	5.86
523.751	5.77
523.949	5.74
524.148	5.73
524.347	5.79
524.546	5.81
524.744	5.91
524.943	5.94
525.142	5.84
525.34	5.73
525.539	5.74
525.737	5.75
525.936	5.82
526.135	5.87
526.333	5.83
526.532	5.8
526.73	5.79
526.929	5.76
527.127	5.75
527.326	5.68
527.524	5.73
527.723	5.79
527.921	5.85
528.12	5.85
528.318	5.87
528.516	5.9
528.715	5.9
528.913	5.95
529.112	5.98
529.31	5.95
529.508	6.04
529.707	6.09
529.905	6.1
530.103	6.06
530.301	6.02
530.5	6.02
530.698	6.1
530.896	6.1
531.094	6.13
531.293	6.11
531.491	6.27
531.689	6.33
531.887	6.43
532.085	6.38
532.283	6.46
532.481	6.5
532.68	6.5
532.878	6.54
533.076	6.65
533.274	6.7
533.472	6.74
533.67	6.67
533.868	6.74
534.066	6.7
534.264	6.76
534.462	6.73
534.66	6.81
534.858	6.87
535.056	6.9
535.253	6.92
535.451	6.92
535.649	7.01
535.847	7.13
536.045	7.11
536.243	7.19
536.441	7.24
536.638	7.39
536.836	7.39
537.034	7.46
537.232	7.57
537.43	7.7
537.627	7.8
537.825	7.87
538.023	7.9
538.22	7.97
538.418	7.97
538.616	7.98
538.813	8.03
539.011	8.21
539.209	8.34
539.406	8.29
539.604	8.25
539.801	8.27
539.999	8.28
540.196	8.34
540.394	8.34
540.591	8.42
540.789	8.52
540.986	8.55
541.184	8.56
541.381	8.58
541.579	8.62
541.776	8.7
541.974	8.71
542.171	8.82
542.368	8.87
542.566	8.94
542.763	8.94
542.96	9
543.158	8.94
543.355	8.97
543.552	8.94
543.75	9.05
543.947	9.11
544.144	9.17
544.341	9.23
544.539	9.3
544.736	9.26
544.933	9.34
545.13	9.36
545.327	9.57
545.524	9.79
545.722	10.08
545.919	10.01
546.116	10.09
546.313	10.19
546.51	10.2
546.707	10.37
546.904	10.55
547.101	10.7
547.298	10.78
547.495	10.84
547.692	10.87
547.889	10.87
548.086	11.08
548.283	11.22
548.48	11.34
548.677	11.34
548.874	11.37
549.07	11.29
549.267	11.47
549.464	11.55
549.661	11.71
549.858	11.68
550.055	11.61
550.251	11.67
550.448	11.59
550.645	11.69
550.842	12.06
551.038	12.22
551.235	12.62
551.432	12.58
551.628	12.64
551.825	12.76
552.022	12.99
552.218	13.24
552.415	13.28
552.612	13.44
552.808	13.44
553.005	13.3
553.201	13.22
553.398	13.24
553.594	13.33
553.791	13.6
553.987	13.54
554.184	13.6
554.38	13.66
554.577	13.87
554.773	13.84
554.97	14.06
555.166	14.35
555.362	14.56
555.559	14.58
555.755	14.78
555.952	14.79
556.148	14.95
556.344	15.22
556.541	15.1
556.737	15.16
556.933	15.62
557.129	15.62
557.326	15.44
557.522	15.64
557.718	15.83
557.914	15.96
558.11	15.99
558.307	16.04
558.503	15.95
558.699	16.36
558.895	16.32
559.091	16.37
559.287	16.5
559.483	16.79
559.679	16.86
559.876	16.86
560.072	16.95
560.268	17.15
560.464	17.35
560.66	17.36
560.856	17.35
561.052	17.53
561.247	17.43
561.443	17.59
561.639	17.56
561.835	17.49
562.031	17.85
562.227	17.86
562.423	17.97
562.619	18.08
562.815	18.44
563.01	18.56
563.206	18.63
563.402	18.84
563.598	18.76
563.793	18.84
563.989	19.14
564.185	19.08
564.381	19.31
564.576	19.29
564.772	19.28
564.968	19.17
565.163	19.26
565.359	19.44
565.555	19.37
565.75	19.78
565.946	20.06
566.141	20.02
566.337	20.12
566.532	20.09
566.728	20.19
566.923	20.48
567.119	20.55
567.314	20.66
567.51	20.8
567.705	20.83
567.901	20.69
568.096	20.59
568.292	20.61
568.487	20.81
568.682	20.92
568.878	21.07
569.073	21.01
569.268	21.08
569.464	21.36
569.659	21.47
569.854	21.83
570.05	21.87
570.245	22.14
570.44	22.47
570.635	22.52
570.831	22.69
571.026	22.84
571.221	23.03
571.416	23.21
571.611	23.01
571.806	23.1
572.002	23.07
572.197	23.2
572.392	23.19
572.587	23.16
572.782	23.06
572.977	23.09
573.172	23.12
573.367	23.12
573.562	23.22
573.757	23.43
573.952	23.49
574.147	23.53
574.342	23.49
574.537	23.65
574.732	23.73
574.927	23.97
575.121	24.09
575.316	24.24
575.511	24.38
575.706	24.35
575.901	24.35
576.096	24.27
576.29	24.57
576.485	24.74
576.68	24.81
576.875	24.94
577.069	25.25
577.264	25.31
577.459	25.19
577.654	25.3
577.848	25.3
578.043	25.5
578.238	25.57
578.432	25.43
578.627	25.82
578.821	25.71
579.016	25.66
579.21	25.41
579.405	25.48
579.6	25.52
579.794	25.45
579.989	25.54
580.183	25.35
580.378	25.48
580.572	25.49
580.766	25.33
580.961	25.75
581.155	25.92
581.35	25.93
581.544	26.12
581.738	26.3
581.933	26.48
582.127	26.75
582.321	27.05
582.516	26.86
582.71	27.04
582.904	27.05
583.099	26.77
583.293	26.7
583.487	26.92
583.681	26.88
583.875	27
584.07	27.05
584.264	27.08
584.458	27.19
584.652	27.69
584.846	27.75
585.04	27.9
585.234	28.09
585.428	28.06
585.623	28.13
585.817	28.23
586.011	28.22
586.205	28.3
586.399	28.36
586.593	28.4
586.787	28.36
586.981	28.11
587.174	28.23
587.368	28.34
587.562	28.6
587.756	28.39
587.95	28.45
588.144	28.65
588.338	28.63
588.532	28.53
588.725	28.65
588.919	28.56
589.113	28.87
589.307	28.68
589.501	28.55
589.694	29
589.888	29.21
590.082	29.12
590.275	28.96
590.469	29.05
590.663	29.09
590.856	28.98
591.05	29.28
591.244	29.13
591.437	29.2
591.631	29.51
591.824	29.16
592.018	29.1
592.212	29.24
592.405	29.31
592.599	29.18
592.792	29.45
592.986	29.51
593.179	29.44
593.372	29.43
593.566	29.69
593.759	29.88
593.953	29.69
594.146	29.87
594.339	29.82
594.533	29.87
594.726	30.07
594.92	30.11
595.113	30.2
595.306	30.28
595.499	30.54
595.693	30.36
595.886	29.93
596.079	30.1
596.272	29.95
596.466	30.17
596.659	30.29
596.852	30.2
597.045	30.22
597.238	30.2
597.431	30.2
597.624	30.18
597.818	30.24
598.011	30.4
598.204	30.41
598.397	30.48
598.59	30.13
598.783	29.89
598.976	29.82
599.169	29.85
599.362	30
599.555	30.09
599.748	30.03
599.941	30.11
600.134	30.36
600.326	30.43
600.519	30.64
600.712	30.78
600.905	30.91
601.098	31.34
601.291	31.23
601.483	31.23
601.676	31.19
601.869	31.32
602.062	31.33
602.255	31.16
602.447	31.18
602.64	31.16
602.833	31.33
603.025	31.49
603.218	31.43
603.411	31.26
603.603	31.13
603.796	31.1
603.989	31.2
604.181	31.19
604.374	31.2
604.566	31.22
604.759	31.19
604.951	31.27
605.144	31.25
605.336	31.21
605.529	31.32
605.721	31.41
605.914	31.43
606.106	31.35
606.299	31.35
606.491	31.53
606.683	31.69
606.876	31.9
607.068	31.82
607.26	31.94
607.453	31.99
607.645	31.97
607.837	32.04
608.03	32.07
608.222	32.1
608.414	32.19
608.606	32.07
608.799	31.95
608.991	31.93
609.183	31.92
609.375	32.01
609.567	32.09
609.759	32.25
609.952	32.27
610.144	32.16
610.336	32.31
610.528	32.28
610.72	32.22
610.912	32.21
611.104	32.05
611.296	32.14
611.488	32.18
611.68	32.3
611.872	32.22
612.064	32.24
612.256	32.41
612.448	32.31
612.64	32.25
612.832	32.46
613.023	32.69
613.215	32.98
613.407	33.08
613.599	33.09
613.791	32.89
613.983	33.08
614.174	33.1
614.366	32.85
614.558	32.67
614.75	32.5
614.941	32.61
615.133	32.24
615.325	31.91
615.516	31.74
615.708	31.46
615.9	31.64
616.091	31.5
616.283	31.45
616.475	31.76
616.666	31.98
616.858	32.68
617.049	32.54
617.241	32.67
617.432	33.06
617.624	33.27
617.815	33.48
618.007	33.41
618.198	33.56
618.39	33.41
618.581	33.46
618.773	33.57
618.964	33.21
619.155	33.27
619.347	33.38
619.538	33.34
619.729	33.43
619.921	33.28
620.112	33.14
620.303	32.91
620.494	33.17
620.686	33.08
620.877	32.81
621.068	32.8
621.259	32.78
621.451	32.82
621.642	32.86
621.833	32.67
622.024	33.04
622.215	33.22
622.406	33.44
622.597	33.45
622.788	33.64
622.98	33.7
623.171	34.09
623.362	34.11
623.553	34.42
623.744	34.53
623.935	34.78
624.126	34.52
624.317	34.37
624.508	34.39
624.698	34.32
624.889	34.09
625.08	34.55
625.271	34.27
625.462	34.33
625.653	34.15
625.844	34.01
626.034	33.87
626.225	34.14
626.416	34.01
626.607	34.01
626.798	34.14
626.988	34.33
627.179	34.24
627.37	34.33
627.56	34.23
627.751	34.15
627.942	34.17
628.132	34.06
628.323	33.97
628.514	34.18
628.704	34.05
628.895	33.94
629.085	33.97
629.276	33.86
629.466	34
629.657	34.07
629.847	34.13
630.038	33.95
630.228	34.09
630.419	34.1
630.609	34.14
630.8	34.37
630.99	34.41
631.181	34.27
631.371	34.48
631.561	34.27
631.752	34.38
631.942	34.64
632.132	34.84
632.323	34.8
632.513	34.67
632.703	34.87
632.893	34.72
633.084	34.44
633.274	34.56
633.464	34.48
633.654	34.53
633.844	34.42
634.034	34.2
634.225	34.14
634.415	34.12
634.605	34.43
634.795	34.21
634.985	34.59
635.175	34.84
635.365	34.66
635.555	34.64
635.745	34.63
635.935	34.52
636.125	34.82
636.315	34.95
636.505	34.99
636.695	34.6
636.885	34.4
637.075	34.12
637.265	34.25
637.455	34.64
637.644	34.58
637.834	34.68
638.024	34.82
638.214	34.48
638.404	34.37
638.593	34.37
638.783	34.47
638.973	34.8
639.163	34.73
639.352	35
639.542	34.61
639.732	34.63
639.921	34.38
640.111	34.71
640.301	34.68
640.49	35.05
640.68	35.45
640.87	35.62
641.059	35.46
641.249	35.53
641.438	35.17
641.628	35.57
641.817	35.72
642.007	36.33
642.196	35.92
642.386	36.29
642.575	35.88
642.764	35.72
642.954	35.43
643.143	35.22
643.333	35.32
643.522	35.45
643.711	35.16
643.901	34.97
644.09	34.38
644.279	34.66
644.469	34.38
644.658	34.44
644.847	34.4
645.036	34.89
645.226	35.29
645.415	35.22
645.604	35.44
645.793	35.45
645.982	35.45
646.171	35.71
646.361	35.67
646.55	35.61
646.739	35.94
646.928	35.81
647.117	35.53
647.306	35.59
647.495	35.7
647.684	35.28
647.873	35.61
648.062	36.06
648.251	36.25
648.44	36.17
648.629	36.19
648.818	36.17
649.007	36.26
649.196	36.45
649.384	36.57
649.573	36.42
649.762	36.9
649.951	36.7
650.14	36.64
650.328	36.32
650.517	36.55
650.706	36.84
650.895	36.83
651.083	36.79
651.272	36.75
651.461	36.52
651.65	36.46
651.838	36.02
652.027	35.65
652.216	35.52
652.404	35.47
652.593	35.23
652.781	35.03
652.97	34.87
653.158	35.06
653.347	34.99
653.535	35.2
653.724	35.28
653.912	35.54
654.101	35.89
654.289	35.69
654.478	36.02
654.666	36.09
654.855	36.05
655.043	36.1
655.231	36.12
655.42	36.21
655.608	36.31
655.796	36.4
655.985	36.45
656.173	36.62
656.361	36.86
656.55	36.69
656.738	36.94
656.926	37.16
657.114	37.05
657.302	37.09
657.491	36.82
657.679	36.43
657.867	36.33
658.055	36.32
658.243	36.57
658.431	36.34
658.619	36.4
658.807	36.4
658.996	36.57
659.184	36.82
659.372	36.73
659.56	36.95
659.748	36.94
659.936	37.09
660.124	36.86
660.311	36.77
660.499	36.73
660.687	36.96
660.875	36.98
661.063	36.5
661.251	36.32
661.439	36.35
661.627	36.26
661.814	36.04
662.002	36.01
662.19	36.6
662.378	36.3
662.565	36.62
662.753	36.4
662.941	36.3
663.129	36.47
663.316	36.72
663.504	36.52
663.692	36.71
663.879	37.24
664.067	37.44
664.254	37.25
664.442	37.66
664.63	37.5
664.817	37.24
665.005	36.89
665.192	37.44
665.38	37.23
665.567	37.28
665.755	37.11
665.942	36.84
666.13	37.14
666.317	36.97
666.504	36.73
666.692	36.66
666.879	37.02
667.067	37.47
667.254	37.12
667.441	37.61
667.629	37.79
667.816	38.15
668.003	38.13
668.19	37.71
668.378	37.68
668.565	37.74
668.752	37.75
668.939	37.54
669.127	37.54
669.314	37.48
669.501	36.65
669.688	36.9
669.875	36.38
670.062	36.66
670.249	37.1
670.436	37.4
670.623	37.26
670.81	37.42
670.997	37.72
671.184	37.56
671.371	37.25
671.558	37.76
671.745	37.61
671.932	38.08
672.119	38.03
672.306	37.8
672.493	37.35
672.68	37.15
672.867	36.98
673.054	36.83
673.24	36.92
673.427	37.44
673.614	37.77
673.801	37.78
673.988	37.43
674.174	37.05
674.361	36.99
674.548	37.28
674.734	37.87
674.921	38.24
675.108	38.3
675.294	38.1
675.481	38.16
675.668	37.79
675.854	37.77
676.041	38.11
676.227	38.67
676.414	39
676.601	39.41
676.787	39.23
676.974	39.11
677.16	39.16
677.347	39.12
677.533	38.84
677.719	38.94
677.906	38.72
678.092	38.92
678.279	38.98
678.465	38.14
678.651	37.67
678.838	37.72
679.024	37.49
679.21	37.72
679.397	37.89
679.583	38.05
679.769	38.12
679.955	38.31
680.142	37.85
680.328	37.71
680.514	38.11
680.7	38.16
680.886	38.26
681.073	38.77
681.259	38.62
681.445	38.76
681.631	38.75
681.817	38.39
682.003	38.48
682.189	38.56
682.375	38.38
682.561	38.39
682.747	38.36
682.933	38.3
683.119	37.77
683.305	37.7
683.491	37.49
683.677	37.27
683.863	37.44
684.049	37.48
684.235	37.62
684.42	37.7
684.606	37.71
684.792	37.69
684.978	37.5
685.164	37.77
685.349	37.72
685.535	37.94
685.721	38.13
685.907	38.12
686.092	37.87
686.278	38.03
686.464	38.38
686.649	38.27
686.835	38.01
687.021	38.26
687.206	38.06
687.392	38.02
687.577	38.19
687.763	38.67
687.948	38.49
688.134	38.5
688.319	38.22
688.505	37.96
688.69	38.12
688.876	38.49
689.061	38.11
689.247	38.88
689.432	39.06
689.618	38.6
689.803	38.37
689.988	38.74
690.174	38.73
690.359	39.02
690.544	39.35
690.73	39.3
690.915	39.55
691.1	39.82
691.285	39.5
691.471	39.41
691.656	39.34
691.841	39.22
692.026	38.84
692.211	38.48
692.396	38.08
692.582	37.94
692.767	37.9
692.952	37.56
693.137	37.67
693.322	37.32
693.507	37.57
693.692	38.06
693.877	37.91
694.062	38.21
694.247	38.77
694.432	39.01
694.617	38.84
694.802	38.42
694.987	38.35
695.172	38.25
695.357	38.22
695.541	37.94
695.726	37.76
695.911	37.97
696.096	37.99
696.281	38.56
696.466	38.42
696.65	38.23
696.835	37.95
697.02	38.81
697.204	38.42
697.389	38.84
697.574	39.1
697.759	39.26
697.943	39
698.128	38.98
698.312	38.66
698.497	38.36
698.682	38.52
698.866	38.78
699.051	38.35
699.235	38.73
699.42	38.32
699.604	38.2
699.789	38.16
699.973	38.03
700.158	37.6
700.342	37.58
700.527	38.09
700.711	38.31
700.895	38.61
701.08	38.83
701.264	38.43
701.448	38.55
701.633	38.54
701.817	38.4
702.001	38.73
702.186	39.5
702.37	39.05
702.554	38.51
702.738	38.9
702.923	38.81
703.107	38.8
703.291	39.36
703.475	38.96
703.659	39.21
703.843	39.2
704.027	39.49
704.212	39.49
704.396	40.55
704.58	41.14
704.764	40.39
704.948	40.67
705.132	40.27
705.316	40.39
705.5	40.61
705.684	40.55
705.868	40.83
706.052	40.76
706.235	40.56
706.419	40.2
706.603	40.63
706.787	40.85
706.971	40.95
707.155	40.92
707.339	40.67
707.522	41.06
707.706	41.32
707.89	41.63
708.074	41.58
708.257	41.93
708.441	41.33
708.625	41.52
708.808	41.9
708.992	41.52
709.176	41.89
709.359	41.77
709.543	41.64
709.727	40.85
709.91	40.39
710.094	40.14
710.277	39.86
710.461	40.42
710.644	39.55
710.828	39.11
711.011	39.87
711.195	39.69
711.378	39.84
711.562	40.35
711.745	40.81
711.928	40.81
712.112	40.86
712.295	40.47
712.478	40.41
712.662	40.92
712.845	41.3
713.028	40.32
713.212	40.39
713.395	39.98
713.578	39.96
713.761	39.3
713.945	39.44
714.128	39.7
714.311	39.52
714.494	39.43
714.677	39.92
714.86	39.74
715.043	39.9
715.227	39.61
715.41	39.98
715.593	40.02
715.776	40.56
715.959	40.46
716.142	40.83
716.325	41.17
716.508	40.79
716.691	39.99
716.874	39.56
717.057	39.92
717.239	40.32
717.422	40.57
717.605	40.63
717.788	40.25
717.971	40.46
718.154	40.04
718.337	40.22
718.519	40.6
718.702	40.56
718.885	40.37
719.068	40.72
719.25	40.64
719.433	40
719.616	39.53
719.798	39.1
719.981	38.97
720.164	39.26
720.346	39.2
720.529	39.2
720.712	39.56
720.894	40.64
721.077	39.46
721.259	39.43
721.442	39.32
721.624	39.39
721.807	40.51
721.989	40.8
722.172	40.23
722.354	39.76
722.537	40.15
722.719	41.03
722.901	39.68
723.084	39.39
723.266	38.94
723.448	39.85
723.631	40.09
723.813	40.03
723.995	40.01
724.178	40.16
724.36	40.77
724.542	40.49
724.724	40.2
724.907	41.57
725.089	42.3
725.271	43.25
725.453	42.17
725.635	42.51
725.817	42.38
725.999	42.76
726.181	43.28
726.364	43.37
726.546	43.41
726.728	42.59
726.91	42.6
727.092	42.99
727.274	41.52
727.456	41.76
727.638	40.8
727.819	40.55
728.001	39.7
728.183	38.96
728.365	38.85
728.547	38.72
728.729	38.7
728.911	38.14
729.093	38.27
729.274	39.36
729.456	39.36
729.638	39.46
729.82	39.84
730.001	40.62
730.183	40.57
730.365	40.14
730.546	39.91
730.728	40.36
730.91	41
731.091	40.55
731.273	40.36
731.455	41.67
731.636	42.37
731.818	42.28
731.999	41.61
732.181	42.15
732.362	42.99
732.544	43.88
732.725	43.7
732.907	43.09
733.088	43.33
733.27	43.78
733.451	42.76
733.633	42.65
733.814	42.64
733.995	43.26
734.177	42.3
734.358	42.45
734.539	41.97
734.721	41.89
734.902	42.45
735.083	41.93
735.264	41.56
735.446	41.48
735.627	41.32
735.808	40.6
735.989	40.38
736.17	41.54
736.351	41.81
736.533	41.43
736.714	41.33
736.895	40.29
737.076	41.16
737.257	41.35
737.438	41.28
737.619	40.7
737.8	41.28
737.981	40.64
738.162	40.58
738.343	39.57
738.524	39.65
738.705	39.82
738.886	40.27
739.067	39.77
739.247	39.5
739.428	40.53
739.609	41.19
739.79	41.16
739.971	41.06
740.151	41.86
740.332	41.78
740.513	42.45
740.694	42.02
740.874	41.9
741.055	42.3
741.236	42.02
741.417	42.01
741.597	41.78
741.778	43.28
741.958	44
742.139	42.66
742.32	43.21
742.5	43.28
742.681	43.98
742.861	43.89
743.042	43.92
743.222	44.89
743.403	44.47
743.583	44.39
743.764	42.79
743.944	43.51
744.124	44.53
744.305	44.97
744.485	45.1
744.666	44.83
744.846	45.53
745.026	45.76
745.207	45.98
745.387	46.01
745.567	45.8
745.747	46.5
745.928	46.26
746.108	45.9
746.288	45.33
746.468	43.68
746.648	44.02
746.829	43.47
747.009	43.31
747.189	41.66
747.369	41.41
747.549	41.44
747.729	41.23
747.909	40.82
748.089	40.06
748.269	39.76
748.449	41.08
748.629	40.88
748.809	40.82
748.989	40.32
749.169	40.85
749.349	41.43
749.529	41.15
749.709	41.04
749.889	40.38
750.068	41.38
750.248	42.31
750.428	41.77
750.608	41.65
750.788	42.7
750.967	42.61
751.147	42.59
751.327	42.45
751.507	42.36
751.686	42.51
751.866	42.72
752.046	42.28
752.225	41.14
752.405	41.56
752.585	42.39
752.764	41.75
752.944	40.79
753.123	40.66
753.303	39.56
753.482	41.01
753.662	40.57
753.841	40.23
754.021	39.53
754.2	40.01
754.38	39.92
754.559	38.99
754.739	38.71
754.918	40.58
755.097	39.84
755.277	40.04
755.456	39.83
755.635	40.76
755.815	41.48
755.994	41.92
756.173	42.86
756.352	42.81
756.532	42.41
756.711	43.12
756.89	42.9
757.069	43.8
757.248	43.42
757.427	42.67
757.607	42.89
757.786	43.84
757.965	43.53
758.144	42.82
758.323	42.66
758.502	43.3
758.681	41.85
758.86	41.04
759.039	41.36
759.218	42.09
759.397	41.5
759.576	40.43
759.755	39.94
759.934	40.59
760.113	40.52
760.291	41.29
760.47	40.79
760.649	41.73
760.828	41.72
761.007	42.34
761.186	42.15
761.364	42
761.543	42.48
761.722	41.6
761.901	40.15
762.079	40.76
762.258	40.36
762.437	41.01
762.615	41.1
762.794	41.96
762.972	40.86
763.151	41.2
763.33	41.49
763.508	40.53
763.687	40.5
763.865	41.07
764.044	40.47
764.222	39.46
764.401	39.31
764.579	38.92
764.758	38.66
764.936	39.44
765.114	40.18
765.293	39.75
765.471	40.81
765.65	41.1
765.828	41.8
766.006	41.6
766.184	43.04
766.363	43.07
766.541	42.86
766.719	42.85
766.898	41.91
767.076	40.2
767.254	41.53
767.432	41.19
767.61	41.62
767.788	41.96
767.967	42.07
768.145	41.76
768.323	42.13
768.501	43.07
768.679	42.63
768.857	43.54
769.035	44.69
769.213	44.21
769.391	43.76
769.569	43.56
769.747	43.44
769.925	44.38
770.103	44.36
770.281	44.29
770.459	44.69
770.636	45.58
770.814	45.9
770.992	46.52
771.17	46.99
771.348	46.93
771.525	47.38
771.703	47.21
771.881	47.11
772.059	47.42
772.236	46.35
772.414	47.28
772.592	46.95
772.769	46.91
772.947	47.94
773.125	48.53
773.302	49.44
773.48	49.23
773.657	48.61
773.835	47.76
774.013	48.85
774.19	50.59
774.368	50.05
774.545	49.7
774.723	49.57
774.9	48.2
775.077	48.13
775.255	47.83
775.432	47.83
775.61	47.26
775.787	49.35
775.964	47.54
776.142	47.39
776.319	46.06
776.496	46.26
776.674	46.22
776.851	45.59
777.028	44.72
777.205	43.73
777.382	43.35
777.56	44.76
777.737	44.66
777.914	45.49
778.091	45.43
778.268	47.35
778.445	45.32
778.622	43.67
778.8	44.9
778.977	46.04
779.154	51.59
779.331	52.57
779.508	51.75
779.685	50.59
779.862	50.86
780.038	51.15
780.215	50.37
780.392	51.88
780.569	53.19
780.746	51.81
780.923	52.02
781.1	49.05
781.277	48.86
781.453	49.21
781.63	48.87
781.807	49.03
781.984	48.15
782.16	47.18
782.337	46.76
782.514	47.91
782.691	48.78
782.867	47.68
783.044	46.58
783.221	44.63
783.397	44.21
783.574	43.14
783.75	42.18
783.927	43.02
784.103	43.37
784.28	43.98
784.456	42.35
784.633	41.64
784.809	42.08
784.986	41.58
785.162	41.64
785.339	42.99
785.515	44.16
785.692	42.48
785.868	41.94
786.044	41.62
786.221	43.89
786.397	43.82
786.573	43.21
786.749	42.29
786.926	41.38
787.102	42.72
787.278	40.92
787.454	41.4
787.631	43.06
787.807	43.37
787.983	43.14
788.159	41.99
788.335	43.06
788.511	44.36
788.687	44.2
788.863	45.22
789.039	43.46
789.216	44.96
789.392	44.09
789.568	44.84
789.744	44.25
789.919	44.19
790.095	44.15
790.271	44.15
790.447	42.05
790.623	43.54
790.799	41.95
790.975	43.38
791.151	42.32
791.327	43.16
791.502	41.98
791.678	42.38
791.854	43.26
792.03	42.14
792.205	43.12
792.381	45.01
792.557	44.29
792.733	45.61
792.908	46
793.084	47.32
793.259	46.91
793.435	46.74
793.611	46.11
793.786	46.65
793.962	46.81
794.137	45.43
794.313	45.47
794.488	43.88
794.664	45.37
794.839	45.3
795.015	42.98
795.19	41.68
795.366	41.62
795.541	41.91
795.716	39.59
795.892	40.39
796.067	38.87
796.242	39.54
796.418	40.67
796.593	38.74
796.768	38.3
796.944	39.34
797.119	40.24
797.294	41.63
797.469	40.39
797.644	42.3
797.82	40.79
797.995	40.91
798.17	39.05
798.345	39.96
798.52	42.09
798.695	42.69
798.87	42.78
799.045	41.83
799.22	42.32
799.395	43.36
799.57	42.69
799.745	43.67
799.92	45.08
800.095	45.83
800.27	43.8
800.445	42.63
800.62	43.61
800.795	45.71
800.97	47.83
801.145	46.36
801.319	47.07
801.494	48.06
801.669	48.26
801.844	49.41
802.018	48.35
802.193	50.92
802.368	51.58
802.543	48.84
802.717	46.64
802.892	47.88
803.067	48.51
803.241	47.92
803.416	47.48
803.59	48.22
803.765	45.88
803.94	46.53
804.114	45.13
804.289	46.03
804.463	47.13
804.638	47.83
804.812	45.81
804.986	45.47
805.161	45.04
805.335	46.16
805.51	45.85
805.684	45.67
805.858	46.07
806.033	47.64
806.207	46.47
806.381	46.44
806.556	45.74
806.73	45.81
806.904	46.28
807.078	44.26
807.253	45.22
807.427	44.54
807.601	46.19
807.775	45.84
807.949	43.21
808.123	44.01
808.298	44.05
808.472	45.15
808.646	47.13
808.82	47.06
808.994	48.77
809.168	47.88
809.342	45.98
809.516	45.2
809.69	46.43
809.864	48.6
810.038	48.58
810.212	49.26
810.385	47.88
810.559	48.26
810.733	45.84
810.907	45.39
811.081	44.18
811.255	47.98
811.428	50.05
811.602	50.67
811.776	50
811.95	48.17
812.123	46.9
812.297	47.16
812.471	46.4
812.644	49.26
812.818	51.64
812.992	50.57
813.165	49.73
813.339	46.99
813.512	45.77
813.686	46.37
813.86	46.94
814.033	48.73
814.207	49.22
814.38	48.79
814.554	49.12
814.727	47.49
814.9	48.82
815.074	49.15
815.247	53.99
815.421	52.79
815.594	53.77
815.767	55.05
815.941	55.19
816.114	54.52
816.287	53
816.46	51.46
816.634	51.43
816.807	49.54
816.98	48.35
817.153	44.01
817.327	41.74
817.5	41.19
817.673	39.34
817.846	39.67
818.019	37.78
818.192	38.27
818.365	38.71
818.538	40.7
818.711	41.57
818.884	43.81
819.057	45.51
819.23	46.75
819.403	45.69
819.576	47.54
819.749	47.37
819.922	48.85
820.095	46.37
820.268	48.34
820.441	45.85
820.614	47.79
820.786	46.57
820.959	44.89
821.132	45.06
821.305	43.59
821.477	42.46
821.65	41.96
821.823	41.38
821.996	42.3
822.168	41.04
822.341	41.01
822.514	39.9
822.686	39.68
822.859	40
823.031	40.02
823.204	40.05
823.376	39.94
823.549	40.04
823.722	40.6
823.894	40.74
824.067	40.5
824.239	40.68
824.411	41.3
824.584	41.13
824.756	41.14
824.929	40.8
825.101	40.9
825.273	41.01
825.446	40.57
825.618	39.74
825.79	39.22
825.963	39.55
826.135	38.86
826.307	38.42
826.479	38.78
826.652	38.12
826.824	38.73
826.996	39
827.168	38.87
827.34	39.33
827.512	39.79
827.684	39.57
827.856	39.44
828.029	40.28
828.201	40.24
828.373	38.92
828.545	40.11
828.717	40.59
828.889	40.09
829.061	39.67
829.232	39.25
829.404	38.05
829.576	38.62
829.748	39.99
829.92	40.06
830.092	41.01
830.264	42.92
830.436	40.91
830.607	40.33
830.779	40.04
830.951	41.34
831.123	41.38
831.294	44.16
831.466	44.02
831.638	43.63
831.809	44.78
831.981	42.94
832.153	44.63
832.324	46.02
832.496	44.18
832.667	46.27
832.839	47.48
833.011	49.98
833.182	49.27
833.354	49.81
833.525	49.05
833.697	47.67
833.868	47.89
834.039	46.08
834.211	46.11
834.382	46.78
834.554	47.64
834.725	46.98
834.896	45.41
835.068	44.65
835.239	44.16
835.41	43.92
835.581	44.42
835.753	43.71
835.924	41.81
836.095	41.22
836.266	42.62
836.438	40.57
836.609	39
836.78	39.95
836.951	41.42
837.122	41.38
837.293	41.51
837.464	41.85
837.635	42.72
837.806	46.43
837.977	48.16
838.148	48.32
838.319	48.99
838.49	48.25
838.661	44.74
838.832	40.09
839.003	39.15
839.174	39.78
839.345	41.37
839.516	43.26
839.687	43.16
839.857	44.04
840.028	41.52
840.199	40.46
840.37	43.14
840.54	44.83
840.711	47.74
840.882	46.2
841.053	44.18
841.223	39.93
841.394	39.28
841.564	39.77
841.735	39.07
841.906	40.55
842.076	44.66
842.247	43.63
842.417	45.7
842.588	45.32
842.758	49.81
842.929	50.58
843.099	51.13
843.27	51.04
843.44	51.5
843.611	49.32
843.781	47.04
843.951	40.35
844.122	43.05
844.292	41.45
844.462	41.12
844.633	40.17
844.803	41.58
844.973	44.26
845.144	39.77
845.314	40.32
845.484	44.71
845.654	46.45
845.824	56.13
845.995	57.84
846.165	56.62
846.335	55.92
846.505	57.66
846.675	57.34
846.845	45.1
847.015	52.02
847.185	50.68
847.355	36.53
847.525	30.8
847.695	13.51
847.865	8.54
848.035	15.33
848.205	19.97
848.375	24.01
848.545	24.51
848.715	31.54
848.884	29.23
849.054	27.27
849.224	35.02
849.394	34.5
849.564	45.9
849.733	47.03
849.903	39.34
850.073	35
850.243	36.03
850.412	34.85
850.582	36.71
850.752	45.76
850.921	47.68
851.091	48.46
851.26	51.65
851.43	48.97
851.599	45.7
851.769	46.43
851.939	47.93
852.108	48.03
852.278	47.8
852.447	52.19
852.616	47.79
852.786	42.93
852.955	41.76
853.125	45.92
853.294	47.93
853.463	52.33
853.633	57.29
853.802	54.71
853.971	54.56
854.141	59.55
854.31	56.33
854.479	49.72
854.648	46.8
854.818	45.91
854.987	44.38
855.156	45.91
855.325	45.66
855.494	51.59
855.663	54.55
855.832	55.06
856.001	55
856.171	53.99
856.34	59.2
856.509	56.24
856.678	59.45
856.847	60.65
857.016	49.65
857.185	48.95
857.353	50.35
857.522	63.43
857.691	59.18
857.86	57.58
858.029	61.71
858.198	67.12
858.367	76.43
858.535	83.19
858.704	81.22
858.873	92.52
859.042	89.35
859.21	92.15
859.379	83.25
859.548	86.67
859.717	83.37
859.885	82.51
860.054	67.46
860.222	62.7
860.391	61.82
860.56	62.18
860.728	59.36
860.897	55.52
861.065	46
861.234	40.33
861.402	37.85
861.571	39.1
861.739	40.38
861.908	46.92
862.076	37.21
862.244	28.2
862.413	20.28
862.581	17.84
862.749	21.82
862.918	47.06
863.086	49.33
863.254	41.82
863.423	37.52
863.591	36.37
863.759	34.51
863.927	48.33
864.096	50.65
864.264	60.57
864.432	62.53
864.6	56.37
864.768	46.55
864.936	49.64
865.104	58.65
865.272	65.07
865.44	72.71
865.608	72.78
865.776	73.68
865.944	70.15
866.112	70
866.28	75.03
866.448	83.46
866.616	84.62
866.784	91.92
866.952	84.72
867.12	85.89
867.288	81.81
867.455	77.65
867.623	69.37
867.791	75.12
867.959	61.95
868.127	55.82
868.294	53.39
868.462	39.18
868.63	32.73
868.797	22.06
868.965	20.26
869.133	17.95
869.3	30.69
869.468	45.61
869.636	53.7
869.803	60.27
869.971	58.68
870.138	57.86
870.306	61.12
870.473	62.39
870.641	67.18
870.808	68.65
870.975	60.48
871.143	56.3
871.31	52.06
871.478	43.47
871.645	40.59
871.812	42.12
871.98	47.06
872.147	50.72
872.314	47.52
872.482	48.18
872.649	48.98
872.816	51.57
872.983	54.5
873.15	58.9
873.318	65.47
873.485	69.37
873.652	74.4
873.819	73.75
873.986	64.05
874.153	69.16
874.32	72.67
874.487	74.67
874.654	77.12
874.821	70.34
874.988	62.11
875.155	58.05
875.322	56.01
875.489	56.52
875.656	53.16
875.823	57.44
875.99	53.95
876.157	54.93
876.324	49.09
876.49	39.29
876.657	49.55
876.824	49.04
876.991	47.4
877.157	46.39
877.324	40.75
877.491	43.57
877.658	42.14
877.824	38.52
877.991	35.19
878.157	36.97
878.324	45.23
878.491	42.05
878.657	45.4
878.824	49.04
878.99	45.95
879.157	48.75
879.323	49.57
879.49	48.16
879.656	50.7
879.823	50.02
879.989	46.95
880.156	43.8
880.322	42.93
880.488	45.31
880.655	40.66
880.821	47.04
880.987	48.22
881.154	46.37
881.32	47.06
881.486	44.74
881.652	42.96
881.819	45.93
881.985	46.92
882.151	47.27
882.317	45.27
882.483	45.43
882.649	43.37
882.816	40.01
882.982	39.4
883.148	38.95
883.314	38.72
883.48	37.33
883.646	35.93
883.812	34.86
883.978	33.76
884.144	34.63
884.31	34.07
884.476	34.04
884.642	34.85
884.807	35.65
884.973	36.53
885.139	36.09
885.305	38.12
885.471	39.63
885.637	41.58
885.802	40.95
885.968	41.89
886.134	42.58
886.3	44.5
886.465	45.5
886.631	43.82
886.797	46.03
886.962	48.9
887.128	51.67
887.293	47.09
887.459	43.24
887.625	44.29
887.79	38.49
887.956	39.14
888.121	34.37
888.287	31.89
888.452	35.09
888.618	29.11
888.783	23.5
