Data from LC_156_Reflection_3.txt Node
Date: Mon Nov 16 22:22:05 EST 2015
User: robert
Spectrometer: USB4E03001
Autoset integration time: false
Trigger mode: 4
Integration Time (sec): 1.000000E-1
Scans to average: 15
Electric dark correction enabled: true
Nonlinearity correction enabled: false
Boxcar width: 5
Stray light correction enabled: false
XAxis mode: Wavelengths
Stop averaging: false
Number of Pixels in Spectrum: 3648
>>>>>Begin Spectral Data<<<<<
177.566	1502.41
177.785	70.46
178.005	729.41
178.225	31.93
178.445	68.44
178.665	-109.93
178.885	-100.84
179.105	-241.12
179.324	-228.97
179.544	-19.36
179.764	-672.47
179.984	-214.29
180.204	-146.05
180.423	-85.56
180.643	-331.08
180.863	-244.31
181.083	-262.63
181.302	-315.38
181.522	-277.57
181.742	-255.5
181.961	-448.36
182.181	-417.46
182.401	-628.6
182.621	-2425.7
182.84	-1098.24
183.06	-650.64
183.279	-428.7
183.499	-318.41
183.719	-286.48
183.938	-277.22
184.158	-308.88
184.377	-222.96
184.597	-333.45
184.816	-210.9
185.036	-179.02
185.256	-149.36
185.475	-192.76
185.695	-286.36
185.914	-416.23
186.134	-639.41
186.353	-840.63
186.572	-936.54
186.792	-1336.64
187.011	-549.06
187.231	-470.18
187.45	-319.44
187.67	-939.24
187.889	-2511.13
188.108	4314.98
188.328	-1126.9
188.547	-435.7
188.766	-778.83
188.986	-1222.1
189.205	-868.54
189.424	-566.51
189.644	-1619.99
189.863	-1770.29
190.082	-1139.2
190.302	-2422.11
190.521	-1353.78
190.74	1353.27
190.959	622.38
191.178	871.04
191.398	744.14
191.617	698.79
191.836	601.28
192.055	1436.41
192.274	606.45
192.494	680.32
192.713	737.92
192.932	1789.74
193.151	1475.22
193.37	2899.87
193.589	-1687.73
193.808	-471.02
194.027	-636.47
194.246	-6112.57
194.465	1103.66
194.685	2604.98
194.904	1201.89
195.123	-1634.54
195.342	-911.01
195.561	-371.7
195.78	-461.91
195.999	21007.04
196.218	713.08
196.436	636.12
196.655	-2243.7
196.874	-910.88
197.093	-1393.66
197.312	-1101.48
197.531	3344.68
197.75	1203.99
197.969	-4321.99
198.188	-1060.14
198.407	-297.59
198.625	-389.24
198.844	-320.4
199.063	-343.18
199.282	-598.42
199.501	-403.65
199.719	-298.75
199.938	-197.75
200.157	-195.42
200.376	-224.49
200.594	-283.36
200.813	-581.82
201.032	-410.66
201.251	-377.37
201.469	-309.43
201.688	-255.1
201.907	-468.27
202.125	-739.35
202.344	25107.14
202.563	4012.28
202.781	619.59
203	1964.99
203.218	1544.31
203.437	1295.43
203.656	630.83
203.874	405.95
204.093	362.29
204.311	433.87
204.53	418.91
204.748	638.26
204.967	422.2
205.185	485.51
205.404	515.1
205.622	327.82
205.841	261.2
206.059	258.88
206.278	309.78
206.496	711.45
206.715	406.75
206.933	306.76
207.151	259.26
207.37	311.01
207.588	275.07
207.806	235.42
208.025	495.47
208.243	-687.8
208.461	1318.09
208.68	-11536.47
208.898	596.97
209.116	638.49
209.335	645.83
209.553	678.51
209.771	6404.17
209.989	1274.38
210.208	2768.82
210.426	-4571.33
210.644	2686.75
210.862	-2617.12
211.081	1343.11
211.299	-559.24
211.517	2075.54
211.735	-489.79
211.953	-167942.86
212.171	-3396.08
212.39	-11727.03
212.608	-29202.17
212.826	1124.87
213.044	875.57
213.262	636.68
213.48	3607.38
213.698	429.04
213.916	642.24
214.134	497.39
214.352	1024.62
214.57	645.47
214.788	743.8
215.006	635.91
215.224	555.46
215.442	402.87
215.66	383.51
215.878	298.63
216.096	338.83
216.314	372.78
216.532	617.88
216.75	473.16
216.968	448.14
217.185	1083.52
217.403	1909.4
217.621	-5287
217.839	-1606.28
218.057	-2024.62
218.275	3605.34
218.492	1033.26
218.71	1689.16
218.928	512.42
219.146	507.01
219.363	412.8
219.581	342.4
219.799	279.27
220.017	281.48
220.234	274.91
220.452	269.01
220.67	308.53
220.887	344.45
221.105	351.44
221.323	301.39
221.54	295.27
221.758	407.08
221.976	384.95
222.193	370.76
222.411	272.49
222.629	249.23
222.846	245.5
223.064	247.85
223.281	215.65
223.499	183.4
223.716	186.34
223.934	159.47
224.151	148.02
224.369	136.91
224.586	142.09
224.804	136.7
225.021	136.66
225.239	108.71
225.456	105.72
225.674	95.02
225.891	94.33
226.108	110.64
226.326	98.32
226.543	82.07
226.76	78.51
226.978	75.29
227.195	81.73
227.413	68.36
227.63	63.18
227.847	53.64
228.064	46.63
228.282	42.43
228.499	34.48
228.716	31.96
228.934	29.04
229.151	28.64
229.368	25.35
229.585	24.66
229.802	26.03
230.02	24.72
230.237	28.08
230.454	30.74
230.671	29.04
230.888	30.64
231.105	32.24
231.323	35.12
231.54	34.48
231.757	31.76
231.974	26.52
232.191	25.06
232.408	37.21
232.625	30.48
232.842	27.45
233.059	36.66
233.276	31.94
233.493	29.55
233.71	27.26
233.927	30.75
234.144	36.39
234.361	35.69
234.578	37.96
234.795	30.51
235.012	32.42
235.229	34.04
235.446	32.08
235.663	35.66
235.879	35.63
236.096	31.8
236.313	28.47
236.53	29.24
236.747	31.66
236.964	31.16
237.181	34.26
237.397	35.14
237.614	33.77
237.831	32.72
238.048	34.17
238.264	39.05
238.481	40.86
238.698	45.89
238.915	45.48
239.131	46.16
239.348	43.58
239.565	40.78
239.781	39.17
239.998	37.54
240.215	34.44
240.431	30.76
240.648	30.01
240.865	31.13
241.081	25.14
241.298	23.3
241.514	22.32
241.731	22.14
241.947	21.91
242.164	20.17
242.38	20.06
242.597	20.46
242.814	20
243.03	17.58
243.246	17.63
243.463	18.66
243.679	20.43
243.896	18.08
244.112	19.77
244.329	19.23
244.545	18.75
244.762	17.93
244.978	18.32
245.194	18.59
245.411	18.83
245.627	17.71
245.843	18.64
246.06	16.84
246.276	18.44
246.492	14.94
246.709	14.49
246.925	14.52
247.141	14.19
247.357	13.69
247.574	13.11
247.79	13.04
248.006	12.61
248.222	11.94
248.439	11.82
248.655	11.68
248.871	12.78
249.087	13.04
249.303	12.52
249.519	13.27
249.736	14.7
249.952	15.51
250.168	17.58
250.384	18.68
250.6	19.43
250.816	19.46
251.032	17.91
251.248	17.43
251.464	17.74
251.68	19.08
251.896	19.29
252.112	17.78
252.328	18.32
252.544	19.02
252.76	18.49
252.976	17.96
253.192	19.03
253.408	19.95
253.624	25.27
253.84	25.41
254.056	28.08
254.272	27.68
254.487	28.81
254.703	28.22
254.919	25.98
255.135	26.9
255.351	30.21
255.567	30.12
255.782	30.34
255.998	22.58
256.214	21.94
256.43	17.82
256.646	17.55
256.861	18.91
257.077	19.3
257.293	19.41
257.508	17.47
257.724	16.68
257.94	14.39
258.155	13.57
258.371	14.06
258.587	13.45
258.802	13.76
259.018	13.76
259.234	12.52
259.449	12.42
259.665	11.85
259.88	12.3
260.096	11.78
260.312	11.34
260.527	11.2
260.743	11.44
260.958	11.85
261.174	12.02
261.389	12.57
261.605	12.87
261.82	12.93
262.036	13.06
262.251	14.1
262.466	13.79
262.682	16.15
262.897	17.24
263.113	18
263.328	18.37
263.543	17.99
263.759	18.34
263.974	18.63
264.189	18.85
264.405	20.01
264.62	21.15
264.835	23.26
265.051	21.22
265.266	22.16
265.481	20.58
265.696	20.48
265.912	20.01
266.127	18.33
266.342	17.75
266.557	16.81
266.773	17.1
266.988	15.03
267.203	15
267.418	14.68
267.633	13.32
267.848	15.02
268.064	14.29
268.279	15.85
268.494	15.51
268.709	15.38
268.924	16.35
269.139	16.43
269.354	16.96
269.569	15.5
269.784	16.77
269.999	16.7
270.214	14.88
270.429	16.09
270.644	14.8
270.859	14.07
271.074	14.36
271.289	13.26
271.504	13.39
271.719	13.7
271.934	13.78
272.149	13.5
272.363	13.04
272.578	12.98
272.793	11.63
273.008	11.82
273.223	12.47
273.438	12
273.653	12.98
273.867	12.59
274.082	11.78
274.297	12.33
274.512	12.29
274.726	12.15
274.941	12.33
275.156	13.27
275.371	13.94
275.585	14.18
275.8	15.44
276.015	15.09
276.229	14.78
276.444	14.72
276.659	14.21
276.873	14.39
277.088	15.86
277.302	15.99
277.517	16.58
277.732	16.93
277.946	16.76
278.161	16.92
278.375	15.73
278.59	15.63
278.804	15.7
279.019	15.71
279.233	14.9
279.448	14.75
279.662	14.74
279.877	14.54
280.091	13.42
280.306	12.66
280.52	12.13
280.735	11.98
280.949	12.35
281.163	12.71
281.378	11.73
281.592	11.12
281.806	10.12
282.021	9.21
282.235	9.76
282.449	10.11
282.664	11.2
282.878	10.12
283.092	12.24
283.307	10.99
283.521	11.37
283.735	12.56
283.949	14.08
284.164	14.56
284.378	14.96
284.592	13.76
284.806	13.48
285.02	12.87
285.234	13.55
285.449	12.37
285.663	13.32
285.877	12.87
286.091	12.59
286.305	11.15
286.519	11.6
286.733	11.94
286.947	12.59
287.161	12.36
287.375	12.9
287.589	13.19
287.803	13.59
288.017	13.53
288.231	13.3
288.445	13
288.659	14.15
288.873	14.06
289.087	14.75
289.301	14.3
289.515	14.49
289.729	14.5
289.943	14
290.157	13.79
290.371	14.59
290.584	14.61
290.798	15.3
291.012	15.18
291.226	14.09
291.44	13.66
291.654	13.59
291.867	14.11
292.081	12.98
292.295	14.09
292.509	13.24
292.722	12.45
292.936	13.05
293.15	13.77
293.364	13.7
293.577	14.37
293.791	13.18
294.005	14.43
294.218	13.44
294.432	14.62
294.645	13.9
294.859	13.3
295.073	13.45
295.286	13.59
295.5	12.43
295.713	12.49
295.927	13.08
296.14	13.63
296.354	12.38
296.568	11.93
296.781	11.27
296.994	10.82
297.208	11.11
297.421	10.86
297.635	10.63
297.848	10.33
298.062	10.21
298.275	10.27
298.489	10.95
298.702	11.85
298.915	12.87
299.129	13.41
299.342	13.67
299.555	14.23
299.769	14.5
299.982	15.06
300.195	15.55
300.409	16.09
300.622	16.13
300.835	16.06
301.048	15.66
301.262	15.07
301.475	14.68
301.688	15.78
301.901	16.75
302.115	16.75
302.328	16.8
302.541	16.71
302.754	17.1
302.967	17.41
303.18	17.18
303.393	17.88
303.607	17.81
303.82	18.11
304.033	16.73
304.246	16.21
304.459	16.66
304.672	16.61
304.885	17.2
305.098	16.54
305.311	16.2
305.524	16.33
305.737	15.73
305.95	16.16
306.163	15.64
306.376	16.46
306.589	16.88
306.802	16.86
307.015	17.54
307.228	17.92
307.44	16.43
307.653	16.41
307.866	14.92
308.079	15.1
308.292	14.61
308.505	15.23
308.718	14.75
308.93	14
309.143	13.43
309.356	12.76
309.569	11.94
309.781	13.17
309.994	12.86
310.207	14.05
310.42	12.81
310.632	12.53
310.845	12.34
311.058	11.97
311.27	12.07
311.483	12.29
311.696	11.94
311.908	12.73
312.121	12.56
312.333	13.21
312.546	12.38
312.759	13.6
312.971	15.03
313.184	15.64
313.396	16.57
313.609	18.01
313.821	17.58
314.034	18.42
314.246	18.05
314.459	18.2
314.671	18.16
314.884	18.62
315.096	17.51
315.309	16.24
315.521	16.61
315.733	16.42
315.946	14.7
316.158	14.77
316.371	13.4
316.583	13.46
316.795	13.15
317.008	12.22
317.22	13.47
317.432	14.4
317.644	14.35
317.857	13.11
318.069	13.11
318.281	13.34
318.494	13.56
318.706	14.95
318.918	14.87
319.13	15.55
319.342	15.7
319.555	15.06
319.767	15.89
319.979	16.43
320.191	16.89
320.403	16.18
320.615	17.35
320.827	19.52
321.039	18.39
321.252	19.01
321.464	18.49
321.676	17.94
321.888	17.98
322.1	17.77
322.312	16.95
322.524	16.09
322.736	16.94
322.948	15.11
323.16	12.83
323.372	12.67
323.584	11.86
323.796	11.47
324.007	11.84
324.219	11.58
324.431	10.86
324.643	11.04
324.855	11.66
325.067	11.28
325.279	12.59
325.491	13.28
325.702	13.92
325.914	14.81
326.126	16.09
326.338	16.13
326.55	16.6
326.761	17.07
326.973	17.86
327.185	18.45
327.396	18.98
327.608	18.8
327.82	19.16
328.032	19.29
328.243	17.55
328.455	17.96
328.666	18.18
328.878	17.96
329.09	16.99
329.301	16.96
329.513	16.39
329.725	16.19
329.936	16.44
330.148	16.1
330.359	15.8
330.571	16.51
330.782	16.49
330.994	16.63
331.205	18.28
331.417	19.49
331.628	19.57
331.84	20.56
332.051	20.73
332.262	21.05
332.474	20.95
332.685	22.38
332.897	22.78
333.108	22.8
333.319	22.43
333.531	21.42
333.742	22.02
333.953	22.11
334.165	22.33
334.376	22.53
334.587	22.11
334.799	21.78
335.01	20.66
335.221	20.97
335.432	20.25
335.644	20.88
335.855	20.71
336.066	20.17
336.277	20.07
336.488	19.93
336.7	19.73
336.911	20.13
337.122	20.75
337.333	21.25
337.544	22.32
337.755	22.53
337.966	22.52
338.177	21.73
338.388	21.64
338.599	22.23
338.811	22.38
339.022	22.8
339.233	22.43
339.444	22.84
339.655	20.97
339.866	20.44
340.076	21.62
340.287	21.72
340.498	23
340.709	23.43
340.92	22.78
341.131	22.82
341.342	21.97
341.553	21.75
341.764	21.35
341.975	23.5
342.185	23.26
342.396	22.22
342.607	22.81
342.818	22.33
343.029	22.18
343.239	22.02
343.45	21.89
343.661	21.6
343.872	21.61
344.082	21.86
344.293	20.96
344.504	20.93
344.714	19.65
344.925	18.83
345.136	19.18
345.346	19.21
345.557	19.65
345.768	19.74
345.978	19.99
346.189	20.19
346.399	19.78
346.61	20.46
346.821	20.13
347.031	21.42
347.242	21.68
347.452	21.7
347.663	21.46
347.873	20.87
348.084	20.87
348.294	21.18
348.504	20.77
348.715	20.78
348.925	20.29
349.136	20.03
349.346	19.05
349.557	18.7
349.767	18.54
349.977	18.9
350.188	19.48
350.398	19.94
350.608	19.71
350.819	20.18
351.029	20.62
351.239	20.39
351.449	20.09
351.66	21.3
351.87	21.8
352.08	21.66
352.29	21.12
352.501	20.55
352.711	19.61
352.921	20.07
353.131	20.36
353.341	20.28
353.552	20.16
353.762	20.77
353.972	20.53
354.182	21.17
354.392	20.81
354.602	20.83
354.812	21.12
355.022	21.44
355.232	20.95
355.442	20.58
355.652	20.51
355.862	20.33
356.072	20.65
356.282	19.88
356.492	19.7
356.702	19.5
356.912	20.18
357.122	20.24
357.332	20.05
357.542	20.34
357.752	20.38
357.962	19.91
358.171	19.39
358.381	19.8
358.591	20.05
358.801	19.46
359.011	20.12
359.221	19.54
359.43	19.42
359.64	19.3
359.85	19.09
360.06	18.69
360.269	18.57
360.479	19.26
360.689	18.19
360.899	18.23
361.108	18.35
361.318	18.08
361.528	17.59
361.737	17.42
361.947	17.16
362.156	17.03
362.366	16.98
362.576	17.05
362.785	16.82
362.995	16.81
363.204	16.26
363.414	15.96
363.623	15.56
363.833	16.07
364.042	16.21
364.252	16.29
364.461	16.66
364.671	16.81
364.88	16.66
365.09	16.99
365.299	17.03
365.509	17.16
365.718	16.63
365.927	16.67
366.137	17.2
366.346	16.93
366.555	16.84
366.765	16.77
366.974	16.89
367.183	17.02
367.393	16.49
367.602	16.49
367.811	16.89
368.021	16.91
368.23	17.23
368.439	16.46
368.648	16.92
368.857	17.2
369.067	17.19
369.276	17.33
369.485	17.34
369.694	18.02
369.903	18.35
370.112	18.29
370.321	18.38
370.531	18.1
370.74	18.11
370.949	17.24
371.158	17
371.367	16.95
371.576	16.76
371.785	16.55
371.994	16.07
372.203	15.93
372.412	15.57
372.621	16.06
372.83	16.13
373.039	16.48
373.248	16.68
373.457	17.13
373.666	16.49
373.874	16.04
374.083	16.75
374.292	17.1
374.501	16.51
374.71	16.65
374.919	16.42
375.128	16.62
375.336	16.16
375.545	16.72
375.754	15.75
375.963	15.49
376.171	15.42
376.38	15.05
376.589	15.08
376.798	14.98
377.006	15.35
377.215	15.5
377.424	15.09
377.632	15.04
377.841	14.97
378.05	15.26
378.258	15.42
378.467	15.74
378.675	15.52
378.884	15.07
379.093	15.49
379.301	14.82
379.51	14.24
379.718	13.98
379.927	13.98
380.135	13.11
380.344	13
380.552	13.01
380.761	13.03
380.969	12.88
381.177	12.86
381.386	13
381.594	13.24
381.803	13.31
382.011	13.46
382.219	13.12
382.428	13.02
382.636	13.07
382.845	13.8
383.053	13.53
383.261	13.51
383.469	13.9
383.678	13.46
383.886	13.28
384.094	13.16
384.302	13.26
384.511	13.42
384.719	13.82
384.927	13.72
385.135	13.3
385.343	13.33
385.552	13.15
385.76	12.94
385.968	12.89
386.176	13.01
386.384	12.94
386.592	12.73
386.8	12.46
387.008	12.7
387.216	12.92
387.424	12.9
387.633	13.17
387.841	13.14
388.049	12.84
388.257	12.9
388.465	12.87
388.672	12.9
388.88	13.01
389.088	13.17
389.296	12.76
389.504	12.68
389.712	12.5
389.92	12
390.128	11.91
390.336	12.09
390.544	12.58
390.751	12.24
390.959	12.13
391.167	12.14
391.375	12.17
391.583	12.14
391.79	12.1
391.998	12.06
392.206	12.21
392.414	12.14
392.621	12.12
392.829	11.75
393.037	11.91
393.244	12.12
393.452	12.06
393.66	12
393.867	12.24
394.075	11.89
394.283	11.82
394.49	11.5
394.698	11.51
394.905	11.11
395.113	10.82
395.32	10.95
395.528	10.76
395.735	11.04
395.943	10.95
396.15	10.71
396.358	10.89
396.565	10.82
396.773	11.27
396.98	11.56
397.188	11.72
397.395	11.64
397.602	11.47
397.81	11.75
398.017	11.4
398.225	11.34
398.432	11.25
398.639	11.32
398.847	11.45
399.054	11.26
399.261	11.09
399.468	11.36
399.676	11.31
399.883	11.32
400.09	11.26
400.297	11.3
400.505	11.65
400.712	11.7
400.919	11.68
401.126	11.71
401.333	11.54
401.54	11.51
401.748	11.38
401.955	11.51
402.162	11.5
402.369	11.44
402.576	11.28
402.783	10.73
402.99	10.72
403.197	10.5
403.404	10.26
403.611	10.14
403.818	10.24
404.025	10.18
404.232	10.19
404.439	9.93
404.646	9.8
404.853	9.54
405.06	9.55
405.267	9.37
405.474	9.42
405.681	9.26
405.887	9.47
406.094	9.15
406.301	9.21
406.508	9.19
406.715	9.5
406.922	9.51
407.128	9.74
407.335	9.98
407.542	10.01
407.749	10.15
407.955	10.5
408.162	10.43
408.369	10.82
408.575	10.81
408.782	10.64
408.989	10.57
409.195	10.43
409.402	10.46
409.609	10.6
409.815	10.81
410.022	11.03
410.228	11.02
410.435	11.14
410.642	11.01
410.848	11.16
411.055	11.29
411.261	11.19
411.468	11.22
411.674	10.98
411.881	10.51
412.087	10.42
412.294	9.84
412.5	9.6
412.706	9.25
412.913	9.15
413.119	8.79
413.326	8.72
413.532	8.9
413.738	8.83
413.945	9.17
414.151	9.33
414.357	9.31
414.564	9.38
414.77	9.4
414.976	9.55
415.182	9.73
415.389	9.57
415.595	9.35
415.801	9.23
416.007	9.46
416.214	9.43
416.42	9.5
416.626	9.49
416.832	9.39
417.038	9.42
417.244	9.53
417.45	9.26
417.657	9.57
417.863	10.03
418.069	10.24
418.275	10.07
418.481	9.99
418.687	9.93
418.893	10.01
419.099	10.17
419.305	10.23
419.511	10.16
419.717	10.22
419.923	10
420.129	9.77
420.335	9.6
420.541	9.63
420.746	9.59
420.952	9.63
421.158	9.43
421.364	9.37
421.57	9.31
421.776	9.32
421.982	9.26
422.187	9.15
422.393	9.14
422.599	9.01
422.805	8.98
423.01	9.03
423.216	8.89
423.422	8.95
423.628	9.05
423.833	8.98
424.039	9.06
424.245	9.04
424.45	9.3
424.656	9.29
424.862	9.33
425.067	9.39
425.273	9.28
425.478	9.52
425.684	9.59
425.889	9.65
426.095	9.72
426.301	9.59
426.506	9.69
426.712	9.64
426.917	9.6
427.123	9.68
427.328	9.54
427.533	9.76
427.739	9.62
427.944	9.63
428.15	9.36
428.355	9.46
428.561	9.38
428.766	9.37
428.971	9.2
429.177	9.33
429.382	9.4
429.587	9.58
429.793	9.4
429.998	9.35
430.203	9.32
430.408	9.35
430.614	9.45
430.819	9.55
431.024	9.59
431.229	9.71
431.434	9.66
431.64	9.44
431.845	9.24
432.05	9.38
432.255	9.43
432.46	9.1
432.665	9.03
432.87	8.86
433.076	8.83
433.281	8.91
433.486	8.89
433.691	8.74
433.896	8.68
434.101	8.76
434.306	8.76
434.511	8.73
434.716	8.93
434.921	9.03
435.126	8.9
435.331	8.87
435.535	8.72
435.74	8.75
435.945	8.97
436.15	9.05
436.355	9.24
436.56	9.08
436.765	9.11
436.97	9.15
437.174	9.23
437.379	9.24
437.584	9.28
437.789	9.32
437.993	9.26
438.198	9.23
438.403	9.44
438.608	9.26
438.812	9.21
439.017	9.15
439.222	9.08
439.426	9.12
439.631	9.29
439.836	9.15
440.04	9.26
440.245	9.31
440.45	9.31
440.654	9.2
440.859	9.18
441.063	9.19
441.268	9.16
441.472	9.3
441.677	9.15
441.881	9.08
442.086	9.2
442.29	9.07
442.495	8.9
442.699	8.88
442.904	8.74
443.108	8.75
443.312	8.71
443.517	8.61
443.721	8.46
443.925	8.45
444.13	8.51
444.334	8.35
444.538	8.3
444.743	8.36
444.947	8.23
445.151	8.33
445.356	8.27
445.56	8.38
445.764	8.38
445.968	8.43
446.173	8.45
446.377	8.33
446.581	8.41
446.785	8.41
446.989	8.41
447.193	8.5
447.398	8.47
447.602	8.5
447.806	8.47
448.01	8.73
448.214	8.68
448.418	8.71
448.622	8.85
448.826	8.8
449.03	8.84
449.234	8.84
449.438	8.73
449.642	8.79
449.846	8.79
450.05	8.92
450.254	8.76
450.458	8.97
450.662	8.96
450.866	8.76
451.069	8.73
451.273	8.8
451.477	8.89
451.681	8.84
451.885	8.66
452.089	8.64
452.292	8.4
452.496	8.26
452.7	8.21
452.904	8.24
453.107	8.35
453.311	8.56
453.515	8.5
453.719	8.26
453.922	8.43
454.126	8.43
454.33	8.49
454.533	8.48
454.737	8.59
454.94	8.55
455.144	8.59
455.348	8.63
455.551	8.5
455.755	8.28
455.958	8.52
456.162	8.42
456.365	8.35
456.569	8.21
456.772	8.16
456.976	8.13
457.179	8.09
457.383	8
457.586	8.13
457.79	8.15
457.993	8.3
458.196	8.03
458.4	8.11
458.603	8.12
458.807	8.22
459.01	8.43
459.213	8.36
459.417	8.26
459.62	8.27
459.823	8.12
460.026	8.15
460.23	8.28
460.433	8.48
460.636	8.53
460.839	8.68
461.042	8.7
461.246	8.67
461.449	8.72
461.652	8.76
461.855	8.66
462.058	8.69
462.261	8.69
462.464	8.53
462.668	8.54
462.871	8.57
463.074	8.54
463.277	8.45
463.48	8.54
463.683	8.5
463.886	8.61
464.089	8.65
464.292	8.66
464.495	8.86
464.698	8.93
464.901	8.89
465.104	8.78
465.306	8.78
465.509	8.88
465.712	8.79
465.915	8.78
466.118	8.7
466.321	8.78
466.524	8.95
466.726	8.76
466.929	8.9
467.132	8.9
467.335	8.92
467.538	8.86
467.74	8.75
467.943	8.85
468.146	9
468.348	9.09
468.551	9.11
468.754	8.96
468.956	8.85
469.159	8.7
469.362	8.72
469.564	8.69
469.767	8.73
469.969	8.9
470.172	8.63
470.375	8.61
470.577	8.59
470.78	8.48
470.982	8.51
471.185	8.66
471.387	8.78
471.59	8.86
471.792	8.92
471.995	8.87
472.197	8.73
472.399	8.77
472.602	8.57
472.804	8.58
473.007	8.78
473.209	8.81
473.411	8.76
473.614	8.72
473.816	8.6
474.018	8.61
474.22	8.65
474.423	8.75
474.625	8.77
474.827	8.78
475.03	8.75
475.232	8.65
475.434	8.66
475.636	8.76
475.838	8.79
476.04	8.71
476.243	8.59
476.445	8.71
476.647	8.63
476.849	8.58
477.051	8.75
477.253	8.83
477.455	8.94
477.657	8.9
477.859	8.72
478.061	8.57
478.263	8.6
478.465	8.68
478.667	8.56
478.869	8.53
479.071	8.59
479.273	8.51
479.475	8.3
479.677	8.24
479.879	8.17
480.081	8.31
480.283	8.32
480.485	8.31
480.686	8.24
480.888	8.24
481.09	8.26
481.292	8.3
481.494	8.35
481.695	8.45
481.897	8.29
482.099	8.24
482.301	8.21
482.502	8.2
482.704	8.15
482.906	8.11
483.107	8.09
483.309	8.07
483.511	8.04
483.712	7.98
483.914	7.94
484.115	7.97
484.317	8
484.519	7.97
484.72	8
484.922	8.01
485.123	8.03
485.325	8.02
485.526	8.02
485.728	8.05
485.929	8.04
486.131	8.1
486.332	8.07
486.534	8.05
486.735	8.03
486.936	8.01
487.138	7.96
487.339	7.94
487.541	7.99
487.742	7.98
487.943	7.97
488.144	8
488.346	7.9
488.547	7.94
488.748	7.94
488.95	7.89
489.151	7.89
489.352	7.94
489.553	7.94
489.755	7.9
489.956	7.89
490.157	7.88
490.358	7.87
490.559	8
490.76	7.97
490.961	7.97
491.163	8.09
491.364	8.19
491.565	8.14
491.766	8.18
491.967	8.28
492.168	8.27
492.369	8.32
492.57	8.28
492.771	8.27
492.972	8.26
493.173	8.34
493.374	8.28
493.575	8.28
493.776	8.39
493.976	8.45
494.177	8.38
494.378	8.58
494.579	8.51
494.78	8.78
494.981	8.84
495.182	8.89
495.382	8.92
495.583	8.88
495.784	8.75
495.985	8.75
496.185	8.73
496.386	8.64
496.587	8.65
496.788	8.63
496.988	8.62
497.189	8.63
497.39	8.72
497.59	8.71
497.791	8.76
497.992	8.85
498.192	8.86
498.393	8.86
498.593	8.92
498.794	8.85
498.994	8.92
499.195	8.75
499.395	8.81
499.596	8.85
499.796	8.91
499.997	9
500.197	9
500.398	8.97
500.598	9.02
500.799	9.04
500.999	9.03
501.199	9.07
501.4	9.28
501.6	9.31
501.801	9.32
502.001	9.33
502.201	9.53
502.402	9.47
502.602	9.52
502.802	9.57
503.002	9.65
503.203	9.77
503.403	9.88
503.603	9.82
503.803	9.65
504.003	9.62
504.204	9.69
504.404	9.62
504.604	9.65
504.804	9.69
505.004	9.65
505.204	9.76
505.404	9.79
505.604	9.81
505.804	9.78
506.005	9.91
506.205	9.93
506.405	9.93
506.605	9.93
506.805	10.09
507.005	10.12
507.204	10.28
507.404	10.19
507.604	10.2
507.804	10.21
508.004	10.42
508.204	10.47
508.404	10.56
508.604	10.41
508.804	10.5
509.003	10.57
509.203	10.63
509.403	10.45
509.603	10.57
509.803	10.72
510.002	10.77
510.202	10.7
510.402	10.8
510.602	10.86
510.801	11.05
511.001	11.02
511.201	11.07
511.4	11.03
511.6	11.19
511.8	11.22
511.999	11.31
512.199	11.36
512.398	11.39
512.598	11.43
512.797	11.45
512.997	11.52
513.197	11.71
513.396	11.7
513.596	11.88
513.795	11.97
513.994	12.08
514.194	12
514.393	12.06
514.593	12.24
514.792	12.27
514.992	12.32
515.191	12.2
515.39	12.09
515.59	12.08
515.789	12.21
515.988	12.33
516.188	12.23
516.387	12.27
516.586	12.18
516.786	12.2
516.985	12.19
517.184	12.34
517.383	12.59
517.582	12.77
517.782	12.9
517.981	12.73
518.18	12.61
518.379	12.74
518.578	12.77
518.777	12.92
518.976	12.87
519.176	13
519.375	12.99
519.574	12.96
519.773	12.89
519.972	12.76
520.171	12.86
520.37	13.04
520.569	13.09
520.768	13.11
520.967	13.21
521.166	13.29
521.365	13.3
521.564	13.4
521.762	13.53
521.961	13.66
522.16	13.91
522.359	13.98
522.558	14.01
522.757	14.07
522.956	14.21
523.154	14.13
523.353	14.21
523.552	14.29
523.751	14.37
523.949	14.43
524.148	14.53
524.347	14.73
524.546	14.73
524.744	14.73
524.943	14.83
525.142	14.87
525.34	15.04
525.539	15.04
525.737	15.13
525.936	15.12
526.135	15.08
526.333	15.01
526.532	14.94
526.73	15.04
526.929	15.13
527.127	15.1
527.326	15.17
527.524	15.19
527.723	15.23
527.921	15.28
528.12	15.33
528.318	15.37
528.516	15.45
528.715	15.43
528.913	15.45
529.112	15.45
529.31	15.47
529.508	15.46
529.707	15.49
529.905	15.5
530.103	15.51
530.301	15.53
530.5	15.57
530.698	15.59
530.896	15.71
531.094	15.86
531.293	16.02
531.491	16.15
531.689	16.23
531.887	16.34
532.085	16.59
532.283	16.56
532.481	16.59
532.68	16.58
532.878	16.62
533.076	16.68
533.274	16.59
533.472	16.64
533.67	16.63
533.868	16.67
534.066	16.62
534.264	16.55
534.462	16.64
534.66	16.67
534.858	16.83
535.056	16.88
535.253	16.9
535.451	17.1
535.649	17.07
535.847	17.27
536.045	17.31
536.243	17.33
536.441	17.49
536.638	17.52
536.836	17.6
537.034	17.56
537.232	17.67
537.43	17.71
537.627	17.7
537.825	17.72
538.023	17.59
538.22	17.7
538.418	17.87
538.616	17.93
538.813	18.1
539.011	18.23
539.209	18.29
539.406	18.26
539.604	18.48
539.801	18.51
539.999	18.61
540.196	18.76
540.394	18.75
540.591	18.75
540.789	18.69
540.986	18.65
541.184	18.66
541.381	18.75
541.579	18.82
541.776	18.76
541.974	18.79
542.171	18.81
542.368	18.78
542.566	18.83
542.763	18.93
542.96	18.97
543.158	19.05
543.355	19.13
543.552	19.2
543.75	19.31
543.947	19.31
544.144	19.34
544.341	19.37
544.539	19.55
544.736	19.64
544.933	19.55
545.13	19.53
545.327	19.6
545.524	19.56
545.722	19.65
545.919	19.66
546.116	19.92
546.313	19.99
546.51	20.09
546.707	20.11
546.904	20.21
547.101	20.39
547.298	20.58
547.495	20.63
547.692	20.63
547.889	20.57
548.086	20.71
548.283	20.69
548.48	20.86
548.677	20.85
548.874	20.84
549.07	20.93
549.267	20.98
549.464	20.98
549.661	21.07
549.858	21.43
550.055	21.65
550.251	21.54
550.448	21.47
550.645	21.53
550.842	21.6
551.038	21.77
551.235	21.68
551.432	21.7
551.628	21.79
551.825	21.96
552.022	21.87
552.218	21.97
552.415	22.08
552.612	22.21
552.808	22.09
553.005	22.23
553.201	22.25
553.398	22.33
553.594	22.39
553.791	22.52
553.987	22.51
554.184	22.63
554.38	22.51
554.577	22.46
554.773	22.59
554.97	22.83
555.166	23
555.362	23.1
555.559	23.2
555.755	23.42
555.952	23.54
556.148	23.64
556.344	23.68
556.541	23.73
556.737	23.9
556.933	24.09
557.129	23.9
557.326	23.86
557.522	23.89
557.718	24.15
557.914	24.06
558.11	24.09
558.307	24
558.503	24.08
558.699	24.15
558.895	24.38
559.091	24.39
559.287	24.49
559.483	24.6
559.679	24.72
559.876	24.6
560.072	24.69
560.268	24.71
560.464	24.82
560.66	24.87
560.856	25.08
561.052	25.08
561.247	25.14
561.443	25.45
561.639	25.53
561.835	25.73
562.031	25.78
562.227	25.76
562.423	25.78
562.619	25.88
562.815	26.1
563.01	26.12
563.206	26.14
563.402	26.08
563.598	26.19
563.793	26.26
563.989	26.07
564.185	26.05
564.381	26.27
564.576	26.35
564.772	26.35
564.968	26.28
565.163	26.29
565.359	26.07
565.555	26.16
565.75	26.13
565.946	26.12
566.141	26.25
566.337	26.41
566.532	26.57
566.728	26.7
566.923	26.84
567.119	26.77
567.314	26.75
567.51	27.13
567.705	27.17
567.901	27.16
568.096	27.2
568.292	27.28
568.487	27.34
568.682	27.18
568.878	27.11
569.073	27.2
569.268	27.44
569.464	27.6
569.659	27.55
569.854	27.63
570.05	27.82
570.245	27.99
570.44	28.24
570.635	28.25
570.831	28.22
571.026	28.47
571.221	28.39
571.416	28.32
571.611	28.37
571.806	28.51
572.002	28.58
572.197	28.59
572.392	28.48
572.587	28.41
572.782	28.44
572.977	28.67
573.172	28.55
573.367	28.51
573.562	28.65
573.757	28.62
573.952	28.59
574.147	28.71
574.342	28.99
574.537	29.19
574.732	29.11
574.927	29.16
575.121	29.13
575.316	29.17
575.511	29.32
575.706	29.38
575.901	29.55
576.096	29.78
576.29	29.77
576.485	29.71
576.68	29.83
576.875	29.88
577.069	29.94
577.264	29.94
577.459	30.32
577.654	30.46
577.848	30.42
578.043	30.46
578.238	30.28
578.432	30.25
578.627	30.08
578.821	30.07
579.016	30.14
579.21	30.39
579.405	30.38
579.6	30.25
579.794	30.23
579.989	30.24
580.183	30.29
580.378	30.41
580.572	30.6
580.766	30.77
580.961	30.81
581.155	30.96
581.35	30.93
581.544	31.06
581.738	31.02
581.933	31.22
582.127	31.6
582.321	31.62
582.516	31.64
582.71	31.72
582.904	31.78
583.099	31.71
583.293	31.66
583.487	31.61
583.681	31.71
583.875	31.72
584.07	31.91
584.264	31.63
584.458	31.62
584.652	31.9
584.846	31.74
585.04	31.61
585.234	31.65
585.428	31.7
585.623	31.68
585.817	31.83
586.011	32.14
586.205	32.09
586.399	32.38
586.593	32.52
586.787	32.33
586.981	32.58
587.174	32.77
587.368	32.7
587.562	32.81
587.756	33.01
587.95	33.06
588.144	32.73
588.338	32.85
588.532	32.95
588.725	33.02
588.919	33.08
589.113	32.94
589.307	32.95
589.501	33.12
589.694	33.18
589.888	33.19
590.082	33.23
590.275	33.37
590.469	33.22
590.663	32.84
590.856	32.94
591.05	32.94
591.244	32.91
591.437	33.19
591.631	33.14
591.824	33.04
592.018	33
592.212	32.97
592.405	32.8
592.599	32.92
592.792	33.07
592.986	33.05
593.179	33.34
593.372	33.44
593.566	33.49
593.759	33.62
593.953	33.79
594.146	33.67
594.339	33.81
594.533	34.23
594.726	34.33
594.92	34.41
595.113	34.44
595.306	34.26
595.499	34.3
595.693	34.15
595.886	34.24
596.079	34.27
596.272	34.35
596.466	34.32
596.659	34.34
596.852	34.29
597.045	34.37
597.238	34.33
597.431	34.34
597.624	34.33
597.818	34.33
598.011	34.33
598.204	34.27
598.397	34.38
598.59	34.46
598.783	34.37
598.976	34.3
599.169	34.36
599.362	34.36
599.555	34.72
599.748	35.03
599.941	35.07
600.134	35.12
600.326	35.27
600.519	35.48
600.712	35.53
600.905	35.68
601.098	35.91
601.291	36.08
601.483	36.15
601.676	35.87
601.869	35.84
602.062	35.86
602.255	35.83
602.447	35.81
602.64	35.78
602.833	35.85
603.025	35.74
603.218	35.56
603.411	35.34
603.603	35.43
603.796	35.38
603.989	35.34
604.181	35.29
604.374	35.38
604.566	35.37
604.759	35.23
604.951	35.12
605.144	35.18
605.336	35.47
605.529	35.52
605.721	35.47
605.914	35.69
606.106	35.82
606.299	36.13
606.491	36.22
606.683	36.49
606.876	36.57
607.068	36.61
607.26	36.66
607.453	36.61
607.645	36.7
607.837	36.67
608.03	36.58
608.222	36.31
608.414	36.36
608.606	36.35
608.799	36.35
608.991	36.33
609.183	36.37
609.375	36.51
609.567	36.52
609.759	36.78
609.952	36.87
610.144	37
610.336	37.31
610.528	37.05
610.72	37.17
610.912	37.37
611.104	37.88
611.296	38.12
611.488	38.22
611.68	38.45
611.872	38.15
612.064	38.51
612.256	38.63
612.448	38.68
612.64	38.76
612.832	38.74
613.023	38.57
613.215	38.53
613.407	38.32
613.599	38.36
613.791	37.98
613.983	38.24
614.174	38.26
614.366	38.28
614.558	38.29
614.75	38.33
614.941	38.47
615.133	38.68
615.325	38.3
615.516	38.59
615.708	38.5
615.9	38.54
616.091	38.5
616.283	38.34
616.475	38.29
616.666	38.11
616.858	38.54
617.049	38.37
617.241	38.16
617.432	38
617.624	38.06
617.815	38.05
618.007	38.15
618.198	38.23
618.39	38.12
618.581	38.06
618.773	38.22
618.964	38.09
619.155	38.13
619.347	38.26
619.538	38.79
619.729	38.79
619.921	38.82
620.112	38.84
620.303	38.84
620.494	38.95
620.686	38.99
620.877	39.09
621.068	39.05
621.259	39.17
621.451	38.98
621.642	38.79
621.833	38.8
622.024	38.85
622.215	39.02
622.406	39.3
622.597	39.41
622.788	39.35
622.98	39.23
623.171	39.35
623.362	39.28
623.553	39.62
623.744	39.36
623.935	39.36
624.126	39.56
624.317	39.45
624.508	39.13
624.698	38.91
624.889	39.07
625.08	39.3
625.271	39.48
625.462	39.44
625.653	39.25
625.844	39.64
626.034	39.45
626.225	39.41
626.416	39.33
626.607	39.43
626.798	39.75
626.988	39.72
627.179	39.55
627.37	39.12
627.56	39.41
627.751	39.58
627.942	39.35
628.132	39.42
628.323	39.43
628.514	39.55
628.704	39.62
628.895	39.3
629.085	39.23
629.276	39.36
629.466	39.6
629.657	39.28
629.847	39.09
630.038	39.34
630.228	39.6
630.419	39.63
630.609	39.74
630.8	39.63
630.99	39.86
631.181	39.91
631.371	39.78
631.561	39.96
631.752	40.48
631.942	40.51
632.132	40.61
632.323	40.4
632.513	40.35
632.703	40.32
632.893	40.47
633.084	40.5
633.274	40.37
633.464	40.25
633.654	40.23
633.844	40.01
634.034	40.14
634.225	39.88
634.415	40.03
634.605	40.1
634.795	40.15
634.985	40.24
635.175	40.13
635.365	40.29
635.555	40.71
635.745	40.63
635.935	40.66
636.125	40.56
636.315	40.74
636.505	40.96
636.695	40.83
636.885	40.69
637.075	40.65
637.265	40.93
637.455	40.78
637.644	40.66
637.834	40.9
638.024	40.76
638.214	40.79
638.404	40.92
638.593	40.9
638.783	41.07
638.973	41.49
639.163	41.35
639.352	41.3
639.542	41.84
639.732	42.09
639.921	41.92
640.111	42.06
640.301	42.36
640.49	42.28
640.68	42.44
640.87	42.4
641.059	42.45
641.249	42.35
641.438	42.34
641.628	42.2
641.817	41.95
642.007	41.87
642.196	41.87
642.386	42.02
642.575	42.37
642.764	41.91
642.954	41.84
643.143	42.01
643.333	42.44
643.522	42.42
643.711	42.61
643.901	42.76
644.09	42.98
644.279	43.25
644.469	42.92
644.658	42.85
644.847	42.78
645.036	42.86
645.226	42.68
645.415	42.9
645.604	42.89
645.793	42.64
645.982	42.67
646.171	42.65
646.361	42.99
646.55	43.18
646.739	43.27
646.928	43.48
647.117	43.64
647.306	43.41
647.495	42.99
647.684	43.09
647.873	43.57
648.062	43.5
648.251	43.57
648.44	43.07
648.629	42.96
648.818	42.91
649.007	42.92
649.196	43.29
649.384	43.52
649.573	43.43
649.762	43.45
649.951	43.04
650.14	43.32
650.328	43.42
650.517	43.35
650.706	43.58
650.895	43.57
651.083	43.82
651.272	43.35
651.461	43.43
651.65	43.9
651.838	43.77
652.027	43.86
652.216	43.72
652.404	43.83
652.593	44.08
652.781	44.02
652.97	44.15
653.158	43.96
653.347	44.4
653.535	44.41
653.724	44.29
653.912	44.62
654.101	44.53
654.289	44.42
654.478	44.43
654.666	44.37
654.855	44.49
655.043	44.34
655.231	44.23
655.42	44.08
655.608	44.17
655.796	44.11
655.985	44.05
656.173	44.49
656.361	44.29
656.55	43.95
656.738	43.88
656.926	43.93
657.114	44.36
657.302	44.71
657.491	44.57
657.679	44.27
657.867	44.35
658.055	44.39
658.243	44.11
658.431	44.41
658.619	44.7
658.807	44.87
658.996	44.92
659.184	44.51
659.372	44.58
659.56	44.53
659.748	44.25
659.936	44.14
660.124	44.19
660.311	44.27
660.499	44.3
660.687	44.11
660.875	44.31
661.063	44.12
661.251	43.97
661.439	43.64
661.627	43.9
661.814	44.44
662.002	44.54
662.19	44.36
662.378	44.27
662.565	44.77
662.753	44.99
662.941	44.7
663.129	44.93
663.316	45.67
663.504	45.86
663.692	46
663.879	45.94
664.067	46.26
664.254	46.35
664.442	46.4
664.63	45.94
664.817	46.05
665.005	46.04
665.192	46.2
665.38	46
665.567	45.92
665.755	45.75
665.942	45.92
666.13	46.02
666.317	46.09
666.504	46.02
666.692	46.27
666.879	46.17
667.067	46.13
667.254	45.56
667.441	45.7
667.629	45.75
667.816	45.85
668.003	45.43
668.19	45.19
668.378	45.52
668.565	45.58
668.752	45.26
668.939	45.35
669.127	46.03
669.314	46.17
669.501	45.76
669.688	46.21
669.875	46.26
670.062	46.91
670.249	46.81
670.436	46.54
670.623	46.9
670.81	47.19
670.997	47.25
671.184	46.44
671.371	46.98
671.558	47.41
671.745	47.11
671.932	46.91
672.119	46.68
672.306	47.32
672.493	47.65
672.68	47.71
672.867	47.82
673.054	47.43
673.24	47.54
673.427	47.6
673.614	47.5
673.801	47.83
673.988	48.04
674.174	48.07
674.361	47.47
674.548	47.37
674.734	47.3
674.921	47.01
675.108	48.17
675.294	47.96
675.481	47.82
675.668	47.88
675.854	47.35
676.041	47.79
676.227	47.82
676.414	47.88
676.601	48.4
676.787	48.45
676.974	48.76
677.16	48.06
677.347	48.28
677.533	48.08
677.719	47.74
677.906	47.78
678.092	47.6
678.279	47.61
678.465	47.69
678.651	47.05
678.838	46.8
679.024	46.51
679.21	46.32
679.397	46.79
679.583	46.71
679.769	46.99
679.955	46.76
680.142	46.56
680.328	46.85
680.514	46.74
680.7	46.16
680.886	46.58
681.073	46.94
681.259	46.78
681.445	46.5
681.631	46.5
681.817	46.32
682.003	46.58
682.189	46.63
682.375	46.27
682.561	46.43
682.747	47.44
682.933	47.23
683.119	46.88
683.305	47.29
683.491	47.76
683.677	48.03
683.863	48.41
684.049	48.68
684.235	48.81
684.42	48.73
684.606	48.82
684.792	48.84
684.978	48.85
685.164	49.15
685.349	49.29
685.535	49.13
685.721	49.13
685.907	48.77
686.092	48.95
686.278	48.86
686.464	49.14
686.649	49.29
686.835	49
687.021	48.84
687.206	49.06
687.392	48.76
687.577	48.81
687.763	48.86
687.948	49.02
688.134	49.02
688.319	49.18
688.505	49.12
688.69	48.89
688.876	48.99
689.061	49.21
689.247	49.12
689.432	49.26
689.618	48.68
689.803	48.69
689.988	49.13
690.174	49.06
690.359	49.1
690.544	48.68
690.73	49.15
690.915	49.38
691.1	49.78
691.285	49.76
691.471	50.24
691.656	50.75
691.841	50.57
692.026	50.6
692.211	50.98
692.396	50.94
692.582	51.53
692.767	51.57
692.952	51.11
693.137	50.96
693.322	50.98
693.507	50.8
693.692	50.92
693.877	51.18
694.062	50.92
694.247	50.53
694.432	51.09
694.617	50.83
694.802	50.88
694.987	51.54
695.172	51.24
695.357	51.29
695.541	51.03
695.726	51.03
695.911	51.42
696.096	51.44
696.281	52.11
696.466	51.33
696.65	51.32
696.835	51.29
697.02	50.67
697.204	50.65
697.389	50.34
697.574	49.78
697.759	49.66
697.943	49.25
698.128	48.98
698.312	48.3
698.497	47.89
698.682	47.81
698.866	47.57
699.051	47.58
699.235	47.6
699.42	47.63
699.604	48.12
699.789	47.77
699.973	47.93
700.158	48.33
700.342	48.45
700.527	49.28
700.711	49.58
700.895	49.61
701.08	50.04
701.264	50.43
701.448	50.78
701.633	51.07
701.817	51.39
702.001	51.91
702.186	51.27
702.37	51.78
702.554	51.74
702.738	52.12
702.923	52.58
703.107	52.93
703.291	52.94
703.475	53.18
703.659	52.87
703.843	53.17
704.027	53.23
704.212	53.82
704.396	53.49
704.58	53.48
704.764	53.62
704.948	53.31
705.132	53.22
705.316	53.12
705.5	53.49
705.684	54.13
705.868	54.02
706.052	53.12
706.235	53.32
706.419	53.6
706.603	53.65
706.787	52.73
706.971	53.29
707.155	53.04
707.339	53.23
707.522	52.94
707.706	52.77
707.89	52.78
708.074	53.32
708.257	53.34
708.441	53.92
708.625	53.67
708.808	54.62
708.992	54.2
709.176	54.27
709.359	53.97
709.543	54.29
709.727	54.01
709.91	53.86
710.094	53.87
710.277	54.02
710.461	53.37
710.644	53.96
710.828	53.51
711.011	53.85
711.195	53.96
711.378	53.96
711.562	53.3
711.745	53.59
711.928	53.72
712.112	53.32
712.295	53.07
712.478	52.89
712.662	52.92
712.845	53.37
713.028	53.05
713.212	53.08
713.395	52.77
713.578	52.92
713.761	52.7
713.945	52.46
714.128	52.42
714.311	52.78
714.494	52.76
714.677	52.91
714.86	53.01
715.043	53.13
715.227	53.03
715.41	53.35
715.593	53.64
715.776	53.44
715.959	54.14
716.142	54.74
716.325	54.28
716.508	54.29
716.691	53.91
716.874	53.81
717.057	53.87
717.239	53.77
717.422	53.88
717.605	53.48
717.788	53.54
717.971	53.81
718.154	53.27
718.337	53.37
718.519	53.92
718.702	54.29
718.885	53.88
719.068	54.12
719.25	54.72
719.433	55.01
719.616	55.37
719.798	55.02
719.981	55.4
720.164	54.79
720.346	55.34
720.529	56.46
720.712	56.48
720.894	57.33
721.077	56.61
721.259	56.43
721.442	56.7
721.624	57.15
721.807	58.49
721.989	57.91
722.172	58.79
722.354	58.47
722.537	57.14
722.719	56.13
722.901	55.77
723.084	56.34
723.266	56.41
723.448	55.97
723.631	55.13
723.813	54.38
723.995	54.33
724.178	53.91
724.36	53.87
724.542	53.65
724.724	55.06
724.907	55.48
725.089	54.99
725.271	55.31
725.453	55.49
725.635	56.3
725.817	57.16
725.999	57.22
726.181	58.37
726.364	58.32
726.546	58.4
726.728	58.05
726.91	57.77
727.092	58.13
727.274	58.05
727.456	58.06
727.638	57.05
727.819	56.43
728.001	56.78
728.183	56.61
728.365	56.85
728.547	57.28
728.729	56.91
728.911	56.54
729.093	57.11
729.274	55.9
729.456	55.37
729.638	56.04
729.82	56.37
730.001	55.85
730.183	55.64
730.365	56.1
730.546	55.17
730.728	54.17
730.91	53.9
731.091	53.63
731.273	54.34
731.455	54.3
731.636	54.28
731.818	54.53
731.999	54.49
732.181	54.35
732.362	54.31
732.544	55.01
732.725	56.41
732.907	57.77
733.088	58.26
733.27	58.92
733.451	59.17
733.633	59.77
733.814	58.9
733.995	59.56
734.177	59.73
734.358	59.24
734.539	59.62
734.721	59.29
734.902	58
735.083	57.25
735.264	57.25
735.446	57.2
735.627	57.02
735.808	56.74
735.989	56.41
736.17	57.17
736.351	57.33
736.533	57.21
736.714	57
736.895	57.69
737.076	58.21
737.257	58.14
737.438	58.25
737.619	58.52
737.8	59.83
737.981	60.18
738.162	60.2
738.343	60.26
738.524	59.4
738.705	59.23
738.886	58.78
739.067	58.2
739.247	58.16
739.428	59.57
739.609	58.13
739.79	57.91
739.971	56.29
740.151	55.59
740.332	55.75
740.513	56.48
740.694	57.25
740.874	56.92
741.055	57.24
741.236	56.43
741.417	55.91
741.597	57.12
741.778	57.31
741.958	58.14
742.139	58.76
742.32	58.53
742.5	58.93
742.681	59.28
742.861	59.5
743.042	60.41
743.222	60.95
743.403	60.9
743.583	60.29
743.764	60.38
743.944	61.48
744.124	61.24
744.305	60.94
744.485	60.2
744.666	59.49
744.846	60.26
745.026	60.13
745.207	60.1
745.387	60.43
745.567	60.4
745.747	60.93
745.928	60.15
746.108	60.91
746.288	61.11
746.468	61.23
746.648	61.95
746.829	62.07
747.009	61.99
747.189	62.62
747.369	61.65
747.549	60.96
747.729	60.82
747.909	60.48
748.089	59.71
748.269	59.89
748.449	60.45
748.629	59.27
748.809	59.21
748.989	58.83
749.169	58.78
749.349	58.49
749.529	60.31
749.709	58.87
749.889	59.29
750.068	59.35
750.248	60.12
750.428	60.54
750.608	61.72
750.788	60.99
750.967	60.74
751.147	60.99
751.327	61.75
751.507	59.7
751.686	60.71
751.866	62.26
752.046	62.06
752.225	61.69
752.405	61.24
752.585	60.91
752.764	61.16
752.944	61.75
753.123	60.85
753.303	60.81
753.482	62.94
753.662	62.66
753.841	61.13
754.021	62.37
754.2	62.44
754.38	63.2
754.559	62.61
754.739	61.56
754.918	61.43
755.097	61.66
755.277	61.43
755.456	61.11
755.635	61.1
755.815	61.61
755.994	60.65
756.173	59.93
756.352	58.84
756.532	59.34
756.711	60.81
756.89	60.04
757.069	60.48
757.248	60.38
757.427	59.22
757.607	59.42
757.786	58.77
757.965	58.2
758.144	59.76
758.323	60.68
758.502	60.62
758.681	60.47
758.86	60.33
759.039	60.3
759.218	60.41
759.397	61.64
759.576	61.53
759.755	61.65
759.934	61.61
760.113	60.46
760.291	59.92
760.47	60.53
760.649	60.92
760.828	60.99
761.007	60.93
761.186	60.65
761.364	59.85
761.543	59.93
761.722	59.13
761.901	58.46
762.079	58.16
762.258	58.07
762.437	57.39
762.615	56.62
762.794	56.05
762.972	55.38
763.151	55.07
763.33	54.91
763.508	54.72
763.687	55.2
763.865	55.81
764.044	55.59
764.222	55.32
764.401	55.21
764.579	54.87
764.758	55.76
764.936	56.3
765.114	56.14
765.293	55.91
765.471	56.05
765.65	57.17
765.828	57.84
766.006	58.73
766.184	59.55
766.363	59.72
766.541	60.15
766.719	60.62
766.898	60.92
767.076	62.19
767.254	62.6
767.432	62.85
767.61	62.01
767.788	61.82
767.967	61.73
768.145	62.37
768.323	62.52
768.501	63.28
768.679	62.73
768.857	62.41
769.035	62.96
769.213	65.06
769.391	65.74
769.569	66.5
769.747	67.75
769.925	68.49
770.103	67.12
770.281	68.22
770.459	69.78
770.636	71.67
770.814	72.35
770.992	71.93
771.17	70.63
771.348	70.37
771.525	70.6
771.703	68.44
771.881	67.72
772.059	68.28
772.236	67.78
772.414	67.08
772.592	65.87
772.769	65.29
772.947	65.84
773.125	65.66
773.302	66.21
773.48	66.52
773.657	68.92
773.835	67.63
774.013	69.43
774.19	70.89
774.368	68.8
774.545	69.65
774.723	70.79
774.9	70.16
775.077	70.35
775.255	69.73
775.432	68.5
775.61	68.34
775.787	70.32
775.964	68.17
776.142	67.8
776.319	69.01
776.496	69.11
776.674	67.87
776.851	68.65
777.028	68.45
777.205	68.32
777.382	68.58
777.56	66.2
777.737	67.21
777.914	67.35
778.091	66.91
778.268	68.69
778.445	67.28
778.622	68.32
778.8	67.59
778.977	68.25
779.154	73.69
779.331	75.12
779.508	78.12
779.685	77.66
779.862	77.02
780.038	77.66
780.215	77.05
780.392	79.26
780.569	78.64
780.746	79.18
780.923	78.53
781.1	74.88
781.277	72.91
781.453	71.17
781.63	70.55
781.807	71.96
781.984	71.52
782.16	70.67
782.337	69.39
782.514	69.47
782.691	70.68
782.867	70.88
783.044	68.32
783.221	68.3
783.397	68.75
783.574	68.76
783.75	69.73
783.927	70.99
784.103	71.49
784.28	73.68
784.456	75.05
784.633	74.39
784.809	74.62
784.986	75.56
785.162	77.3
785.339	76.47
785.515	76.51
785.692	74.24
785.868	73.49
786.044	74.37
786.221	72.3
786.397	70.51
786.573	70.4
786.749	71.92
786.926	72.8
787.102	73.23
787.278	73.51
787.454	74.25
787.631	75.68
787.807	75.18
787.983	73.3
788.159	72.27
788.335	72.07
788.511	72.45
788.687	72.19
788.863	72.16
789.039	70.97
789.216	71
789.392	71.13
789.568	71.44
789.744	71.99
789.919	72.2
790.095	72.43
790.271	74.78
790.447	72.47
790.623	71.4
790.799	70.91
790.975	70.63
791.151	70.95
791.327	70.96
791.502	69.95
791.678	69.29
791.854	70.15
792.03	69.97
792.205	69.53
792.381	72.15
792.557	74.47
792.733	75.47
792.908	75.07
793.084	74.68
793.259	73.21
793.435	73.61
793.611	73.48
793.786	74.53
793.962	74.44
794.137	74.98
794.313	73.15
794.488	70.3
794.664	70.61
794.839	70.74
795.015	73.61
795.19	73.08
795.366	73.96
795.541	73.68
795.716	72.68
795.892	74.98
796.067	73.79
796.242	74.44
796.418	73.88
796.593	72.97
796.768	72.52
796.944	70.79
797.119	71.24
797.294	70.79
797.469	73.12
797.644	72.07
797.82	69.8
797.995	68.3
798.17	67.2
798.345	67.33
798.52	67.5
798.695	69.12
798.87	67.75
799.045	67.38
799.22	68.53
799.395	65.85
799.57	67.09
799.745	68.19
799.92	68.74
800.095	71.18
800.27	72.5
800.445	72.07
800.62	70.61
800.795	73.8
800.97	75.44
801.145	73.01
801.319	75.08
801.494	76
801.669	75.88
801.844	77.01
802.018	74.42
802.193	74
802.368	72.94
802.543	73.46
802.717	71.91
802.892	71.39
803.067	72.08
803.241	71.98
803.416	73.72
803.59	73.89
803.765	72.32
803.94	74.49
804.114	72.63
804.289	75.54
804.463	76.26
804.638	75.91
804.812	75.51
804.986	73.96
805.161	73.09
805.335	69.39
805.51	68.84
805.684	69.46
805.858	68.32
806.033	67.27
806.207	66.26
806.381	65.22
806.556	62.78
806.73	63.61
806.904	65.17
807.078	63.76
807.253	65.25
807.427	65.16
807.601	66.52
807.775	64.47
807.949	69.01
808.123	69.11
808.298	71.68
808.472	76.08
808.646	75.68
808.82	75.48
808.994	77.53
809.168	79.08
809.342	82.11
809.516	82.24
809.69	86.35
809.864	84.11
810.038	88.06
810.212	86.24
810.385	84.14
810.559	84.58
810.733	86.19
810.907	85.41
811.081	83.59
811.255	80.46
811.428	79.29
811.602	78.37
811.776	80.84
811.95	76.83
812.123	78.16
812.297	79.52
812.471	79.28
812.644	79.67
812.818	81.32
812.992	78.47
813.165	78.48
813.339	77.86
813.512	76.11
813.686	76.35
813.86	75.93
814.033	76.6
814.207	74.81
814.38	76.13
814.554	74.99
814.727	75.74
814.9	77.89
815.074	83.13
815.247	84.2
815.421	83.25
815.594	81.65
815.767	83.66
815.941	84.32
816.114	84.74
816.287	83.67
816.46	81.4
816.634	80.35
816.807	82.05
816.98	77.86
817.153	79.7
817.327	79.25
817.5	81.91
817.673	82.64
817.846	82.75
818.019	83.47
818.192	81.97
818.365	79.73
818.538	77.63
818.711	74.73
818.884	75.62
819.057	72.71
819.23	73.35
819.403	67.88
819.576	64.83
819.749	64.12
819.922	61.75
820.095	61.07
820.268	62.34
820.441	62.18
820.614	59.8
820.786	57.5
820.959	58.03
821.132	57.58
821.305	57.28
821.477	54.98
821.65	53.07
821.823	53.66
821.996	52.35
822.168	51.44
822.341	50.54
822.514	50.59
822.686	50.27
822.859	48.9
823.031	48.33
823.204	47.95
823.376	48.22
823.549	48.38
823.722	47.49
823.894	47.84
824.067	47.48
824.239	47.71
824.411	48.17
824.584	47.59
824.756	48.84
824.929	48.52
825.101	48.83
825.273	49.36
825.446	49.05
825.618	49.44
825.79	49.83
825.963	50.74
826.135	50.38
826.307	49.49
826.479	51.01
826.652	50.29
826.824	50.72
826.996	50.26
827.168	50.58
827.34	50.99
827.512	51.27
827.684	50.53
827.856	50.2
828.029	51.57
828.201	52.17
828.373	51.98
828.545	53.16
828.717	53.91
828.889	54.96
829.061	55.14
829.232	56.25
829.404	56.62
829.576	57.85
829.748	58.31
829.92	57.56
830.092	58.69
830.264	58.72
830.436	58.75
830.607	59.15
830.779	61.37
830.951	62.28
831.123	59.82
831.294	59.07
831.466	57.45
831.638	57.99
831.809	60.04
831.981	60.49
832.153	61.57
832.324	61.34
832.496	62.39
832.667	62.06
832.839	61.67
833.011	63.24
833.182	64.48
833.354	66.17
833.525	68.61
833.697	67.14
833.868	64.87
834.039	65.04
834.211	62.7
834.382	60.93
834.554	60.39
834.725	59.33
834.896	59.48
835.068	59.36
835.239	58.75
835.41	57.67
835.581	57.99
835.753	57.9
835.924	58.05
836.095	59.41
836.266	60.76
836.438	59.4
836.609	60.87
836.78	60.73
836.951	63.17
837.122	63.82
837.293	63.67
837.464	63.53
837.635	65.49
837.806	65.72
837.977	66.59
838.148	68.28
838.319	70.68
838.49	71.79
838.661	72.95
838.832	72.56
839.003	76.37
839.174	78.26
839.345	77.89
839.516	81.48
839.687	82.86
839.857	83.62
840.028	84.22
840.199	83.82
840.37	83.32
840.54	86.66
840.711	83.43
840.882	82
841.053	79.95
841.223	81.78
841.394	76.95
841.564	76.84
841.735	79.31
841.906	78.2
842.076	74.01
842.247	75.88
842.417	75.1
842.588	76.43
842.758	74.89
842.929	78.49
843.099	79.6
843.27	79.57
843.44	81.21
843.611	78.5
843.781	72.64
843.951	79.33
844.122	82.66
844.292	82.84
844.462	86.09
844.633	86.17
844.803	87.9
844.973	89.69
845.144	95.8
845.314	97.65
845.484	95.46
845.654	103.07
845.824	100.56
845.995	99.03
846.165	94.04
846.335	90.01
846.505	92.81
846.675	92.4
846.845	93.8
847.015	96.74
847.185	90.96
847.355	96.69
847.525	105.84
847.695	117.2
847.865	110.98
848.035	121.5
848.205	118.9
848.375	125.77
848.545	101.77
848.715	102.62
848.884	98.13
849.054	104.42
849.224	109.17
849.394	101.33
849.564	93.43
849.733	98.36
849.903	101.4
850.073	107.09
850.243	105.68
850.412	119.24
850.582	121.68
850.752	122.01
850.921	120.48
851.091	119.17
851.26	126.78
851.43	125.26
851.599	124.28
851.769	122.7
851.939	121.7
852.108	122
852.278	122.29
852.447	107.02
852.616	105.74
852.786	99.36
852.955	99.51
853.125	103.48
853.294	104.82
853.463	104.65
853.633	104.3
853.802	105.45
853.971	105.96
854.141	106.11
854.31	105.38
854.479	107.2
854.648	119.15
854.818	112.05
854.987	107.74
855.156	107.57
855.325	111.3
855.494	128.91
855.663	128.73
855.832	130.14
856.001	139
856.171	156.97
856.34	170.22
856.509	161.63
856.678	187.55
856.847	181.21
857.016	178.03
857.185	163.44
857.353	153.76
857.522	158.86
857.691	159.61
857.86	158.32
858.029	138.72
858.198	135.81
858.367	138.2
858.535	141.87
858.704	143.61
858.873	141.41
859.042	152.46
859.21	151.12
859.379	148.7
859.548	132.25
859.717	131.4
859.885	135.29
860.054	131.47
860.222	120.53
860.391	110.43
860.56	102.82
860.728	99.24
860.897	85.32
861.065	73.68
861.234	75.75
861.402	81.94
861.571	82.11
861.739	92.93
861.908	99.89
862.076	112.4
862.244	119.92
862.413	112.85
862.581	119.53
862.749	126.56
862.918	118.71
863.086	118.92
863.254	120.67
863.423	121.19
863.591	130.63
863.759	123.95
863.927	122
864.096	107.74
864.264	109.27
864.432	104.98
864.6	103.34
864.768	108.91
864.936	109.5
865.104	105.34
865.272	114.67
865.44	101.89
865.608	95.37
865.776	93.95
865.944	102.05
866.112	111.7
866.28	110.86
866.448	115.9
866.616	116.48
866.784	115.62
866.952	113.72
867.12	110.26
867.288	115.36
867.455	113.81
867.623	118.18
867.791	111.92
867.959	104.95
868.127	101.54
868.294	103.35
868.462	93.34
868.63	90.49
868.797	100.87
868.965	97.07
869.133	89.78
869.3	93.59
869.468	90.08
869.636	87.15
869.803	95.24
869.971	108.77
870.138	99.78
870.306	106.97
870.473	113.75
870.641	109.71
870.808	108.19
870.975	114.64
871.143	120.6
871.31	118.75
871.478	133.66
871.645	125.67
871.812	124.18
871.98	123.25
872.147	126.26
872.314	123.24
872.482	119.74
872.649	117.39
872.816	117.1
872.983	112.07
873.15	121.45
873.318	113
873.485	111.1
873.652	107.65
873.819	118.08
873.986	125.54
874.153	123.09
874.32	114.16
874.487	118.43
874.654	118.19
874.821	127.74
874.988	115.86
875.155	111.38
875.322	117.61
875.489	122.57
875.656	110.5
875.823	108.19
875.99	106.06
876.157	133.4
876.324	127.01
876.49	121.82
876.657	111.31
876.824	118.39
876.991	123.96
877.157	120.46
877.324	117.86
877.491	124.63
877.658	120.93
877.824	121.62
877.991	114.38
878.157	114.82
878.324	112.74
878.491	123
878.657	124.63
878.824	117.41
878.99	114.38
879.157	118.29
879.323	111.27
879.49	110.47
879.656	113.07
879.823	103.35
879.989	99
880.156	105.21
880.322	92.12
880.488	86.37
880.655	89.57
880.821	91.19
880.987	89.49
881.154	90.53
881.32	91.66
881.486	84.68
881.652	85.28
881.819	81.54
881.985	73.87
882.151	76.23
882.317	74.09
882.483	71.01
882.649	69.83
882.816	66.1
882.982	61.61
883.148	58.46
883.314	56.88
883.48	56.05
883.646	55.02
883.812	54.8
883.978	54.21
884.144	53.41
884.31	51.31
884.476	49.79
884.642	50.55
884.807	52.63
884.973	51.25
885.139	50.43
885.305	51.52
885.471	52.23
885.637	50.77
885.802	49.84
885.968	50.56
886.134	51.87
886.3	53.12
886.465	51.12
886.631	49.47
886.797	50.56
886.962	51.62
887.128	50.99
887.293	53.12
887.459	57.62
887.625	56.74
887.79	56.89
887.956	58.8
888.121	58.97
888.287	61.53
888.452	62.47
888.618	66.15
888.783	73.8
