Data from LC_157_Reflection_1.txt Node
Date: Mon Nov 16 22:24:58 EST 2015
User: robert
Spectrometer: USB4E03001
Autoset integration time: false
Trigger mode: 4
Integration Time (sec): 1.000000E-1
Scans to average: 15
Electric dark correction enabled: true
Nonlinearity correction enabled: false
Boxcar width: 5
Stray light correction enabled: false
XAxis mode: Wavelengths
Stop averaging: false
Number of Pixels in Spectrum: 3648
>>>>>Begin Spectral Data<<<<<
177.566	1813.25
177.785	227.95
178.005	-1449.58
178.225	146.19
178.445	329.64
178.665	-76.03
178.885	14.29
179.105	600.93
179.324	613.08
179.544	-59.36
179.764	-548.02
179.984	-151.75
180.204	-164.66
180.423	-163.85
180.643	-261.84
180.863	-236.04
181.083	-169.67
181.302	-251.11
181.522	-151.14
181.742	-165.7
181.961	-323.14
182.181	-312.86
182.401	-408
182.621	-1660.54
182.84	-691.35
183.06	-383.67
183.279	-207.19
183.499	-164.99
183.719	-138.12
183.938	-155.12
184.158	-142.25
184.377	-73.38
184.597	-108.24
184.816	-79.42
185.036	-34.96
185.256	-34.31
185.475	-72.31
185.695	-116.63
185.914	-168.96
186.134	-303.2
186.353	-428.9
186.572	-667.75
186.792	-1130.61
187.011	-437.37
187.231	-342.89
187.45	-298.41
187.67	-758.83
187.889	-1923.88
188.108	3589.87
188.328	-843.8
188.547	-284.9
188.766	-549.7
188.986	-618.15
189.205	-457.65
189.424	-289.07
189.644	-979.27
189.863	-978.58
190.082	-666.67
190.302	-1504.7
190.521	-623.19
190.74	839.49
190.959	406.68
191.178	489.92
191.398	454.39
191.617	297.34
191.836	298.39
192.055	630.62
192.274	297.09
192.494	363.97
192.713	415.28
192.932	1149.09
193.151	802.9
193.37	1468.67
193.589	-1268.84
193.808	-336.25
194.027	-574.71
194.246	-5544.69
194.465	986.1
194.685	2392.25
194.904	1106.04
195.123	-1539.83
195.342	-962.24
195.561	-429.82
195.78	-667.57
195.999	23929.58
196.218	975.44
196.436	792.41
196.655	-2289.98
196.874	-761.25
197.093	-990.96
197.312	-701.23
197.531	1695.25
197.75	601.8
197.969	-1988.18
198.188	-336.88
198.407	-64.3
198.625	-47.67
198.844	-35.75
199.063	-101.08
199.282	-287.25
199.501	-183.87
199.719	-129.89
199.938	-99.75
200.157	-77.11
200.376	-115.21
200.594	-157.71
200.813	-351.11
201.032	-278.08
201.251	-247.42
201.469	-190.89
201.688	-145.46
201.907	-298.04
202.125	-521.64
202.344	18554.76
202.563	3654
202.781	565.94
203	1867.42
203.218	1377.98
203.437	1107.91
203.656	575.95
203.874	336.06
204.093	305.03
204.311	384.06
204.53	330.25
204.748	430.19
204.967	233.91
205.185	196.92
205.404	213.35
205.622	174.07
205.841	133.1
206.059	107.41
206.278	56.31
206.496	99.62
206.715	88.83
206.933	119.21
207.151	171.83
207.37	246.96
207.588	295.56
207.806	288.44
208.025	567.79
208.243	-1173.51
208.461	1894.47
208.68	-21930.59
208.898	949.19
209.116	944.18
209.335	834.28
209.553	812.6
209.771	6916.67
209.989	1245.84
210.208	2520.72
210.426	-4281.23
210.644	2274.83
210.862	-1928.21
211.081	800.23
211.299	-265.78
211.517	1504.71
211.735	-389.27
211.953	-121814.29
212.171	-2360.84
212.39	-7471.17
212.608	-15541.3
212.826	584.03
213.044	370.31
213.262	388.56
213.48	2536.71
213.698	310.59
213.916	415.07
214.134	263.63
214.352	536.41
214.57	333.35
214.788	365.26
215.006	366.97
215.224	367.18
215.442	302.69
215.66	271.28
215.878	183.52
216.096	160.63
216.314	171.36
216.532	355.82
216.75	322.67
216.968	293.84
217.185	708.43
217.403	1309.78
217.621	-3149.88
217.839	-1058.7
218.057	-1219.08
218.275	2560.21
218.492	873.23
218.71	1440.82
218.928	426.15
219.146	398.33
219.363	333.93
219.581	259.6
219.799	194.85
220.017	198.22
220.234	167.03
220.452	164.77
220.67	175.65
220.887	155.71
221.105	179.81
221.323	143.48
221.54	155.05
221.758	224.3
221.976	249.62
222.193	236.68
222.411	160.59
222.629	168.26
222.846	179.28
223.064	183.46
223.281	173.73
223.499	141.49
223.716	146.42
223.934	106.42
224.151	99.82
224.369	79.27
224.586	84.12
224.804	78.74
225.021	83.31
225.239	71.86
225.456	67.29
225.674	65.03
225.891	57.38
226.108	68.45
226.326	68.4
226.543	67.42
226.76	71.7
226.978	67.37
227.195	71.44
227.413	57.16
227.63	53.01
227.847	45.52
228.064	44
228.282	40.77
228.499	34.46
228.716	30.98
228.934	27.33
229.151	28.1
229.368	23.62
229.585	23.36
229.802	24.93
230.02	23.72
230.237	27.77
230.454	27.23
230.671	28.34
230.888	29.59
231.105	31.57
231.323	33.23
231.54	31.64
231.757	34.23
231.974	33.26
232.191	33.16
232.408	41.23
232.625	33.38
232.842	33.37
233.059	37.8
233.276	31.64
233.493	34.88
233.71	33.41
233.927	36.46
234.144	37.5
234.361	36.28
234.578	40.27
234.795	34.99
235.012	37.5
235.229	36.64
235.446	34.75
235.663	38.43
235.879	38.06
236.096	39.41
236.313	37.41
236.53	41.43
236.747	44.05
236.964	39.43
237.181	38.62
237.397	37.73
237.614	43.03
237.831	41.1
238.048	44.92
238.264	45.37
238.481	41.62
238.698	46.85
238.915	44.07
239.131	42.89
239.348	39.44
239.565	41.18
239.781	39.94
239.998	34.15
240.215	35.25
240.431	31.17
240.648	27.95
240.865	28.46
241.081	23.71
241.298	21.82
241.514	20.91
241.731	20.11
241.947	19.21
242.164	18.99
242.38	17.74
242.597	16.57
242.814	16.54
243.03	16.08
243.246	15.9
243.463	16.72
243.679	18.29
243.896	16.92
244.112	18.57
244.329	19.26
244.545	19.96
244.762	20.07
244.978	23.14
245.194	23.42
245.411	23.18
245.627	22.26
245.843	21.72
246.06	19.15
246.276	18.83
246.492	17.07
246.709	15.57
246.925	14.33
247.141	14.54
247.357	12.85
247.574	13.24
247.79	13.07
248.006	12.65
248.222	11.86
248.439	12.04
248.655	12.64
248.871	12.96
249.087	14.16
249.303	13.97
249.519	14.16
249.736	15.44
249.952	14.47
250.168	16.3
250.384	17.59
250.6	18.61
250.816	18.7
251.032	17.83
251.248	15.93
251.464	13.66
251.68	13.97
251.896	14.93
252.112	14.27
252.328	14.54
252.544	14.03
252.76	13.93
252.976	12.09
253.192	11.79
253.408	12.25
253.624	17.58
253.84	18.73
254.056	21.38
254.272	20.64
254.487	21.8
254.703	21.69
254.919	21.16
255.135	19.88
255.351	23.16
255.567	24.53
255.782	23.72
255.998	15.91
256.214	16.26
256.43	13.55
256.646	16.67
256.861	15.69
257.077	16.21
257.293	17.17
257.508	16.17
257.724	17.75
257.94	16.46
258.155	15.03
258.371	16.1
258.587	14.39
258.802	14.23
259.018	13.07
259.234	12.43
259.449	12.5
259.665	11.65
259.88	12.43
260.096	11.04
260.312	10.05
260.527	10.17
260.743	10.32
260.958	10.89
261.174	11.13
261.389	11.75
261.605	12.46
261.82	13.04
262.036	13.98
262.251	14.2
262.466	14.73
262.682	16.37
262.897	17.46
263.113	17.46
263.328	17.35
263.543	17.08
263.759	16.15
263.974	15.39
264.189	13.77
264.405	13.4
264.62	13.92
264.835	14.65
265.051	15.14
265.266	15.36
265.481	17.16
265.696	19.6
265.912	19.13
266.127	17.41
266.342	16.66
266.557	18.01
266.773	17.37
266.988	16.69
267.203	16.9
267.418	16.29
267.633	14.54
267.848	14.32
268.064	12.17
268.279	13.49
268.494	13.08
268.709	13.61
268.924	13.56
269.139	14.61
269.354	14.36
269.569	12.77
269.784	13.27
269.999	15.91
270.214	14.59
270.429	16.25
270.644	14.97
270.859	15.56
271.074	14.93
271.289	13.5
271.504	12.79
271.719	13.2
271.934	13.8
272.149	13.34
272.363	11.86
272.578	11.84
272.793	11.4
273.008	11.7
273.223	11.25
273.438	11.09
273.653	11.9
273.867	11.73
274.082	11.34
274.297	10.9
274.512	11.35
274.726	12.36
274.941	12.66
275.156	11.34
275.371	11.65
275.585	13.4
275.8	14.84
276.015	13.98
276.229	13.5
276.444	13.83
276.659	14.26
276.873	15.37
277.088	14.89
277.302	15.75
277.517	17.48
277.732	19.73
277.946	19.27
278.161	19.4
278.375	19.7
278.59	19.72
278.804	18.4
279.019	18.7
279.233	16.38
279.448	16.04
279.662	15.05
279.877	14.12
280.091	11.69
280.306	10.15
280.52	9.59
280.735	7.54
280.949	8.33
281.163	8.79
281.378	8.35
281.592	9.63
281.806	10.12
282.021	8.86
282.235	9.1
282.449	9.11
282.664	10.15
282.878	10.61
283.092	12.64
283.307	12.03
283.521	12.43
283.735	12.63
283.949	13.42
284.164	12.8
284.378	14.1
284.592	13.67
284.806	13.09
285.02	13.31
285.234	12.81
285.449	11.97
285.663	12.37
285.877	12.63
286.091	12.42
286.305	11.44
286.519	11.37
286.733	10.7
286.947	10.96
287.161	11.23
287.375	11.19
287.589	11.62
287.803	12.36
288.017	12.85
288.231	11.54
288.445	12.09
288.659	12.87
288.873	12.31
289.087	12.77
289.301	11.82
289.515	11.58
289.729	9.55
289.943	8.69
290.157	8.62
290.371	9.69
290.584	10.92
290.798	11.12
291.012	10.38
291.226	11.12
291.44	11.36
291.654	12.36
291.867	13.23
292.081	14.05
292.295	15.74
292.509	15.72
292.722	14.8
292.936	14.09
293.15	15.05
293.364	14.97
293.577	15.76
293.791	15.27
294.005	16.19
294.218	15.4
294.432	16.59
294.645	15.66
294.859	14.39
295.073	14.12
295.286	14.22
295.5	13.05
295.713	13.91
295.927	13.31
296.14	14.02
296.354	13.07
296.568	12.86
296.781	12.52
296.994	12.14
297.208	12.69
297.421	11.84
297.635	11.67
297.848	11.49
298.062	11.17
298.275	11.36
298.489	11.63
298.702	11.87
298.915	11.93
299.129	12.2
299.342	12.53
299.555	12.45
299.769	13.73
299.982	14.71
300.195	15.18
300.409	15.12
300.622	15.17
300.835	15.52
301.048	15.28
301.262	14.96
301.475	14.33
301.688	14.53
301.901	15.35
302.115	14.84
302.328	15.05
302.541	14.45
302.754	15.03
302.967	15.05
303.18	14.56
303.393	14.18
303.607	14.63
303.82	14
304.033	13.86
304.246	14.7
304.459	15.47
304.672	14.27
304.885	15.19
305.098	14.7
305.311	15.04
305.524	14.65
305.737	14.56
305.95	14.74
306.163	14.55
306.376	13.84
306.589	13.1
306.802	11.78
307.015	12.67
307.228	11.52
307.44	10.6
307.653	10.32
307.866	10.14
308.079	10.87
308.292	11.87
308.505	12.49
308.718	12.26
308.93	11.63
309.143	12.23
309.356	11.7
309.569	12.43
309.781	13.45
309.994	12.86
310.207	12.57
310.42	11.32
310.632	10.39
310.845	10.68
311.058	10.84
311.27	11.93
311.483	11.66
311.696	11.07
311.908	10.96
312.121	10.97
312.333	11.57
312.546	11.52
312.759	12.57
312.971	13.24
313.184	14.81
313.396	14.89
313.609	14.82
313.821	15.21
314.034	16.99
314.246	18.12
314.459	17.56
314.671	17.93
314.884	18.44
315.096	17.61
315.309	17.06
315.521	16.27
315.733	15.55
315.946	14.28
316.158	13.92
316.371	13.86
316.583	12.44
316.795	12.64
317.008	11.88
317.22	13.35
317.432	13.74
317.644	13.41
317.857	12.3
318.069	13.79
318.281	14.17
318.494	14.13
318.706	14.23
318.918	12.94
319.13	12.56
319.342	12.87
319.555	12.62
319.767	13.86
319.979	14.03
320.191	14.18
320.403	13.93
320.615	13.85
320.827	14.83
321.039	12.83
321.252	13.63
321.464	13.56
321.676	13.66
321.888	11.87
322.1	11.76
322.312	9.47
322.524	8.94
322.736	9.34
322.948	8.92
323.16	8.2
323.372	9.28
323.584	9.78
323.796	10.24
324.007	9.36
324.219	10.47
324.431	9.84
324.643	11.72
324.855	11.66
325.067	11.81
325.279	12.8
325.491	13.15
325.702	12.41
325.914	12.11
326.126	12.39
326.338	12.98
326.55	12.26
326.761	12.96
326.973	13.7
327.185	15.22
327.396	14.9
327.608	14.96
327.82	15.06
328.032	16.29
328.243	16.81
328.455	17.39
328.666	17.31
328.878	17.34
329.09	16.28
329.301	14.84
329.513	14.19
329.725	14.47
329.936	13.53
330.148	14.12
330.359	13.33
330.571	13.65
330.782	13.15
330.994	13.77
331.205	14
331.417	14.09
331.628	14.88
331.84	15.57
332.051	15.43
332.262	16.7
332.474	16.11
332.685	17.2
332.897	16.73
333.108	17.09
333.319	16.26
333.531	16.68
333.742	17.46
333.953	16.69
334.165	15.94
334.376	16.46
334.587	15.74
334.799	16.08
335.01	15.47
335.221	15.99
335.432	15.18
335.644	15.16
335.855	15.01
336.066	15.23
336.277	16
336.488	16.1
336.7	15
336.911	15.05
337.122	14.26
337.333	14.92
337.544	15.69
337.755	16.96
337.966	17.89
338.177	17.91
338.388	18
338.599	18.27
338.811	18.71
339.022	19.43
339.233	20.55
339.444	20.74
339.655	18.75
339.866	17.46
340.076	16.36
340.287	16.7
340.498	16.8
340.709	16.16
340.92	14.73
341.131	14.25
341.342	14.44
341.553	13.76
341.764	14.63
341.975	16.27
342.185	16.24
342.396	16.14
342.607	15.18
342.818	15.23
343.029	15.31
343.239	16.41
343.45	16.14
343.661	15.71
343.872	15.55
344.082	14.38
344.293	14.91
344.504	15.36
344.714	14.87
344.925	14.84
345.136	15.05
345.346	15.36
345.557	15.56
345.768	15.59
345.978	15.24
346.189	15.56
346.399	15.42
346.61	14.74
346.821	14.57
347.031	16.04
347.242	14.67
347.452	14.15
347.663	13.36
347.873	13.37
348.084	13.19
348.294	14.82
348.504	14.33
348.715	15.03
348.925	14.51
349.136	13.99
349.346	11.8
349.557	13.31
349.767	14.47
349.977	14.38
350.188	14.46
350.398	15.54
350.608	14.14
350.819	13.98
351.029	14.37
351.239	14.49
351.449	14.7
351.66	16.08
351.87	16.38
352.08	14.97
352.29	15.17
352.501	14.71
352.711	14.69
352.921	14.74
353.131	14.36
353.341	14.09
353.552	14.17
353.762	13.79
353.972	13.29
354.182	13.13
354.392	13.12
354.602	13.18
354.812	13.3
355.022	12.81
355.232	12.84
355.442	13.37
355.652	13.35
355.862	13.06
356.072	13.35
356.282	12.89
356.492	13.02
356.702	13
356.912	13.32
357.122	13.21
357.332	13.25
357.542	12.7
357.752	12.74
357.962	12.46
358.171	12.41
358.381	13.13
358.591	13.75
358.801	13.39
359.011	13.92
359.221	13.37
359.43	12.97
359.64	13.15
359.85	13.66
360.06	12.8
360.269	12.53
360.479	12.58
360.689	11.78
360.899	11.68
361.108	11.97
361.318	11.66
361.528	11.86
361.737	12.06
361.947	11.62
362.156	11.41
362.366	11.8
362.576	11.88
362.785	11.99
362.995	11.85
363.204	11.76
363.414	11.67
363.623	11.63
363.833	12.03
364.042	11.93
364.252	12.14
364.461	12.31
364.671	12.22
364.88	12.53
365.09	12.36
365.299	13.03
365.509	12.6
365.718	12.35
365.927	12.22
366.137	12.5
366.346	12.59
366.555	12.43
366.765	12.21
366.974	12.36
367.183	11.98
367.393	11.73
367.602	11.24
367.811	12.08
368.021	11.64
368.23	12.02
368.439	10.97
368.648	11.18
368.857	11.39
369.067	11.85
369.276	11.72
369.485	11.82
369.694	12.25
369.903	12.88
370.112	12.23
370.321	12.95
370.531	12.66
370.74	13.06
370.949	12.68
371.158	12.65
371.367	12.68
371.576	12.7
371.785	12.4
371.994	11.96
372.203	11.29
372.412	11.38
372.621	11.4
372.83	11.81
373.039	11.63
373.248	11.76
373.457	11.7
373.666	10.9
373.874	10.54
374.083	11
374.292	11.19
374.501	11.19
374.71	11.65
374.919	11.42
375.128	11.26
375.336	11.44
375.545	11.75
375.754	11.2
375.963	11.43
376.171	11.53
376.38	11.68
376.589	11.75
376.798	11.64
377.006	11.5
377.215	11.73
377.424	11.47
377.632	11.35
377.841	11.26
378.05	11.34
378.258	11.16
378.467	11.18
378.675	11.03
378.884	11.21
379.093	11.46
379.301	11.01
379.51	10.77
379.718	10.4
379.927	10.31
380.135	9.7
380.344	9.95
380.552	9.94
380.761	10.24
380.969	10.19
381.177	9.93
381.386	9.44
381.594	9.53
381.803	9.13
382.011	9.05
382.219	9.15
382.428	9.17
382.636	9.11
382.845	9.27
383.053	9.52
383.261	9.57
383.469	9.69
383.678	10.52
383.886	10.34
384.094	10.51
384.302	10.73
384.511	10.72
384.719	10.72
384.927	10.38
385.135	10.74
385.343	10.5
385.552	10.07
385.76	9.94
385.968	9.3
386.176	9.6
386.384	9.48
386.592	9.16
386.8	8.97
387.008	9.45
387.216	9.78
387.424	9.17
387.633	8.97
387.841	9.23
388.049	8.93
388.257	8.92
388.465	8.83
388.672	9.05
388.88	9.4
389.088	9.32
389.296	8.62
389.504	8.54
389.712	8.83
389.92	8.65
390.128	8.31
390.336	8.54
390.544	9
390.751	8.44
390.959	8.19
391.167	8.31
391.375	8.37
391.583	8.5
391.79	8.44
391.998	8.55
392.206	8.71
392.414	8.63
392.621	8.65
392.829	8.4
393.037	8.67
393.244	8.75
393.452	8.71
393.66	8.77
393.867	8.94
394.075	8.89
394.283	8.65
394.49	8.25
394.698	8.43
394.905	8.23
395.113	7.97
395.32	8.05
395.528	7.75
395.735	7.67
395.943	7.62
396.15	7.5
396.358	7.72
396.565	7.76
396.773	8.34
396.98	8.32
397.188	8.51
397.395	8.53
397.602	8.55
397.81	8.75
398.017	8.9
398.225	8.6
398.432	8.86
398.639	8.61
398.847	8.61
399.054	8.29
399.261	8.18
399.468	8.18
399.676	8.14
399.883	8.01
400.09	8.31
400.297	8.13
400.505	8.27
400.712	8.14
400.919	8.08
401.126	8.33
401.333	8.5
401.54	8.59
401.748	8.72
401.955	8.83
402.162	8.97
402.369	8.79
402.576	8.86
402.783	8.89
402.99	8.89
403.197	8.78
403.404	8.41
403.611	8.2
403.818	8.14
404.025	8
404.232	7.96
404.439	7.94
404.646	7.69
404.853	7.55
405.06	7.65
405.267	7.39
405.474	7.45
405.681	7.46
405.887	7.55
406.094	7.81
406.301	7.85
406.508	7.88
406.715	7.92
406.922	7.93
407.128	7.95
407.335	7.9
407.542	8.22
407.749	8.64
407.955	8.66
408.162	8.42
408.369	8.53
408.575	8.27
408.782	8.25
408.989	8.13
409.195	8.33
409.402	8.42
409.609	8.61
409.815	8.36
410.022	8.14
410.228	8.05
410.435	8.28
410.642	7.86
410.848	8.19
411.055	8.21
411.261	8.35
411.468	8.25
411.674	8.1
411.881	7.88
412.087	8.24
412.294	8.05
412.5	8.2
412.706	8.09
412.913	8.18
413.119	7.85
413.326	7.61
413.532	7.63
413.738	7.51
413.945	7.82
414.151	7.67
414.357	7.4
414.564	7.38
414.77	7.28
414.976	7.19
415.182	7.4
415.389	7.63
415.595	7.74
415.801	7.58
416.007	7.78
416.214	7.53
416.42	7.78
416.626	7.56
416.832	7.73
417.038	7.51
417.244	7.65
417.45	7.36
417.657	7.37
417.863	7.56
418.069	7.6
418.275	7.72
418.481	7.64
418.687	7.49
418.893	7.62
419.099	7.51
419.305	7.77
419.511	7.73
419.717	7.8
419.923	7.67
420.129	7.54
420.335	7.5
420.541	7.4
420.746	7.49
420.952	7.5
421.158	7.45
421.364	7.4
421.57	7.4
421.776	7.26
421.982	7.12
422.187	6.97
422.393	7.01
422.599	6.94
422.805	6.89
423.01	6.83
423.216	6.74
423.422	6.75
423.628	6.82
423.833	6.66
424.039	6.86
424.245	6.89
424.45	7.15
424.656	7.06
424.862	7.12
425.067	7.15
425.273	7.15
425.478	7.23
425.684	7.28
425.889	7.36
426.095	7.45
426.301	7.37
426.506	7.54
426.712	7.45
426.917	7.34
427.123	7.42
427.328	7.44
427.533	7.44
427.739	7.47
427.944	7.34
428.15	7.14
428.355	7.17
428.561	7.12
428.766	6.99
428.971	6.96
429.177	7.26
429.382	7.2
429.587	7.17
429.793	7.04
429.998	7.23
430.203	7.26
430.408	7.29
430.614	7.31
430.819	7.33
431.024	7.47
431.229	7.41
431.434	7.46
431.64	7.42
431.845	7.46
432.05	7.71
432.255	7.57
432.46	7.5
432.665	7.45
432.87	7.48
433.076	7.37
433.281	7.39
433.486	7.31
433.691	7.18
433.896	6.97
434.101	7.01
434.306	6.93
434.511	6.9
434.716	7.11
434.921	7.16
435.126	6.86
435.331	6.97
435.535	6.94
435.74	7.09
435.945	7.12
436.15	7.31
436.355	7.32
436.56	7.32
436.765	7.31
436.97	7.17
437.174	7.09
437.379	7.25
437.584	7.3
437.789	7.26
437.993	7.2
438.198	7.24
438.403	7.34
438.608	7.28
438.812	7.06
439.017	7.07
439.222	7.09
439.426	7.1
439.631	7.09
439.836	6.8
440.04	6.92
440.245	7.02
440.45	6.92
440.654	6.84
440.859	6.84
441.063	7.01
441.268	6.91
441.472	6.96
441.677	7.03
441.881	7.05
442.086	7.21
442.29	6.96
442.495	6.96
442.699	6.97
442.904	6.88
443.108	6.88
443.312	6.82
443.517	6.88
443.721	6.68
443.925	6.59
444.13	6.73
444.334	6.79
444.538	6.91
444.743	6.8
444.947	6.83
445.151	6.86
445.356	6.77
445.56	6.79
445.764	6.79
445.968	6.89
446.173	6.93
446.377	6.83
446.581	6.89
446.785	6.81
446.989	6.85
447.193	6.82
447.398	6.82
447.602	6.86
447.806	6.88
448.01	6.99
448.214	7.06
448.418	7.03
448.622	6.98
448.826	6.92
449.03	7.05
449.234	7.13
449.438	7.16
449.642	7.22
449.846	7.16
450.05	7.18
450.254	6.94
450.458	7.06
450.662	7.04
450.866	7.24
451.069	7.19
451.273	7.07
451.477	6.96
451.681	6.91
451.885	6.75
452.089	6.72
452.292	6.66
452.496	6.68
452.7	6.44
452.904	6.41
453.107	6.24
453.311	6.37
453.515	6.33
453.719	6.14
453.922	6.23
454.126	6.26
454.33	6.47
454.533	6.35
454.737	6.53
454.94	6.72
455.144	6.86
455.348	6.94
455.551	6.83
455.755	6.8
455.958	7
456.162	6.96
456.365	7.1
456.569	6.89
456.772	7.02
456.976	7.06
457.179	6.89
457.383	6.96
457.586	7.13
457.79	7.06
457.993	7.15
458.196	7.09
458.4	7.08
458.603	6.91
458.807	6.83
459.01	7
459.213	6.77
459.417	6.73
459.62	6.68
459.823	6.48
460.026	6.46
460.23	6.5
460.433	6.46
460.636	6.48
460.839	6.63
461.042	6.79
461.246	6.71
461.449	6.76
461.652	6.71
461.855	6.62
462.058	6.73
462.261	6.6
462.464	6.64
462.668	6.81
462.871	6.89
463.074	6.85
463.277	6.63
463.48	6.63
463.683	6.78
463.886	6.9
464.089	6.98
464.292	6.98
464.495	7.23
464.698	7.08
464.901	6.93
465.104	6.76
465.306	6.84
465.509	6.94
465.712	6.99
465.915	6.89
466.118	6.87
466.321	6.77
466.524	6.79
466.726	6.89
466.929	6.99
467.132	7.07
467.335	7
467.538	6.81
467.74	6.8
467.943	6.77
468.146	6.81
468.348	6.87
468.551	6.96
468.754	6.99
468.956	6.86
469.159	6.86
469.362	6.92
469.564	6.97
469.767	6.91
469.969	6.95
470.172	6.79
470.375	6.82
470.577	6.71
470.78	6.77
470.982	6.63
471.185	6.53
471.387	6.47
471.59	6.33
471.792	6.43
471.995	6.55
472.197	6.51
472.399	6.58
472.602	6.45
472.804	6.55
473.007	6.52
473.209	6.5
473.411	6.56
473.614	6.56
473.816	6.59
474.018	6.57
474.22	6.52
474.423	6.56
474.625	6.56
474.827	6.67
475.03	6.71
475.232	6.78
475.434	6.82
475.636	6.93
475.838	6.95
476.04	6.92
476.243	6.9
476.445	6.96
476.647	6.85
476.849	6.8
477.051	6.77
477.253	6.81
477.455	6.77
477.657	6.7
477.859	6.67
478.061	6.72
478.263	6.66
478.465	6.77
478.667	6.79
478.869	6.87
479.071	6.8
479.273	6.7
479.475	6.57
479.677	6.53
479.879	6.54
480.081	6.44
480.283	6.36
480.485	6.31
480.686	6.18
480.888	6.12
481.09	6.13
481.292	6.19
481.494	6.25
481.695	6.24
481.897	6.15
482.099	6.16
482.301	6.13
482.502	6.13
482.704	6.15
482.906	6.13
483.107	6.16
483.309	6.14
483.511	6.15
483.712	6.11
483.914	6.08
484.115	6.09
484.317	6.08
484.519	6.11
484.72	6.1
484.922	6.09
485.123	6.13
485.325	6.07
485.526	6.09
485.728	6.08
485.929	6.07
486.131	6.12
486.332	6.15
486.534	6.15
486.735	6.11
486.936	6.1
487.138	6.12
487.339	6.07
487.541	6.08
487.742	5.98
487.943	5.97
488.144	6
488.346	5.94
488.547	5.95
488.748	5.99
488.95	5.96
489.151	5.99
489.352	5.97
489.553	5.91
489.755	5.96
489.956	6.01
490.157	6.04
490.358	6.04
490.559	6.18
490.76	6.15
490.961	6.11
491.163	6.18
491.364	6.2
491.565	6.19
491.766	6.3
491.967	6.31
492.168	6.29
492.369	6.28
492.57	6.29
492.771	6.29
492.972	6.33
493.173	6.36
493.374	6.36
493.575	6.32
493.776	6.41
493.976	6.45
494.177	6.46
494.378	6.6
494.579	6.62
494.78	6.87
494.981	6.7
495.182	6.67
495.382	6.69
495.583	6.61
495.784	6.64
495.985	6.71
496.185	6.66
496.386	6.65
496.587	6.73
496.788	6.65
496.988	6.42
497.189	6.54
497.39	6.5
497.59	6.5
497.791	6.6
497.992	6.68
498.192	6.61
498.393	6.63
498.593	6.59
498.794	6.44
498.994	6.52
499.195	6.54
499.395	6.53
499.596	6.63
499.796	6.49
499.997	6.44
500.197	6.54
500.398	6.58
500.598	6.69
500.799	6.64
500.999	6.63
501.199	6.54
501.4	6.68
501.6	6.58
501.801	6.7
502.001	6.91
502.201	7.01
502.402	6.79
502.602	6.72
502.802	6.68
503.002	6.82
503.203	6.97
503.403	6.97
503.603	6.92
503.803	6.88
504.003	6.75
504.204	6.76
504.404	6.72
504.604	6.82
504.804	7
505.004	6.95
505.204	7.02
505.404	7.09
505.604	7.36
505.804	7.37
506.005	7.38
506.205	7.33
506.405	7.38
506.605	7.46
506.805	7.49
507.005	7.46
507.204	7.47
507.404	7.53
507.604	7.38
507.804	7.15
508.004	7.17
508.204	7.36
508.404	7.42
508.604	7.37
508.804	7.36
509.003	7.36
509.203	7.46
509.403	7.47
509.603	7.4
509.803	7.6
510.002	7.79
510.202	7.82
510.402	7.71
510.602	7.74
510.801	7.78
511.001	7.8
511.201	7.8
511.4	7.69
511.6	7.76
511.8	7.78
511.999	7.88
512.199	7.78
512.398	7.77
512.598	7.89
512.797	8.02
512.997	8.14
513.197	8.15
513.396	8.31
513.596	8.32
513.795	8.43
513.994	8.37
514.194	8.25
514.393	8.32
514.593	8.4
514.792	8.44
514.992	8.33
515.191	8.28
515.39	8.2
515.59	8.09
515.789	8.2
515.988	8.08
516.188	8.13
516.387	8.06
516.586	7.99
516.786	8.01
516.985	7.96
517.184	8.03
517.383	8.16
517.582	8.33
517.782	8.33
517.981	8.25
518.18	8.2
518.379	8.3
518.578	8.26
518.777	8.36
518.976	8.31
519.176	8.37
519.375	8.38
519.574	8.33
519.773	8.29
519.972	8.34
520.171	8.36
520.37	8.4
520.569	8.37
520.768	8.46
520.967	8.5
521.166	8.61
521.365	8.61
521.564	8.8
521.762	8.8
521.961	8.73
522.16	8.76
522.359	8.66
522.558	8.73
522.757	8.73
522.956	8.82
523.154	8.65
523.353	8.71
523.552	8.69
523.751	8.66
523.949	8.64
524.148	8.81
524.347	8.87
524.546	9.11
524.744	9.04
524.943	9.13
525.142	9.13
525.34	9.25
525.539	9.17
525.737	9.32
525.936	9.26
526.135	9.21
526.333	9.09
526.532	9.07
526.73	9.09
526.929	9.12
527.127	9.11
527.326	9.1
527.524	9.14
527.723	9.14
527.921	9.1
528.12	9.1
528.318	9.2
528.516	9.27
528.715	9.26
528.913	9.23
529.112	9.28
529.31	9.28
529.508	9.33
529.707	9.34
529.905	9.4
530.103	9.44
530.301	9.44
530.5	9.43
530.698	9.45
530.896	9.54
531.094	9.64
531.293	9.75
531.491	9.79
531.689	9.77
531.887	9.84
532.085	9.95
532.283	9.95
532.481	10.07
532.68	10.01
532.878	10.05
533.076	10.03
533.274	9.96
533.472	9.97
533.67	9.95
533.868	9.92
534.066	9.89
534.264	9.78
534.462	9.78
534.66	9.8
534.858	9.98
535.056	9.94
535.253	9.87
535.451	9.97
535.649	9.98
535.847	10.13
536.045	10.21
536.243	10.34
536.441	10.56
536.638	10.68
536.836	10.69
537.034	10.64
537.232	10.8
537.43	10.93
537.627	10.98
537.825	10.95
538.023	10.91
538.22	11.1
538.418	11.08
538.616	11.16
538.813	11.23
539.011	11.3
539.209	11.41
539.406	11.38
539.604	11.6
539.801	11.68
539.999	11.8
540.196	11.89
540.394	11.83
540.591	11.85
540.789	11.7
540.986	11.6
541.184	11.63
541.381	11.63
541.579	11.68
541.776	11.58
541.974	11.53
542.171	11.54
542.368	11.56
542.566	11.55
542.763	11.62
542.96	11.74
543.158	11.9
543.355	11.94
543.552	12.08
543.75	12.2
543.947	12.15
544.144	12.17
544.341	12.24
544.539	12.27
544.736	12.45
544.933	12.42
545.13	12.35
545.327	12.26
545.524	12.32
545.722	12.32
545.919	12.25
546.116	12.45
546.313	12.52
546.51	12.51
546.707	12.59
546.904	12.6
547.101	12.74
547.298	12.87
547.495	12.91
547.692	12.81
547.889	12.67
548.086	12.74
548.283	12.81
548.48	12.91
548.677	12.88
548.874	12.85
549.07	12.96
549.267	12.95
549.464	12.96
549.661	13.15
549.858	13.48
550.055	13.64
550.251	13.58
550.448	13.59
550.645	13.63
550.842	13.93
551.038	14.17
551.235	13.98
551.432	13.98
551.628	14.06
551.825	14.15
552.022	14.09
552.218	14.24
552.415	14.38
552.612	14.49
552.808	14.46
553.005	14.35
553.201	14.28
553.398	14.44
553.594	14.58
553.791	14.74
553.987	14.72
554.184	14.75
554.38	14.84
554.577	14.82
554.773	14.94
554.97	15.13
555.166	15.35
555.362	15.34
555.559	15.55
555.755	15.56
555.952	15.42
556.148	15.32
556.344	15.31
556.541	15.18
556.737	15.35
556.933	15.37
557.129	15.22
557.326	15.18
557.522	15.35
557.718	15.35
557.914	15.4
558.11	15.52
558.307	15.62
558.503	16.02
558.699	16.27
558.895	16.4
559.091	16.49
559.287	16.65
559.483	16.73
559.679	16.86
559.876	16.88
560.072	17.03
560.268	17.09
560.464	17.17
560.66	16.89
560.856	16.95
561.052	16.98
561.247	16.97
561.443	17.17
561.639	17.23
561.835	17.27
562.031	17.32
562.227	17.26
562.423	17.28
562.619	17.3
562.815	17.65
563.01	17.68
563.206	17.59
563.402	17.61
563.598	17.72
563.793	17.84
563.989	17.75
564.185	17.62
564.381	17.88
564.576	18.05
564.772	18.23
564.968	18.04
565.163	17.97
565.359	17.89
565.555	18.01
565.75	18.02
565.946	18.02
566.141	18.02
566.337	18.24
566.532	18.12
566.728	18.29
566.923	18.3
567.119	18.4
567.314	18.39
567.51	18.66
567.705	18.68
567.901	18.7
568.096	18.88
568.292	18.92
568.487	18.94
568.682	19.06
568.878	18.97
569.073	19.13
569.268	19.11
569.464	19.36
569.659	19.35
569.854	19.49
570.05	19.48
570.245	19.35
570.44	19.64
570.635	19.63
570.831	19.59
571.026	19.67
571.221	19.57
571.416	19.65
571.611	19.63
571.806	19.91
572.002	19.99
572.197	20.11
572.392	20.15
572.587	20.12
572.782	20.29
572.977	20.41
573.172	20.48
573.367	20.61
573.562	20.8
573.757	20.72
573.952	20.64
574.147	20.61
574.342	20.73
574.537	20.77
574.732	20.69
574.927	20.72
575.121	20.9
575.316	20.89
575.511	20.89
575.706	20.89
575.901	21.14
576.096	21.2
576.29	21.17
576.485	21.11
576.68	21.46
576.875	21.62
577.069	21.58
577.264	21.49
577.459	21.8
577.654	21.89
577.848	21.85
578.043	21.94
578.238	21.78
578.432	21.79
578.627	21.81
578.821	21.57
579.016	21.39
579.21	21.54
579.405	21.46
579.6	21.39
579.794	21.45
579.989	21.46
580.183	21.75
580.378	21.98
580.572	22.2
580.766	22.21
580.961	22.09
581.155	22.28
581.35	22.3
581.544	22.24
581.738	22.1
581.933	22.16
582.127	22.52
582.321	22.31
582.516	22.5
582.71	22.57
582.904	22.83
583.099	22.83
583.293	22.99
583.487	23.25
583.681	23.7
583.875	23.8
584.07	23.78
584.264	23.55
584.458	23.49
584.652	23.24
584.846	23.16
585.04	23.29
585.234	23.57
585.428	23.49
585.623	23.21
585.817	22.97
586.011	23.11
586.205	23.33
586.399	23.52
586.593	23.54
586.787	23.84
586.981	24.04
587.174	23.89
587.368	23.89
587.562	23.94
587.756	24.02
587.95	24.21
588.144	23.93
588.338	23.79
588.532	23.78
588.725	23.79
588.919	23.81
589.113	23.78
589.307	23.78
589.501	23.87
589.694	24.09
589.888	24.22
590.082	24.18
590.275	24.57
590.469	24.82
590.663	24.79
590.856	25
591.05	24.94
591.244	25.06
591.437	25.15
591.631	25.1
591.824	25.08
592.018	25.07
592.212	25.25
592.405	24.96
592.599	24.88
592.792	24.73
592.986	24.69
593.179	24.79
593.372	24.69
593.566	24.82
593.759	24.92
593.953	24.95
594.146	24.87
594.339	24.89
594.533	25.18
594.726	25.12
594.92	25.31
595.113	25.43
595.306	25.43
595.499	25.32
595.693	25.2
595.886	25.24
596.079	25.26
596.272	25.33
596.466	25.37
596.659	25.36
596.852	25.47
597.045	25.65
597.238	25.69
597.431	25.69
597.624	25.81
597.818	25.86
598.011	25.91
598.204	25.95
598.397	26.12
598.59	26.05
598.783	26.1
598.976	26.2
599.169	26.16
599.362	26.09
599.555	26.34
599.748	26.47
599.941	26.44
600.134	26.59
600.326	26.67
600.519	26.69
600.712	26.85
600.905	26.85
601.098	26.97
601.291	26.97
601.483	27.11
601.676	27.09
601.869	26.95
602.062	27.23
602.255	27.07
602.447	27.23
602.64	27.15
602.833	27.27
603.025	27.17
603.218	27.05
603.411	26.96
603.603	26.82
603.796	26.74
603.989	26.86
604.181	26.89
604.374	27.03
604.566	27.04
604.759	26.99
604.951	26.8
605.144	26.96
605.336	27.02
605.529	27.07
605.721	27.15
605.914	27.25
606.106	27.28
606.299	27.31
606.491	27.25
606.683	27.23
606.876	27.22
607.068	27.47
607.26	27.43
607.453	27.4
607.645	27.52
607.837	27.6
608.03	27.76
608.222	27.95
608.414	27.81
608.606	27.88
608.799	27.95
608.991	28.21
609.183	28.22
609.375	28.28
609.567	28.43
609.759	28.5
609.952	28.55
610.144	28.5
610.336	28.41
610.528	28.38
610.72	28.28
610.912	28.29
611.104	28.32
611.296	28.35
611.488	28.36
611.68	28.44
611.872	28.46
612.064	28.81
612.256	28.71
612.448	28.65
612.64	28.66
612.832	28.94
613.023	28.77
613.215	28.88
613.407	28.8
613.599	28.86
613.791	28.65
613.983	28.4
614.174	28.16
614.366	28.12
614.558	28.34
614.75	28.37
614.941	28.42
615.133	28.85
615.325	28.89
615.516	29.12
615.708	28.93
615.9	28.79
616.091	28.97
616.283	28.89
616.475	28.83
616.666	28.64
616.858	29.13
617.049	28.94
617.241	28.73
617.432	28.68
617.624	28.57
617.815	28.82
618.007	29
618.198	29.21
618.39	29.31
618.581	29.72
618.773	29.75
618.964	29.65
619.155	29.92
619.347	30.16
619.538	30.1
619.729	30.02
619.921	29.97
620.112	30.19
620.303	30.37
620.494	30.4
620.686	30.14
620.877	30.34
621.068	30.22
621.259	30.18
621.451	29.86
621.642	29.98
621.833	30.22
622.024	30.23
622.215	30.12
622.406	29.95
622.597	30.05
622.788	30.11
622.98	29.97
623.171	29.94
623.362	29.79
623.553	30.17
623.744	30.09
623.935	30.35
624.126	30.38
624.317	30.31
624.508	30.33
624.698	30.31
624.889	30.53
625.08	30.75
625.271	31.05
625.462	30.99
625.653	30.83
625.844	30.86
626.034	30.45
626.225	30.61
626.416	30.41
626.607	30.34
626.798	30.45
626.988	30.37
627.179	30.27
627.37	30.15
627.56	30.4
627.751	30.56
627.942	30.63
628.132	30.69
628.323	30.72
628.514	31.07
628.704	31.18
628.895	30.95
629.085	30.95
629.276	31.03
629.466	30.92
629.657	30.91
629.847	30.83
630.038	30.9
630.228	31.11
630.419	31.28
630.609	31.56
630.8	31.31
630.99	31.34
631.181	31.47
631.371	31.77
631.561	32.22
631.752	32.45
631.942	32.39
632.132	32.37
632.323	32.19
632.513	32.2
632.703	32.02
632.893	32.52
633.084	32.48
633.274	32.51
633.464	32.13
633.654	31.97
633.844	31.85
634.034	31.9
634.225	31.71
634.415	31.69
634.605	31.77
634.795	31.75
634.985	31.64
635.175	31.84
635.365	31.67
635.555	31.92
635.745	31.73
635.935	31.9
636.125	31.95
636.315	32.4
636.505	32.61
636.695	32.09
636.885	32.09
637.075	32.07
637.265	32.16
637.455	32.43
637.644	32.34
637.834	32.59
638.024	32.53
638.214	32.59
638.404	32.62
638.593	32.86
638.783	33.46
638.973	33.88
639.163	33.73
639.352	33.74
639.542	33.86
639.732	34.28
639.921	34.15
640.111	34.27
640.301	34.11
640.49	33.86
640.68	33.63
640.87	33.62
641.059	33.28
641.249	33.41
641.438	33.16
641.628	32.83
641.817	32.5
642.007	32.61
642.196	32.4
642.386	32.76
642.575	33.05
642.764	32.93
642.954	32.66
643.143	32.96
643.333	33.21
643.522	33.4
643.711	33.58
643.901	33.72
644.09	34.02
644.279	34.09
644.469	33.73
644.658	33.74
644.847	33.93
645.036	34.36
645.226	34
645.415	33.9
645.604	33.97
645.793	34.03
645.982	33.88
646.171	33.6
646.361	33.75
646.55	34.36
646.739	34.01
646.928	34.05
647.117	33.81
647.306	33.9
647.495	34
647.684	34.05
647.873	33.91
648.062	33.99
648.251	34.43
648.44	34.09
648.629	33.69
648.818	34.17
649.007	33.78
649.196	34
649.384	34.22
649.573	33.85
649.762	33.98
649.951	34.2
650.14	34.3
650.328	34.07
650.517	34.5
650.706	34.43
650.895	34.41
651.083	34.81
651.272	34.43
651.461	34.34
651.65	34.74
651.838	34.56
652.027	34.34
652.216	34.1
652.404	34.24
652.593	34.44
652.781	34.52
652.97	34.62
653.158	34.71
653.347	35.28
653.535	35.3
653.724	34.94
653.912	35.17
654.101	35.55
654.289	35.86
654.478	35.75
654.666	35.42
654.855	35.52
655.043	35.41
655.231	35.47
655.42	35.14
655.608	35.14
655.796	35.4
655.985	35.34
656.173	35.34
656.361	35.35
656.55	35.49
656.738	35.36
656.926	35.68
657.114	35.86
657.302	36.08
657.491	35.68
657.679	35.84
657.867	35.74
658.055	35.57
658.243	35.4
658.431	35.59
658.619	35.56
658.807	35.61
658.996	35.55
659.184	35.23
659.372	35.07
659.56	35.49
659.748	35.11
659.936	35.45
660.124	35.74
660.311	35.83
660.499	35.79
660.687	35.72
660.875	35.79
661.063	35.73
661.251	35.95
661.439	36.01
661.627	35.72
661.814	36
662.002	35.74
662.19	35.64
662.378	35.49
662.565	35.76
662.753	36.01
662.941	36.02
663.129	36.3
663.316	36.46
663.504	36.4
663.692	36.77
663.879	36.88
664.067	37.1
664.254	37.08
664.442	37.32
664.63	37.08
664.817	37.19
665.005	37.48
665.192	37.5
665.38	37.87
665.567	37.88
665.755	38.01
665.942	38.25
666.13	38.56
666.317	38.53
666.504	38.41
666.692	38.61
666.879	38.43
667.067	38.55
667.254	38.15
667.441	37.34
667.629	37.38
667.816	37.31
668.003	36.95
668.19	36.44
668.378	36.2
668.565	36.56
668.752	36.35
668.939	36.26
669.127	36.11
669.314	36.14
669.501	36.46
669.688	36.49
669.875	36.34
670.062	36.75
670.249	37.5
670.436	37.84
670.623	37.55
670.81	37.52
670.997	37.54
671.184	37.42
671.371	37.65
671.558	37.75
671.745	37.98
671.932	38.03
672.119	37.82
672.306	36.93
672.493	37.36
672.68	37.31
672.867	37.56
673.054	37.65
673.24	38.07
673.427	38.23
673.614	38.42
673.801	38.71
673.988	39.09
674.174	39.08
674.361	39.58
674.548	39.02
674.734	39.13
674.921	39.08
675.108	39.53
675.294	38.77
675.481	38.65
675.668	38.64
675.854	38.45
676.041	38.09
676.227	38.21
676.414	38.27
676.601	38.78
676.787	38.94
676.974	38.8
677.16	38.65
677.347	39.15
677.533	38.96
677.719	38.87
677.906	38.05
678.092	38.38
678.279	38.11
678.465	37.95
678.651	37.65
678.838	37.69
679.024	37.4
679.21	37.03
679.397	37.27
679.583	37.23
679.769	37.32
679.955	37.65
680.142	37.52
680.328	38.02
680.514	38.2
680.7	37.89
680.886	38.16
681.073	38.74
681.259	38.69
681.445	38.52
681.631	38.7
681.817	38.27
682.003	38.64
682.189	38.43
682.375	38.27
682.561	37.95
682.747	38.76
682.933	38.28
683.119	38.33
683.305	38.47
683.491	39
683.677	38.98
683.863	39.56
684.049	39.3
684.235	39.39
684.42	39.24
684.606	39.33
684.792	39.26
684.978	39.54
685.164	39.2
685.349	39.3
685.535	39.09
685.721	38.85
685.907	38.55
686.092	38.63
686.278	38.65
686.464	39.04
686.649	39.27
686.835	39.09
687.021	39.44
687.206	39.62
687.392	39.2
687.577	39.17
687.763	39.32
687.948	39.3
688.134	39.24
688.319	39.47
688.505	39.53
688.69	39.57
688.876	39.48
689.061	38.91
689.247	38.83
689.432	39.18
689.618	38.75
689.803	39.03
689.988	38.93
690.174	39.03
690.359	39.07
690.544	38.73
690.73	39.04
690.915	39.06
691.1	39.51
691.285	39.66
691.471	40.31
691.656	40.58
691.841	40.37
692.026	41.03
692.211	41.35
692.396	41.59
692.582	41.73
692.767	41.89
692.952	41.76
693.137	41.52
693.322	41.74
693.507	41.77
693.692	42.09
693.877	42.36
694.062	41.84
694.247	41.97
694.432	42.12
694.617	42.5
694.802	41.98
694.987	42.48
695.172	42.77
695.357	42.48
695.541	42.24
695.726	42.35
695.911	42.67
696.096	42.92
696.281	42.9
696.466	42.72
696.65	42.19
696.835	42.62
697.02	42.28
697.204	41.89
697.389	41.98
697.574	41.55
697.759	41.22
697.943	41.06
698.128	41.25
698.312	40.98
698.497	40.64
698.682	40.87
698.866	40.64
699.051	40.75
699.235	40.89
699.42	40.82
699.604	41.19
699.789	41.11
699.973	40.96
700.158	41.13
700.342	41.51
700.527	41.82
700.711	41.98
700.895	42.23
701.08	42.48
701.264	42.72
701.448	43.01
701.633	42.87
701.817	43.39
702.001	43.93
702.186	43.47
702.37	43.45
702.554	43.69
702.738	43.58
702.923	43.12
703.107	43.14
703.291	43.2
703.475	42.9
703.659	42.84
703.843	42.18
704.027	41.81
704.212	41.71
704.396	41.2
704.58	40.65
704.764	40.67
704.948	40.65
705.132	40.39
705.316	40.42
705.5	40.73
705.684	41.2
705.868	41.33
706.052	41.3
706.235	41.19
706.419	41.57
706.603	41.48
706.787	41.86
706.971	42.49
707.155	42.19
707.339	42.01
707.522	42.24
707.706	41.76
707.89	42.16
708.074	42.42
708.257	42.6
708.441	42.24
708.625	42.76
708.808	42.4
708.992	41.9
709.176	41.88
709.359	41.75
709.543	41.46
709.727	41.86
709.91	41.1
710.094	40.98
710.277	41.36
710.461	41.55
710.644	41.78
710.828	41.52
711.011	41.63
711.195	42.17
711.378	42.7
711.562	43.08
711.745	43.29
711.928	43.66
712.112	43.4
712.295	43.32
712.478	43.38
712.662	43.48
712.845	43.98
713.028	44.18
713.212	43.38
713.395	43.22
713.578	42.97
713.761	42.75
713.945	42.79
714.128	42.61
714.311	42.76
714.494	42.79
714.677	42.64
714.86	42.62
715.043	42.52
715.227	43.2
715.41	43.16
715.593	43.01
715.776	43
715.959	43.53
716.142	43.84
716.325	43.46
716.508	43.28
716.691	43.48
716.874	43.16
717.057	43.44
717.239	43.24
717.422	43.04
717.605	42.88
717.788	42.7
717.971	42.55
718.154	42.67
718.337	42.91
718.519	43.2
718.702	43.55
718.885	43.01
719.068	43.17
719.25	44.29
719.433	44.3
719.616	44.55
719.798	43.99
719.981	44.46
720.164	44.04
720.346	43.87
720.529	44.2
720.712	43.58
720.894	44.78
721.077	44.53
721.259	43.85
721.442	44.17
721.624	44.94
721.807	45.57
721.989	44.28
722.172	44.72
722.354	45.03
722.537	45.13
722.719	44.64
722.901	44.82
723.084	45.01
723.266	44.45
723.448	45.24
723.631	45.11
723.813	44.91
723.995	44.96
724.178	44.48
724.36	43.93
724.542	43.37
724.724	43.77
724.907	43.6
725.089	42.77
725.271	43.12
725.453	42.05
725.635	41.46
725.817	42.11
725.999	42.96
726.181	43.64
726.364	44.03
726.546	44.14
726.728	44.55
726.91	44.44
727.092	45.38
727.274	45.16
727.456	45.65
727.638	46.36
727.819	46.21
728.001	46.1
728.183	46.58
728.365	46.54
728.547	46.33
728.729	46.12
728.911	46.73
729.093	46.33
729.274	45.46
729.456	44.9
729.638	44.57
729.82	44.53
730.001	43.95
730.183	43.18
730.365	43.25
730.546	43.55
730.728	43.31
730.91	42.33
731.091	41.92
731.273	42.64
731.455	42.9
731.636	43
731.818	43.58
731.999	43.56
732.181	43.93
732.362	44.14
732.544	45.23
732.725	44.92
732.907	44.96
733.088	46.49
733.27	47.33
733.451	47.75
733.633	47.7
733.814	47.11
733.995	47.84
734.177	47.96
734.358	48.02
734.539	47.26
734.721	47.87
734.902	47.83
735.083	46.42
735.264	46.47
735.446	46.57
735.627	46.37
735.808	45.64
735.989	45.57
736.17	45.82
736.351	45.44
736.533	44.92
736.714	44.14
736.895	44.57
737.076	44.29
737.257	43.57
737.438	42.92
737.619	43.54
737.8	44.66
737.981	45.15
738.162	44.72
738.343	44.92
738.524	45.14
738.705	45.8
738.886	45.75
739.067	46.38
739.247	46.81
739.428	47.25
739.609	46.47
739.79	46.89
739.971	45.35
740.151	44.94
740.332	45.7
740.513	44.73
740.694	45.13
740.874	45.3
741.055	45.56
741.236	45.41
741.417	45.27
741.597	45.13
741.778	44.94
741.958	45.71
742.139	46.78
742.32	46.16
742.5	48.06
742.681	48.61
742.861	48.64
743.042	47.59
743.222	47.75
743.403	47.13
743.583	47.56
743.764	47.17
743.944	47.27
744.124	47.14
744.305	46.85
744.485	46.83
744.666	44.5
744.846	44.87
745.026	46.13
745.207	46.12
745.387	46.77
745.567	47.4
745.747	46.91
745.928	46.74
746.108	46.58
746.288	46.43
746.468	46.35
746.648	48.1
746.829	47.77
747.009	47.69
747.189	48
747.369	48.02
747.549	47.69
747.729	48.86
747.909	48.12
748.089	47.45
748.269	47.26
748.449	46.46
748.629	45.35
748.809	45.46
748.989	45.28
749.169	45.23
749.349	45.35
749.529	45.21
749.709	43.65
749.889	44.94
750.068	44.62
750.248	45.36
750.428	45.48
750.608	46.16
750.788	45.64
750.967	45.3
751.147	44.91
751.327	44.26
751.507	43.24
751.686	44.98
751.866	45.26
752.046	45.97
752.225	45.96
752.405	46.48
752.585	47.17
752.764	47.05
752.944	47.76
753.123	47.92
753.303	48.68
753.482	50.21
753.662	49.54
753.841	48.61
754.021	49.22
754.2	49.41
754.38	48.96
754.559	48.08
754.739	48.15
754.918	47.45
755.097	47.7
755.277	47.1
755.456	47.09
755.635	47.34
755.815	48.56
755.994	47.77
756.173	47.18
756.352	46.45
756.532	45.97
756.711	45.07
756.89	45.28
757.069	45.38
757.248	46.02
757.427	45.15
757.607	44.57
757.786	43.76
757.965	43.3
758.144	43.61
758.323	44.67
758.502	45.63
758.681	46.95
758.86	46.56
759.039	46.45
759.218	46.51
759.397	46.55
759.576	46.74
759.755	45.97
759.934	46.87
760.113	46.2
760.291	46
760.47	46.11
760.649	46.09
760.828	46.74
761.007	46.66
761.186	45.92
761.364	46.43
761.543	46.5
761.722	46.15
761.901	45.73
762.079	46.94
762.258	46.55
762.437	46.75
762.615	46.09
762.794	46.2
762.972	46.08
763.151	46.5
763.33	46.38
763.508	46.02
763.687	46.55
763.865	46.85
764.044	46.64
764.222	46.52
764.401	46.19
764.579	46.48
764.758	46.14
764.936	46.01
765.114	45.48
765.293	45.06
765.471	45.81
765.65	46.09
765.828	45.72
766.006	45.61
766.184	46.38
766.363	46.31
766.541	45.75
766.719	46.52
766.898	46.76
767.076	47.3
767.254	48.07
767.432	48.14
767.61	47.75
767.788	47.86
767.967	47.93
768.145	47.61
768.323	47.75
768.501	49.28
768.679	48.49
768.857	47.66
769.035	47.95
769.213	47.48
769.391	46.55
769.569	46.97
769.747	47.65
769.925	46.44
770.103	45.87
770.281	45.46
770.459	45.63
770.636	46.64
770.814	47.89
770.992	47.15
771.17	47.37
771.348	47.59
771.525	48.03
771.703	47.51
771.881	49.51
772.059	50.03
772.236	51.17
772.414	50.65
772.592	50.46
772.769	49.55
772.947	49.49
773.125	48.95
773.302	49.86
773.48	50.54
773.657	52.16
773.835	50.99
774.013	52.03
774.19	52.22
774.368	51.85
774.545	50.89
774.723	52.19
774.9	52.32
775.077	53.94
775.255	53.88
775.432	54.08
775.61	51.85
775.787	52.29
775.964	52.37
776.142	51.64
776.319	52.58
776.496	51.25
776.674	49.62
776.851	50.83
777.028	49.99
777.205	49.48
777.382	47.36
777.56	47.98
777.737	49.51
777.914	47.98
778.091	48.37
778.268	48.61
778.445	50.37
778.622	50.96
778.8	49.25
778.977	48.15
779.154	53.5
779.331	54.59
779.508	55.3
779.685	52.45
779.862	53.24
780.038	52.87
780.215	51.59
780.392	51.46
780.569	51.53
780.746	53.1
780.923	54.99
781.1	49.98
781.277	49.39
781.453	49.71
781.63	50.71
781.807	50.74
781.984	50.85
782.16	51.51
782.337	50.18
782.514	50.84
782.691	52.62
782.867	52.04
783.044	50.23
783.221	52.09
783.397	51.83
783.574	51.12
783.75	52.21
783.927	53.86
784.103	54.34
784.28	55.51
784.456	55.16
784.633	52.31
784.809	52.59
784.986	54.24
785.162	52.8
785.339	50.37
785.515	49.48
785.692	46.69
785.868	44.69
786.044	43.66
786.221	44.06
786.397	45.03
786.573	45.59
786.749	44.57
786.926	45.78
787.102	44.72
787.278	47.02
787.454	49.63
787.631	51.1
787.807	51.29
787.983	51.47
788.159	50.83
788.335	50.69
788.511	51.26
788.687	54.13
788.863	51.73
789.039	51.84
789.216	52.57
789.392	52.11
789.568	53.25
789.744	55.08
789.919	54.27
790.095	55.17
790.271	55.29
790.447	54.05
790.623	53.57
790.799	55.18
790.975	55.74
791.151	55.09
791.327	55.13
791.502	54.35
791.678	51.01
791.854	52.73
792.03	53.49
792.205	54.93
792.381	56.81
792.557	56.43
792.733	56.97
792.908	57.79
793.084	56.3
793.259	55.89
793.435	55.16
793.611	58.94
793.786	58.02
793.962	57.73
794.137	56.16
794.313	53.66
794.488	52
794.664	51.98
794.839	50.39
795.015	51.66
795.19	51.83
795.366	51.35
795.541	49.61
795.716	49.07
795.892	49.12
796.067	47.98
796.242	49.07
796.418	49.71
796.593	49.18
796.768	50.51
796.944	49.92
797.119	49.65
797.294	50.07
797.469	50.94
797.644	50.89
797.82	50.17
797.995	50.95
798.17	49.86
798.345	49.17
798.52	48.75
798.695	48.49
798.87	48.99
799.045	48.89
799.22	50.2
799.395	49.52
799.57	49.87
799.745	50.08
799.92	49.55
800.095	51.55
800.27	52.33
800.445	50.64
800.62	50.57
800.795	51.48
800.97	53.81
801.145	52.39
801.319	53.59
801.494	53.47
801.669	54.43
801.844	55.09
802.018	52.98
802.193	52.74
802.368	54.49
802.543	55.24
802.717	53.37
802.892	52.43
803.067	53.41
803.241	52.17
803.416	52.57
803.59	51.45
803.765	50.55
803.94	52.35
804.114	51.29
804.289	51.81
804.463	51.81
804.638	50.76
804.812	51.34
804.986	50.19
805.161	49.46
805.335	50
805.51	48.75
805.684	50.96
805.858	51.14
806.033	49.81
806.207	48.86
806.381	49.64
806.556	51.6
806.73	51.13
806.904	51.59
807.078	51.98
807.253	53.33
807.427	55.07
807.601	54.22
807.775	54.32
807.949	56.91
808.123	58.3
808.298	56.77
808.472	57.48
808.646	56.38
808.82	56.8
808.994	56.09
809.168	56.18
809.342	57.39
809.516	59.27
809.69	58.63
809.864	57.11
810.038	57.61
810.212	57.74
810.385	57.25
810.559	60.44
810.733	60.43
810.907	62.12
811.081	59.55
811.255	56.99
811.428	56.39
811.602	57.09
811.776	59.6
811.95	57.63
812.123	57.86
812.297	59.13
812.471	56.61
812.644	57.08
812.818	58.06
812.992	59.1
813.165	61.59
813.339	59.98
813.512	58.64
813.686	58.51
813.86	58.7
814.033	57.38
814.207	56.98
814.38	56.49
814.554	57.44
814.727	55.48
814.9	58.49
815.074	59.17
815.247	58.77
815.421	56.52
815.594	57.5
815.767	57.73
815.941	60.11
816.114	61.38
816.287	62.42
816.46	60.68
816.634	59.28
816.807	57.03
816.98	54.36
817.153	54.64
817.327	57.86
817.5	57.03
817.673	59.58
817.846	60.19
818.019	59.53
818.192	59.21
818.365	56.87
818.538	59.41
818.711	58.32
818.884	58.43
819.057	57.57
819.23	57.25
819.403	54.81
819.576	51.77
819.749	49.53
819.922	48.93
820.095	46.95
820.268	48.29
820.441	49.5
820.614	47
820.786	46.63
820.959	47.39
821.132	47.05
821.305	47.3
821.477	48.09
821.65	49.5
821.823	48.66
821.996	48.09
822.168	47.33
822.341	46.33
822.514	46.98
822.686	46.68
822.859	46.12
823.031	46.03
823.204	45.98
823.376	45.62
823.549	45.27
823.722	45.43
823.894	46.05
824.067	46.07
824.239	46.32
824.411	46.93
824.584	47.42
824.756	47.92
824.929	47.69
825.101	47.65
825.273	48.31
825.446	48.22
825.618	48.11
825.79	48.51
825.963	49.72
826.135	49.51
826.307	49.33
826.479	49.84
826.652	49.38
826.824	49.54
826.996	49.6
827.168	49.07
827.34	48.8
827.512	48.45
827.684	47.67
827.856	46.73
828.029	47.52
828.201	47.16
828.373	46.12
828.545	46.49
828.717	47.08
828.889	46.45
829.061	46.72
829.232	48.04
829.404	49.34
829.576	50.88
829.748	51.75
829.92	52.28
830.092	53.28
830.264	54.53
830.436	54.8
830.607	54.18
830.779	57.13
830.951	58.32
831.123	55.96
831.294	55.05
831.466	53.54
831.638	53.54
831.809	52.66
831.981	51.83
832.153	50.16
832.324	51.24
832.496	52.42
832.667	54.5
832.839	54.29
833.011	54.67
833.182	53.89
833.354	54.93
833.525	55.83
833.697	54.5
833.868	53.84
834.039	55.65
834.211	54.42
834.382	54.32
834.554	51.36
834.725	50.83
834.896	51.19
835.068	51.78
835.239	50.5
835.41	49.75
835.581	51.52
835.753	52.01
835.924	51.12
836.095	52.14
836.266	52.14
836.438	51.59
836.609	51.88
836.78	52.59
836.951	54.24
837.122	53.73
837.293	54.94
837.464	54.9
837.635	55.69
837.806	57.78
837.977	60.05
838.148	61.66
838.319	65.47
838.49	66.14
838.661	69.42
838.832	69.23
839.003	71.04
839.174	69.42
839.345	68.31
839.516	69.28
839.687	69.44
839.857	69.29
840.028	68.27
840.199	68.14
840.37	67.95
840.54	63.44
840.711	60.28
840.882	64.29
841.053	63.62
841.223	63.85
841.394	60.43
841.564	61.37
841.735	59.77
841.906	60.89
842.076	53.41
842.247	55.43
842.417	59.1
842.588	61.58
842.758	58.97
842.929	58.92
843.099	58.43
843.27	61.45
843.44	58.25
843.611	60.04
843.781	55.94
843.951	61.71
844.122	63.78
844.292	61.76
844.462	61.78
844.633	60.06
844.803	60.8
844.973	61.41
845.144	65.44
845.314	67.41
845.484	64.52
845.654	67.64
845.824	69.34
845.995	64.5
846.165	64.13
846.335	67.34
846.505	64.93
846.675	66.58
846.845	71.51
847.015	67.38
847.185	72.23
847.355	74.61
847.525	79.82
847.695	89.66
847.865	91.41
848.035	104.53
848.205	93.3
848.375	100.63
848.545	83.6
848.715	85.55
848.884	83.09
849.054	73.98
849.224	65.46
849.394	64.19
849.564	53.16
849.733	56.25
849.903	53.15
850.073	60.73
850.243	65.38
850.412	69.45
850.582	65.64
850.752	68.47
850.921	66.49
851.091	71.2
851.26	70.33
851.43	69.38
851.599	58.89
851.769	59.25
851.939	56.49
852.108	56.65
852.278	65.63
852.447	63.45
852.616	59.27
852.786	58.4
852.955	64.13
853.125	74.28
853.294	77.62
853.463	83.17
853.633	86.24
853.802	89.56
853.971	87.74
854.141	85.67
854.31	87.01
854.479	82.65
854.648	88.36
854.818	72.98
854.987	62.78
855.156	69.57
855.325	78.5
855.494	77.05
855.663	76
855.832	73.12
856.001	80.25
856.171	73.44
856.34	80
856.509	88.37
856.678	104.73
856.847	118.53
857.016	106.78
857.185	96.55
857.353	101.28
857.522	110.21
857.691	114.85
857.86	109.99
858.029	110.7
858.198	121.3
858.367	116.23
858.535	118.34
858.704	115.41
858.873	119.55
859.042	128.11
859.21	119.72
859.379	122.28
859.548	114.43
859.717	112.41
859.885	111.93
860.054	100.82
860.222	90.48
860.391	97.64
860.56	85.18
860.728	85.46
860.897	69.75
861.065	66.02
861.234	59.96
861.402	60.19
861.571	56.3
861.739	67.63
861.908	77.36
862.076	90.16
862.244	86.51
862.413	84.65
862.581	81.54
862.749	88.28
862.918	91.43
863.086	89.78
863.254	91.4
863.423	103.28
863.591	105.09
863.759	93.24
863.927	85.61
864.096	81.18
864.264	82.71
864.432	80.9
864.6	83.26
864.768	85.39
864.936	86.66
865.104	86.52
865.272	88.04
865.44	82.83
865.608	79.7
865.776	89.76
865.944	95.91
866.112	97.62
866.28	102.23
866.448	108.47
866.616	99.85
866.784	98.5
866.952	101.55
867.12	102.14
867.288	102.28
867.455	101.99
867.623	99.02
867.791	93.48
867.959	97.96
868.127	91.37
868.294	81.94
868.462	79.89
868.63	71.69
868.797	73.7
868.965	70.81
869.133	67.02
869.3	66.32
869.468	63.03
869.636	49.44
869.803	39.31
869.971	41.34
870.138	48.2
870.306	54.69
870.473	63.62
870.641	62.46
870.808	52.33
870.975	57.21
871.143	66.91
871.31	70.07
871.478	83.91
871.645	82.26
871.812	86.35
871.98	80.62
872.147	79.5
872.314	78.35
872.482	76.86
872.649	80.89
872.816	76.86
872.983	70.18
873.15	68.4
873.318	67.74
873.485	77.04
873.652	72.32
873.819	83.07
873.986	95.51
874.153	95.37
874.32	86.18
874.487	86.57
874.654	93.18
874.821	95.42
874.988	89.38
875.155	89.43
875.322	83.01
875.489	90.64
875.656	83.43
875.823	67.39
875.99	59.93
876.157	73.13
876.324	74.48
876.49	71.94
876.657	76.1
876.824	85.12
876.991	90.67
877.157	91.17
877.324	92.2
877.491	96.95
877.658	102.4
877.824	101.24
877.991	91.44
878.157	90.39
878.324	88.48
878.491	85.77
878.657	87.63
878.824	82.52
878.99	78.7
879.157	78.74
879.323	73.94
879.49	73.62
879.656	80.15
879.823	76.87
879.989	75.16
880.156	71.25
880.322	70.41
880.488	63.37
880.655	66.36
880.821	70.87
880.987	67.84
881.154	67.94
881.32	62.44
881.486	62.95
881.652	67.03
881.819	67.55
881.985	64.75
882.151	60.91
882.317	61.2
882.483	57.74
882.649	56.08
882.816	55.99
882.982	52.42
883.148	52.47
883.314	50.26
883.48	49.45
883.646	48.03
883.812	47.75
883.978	48.81
884.144	48.96
884.31	48.91
884.476	48.54
884.642	49.56
884.807	51.42
884.973	52.11
885.139	52.23
885.305	53.34
885.471	53.24
885.637	53.82
885.802	53.24
885.968	53.18
886.134	55.4
886.3	55.07
886.465	52.59
886.631	53.69
886.797	54.55
886.962	54.41
887.128	54.46
887.293	56.06
887.459	60.38
887.625	60.85
887.79	62.57
887.956	56.04
888.121	58.97
888.287	59.51
888.452	56.26
888.618	54.34
888.783	55.21
