Data from LC_166_Reflection_2.txt Node
Date: Mon Nov 16 23:01:08 EST 2015
User: robert
Spectrometer: USB4E03001
Autoset integration time: false
Trigger mode: 4
Integration Time (sec): 1.000000E-1
Scans to average: 15
Electric dark correction enabled: true
Nonlinearity correction enabled: false
Boxcar width: 5
Stray light correction enabled: false
XAxis mode: Wavelengths
Stop averaging: false
Number of Pixels in Spectrum: 3648
>>>>>Begin Spectral Data<<<<<
177.566	5459.04
177.785	332.72
178.005	-1872.27
178.225	263.34
178.445	414.21
178.665	-98.63
178.885	-233.61
179.105	861.68
179.324	1347.66
179.544	-153.22
179.764	-1354.9
179.984	-465.28
180.204	-241.19
180.423	-214.73
180.643	-413.97
180.863	-304.56
181.083	-206.91
181.302	-284.59
181.522	-199.66
181.742	-156.55
181.961	-268.72
182.181	-207.48
182.401	-266.42
182.621	-1439.57
182.84	-661.68
183.06	-422.45
183.279	-235.82
183.499	-202.15
183.719	-184.54
183.938	-183.11
184.158	-188.64
184.377	-142.82
184.597	-208.33
184.816	-160.25
185.036	-133.11
185.256	-100.27
185.475	-111.49
185.695	-161.26
185.914	-213.65
186.134	-369.67
186.353	-525.41
186.572	-771.23
186.792	-1117.14
187.011	-458.24
187.231	-396.03
187.45	-264.36
187.67	-792.44
187.889	-2291
188.108	4204.01
188.328	-1084.74
188.547	-430.6
188.766	-696.14
188.986	-896.94
189.205	-667.76
189.424	-403.31
189.644	-1067.09
189.863	-1189.94
190.082	-636.27
190.302	-1466.58
190.521	-1027.22
190.74	907.94
190.959	364.14
191.178	586.89
191.398	554.15
191.617	456.92
191.836	460.77
192.055	1113.98
192.274	414.43
192.494	487.65
192.713	487.78
192.932	998.18
193.151	931.12
193.37	1910.58
193.589	-1008.76
193.808	-280.18
194.027	-417.22
194.246	-4066.48
194.465	810.65
194.685	1942.25
194.904	987.87
195.123	-1392.11
195.342	-784.31
195.561	-322.56
195.78	-437.78
195.999	19204.23
196.218	633.93
196.436	506.36
196.655	-1447.84
196.874	-509.74
197.093	-749.77
197.312	-384.7
197.531	703.99
197.75	179.85
197.969	-912.29
198.188	-208.14
198.407	-24.06
198.625	-52.39
198.844	-49.9
199.063	-61.27
199.282	-174.56
199.501	-139.19
199.719	-118.03
199.938	-90.6
200.157	-97.46
200.376	-96.3
200.594	-151.22
200.813	-407.17
201.032	-321.04
201.251	-345.62
201.469	-313.26
201.688	-238.42
201.907	-452.32
202.125	-680.26
202.344	26539.29
202.563	4642.11
202.781	742.6
203	2109.54
203.218	1503.52
203.437	1178.55
203.656	536.68
203.874	328.28
204.093	307.4
204.311	342.65
204.53	346.99
204.748	540.06
204.967	339.28
205.185	351
205.404	429.9
205.622	284.45
205.841	220.79
206.059	241.45
206.278	293.05
206.496	614.29
206.715	376.6
206.933	318.25
207.151	242.24
207.37	306.64
207.588	297.07
207.806	242.86
208.025	496.9
208.243	-1093.45
208.461	1902.09
208.68	-15291.76
208.898	745.78
209.116	807.48
209.335	693.83
209.553	708.85
209.771	6618.33
209.989	1429.62
210.208	3274.33
210.426	-5651.88
210.644	3058.11
210.862	-2401.9
211.081	1283.92
211.299	-582.87
211.517	2364.13
211.735	-642.74
211.953	-178257.14
212.171	-3370.78
212.39	-8512.61
212.608	-19891.3
212.826	881.69
213.044	600.06
213.262	501.77
213.48	2550.21
213.698	288.07
213.916	396.24
214.134	263.09
214.352	650.2
214.57	372.88
214.788	516.58
215.006	422.04
215.224	334.58
215.442	266.92
215.66	258.03
215.878	231.28
216.096	234.11
216.314	264.69
216.532	447.15
216.75	344.87
216.968	372.29
217.185	813.64
217.403	1640.86
217.621	-4637.12
217.839	-1238.84
218.057	-1391.6
218.275	2581.86
218.492	898.69
218.71	1486.78
218.928	476.07
219.146	439.42
219.363	333.33
219.581	262.48
219.799	207.57
220.017	218.77
220.234	220.42
220.452	234.67
220.67	260.86
220.887	241.49
221.105	254.78
221.323	196.87
221.54	185.54
221.758	250.61
221.976	253.56
222.193	207.75
222.411	139.74
222.629	142.81
222.846	162.78
223.064	145.57
223.281	142.95
223.499	135.41
223.716	133.63
223.934	115.68
224.151	121.29
224.369	106.51
224.586	111.99
224.804	105.46
225.021	101.63
225.239	77.81
225.456	91.13
225.674	95.46
225.891	77.64
226.108	92.11
226.326	98.66
226.543	86.99
226.76	85.51
226.978	77.38
227.195	84.12
227.413	72.43
227.63	64.84
227.847	56.95
228.064	47.72
228.282	44.11
228.499	38.93
228.716	33.39
228.934	27.47
229.151	27.37
229.368	25.63
229.585	23.84
229.802	24.44
230.02	23.25
230.237	23.44
230.454	25.69
230.671	27.41
230.888	26.53
231.105	26.38
231.323	29.2
231.54	30.45
231.757	31.97
231.974	31.95
232.191	32.79
232.408	35.64
232.625	32.01
232.842	33.72
233.059	34.98
233.276	34.85
233.493	39.2
233.71	39.89
233.927	40.54
234.144	40.65
234.361	39.48
234.578	42.02
234.795	39.89
235.012	42.37
235.229	39.56
235.446	38.55
235.663	39.74
235.879	42.53
236.096	40.9
236.313	38.96
236.53	37.96
236.747	40.98
236.964	37.23
237.181	41.5
237.397	40.15
237.614	37.13
237.831	34.34
238.048	35.03
238.264	33.14
238.481	31.11
238.698	34.61
238.915	33.15
239.131	28.56
239.348	28.19
239.565	26.61
239.781	27.62
239.998	28.19
240.215	28.44
240.431	27.05
240.648	25.43
240.865	26
241.081	19.77
241.298	19.78
241.514	21.67
241.731	20.54
241.947	20.78
242.164	18.97
242.38	19.95
242.597	18.7
242.814	19.2
243.03	18.99
243.246	19.9
243.463	21.5
243.679	21.86
243.896	18.68
244.112	20.31
244.329	19.59
244.545	20.39
244.762	17.6
244.978	19.02
245.194	17.36
245.411	15.75
245.627	14.82
245.843	15.13
246.06	15.89
246.276	17.22
246.492	16.01
246.709	16.07
246.925	15.53
247.141	15.89
247.357	15.17
247.574	15.46
247.79	15.68
248.006	15.19
248.222	14.63
248.439	13.67
248.655	14.07
248.871	14.8
249.087	14.72
249.303	14.26
249.519	14.71
249.736	16.12
249.952	15.29
250.168	17.67
250.384	18.09
250.6	20.35
250.816	21.83
251.032	20.65
251.248	18.71
251.464	17.87
251.68	18.24
251.896	18.44
252.112	17
252.328	18.46
252.544	17.19
252.76	18.19
252.976	17.66
253.192	17.18
253.408	18.21
253.624	21.5
253.84	20.98
254.056	23.37
254.272	20.11
254.487	22.35
254.703	22.1
254.919	21.22
255.135	18.49
255.351	18.62
255.567	22.26
255.782	23.46
255.998	19.33
256.214	19.96
256.43	15.25
256.646	21.01
256.861	22.22
257.077	23.45
257.293	22.92
257.508	24.54
257.724	25.66
257.94	23.11
258.155	19.45
258.371	18.14
258.587	17.19
258.802	17.84
259.018	16.81
259.234	14.3
259.449	13.67
259.665	13.53
259.88	13.76
260.096	13.18
260.312	12.03
260.527	12.27
260.743	12.83
260.958	13.38
261.174	13.56
261.389	13.67
261.605	14.93
261.82	15.41
262.036	15.19
262.251	15.66
262.466	15.17
262.682	18.27
262.897	19.18
263.113	19.28
263.328	19.73
263.543	20.45
263.759	21.04
263.974	20.49
264.189	18.75
264.405	19.96
264.62	19.01
264.835	19.54
265.051	18.95
265.266	19.99
265.481	19.56
265.696	20.7
265.912	19.25
266.127	16.66
266.342	15.47
266.557	16.69
266.773	15.09
266.988	14.68
267.203	14.12
267.418	13.46
267.633	12.16
267.848	13.81
268.064	11.98
268.279	12.27
268.494	12.64
268.709	13.08
268.924	13.29
269.139	13.86
269.354	13.38
269.569	12.57
269.784	11.71
269.999	12.35
270.214	11.6
270.429	14.49
270.644	13.6
270.859	12.82
271.074	13
271.289	12.53
271.504	13.08
271.719	13.36
271.934	13.45
272.149	14.01
272.363	13.99
272.578	12.97
272.793	11.64
273.008	11.68
273.223	12.4
273.438	12.18
273.653	11.45
273.867	10.84
274.082	10.45
274.297	11.34
274.512	10.99
274.726	10.95
274.941	10.29
275.156	9.25
275.371	10.93
275.585	10.27
275.8	11.12
276.015	11.91
276.229	12.75
276.444	13.61
276.659	13.72
276.873	14.16
277.088	14.15
277.302	15.14
277.517	16.9
277.732	17.44
277.946	18.79
278.161	19.85
278.375	18.87
278.59	18.48
278.804	17.54
279.019	17.16
279.233	16.62
279.448	15.82
279.662	15.99
279.877	14.88
280.091	12.55
280.306	10.4
280.52	9.1
280.735	7.88
280.949	7.31
281.163	8.42
281.378	8.18
281.592	7.79
281.806	8.64
282.021	7.59
282.235	8.48
282.449	9.84
282.664	11.23
282.878	10.93
283.092	12.71
283.307	12.76
283.521	13.2
283.735	13.01
283.949	14.23
284.164	13.92
284.378	15.16
284.592	13.27
284.806	11.98
285.02	12.02
285.234	11.81
285.449	11.13
285.663	11.24
285.877	9.98
286.091	10.53
286.305	9.63
286.519	9.59
286.733	8.57
286.947	9.93
287.161	9.93
287.375	10.1
287.589	11.16
287.803	12.28
288.017	12.51
288.231	13.09
288.445	11.96
288.659	13.08
288.873	12.63
289.087	13.49
289.301	12.56
289.515	13.3
289.729	11.88
289.943	11.01
290.157	10.43
290.371	11.3
290.584	11.16
290.798	12.78
291.012	12.48
291.226	12.84
291.44	13.6
291.654	14.25
291.867	14.3
292.081	15.09
292.295	16.01
292.509	16.14
292.722	15.19
292.936	15.53
293.15	16.04
293.364	14.84
293.577	15.82
293.791	14.93
294.005	15.29
294.218	14.91
294.432	15.27
294.645	14.72
294.859	14.3
295.073	14.7
295.286	15.28
295.5	14.23
295.713	14.82
295.927	14.32
296.14	14.5
296.354	13.97
296.568	13.43
296.781	13.53
296.994	13.28
297.208	12.67
297.421	12.71
297.635	12.05
297.848	12.14
298.062	12.69
298.275	12.51
298.489	11.42
298.702	11.53
298.915	12.78
299.129	13.42
299.342	13.43
299.555	14.54
299.769	14.41
299.982	14.67
300.195	14.8
300.409	14.62
300.622	15.58
300.835	17.67
301.048	17.96
301.262	17.4
301.475	16.18
301.688	16.51
301.901	17.33
302.115	17.8
302.328	18.2
302.541	17.36
302.754	17.6
302.967	17.28
303.18	16.59
303.393	15.8
303.607	15.5
303.82	15.56
304.033	15.41
304.246	14.1
304.459	14.92
304.672	14.4
304.885	15.13
305.098	14.44
305.311	13.34
305.524	13.74
305.737	15.39
305.95	16.34
306.163	16.15
306.376	15.19
306.589	15.07
306.802	11.93
307.015	13.03
307.228	12.31
307.44	12.59
307.653	13.29
307.866	12.08
308.079	12.22
308.292	11.73
308.505	12.34
308.718	12.49
308.93	12.7
309.143	14.26
309.356	13.63
309.569	13.62
309.781	14.13
309.994	14.33
310.207	14.86
310.42	12.52
310.632	12.29
310.845	12.37
311.058	12.51
311.27	13.49
311.483	13.93
311.696	13.5
311.908	13.47
312.121	13.61
312.333	14.19
312.546	13.77
312.759	14.9
312.971	15.21
313.184	15.64
313.396	15.77
313.609	15.99
313.821	15.13
314.034	16.31
314.246	16.5
314.459	15.18
314.671	14.99
314.884	14.93
315.096	14.36
315.309	13.73
315.521	14.19
315.733	13.27
315.946	11.55
316.158	11.91
316.371	10.53
316.583	11.44
316.795	11.38
317.008	11.43
317.22	13.06
317.432	13.67
317.644	13.21
317.857	11.66
318.069	12.54
318.281	12.99
318.494	13.11
318.706	14.49
318.918	13.39
319.13	14.46
319.342	14.43
319.555	13.81
319.767	14.77
319.979	16.02
320.191	17.28
320.403	16.83
320.615	16.99
320.827	17.84
321.039	16.44
321.252	17.03
321.464	15.76
321.676	14.34
321.888	13.57
322.1	12.61
322.312	11.07
322.524	9.12
322.736	10.43
322.948	9.75
323.16	8.07
323.372	9.75
323.584	10.22
323.796	8.89
324.007	9.6
324.219	10.38
324.431	10.98
324.643	12.38
324.855	13.57
325.067	12.79
325.279	13.24
325.491	13.68
325.702	12.24
325.914	11.72
326.126	14.37
326.338	14.66
326.55	13.82
326.761	13.8
326.973	14.17
327.185	14.17
327.396	14.88
327.608	15.05
327.82	15.3
328.032	15.91
328.243	15.22
328.455	15.45
328.666	14.78
328.878	15.57
329.09	14.84
329.301	13.3
329.513	12.37
329.725	11.29
329.936	11.77
330.148	11.54
330.359	11.38
330.571	12.19
330.782	11.81
330.994	12.74
331.205	11.93
331.417	12.07
331.628	12.1
331.84	13.32
332.051	14.33
332.262	15.87
332.474	16.05
332.685	16.63
332.897	16.35
333.108	16.25
333.319	15.02
333.531	15.3
333.742	15.92
333.953	15.9
334.165	15.06
334.376	14.72
334.587	12.61
334.799	12.65
335.01	11.97
335.221	11.68
335.432	10.65
335.644	10.86
335.855	10.88
336.066	10.92
336.277	11.79
336.488	12.14
336.7	11.78
336.911	12.09
337.122	12.06
337.333	12.91
337.544	14.29
337.755	14.64
337.966	14.95
338.177	15.24
338.388	15.01
338.599	14.82
338.811	14.94
339.022	14.76
339.233	14.53
339.444	14.65
339.655	12.79
339.866	12.35
340.076	12.59
340.287	13.31
340.498	13.25
340.709	12.4
340.92	11.83
341.131	11.21
341.342	11.61
341.553	11.32
341.764	11.59
341.975	12.84
342.185	12.14
342.396	11.86
342.607	10.62
342.818	10.61
343.029	11.48
343.239	12.39
343.45	12.45
343.661	11.8
343.872	12.02
344.082	11.23
344.293	10.89
344.504	12.59
344.714	11.89
344.925	11.59
345.136	11.61
345.346	10.54
345.557	9.81
345.768	9.76
345.978	10.11
346.189	9.9
346.399	9.84
346.61	10.06
346.821	8.47
347.031	9.71
347.242	10.18
347.452	9.75
347.663	10.43
347.873	11.06
348.084	11.82
348.294	12.68
348.504	12.78
348.715	12.75
348.925	12.07
349.136	11.23
349.346	10.24
349.557	10.77
349.767	11.58
349.977	11.28
350.188	11.46
350.398	11.51
350.608	10.55
350.819	10.29
351.029	10.45
351.239	11.13
351.449	11.88
351.66	12.52
351.87	12.73
352.08	12.01
352.29	11.6
352.501	10.14
352.711	9.4
352.921	10.3
353.131	10.54
353.341	11.17
353.552	10.94
353.762	10.6
353.972	10.48
354.182	10.25
354.392	10.08
354.602	10.31
354.812	10.86
355.022	11
355.232	10.78
355.442	10.93
355.652	10.72
355.862	9.84
356.072	10.59
356.282	10.34
356.492	10.12
356.702	10.38
356.912	10.89
357.122	10.96
357.332	10.73
357.542	9.83
357.752	9.68
357.962	9.07
358.171	9.32
358.381	9.07
358.591	9.25
358.801	9.08
359.011	9.42
359.221	9.11
359.43	9.72
359.64	9.94
359.85	10.19
360.06	10.51
360.269	10.75
360.479	10.9
360.689	10.24
360.899	10.01
361.108	10.1
361.318	9.74
361.528	9.5
361.737	8.77
361.947	8.49
362.156	8.62
362.366	8.27
362.576	8.27
362.785	8.31
362.995	8.47
363.204	8.1
363.414	7.86
363.623	7.5
363.833	8
364.042	8.06
364.252	8.54
364.461	8.19
364.671	8.02
364.88	8.6
365.09	8.76
365.299	9.13
365.509	8.94
365.718	9.07
365.927	9.48
366.137	9.26
366.346	9.15
366.555	8.55
366.765	8.43
366.974	8.74
367.183	8.18
367.393	7.67
367.602	7.11
367.811	7.52
368.021	7.53
368.23	7.38
368.439	7.3
368.648	7.28
368.857	7.56
369.067	8.19
369.276	7.54
369.485	7.9
369.694	8.28
369.903	8.5
370.112	8.38
370.321	8.09
370.531	7.77
370.74	7.64
370.949	7.43
371.158	7.26
371.367	7.29
371.576	7.71
371.785	6.99
371.994	6.73
372.203	6.94
372.412	6.89
372.621	7.75
372.83	7.98
373.039	8.27
373.248	8.28
373.457	8.53
373.666	7.97
373.874	7.97
374.083	8.5
374.292	8.52
374.501	8.26
374.71	8.1
374.919	7.52
375.128	7.26
375.336	7.28
375.545	7.78
375.754	7.51
375.963	7.68
376.171	7.66
376.38	7.95
376.589	8.38
376.798	8.18
377.006	8.63
377.215	8.78
377.424	8.51
377.632	8.35
377.841	8.11
378.05	8.03
378.258	8.22
378.467	8.13
378.675	7.71
378.884	7.31
379.093	7.48
379.301	7.08
379.51	6.58
379.718	6.8
379.927	7.02
380.135	6.67
380.344	6.82
380.552	6.24
380.761	6.22
380.969	6.27
381.177	6.39
381.386	5.78
381.594	5.7
381.803	5.76
382.011	5.8
382.219	5.57
382.428	5.31
382.636	4.86
382.845	5.33
383.053	5.39
383.261	4.92
383.469	4.91
383.678	5.49
383.886	5.73
384.094	5.76
384.302	6.06
384.511	6.22
384.719	6.52
384.927	6.81
385.135	6.77
385.343	6.84
385.552	7.03
385.76	6.97
385.968	6.7
386.176	6.6
386.384	6.58
386.592	6.2
386.8	5.88
387.008	6.23
387.216	6.22
387.424	6.21
387.633	6.33
387.841	6.31
388.049	6.51
388.257	6.57
388.465	6.42
388.672	6.55
388.88	6.54
389.088	6.35
389.296	5.88
389.504	6.11
389.712	6.3
389.92	6.19
390.128	6.3
390.336	6.07
390.544	6.55
390.751	6.37
390.959	6.23
391.167	6.34
391.375	6.79
391.583	6.73
391.79	6.45
391.998	6.37
392.206	6.3
392.414	6.12
392.621	6.08
392.829	6.06
393.037	6.14
393.244	6.33
393.452	6.59
393.66	6.42
393.867	6.7
394.075	6.58
394.283	6.38
394.49	6.12
394.698	6.28
394.905	6.29
395.113	6.18
395.32	6.26
395.528	5.92
395.735	5.87
395.943	5.83
396.15	5.74
396.358	5.99
396.565	5.91
396.773	6.38
396.98	6.26
397.188	6.21
397.395	6.05
397.602	6.21
397.81	6.24
398.017	6.21
398.225	6.07
398.432	6.49
398.639	6.42
398.847	6.78
399.054	6.43
399.261	6.16
399.468	6.32
399.676	6.13
399.883	5.98
400.09	6.19
400.297	6.18
400.505	6.45
400.712	6.08
400.919	6.43
401.126	6.25
401.333	6.45
401.54	6.56
401.748	6.37
401.955	6.55
402.162	6.88
402.369	6.93
402.576	6.79
402.783	6.69
402.99	6.79
403.197	6.5
403.404	6.23
403.611	6.09
403.818	6.14
404.025	6.05
404.232	6.11
404.439	5.55
404.646	5.3
404.853	5.17
405.06	5.14
405.267	4.79
405.474	4.83
405.681	5.01
405.887	5.05
406.094	5.28
406.301	5.37
406.508	5.35
406.715	5.71
406.922	5.78
407.128	5.61
407.335	5.66
407.542	5.95
407.749	5.93
407.955	6.14
408.162	5.97
408.369	6.06
408.575	5.96
408.782	5.67
408.989	5.59
409.195	5.55
409.402	5.87
409.609	5.8
409.815	5.86
410.022	5.64
410.228	5.39
410.435	5.65
410.642	5.25
410.848	5.49
411.055	5.53
411.261	5.48
411.468	5.73
411.674	5.39
411.881	5.32
412.087	5.31
412.294	5.51
412.5	5.43
412.706	5.42
412.913	5.49
413.119	5.29
413.326	5.09
413.532	5.18
413.738	4.89
413.945	5.27
414.151	5.11
414.357	5.14
414.564	5.2
414.77	5.42
414.976	5.21
415.182	5.53
415.389	5.7
415.595	5.94
415.801	5.74
416.007	5.83
416.214	5.75
416.42	5.93
416.626	5.71
416.832	5.52
417.038	5.32
417.244	5.28
417.45	4.94
417.657	4.96
417.863	5.01
418.069	5.18
418.275	5.32
418.481	5.16
418.687	4.96
418.893	4.99
419.099	5.08
419.305	5.29
419.511	5.34
419.717	5.35
419.923	5.12
420.129	5.07
420.335	5.02
420.541	4.74
420.746	4.75
420.952	4.85
421.158	4.86
421.364	4.66
421.57	4.65
421.776	4.57
421.982	4.6
422.187	4.55
422.393	4.51
422.599	4.4
422.805	4.48
423.01	4.49
423.216	4.32
423.422	4.26
423.628	4.42
423.833	4.23
424.039	4.29
424.245	4.26
424.45	4.44
424.656	4.53
424.862	4.58
425.067	4.66
425.273	4.63
425.478	4.77
425.684	4.85
425.889	5.04
426.095	5.24
426.301	5.25
426.506	5.26
426.712	5.18
426.917	5
427.123	5.17
427.328	5.05
427.533	5.19
427.739	5.25
427.944	5.23
428.15	4.86
428.355	4.78
428.561	4.71
428.766	4.65
428.971	4.62
429.177	4.87
429.382	4.83
429.587	5
429.793	4.8
429.998	4.7
430.203	4.62
430.408	4.69
430.614	4.71
430.819	4.69
431.024	4.92
431.229	4.86
431.434	4.78
431.64	4.55
431.845	4.52
432.05	4.67
432.255	4.71
432.46	4.68
432.665	4.62
432.87	4.62
433.076	4.66
433.281	4.65
433.486	4.66
433.691	4.48
433.896	4.37
434.101	4.3
434.306	4.37
434.511	4.3
434.716	4.32
434.921	4.36
435.126	4.07
435.331	3.91
435.535	3.69
435.74	3.73
435.945	3.94
436.15	3.93
436.355	4.04
436.56	3.88
436.765	3.99
436.97	3.85
437.174	3.97
437.379	4.28
437.584	4.49
437.789	4.53
437.993	4.6
438.198	4.52
438.403	4.82
438.608	4.76
438.812	4.62
439.017	4.58
439.222	4.58
439.426	4.35
439.631	4.36
439.836	4.17
440.04	4.31
440.245	4.3
440.45	4.37
440.654	4.13
440.859	3.98
441.063	4.06
441.268	3.96
441.472	4.04
441.677	4.18
441.881	4.02
442.086	4.1
442.29	4.01
442.495	3.9
442.699	3.85
442.904	3.9
443.108	4.02
443.312	4.14
443.517	4.23
443.721	4.22
443.925	4.2
444.13	4.23
444.334	4.17
444.538	4.13
444.743	4.07
444.947	3.96
445.151	4.01
445.356	3.98
445.56	4.02
445.764	4
445.968	4
446.173	3.82
446.377	3.89
446.581	3.96
446.785	3.91
446.989	3.99
447.193	4.02
447.398	3.98
447.602	4.02
447.806	4.02
448.01	4.03
448.214	4
448.418	4.1
448.622	4.1
448.826	4.11
449.03	4.32
449.234	4.27
449.438	4.25
449.642	4.27
449.846	4.26
450.05	4.19
450.254	4.07
450.458	4.19
450.662	4.25
450.866	4.05
451.069	4
451.273	3.7
451.477	3.64
451.681	3.55
451.885	3.42
452.089	3.35
452.292	3.37
452.496	3.5
452.7	3.4
452.904	3.39
453.107	3.54
453.311	3.55
453.515	3.61
453.719	3.56
453.922	3.67
454.126	3.78
454.33	3.82
454.533	3.67
454.737	3.53
454.94	3.53
455.144	3.59
455.348	3.61
455.551	3.59
455.755	3.44
455.958	3.64
456.162	3.59
456.365	3.6
456.569	3.51
456.772	3.44
456.976	3.64
457.179	3.77
457.383	3.74
457.586	3.87
457.79	3.81
457.993	4.04
458.196	3.88
458.4	3.88
458.603	3.9
458.807	4.03
459.01	4.26
459.213	4.01
459.417	3.81
459.62	3.77
459.823	3.58
460.026	3.56
460.23	3.55
460.433	3.63
460.636	3.63
460.839	3.59
461.042	3.52
461.246	3.36
461.449	3.41
461.652	3.54
461.855	3.45
462.058	3.47
462.261	3.42
462.464	3.32
462.668	3.51
462.871	3.49
463.074	3.73
463.277	3.64
463.48	3.71
463.683	3.85
463.886	3.76
464.089	3.82
464.292	3.95
464.495	4.1
464.698	3.97
464.901	3.85
465.104	3.92
465.306	3.81
465.509	3.87
465.712	3.82
465.915	3.86
466.118	3.79
466.321	3.67
466.524	3.64
466.726	3.69
466.929	3.95
467.132	3.92
467.335	3.74
467.538	3.61
467.74	3.52
467.943	3.75
468.146	3.86
468.348	3.89
468.551	4.09
468.754	4.01
468.956	3.83
469.159	3.75
469.362	3.66
469.564	3.73
469.767	3.76
469.969	3.71
470.172	3.39
470.375	3.18
470.577	3.24
470.78	3.17
470.982	3.23
471.185	3.3
471.387	3.41
471.59	3.4
471.792	3.45
471.995	3.46
472.197	3.53
472.399	3.53
472.602	3.44
472.804	3.47
473.007	3.46
473.209	3.45
473.411	3.44
473.614	3.42
473.816	3.42
474.018	3.51
474.22	3.55
474.423	3.69
474.625	3.76
474.827	3.88
475.03	3.93
475.232	3.93
475.434	3.95
475.636	4.03
475.838	3.95
476.04	3.93
476.243	3.83
476.445	3.86
476.647	3.74
476.849	3.71
477.051	3.74
477.253	3.69
477.455	3.79
477.657	3.59
477.859	3.48
478.061	3.37
478.263	3.36
478.465	3.45
478.667	3.41
478.869	3.32
479.071	3.33
479.273	3.34
479.475	3.2
479.677	3.09
479.879	3.11
480.081	3.13
480.283	3.16
480.485	3.18
480.686	3.07
480.888	3.09
481.09	3.21
481.292	3.19
481.494	3.18
481.695	3.19
481.897	3.06
482.099	3.1
482.301	3.16
482.502	3.13
482.704	3.13
482.906	3.05
483.107	3.03
483.309	2.97
483.511	3.01
483.712	2.94
483.914	2.9
484.115	2.97
484.317	2.98
484.519	2.94
484.72	2.95
484.922	2.92
485.123	3
485.325	2.99
485.526	3.02
485.728	3
485.929	3.02
486.131	3.14
486.332	3.13
486.534	3.04
486.735	3.09
486.936	3
487.138	2.96
487.339	2.87
487.541	2.89
487.742	2.89
487.943	2.9
488.144	2.91
488.346	2.8
488.547	2.79
488.748	2.87
488.95	2.82
489.151	2.88
489.352	2.98
489.553	3.04
489.755	3.01
489.956	3.02
490.157	3.03
490.358	3.04
490.559	3.16
490.76	3.11
490.961	3.1
491.163	3.14
491.364	3.25
491.565	3.2
491.766	3.28
491.967	3.31
492.168	3.28
492.369	3.32
492.57	3.34
492.771	3.37
492.972	3.44
493.173	3.54
493.374	3.52
493.575	3.49
493.776	3.54
493.976	3.48
494.177	3.54
494.378	3.57
494.579	3.5
494.78	3.7
494.981	3.66
495.182	3.52
495.382	3.41
495.583	3.3
495.784	3.27
495.985	3.37
496.185	3.33
496.386	3.29
496.587	3.49
496.788	3.51
496.988	3.41
497.189	3.44
497.39	3.56
497.59	3.54
497.791	3.65
497.992	3.63
498.192	3.55
498.393	3.58
498.593	3.59
498.794	3.35
498.994	3.42
499.195	3.42
499.395	3.49
499.596	3.6
499.796	3.66
499.997	3.69
500.197	3.83
500.398	3.91
500.598	4.05
500.799	4.03
500.999	4.22
501.199	4.08
501.4	4.17
501.6	3.96
501.801	4.02
502.001	4.16
502.201	4.32
502.402	4.32
502.602	4.29
502.802	4.2
503.002	4.17
503.203	4.21
503.403	4.18
503.603	4.05
503.803	4.17
504.003	4.04
504.204	3.94
504.404	3.91
504.604	3.79
504.804	3.77
505.004	3.85
505.204	3.94
505.404	4.1
505.604	4.32
505.804	4.25
506.005	4.22
506.205	4.18
506.405	4.22
506.605	4.17
506.805	4.33
507.005	4.49
507.204	4.45
507.404	4.54
507.604	4.28
507.804	4.22
508.004	4.27
508.204	4.36
508.404	4.34
508.604	4.32
508.804	4.31
509.003	4.25
509.203	4.15
509.403	4.06
509.603	3.99
509.803	4.18
510.002	4.17
510.202	4.22
510.402	4.26
510.602	4.4
510.801	4.45
511.001	4.5
511.201	4.5
511.4	4.54
511.6	4.63
511.8	4.64
511.999	4.66
512.199	4.62
512.398	4.65
512.598	4.63
512.797	4.68
512.997	4.77
513.197	4.77
513.396	4.82
513.596	4.89
513.795	5
513.994	4.96
514.194	4.88
514.393	4.94
514.593	4.95
514.792	4.87
514.992	4.77
515.191	4.7
515.39	4.72
515.59	4.71
515.789	4.56
515.988	4.62
516.188	4.61
516.387	4.6
516.586	4.61
516.786	4.62
516.985	4.74
517.184	4.83
517.383	4.93
517.582	4.95
517.782	4.99
517.981	5.08
518.18	4.95
518.379	5.14
518.578	5.16
518.777	5.23
518.976	5.26
519.176	5.36
519.375	5.41
519.574	5.4
519.773	5.43
519.972	5.33
520.171	5.32
520.37	5.44
520.569	5.42
520.768	5.35
520.967	5.39
521.166	5.35
521.365	5.19
521.564	5.21
521.762	5.25
521.961	5.23
522.16	5.32
522.359	5.29
522.558	5.25
522.757	5.22
522.956	5.39
523.154	5.35
523.353	5.45
523.552	5.5
523.751	5.6
523.949	5.53
524.148	5.6
524.347	5.67
524.546	5.75
524.744	5.69
524.943	5.7
525.142	5.66
525.34	5.72
525.539	5.7
525.737	5.82
525.936	5.67
526.135	5.7
526.333	5.65
526.532	5.69
526.73	5.77
526.929	5.77
527.127	5.78
527.326	5.83
527.524	5.83
527.723	5.82
527.921	5.85
528.12	5.89
528.318	5.89
528.516	5.93
528.715	5.92
528.913	5.91
529.112	5.96
529.31	5.96
529.508	5.92
529.707	5.95
529.905	6
530.103	5.99
530.301	6.06
530.5	6.13
530.698	6.17
530.896	6.25
531.094	6.32
531.293	6.42
531.491	6.54
531.689	6.65
531.887	6.64
532.085	6.7
532.283	6.69
532.481	6.7
532.68	6.63
532.878	6.69
533.076	6.71
533.274	6.65
533.472	6.72
533.67	6.7
533.868	6.77
534.066	6.86
534.264	6.87
534.462	6.98
534.66	6.98
534.858	7.1
535.056	7.16
535.253	7.13
535.451	7.27
535.649	7.27
535.847	7.41
536.045	7.41
536.243	7.54
536.441	7.67
536.638	7.66
536.836	7.76
537.034	7.75
537.232	7.79
537.43	7.98
537.627	8.03
537.825	8
538.023	8.07
538.22	8.29
538.418	8.29
538.616	8.28
538.813	8.52
539.011	8.75
539.209	8.93
539.406	8.93
539.604	8.99
539.801	9.11
539.999	9.21
540.196	9.17
540.394	9.05
540.591	9.14
540.789	9.18
540.986	9.02
541.184	8.94
541.381	8.95
541.579	9
541.776	8.98
541.974	8.94
542.171	8.97
542.368	9.02
542.566	9.11
542.763	9.15
542.96	9.15
543.158	9.34
543.355	9.44
543.552	9.59
543.75	9.76
543.947	9.79
544.144	9.9
544.341	10.07
544.539	10.21
544.736	10.3
544.933	10.21
545.13	10.31
545.327	10.23
545.524	10.21
545.722	10.32
545.919	10.3
546.116	10.51
546.313	10.55
546.51	10.6
546.707	10.68
546.904	10.82
547.101	11.01
547.298	11.22
547.495	11.4
547.692	11.49
547.889	11.48
548.086	11.65
548.283	11.72
548.48	11.95
548.677	11.93
548.874	12.05
549.07	11.98
549.267	12.08
549.464	12.06
549.661	12.26
549.858	12.46
550.055	12.9
550.251	12.92
550.448	12.94
550.645	13.01
550.842	13.19
551.038	13.22
551.235	13.33
551.432	13.38
551.628	13.45
551.825	13.56
552.022	13.56
552.218	13.35
552.415	13.61
552.612	13.71
552.808	13.64
553.005	13.57
553.201	13.72
553.398	13.7
553.594	13.78
553.791	14.01
553.987	13.97
554.184	14.11
554.38	14.2
554.577	13.96
554.773	14.12
554.97	14.46
555.166	14.71
555.362	14.7
555.559	14.88
555.755	15.09
555.952	15.03
556.148	15.13
556.344	15.15
556.541	15.11
556.737	15.51
556.933	15.68
557.129	15.6
557.326	15.69
557.522	15.98
557.718	16.26
557.914	16.15
558.11	16.21
558.307	16.36
558.503	16.6
558.699	16.75
558.895	16.78
559.091	16.81
559.287	16.88
559.483	17.01
559.679	17.06
559.876	17
560.072	17.17
560.268	17.33
560.464	17.19
560.66	17.11
560.856	17.27
561.052	17.25
561.247	17.44
561.443	17.61
561.639	17.52
561.835	17.52
562.031	17.62
562.227	17.73
562.423	17.85
562.619	18.09
562.815	18.4
563.01	18.5
563.206	18.58
563.402	18.62
563.598	18.55
563.793	18.78
563.989	18.75
564.185	18.79
564.381	19.01
564.576	19.18
564.772	19.3
564.968	19.24
565.163	19.29
565.359	19.06
565.555	19.17
565.75	19.37
565.946	19.5
566.141	19.6
566.337	19.77
566.532	19.91
566.728	20.09
566.923	20.21
567.119	20.19
567.314	20.25
567.51	20.76
567.705	20.73
567.901	20.73
568.096	20.83
568.292	21.02
568.487	21.14
568.682	20.99
568.878	20.86
569.073	20.87
569.268	21.07
569.464	21.2
569.659	21.21
569.854	21.38
570.05	21.51
570.245	21.5
570.44	21.66
570.635	21.73
570.831	21.92
571.026	22.17
571.221	22.17
571.416	22.12
571.611	22.17
571.806	22.11
572.002	22.2
572.197	22.28
572.392	22.3
572.587	22.28
572.782	22.47
572.977	22.7
573.172	22.74
573.367	22.82
573.562	23.16
573.757	23.18
573.952	23.37
574.147	23.51
574.342	23.77
574.537	23.9
574.732	23.93
574.927	23.76
575.121	23.7
575.316	23.56
575.511	23.64
575.706	23.5
575.901	23.6
576.096	23.71
576.29	23.61
576.485	23.43
576.68	23.61
576.875	23.73
577.069	23.96
577.264	23.94
577.459	24
577.654	24.12
577.848	24.33
578.043	24.5
578.238	24.58
578.432	24.6
578.627	24.53
578.821	24.45
579.016	24.38
579.21	24.42
579.405	24.33
579.6	24.65
579.794	24.57
579.989	24.41
580.183	24.32
580.378	24.25
580.572	24.59
580.766	24.71
580.961	24.84
581.155	25.19
581.35	25.1
581.544	25.12
581.738	24.96
581.933	25.11
582.127	25.46
582.321	25.63
582.516	25.58
582.71	25.58
582.904	25.85
583.099	25.68
583.293	25.43
583.487	25.69
583.681	26.2
583.875	26.37
584.07	26.51
584.264	26.46
584.458	26.39
584.652	26.19
584.846	26.13
585.04	26.2
585.234	26.4
585.428	26.47
585.623	26.27
585.817	26.1
586.011	25.96
586.205	26.24
586.399	26.37
586.593	26.46
586.787	27
586.981	26.82
587.174	27.01
587.368	26.92
587.562	26.95
587.756	27.29
587.95	27.29
588.144	27.55
588.338	27.42
588.532	27.49
588.725	27.59
588.919	27.46
589.113	27.57
589.307	27.23
589.501	27.29
589.694	27.5
589.888	27.39
590.082	27.37
590.275	27.36
590.469	27.59
590.663	27.32
590.856	27.36
591.05	27.63
591.244	27.6
591.437	27.99
591.631	28.14
591.824	27.98
592.018	28.12
592.212	28.3
592.405	28.01
592.599	27.87
592.792	27.86
592.986	27.94
593.179	27.75
593.372	28.02
593.566	27.97
593.759	28.21
593.953	28.49
594.146	28.31
594.339	28.38
594.533	28.88
594.726	28.94
594.92	29.09
595.113	29.1
595.306	29.1
595.499	29.03
595.693	28.96
595.886	28.88
596.079	28.99
596.272	29
596.466	29
596.659	28.96
596.852	28.98
597.045	29.08
597.238	29.13
597.431	29.2
597.624	29.27
597.818	29.39
598.011	29.27
598.204	29.16
598.397	29.46
598.59	29.34
598.783	29.46
598.976	29.37
599.169	29.44
599.362	29.45
599.555	29.71
599.748	30.03
599.941	30.04
600.134	30.23
600.326	30.35
600.519	30.47
600.712	30.66
600.905	30.55
601.098	30.62
601.291	30.57
601.483	30.61
601.676	30.49
601.869	30.23
602.062	30.3
602.255	30.12
602.447	30.33
602.64	30.01
602.833	30.15
603.025	29.96
603.218	30.01
603.411	29.97
603.603	29.9
603.796	29.84
603.989	29.79
604.181	29.79
604.374	30.08
604.566	29.85
604.759	30.05
604.951	30.07
605.144	30.32
605.336	30.47
605.529	30.42
605.721	30.44
605.914	30.44
606.106	30.62
606.299	30.64
606.491	30.54
606.683	30.74
606.876	30.48
607.068	30.42
607.26	30.56
607.453	30.61
607.645	30.83
607.837	30.91
608.03	31.02
608.222	30.82
608.414	30.91
608.606	30.83
608.799	30.78
608.991	30.87
609.183	30.94
609.375	30.73
609.567	30.5
609.759	30.53
609.952	30.45
610.144	30.46
610.336	30.68
610.528	30.66
610.72	30.6
610.912	30.61
611.104	30.77
611.296	30.6
611.488	30.75
611.68	31.2
611.872	31.11
612.064	31.47
612.256	31.74
612.448	31.76
612.64	31.57
612.832	31.75
613.023	31.81
613.215	31.97
613.407	32.06
613.599	31.82
613.791	31.52
613.983	31.46
614.174	31.16
614.366	30.98
614.558	30.71
614.75	30.89
614.941	30.83
615.133	31.01
615.325	31.09
615.516	31.21
615.708	31.27
615.9	30.91
616.091	31.09
616.283	31.17
616.475	31.07
616.666	31.16
616.858	31.33
617.049	31.31
617.241	30.97
617.432	30.88
617.624	31.07
617.815	31.16
618.007	31.41
618.198	31.76
618.39	31.72
618.581	31.75
618.773	31.95
618.964	31.77
619.155	32.08
619.347	32.35
619.538	32.43
619.729	32.49
619.921	32.51
620.112	32.55
620.303	32.54
620.494	32.86
620.686	33.08
620.877	33.09
621.068	33.35
621.259	33.13
621.451	33.1
621.642	32.91
621.833	32.56
622.024	32.75
622.215	33.05
622.406	33.09
622.597	32.82
622.788	32.79
622.98	32.81
623.171	32.76
623.362	33.07
623.553	33.2
623.744	33.14
623.935	33.53
624.126	33.45
624.317	33.34
624.508	33.35
624.698	33.28
624.889	33.15
625.08	33.33
625.271	33.44
625.462	33.14
625.653	33.15
625.844	33.2
626.034	32.87
626.225	32.86
626.416	32.69
626.607	32.49
626.798	32.77
626.988	32.73
627.179	32.55
627.37	32.2
627.56	32.41
627.751	32.47
627.942	32.53
628.132	32.7
628.323	32.68
628.514	33.05
628.704	33.1
628.895	33.01
629.085	33.11
629.276	33.1
629.466	33.33
629.657	33.24
629.847	33.12
630.038	33.05
630.228	32.84
630.419	32.78
630.609	32.48
630.8	32.47
630.99	32.37
631.181	32.34
631.371	32.4
631.561	32.59
631.752	32.7
631.942	32.49
632.132	32.71
632.323	32.92
632.513	33.1
632.703	33.24
632.893	33.17
633.084	33.32
633.274	33.45
633.464	33.46
633.654	33.35
633.844	33.38
634.034	33.53
634.225	33.28
634.415	33.16
634.605	33.26
634.795	33.21
634.985	33.41
635.175	33.21
635.365	33.15
635.555	33.35
635.745	33.35
635.935	33.35
636.125	33.43
636.315	33.79
636.505	33.92
636.695	33.63
636.885	33.86
637.075	33.79
637.265	34.17
637.455	34.18
637.644	34.11
637.834	34.12
638.024	34.09
638.214	34.33
638.404	34.25
638.593	34.37
638.783	34.66
638.973	34.55
639.163	34.39
639.352	34.27
639.542	34.58
639.732	34.8
639.921	35
640.111	35.33
640.301	35.09
640.49	35.07
640.68	34.99
640.87	34.82
641.059	34.82
641.249	35.16
641.438	35.15
641.628	34.7
641.817	34.6
642.007	34.65
642.196	34.26
642.386	34.33
642.575	34.52
642.764	34.29
642.954	34.36
643.143	34.23
643.333	34.18
643.522	34.15
643.711	34.21
643.901	34.03
644.09	34.05
644.279	34.28
644.469	34
644.658	33.89
644.847	34.17
645.036	34.31
645.226	34.45
645.415	34.26
645.604	34.24
645.793	34.5
645.982	34.28
646.171	34.17
646.361	34.26
646.55	34.74
646.739	34.63
646.928	34.9
647.117	34.89
647.306	34.61
647.495	34.8
647.684	34.87
647.873	34.69
648.062	34.96
648.251	35.18
648.44	34.97
648.629	34.67
648.818	34.73
649.007	34.17
649.196	34.15
649.384	34.4
649.573	34.22
649.762	34.28
649.951	34.24
650.14	34.52
650.328	34.57
650.517	34.85
650.706	35.21
650.895	35.4
651.083	35.93
651.272	36.01
651.461	36.35
651.65	36.99
651.838	36.51
652.027	36.45
652.216	35.85
652.404	36
652.593	36.07
652.781	35.77
652.97	35.6
653.158	35.75
653.347	35.95
653.535	35.48
653.724	34.55
653.912	35.18
654.101	35.65
654.289	36.32
654.478	35.98
654.666	35.54
654.855	35.67
655.043	35.22
655.231	34.48
655.42	34.53
655.608	34.65
655.796	35.07
655.985	34.93
656.173	34.62
656.361	34.47
656.55	34.37
656.738	34.43
656.926	34.41
657.114	35.13
657.302	35.57
657.491	34.7
657.679	34.38
657.867	34.81
658.055	34.59
658.243	34.81
658.431	34.73
658.619	34.69
658.807	35.04
658.996	34.94
659.184	34.49
659.372	34.57
659.56	35
659.748	34.96
659.936	34.75
660.124	34.92
660.311	34.97
660.499	34.81
660.687	35.17
660.875	34.98
661.063	35.22
661.251	35.58
661.439	35.65
661.627	35.84
661.814	36.15
662.002	36.04
662.19	36.01
662.378	35.73
662.565	36.11
662.753	35.74
662.941	35.69
663.129	35.48
663.316	35.61
663.504	35.38
663.692	35.66
663.879	35.84
664.067	35.85
664.254	36.26
664.442	36.41
664.63	35.88
664.817	36.27
665.005	36.12
665.192	36.22
665.38	35.75
665.567	35.57
665.755	35.29
665.942	35.35
666.13	35.73
666.317	35.62
666.504	35.36
666.692	36.15
666.879	35.53
667.067	35.62
667.254	35.72
667.441	35.83
667.629	35.75
667.816	35.71
668.003	35.54
668.19	35.26
668.378	35.01
668.565	35.13
668.752	34.93
668.939	35.42
669.127	35.41
669.314	35.39
669.501	35.7
669.688	36.27
669.875	36.07
670.062	36.11
670.249	36.46
670.436	36.45
670.623	36.58
670.81	36.3
670.997	36.33
671.184	36.3
671.371	36.33
671.558	36.27
671.745	35.98
671.932	36.26
672.119	36.21
672.306	35.62
672.493	36.07
672.68	36.22
672.867	36.75
673.054	36.53
673.24	36.62
673.427	36.53
673.614	36.5
673.801	37
673.988	36.94
674.174	36.91
674.361	37.48
674.548	37.04
674.734	37.11
674.921	36.64
675.108	37.11
675.294	36.89
675.481	37.28
675.668	37.34
675.854	36.96
676.041	37.07
676.227	37.24
676.414	36.86
676.601	37.46
676.787	37.44
676.974	37.85
677.16	37.29
677.347	37.55
677.533	37.49
677.719	37.2
677.906	37.15
678.092	37.15
678.279	36.95
678.465	36.71
678.651	36.49
678.838	36.47
679.024	36.17
679.21	36.29
679.397	36.43
679.583	36.26
679.769	36.33
679.955	36.17
680.142	36.25
680.328	36.92
680.514	37.03
680.7	36.7
680.886	36.74
681.073	37.01
681.259	36.77
681.445	36.73
681.631	36.8
681.817	36.9
682.003	36.71
682.189	36.76
682.375	36.03
682.561	36.19
682.747	36.61
682.933	36.73
683.119	36.93
683.305	37.16
683.491	37.18
683.677	37.09
683.863	37.26
684.049	38.1
684.235	37.86
684.42	38.09
684.606	38.15
684.792	38.17
684.978	37.73
685.164	37.26
685.349	37.66
685.535	38.02
685.721	37.94
685.907	37.63
686.092	36.95
686.278	37.27
686.464	37.13
686.649	37.4
686.835	37.24
687.021	37.81
687.206	37.89
687.392	37.24
687.577	37.35
687.763	37.31
687.948	37.41
688.134	37.41
688.319	37.21
688.505	37.37
688.69	36.91
688.876	37.15
689.061	37.05
689.247	37.16
689.432	37.64
689.618	36.96
689.803	37.34
689.988	37.73
690.174	38.01
690.359	38.28
690.544	38.2
690.73	39.05
690.915	38.64
691.1	38.43
691.285	38.43
691.471	38.38
691.656	38.62
691.841	38.12
692.026	37.75
692.211	37.85
692.396	37.89
692.582	37.66
692.767	37.3
692.952	37.24
693.137	37.04
693.322	36.67
693.507	36.75
693.692	36.75
693.877	37.15
694.062	37.26
694.247	37.42
694.432	37.64
694.617	38.38
694.802	38.3
694.987	38.68
695.172	39.1
695.357	39.32
695.541	39.23
695.726	39.5
695.911	39.98
696.096	39.94
696.281	40.04
696.466	39.33
696.65	38.96
696.835	38.96
697.02	38.94
697.204	39.03
697.389	39.17
697.574	38.98
697.759	38.88
697.943	38.49
698.128	38.51
698.312	38.26
698.497	37.98
698.682	37.94
698.866	37.93
699.051	37.92
699.235	37.67
699.42	37.46
699.604	37.65
699.789	37.34
699.973	37.1
700.158	37.09
700.342	37.17
700.527	37.91
700.711	38.24
700.895	38.01
701.08	38.03
701.264	38.72
701.448	38.78
701.633	38.6
701.817	38.6
702.001	38.93
702.186	38.92
702.37	39.21
702.554	38.61
702.738	38.42
702.923	38.23
703.107	38.47
703.291	37.81
703.475	38.11
703.659	38.06
703.843	38.17
704.027	38.42
704.212	38.17
704.396	38.12
704.58	38.66
704.764	38.16
704.948	38.53
705.132	37.96
705.316	37.8
705.5	38.33
705.684	39.08
705.868	39.51
706.052	39.03
706.235	39.13
706.419	38.71
706.603	38.46
706.787	37.93
706.971	38.64
707.155	38.54
707.339	39.04
707.522	38.4
707.706	37.51
707.89	37.76
708.074	37.9
708.257	38.18
708.441	38.51
708.625	38.53
708.808	39.39
708.992	39.13
709.176	39.31
709.359	38.82
709.543	38.86
709.727	39.64
709.91	39.09
710.094	39.41
710.277	39.74
710.461	39.64
710.644	39.07
710.828	39.34
711.011	39.22
711.195	39.25
711.378	39.4
711.562	39.31
711.745	38.59
711.928	38.48
712.112	38.13
712.295	37.83
712.478	37.46
712.662	38.02
712.845	37.49
713.028	37.55
713.212	37.69
713.395	38.1
713.578	38.84
713.761	38.8
713.945	39
714.128	39.01
714.311	39.16
714.494	38.96
714.677	39.22
714.86	39.88
715.043	39.76
715.227	39.3
715.41	38.78
715.593	38.56
715.776	38.82
715.959	38.8
716.142	39.43
716.325	39.16
716.508	39.41
716.691	39.3
716.874	38.84
717.057	38.79
717.239	38.91
717.422	38.96
717.605	37.82
717.788	37.79
717.971	38.67
718.154	38.3
718.337	38.76
718.519	38.69
718.702	38.8
718.885	38.59
719.068	38.7
719.25	39.08
719.433	39.29
719.616	39.7
719.798	39.2
719.981	38.91
720.164	38.69
720.346	38.41
720.529	39.25
720.712	39.3
720.894	39.23
721.077	39.2
721.259	39.45
721.442	39.76
721.624	40.22
721.807	40.78
721.989	40.06
722.172	40.17
722.354	39.88
722.537	40.13
722.719	39.53
722.901	40.24
723.084	40.49
723.266	40.18
723.448	40.11
723.631	40.59
723.813	41.32
723.995	41.43
724.178	41.39
724.36	40.8
724.542	40.22
724.724	40.41
724.907	40.9
725.089	40.26
725.271	40.7
725.453	40.34
725.635	39.86
725.817	40.29
725.999	40.93
726.181	41.28
726.364	41.57
726.546	41.25
726.728	41.33
726.91	40.13
727.092	40.45
727.274	40.06
727.456	40.79
727.638	40.51
727.819	40.26
728.001	39.52
728.183	39.62
728.365	39.99
728.547	40.37
728.729	40.97
728.911	42.01
729.093	41.9
729.274	41.2
729.456	39.99
729.638	40.77
729.82	40.71
730.001	40.28
730.183	40.02
730.365	40.7
730.546	40.68
730.728	39.97
730.91	39.33
731.091	39.5
731.273	40.11
731.455	40.51
731.636	39.89
731.818	40.2
731.999	40.94
732.181	41.07
732.362	40.44
732.544	40.86
732.725	41.25
732.907	41.58
733.088	42.3
733.27	42.82
733.451	42.73
733.633	44.53
733.814	43.38
733.995	43.43
734.177	43.4
734.358	42.43
734.539	41.85
734.721	41.26
734.902	40.89
735.083	39.64
735.264	39.9
735.446	40.3
735.627	38.22
735.808	38.33
735.989	38.41
736.17	39.03
736.351	39.55
736.533	39.3
736.714	39.37
736.895	39.69
737.076	39.62
737.257	39.48
737.438	39.22
737.619	40.71
737.8	41
737.981	41.31
738.162	40.63
738.343	41.49
738.524	41.14
738.705	41.98
738.886	41.92
739.067	42.36
739.247	41.88
739.428	42.61
739.609	41.1
739.79	41.66
739.971	41.18
740.151	41.25
740.332	41.75
740.513	41.58
740.694	41.42
740.874	41.13
741.055	40.99
741.236	41.04
741.417	40.79
741.597	41.11
741.778	40.91
741.958	40.9
742.139	41.25
742.32	40.99
742.5	42.31
742.681	42.89
742.861	42.95
743.042	43.07
743.222	43.29
743.403	44.04
743.583	44.64
743.764	44.69
743.944	44.29
744.124	44.48
744.305	44.47
744.485	44.7
744.666	43.19
744.846	43.65
745.026	44.35
745.207	43.68
745.387	42.99
745.567	43.54
745.747	43.34
745.928	43.34
746.108	42.96
746.288	42.64
746.468	41.95
746.648	42.18
746.829	41.94
747.009	41.79
747.189	42.01
747.369	41.98
747.549	41.09
747.729	41.56
747.909	41.66
748.089	41.63
748.269	41.59
748.449	42.12
748.629	42.55
748.809	42.76
748.989	43.1
749.169	43.91
749.349	44.14
749.529	44.08
749.709	43.97
749.889	44.2
750.068	44.16
750.248	45.31
750.428	44.16
750.608	44.35
750.788	43.95
750.967	43.31
751.147	43.42
751.327	42.88
751.507	41.94
751.686	41.47
751.866	42.77
752.046	42.92
752.225	42.2
752.405	43.69
752.585	43.42
752.764	43.75
752.944	43.58
753.123	43.23
753.303	43.38
753.482	44.66
753.662	44.47
753.841	43.1
754.021	43.58
754.2	44.11
754.38	42.78
754.559	42.23
754.739	41.15
754.918	41.91
755.097	41.49
755.277	41.28
755.456	41.12
755.635	41.68
755.815	41.92
755.994	40.81
756.173	39.52
756.352	39.86
756.532	40.14
756.711	41.25
756.89	39.96
757.069	40.39
757.248	40.69
757.427	40.03
757.607	39.78
757.786	39.82
757.965	39.73
758.144	40.51
758.323	40.88
758.502	41.18
758.681	41
758.86	41.5
759.039	41.14
759.218	41.41
759.397	42.27
759.576	42.21
759.755	41.77
759.934	42.74
760.113	42.58
760.291	42.71
760.47	43.14
760.649	42.7
760.828	44.12
761.007	43.4
761.186	42.21
761.364	41.76
761.543	42.28
761.722	41.88
761.901	41.02
762.079	41.82
762.258	41.53
762.437	41.42
762.615	41.21
762.794	40.36
762.972	40.78
763.151	40.81
763.33	40.6
763.508	40.17
763.687	40.67
763.865	41.25
764.044	40.97
764.222	40.9
764.401	40.65
764.579	40.88
764.758	40.52
764.936	41.06
765.114	41.09
765.293	41.29
765.471	41.9
765.65	42.5
765.828	42.48
766.006	42.2
766.184	41.64
766.363	42.08
766.541	41.61
766.719	42.33
766.898	42.28
767.076	43.07
767.254	43.53
767.432	43.93
767.61	43.17
767.788	42.89
767.967	42.69
768.145	43.16
768.323	43.46
768.501	45.07
768.679	44.87
768.857	43.65
769.035	43.78
769.213	43.84
769.391	43.57
769.569	43.13
769.747	44.06
769.925	44.25
770.103	44.56
770.281	42.88
770.459	43.2
770.636	43.26
770.814	44.92
770.992	44.67
771.17	44.65
771.348	44.33
771.525	45.58
771.703	43.9
771.881	44.43
772.059	45.13
772.236	45.73
772.414	44.66
772.592	44.3
772.769	43.78
772.947	43.65
773.125	43.9
773.302	43.61
773.48	42.16
773.657	42.68
773.835	41.72
774.013	42.04
774.19	43.33
774.368	42.57
774.545	43.24
774.723	43.8
774.9	44.88
775.077	44.71
775.255	43.59
775.432	45.52
775.61	44.56
775.787	44.22
775.964	44.16
776.142	44.54
776.319	46.02
776.496	45.86
776.674	45.56
776.851	45.12
777.028	44.12
777.205	44.55
777.382	44.79
777.56	45.12
777.737	48.73
777.914	47.08
778.091	46.53
778.268	46.54
778.445	46.89
778.622	46.22
778.8	46.2
778.977	46.06
779.154	53.46
779.331	52.32
779.508	53.52
779.685	51.87
779.862	51.98
780.038	51.24
780.215	51.77
780.392	50.62
780.569	51.26
780.746	51.97
780.923	52.59
781.1	45.99
781.277	46.43
781.453	45.97
781.63	44.23
781.807	45.53
781.984	46.41
782.16	46.53
782.337	47.81
782.514	46.94
782.691	47.97
782.867	48.1
783.044	47.19
783.221	48.08
783.397	49.81
783.574	50.09
783.75	50.66
783.927	50.16
784.103	49.43
784.28	50.05
784.456	50.29
784.633	49.11
784.809	48.84
784.986	49.49
785.162	47.22
785.339	44.15
785.515	44.09
785.692	43.92
785.868	44.27
786.044	43.92
786.221	41.93
786.397	42.16
786.573	42.58
786.749	42.98
786.926	43.77
787.102	44.74
787.278	46.08
787.454	45.89
787.631	45.56
787.807	44.65
787.983	45.25
788.159	46.29
788.335	46.8
788.511	45.71
788.687	46.14
788.863	45.59
789.039	45.98
789.216	44.76
789.392	46.26
789.568	47.59
789.744	49.16
789.919	49.71
790.095	48.28
790.271	48.34
790.447	47.3
790.623	47.35
790.799	47.23
790.975	45.69
791.151	48.94
791.327	48.9
791.502	48.4
791.678	45.53
791.854	44.4
792.03	46.75
792.205	48.78
792.381	50.47
792.557	51.72
792.733	51.45
792.908	52.76
793.084	51.37
793.259	49.6
793.435	47.19
793.611	49.11
793.786	46.63
793.962	43.91
794.137	41.8
794.313	41.3
794.488	39.78
794.664	42.69
794.839	43.3
795.015	43.21
795.19	44
795.366	46.84
795.541	46.83
795.716	50.07
795.892	51.58
796.067	52.06
796.242	52.73
796.418	52.23
796.593	49.12
796.768	48.5
796.944	47.65
797.119	47.49
797.294	45.29
797.469	45.71
797.644	44.73
797.82	45.42
797.995	43.85
798.17	42.96
798.345	43.69
798.52	44.99
798.695	45.6
798.87	46.01
799.045	46.37
799.22	48.89
799.395	50.29
799.57	51.94
799.745	51.43
799.92	51.65
800.095	54.57
800.27	53.76
800.445	55.14
800.62	53.5
800.795	55.05
800.97	56.16
801.145	54.46
801.319	54.1
801.494	52.68
801.669	53.67
801.844	54.24
802.018	51.89
802.193	53.8
802.368	51.99
802.543	52.23
802.717	51.21
802.892	49.24
803.067	50.94
803.241	48.34
803.416	49.28
803.59	49.64
803.765	50.83
803.94	51.22
804.114	48.14
804.289	48.28
804.463	50.93
804.638	50.72
804.812	54.23
804.986	50.15
805.161	51.81
805.335	51.12
805.51	47.8
805.684	47.38
805.858	47.8
806.033	46.97
806.207	47.43
806.381	48.03
806.556	47.38
806.73	45.53
806.904	48.78
807.078	48.01
807.253	49.08
807.427	49.79
807.601	49.82
807.775	49.39
807.949	53.45
808.123	54.27
808.298	53.92
808.472	56.23
808.646	58.04
808.82	56.56
808.994	56.83
809.168	57.54
809.342	58.38
809.516	60.27
809.69	60.36
809.864	58.54
810.038	60.19
810.212	57.98
810.385	56.47
810.559	53.19
810.733	54.07
810.907	52.72
811.081	49.85
811.255	50.57
811.428	47.34
811.602	47.92
811.776	49.26
811.95	46.98
812.123	46.66
812.297	47.25
812.471	50.29
812.644	47.62
812.818	51.07
812.992	50.75
813.165	52.02
813.339	53.79
813.512	51.39
813.686	51.96
813.86	51.99
814.033	50.33
814.207	49.98
814.38	46.04
814.554	47.75
814.727	44.91
814.9	49.37
815.074	50.42
815.247	48.38
815.421	48.11
815.594	47.4
815.767	45.04
815.941	49.27
816.114	46.36
816.287	48.04
816.46	46.46
816.634	47.69
816.807	46.01
816.98	44.91
817.153	47.37
817.327	48.13
817.5	49.17
817.673	52.29
817.846	51.81
818.019	55.65
818.192	56.14
818.365	57.11
818.538	56.97
818.711	54.57
818.884	54.14
819.057	50.75
819.23	50.67
819.403	49.29
819.576	47.66
819.749	45.98
819.922	45.94
820.095	45.56
820.268	45.48
820.441	47.35
820.614	45.32
820.786	43.31
820.959	45.3
821.132	43.69
821.305	43.34
821.477	42.3
821.65	43.15
821.823	42.48
821.996	41.6
822.168	41.45
822.341	40.22
822.514	41.24
822.686	40.92
822.859	40
823.031	39.8
823.204	39.6
823.376	39.58
823.549	39.3
823.722	38.74
823.894	39.84
824.067	39.99
824.239	40.2
824.411	39.81
824.584	40.28
824.756	40.75
824.929	41.22
825.101	41.23
825.273	42.24
825.446	42.3
825.618	43.12
825.79	42.63
825.963	42.1
826.135	41.97
826.307	41.71
826.479	41.57
826.652	41.17
826.824	41.05
826.996	40.98
827.168	40.12
827.34	40.12
827.512	39.95
827.684	38.7
827.856	39.36
828.029	40.66
828.201	41.09
828.373	41.28
828.545	41.48
828.717	41.83
828.889	42.1
829.061	42.76
829.232	43.53
829.404	43.47
829.576	44.55
829.748	43.88
829.92	42.52
830.092	43.64
830.264	42.67
830.436	43.89
830.607	46.19
830.779	45.98
830.951	46.51
831.123	45.07
831.294	43.59
831.466	42.9
831.638	42
831.809	43.06
831.981	44.31
832.153	44.52
832.324	43.99
832.496	41.71
832.667	44.24
832.839	43.14
833.011	43.33
833.182	45.32
833.354	45.48
833.525	48.27
833.697	48.16
833.868	43.81
834.039	46.59
834.211	46.31
834.382	45.83
834.554	43.47
834.725	44.03
834.896	44.72
835.068	44.59
835.239	44.53
835.41	44.5
835.581	45.05
835.753	47.46
835.924	46.06
836.095	47.07
836.266	48.43
836.438	48.73
836.609	49.17
836.78	48.94
836.951	50.23
837.122	51.39
837.293	50.82
837.464	49.33
837.635	48.71
837.806	51.33
837.977	51.43
838.148	54.28
838.319	55.92
838.49	53.41
838.661	54.54
838.832	51.87
839.003	51.39
839.174	52.75
839.345	54.22
839.516	56.83
839.687	55.98
839.857	54.98
840.028	51.06
840.199	49.39
840.37	53.28
840.54	55.99
840.711	54.7
840.882	53.91
841.053	54.4
841.223	53.02
841.394	50.01
841.564	49.08
841.735	50.04
841.906	49.9
842.076	48.58
842.247	48.89
842.417	47.13
842.588	50.63
842.758	52.37
842.929	46
843.099	51.35
843.27	55.96
843.44	56.95
843.611	57.52
843.781	55.1
843.951	61.32
844.122	59.03
844.292	56.62
844.462	61.89
844.633	60.29
844.803	67.18
844.973	66.38
845.144	58.69
845.314	52.7
845.484	48.63
845.654	52.75
845.824	49.02
845.995	57.1
846.165	59.53
846.335	53.84
846.505	58.36
846.675	61.47
846.845	63.13
847.015	67.51
847.185	69.45
847.355	73.28
847.525	74.47
847.695	90.26
847.865	83.93
848.035	92.23
848.205	85.79
848.375	87.97
848.545	73.84
848.715	68.14
848.884	76.55
849.054	82.45
849.224	88.21
849.394	84.23
849.564	72.12
849.733	72.15
849.903	76.08
850.073	85.35
850.243	79.55
850.412	83.18
850.582	82.54
850.752	75.08
850.921	68.36
851.091	68.87
851.26	73.55
851.43	71.38
851.599	70.61
851.769	67.22
851.939	64.75
852.108	70.2
852.278	74.51
852.447	68.8
852.616	70.73
852.786	76.96
852.955	73.98
853.125	74.2
853.294	74.97
853.463	79.87
853.633	77.06
853.802	74.32
853.971	75.99
854.141	75.17
854.31	79.46
854.479	78.61
854.648	77.65
854.818	72.98
854.987	73.61
855.156	77.14
855.325	78.59
855.494	80.38
855.663	81.24
855.832	78.72
856.001	82.83
856.171	92.98
856.34	98.76
856.509	106.62
856.678	119.68
856.847	129.47
857.016	116.72
857.185	112.76
857.353	114.2
857.522	119.39
857.691	125.67
857.86	125.45
858.029	104.1
858.198	104.55
858.367	102.27
858.535	103.94
858.704	84.42
858.873	87.29
859.042	85.75
859.21	87.61
859.379	81.96
859.548	69.52
859.717	70.72
859.885	73.83
860.054	67.42
860.222	57.5
860.391	60.5
860.56	58.92
860.728	63.13
860.897	55.55
861.065	54.11
861.234	61.39
861.402	69.06
861.571	64.68
861.739	73.27
861.908	80.68
862.076	91.14
862.244	82.44
862.413	81.65
862.581	80.92
862.749	81.87
862.918	77.93
863.086	66.43
863.254	61.88
863.423	57.52
863.591	57.06
863.759	63.6
863.927	51.11
864.096	60.05
864.264	70.11
864.432	65.04
864.6	66.03
864.768	60.45
864.936	72.13
865.104	75.21
865.272	78.37
865.44	77.74
865.608	72.35
865.776	83.3
865.944	85.93
866.112	84.89
866.28	90.52
866.448	93.55
866.616	99.63
866.784	95.69
866.952	92.16
867.12	93.11
867.288	96.8
867.455	97.2
867.623	96.79
867.791	88.34
867.959	86.1
868.127	83.63
868.294	84.86
868.462	75.99
868.63	73.1
868.797	77.35
868.965	84.81
869.133	73.42
869.3	71.66
869.468	75.24
869.636	65.93
869.803	65.65
869.971	74.78
870.138	80.42
870.306	88.13
870.473	94.07
870.641	93.02
870.808	83.12
870.975	98.19
871.143	105.82
871.31	101.46
871.478	122.52
871.645	118.85
871.812	110.07
871.98	104.93
872.147	102.91
872.314	100.15
872.482	95.25
872.649	104.03
872.816	91.53
872.983	82.71
873.15	76.73
873.318	67.51
873.485	72.58
873.652	74.72
873.819	74.43
873.986	83.34
874.153	86.39
874.32	88.47
874.487	86.8
874.654	87.19
874.821	90.6
874.988	94.27
875.155	90.64
875.322	87.39
875.489	84.37
875.656	84.46
875.823	68.71
875.99	59.16
876.157	60.11
876.324	61.91
876.49	66.36
876.657	66.31
876.824	68.17
876.991	71.39
877.157	68.75
877.324	78.44
877.491	77.9
877.658	85.49
877.824	81.51
877.991	77.88
878.157	75.75
878.324	70.72
878.491	73.66
878.657	78.72
878.824	85.26
878.99	78.22
879.157	74.09
879.323	71.73
879.49	71.86
879.656	83.33
879.823	85.29
879.989	82.61
880.156	81.31
880.322	73.44
880.488	69.59
880.655	67.41
880.821	72.18
880.987	65.96
881.154	65.17
881.32	63.05
881.486	55.01
881.652	52.2
881.819	53.45
881.985	52.34
882.151	51.39
882.317	48
882.483	44.77
882.649	46.05
882.816	47.36
882.982	46.3
883.148	45.55
883.314	43.76
883.48	45.77
883.646	44.67
883.812	44.59
883.978	45.58
884.144	46.64
884.31	46.77
884.476	46.88
884.642	46.14
884.807	48.64
884.973	48.26
885.139	48.99
885.305	47.91
885.471	49.07
885.637	47.74
885.802	46.83
885.968	47.42
886.134	48.13
886.3	46.73
886.465	47
886.631	44.94
886.797	46.99
886.962	49.31
887.128	49.27
887.293	48.1
887.459	52.6
887.625	55.8
887.79	53.82
887.956	55.53
888.121	59.06
888.287	60.6
888.452	60.48
888.618	57.95
888.783	58.74
