Data from LC_160_Reflection_1.txt Node
Date: Mon Nov 16 22:34:57 EST 2015
User: robert
Spectrometer: USB4E03001
Autoset integration time: false
Trigger mode: 4
Integration Time (sec): 1.000000E-1
Scans to average: 15
Electric dark correction enabled: true
Nonlinearity correction enabled: false
Boxcar width: 5
Stray light correction enabled: false
XAxis mode: Wavelengths
Stop averaging: false
Number of Pixels in Spectrum: 3648
>>>>>Begin Spectral Data<<<<<
177.566	1940.96
177.785	227.79
178.005	-2678.99
178.225	210.45
178.445	258.47
178.665	-198.97
178.885	226.89
179.105	779.44
179.324	1921.5
179.544	-196.95
179.764	-1089.31
179.984	-345.37
180.204	-303.46
180.423	-394.78
180.643	-491.52
180.863	-332.73
181.083	-308.22
181.302	-333.76
181.522	-222.13
181.742	-165.37
181.961	-330.62
182.181	-312.68
182.401	-426.5
182.621	-1855.38
182.84	-800.67
183.06	-549.43
183.279	-364.76
183.499	-282.33
183.719	-251.36
183.938	-266.05
184.158	-306.76
184.377	-227.41
184.597	-300.84
184.816	-200.04
185.036	-162.27
185.256	-134.64
185.475	-170.27
185.695	-195.58
185.914	-245.6
186.134	-424.13
186.353	-669.68
186.572	-828.47
186.792	-1131.94
187.011	-432.31
187.231	-401.22
187.45	-284.3
187.67	-731.37
187.889	-1804.25
188.108	3714.35
188.328	-1003.74
188.547	-404.39
188.766	-613.41
188.986	-867.41
189.205	-634.03
189.424	-521.56
189.644	-1426.82
189.863	-1527.46
190.082	-932.26
190.302	-2438.63
190.521	-1507.73
190.74	1332.26
190.959	544.74
191.178	818.97
191.398	743.69
191.617	634.45
191.836	528.94
192.055	1243.44
192.274	523.01
192.494	666.9
192.713	639.52
192.932	1440.88
193.151	1338.85
193.37	2541.37
193.589	-1481.59
193.808	-366.56
194.027	-455.59
194.246	-4071.79
194.465	795.67
194.685	2096.41
194.904	923.32
195.123	-1413.09
195.342	-809.36
195.561	-357.22
195.78	-561.67
195.999	26207.04
196.218	1026.52
196.436	913.31
196.655	-3406.74
196.874	-1295.9
197.093	-1658.99
197.312	-1275.74
197.531	3045.63
197.75	1121.12
197.969	-3673.52
198.188	-753.65
198.407	-166.61
198.625	-185.04
198.844	-188.58
199.063	-193.63
199.282	-390.41
199.501	-237.23
199.719	-182.28
199.938	-91.44
200.157	-88.43
200.376	-76.26
200.594	-144.24
200.813	-393.86
201.032	-284.5
201.251	-243.73
201.469	-219.65
201.688	-153.37
201.907	-317.77
202.125	-485.33
202.344	20711.9
202.563	3198.83
202.781	586.19
203	1804.68
203.218	1329.88
203.437	1117.86
203.656	527.54
203.874	293.55
204.093	292.16
204.311	364.03
204.53	339.4
204.748	494.97
204.967	350.44
205.185	367.78
205.404	373.72
205.622	253.84
205.841	219.59
206.059	267.45
206.278	373.18
206.496	831.05
206.715	512.43
206.933	517.77
207.151	431.88
207.37	468.6
207.588	444.34
207.806	434.71
208.025	899.52
208.243	-1763.39
208.461	2818.24
208.68	-23863.53
208.898	1009.25
209.116	914.25
209.335	719.02
209.553	704.01
209.771	6924.17
209.989	1470.13
210.208	2627.95
210.426	-4762.12
210.644	2402.65
210.862	-1863.07
211.081	906.13
211.299	-362.78
211.517	2044.93
211.735	-558.94
211.953	-178157.14
212.171	-4050
212.39	-11328.83
212.608	-30332.61
212.826	1188.4
213.044	917.22
213.262	785.34
213.48	3996.84
213.698	453.94
213.916	567.02
214.134	398.56
214.352	920.94
214.57	502.55
214.788	594.9
215.006	457.59
215.224	380.47
215.442	329.78
215.66	285.37
215.878	261.44
216.096	263.76
216.314	279
216.532	523.58
216.75	396.67
216.968	405.89
217.185	1019.51
217.403	2033.59
217.621	-5741.84
217.839	-1502.09
218.057	-1761.34
218.275	3109.91
218.492	957.89
218.71	1645.95
218.928	467.4
219.146	452.11
219.363	365.87
219.581	276.05
219.799	197.61
220.017	203.62
220.234	201.6
220.452	193.34
220.67	219.82
220.887	222.56
221.105	239.4
221.323	200.53
221.54	200.79
221.758	293.46
221.976	314.91
222.193	290.06
222.411	215.79
222.629	207.8
222.846	220.42
223.064	213.96
223.281	203.4
223.499	183.82
223.716	192.64
223.934	149.27
224.151	121.81
224.369	105.77
224.586	117.93
224.804	114.06
225.021	113.81
225.239	105.1
225.456	113.27
225.674	103.61
225.891	93.23
226.108	101.65
226.326	102.91
226.543	94.81
226.76	95.43
226.978	89.6
227.195	86.52
227.413	73.66
227.63	63.09
227.847	53.92
228.064	48.13
228.282	41.16
228.499	33.89
228.716	27.86
228.934	25.86
229.151	26.02
229.368	23.12
229.585	21.97
229.802	23.58
230.02	23.63
230.237	25.45
230.454	26.86
230.671	28.28
230.888	29.57
231.105	35.01
231.323	37.83
231.54	36.71
231.757	35.02
231.974	36.82
232.191	37.56
232.408	45.89
232.625	39.83
232.842	43.12
233.059	43.35
233.276	42.37
233.493	45.76
233.71	42.81
233.927	42.92
234.144	49.13
234.361	46.91
234.578	47.92
234.795	40.4
235.012	40.88
235.229	36.7
235.446	37.57
235.663	37.66
235.879	35.57
236.096	34.11
236.313	37.66
236.53	34.18
236.747	36.9
236.964	33.86
237.181	36.54
237.397	41.32
237.614	44.56
237.831	44.22
238.048	45.6
238.264	47.66
238.481	48.74
238.698	44.47
238.915	44.83
239.131	41.56
239.348	39.66
239.565	40.82
239.781	42.39
239.998	39.01
240.215	37.08
240.431	37.89
240.648	35.21
240.865	34.46
241.081	33.03
241.298	29.98
241.514	29.67
241.731	30.63
241.947	28.57
242.164	25.28
242.38	24.37
242.597	24.52
242.814	23.69
243.03	23.07
243.246	22.1
243.463	22.39
243.679	24.5
243.896	23.23
244.112	23.87
244.329	21.43
244.545	21.97
244.762	20.79
244.978	21.79
245.194	20.3
245.411	19.2
245.627	20.67
245.843	20.72
246.06	20.07
246.276	20.36
246.492	18.17
246.709	18.87
246.925	18.67
247.141	19.59
247.357	18.41
247.574	18.69
247.79	18.47
248.006	17.29
248.222	16.99
248.439	16.45
248.655	16.44
248.871	16.4
249.087	16.59
249.303	15.84
249.519	15.31
249.736	16.61
249.952	15.92
250.168	17.78
250.384	18.62
250.6	18.7
250.816	19.86
251.032	18.99
251.248	20.04
251.464	18.96
251.68	19.13
251.896	19.61
252.112	17.32
252.328	16.98
252.544	16.11
252.76	16.53
252.976	16.75
253.192	15.32
253.408	17.48
253.624	20.32
253.84	21.39
254.056	24.3
254.272	23.62
254.487	25.26
254.703	25.97
254.919	27.26
255.135	27.65
255.351	28.09
255.567	29.49
255.782	30.17
255.998	25.18
256.214	25.5
256.43	21.1
256.646	21.55
256.861	21.95
257.077	21
257.293	17.21
257.508	16.7
257.724	17.52
257.94	16.05
258.155	14.1
258.371	14.34
258.587	13.67
258.802	13.38
259.018	13.41
259.234	12.29
259.449	13.05
259.665	12.98
259.88	13.29
260.096	12.74
260.312	12.09
260.527	12.13
260.743	12.71
260.958	13.32
261.174	13.83
261.389	14.76
261.605	15.19
261.82	15.83
262.036	15.95
262.251	17.33
262.466	17.36
262.682	19.96
262.897	20.46
263.113	19.61
263.328	19.42
263.543	19.47
263.759	18.89
263.974	21.65
264.189	20.82
264.405	23.01
264.62	21.36
264.835	22.66
265.051	21.39
265.266	23.34
265.481	25.29
265.696	25.51
265.912	24.8
266.127	22.49
266.342	20.34
266.557	20.12
266.773	19.03
266.988	19.37
267.203	19.02
267.418	18.45
267.633	16.02
267.848	15.48
268.064	14.05
268.279	15.3
268.494	14.74
268.709	14.95
268.924	15.24
269.139	16.33
269.354	15.54
269.569	14.89
269.784	15.31
269.999	15.96
270.214	15.83
270.429	17.28
270.644	16
270.859	16.05
271.074	15.84
271.289	14.33
271.504	14.27
271.719	14.06
271.934	14.27
272.149	13.73
272.363	13.98
272.578	13.06
272.793	12.54
273.008	13.15
273.223	13.47
273.438	12.46
273.653	13.32
273.867	12.71
274.082	12.62
274.297	11.89
274.512	12.67
274.726	11.95
274.941	12.08
275.156	12.24
275.371	12.87
275.585	14.06
275.8	16.16
276.015	16.02
276.229	16.01
276.444	17.45
276.659	18.38
276.873	16.98
277.088	16.79
277.302	18.69
277.517	19.97
277.732	20.26
277.946	20.09
278.161	19.34
278.375	19.32
278.59	18.58
278.804	17.79
279.019	17.79
279.233	18.38
279.448	18.8
279.662	17.58
279.877	16.32
280.091	13.8
280.306	12.17
280.52	13.22
280.735	12.51
280.949	13.29
281.163	13.21
281.378	11.77
281.592	12.09
281.806	12.22
282.021	10.98
282.235	10.99
282.449	12.33
282.664	13
282.878	12.21
283.092	13.63
283.307	12.9
283.521	14.03
283.735	14.75
283.949	16.14
284.164	16.28
284.378	17.57
284.592	16.7
284.806	16.22
285.02	16.18
285.234	15.61
285.449	14.55
285.663	15.23
285.877	14
286.091	13.93
286.305	12.56
286.519	12.56
286.733	11.62
286.947	12.15
287.161	11.99
287.375	12.53
287.589	13.87
287.803	14.23
288.017	14.77
288.231	14.24
288.445	14.12
288.659	14.16
288.873	13.76
289.087	14.86
289.301	14.53
289.515	14.36
289.729	13.46
289.943	12.31
290.157	12.23
290.371	13.44
290.584	13.94
290.798	14.77
291.012	15.45
291.226	15.09
291.44	15.39
291.654	16.33
291.867	16.3
292.081	16.39
292.295	16.99
292.509	17.05
292.722	15.68
292.936	15.85
293.15	16.04
293.364	15.44
293.577	16.99
293.791	16.29
294.005	16.21
294.218	16.03
294.432	16.36
294.645	16.5
294.859	15.95
295.073	15.78
295.286	15.91
295.5	14.51
295.713	14.86
295.927	14.08
296.14	14.13
296.354	13.94
296.568	13.61
296.781	13.72
296.994	13.68
297.208	13.15
297.421	13.3
297.635	13.43
297.848	13.42
298.062	13.13
298.275	13.3
298.489	13.05
298.702	12.47
298.915	13.34
299.129	13.58
299.342	13.17
299.555	14.99
299.769	14.94
299.982	14.37
300.195	15.36
300.409	15.45
300.622	15.58
300.835	16.58
301.048	17.02
301.262	16.42
301.475	16.84
301.688	17.22
301.901	16.96
302.115	17.22
302.328	18.05
302.541	16.8
302.754	17.37
302.967	17.62
303.18	16.92
303.393	16.89
303.607	17.34
303.82	17.29
304.033	17.57
304.246	17.36
304.459	17.44
304.672	16.32
304.885	17.92
305.098	18.02
305.311	17.53
305.524	18.5
305.737	19.47
305.95	20.64
306.163	18.89
306.376	18.06
306.589	17.32
306.802	16.66
307.015	18.34
307.228	18.17
307.44	17.15
307.653	17.23
307.866	15.09
308.079	15.95
308.292	14.93
308.505	16.16
308.718	16.33
308.93	16.54
309.143	16.58
309.356	16.67
309.569	16.9
309.781	17.5
309.994	17.09
310.207	17.91
310.42	15.82
310.632	15.43
310.845	15.18
311.058	14.24
311.27	15.27
311.483	14.95
311.696	14.37
311.908	13.51
312.121	13.11
312.333	13.54
312.546	12.92
312.759	12.97
312.971	12.91
313.184	13.68
313.396	14.65
313.609	14.12
313.821	14
314.034	13.81
314.246	14.43
314.459	14.13
314.671	14.59
314.884	14.86
315.096	14.11
315.309	14.2
315.521	14.26
315.733	13.52
315.946	12.03
316.158	11.94
316.371	11.54
316.583	11.39
316.795	10.73
317.008	10.01
317.22	11.25
317.432	12.55
317.644	12.79
317.857	11.13
318.069	12.07
318.281	12.48
318.494	12.13
318.706	13.46
318.918	13.83
319.13	14.72
319.342	15.3
319.555	15.01
319.767	16.05
319.979	16.22
320.191	16.74
320.403	16.82
320.615	17.04
320.827	18.53
321.039	17.23
321.252	17.05
321.464	16.21
321.676	16.51
321.888	15.07
322.1	13.44
322.312	10.92
322.524	10.4
322.736	9.74
322.948	9.25
323.16	8.69
323.372	9.51
323.584	9.18
323.796	8.46
324.007	7.95
324.219	8.44
324.431	9.37
324.643	10.81
324.855	10.92
325.067	11.37
325.279	11.91
325.491	12.37
325.702	11.2
325.914	10.88
326.126	13.33
326.338	13.23
326.55	13.49
326.761	12.52
326.973	12.49
327.185	12.72
327.396	12.78
327.608	13.13
327.82	13.06
328.032	13.18
328.243	13.12
328.455	12.6
328.666	12.21
328.878	11.91
329.09	11.98
329.301	11.88
329.513	11.82
329.725	11.89
329.936	11.73
330.148	11.83
330.359	11.91
330.571	12.81
330.782	12.04
330.994	13.43
331.205	13.65
331.417	13.97
331.628	15.17
331.84	15.32
332.051	15.3
332.262	15.94
332.474	14.73
332.685	16.09
332.897	15.19
333.108	15.39
333.319	13.5
333.531	13.2
333.742	14.02
333.953	12.33
334.165	12.21
334.376	11.94
334.587	11.04
334.799	11.76
335.01	10.56
335.221	10.72
335.432	10.48
335.644	10.52
335.855	10.42
336.066	10.74
336.277	11.74
336.488	12.11
336.7	11.58
336.911	11.82
337.122	11.67
337.333	12.07
337.544	12.83
337.755	12.55
337.966	13.05
338.177	12.98
338.388	12.32
338.599	12.37
338.811	11.48
339.022	12.34
339.233	11.97
339.444	12.3
339.655	10.94
339.866	9.97
340.076	10.91
340.287	10.76
340.498	10.52
340.709	10
340.92	9.9
341.131	10.32
341.342	9.62
341.553	9.67
341.764	9.28
341.975	10.59
342.185	10.28
342.396	9.5
342.607	9.62
342.818	10.14
343.029	10.75
343.239	10.56
343.45	10.44
343.661	10.69
343.872	10.84
344.082	11.02
344.293	11.01
344.504	11.77
344.714	10.74
344.925	10.18
345.136	10.61
345.346	9.1
345.557	8.96
345.768	8.26
345.978	7.76
346.189	7.75
346.399	7.9
346.61	8.15
346.821	8.35
347.031	9.85
347.242	10
347.452	9.11
347.663	10.13
347.873	10.53
348.084	10.6
348.294	11.4
348.504	11.26
348.715	10.93
348.925	10.13
349.136	9.26
349.346	8.63
349.557	9.42
349.767	10.15
349.977	10.57
350.188	10.91
350.398	12.33
350.608	11.94
350.819	11.61
351.029	11.58
351.239	11.87
351.449	12.26
351.66	12.85
351.87	12.93
352.08	12.87
352.29	12.61
352.501	11.44
352.711	11.14
352.921	11.15
353.131	11.5
353.341	11.15
353.552	11.06
353.762	10.9
353.972	10.16
354.182	10.6
354.392	9.88
354.602	9.6
354.812	10.14
355.022	10.07
355.232	10.35
355.442	10.68
355.652	10.99
355.862	10.52
356.072	10.36
356.282	9.84
356.492	9.19
356.702	9.49
356.912	9.73
357.122	9.83
357.332	9.1
357.542	8.93
357.752	8.97
357.962	8.71
358.171	8.9
358.381	9.94
358.591	10.36
358.801	10
359.011	10.15
359.221	10.15
359.43	10.2
359.64	10.9
359.85	10.63
360.06	10.45
360.269	10.51
360.479	10.3
360.689	9.19
360.899	9.29
361.108	9.16
361.318	9.4
361.528	8.73
361.737	8.25
361.947	7.73
362.156	7.5
362.366	7.52
362.576	7.53
362.785	7.97
362.995	7.91
363.204	7.75
363.414	8.1
363.623	7.86
363.833	8.87
364.042	9.39
364.252	9.72
364.461	10.03
364.671	9.26
364.88	9.33
365.09	9.33
365.299	10.15
365.509	9.78
365.718	9.01
365.927	8.93
366.137	8.8
366.346	8.84
366.555	8.23
366.765	8.17
366.974	8.58
367.183	8.61
367.393	8.03
367.602	7.4
367.811	8.12
368.021	8.15
368.23	8.17
368.439	7.32
368.648	6.94
368.857	7.87
369.067	8.02
369.276	8.19
369.485	8.34
369.694	8.72
369.903	8.85
370.112	8.28
370.321	8.46
370.531	7.89
370.74	8.39
370.949	8.38
371.158	7.62
371.367	7.97
371.576	7.68
371.785	7.36
371.994	7.32
372.203	7.21
372.412	7.36
372.621	8.15
372.83	8.62
373.039	8.78
373.248	8.22
373.457	9.05
373.666	8.12
373.874	8.27
374.083	8.61
374.292	8.51
374.501	8.32
374.71	8.28
374.919	8
375.128	7.77
375.336	7.45
375.545	8.41
375.754	7.15
375.963	7.46
376.171	7.41
376.38	7.05
376.589	7.32
376.798	6.78
377.006	6.99
377.215	7.01
377.424	6.91
377.632	6.85
377.841	6.36
378.05	6.61
378.258	6.77
378.467	6.39
378.675	6.44
378.884	6.24
379.093	6.69
379.301	6.38
379.51	6.01
379.718	5.93
379.927	6.22
380.135	6.06
380.344	6.54
380.552	6.52
380.761	6.81
380.969	6.72
381.177	6.56
381.386	6.1
381.594	6.3
381.803	6.39
382.011	6.33
382.219	5.77
382.428	5.44
382.636	5.09
382.845	5.27
383.053	5.33
383.261	5.16
383.469	5.33
383.678	6.1
383.886	5.82
384.094	5.68
384.302	5.78
384.511	6.16
384.719	6.43
384.927	6.47
385.135	6.09
385.343	6.25
385.552	6.51
385.76	6.14
385.968	6.01
386.176	6.11
386.384	6.05
386.592	6.02
386.8	5.78
387.008	6.03
387.216	6.31
387.424	6.51
387.633	6.36
387.841	5.95
388.049	5.89
388.257	5.85
388.465	5.92
388.672	6.21
388.88	6.06
389.088	6.13
389.296	5.88
389.504	5.45
389.712	5.33
389.92	5.09
390.128	5.25
390.336	5.66
390.544	5.88
390.751	5.51
390.959	5.1
391.167	5.44
391.375	5.74
391.583	5.78
391.79	6.02
391.998	6
392.206	6.25
392.414	6.16
392.621	5.92
392.829	5.57
393.037	5.65
393.244	5.83
393.452	5.68
393.66	5.44
393.867	5.61
394.075	5.29
394.283	5.48
394.49	5.32
394.698	5.32
394.905	5.58
395.113	5.47
395.32	5.71
395.528	5.47
395.735	5.35
395.943	5.32
396.15	5.05
396.358	5.21
396.565	4.98
396.773	5.11
396.98	4.98
397.188	4.57
397.395	4.86
397.602	4.84
397.81	4.87
398.017	5
398.225	4.92
398.432	5.32
398.639	5.35
398.847	5.3
399.054	4.88
399.261	4.92
399.468	4.98
399.676	4.81
399.883	4.77
400.09	4.96
400.297	5.17
400.505	5.36
400.712	5
400.919	5.09
401.126	5.31
401.333	5.65
401.54	5.71
401.748	5.88
401.955	5.88
402.162	5.94
402.369	6.12
402.576	5.87
402.783	5.74
402.99	5.79
403.197	5.56
403.404	5.42
403.611	5.31
403.818	5.29
404.025	5.09
404.232	4.94
404.439	4.9
404.646	4.58
404.853	4.47
405.06	4.44
405.267	4.31
405.474	4.39
405.681	4.33
405.887	4.48
406.094	4.85
406.301	4.93
406.508	5.02
406.715	4.9
406.922	4.99
407.128	5.03
407.335	4.86
407.542	4.79
407.749	4.96
407.955	5.23
408.162	5
408.369	5
408.575	4.97
408.782	4.74
408.989	4.88
409.195	4.85
409.402	5.02
409.609	5.48
409.815	5.75
410.022	5.89
410.228	5.62
410.435	5.63
410.642	5.02
410.848	5.26
411.055	5.55
411.261	5.47
411.468	5.78
411.674	5.47
411.881	5.12
412.087	5.14
412.294	4.65
412.5	4.67
412.706	4.65
412.913	4.93
413.119	4.52
413.326	4.49
413.532	4.5
413.738	4.26
413.945	4.57
414.151	4.44
414.357	4.53
414.564	4.66
414.77	4.77
414.976	4.88
415.182	5.06
415.389	5.17
415.595	4.92
415.801	5
416.007	4.96
416.214	4.68
416.42	4.79
416.626	4.51
416.832	4.64
417.038	4.31
417.244	4.36
417.45	3.94
417.657	4.12
417.863	4.26
418.069	4.34
418.275	4.47
418.481	4.47
418.687	4.46
418.893	4.62
419.099	4.47
419.305	4.62
419.511	4.47
419.717	4.64
419.923	4.45
420.129	4.47
420.335	4.34
420.541	4.13
420.746	4.24
420.952	4.23
421.158	4.07
421.364	4.11
421.57	4.12
421.776	4.18
421.982	4.1
422.187	3.99
422.393	3.98
422.599	3.88
422.805	4
423.01	3.92
423.216	3.83
423.422	3.9
423.628	3.96
423.833	3.9
424.039	3.9
424.245	3.99
424.45	4.19
424.656	4.18
424.862	4.21
425.067	4.22
425.273	4.32
425.478	4.42
425.684	4.42
425.889	4.48
426.095	4.55
426.301	4.49
426.506	4.54
426.712	4.73
426.917	4.61
427.123	4.83
427.328	4.74
427.533	4.67
427.739	4.72
427.944	4.73
428.15	4.58
428.355	4.61
428.561	4.79
428.766	4.59
428.971	4.41
429.177	4.55
429.382	4.6
429.587	4.69
429.793	4.6
429.998	4.69
430.203	4.59
430.408	4.6
430.614	4.55
430.819	4.48
431.024	4.79
431.229	4.57
431.434	4.63
431.64	4.28
431.845	4.45
432.05	4.51
432.255	4.31
432.46	4.21
432.665	4.12
432.87	4.18
433.076	4.19
433.281	4.23
433.486	4.3
433.691	4.17
433.896	4.11
434.101	3.92
434.306	4.09
434.511	4.18
434.716	4.34
434.921	4.52
435.126	4.37
435.331	4.27
435.535	3.95
435.74	3.93
435.945	4.08
436.15	4.22
436.355	4.23
436.56	4.12
436.765	4.27
436.97	4.18
437.174	4.12
437.379	4.21
437.584	4.3
437.789	4.34
437.993	4.32
438.198	4.27
438.403	4.37
438.608	4.43
438.812	4.25
439.017	4.22
439.222	4.18
439.426	4.18
439.631	4.23
439.836	4.03
440.04	4.2
440.245	4.25
440.45	4.26
440.654	4.21
440.859	4.16
441.063	4.25
441.268	4.09
441.472	4.26
441.677	4.21
441.881	4.08
442.086	4.27
442.29	4.17
442.495	4.12
442.699	4.2
442.904	4.12
443.108	4.16
443.312	4.17
443.517	4.16
443.721	4.02
443.925	3.88
444.13	3.97
444.334	4.05
444.538	3.92
444.743	3.91
444.947	3.84
445.151	3.89
445.356	3.81
445.56	3.74
445.764	3.77
445.968	3.71
446.173	3.84
446.377	3.89
446.581	3.78
446.785	3.76
446.989	3.77
447.193	3.8
447.398	3.78
447.602	3.83
447.806	4.02
448.01	4.19
448.214	4.36
448.418	4.38
448.622	4.38
448.826	4.49
449.03	4.65
449.234	4.75
449.438	4.71
449.642	4.71
449.846	4.69
450.05	4.58
450.254	4.31
450.458	4.34
450.662	4.3
450.866	4.13
451.069	4.23
451.273	4.04
451.477	3.84
451.681	3.9
451.885	3.8
452.089	3.93
452.292	3.86
452.496	4.05
452.7	3.88
452.904	3.93
453.107	4.08
453.311	3.94
453.515	4.04
453.719	4.03
453.922	4.04
454.126	3.99
454.33	4.03
454.533	3.97
454.737	3.87
454.94	3.97
455.144	3.96
455.348	3.85
455.551	3.87
455.755	3.93
455.958	4.1
456.162	3.89
456.365	3.95
456.569	3.7
456.772	3.74
456.976	3.69
457.179	3.68
457.383	3.63
457.586	3.87
457.79	3.86
457.993	3.88
458.196	3.74
458.4	3.83
458.603	3.94
458.807	4.03
459.01	4.14
459.213	4.15
459.417	3.98
459.62	3.96
459.823	3.78
460.026	3.74
460.23	3.81
460.433	3.88
460.636	3.94
460.839	3.91
461.042	3.97
461.246	3.94
461.449	3.91
461.652	4.06
461.855	3.99
462.058	4.05
462.261	4.02
462.464	3.81
462.668	3.92
462.871	3.97
463.074	4.07
463.277	3.74
463.48	3.86
463.683	3.98
463.886	3.97
464.089	4.11
464.292	4.31
464.495	4.39
464.698	4.47
464.901	4.33
465.104	4.22
465.306	4.2
465.509	4.55
465.712	4.41
465.915	4.33
466.118	4.32
466.321	4.22
466.524	4.16
466.726	4.25
466.929	4.3
467.132	4.33
467.335	4.23
467.538	4.12
467.74	4.06
467.943	4.18
468.146	4.21
468.348	4.22
468.551	4.34
468.754	4.27
468.956	4
469.159	4.11
469.362	4.04
469.564	4.11
469.767	4.19
469.969	4.16
470.172	3.86
470.375	3.82
470.577	3.93
470.78	3.87
470.982	3.87
471.185	4.05
471.387	4.01
471.59	4.11
471.792	4.32
471.995	4.29
472.197	4.21
472.399	4.22
472.602	4.09
472.804	3.89
473.007	3.78
473.209	3.66
473.411	3.67
473.614	3.59
473.816	3.62
474.018	3.48
474.22	3.43
474.423	3.59
474.625	3.65
474.827	3.83
475.03	3.97
475.232	4.17
475.434	4.25
475.636	4.27
475.838	4.19
476.04	4.16
476.243	4.04
476.445	4.08
476.647	3.98
476.849	4.02
477.051	3.99
477.253	4
477.455	3.94
477.657	3.87
477.859	3.9
478.061	3.9
478.263	3.78
478.465	3.9
478.667	3.85
478.869	3.82
479.071	3.82
479.273	3.83
479.475	3.73
479.677	3.72
479.879	3.66
480.081	3.59
480.283	3.44
480.485	3.49
480.686	3.42
480.888	3.46
481.09	3.37
481.292	3.31
481.494	3.28
481.695	3.27
481.897	3.2
482.099	3.21
482.301	3.19
482.502	3.26
482.704	3.27
482.906	3.26
483.107	3.25
483.309	3.23
483.511	3.26
483.712	3.21
483.914	3.23
484.115	3.25
484.317	3.24
484.519	3.24
484.72	3.21
484.922	3.17
485.123	3.19
485.325	3.17
485.526	3.22
485.728	3.21
485.929	3.2
486.131	3.22
486.332	3.2
486.534	3.18
486.735	3.19
486.936	3.19
487.138	3.22
487.339	3.2
487.541	3.25
487.742	3.25
487.943	3.24
488.144	3.29
488.346	3.21
488.547	3.25
488.748	3.32
488.95	3.31
489.151	3.34
489.352	3.4
489.553	3.4
489.755	3.29
489.956	3.24
490.157	3.31
490.358	3.27
490.559	3.38
490.76	3.34
490.961	3.3
491.163	3.29
491.364	3.34
491.565	3.23
491.766	3.2
491.967	3.35
492.168	3.38
492.369	3.32
492.57	3.35
492.771	3.37
492.972	3.34
493.173	3.38
493.374	3.37
493.575	3.39
493.776	3.45
493.976	3.52
494.177	3.55
494.378	3.63
494.579	3.6
494.78	3.79
494.981	3.76
495.182	3.75
495.382	3.69
495.583	3.74
495.784	3.76
495.985	3.96
496.185	4.01
496.386	3.84
496.587	3.85
496.788	3.83
496.988	3.76
497.189	3.74
497.39	3.88
497.59	3.99
497.791	3.98
497.992	3.87
498.192	3.82
498.393	3.81
498.593	3.92
498.794	3.79
498.994	3.84
499.195	3.73
499.395	3.82
499.596	3.91
499.796	3.79
499.997	3.8
500.197	3.97
500.398	3.9
500.598	3.93
500.799	3.78
500.999	3.94
501.199	3.87
501.4	3.95
501.6	3.86
501.801	3.76
502.001	4
502.201	4.19
502.402	4.14
502.602	4.01
502.802	4.16
503.002	4.28
503.203	4.3
503.403	4.38
503.603	4.33
503.803	4.35
504.003	4.28
504.204	4.23
504.404	4.08
504.604	4.02
504.804	4.3
505.004	4.16
505.204	4.17
505.404	4.29
505.604	4.36
505.804	4.37
506.005	4.38
506.205	4.44
506.405	4.47
506.605	4.51
506.805	4.61
507.005	4.53
507.204	4.56
507.404	4.58
507.604	4.49
507.804	4.36
508.004	4.5
508.204	4.4
508.404	4.42
508.604	4.28
508.804	4.26
509.003	4.32
509.203	4.27
509.403	4.17
509.603	4.15
509.803	4.2
510.002	4.38
510.202	4.23
510.402	4.24
510.602	4.23
510.801	4.36
511.001	4.43
511.201	4.27
511.4	4.19
511.6	4.29
511.8	4.32
511.999	4.38
512.199	4.28
512.398	4.31
512.598	4.48
512.797	4.49
512.997	4.46
513.197	4.46
513.396	4.53
513.596	4.69
513.795	4.73
513.994	4.73
514.194	4.64
514.393	4.72
514.593	4.8
514.792	4.75
514.992	4.68
515.191	4.78
515.39	4.82
515.59	4.68
515.789	4.65
515.988	4.71
516.188	4.65
516.387	4.61
516.586	4.49
516.786	4.44
516.985	4.37
517.184	4.47
517.383	4.41
517.582	4.42
517.782	4.66
517.981	4.55
518.18	4.49
518.379	4.57
518.578	4.52
518.777	4.64
518.976	4.63
519.176	4.81
519.375	4.84
519.574	4.87
519.773	4.85
519.972	4.75
520.171	4.8
520.37	4.83
520.569	4.84
520.768	4.93
520.967	4.98
521.166	4.96
521.365	4.81
521.564	4.79
521.762	4.97
521.961	4.92
522.16	4.94
522.359	4.94
522.558	4.95
522.757	5.02
522.956	5.14
523.154	4.95
523.353	5.18
523.552	5.14
523.751	5.18
523.949	4.94
524.148	5.08
524.347	5.26
524.546	5.33
524.744	5.19
524.943	5.2
525.142	5.09
525.34	5.26
525.539	5.22
525.737	5.28
525.936	5.26
526.135	5.28
526.333	5.17
526.532	5.04
526.73	5.05
526.929	5.07
527.127	5
527.326	4.96
527.524	4.9
527.723	4.84
527.921	4.86
528.12	4.82
528.318	4.84
528.516	4.87
528.715	4.89
528.913	4.9
529.112	4.92
529.31	4.92
529.508	4.96
529.707	4.97
529.905	5
530.103	5.03
530.301	5.06
530.5	5.1
530.698	5.12
530.896	5.19
531.094	5.21
531.293	5.3
531.491	5.44
531.689	5.49
531.887	5.59
532.085	5.62
532.283	5.6
532.481	5.62
532.68	5.57
532.878	5.61
533.076	5.59
533.274	5.56
533.472	5.62
533.67	5.52
533.868	5.52
534.066	5.53
534.264	5.49
534.462	5.54
534.66	5.62
534.858	5.72
535.056	5.72
535.253	5.66
535.451	5.77
535.649	5.78
535.847	5.96
536.045	6.01
536.243	6.06
536.441	6.18
536.638	6.22
536.836	6.19
537.034	6.21
537.232	6.3
537.43	6.46
537.627	6.6
537.825	6.58
538.023	6.63
538.22	6.8
538.418	6.83
538.616	6.97
538.813	7.03
539.011	7.19
539.209	7.18
539.406	7.29
539.604	7.33
539.801	7.28
539.999	7.31
540.196	7.24
540.394	7.16
540.591	7.15
540.789	7.03
540.986	6.95
541.184	6.93
541.381	6.93
541.579	6.89
541.776	6.88
541.974	6.81
542.171	6.86
542.368	6.84
542.566	6.88
542.763	6.9
542.96	6.98
543.158	7.06
543.355	7.11
543.552	7.26
543.75	7.42
543.947	7.35
544.144	7.4
544.341	7.48
544.539	7.61
544.736	7.71
544.933	7.75
545.13	7.86
545.327	7.9
545.524	7.87
545.722	7.92
545.919	7.83
546.116	8.11
546.313	8.22
546.51	8.25
546.707	8.24
546.904	8.23
547.101	8.33
547.298	8.34
547.495	8.42
547.692	8.51
547.889	8.41
548.086	8.64
548.283	8.74
548.48	8.89
548.677	8.91
548.874	8.95
549.07	9.12
549.267	9.13
549.464	9.15
549.661	9.29
549.858	9.48
550.055	9.75
550.251	9.54
550.448	9.39
550.645	9.4
550.842	9.51
551.038	9.55
551.235	9.46
551.432	9.57
551.628	9.56
551.825	9.74
552.022	9.69
552.218	9.77
552.415	10.03
552.612	10.06
552.808	10.01
553.005	10.05
553.201	10.28
553.398	10.35
553.594	10.29
553.791	10.55
553.987	10.5
554.184	10.65
554.38	10.55
554.577	10.44
554.773	10.67
554.97	10.93
555.166	11.06
555.362	11.01
555.559	11.14
555.755	11.39
555.952	11.31
556.148	11.45
556.344	11.47
556.541	11.64
556.737	11.8
556.933	11.92
557.129	11.91
557.326	11.74
557.522	11.93
557.718	12.01
557.914	12.04
558.11	12.1
558.307	12.01
558.503	12.11
558.699	12.18
558.895	12.36
559.091	12.24
559.287	12.09
559.483	12.36
559.679	12.49
559.876	12.54
560.072	12.59
560.268	12.71
560.464	12.71
560.66	12.84
560.856	13.07
561.052	13.19
561.247	13.45
561.443	13.71
561.639	13.69
561.835	13.77
562.031	13.81
562.227	13.89
562.423	13.9
562.619	14.14
562.815	14.14
563.01	14.17
563.206	14.17
563.402	14.07
563.598	14.12
563.793	14.08
563.989	13.9
564.185	13.86
564.381	14.22
564.576	14.42
564.772	14.42
564.968	14.55
565.163	14.44
565.359	14.16
565.555	14.26
565.75	14.38
565.946	14.59
566.141	14.64
566.337	14.76
566.532	14.7
566.728	14.86
566.923	14.9
567.119	14.78
567.314	14.75
567.51	15.04
567.705	15.15
567.901	15.07
568.096	15.3
568.292	15.63
568.487	15.77
568.682	15.76
568.878	15.52
569.073	15.76
569.268	15.94
569.464	16.26
569.659	16.43
569.854	16.53
570.05	16.66
570.245	16.58
570.44	16.54
570.635	16.42
570.831	16.29
571.026	16.56
571.221	16.49
571.416	16.55
571.611	16.4
571.806	16.29
572.002	16.27
572.197	16.43
572.392	16.42
572.587	16.57
572.782	16.9
572.977	17.13
573.172	17.17
573.367	17.17
573.562	17.27
573.757	17.44
573.952	17.67
574.147	17.81
574.342	17.93
574.537	18.11
574.732	18.11
574.927	17.89
575.121	18.02
575.316	18.1
575.511	18.21
575.706	18.22
575.901	18.31
576.096	18.41
576.29	18.4
576.485	18.35
576.68	18.46
576.875	18.53
577.069	18.68
577.264	18.73
577.459	18.88
577.654	19.15
577.848	19.2
578.043	19.33
578.238	19.28
578.432	19.42
578.627	19.41
578.821	19.39
579.016	19.21
579.21	19.5
579.405	19.34
579.6	19.35
579.794	19.24
579.989	19.37
580.183	19.45
580.378	19.55
580.572	19.73
580.766	19.79
580.961	19.7
581.155	19.98
581.35	19.93
581.544	19.91
581.738	19.98
581.933	20.16
582.127	20.49
582.321	20.51
582.516	20.49
582.71	20.59
582.904	20.9
583.099	21.03
583.293	21.13
583.487	21.39
583.681	21.97
583.875	22
584.07	21.89
584.264	21.52
584.458	21.49
584.652	21.52
584.846	21.34
585.04	21.24
585.234	21.49
585.428	21.48
585.623	21.31
585.817	20.98
586.011	21.13
586.205	21.66
586.399	22.02
586.593	22.22
586.787	22.5
586.981	22.44
587.174	22.57
587.368	22.46
587.562	22.7
587.756	22.78
587.95	22.96
588.144	22.81
588.338	22.54
588.532	22.45
588.725	22.37
588.919	22.41
589.113	22.37
589.307	22.38
589.501	22.22
589.694	22.15
589.888	22.12
590.082	22.05
590.275	22.18
590.469	22.37
590.663	22.27
590.856	22.53
591.05	22.5
591.244	22.56
591.437	22.71
591.631	22.81
591.824	22.89
592.018	23.07
592.212	23.26
592.405	23.1
592.599	22.93
592.792	23.09
592.986	23.12
593.179	23.13
593.372	23.41
593.566	23.61
593.759	23.89
593.953	23.91
594.146	23.74
594.339	23.78
594.533	24.05
594.726	24.28
594.92	24.36
595.113	24.11
595.306	24.21
595.499	24.01
595.693	23.68
595.886	23.76
596.079	23.88
596.272	23.9
596.466	23.98
596.659	24.07
596.852	23.92
597.045	23.95
597.238	24.03
597.431	24.04
597.624	24.18
597.818	24.23
598.011	24.15
598.204	23.97
598.397	24.13
598.59	24.07
598.783	24.07
598.976	24.12
599.169	24.28
599.362	24.43
599.555	24.44
599.748	24.81
599.941	24.86
600.134	24.96
600.326	25.19
600.519	25.33
600.712	25.44
600.905	25.4
601.098	25.55
601.291	25.51
601.483	25.56
601.676	25.77
601.869	25.57
602.062	25.92
602.255	25.78
602.447	25.91
602.64	25.85
602.833	25.97
603.025	25.86
603.218	25.82
603.411	25.73
603.603	25.5
603.796	25.37
603.989	25.33
604.181	25.13
604.374	25.34
604.566	25.18
604.759	25.22
604.951	25.1
605.144	25.22
605.336	25.36
605.529	25.51
605.721	25.77
605.914	25.77
606.106	25.96
606.299	26.17
606.491	26.24
606.683	26.41
606.876	26.29
607.068	26.47
607.26	26.63
607.453	26.62
607.645	26.55
607.837	26.51
608.03	26.59
608.222	26.69
608.414	26.62
608.606	26.54
608.799	26.7
608.991	27
609.183	26.89
609.375	26.82
609.567	26.87
609.759	26.99
609.952	27.21
610.144	27.27
610.336	27.28
610.528	27.26
610.72	27.36
610.912	27.57
611.104	27.64
611.296	27.87
611.488	28.04
611.68	28.11
611.872	28.03
612.064	28.07
612.256	28.35
612.448	28.38
612.64	28.54
612.832	28.77
613.023	28.45
613.215	28.52
613.407	28.51
613.599	28.38
613.791	28.31
613.983	28.46
614.174	28.64
614.366	28.62
614.558	28.68
614.75	28.55
614.941	28.62
615.133	28.83
615.325	28.68
615.516	28.9
615.708	28.88
615.9	28.78
616.091	28.86
616.283	28.67
616.475	28.65
616.666	28.72
616.858	29.28
617.049	28.96
617.241	28.81
617.432	29.02
617.624	29.02
617.815	29.29
618.007	29.73
618.198	29.9
618.39	29.85
618.581	29.67
618.773	29.76
618.964	29.71
619.155	30
619.347	30.02
619.538	29.89
619.729	29.74
619.921	29.74
620.112	29.83
620.303	29.88
620.494	30.01
620.686	30.19
620.877	30.17
621.068	29.74
621.259	29.87
621.451	30.15
621.642	30.2
621.833	30.26
622.024	30.49
622.215	30.28
622.406	30.28
622.597	30.43
622.788	30.32
622.98	30.46
623.171	30.75
623.362	30.71
623.553	31.04
623.744	31
623.935	31.19
624.126	30.92
624.317	30.89
624.508	30.6
624.698	30.3
624.889	30.45
625.08	30.55
625.271	30.78
625.462	30.72
625.653	30.24
625.844	30.32
626.034	30.2
626.225	30.12
626.416	30.05
626.607	30.36
626.798	30.64
626.988	30.86
627.179	30.87
627.37	30.57
627.56	30.56
627.751	30.81
627.942	30.97
628.132	30.7
628.323	30.84
628.514	30.96
628.704	30.86
628.895	30.79
629.085	30.77
629.276	30.6
629.466	30.63
629.657	30.61
629.847	30.51
630.038	30.51
630.228	31.1
630.419	31.26
630.609	31.33
630.8	31.23
630.99	31.26
631.181	31.21
631.371	31.46
631.561	31.59
631.752	32
631.942	32.05
632.132	31.89
632.323	31.49
632.513	31.64
632.703	31.68
632.893	31.82
633.084	31.97
633.274	32.04
633.464	31.66
633.654	31.89
633.844	31.75
634.034	31.67
634.225	31.79
634.415	32.05
634.605	31.96
634.795	31.96
634.985	32.18
635.175	31.91
635.365	31.71
635.555	32.02
635.745	31.68
635.935	31.66
636.125	31.64
636.315	31.73
636.505	31.74
636.695	31.74
636.885	31.63
637.075	31.23
637.265	31.32
637.455	31.39
637.644	31.35
637.834	31.62
638.024	31.45
638.214	31.75
638.404	31.88
638.593	31.67
638.783	31.85
638.973	32.48
639.163	32.74
639.352	32.98
639.542	33.39
639.732	33.63
639.921	33.84
640.111	34.09
640.301	34.03
640.49	33.72
640.68	34.2
640.87	34.29
641.059	34.17
641.249	34.66
641.438	34.75
641.628	34.46
641.817	34.33
642.007	34.12
642.196	34.04
642.386	34.11
642.575	34.4
642.764	33.99
642.954	33.67
643.143	33.77
643.333	33.48
643.522	33.45
643.711	33.6
643.901	33.75
644.09	34.03
644.279	34.21
644.469	34.32
644.658	34.43
644.847	34.72
645.036	34.88
645.226	34.56
645.415	34.44
645.604	34.38
645.793	34.54
645.982	34.55
646.171	34.41
646.361	34.76
646.55	34.92
646.739	34.94
646.928	35.01
647.117	34.89
647.306	35.09
647.495	35.27
647.684	35.32
647.873	35.25
648.062	35.26
648.251	35.72
648.44	35.43
648.629	35.41
648.818	35.37
649.007	35.35
649.196	35.88
649.384	35.97
649.573	35.85
649.762	35.81
649.951	35.82
650.14	35.74
650.328	35.31
650.517	35.29
650.706	35.43
650.895	35.67
651.083	35.94
651.272	35.31
651.461	35.24
651.65	35.79
651.838	35.72
652.027	36.02
652.216	35.98
652.404	36.24
652.593	36.31
652.781	36.34
652.97	36.38
653.158	36.2
653.347	36.99
653.535	37.34
653.724	36.63
653.912	37.02
654.101	36.88
654.289	37.21
654.478	37.29
654.666	37.51
654.855	37.46
655.043	37.13
655.231	37.02
655.42	36.66
655.608	36.11
655.796	36.47
655.985	36.43
656.173	36.35
656.361	36.24
656.55	36.01
656.738	35.74
656.926	35.81
657.114	36.33
657.302	36.84
657.491	36.73
657.679	36.65
657.867	36.63
658.055	36.61
658.243	36.39
658.431	36.17
658.619	36.34
658.807	36.38
658.996	36.31
659.184	35.86
659.372	35.61
659.56	35.52
659.748	35.53
659.936	35.46
660.124	35.42
660.311	35.59
660.499	35.75
660.687	35.71
660.875	35.68
661.063	35.71
661.251	35.76
661.439	35.71
661.627	35.96
661.814	36.12
662.002	36.25
662.19	36.45
662.378	36.84
662.565	37.32
662.753	37.71
662.941	37.98
663.129	37.93
663.316	38.48
663.504	38.06
663.692	38.15
663.879	38.25
664.067	38.3
664.254	38.42
664.442	37.85
664.63	37.14
664.817	36.71
665.005	36.76
665.192	37.17
665.38	36.89
665.567	37.45
665.755	37.48
665.942	37.73
666.13	37.91
666.317	38.06
666.504	38.04
666.692	38.49
666.879	38.82
667.067	38.81
667.254	38.29
667.441	38.07
667.629	38.15
667.816	37.96
668.003	37.77
668.19	37.68
668.378	37.55
668.565	37.85
668.752	37.6
668.939	37.26
669.127	37.3
669.314	37.61
669.501	37.73
669.688	37.8
669.875	38.09
670.062	38.64
670.249	38.89
670.436	38.72
670.623	38.5
670.81	38.84
670.997	38.86
671.184	39.11
671.371	39.53
671.558	40.07
671.745	40.07
671.932	39.97
672.119	39.6
672.306	39.3
672.493	39.5
672.68	40.03
672.867	40.1
673.054	39.9
673.24	39.91
673.427	39.83
673.614	39.62
673.801	40.19
673.988	40.34
674.174	40.75
674.361	40.81
674.548	40.44
674.734	40.23
674.921	39.93
675.108	40.62
675.294	39.92
675.481	39.98
675.668	40.37
675.854	39.5
676.041	39.58
676.227	39.31
676.414	39.86
676.601	40.63
676.787	40.84
676.974	41.32
677.16	40.93
677.347	41.27
677.533	40.99
677.719	40.5
677.906	40.49
678.092	40.11
678.279	39.95
678.465	39.58
678.651	39.17
678.838	39.05
679.024	38.68
679.21	38.48
679.397	38.78
679.583	38.75
679.769	38.92
679.955	38.67
680.142	39.19
680.328	39.61
680.514	39.27
680.7	39.08
680.886	39.3
681.073	39.25
681.259	39.51
681.445	39.42
681.631	39.32
681.817	39.05
682.003	39.37
682.189	38.91
682.375	38.53
682.561	38.95
682.747	39.69
682.933	39.6
683.119	40.1
683.305	40.1
683.491	39.79
683.677	39.98
683.863	40.24
684.049	40.59
684.235	40.45
684.42	40.55
684.606	40.32
684.792	40.28
684.978	40.37
685.164	40.16
685.349	40.2
685.535	40.7
685.721	40.48
685.907	40.36
686.092	40.39
686.278	40.89
686.464	41.03
686.649	41.52
686.835	41.03
687.021	41.3
687.206	41.22
687.392	41.12
687.577	40.78
687.763	40.83
687.948	40.8
688.134	40.53
688.319	40.98
688.505	40.88
688.69	41.15
688.876	41.2
689.061	40.74
689.247	40.61
689.432	40.96
689.618	41.26
689.803	41.64
689.988	41.52
690.174	41.9
690.359	41.68
690.544	41.85
690.73	41.77
690.915	42.06
691.1	42.29
691.285	42.48
691.471	42.67
691.656	43.14
691.841	43.03
692.026	43.55
692.211	43.72
692.396	43.62
692.582	43.59
692.767	43.45
692.952	43.32
693.137	43.24
693.322	43.33
693.507	43.43
693.692	42.89
693.877	42.93
694.062	43.07
694.247	42.66
694.432	43.06
694.617	43.52
694.802	43.61
694.987	43.82
695.172	43.98
695.357	44.02
695.541	43.89
695.726	44.42
695.911	44.87
696.096	44.46
696.281	44.94
696.466	44.51
696.65	43.66
696.835	43.75
697.02	43.95
697.204	43.73
697.389	43.61
697.574	43.27
697.759	42.97
697.943	42.74
698.128	42.72
698.312	42.2
698.497	41.8
698.682	42.05
698.866	41.86
699.051	41.38
699.235	41.5
699.42	41.83
699.604	41.78
699.789	41.79
699.973	41.71
700.158	41.99
700.342	42.13
700.527	42.76
700.711	42.96
700.895	42.84
701.08	43.28
701.264	43.36
701.448	43.16
701.633	43.64
701.817	43.67
702.001	43.65
702.186	43.5
702.37	44.01
702.554	43.71
702.738	43.87
702.923	44.02
703.107	43.8
703.291	44.27
703.475	44.37
703.659	44.56
703.843	44.66
704.027	45.5
704.212	45.69
704.396	45.34
704.58	45.67
704.764	45.16
704.948	44.88
705.132	44.57
705.316	44.35
705.5	44.67
705.684	44.06
705.868	44.03
706.052	43.09
706.235	43.16
706.419	43.14
706.603	43.14
706.787	43.5
706.971	44.25
707.155	44.11
707.339	43.97
707.522	43.95
707.706	44.18
707.89	44.59
708.074	45.42
708.257	45.28
708.441	46.04
708.625	45.9
708.808	45.91
708.992	46.01
709.176	46.27
709.359	46.39
709.543	46.11
709.727	46.42
709.91	46.07
710.094	45.53
710.277	46.07
710.461	45.32
710.644	45.34
710.828	45.02
711.011	44.41
711.195	44.67
711.378	44.83
711.562	44.66
711.745	44.18
711.928	44.08
712.112	43.75
712.295	43.65
712.478	43.44
712.662	43.64
712.845	43.8
713.028	43.97
713.212	44.16
713.395	43.54
713.578	43.38
713.761	43.34
713.945	43.43
714.128	43.36
714.311	42.97
714.494	43.67
714.677	43.63
714.86	43.82
715.043	44.32
715.227	44.12
715.41	44.34
715.593	44.63
715.776	44.98
715.959	45.06
716.142	45.5
716.325	45.15
716.508	44.83
716.691	45.43
716.874	45.82
717.057	45.36
717.239	45.06
717.422	45.47
717.605	45.77
717.788	46.07
717.971	46.56
718.154	46.55
718.337	47.37
718.519	47.9
718.702	47.67
718.885	46.94
719.068	47.01
719.25	48.11
719.433	47.81
719.616	47.37
719.798	47.12
719.981	47.07
720.164	46.94
720.346	46.93
720.529	47.51
720.712	47.07
720.894	47.51
721.077	47.39
721.259	47.1
721.442	47.32
721.624	47.86
721.807	48.13
721.989	48.05
722.172	48.55
722.354	48.93
722.537	47.78
722.719	48
722.901	48.21
723.084	49.06
723.266	48.32
723.448	48.57
723.631	48.3
723.813	48.07
723.995	47.34
724.178	47.16
724.36	46.89
724.542	47.03
724.724	46.77
724.907	47.12
725.089	46.49
725.271	47.53
725.453	47.53
725.635	47.69
725.817	48.33
725.999	49.25
726.181	49.3
726.364	48.71
726.546	49.43
726.728	49.9
726.91	49.52
727.092	49.39
727.274	49.04
727.456	49
727.638	49.57
727.819	48.99
728.001	48.58
728.183	49.37
728.365	49.34
728.547	48.9
728.729	49.35
728.911	49.66
729.093	49.62
729.274	48.59
729.456	48.62
729.638	48.46
729.82	48.52
730.001	48.52
730.183	48.1
730.365	48.45
730.546	48.41
730.728	46.93
730.91	46.44
731.091	46.79
731.273	47.4
731.455	46.77
731.636	46.23
731.818	47.06
731.999	47.15
732.181	47.15
732.362	47.41
732.544	47.77
732.725	48.52
732.907	48.56
733.088	48.86
733.27	49.45
733.451	49.97
733.633	51.3
733.814	50.64
733.995	51.02
734.177	50.74
734.358	50.14
734.539	50.51
734.721	50.09
734.902	49.97
735.083	49.78
735.264	50.64
735.446	50.67
735.627	49.19
735.808	48.36
735.989	48.55
736.17	49.46
736.351	49
736.533	48.93
736.714	49.19
736.895	49.25
737.076	48.27
737.257	47.33
737.438	46.71
737.619	47.47
737.8	48.86
737.981	48.73
738.162	47.88
738.343	49.14
738.524	47.95
738.705	48.14
738.886	48.29
739.067	50.03
739.247	50.04
739.428	50.65
739.609	50.24
739.79	49.54
739.971	48.45
740.151	48.66
740.332	48.74
740.513	48.81
740.694	49.42
740.874	48.91
741.055	47.86
741.236	47.75
741.417	48.26
741.597	48.49
741.778	49.35
741.958	49.79
742.139	50.27
742.32	50.07
742.5	50.43
742.681	50.62
742.861	50.82
743.042	50.89
743.222	51.4
743.403	51.18
743.583	51.24
743.764	50.57
743.944	50.55
744.124	49.89
744.305	49.47
744.485	50.36
744.666	50.21
744.846	50.71
745.026	51.55
745.207	50.04
745.387	49.94
745.567	50.57
745.747	50.18
745.928	49.88
746.108	50.08
746.288	49.44
746.468	48.4
746.648	47.99
746.829	48.79
747.009	48.21
747.189	49.4
747.369	50.01
747.549	49.08
747.729	49.96
747.909	49.62
748.089	49.57
748.269	50.17
748.449	51.54
748.629	51.53
748.809	50.92
748.989	51.21
749.169	51.12
749.349	50.7
749.529	50.67
749.709	50.07
749.889	51.24
750.068	51.32
750.248	52.55
750.428	52.19
750.608	51.78
750.788	50.96
750.967	50.84
751.147	51.13
751.327	51
751.507	50.78
751.686	51.32
751.866	51.19
752.046	51.49
752.225	50.97
752.405	51.35
752.585	51.44
752.764	51.64
752.944	51.72
753.123	51.39
753.303	51.87
753.482	52.6
753.662	52.58
753.841	51.55
754.021	52.26
754.2	52.55
754.38	51.83
754.559	51.95
754.739	52.21
754.918	52.05
755.097	52.3
755.277	51.21
755.456	50.67
755.635	50.5
755.815	51.57
755.994	49.99
756.173	49.53
756.352	49.4
756.532	49.63
756.711	49.02
756.89	48.26
757.069	48.26
757.248	48.38
757.427	47.99
757.607	47.01
757.786	47.3
757.965	46.71
758.144	46.69
758.323	47.45
758.502	47.01
758.681	47.55
758.86	48.45
759.039	47.45
759.218	48.01
759.397	49.1
759.576	49.34
759.755	47.91
759.934	50.01
760.113	49.98
760.291	48.66
760.47	48.63
760.649	49.34
760.828	49.26
761.007	50.19
761.186	49.67
761.364	48.45
761.543	49.4
761.722	49.98
761.901	47.9
762.079	47.92
762.258	48.55
762.437	48.99
762.615	47.65
762.794	47.33
762.972	46.29
763.151	46.32
763.33	47.17
763.508	46.75
763.687	46.35
763.865	47.82
764.044	47.66
764.222	47.46
764.401	47.47
764.579	47.92
764.758	47.96
764.936	48.67
765.114	48.49
765.293	48.21
765.471	48.46
765.65	49.67
765.828	49.14
766.006	49.87
766.184	50
766.363	50.19
766.541	49.68
766.719	51.15
766.898	51.66
767.076	51.91
767.254	52.27
767.432	52.76
767.61	52.05
767.788	51.85
767.967	51.74
768.145	52.23
768.323	50.86
768.501	52.75
768.679	51.29
768.857	50.98
769.035	51.62
769.213	52.13
769.391	51.91
769.569	52.03
769.747	52.95
769.925	51.91
770.103	50.74
770.281	51.9
770.459	52.31
770.636	52.88
770.814	53.8
770.992	53.62
771.17	53.15
771.348	52.94
771.525	53.62
771.703	52.92
771.881	53.48
772.059	54.35
772.236	55.18
772.414	54.7
772.592	54.43
772.769	54.21
772.947	53.73
773.125	53.52
773.302	53.83
773.48	53.2
773.657	53.89
773.835	53.13
774.013	53.67
774.19	54.3
774.368	53.24
774.545	53.05
774.723	52.74
774.9	51.27
775.077	52.49
775.255	52.25
775.432	53.88
775.61	52.6
775.787	51.94
775.964	51.38
776.142	52.6
776.319	53.38
776.496	54.17
776.674	52.87
776.851	55.89
777.028	54.9
777.205	55.82
777.382	54.69
777.56	55.4
777.737	58.12
777.914	58.35
778.091	56.1
778.268	57.18
778.445	57.99
778.622	58.89
778.8	57.92
778.977	57.99
779.154	63.17
779.331	63.58
779.508	64
779.685	63.66
779.862	64.41
780.038	65.01
780.215	64.77
780.392	63.69
780.569	63.7
780.746	64.99
780.923	64.53
781.1	59.17
781.277	59.01
781.453	58.61
781.63	57.74
781.807	57.04
781.984	56.13
782.16	56.31
782.337	56.56
782.514	57.33
782.691	58.43
782.867	58.34
783.044	56.58
783.221	57.39
783.397	57.77
783.574	58.36
783.75	59.15
783.927	60.21
784.103	59.12
784.28	58.57
784.456	59.14
784.633	58.64
784.809	60.03
784.986	60.4
785.162	58.53
785.339	58.15
785.515	56.44
785.692	55.77
785.868	55.67
786.044	55.89
786.221	56.14
786.397	55.26
786.573	54.14
786.749	53.32
786.926	54.13
787.102	56.09
787.278	57.02
787.454	57.91
787.631	58.61
787.807	57.73
787.983	56.53
788.159	55.76
788.335	56.28
788.511	55.8
788.687	55.66
788.863	55.45
789.039	54.11
789.216	52.87
789.392	54.37
789.568	54.69
789.744	56.08
789.919	56.18
790.095	55.99
790.271	56.8
790.447	57.31
790.623	57.02
790.799	56.84
790.975	56.49
791.151	57.61
791.327	55.8
791.502	56.62
791.678	54.28
791.854	55.89
792.03	57.37
792.205	57.47
792.381	58.8
792.557	61.12
792.733	61.27
792.908	63.07
793.084	61.27
793.259	61.52
793.435	59.5
793.611	62.33
793.786	61.46
793.962	60.55
794.137	60.34
794.313	58.79
794.488	57.8
794.664	59.49
794.839	56.96
795.015	58.34
795.19	60.38
795.366	60.88
795.541	60.23
795.716	59.83
795.892	60.26
796.067	57.68
796.242	57.77
796.418	57.35
796.593	55.57
796.768	57.65
796.944	57.02
797.119	55.14
797.294	53.7
797.469	53.93
797.644	54.3
797.82	53.41
797.995	54.55
798.17	53.18
798.345	53.75
798.52	54.19
798.695	55.23
798.87	55.13
799.045	56.7
799.22	59.62
799.395	60.59
799.57	60.05
799.745	60.82
799.92	60.74
800.095	62.44
800.27	63.31
800.445	63.83
800.62	60.52
800.795	63.14
800.97	63.98
801.145	61.42
801.319	61.53
801.494	63.3
801.669	61.56
801.844	63.39
802.018	61.21
802.193	60.18
802.368	60.64
802.543	62.26
802.717	61.96
802.892	60.67
803.067	60.52
803.241	58.99
803.416	58.6
803.59	59.97
803.765	57.71
803.94	59.45
804.114	57.75
804.289	57.58
804.463	57.18
804.638	54.27
804.812	55.19
804.986	54.23
805.161	52.94
805.335	53.07
805.51	52.94
805.684	52.41
805.858	51.36
806.033	50.57
806.207	51.72
806.381	52.3
806.556	52.98
806.73	50.96
806.904	52.62
807.078	51.82
807.253	52.44
807.427	51.73
807.601	53.88
807.775	56.51
807.949	58.69
808.123	57.11
808.298	57.19
808.472	59.55
808.646	58.58
808.82	58.45
808.994	60.48
809.168	60.68
809.342	63.01
809.516	61.34
809.69	60.63
809.864	59.19
810.038	63.15
810.212	63.48
810.385	60.44
810.559	64.66
810.733	64.74
810.907	62.72
811.081	61.23
811.255	60.15
811.428	59.79
811.602	61.07
811.776	63.47
811.95	60.35
812.123	59.47
812.297	62.34
812.471	60.39
812.644	57.88
812.818	61.19
812.992	60.59
813.165	62.88
813.339	62.36
813.512	59.51
813.686	60.42
813.86	60.34
814.033	60.75
814.207	58.01
814.38	58.24
814.554	58.14
814.727	57.4
814.9	58.72
815.074	58.28
815.247	57.88
815.421	56.72
815.594	53.02
815.767	51.52
815.941	50.16
816.114	51.62
816.287	52.75
816.46	54.38
816.634	56.6
816.807	57.76
816.98	56.53
817.153	61.29
817.327	61.69
817.5	62.17
817.673	63.34
817.846	64.66
818.019	63.21
818.192	62.44
818.365	63.12
818.538	63.22
818.711	59.46
818.884	59.04
819.057	56.2
819.23	56.41
819.403	55.7
819.576	54.75
819.749	53.5
819.922	52.64
820.095	51.97
820.268	51.89
820.441	51.18
820.614	49.99
820.786	49.1
820.959	49.07
821.132	48.57
821.305	48.18
821.477	47.53
821.65	48.56
821.823	48.2
821.996	47.03
822.168	46.47
822.341	45.66
822.514	46.24
822.686	46.43
822.859	45.79
823.031	45.53
823.204	45.52
823.376	45.45
823.549	45.02
823.722	45.12
823.894	45.76
824.067	45.75
824.239	46.04
824.411	46.09
824.584	45.95
824.756	46.92
824.929	47.43
825.101	47.69
825.273	48.14
825.446	47.94
825.618	48.08
825.79	47.54
825.963	47.9
826.135	46.93
826.307	46.93
826.479	47.66
826.652	47.06
826.824	46.59
826.996	46.04
827.168	46.25
827.34	46.06
827.512	46.42
827.684	47.4
827.856	47.09
828.029	49.05
828.201	49.35
828.373	48.72
828.545	49.1
828.717	50.19
828.889	50.65
829.061	51
829.232	52.27
829.404	51.97
829.576	52.61
829.748	53.54
829.92	52.9
830.092	52.17
830.264	52.72
830.436	52.85
830.607	53.85
830.779	55.33
830.951	56.64
831.123	56.64
831.294	57.18
831.466	55.48
831.638	54.94
831.809	54.32
831.981	57.68
832.153	58.09
832.324	57.76
832.496	56.15
832.667	58.31
832.839	56.93
833.011	55.96
833.182	56.28
833.354	56.7
833.525	58.77
833.697	60.53
833.868	57.48
834.039	57.33
834.211	57.64
834.382	56.73
834.554	55.66
834.725	54.52
834.896	54.09
835.068	53.33
835.239	52.6
835.41	52.31
835.581	51.23
835.753	52.02
835.924	51.44
836.095	50.92
836.266	49.8
836.438	49.62
836.609	48.79
836.78	50.8
836.951	52.55
837.122	52.51
837.293	52.12
837.464	53.24
837.635	54.21
837.806	55.28
837.977	56.46
838.148	61.74
838.319	63.27
838.49	63.08
838.661	61.8
838.832	62.32
839.003	63.25
839.174	63.14
839.345	61.44
839.516	62.64
839.687	64.63
839.857	66.18
840.028	64.86
840.199	60.26
840.37	63.22
840.54	65.76
840.711	62.68
840.882	65.14
841.053	65.4
841.223	65.95
841.394	65.48
841.564	65.75
841.735	63.03
841.906	61.75
842.076	60
842.247	61.61
842.417	62.78
842.588	66.68
842.758	65.63
842.929	66.3
843.099	72.27
843.27	74.17
843.44	70.8
843.611	71.1
843.781	66.26
843.951	69.4
844.122	73.51
844.292	75.78
844.462	76.98
844.633	79.28
844.803	81.07
844.973	78.45
845.144	75.16
845.314	77.58
845.484	74.32
845.654	83.37
845.824	86.27
845.995	77.7
846.165	67.6
846.335	70.06
846.505	67.56
846.675	68.7
846.845	75.66
847.015	82.48
847.185	85.46
847.355	94.06
847.525	97.16
847.695	105.96
847.865	107.93
848.035	122.64
848.205	107.63
848.375	115.45
848.545	98.51
848.715	92.54
848.884	85.38
849.054	88.11
849.224	84.95
849.394	83.84
849.564	79.02
849.733	81.97
849.903	85.41
850.073	92.9
850.243	89.71
850.412	97.29
850.582	94.66
850.752	93.72
850.921	85.79
851.091	91.48
851.26	97.01
851.43	99.19
851.599	99.08
851.769	94.7
851.939	92.8
852.108	101.37
852.278	106.58
852.447	105.35
852.616	105.37
852.786	115.31
852.955	104.33
853.125	103.48
853.294	102.73
853.463	100.17
853.633	101.78
853.802	102.67
853.971	101.13
854.141	92.45
854.31	91.01
854.479	90.5
854.648	82.29
854.818	80.91
854.987	74.1
855.156	69
855.325	77.38
855.494	83.59
855.663	85.48
855.832	87.25
856.001	96.41
856.171	94.17
856.34	101.43
856.509	115.95
856.678	126.69
856.847	137.94
857.016	137.93
857.185	122.05
857.353	127.4
857.522	140.32
857.691	128.89
857.86	128.72
858.029	118.66
858.198	125.8
858.367	122.58
858.535	124.6
858.704	114.6
858.873	118.66
859.042	129.64
859.21	115.36
859.379	104.77
859.548	100.87
859.717	94.93
859.885	104.09
860.054	92.26
860.222	82.78
860.391	90.9
860.56	89.23
860.728	87.78
860.897	85.44
861.065	80.72
861.234	85.21
861.402	88.01
861.571	91.01
861.739	95.06
861.908	102.33
862.076	106.38
862.244	110.63
862.413	104.72
862.581	110.01
862.749	101.69
862.918	98.33
863.086	89.17
863.254	84.04
863.423	82.57
863.591	83.57
863.759	78.28
863.927	78.09
864.096	69.36
864.264	79.64
864.432	74.25
864.6	77.38
864.768	77.39
864.936	77.96
865.104	80.44
865.272	86.47
865.44	84.87
865.608	78.31
865.776	81.48
865.944	90.24
866.112	88.1
866.28	86.7
866.448	90.91
866.616	90.19
866.784	88.66
866.952	89.04
867.12	88.22
867.288	83.89
867.455	86.53
867.623	87.64
867.791	81.36
867.959	76.62
868.127	81.44
868.294	81.36
868.462	81.06
868.63	84.11
868.797	89.24
868.965	80.95
869.133	80.9
869.3	80.82
869.468	76.24
869.636	61.24
869.803	64.2
869.971	63.64
870.138	59.94
870.306	58.28
870.473	60.76
870.641	62.39
870.808	69.91
870.975	71.03
871.143	75.13
871.31	76.06
871.478	103.75
871.645	102.36
871.812	102.4
871.98	107.67
872.147	109.42
872.314	111.51
872.482	112.1
872.649	109.1
872.816	102.93
872.983	98.48
873.15	96.67
873.318	91.81
873.485	93.64
873.652	92.16
873.819	95.86
873.986	100.61
874.153	96.04
874.32	90.15
874.487	93.29
874.654	102.02
874.821	107.67
874.988	108.96
875.155	103.93
875.322	109.51
875.489	105.8
875.656	92.53
875.823	85.89
875.99	76.5
876.157	79.97
876.324	78.22
876.49	74.8
876.657	78.94
876.824	75.76
876.991	69.86
877.157	63.76
877.324	76.1
877.491	83
877.658	90.04
877.824	95.65
877.991	93.59
878.157	94.27
878.324	98.55
878.491	99.43
878.657	108.78
878.824	112.08
878.99	111.25
879.157	102.09
879.323	93.29
879.49	85.77
879.656	88.13
879.823	91.15
879.989	86.13
880.156	85.76
880.322	82.37
880.488	78.53
880.655	75.46
880.821	73.99
880.987	75.78
881.154	77.39
881.32	79.75
881.486	80.41
881.652	78.38
881.819	79.99
881.985	72.51
882.151	71.05
882.317	67.26
882.483	64.65
882.649	62.8
882.816	62.44
882.982	58.45
883.148	55.98
883.314	53.28
883.48	53.73
883.646	51.36
883.812	52.18
883.978	50.1
884.144	50.3
884.31	49.35
884.476	50.47
884.642	51.17
884.807	53.77
884.973	54.96
885.139	54.93
885.305	53.27
885.471	54.86
885.637	53.08
885.802	55.43
885.968	56.92
886.134	60.41
886.3	59.47
886.465	57.21
886.631	55.48
886.797	56.63
886.962	58.78
887.128	62.11
887.293	61.23
887.459	68.98
887.625	66.23
887.79	65.78
887.956	60.46
888.121	64.19
888.287	64.44
888.452	67.94
888.618	66.2
888.783	64.74
