Data from LC_153_Reflection_3.txt Node
Date: Mon Nov 16 22:12:11 EST 2015
User: robert
Spectrometer: USB4E03001
Autoset integration time: false
Trigger mode: 4
Integration Time (sec): 1.000000E-1
Scans to average: 15
Electric dark correction enabled: true
Nonlinearity correction enabled: false
Boxcar width: 5
Stray light correction enabled: false
XAxis mode: Wavelengths
Stop averaging: false
Number of Pixels in Spectrum: 3648
>>>>>Begin Spectral Data<<<<<
177.566	-3516.87
177.785	-110.19
178.005	2156.3
178.225	-216.36
178.445	-607.79
178.665	1460.96
178.885	484.87
179.105	25.23
179.324	-144.86
179.544	7.57
179.764	-224.89
179.984	117.68
180.204	19.35
180.423	-14.93
180.643	-56.13
180.863	-19.13
181.083	-34.66
181.302	-129.05
181.522	-189.54
181.742	-158.27
181.961	-277.14
182.181	-227.31
182.401	-329.65
182.621	-1497.31
182.84	-618.13
183.06	-333.18
183.279	-201.23
183.499	-140.62
183.719	-130.56
183.938	-82.3
184.158	-112.86
184.377	-39.03
184.597	-117.13
184.816	-70.31
185.036	-32.5
185.256	-16.94
185.475	-45.14
185.695	-91.93
185.914	-164.09
186.134	-260.85
186.353	-481.25
186.572	-549.48
186.792	-1005.52
187.011	-375.6
187.231	-337.97
187.45	-260.82
187.67	-760.96
187.889	-2103
188.108	3497.26
188.328	-935.2
188.547	-347.6
188.766	-465.72
188.986	-700.29
189.205	-516.69
189.424	-387.05
189.644	-1247.03
189.863	-1269.81
190.082	-845
190.302	-1746.25
190.521	-1044.65
190.74	968.52
190.959	411.95
191.178	660.5
191.398	519.09
191.617	394.77
191.836	298.11
192.055	289.61
192.274	134.58
192.494	201.35
192.713	146.52
192.932	482.4
193.151	230.71
193.37	466.67
193.589	-236.33
193.808	-35.2
194.027	-163.16
194.246	-2084.92
194.465	609.61
194.685	1449.19
194.904	669.22
195.123	-1021.29
195.342	-525.05
195.561	-286.92
195.78	-431.15
195.999	21297.18
196.218	921.5
196.436	651.46
196.655	-2126.6
196.874	-688.11
197.093	-1034.86
197.312	-823.36
197.531	2012.17
197.75	709.98
197.969	-2200.95
198.188	-525.92
198.407	-126.81
198.625	-114.39
198.844	-107.56
199.063	-111.52
199.282	-179.51
199.501	-114.59
199.719	-51.16
199.938	-23.33
200.157	-30.43
200.376	-40.23
200.594	-49.98
200.813	-148.67
201.032	-117.09
201.251	-95.9
201.469	-101.78
201.688	-63.29
201.907	-112.48
202.125	-264.2
202.344	11036.9
202.563	1857.89
202.781	362.04
203	1045.09
203.218	740.3
203.437	592.27
203.656	327.46
203.874	190.77
204.093	217.91
204.311	268.04
204.53	213.87
204.748	276.22
204.967	140.4
205.185	107.3
205.404	130.1
205.622	78.4
205.841	69.74
206.059	62.05
206.278	-29.62
206.496	-93.87
206.715	22.73
206.933	112.18
207.151	128.86
207.37	164.7
207.588	177.18
207.806	182.27
208.025	382.04
208.243	-700.5
208.461	1183.71
208.68	-16764.71
208.898	630.69
209.116	729.5
209.335	593.7
209.553	611.55
209.771	6354.58
209.989	1268.8
210.208	2266.73
210.426	-4007.17
210.644	2154.8
210.862	-1875.12
211.081	957.73
211.299	-435.56
211.517	1740.76
211.735	-423.67
211.953	-137457.14
212.171	-2267.77
212.39	-6759.46
212.608	-19617.39
212.826	739.75
213.044	511.78
213.262	403.15
213.48	1731.01
213.698	220.14
213.916	297.19
214.134	203.19
214.352	522.45
214.57	334.38
214.788	432.85
215.006	402.77
215.224	299.13
215.442	201.24
215.66	180.3
215.878	145.91
216.096	142.29
216.314	145.4
216.532	259.39
216.75	123.29
216.968	126.53
217.185	280.78
217.403	592.49
217.621	-1746.1
217.839	-647.8
218.057	-722.27
218.275	1555.95
218.492	454.01
218.71	697.11
218.928	199.02
219.146	221.34
219.363	192.22
219.581	132.56
219.799	104.83
220.017	114.49
220.234	118.97
220.452	123.26
220.67	136.48
220.887	142.67
221.105	160.35
221.323	140.08
221.54	151.39
221.758	180.25
221.976	204
222.193	175.67
222.411	131
222.629	133.52
222.846	156.64
223.064	139.67
223.281	124
223.499	103.94
223.716	105.27
223.934	83.47
224.151	85.48
224.369	69.33
224.586	69.51
224.804	68.59
225.021	55.31
225.239	43.12
225.456	59.24
225.674	72.86
225.891	75.96
226.108	85.56
226.326	83.17
226.543	72.37
226.76	66.46
226.978	55.94
227.195	58.27
227.413	53.98
227.63	43.94
227.847	32.19
228.064	27.99
228.282	21.26
228.499	18.25
228.716	16.77
228.934	15.63
229.151	17.02
229.368	18.77
229.585	16.58
229.802	17.43
230.02	18.43
230.237	20.96
230.454	21.18
230.671	23.02
230.888	23.69
231.105	24.82
231.323	26.03
231.54	26.01
231.757	26.18
231.974	25.61
232.191	22.57
232.408	25.45
232.625	23.68
232.842	22.37
233.059	25.68
233.276	26.68
233.493	25.62
233.71	27.03
233.927	32.33
234.144	31.91
234.361	32.39
234.578	33.39
234.795	31.91
235.012	30.44
235.229	33.27
235.446	30.36
235.663	29.65
235.879	31.59
236.096	25.5
236.313	25.57
236.53	24.91
236.747	28.13
236.964	29.09
237.181	28.81
237.397	32.22
237.614	29.97
237.831	28.75
238.048	30.49
238.264	30.86
238.481	30.53
238.698	28.62
238.915	26.19
239.131	25.5
239.348	26.61
239.565	26.27
239.781	28.11
239.998	26.89
240.215	26.46
240.431	24.71
240.648	20.91
240.865	22.2
241.081	19.11
241.298	20.79
241.514	19.31
241.731	16.33
241.947	17.27
242.164	15.31
242.38	14.57
242.597	14.62
242.814	14.32
243.03	15.43
243.246	15.13
243.463	16.49
243.679	15.47
243.896	15.97
244.112	16.37
244.329	15.35
244.545	15.4
244.762	15.01
244.978	16.34
245.194	16.69
245.411	14.99
245.627	14.21
245.843	12.41
246.06	13.48
246.276	13.8
246.492	13.64
246.709	12.97
246.925	12.43
247.141	12.18
247.357	11.16
247.574	10.91
247.79	11.11
248.006	10.93
248.222	10.94
248.439	10.21
248.655	9.6
248.871	9.47
249.087	9.35
249.303	9.23
249.519	10.75
249.736	11.73
249.952	11.27
250.168	12.02
250.384	12.38
250.6	13.15
250.816	13.54
251.032	11.88
251.248	11.31
251.464	11.68
251.68	11.89
251.896	10.95
252.112	9.32
252.328	10.56
252.544	10.28
252.76	10.9
252.976	10.84
253.192	11.14
253.408	12.15
253.624	15.11
253.84	13.83
254.056	15.99
254.272	15.25
254.487	17.6
254.703	14.83
254.919	13.41
255.135	12.37
255.351	13.42
255.567	15.13
255.782	16.96
255.998	12.98
256.214	16.69
256.43	14.45
256.646	13.57
256.861	12.15
257.077	12.85
257.293	11.82
257.508	10.08
257.724	10.77
257.94	10.01
258.155	7.48
258.371	7.84
258.587	6.72
258.802	6.09
259.018	8.35
259.234	8.47
259.449	8.97
259.665	9.07
259.88	10.58
260.096	9.75
260.312	8.68
260.527	8.62
260.743	9.49
260.958	9.47
261.174	10.46
261.389	10.06
261.605	10.39
261.82	10.77
262.036	11.63
262.251	11.67
262.466	12.52
262.682	14.11
262.897	15.65
263.113	14.26
263.328	15.47
263.543	13.55
263.759	14.03
263.974	14.01
264.189	13.31
264.405	12.53
264.62	11.91
264.835	11.33
265.051	11.08
265.266	12.63
265.481	13.83
265.696	13.53
265.912	13.56
266.127	13.26
266.342	12.36
266.557	11.9
266.773	12.61
266.988	13.21
267.203	13.9
267.418	13.64
267.633	12.17
267.848	12.23
268.064	10.91
268.279	12.22
268.494	11.6
268.709	12.5
268.924	13.52
269.139	13.37
269.354	11.88
269.569	10.03
269.784	10.88
269.999	10.87
270.214	10.05
270.429	11.31
270.644	10.31
270.859	9.55
271.074	10.14
271.289	9.09
271.504	8.73
271.719	9.39
271.934	9.92
272.149	9.83
272.363	10.82
272.578	10.3
272.793	9.85
273.008	10.18
273.223	10.12
273.438	8.58
273.653	9.91
273.867	10.1
274.082	9.39
274.297	9.78
274.512	10.04
274.726	9.25
274.941	10.03
275.156	11.46
275.371	11.69
275.585	12.25
275.8	12.78
276.015	12.77
276.229	12.61
276.444	13.77
276.659	14.1
276.873	13.58
277.088	13.75
277.302	14.49
277.517	14.23
277.732	16.17
277.946	15.75
278.161	16.96
278.375	15.62
278.59	15.72
278.804	15.41
279.019	14.42
279.233	13.66
279.448	13.47
279.662	12.32
279.877	12.18
280.091	10.57
280.306	10.52
280.52	10.17
280.735	9.67
280.949	9.47
281.163	9.81
281.378	9.23
281.592	9.98
281.806	10.43
282.021	9.95
282.235	9.53
282.449	9.29
282.664	10.34
282.878	9.28
283.092	11.02
283.307	11.49
283.521	10.61
283.735	10.98
283.949	10.83
284.164	10.68
284.378	11.99
284.592	11.26
284.806	10.15
285.02	10.07
285.234	10.61
285.449	9.22
285.663	8.34
285.877	8.19
286.091	8.03
286.305	8.15
286.519	6.58
286.733	5.53
286.947	6.14
287.161	7.1
287.375	7.52
287.589	7.24
287.803	7.57
288.017	7.51
288.231	7.85
288.445	8.35
288.659	8.24
288.873	9.07
289.087	9.35
289.301	9.14
289.515	8.91
289.729	7.45
289.943	8.19
290.157	8.4
290.371	10.01
290.584	10.1
290.798	10.77
291.012	11.64
291.226	11.36
291.44	12.68
291.654	12.27
291.867	11.98
292.081	12.14
292.295	12.43
292.509	12.37
292.722	11.42
292.936	10.75
293.15	11.38
293.364	10.07
293.577	11.88
293.791	10.24
294.005	11.66
294.218	11.77
294.432	11.71
294.645	11.37
294.859	11.11
295.073	11.87
295.286	12.77
295.5	11.35
295.713	11.05
295.927	10.36
296.14	10.57
296.354	9.99
296.568	9.89
296.781	10.2
296.994	9.87
297.208	9.37
297.421	8.87
297.635	8.28
297.848	8.72
298.062	8.65
298.275	9.28
298.489	9.36
298.702	10.11
298.915	10.47
299.129	11.09
299.342	11.84
299.555	13.42
299.769	14.41
299.982	15.56
300.195	15.89
300.409	17.17
300.622	16.46
300.835	18.4
301.048	17.06
301.262	15.78
301.475	14.6
301.688	14.72
301.901	14.76
302.115	12.87
302.328	12.28
302.541	11.73
302.754	11.27
302.967	11.36
303.18	10.54
303.393	11.22
303.607	11.95
303.82	12.75
304.033	12.43
304.246	11.59
304.459	13
304.672	12.84
304.885	13.44
305.098	12.16
305.311	12.39
305.524	11.11
305.737	9.95
305.95	10.92
306.163	10.66
306.376	9.99
306.589	10.11
306.802	8.72
307.015	9.47
307.228	8.95
307.44	9.67
307.653	9.49
307.866	9.12
308.079	12.03
308.292	11.52
308.505	11.99
308.718	11.84
308.93	11.67
309.143	12.23
309.356	11.33
309.569	11.04
309.781	11.63
309.994	11.44
310.207	11.56
310.42	9.59
310.632	9.02
310.845	8.41
311.058	8.06
311.27	9.11
311.483	10.19
311.696	9.88
311.908	9.95
312.121	9.5
312.333	10.05
312.546	10.01
312.759	10
312.971	10.96
313.184	10.99
313.396	11.56
313.609	11.02
313.821	9.64
314.034	11.57
314.246	12.01
314.459	12.45
314.671	12.05
314.884	12.17
315.096	11.98
315.309	11.37
315.521	13.2
315.733	11.84
315.946	10.78
316.158	11.48
316.371	9.98
316.583	10.64
316.795	10.66
317.008	11.19
317.22	12.51
317.432	13.38
317.644	13.69
317.857	12.58
318.069	14.2
318.281	14.46
318.494	13.73
318.706	14.37
318.918	13.37
319.13	13.4
319.342	12.11
319.555	11.28
319.767	11.55
319.979	11.21
320.191	11.45
320.403	11.3
320.615	11.55
320.827	13.15
321.039	12.77
321.252	13.12
321.464	12.86
321.676	14
321.888	13.37
322.1	13.15
322.312	11.74
322.524	10.51
322.736	11.18
322.948	11
323.16	8.89
323.372	8.98
323.584	8.96
323.796	8.47
324.007	8.35
324.219	9.78
324.431	9.91
324.643	11.3
324.855	11.6
325.067	10.9
325.279	11.65
325.491	12.47
325.702	12
325.914	12.38
326.126	14.28
326.338	14.73
326.55	13.73
326.761	14.04
326.973	14.48
327.185	14.58
327.396	15.08
327.608	14.7
327.82	15.38
328.032	16.01
328.243	15.39
328.455	14.94
328.666	14.58
328.878	15.28
329.09	14.59
329.301	13.91
329.513	14.58
329.725	14.55
329.936	14.88
330.148	14.04
330.359	14.26
330.571	14.3
330.782	13.96
330.994	13.75
331.205	13.63
331.417	14.23
331.628	15
331.84	14.61
332.051	15.18
332.262	15.52
332.474	15.73
332.685	15.82
332.897	15.99
333.108	16.24
333.319	16.17
333.531	16.25
333.742	16.6
333.953	15.75
334.165	15.95
334.376	15.29
334.587	14.61
334.799	15.2
335.01	15.6
335.221	15.41
335.432	14.82
335.644	14.45
335.855	13.71
336.066	14.33
336.277	15.01
336.488	15.57
336.7	15.02
336.911	15.85
337.122	15.14
337.333	15.15
337.544	15.61
337.755	16.4
337.966	16.98
338.177	17.62
338.388	16.84
338.599	17.68
338.811	17.6
339.022	17.73
339.233	18.06
339.444	18.52
339.655	17.11
339.866	17.62
340.076	17.74
340.287	17.58
340.498	17.32
340.709	16.8
340.92	15.15
341.131	14.37
341.342	14.86
341.553	14.3
341.764	14.25
341.975	15.29
342.185	14.4
342.396	13.43
342.607	13.6
342.818	13.95
343.029	14.22
343.239	15.4
343.45	15.85
343.661	15.57
343.872	15.05
344.082	15.35
344.293	15.53
344.504	16.05
344.714	15.37
344.925	15.04
345.136	14.82
345.346	15.09
345.557	15.14
345.768	14.87
345.978	14.95
346.189	14.94
346.399	14.14
346.61	13.83
346.821	14.15
347.031	15.15
347.242	14.85
347.452	15.18
347.663	14.49
347.873	13.74
348.084	13.68
348.294	13.85
348.504	14.51
348.715	14.14
348.925	13.08
349.136	12.22
349.346	11.39
349.557	11.75
349.767	11.41
349.977	11.77
350.188	12.25
350.398	12.81
350.608	12.8
350.819	11.91
351.029	13.07
351.239	13.97
351.449	14.48
351.66	15.47
351.87	15.89
352.08	15.28
352.29	15.38
352.501	14.76
352.711	14.28
352.921	14.46
353.131	14.47
353.341	13.86
353.552	13.7
353.762	13.44
353.972	13.15
354.182	13.26
354.392	13.68
354.602	13.76
354.812	13.97
355.022	14.14
355.232	13.63
355.442	14.07
355.652	14.43
355.862	14.52
356.072	14.82
356.282	14.15
356.492	14.21
356.702	14.27
356.912	14.38
357.122	14.41
357.332	14.12
357.542	14.17
357.752	14.17
357.962	13.8
358.171	13.82
358.381	13.6
358.591	14.21
358.801	13.32
359.011	13.61
359.221	13.36
359.43	13.66
359.64	13.58
359.85	14.11
360.06	13.67
360.269	14.3
360.479	13.61
360.689	13.3
360.899	13.07
361.108	13.27
361.318	12.76
361.528	12.52
361.737	12.15
361.947	11.96
362.156	11.65
362.366	11.75
362.576	11.42
362.785	11.8
362.995	11.94
363.204	12.05
363.414	12.01
363.623	12.04
363.833	12.55
364.042	12.73
364.252	13.02
364.461	12.96
364.671	12.72
364.88	13.07
365.09	13.19
365.299	13.01
365.509	12.3
365.718	12.01
365.927	11.8
366.137	12.11
366.346	11.97
366.555	11.95
366.765	11.46
366.974	11.95
367.183	11.6
367.393	11.06
367.602	10.56
367.811	11.06
368.021	10.96
368.23	11.53
368.439	10.61
368.648	10.84
368.857	11.07
369.067	11.73
369.276	11.6
369.485	12.1
369.694	12.6
369.903	13.62
370.112	13.65
370.321	14.33
370.531	14.17
370.74	14.61
370.949	14.52
371.158	14.25
371.367	13.98
371.576	13.59
371.785	12.79
371.994	12.7
372.203	12.38
372.412	12.4
372.621	12.51
372.83	12.54
373.039	12.71
373.248	12
373.457	12.31
373.666	12.26
373.874	12.29
374.083	12.33
374.292	12.19
374.501	12.07
374.71	11.65
374.919	11.38
375.128	11.29
375.336	10.7
375.545	11.27
375.754	10.35
375.963	10.26
376.171	10.06
376.38	10.45
376.589	10.77
376.798	10.42
377.006	10.83
377.215	10.85
377.424	10.87
377.632	10.85
377.841	10.96
378.05	11.41
378.258	11.6
378.467	11.68
378.675	11.44
378.884	11.21
379.093	11.24
379.301	11
379.51	10.58
379.718	9.97
379.927	10.05
380.135	9.21
380.344	9.41
380.552	8.72
380.761	8.79
380.969	8.76
381.177	9.06
381.386	8.96
381.594	8.82
381.803	9.06
382.011	9.48
382.219	9.35
382.428	9.26
382.636	8.85
382.845	9.39
383.053	9.25
383.261	8.84
383.469	8.44
383.678	8.61
383.886	8.87
384.094	8.56
384.302	8.33
384.511	8.7
384.719	9.27
384.927	9.23
385.135	9.32
385.343	9.52
385.552	9.52
385.76	9.41
385.968	9.43
386.176	9.05
386.384	9.26
386.592	9.22
386.8	8.58
387.008	8.43
387.216	8.47
387.424	8.17
387.633	8.38
387.841	8.66
388.049	8.74
388.257	8.84
388.465	8.72
388.672	8.93
388.88	9.07
389.088	9.69
389.296	9.76
389.504	10.04
389.712	10.13
389.92	9.73
390.128	9.6
390.336	9.71
390.544	9.97
390.751	9.64
390.959	9.52
391.167	9.4
391.375	9.33
391.583	8.84
391.79	8.57
391.998	8.7
392.206	8.87
392.414	8.68
392.621	8.53
392.829	8.25
393.037	8.56
393.244	8.42
393.452	8.45
393.66	8.26
393.867	8.69
394.075	8.67
394.283	8.59
394.49	8.39
394.698	8.59
394.905	8.51
395.113	8.25
395.32	8.44
395.528	8.56
395.735	8.68
395.943	8.41
396.15	8.14
396.358	8.1
396.565	7.93
396.773	8.21
396.98	8.08
397.188	8.15
397.395	8.48
397.602	8.48
397.81	8.29
398.017	8.48
398.225	8.71
398.432	8.86
398.639	9
398.847	9.06
399.054	8.65
399.261	8.46
399.468	8.38
399.676	7.93
399.883	7.63
400.09	7.65
400.297	7.24
400.505	7.28
400.712	7.07
400.919	7.12
401.126	7.2
401.333	7.31
401.54	7.73
401.748	7.85
401.955	8.26
402.162	8.48
402.369	8.3
402.576	8.44
402.783	8.56
402.99	8.75
403.197	8.38
403.404	8.12
403.611	8.22
403.818	8.03
404.025	7.89
404.232	7.76
404.439	7.61
404.646	7.52
404.853	7.43
405.06	7.26
405.267	7.14
405.474	7.22
405.681	7.11
405.887	7.11
406.094	7.07
406.301	7.14
406.508	7.16
406.715	7.19
406.922	7.52
407.128	7.51
407.335	7.42
407.542	7.38
407.749	7.59
407.955	7.93
408.162	7.86
408.369	8.11
408.575	8.04
408.782	8.13
408.989	8.12
409.195	8.05
409.402	8.23
409.609	8.32
409.815	8.58
410.022	8.65
410.228	8.39
410.435	8.51
410.642	7.97
410.848	7.98
411.055	7.77
411.261	7.87
411.468	7.95
411.674	7.7
411.881	7.58
412.087	7.53
412.294	7.5
412.5	7.53
412.706	7.53
412.913	7.85
413.119	7.77
413.326	7.75
413.532	7.82
413.738	7.67
413.945	8
414.151	8.09
414.357	8.06
414.564	7.79
414.77	7.93
414.976	7.64
415.182	7.82
415.389	7.89
415.595	7.87
415.801	7.79
416.007	7.92
416.214	7.69
416.42	7.63
416.626	7.59
416.832	7.7
417.038	7.58
417.244	7.74
417.45	7.55
417.657	7.63
417.863	7.77
418.069	7.8
418.275	7.78
418.481	7.76
418.687	7.74
418.893	7.62
419.099	7.6
419.305	7.69
419.511	7.68
419.717	7.75
419.923	7.66
420.129	7.66
420.335	7.61
420.541	7.56
420.746	7.57
420.952	7.51
421.158	7.62
421.364	7.67
421.57	7.7
421.776	7.7
421.982	7.6
422.187	7.56
422.393	7.53
422.599	7.47
422.805	7.45
423.01	7.42
423.216	7.35
423.422	7.3
423.628	7.26
423.833	7.18
424.039	7.14
424.245	7.22
424.45	7.4
424.656	7.38
424.862	7.37
425.067	7.39
425.273	7.27
425.478	7.48
425.684	7.46
425.889	7.59
426.095	7.57
426.301	7.54
426.506	7.52
426.712	7.45
426.917	7.47
427.123	7.69
427.328	7.74
427.533	8
427.739	7.96
427.944	8.02
428.15	7.8
428.355	7.84
428.561	7.81
428.766	7.73
428.971	7.64
429.177	7.68
429.382	7.62
429.587	7.6
429.793	7.42
429.998	7.31
430.203	7.3
430.408	7.34
430.614	7.29
430.819	7.3
431.024	7.51
431.229	7.57
431.434	7.59
431.64	7.45
431.845	7.31
432.05	7.44
432.255	7.56
432.46	7.42
432.665	7.27
432.87	7.32
433.076	7.44
433.281	7.39
433.486	7.31
433.691	7.12
433.896	6.94
434.101	7
434.306	6.95
434.511	6.82
434.716	6.95
434.921	7.24
435.126	7.29
435.331	7.14
435.535	7.09
435.74	7.19
435.945	7.29
436.15	7.55
436.355	7.67
436.56	7.71
436.765	7.83
436.97	7.68
437.174	7.5
437.379	7.47
437.584	7.59
437.789	7.49
437.993	7.52
438.198	7.48
438.403	7.51
438.608	7.5
438.812	7.43
439.017	7.41
439.222	7.47
439.426	7.51
439.631	7.54
439.836	7.45
440.04	7.52
440.245	7.36
440.45	7.39
440.654	7.31
440.859	7.19
441.063	7.21
441.268	7.15
441.472	7.22
441.677	7.17
441.881	6.93
442.086	6.91
442.29	6.84
442.495	6.93
442.699	7.02
442.904	7.09
443.108	7.13
443.312	7.14
443.517	7.23
443.721	7.02
443.925	7.13
444.13	7.47
444.334	7.53
444.538	7.36
444.743	7.21
444.947	7.13
445.151	7.1
445.356	7.14
445.56	7.21
445.764	7.16
445.968	7.23
446.173	7.19
446.377	7.18
446.581	7.25
446.785	7.43
446.989	7.52
447.193	7.45
447.398	7.41
447.602	7.38
447.806	7.3
448.01	7.34
448.214	7.5
448.418	7.43
448.622	7.4
448.826	7.16
449.03	7.21
449.234	7.29
449.438	7.36
449.642	7.42
449.846	7.28
450.05	7.35
450.254	7.18
450.458	7.16
450.662	7.21
450.866	7.1
451.069	7.2
451.273	7.14
451.477	6.95
451.681	7.08
451.885	6.85
452.089	7.05
452.292	7.03
452.496	7.16
452.7	6.95
452.904	6.84
453.107	6.76
453.311	6.8
453.515	6.73
453.719	6.65
453.922	6.47
454.126	6.51
454.33	6.5
454.533	6.39
454.737	6.42
454.94	6.53
455.144	6.68
455.348	6.81
455.551	6.9
455.755	6.72
455.958	6.9
456.162	7
456.365	7.14
456.569	7.02
456.772	7.01
456.976	6.93
457.179	6.92
457.383	6.95
457.586	7.12
457.79	7.14
457.993	7.41
458.196	7.18
458.4	7.12
458.603	6.99
458.807	7.15
459.01	7.29
459.213	7.19
459.417	7.05
459.62	7.14
459.823	7
460.026	6.88
460.23	6.83
460.433	7.02
460.636	7.02
460.839	7.13
461.042	7.03
461.246	7.08
461.449	7.17
461.652	7.4
461.855	7.17
462.058	7.15
462.261	7.12
462.464	7.14
462.668	7.21
462.871	7.27
463.074	7.36
463.277	7.24
463.48	7.24
463.683	7.28
463.886	7.29
464.089	7.35
464.292	7.55
464.495	7.58
464.698	7.54
464.901	7.42
465.104	7.38
465.306	7.31
465.509	7.5
465.712	7.45
465.915	7.45
466.118	7.27
466.321	7.29
466.524	7.07
466.726	7.32
466.929	7.38
467.132	7.39
467.335	7.28
467.538	7.23
467.74	7.02
467.943	7.13
468.146	7.14
468.348	7.18
468.551	7.2
468.754	7.33
468.956	7.14
469.159	7.01
469.362	6.85
469.564	6.94
469.767	6.84
469.969	7.03
470.172	6.76
470.375	6.71
470.577	6.74
470.78	6.77
470.982	6.69
471.185	6.83
471.387	7.01
471.59	7.01
471.792	7.02
471.995	7.19
472.197	7.06
472.399	7.1
472.602	7.06
472.804	6.99
473.007	6.95
473.209	6.97
473.411	6.71
473.614	6.6
473.816	6.62
474.018	6.68
474.22	6.7
474.423	6.84
474.625	6.78
474.827	6.95
475.03	7.02
475.232	7.2
475.434	7.24
475.636	7.47
475.838	7.56
476.04	7.7
476.243	7.58
476.445	7.51
476.647	7.51
476.849	7.49
477.051	7.31
477.253	7.32
477.455	7.32
477.657	7.16
477.859	6.99
478.061	6.82
478.263	6.67
478.465	6.72
478.667	6.74
478.869	6.69
479.071	6.7
479.273	6.75
479.475	6.61
479.677	6.39
479.879	6.46
480.081	6.58
480.283	6.63
480.485	6.64
480.686	6.65
480.888	6.6
481.09	6.57
481.292	6.57
481.494	6.55
481.695	6.65
481.897	6.65
482.099	6.64
482.301	6.66
482.502	6.7
482.704	6.79
482.906	6.76
483.107	6.81
483.309	6.8
483.511	6.82
483.712	6.79
483.914	6.74
484.115	6.75
484.317	6.73
484.519	6.7
484.72	6.67
484.922	6.63
485.123	6.64
485.325	6.6
485.526	6.58
485.728	6.57
485.929	6.56
486.131	6.61
486.332	6.62
486.534	6.64
486.735	6.68
486.936	6.66
487.138	6.64
487.339	6.6
487.541	6.63
487.742	6.6
487.943	6.6
488.144	6.62
488.346	6.55
488.547	6.54
488.748	6.59
488.95	6.51
489.151	6.58
489.352	6.59
489.553	6.63
489.755	6.58
489.956	6.61
490.157	6.59
490.358	6.6
490.559	6.72
490.76	6.71
490.961	6.7
491.163	6.79
491.364	6.76
491.565	6.75
491.766	6.76
491.967	6.84
492.168	6.83
492.369	6.87
492.57	6.77
492.771	6.76
492.972	6.82
493.173	6.84
493.374	6.75
493.575	6.75
493.776	6.81
493.976	6.95
494.177	6.97
494.378	7.12
494.579	7.07
494.78	7.41
494.981	7.34
495.182	7.27
495.382	7.21
495.583	7.16
495.784	7.23
495.985	7.19
496.185	6.92
496.386	6.94
496.587	6.92
496.788	7.02
496.988	6.9
497.189	7.01
497.39	7.06
497.59	7.09
497.791	7.22
497.992	7.11
498.192	7.16
498.393	7.31
498.593	7.23
498.794	7.07
498.994	7.1
499.195	7.12
499.395	7.12
499.596	7.18
499.796	7.14
499.997	7.07
500.197	7.32
500.398	7.43
500.598	7.32
500.799	7.4
500.999	7.54
501.199	7.47
501.4	7.46
501.6	7.37
501.801	7.48
502.001	7.52
502.201	7.68
502.402	7.53
502.602	7.45
502.802	7.59
503.002	7.5
503.203	7.52
503.403	7.41
503.603	7.36
503.803	7.37
504.003	7.3
504.204	7.33
504.404	7.15
504.604	7.11
504.804	7.03
505.004	6.9
505.204	6.89
505.404	6.94
505.604	7.15
505.804	7.18
506.005	7.26
506.205	7.18
506.405	7.13
506.605	7.34
506.805	7.39
507.005	7.51
507.204	7.66
507.404	7.74
507.604	7.73
507.804	7.71
508.004	7.89
508.204	7.96
508.404	7.95
508.604	7.96
508.804	8.03
509.003	8.09
509.203	8.13
509.403	8.14
509.603	8.09
509.803	8.19
510.002	8.16
510.202	8.04
510.402	7.86
510.602	8
510.801	8.11
511.001	8.08
511.201	8.09
511.4	7.95
511.6	7.92
511.8	7.99
511.999	8.04
512.199	8.09
512.398	8.13
512.598	8.37
512.797	8.43
512.997	8.47
513.197	8.47
513.396	8.49
513.596	8.66
513.795	8.83
513.994	8.86
514.194	8.87
514.393	8.9
514.593	8.83
514.792	8.78
514.992	8.69
515.191	8.73
515.39	8.82
515.59	8.86
515.789	8.82
515.988	8.67
516.188	8.66
516.387	8.59
516.586	8.54
516.786	8.68
516.985	8.7
517.184	8.69
517.383	8.77
517.582	8.8
517.782	8.84
517.981	8.8
518.18	8.89
518.379	8.96
518.578	8.92
518.777	8.99
518.976	8.87
519.176	8.89
519.375	8.95
519.574	8.87
519.773	8.89
519.972	8.77
520.171	8.74
520.37	8.72
520.569	8.71
520.768	8.76
520.967	8.82
521.166	8.99
521.365	8.9
521.564	9.01
521.762	9.19
521.961	9.13
522.16	9.2
522.359	9.2
522.558	9.26
522.757	9.27
522.956	9.33
523.154	9.27
523.353	9.26
523.552	9.48
523.751	9.47
523.949	9.3
524.148	9.34
524.347	9.56
524.546	9.62
524.744	9.51
524.943	9.63
525.142	9.52
525.34	9.69
525.539	9.79
525.737	9.81
525.936	9.75
526.135	9.74
526.333	9.69
526.532	9.61
526.73	9.67
526.929	9.77
527.127	9.76
527.326	9.89
527.524	9.84
527.723	9.79
527.921	9.82
528.12	9.83
528.318	9.89
528.516	9.95
528.715	9.98
528.913	9.99
529.112	9.97
529.31	9.94
529.508	9.91
529.707	9.89
529.905	9.97
530.103	9.9
530.301	9.93
530.5	9.97
530.698	10.03
530.896	10.08
531.094	10.17
531.293	10.23
531.491	10.31
531.689	10.46
531.887	10.57
532.085	10.54
532.283	10.61
532.481	10.69
532.68	10.66
532.878	10.65
533.076	10.64
533.274	10.58
533.472	10.64
533.67	10.59
533.868	10.56
534.066	10.57
534.264	10.52
534.462	10.57
534.66	10.59
534.858	10.65
535.056	10.63
535.253	10.6
535.451	10.69
535.649	10.74
535.847	10.96
536.045	10.96
536.243	11.02
536.441	11.14
536.638	11.19
536.836	11.16
537.034	11.22
537.232	11.32
537.43	11.44
537.627	11.48
537.825	11.42
538.023	11.29
538.22	11.41
538.418	11.38
538.616	11.48
538.813	11.6
539.011	11.76
539.209	11.72
539.406	11.74
539.604	11.91
539.801	12.02
539.999	12.09
540.196	12.21
540.394	12.29
540.591	12.31
540.789	12.24
540.986	12.13
541.184	12.12
541.381	12.16
541.579	12.14
541.776	12.05
541.974	11.92
542.171	11.92
542.368	11.84
542.566	11.76
542.763	11.8
542.96	11.82
543.158	11.94
543.355	11.95
543.552	11.99
543.75	12.06
543.947	11.95
544.144	12.02
544.341	12.08
544.539	12.28
544.736	12.32
544.933	12.25
545.13	12.24
545.327	12.17
545.524	12.13
545.722	12.15
545.919	12.2
546.116	12.48
546.313	12.56
546.51	12.68
546.707	12.61
546.904	12.71
547.101	12.78
547.298	12.9
547.495	12.99
547.692	13
547.889	13.04
548.086	13.05
548.283	13
548.48	13.13
548.677	13.01
548.874	13.06
549.07	13.04
549.267	13.23
549.464	13.23
549.661	13.27
549.858	13.5
550.055	13.57
550.251	13.7
550.448	13.82
550.645	13.83
550.842	13.96
551.038	13.95
551.235	14
551.432	13.78
551.628	13.81
551.825	13.9
552.022	13.74
552.218	13.77
552.415	13.83
552.612	13.69
552.808	13.67
553.005	13.74
553.201	13.94
553.398	14.03
553.594	14.1
553.791	14.25
553.987	14.31
554.184	14.48
554.38	14.35
554.577	14.24
554.773	14.42
554.97	14.61
555.166	14.76
555.362	14.77
555.559	14.91
555.755	14.82
555.952	14.77
556.148	14.67
556.344	14.66
556.541	14.86
556.737	15.14
556.933	15.38
557.129	15.08
557.326	15.03
557.522	14.97
557.718	14.96
557.914	15.19
558.11	15.19
558.307	15.19
558.503	15.51
558.699	15.51
558.895	15.52
559.091	15.34
559.287	15.68
559.483	15.64
559.679	15.96
559.876	16
560.072	16.09
560.268	16.18
560.464	16.38
560.66	16.17
560.856	16.36
561.052	16.38
561.247	16.67
561.443	16.65
561.639	16.74
561.835	16.59
562.031	16.49
562.227	16.65
562.423	16.63
562.619	16.58
562.815	16.65
563.01	16.79
563.206	16.78
563.402	16.53
563.598	16.46
563.793	16.46
563.989	16.45
564.185	16.64
564.381	16.82
564.576	16.87
564.772	16.99
564.968	17.19
565.163	16.97
565.359	16.85
565.555	16.91
565.75	17.09
565.946	17.14
566.141	17.15
566.337	17.12
566.532	17.03
566.728	17.16
566.923	17.12
567.119	16.97
567.314	16.98
567.51	17.19
567.705	17.29
567.901	17.2
568.096	17.3
568.292	17.49
568.487	17.6
568.682	17.48
568.878	17.49
569.073	17.57
569.268	17.68
569.464	17.89
569.659	17.84
569.854	17.92
570.05	18.11
570.245	18.11
570.44	17.98
570.635	18
570.831	18.08
571.026	18.13
571.221	18.21
571.416	18.22
571.611	18.14
571.806	18.16
572.002	18.2
572.197	18.18
572.392	18.19
572.587	18.3
572.782	18.26
572.977	18.49
573.172	18.4
573.367	18.3
573.562	18.49
573.757	18.5
573.952	18.66
574.147	18.73
574.342	18.98
574.537	19
574.732	19.2
574.927	19.28
575.121	19.37
575.316	19.45
575.511	19.61
575.706	19.39
575.901	19.46
576.096	19.55
576.29	19.6
576.485	19.41
576.68	19.46
576.875	19.27
577.069	19.3
577.264	19.07
577.459	19.26
577.654	19.28
577.848	19.53
578.043	19.69
578.238	19.47
578.432	19.45
578.627	19.6
578.821	19.62
579.016	19.73
579.21	19.93
579.405	20.15
579.6	20.29
579.794	20.46
579.989	20.34
580.183	20.73
580.378	21.11
580.572	21.25
580.766	21.08
580.961	21.24
581.155	21.44
581.35	21.36
581.544	21.06
581.738	21.03
581.933	21.11
582.127	21.42
582.321	21.16
582.516	20.98
582.71	20.94
582.904	21.06
583.099	20.72
583.293	20.72
583.487	20.98
583.681	21.29
583.875	21.38
584.07	21.34
584.264	21.12
584.458	21.05
584.652	21.17
584.846	21.11
585.04	21.33
585.234	21.72
585.428	21.71
585.623	21.36
585.817	21.51
586.011	21.35
586.205	21.5
586.399	21.7
586.593	21.67
586.787	21.68
586.981	21.51
587.174	21.74
587.368	21.72
587.562	21.71
587.756	22.01
587.95	21.89
588.144	21.9
588.338	21.89
588.532	22.11
588.725	22.17
588.919	22.25
589.113	22.55
589.307	22.24
589.501	22.14
589.694	22.16
589.888	22.17
590.082	22.15
590.275	22.38
590.469	22.43
590.663	21.98
590.856	22.38
591.05	22.33
591.244	22.25
591.437	22.41
591.631	22.54
591.824	22.52
592.018	22.37
592.212	22.58
592.405	22.41
592.599	22.46
592.792	22.77
592.986	22.54
593.179	22.84
593.372	22.97
593.566	23.04
593.759	23.16
593.953	23.16
594.146	23.18
594.339	23.11
594.533	23.34
594.726	23.28
594.92	23.28
595.113	23.24
595.306	23.1
595.499	22.95
595.693	22.91
595.886	22.97
596.079	23.12
596.272	23.11
596.466	23.31
596.659	23.25
596.852	23.05
597.045	23.12
597.238	23.11
597.431	23.08
597.624	23.19
597.818	23.12
598.011	23.12
598.204	23.05
598.397	23.35
598.59	23.03
598.783	23.14
598.976	23.41
599.169	23.55
599.362	23.5
599.555	23.61
599.748	23.78
599.941	23.81
600.134	23.93
600.326	24.08
600.519	24.03
600.712	24.06
600.905	24.15
601.098	24.2
601.291	24.04
601.483	24.02
601.676	24.11
601.869	24.17
602.062	24.38
602.255	24.12
602.447	24.31
602.64	24.13
602.833	24.35
603.025	24.16
603.218	23.92
603.411	23.82
603.603	23.84
603.796	23.77
603.989	23.83
604.181	23.78
604.374	23.99
604.566	23.83
604.759	23.84
604.951	23.8
605.144	23.93
605.336	24.06
605.529	24.21
605.721	24.34
605.914	24.43
606.106	24.22
606.299	24.34
606.491	24.19
606.683	24.39
606.876	24.37
607.068	24.4
607.26	24.46
607.453	24.71
607.645	24.65
607.837	24.67
608.03	24.67
608.222	24.81
608.414	24.93
608.606	25.1
608.799	24.96
608.991	25.02
609.183	25.13
609.375	25.09
609.567	24.79
609.759	24.84
609.952	24.88
610.144	24.87
610.336	24.9
610.528	24.7
610.72	24.78
610.912	24.94
611.104	25.13
611.296	25.04
611.488	24.99
611.68	25.5
611.872	25.47
612.064	25.59
612.256	25.7
612.448	25.79
612.64	25.74
612.832	25.78
613.023	25.49
613.215	25.55
613.407	25.74
613.599	26.05
613.791	25.58
613.983	25.71
614.174	25.56
614.366	25.53
614.558	25.51
614.75	25.49
614.941	25.41
615.133	25.89
615.325	26.03
615.516	25.97
615.708	25.61
615.9	25.66
616.091	25.42
616.283	25.47
616.475	25.43
616.666	25.44
616.858	25.65
617.049	25.56
617.241	25.52
617.432	25.09
617.624	25.29
617.815	25.43
618.007	25.69
618.198	26.08
618.39	25.91
618.581	25.99
618.773	26.22
618.964	26.29
619.155	26.23
619.347	26.02
619.538	26.42
619.729	26.4
619.921	26.51
620.112	26.45
620.303	26.27
620.494	26.6
620.686	26.6
620.877	26.29
621.068	26.23
621.259	26.51
621.451	26.54
621.642	26.38
621.833	26.28
622.024	26.3
622.215	26.4
622.406	26.61
622.597	26.57
622.788	26.6
622.98	26.71
623.171	26.78
623.362	26.71
623.553	27.16
623.744	26.93
623.935	27.27
624.126	27.11
624.317	26.99
624.508	26.91
624.698	26.85
624.889	26.88
625.08	27.16
625.271	27.13
625.462	27.26
625.653	26.93
625.844	27.18
626.034	27.05
626.225	27.14
626.416	27.17
626.607	27.22
626.798	27.52
626.988	27.49
627.179	27.28
627.37	27.09
627.56	27.03
627.751	27.01
627.942	26.88
628.132	26.72
628.323	26.64
628.514	26.66
628.704	26.71
628.895	26.63
629.085	26.85
629.276	26.93
629.466	27.23
629.657	27.1
629.847	27.18
630.038	27.56
630.228	27.64
630.419	27.81
630.609	27.61
630.8	27.53
630.99	27.54
631.181	27.52
631.371	27.72
631.561	27.57
631.752	27.63
631.942	27.45
632.132	27.26
632.323	27.38
632.513	27.35
632.703	27.65
632.893	27.73
633.084	27.71
633.274	27.74
633.464	27.56
633.654	28.03
633.844	28.04
634.034	28.06
634.225	27.99
634.415	27.83
634.605	27.98
634.795	28
634.985	28.22
635.175	28.16
635.365	28.1
635.555	28.3
635.745	28.01
635.935	28.05
636.125	28.21
636.315	28.5
636.505	28.69
636.695	28.43
636.885	28.58
637.075	28.23
637.265	28.31
637.455	28.3
637.644	28.22
637.834	28.47
638.024	28.52
638.214	28.65
638.404	28.6
638.593	28.91
638.783	29.3
638.973	29.37
639.163	29.22
639.352	29.15
639.542	29.36
639.732	29.45
639.921	29.21
640.111	29.51
640.301	29.65
640.49	29.43
640.68	29.24
640.87	29.04
641.059	28.84
641.249	29.13
641.438	29.29
641.628	28.92
641.817	28.77
642.007	28.74
642.196	28.64
642.386	28.45
642.575	28.67
642.764	28.4
642.954	28.35
643.143	28.55
643.333	28.8
643.522	28.75
643.711	28.86
643.901	28.85
644.09	29.05
644.279	29.18
644.469	29.18
644.658	29.23
644.847	29.29
645.036	29.56
645.226	29.49
645.415	29.3
645.604	29.25
645.793	29.31
645.982	29.23
646.171	29.01
646.361	29.16
646.55	29.33
646.739	29.4
646.928	29.49
647.117	29.47
647.306	29.27
647.495	29.37
647.684	29.34
647.873	29.56
648.062	30.15
648.251	30.24
648.44	30.06
648.629	30.09
648.818	30.12
649.007	29.95
649.196	29.83
649.384	30
649.573	29.59
649.762	29.43
649.951	29.15
650.14	28.74
650.328	29
650.517	29.1
650.706	28.84
650.895	29.22
651.083	29.48
651.272	29.23
651.461	29.18
651.65	29.73
651.838	30.06
652.027	30.17
652.216	29.98
652.404	29.67
652.593	29.31
652.781	29.45
652.97	29.12
653.158	29.37
653.347	29.96
653.535	29.95
653.724	29.62
653.912	29.32
654.101	29.65
654.289	30.08
654.478	30.35
654.666	30.32
654.855	30.47
655.043	30.2
655.231	29.89
655.42	29.52
655.608	29.74
655.796	29.75
655.985	30.37
656.173	30.23
656.361	30.05
656.55	29.68
656.738	29.99
656.926	30.15
657.114	30.87
657.302	30.85
657.491	30.48
657.679	30.46
657.867	30.73
658.055	30.35
658.243	30.29
658.431	30.38
658.619	30.75
658.807	31.03
658.996	31.03
659.184	30.65
659.372	30.91
659.56	31.37
659.748	31.12
659.936	31.14
660.124	31.46
660.311	31.64
660.499	31.72
660.687	31.76
660.875	31.43
661.063	31.37
661.251	31.59
661.439	31.24
661.627	31.05
661.814	31.41
662.002	31.34
662.19	31.1
662.378	31.06
662.565	31.39
662.753	31.38
662.941	31.5
663.129	31.51
663.316	31.32
663.504	31.78
663.692	32.06
663.879	32.26
664.067	32.45
664.254	32.44
664.442	32.38
664.63	31.99
664.817	32.49
665.005	32.61
665.192	32.8
665.38	32.85
665.567	32.49
665.755	32.54
665.942	32.19
666.13	32.15
666.317	31.92
666.504	31.74
666.692	32.04
666.879	31.65
667.067	31.62
667.254	31.31
667.441	31.07
667.629	31.04
667.816	31.03
668.003	31.11
668.19	31.21
668.378	31.44
668.565	31.58
668.752	31.16
668.939	31.07
669.127	31.15
669.314	31.29
669.501	31.88
669.688	31.79
669.875	31.57
670.062	31.48
670.249	31.42
670.436	31.57
670.623	31.41
670.81	31.74
670.997	31.72
671.184	31.78
671.371	31.95
671.558	31.62
671.745	32.36
671.932	32.26
672.119	32.19
672.306	32.16
672.493	32.24
672.68	32.68
672.867	32.72
673.054	32.62
673.24	32.69
673.427	32.73
673.614	32.65
673.801	32.67
673.988	33.33
674.174	33.33
674.361	33.53
674.548	33.65
674.734	33.84
674.921	33.74
675.108	34.05
675.294	33.25
675.481	33.24
675.668	33.31
675.854	32.74
676.041	32.42
676.227	33.12
676.414	33.32
676.601	33.66
676.787	33.61
676.974	33.62
677.16	33.41
677.347	34.36
677.533	34.34
677.719	34.44
677.906	34.4
678.092	34.37
678.279	33.29
678.465	32.79
678.651	32.21
678.838	31.89
679.024	31.8
679.21	32.04
679.397	31.85
679.583	31.91
679.769	31.83
679.955	31.54
680.142	31.5
680.328	32.43
680.514	32.54
680.7	32.26
680.886	32.67
681.073	32.89
681.259	32.61
681.445	32.6
681.631	32.4
681.817	32.52
682.003	33.03
682.189	33.11
682.375	32.66
682.561	32.58
682.747	33.37
682.933	33
683.119	33.14
683.305	33.38
683.491	33.44
683.677	33.43
683.863	33.3
684.049	33.46
684.235	33.47
684.42	33.38
684.606	33.75
684.792	33.54
684.978	33.85
685.164	33.8
685.349	34.06
685.535	33.81
685.721	33.62
685.907	33.76
686.092	33.75
686.278	33.56
686.464	33.75
686.649	33.46
686.835	33.35
687.021	33.13
687.206	33.02
687.392	32.37
687.577	32.84
687.763	32.93
687.948	32.47
688.134	32.21
688.319	32.69
688.505	33.23
688.69	33.43
688.876	33.43
689.061	33.6
689.247	33.6
689.432	34.07
689.618	33.49
689.803	33.7
689.988	34.3
690.174	34.5
690.359	34.56
690.544	34.36
690.73	34.68
690.915	34.95
691.1	34.99
691.285	35.1
691.471	35.19
691.656	35.72
691.841	35.87
692.026	36.31
692.211	36.62
692.396	36.86
692.582	36.93
692.767	36.96
692.952	36.54
693.137	36.37
693.322	36.11
693.507	36.48
693.692	36.61
693.877	36.57
694.062	36.12
694.247	35.7
694.432	35.54
694.617	35.74
694.802	35.24
694.987	35.6
695.172	35.76
695.357	36.39
695.541	36.35
695.726	36.4
695.911	36.27
696.096	36.15
696.281	36.42
696.466	36.12
696.65	35.83
696.835	36.71
697.02	36.56
697.204	36.55
697.389	36.3
697.574	35.63
697.759	35.25
697.943	35.04
698.128	34.99
698.312	34.66
698.497	34.26
698.682	33.94
698.866	33.34
699.051	33.38
699.235	33.18
699.42	33.3
699.604	33.35
699.789	33.4
699.973	33.66
700.158	33.84
700.342	34.07
700.527	35.02
700.711	35.38
700.895	35.6
701.08	35.54
701.264	35.81
701.448	35.29
701.633	35.37
701.817	35.1
702.001	35.65
702.186	35.35
702.37	35.59
702.554	34.93
702.738	35.01
702.923	35.1
703.107	35.19
703.291	35.65
703.475	35.74
703.659	35.95
703.843	36.72
704.027	36.03
704.212	36.27
704.396	35.88
704.58	35.59
704.764	35.53
704.948	35.01
705.132	35.13
705.316	34.87
705.5	35.79
705.684	36.65
705.868	36.14
706.052	36.18
706.235	36.26
706.419	36.55
706.603	36.9
706.787	36.63
706.971	37.52
707.155	37.1
707.339	37.15
707.522	36.77
707.706	35.71
707.89	36.21
708.074	36.07
708.257	35.74
708.441	35.83
708.625	36.32
708.808	36.99
708.992	36.79
709.176	36.76
709.359	36.21
709.543	36.22
709.727	36.92
709.91	36.54
710.094	36.5
710.277	37.25
710.461	37.07
710.644	36.32
710.828	36.13
711.011	36.19
711.195	36.62
711.378	36.9
711.562	36.57
711.745	36.27
711.928	36.05
712.112	36.15
712.295	35.64
712.478	35.75
712.662	36.5
712.845	36.24
713.028	35.98
713.212	35.46
713.395	35.62
713.578	35.81
713.761	35.46
713.945	35.5
714.128	35.16
714.311	35.03
714.494	34.34
714.677	34.09
714.86	34.63
715.043	34.68
715.227	35.35
715.41	35.38
715.593	34.91
715.776	35.36
715.959	35.4
716.142	36.57
716.325	36.62
716.508	37.28
716.691	37.61
716.874	37.26
717.057	37.38
717.239	37.19
717.422	37.37
717.605	37.63
717.788	37.8
717.971	38.19
718.154	37.29
718.337	37.54
718.519	37.75
718.702	37.48
718.885	37.2
719.068	37.08
719.25	37.39
719.433	37
719.616	37.36
719.798	36
719.981	36.77
720.164	36.75
720.346	36.87
720.529	37.08
720.712	36.52
720.894	37.03
721.077	36.96
721.259	36.71
721.442	37.49
721.624	37.15
721.807	38.52
721.989	37.9
722.172	38.38
722.354	38.15
722.537	37.83
722.719	37.62
722.901	37.54
723.084	38
723.266	38.16
723.448	38.09
723.631	38.32
723.813	37.47
723.995	37.25
724.178	37.17
724.36	37.15
724.542	37.16
724.724	38.76
724.907	39.29
725.089	38.77
725.271	39.43
725.453	38.57
725.635	38.89
725.817	39.73
725.999	39.89
726.181	39.84
726.364	39.74
726.546	39.84
726.728	38.72
726.91	37.91
727.092	37.83
727.274	37.58
727.456	38.24
727.638	38.45
727.819	37.89
728.001	38.57
728.183	39.33
728.365	39.32
728.547	39.73
728.729	40
728.911	40.2
729.093	40.22
729.274	39.35
729.456	39.02
729.638	38.67
729.82	38.98
730.001	37.98
730.183	37.51
730.365	38.08
730.546	38.29
730.728	37.6
730.91	37.45
731.091	37.76
731.273	37.36
731.455	37.67
731.636	38.19
731.818	38.41
731.999	38.72
732.181	38.74
732.362	38.31
732.544	38.81
732.725	39.2
732.907	39.47
733.088	39.76
733.27	40.79
733.451	40.18
733.633	40.29
733.814	40.09
733.995	39.87
734.177	39.59
734.358	39.67
734.539	38.56
734.721	38.17
734.902	37.73
735.083	37.35
735.264	37.02
735.446	37.59
735.627	36.14
735.808	35.78
735.989	36.25
736.17	36.42
736.351	37.09
736.533	36.93
736.714	36.84
736.895	37.67
737.076	37.97
737.257	38.79
737.438	37.97
737.619	39.32
737.8	40.3
737.981	39.86
738.162	40.3
738.343	39.9
738.524	39.72
738.705	40.3
738.886	39.27
739.067	39.13
739.247	38.03
739.428	38.74
739.609	38.51
739.79	38.44
739.971	38.55
740.151	38.01
740.332	37.93
740.513	38.1
740.694	38.2
740.874	38.24
741.055	37.55
741.236	38.16
741.417	38.3
741.597	37.78
741.778	37.69
741.958	38.45
742.139	39.3
742.32	38.77
742.5	39.34
742.681	39.82
742.861	39.73
743.042	41.12
743.222	41.36
743.403	40.78
743.583	41.01
743.764	41.32
743.944	40.59
744.124	40
744.305	40.53
744.485	39.72
744.666	38.83
744.846	39.89
745.026	39.97
745.207	39.78
745.387	40.44
745.567	41.42
745.747	40.73
745.928	40.27
746.108	40.66
746.288	40.37
746.468	40.43
746.648	41.47
746.829	41.81
747.009	41.74
747.189	40.85
747.369	40.04
747.549	39.86
747.729	40.04
747.909	40.52
748.089	40.4
748.269	40.42
748.449	42.06
748.629	41.34
748.809	40.66
748.989	40.54
749.169	40.59
749.349	41.45
749.529	41.41
749.709	40.87
749.889	41.13
750.068	40.9
750.248	40.93
750.428	39.2
750.608	39.71
750.788	39.75
750.967	38.95
751.147	38.92
751.327	39.05
751.507	37.7
751.686	37.77
751.866	37.83
752.046	37.68
752.225	37.88
752.405	39.04
752.585	39.36
752.764	39.07
752.944	39.68
753.123	40.16
753.303	39.66
753.482	40.3
753.662	40.46
753.841	40.13
754.021	40.65
754.2	40.14
754.38	39.74
754.559	39.13
754.739	39.02
754.918	38.99
755.097	39.3
755.277	39.11
755.456	40.14
755.635	40.95
755.815	40.73
755.994	39.54
756.173	39.78
756.352	38.71
756.532	37.83
756.711	37.45
756.89	37.15
757.069	36.77
757.248	37.37
757.427	35.85
757.607	35.76
757.786	36.92
757.965	37.21
758.144	37.93
758.323	38.98
758.502	40.33
758.681	41.39
758.86	41.56
759.039	42.09
759.218	42.18
759.397	42.59
759.576	42.28
759.755	41.84
759.934	42.82
760.113	42.69
760.291	41.8
760.47	41.25
760.649	41.07
760.828	41.07
761.007	40.56
761.186	39.63
761.364	40.05
761.543	39.77
761.722	39.36
761.901	37.87
762.079	38.04
762.258	38.02
762.437	38.3
762.615	37.56
762.794	37.68
762.972	37.61
763.151	38.19
763.33	37.9
763.508	37.74
763.687	37.64
763.865	38.2
764.044	37.96
764.222	38.16
764.401	38.15
764.579	38.14
764.758	37.42
764.936	37.91
765.114	37.47
765.293	37.01
765.471	37.4
765.65	37.66
765.828	37.51
766.006	37.65
766.184	37.88
766.363	37.44
766.541	37.46
766.719	38.22
766.898	38.2
767.076	37.58
767.254	38.63
767.432	39.1
767.61	39.21
767.788	39.42
767.967	39.31
768.145	40.08
768.323	40.18
768.501	41.02
768.679	41.03
768.857	40.65
769.035	42.08
769.213	41.86
769.391	41.33
769.569	40.67
769.747	40.91
769.925	40.56
770.103	38.91
770.281	39.26
770.459	39.54
770.636	40.48
770.814	40.46
770.992	40.25
771.17	40.76
771.348	40.34
771.525	40.74
771.703	40.46
771.881	40.76
772.059	41.32
772.236	41.89
772.414	41.63
772.592	39.63
772.769	40.07
772.947	39.86
773.125	38.92
773.302	39.22
773.48	40.16
773.657	40.04
773.835	39.59
774.013	41.18
774.19	41.64
774.368	41.07
774.545	42.89
774.723	42.19
774.9	42.72
775.077	42.71
775.255	42.49
775.432	41.97
775.61	43.35
775.787	43.94
775.964	42.83
776.142	42.55
776.319	43.16
776.496	42.21
776.674	42.82
776.851	42.3
777.028	42.47
777.205	43.59
777.382	43.08
777.56	41.37
777.737	42.65
777.914	41.46
778.091	40.06
778.268	40.77
778.445	41.49
778.622	41.35
778.8	42.39
778.977	42.39
779.154	45.2
779.331	44.93
779.508	46.31
779.685	43.97
779.862	45.22
780.038	46.36
780.215	46.39
780.392	46.17
780.569	45.43
780.746	45.18
780.923	45.78
781.1	42.84
781.277	43.47
781.453	44.35
781.63	44.57
781.807	44.26
781.984	44.7
782.16	43.87
782.337	43.46
782.514	44.18
782.691	46.13
782.867	45.46
783.044	44.45
783.221	45.33
783.397	43.77
783.574	42.64
783.75	44.09
783.927	43.88
784.103	44.62
784.28	46.37
784.456	47.27
784.633	46.73
784.809	46.84
784.986	47.52
785.162	46.48
785.339	45.43
785.515	46.04
785.692	44.4
785.868	44.76
786.044	45.11
786.221	43.54
786.397	41.69
786.573	39.43
786.749	41.61
786.926	41.52
787.102	42.04
787.278	44.77
787.454	45.37
787.631	44.67
787.807	43.31
787.983	41.55
788.159	39.94
788.335	40.12
788.511	39.64
788.687	38.06
788.863	38.83
789.039	38.01
789.216	37.74
789.392	37.94
789.568	39.83
789.744	42.19
789.919	41.59
790.095	41.85
790.271	41.87
790.447	41.6
790.623	41.61
790.799	41.28
790.975	40.96
791.151	40.9
791.327	42.73
791.502	42.52
791.678	38.96
791.854	39.75
792.03	41.17
792.205	42.03
792.381	45.08
792.557	46.03
792.733	45.91
792.908	47.05
793.084	46.34
793.259	45.31
793.435	44.13
793.611	46.4
793.786	48.02
793.962	48.92
794.137	49.36
794.313	48.11
794.488	45.7
794.664	46.48
794.839	47.35
795.015	47.57
795.19	47.17
795.366	48.79
795.541	47.47
795.716	46.72
795.892	47.62
796.067	46.41
796.242	45.59
796.418	46.56
796.593	44.89
796.768	43.41
796.944	43.51
797.119	42.79
797.294	40.85
797.469	42.35
797.644	41.7
797.82	39.95
797.995	38.52
798.17	38.52
798.345	40.09
798.52	40.58
798.695	42.34
798.87	42.81
799.045	43.51
799.22	46.84
799.395	47.02
799.57	49.28
799.745	49.33
799.92	51.16
800.095	53.77
800.27	54.05
800.445	54.31
800.62	53.02
800.795	52.86
800.97	53.75
801.145	50.81
801.319	51.43
801.494	50.59
801.669	50.98
801.844	53.26
802.018	51.82
802.193	49.74
802.368	49.79
802.543	48.5
802.717	46.84
802.892	45.24
803.067	44.63
803.241	41.45
803.416	40.85
803.59	40.74
803.765	39.12
803.94	37.96
804.114	38.91
804.289	37.98
804.463	38.67
804.638	38.42
804.812	39.79
804.986	38.74
805.161	40.13
805.335	40.92
805.51	39.62
805.684	38.73
805.858	39.99
806.033	37.62
806.207	39
806.381	39.4
806.556	39.8
806.73	39.89
806.904	41.64
807.078	41.84
807.253	41.61
807.427	41.43
807.601	41.87
807.775	42.02
807.949	45.57
808.123	45.34
808.298	46.02
808.472	46.69
808.646	46.08
808.82	45.4
808.994	45.95
809.168	47.03
809.342	50.58
809.516	51.69
809.69	50.23
809.864	48.66
810.038	48.71
810.212	47.5
810.385	46.89
810.559	48.45
810.733	49.31
810.907	48.87
811.081	47.54
811.255	45.86
811.428	44.67
811.602	44.67
811.776	46.81
811.95	47.37
812.123	47.59
812.297	48.69
812.471	49.91
812.644	50.79
812.818	54.56
812.992	53.71
813.165	54.04
813.339	52.61
813.512	51.16
813.686	50.59
813.86	50.81
814.033	51.81
814.207	52.7
814.38	50.48
814.554	48.64
814.727	44.86
814.9	45.83
815.074	45.98
815.247	48.23
815.421	48.01
815.594	47.2
815.767	44.13
815.941	43.69
816.114	42.91
816.287	45.34
816.46	45.45
816.634	45.56
816.807	46.61
816.98	41.94
817.153	42.36
817.327	44.7
817.5	45.72
817.673	47.91
817.846	48.32
818.019	49.26
818.192	46.32
818.365	42.65
818.538	41.86
818.711	39.17
818.884	43.85
819.057	41.37
819.23	40.46
819.403	40.04
819.576	39.84
819.749	39.62
819.922	39.7
820.095	39.99
820.268	43.12
820.441	43.11
820.614	43.13
820.786	41.5
820.959	41.23
821.132	39.64
821.305	38.68
821.477	38.06
821.65	38.21
821.823	36.75
821.996	35.88
822.168	35.59
822.341	35.61
822.514	35.19
822.686	35.44
822.859	35.44
823.031	36.02
823.204	36.28
823.376	36.03
823.549	35.97
823.722	36.29
823.894	36.98
824.067	36.69
824.239	36.86
824.411	37.49
824.584	37.57
824.756	37.92
824.929	37.78
825.101	37.81
825.273	38.29
825.446	38.4
825.618	38.35
825.79	38.43
825.963	38.67
826.135	38.13
826.307	37.85
826.479	37.27
826.652	36.73
826.824	36.37
826.996	35.91
827.168	35.36
827.34	35.26
827.512	35.5
827.684	34.8
827.856	35.03
828.029	36.74
828.201	37.12
828.373	37.66
828.545	38.77
828.717	39.19
828.889	39.4
829.061	40.57
829.232	41.27
829.404	40.67
829.576	41.05
829.748	40.59
829.92	39.58
830.092	38.99
830.264	38.71
830.436	38.67
830.607	38.7
830.779	39.36
830.951	39.02
831.123	36.97
831.294	38.44
831.466	37.53
831.638	39.03
831.809	39
831.981	41.05
832.153	41.74
832.324	41.22
832.496	41.82
832.667	41.54
832.839	41.84
833.011	42.96
833.182	42.19
833.354	42.17
833.525	42.62
833.697	43.36
833.868	40.87
834.039	40.51
834.211	39.55
834.382	39.35
834.554	38.66
834.725	38.04
834.896	38.62
835.068	37.64
835.239	37.22
835.41	37.07
835.581	36.17
835.753	36.55
835.924	36.25
836.095	36.35
836.266	36.43
836.438	36.32
836.609	35.23
836.78	34.62
836.951	36.3
837.122	36.02
837.293	35.23
837.464	34.36
837.635	35.88
837.806	37.27
837.977	39.14
838.148	40.04
838.319	42.33
838.49	43.56
838.661	44.19
838.832	45.18
839.003	46.67
839.174	47.92
839.345	50.8
839.516	52.88
839.687	51.83
839.857	50.6
840.028	49.18
840.199	48.51
840.37	51.05
840.54	53.19
840.711	52.4
840.882	53.76
841.053	54.28
841.223	53.18
841.394	51.25
841.564	54.49
841.735	54.55
841.906	56.07
842.076	52.34
842.247	53.74
842.417	51.81
842.588	52.43
842.758	53.46
842.929	55.41
843.099	56.7
843.27	56.92
843.44	53.48
843.611	55.3
843.781	54.47
843.951	58.23
844.122	56.68
844.292	58.31
844.462	59.61
844.633	59.66
844.803	59.21
844.973	56.69
845.144	58.78
845.314	64.22
845.484	63.99
845.654	64.25
845.824	62.32
845.995	66.16
846.165	62.27
846.335	57.45
846.505	59.83
846.675	56.47
846.845	61.18
847.015	62.82
847.185	61.88
847.355	61.22
847.525	62.39
847.695	69.08
847.865	67.77
848.035	71.55
848.205	75.74
848.375	71.13
848.545	57.23
848.715	54.07
848.884	53.18
849.054	46.44
849.224	49.47
849.394	45.49
849.564	44.49
849.733	40.36
849.903	42.92
850.073	51.53
850.243	58.11
850.412	65.53
850.582	68.61
850.752	71.47
850.921	76.33
851.091	78.05
851.26	79.36
851.43	78.09
851.599	76.46
851.769	76.59
851.939	62.1
852.108	58.86
852.278	69.92
852.447	67.06
852.616	58.46
852.786	52.4
852.955	49.03
853.125	61.22
853.294	64.04
853.463	62.24
853.633	55.69
853.802	63.43
853.971	71.57
854.141	67.73
854.31	61.16
854.479	62.76
854.648	65.87
854.818	61.3
854.987	58.51
855.156	54.82
855.325	59.4
855.494	61.79
855.663	58.65
855.832	52.77
856.001	58.39
856.171	69.85
856.34	73.77
856.509	80.38
856.678	82.2
856.847	78.09
857.016	75.54
857.185	74.11
857.353	86.38
857.522	88.7
857.691	88.01
857.86	80.93
858.029	62.55
858.198	60.21
858.367	53.73
858.535	69.58
858.704	66.07
858.873	73.39
859.042	77.39
859.21	68.04
859.379	76.45
859.548	69.92
859.717	70.63
859.885	76.13
860.054	68.72
860.222	57.13
860.391	50.37
860.56	47.25
860.728	40.65
860.897	34.45
861.065	36.29
861.234	34.99
861.402	40
861.571	38.48
861.739	46.68
861.908	48.49
862.076	66.24
862.244	71.5
862.413	71.91
862.581	77.67
862.749	74.47
862.918	80.51
863.086	82.22
863.254	80.03
863.423	81.42
863.591	75.51
863.759	85.38
863.927	78.25
864.096	69.12
864.264	73.35
864.432	66.38
864.6	69.27
864.768	62.61
864.936	69.1
865.104	65.8
865.272	73.6
865.44	80.08
865.608	74.84
865.776	78.7
865.944	80.21
866.112	77.78
866.28	84.71
866.448	81.68
866.616	83.42
866.784	76.83
866.952	80.14
867.12	71.63
867.288	70.45
867.455	66.94
867.623	68.07
867.791	65.94
867.959	64.71
868.127	61.49
868.294	66.07
868.462	57.6
868.63	57.36
868.797	58.88
868.965	70.1
869.133	68.12
869.3	67.08
869.468	63.6
869.636	51.78
869.803	52.4
869.971	54.64
870.138	45.97
870.306	49.22
870.473	44.8
870.641	45.75
870.808	38.52
870.975	38.78
871.143	40.42
871.31	33.55
871.478	49.22
871.645	50.65
871.812	54.03
871.98	58.82
872.147	62.14
872.314	62.21
872.482	60.92
872.649	61
872.816	53.21
872.983	50.87
873.15	57.16
873.318	54.66
873.485	55.86
873.652	48.37
873.819	52.84
873.986	51.45
874.153	57.37
874.32	56.04
874.487	62.25
874.654	66.07
874.821	75.57
874.988	77.17
875.155	73.83
875.322	74.17
875.489	76.34
875.656	69.09
875.823	63.94
875.99	55.4
876.157	57.43
876.324	58.57
876.49	59.86
876.657	53.2
876.824	49.84
876.991	55.14
877.157	54.9
877.324	61.72
877.491	60.83
877.658	63.72
877.824	67
877.991	64.66
878.157	57.3
878.324	56.28
878.491	59.62
878.657	68.57
878.824	64.26
878.99	59.65
879.157	57.01
879.323	60.11
879.49	63.08
879.656	67.72
879.823	68.57
879.989	70.99
880.156	73.67
880.322	70.58
880.488	57.88
880.655	58.59
880.821	52.16
880.987	52.37
881.154	46.57
881.32	46.12
881.486	45.25
881.652	44.58
881.819	44.59
881.985	39.97
882.151	38.76
882.317	42.19
882.483	39.88
882.649	44.63
882.816	44.06
882.982	43.78
883.148	41.04
883.314	38.76
883.48	39.24
883.646	37.67
883.812	37.4
883.978	38.09
884.144	37.58
884.31	36.68
884.476	37.92
884.642	37.53
884.807	39.49
884.973	39.82
885.139	40.28
885.305	41
885.471	42.79
885.637	44.31
885.802	42.69
885.968	43.48
886.134	44.94
886.3	43.01
886.465	42.91
886.631	41.34
886.797	43.09
886.962	43.99
887.128	43.57
887.293	41.35
887.459	40.78
887.625	44.89
887.79	46.71
887.956	46.7
888.121	48.61
888.287	49.85
888.452	51.22
888.618	50.4
888.783	51
