Data from LC_188_Reflection_1.txt Node
Date: Tue Nov 17 13:25:13 EST 2015
User: robert
Spectrometer: USB4E03001
Autoset integration time: false
Trigger mode: 4
Integration Time (sec): 1.000000E-1
Scans to average: 15
Electric dark correction enabled: true
Nonlinearity correction enabled: false
Boxcar width: 5
Stray light correction enabled: false
XAxis mode: Wavelengths
Stop averaging: false
Number of Pixels in Spectrum: 3648
>>>>>Begin Spectral Data<<<<<
177.566	230.35
177.785	210.61
178.005	-865.3
178.225	245.79
178.445	-518.13
178.665	-124.26
178.885	-112.79
179.105	-276.18
179.324	641
179.544	803.36
179.764	229.8
179.984	118.5
180.204	117.3
180.423	162.28
180.643	139.61
180.863	-507.66
181.083	-586.48
181.302	58.53
181.522	-7.62
181.742	-165.37
181.961	-2130.39
182.181	366.07
182.401	123.9
182.621	254.56
182.84	302.93
183.06	815.71
183.279	-661.02
183.499	5736.97
183.719	530.8
183.938	123.67
184.158	149.06
184.377	154.1
184.597	69.14
184.816	29.52
185.036	26.58
185.256	85.92
185.475	49.65
185.695	59.47
185.914	63.87
186.134	73.28
186.353	42.02
186.572	40.94
186.792	48.34
187.011	51.6
187.231	19.63
187.45	439.8
187.67	91.55
187.889	176.87
188.108	114.25
188.328	123.34
188.547	179.74
188.766	-558.31
188.986	609.27
189.205	140.53
189.424	209.9
189.644	148.31
189.863	86.1
190.082	108.18
190.302	118.47
190.521	164.66
190.74	2488.96
190.959	127.64
191.178	118.29
191.398	66.84
191.617	128.49
191.836	-9.49
192.055	57.36
192.274	-20.43
192.494	-121.36
192.713	-346.53
192.932	-155.24
193.151	544.05
193.37	9426.98
193.589	-336600
193.808	12282.02
194.027	-1764.96
194.246	-764.06
194.465	3256.63
194.685	420.41
194.904	303.97
195.123	46900
195.342	1011.75
195.561	289.54
195.78	232.94
195.999	336.36
196.218	200.7
196.436	195.07
196.655	171.61
196.874	196.47
197.093	189.74
197.312	139.03
197.531	120.99
197.75	107.82
197.969	134.83
198.188	126.36
198.407	97.18
198.625	114.03
198.844	97.82
199.063	63.21
199.282	59.59
199.501	64.57
199.719	108.16
199.938	141.77
200.157	181.14
200.376	395.54
200.594	265.93
200.813	176.39
201.032	196.53
201.251	205.32
201.469	2418.27
201.688	729.23
201.907	-3188.56
202.125	787.6
202.344	766.71
202.563	569.74
202.781	504.53
203	-349.76
203.218	9.13
203.437	-87.06
203.656	-27.84
203.874	-275.89
204.093	-518.05
204.311	-481.29
204.53	10448.68
204.748	-420.31
204.967	2510.6
205.185	438.41
205.404	239.38
205.622	237.03
205.841	172.38
206.059	177.8
206.278	133.62
206.496	129.85
206.715	131.71
206.933	146.57
207.151	112.69
207.37	90.28
207.588	96.43
207.806	76.82
208.025	83.91
208.243	83.07
208.461	109.75
208.68	135.02
208.898	-140.84
209.116	-162.78
209.335	800.2
209.553	-332.03
209.771	173.04
209.989	149.4
210.208	224.58
210.426	213.41
210.644	195.06
210.862	133.41
211.081	87.7
211.299	69.25
211.517	93.09
211.735	86.19
211.953	108.42
212.171	127.38
212.39	215.5
212.608	185.06
212.826	266.06
213.044	358.29
213.262	321.45
213.48	-12667.16
213.698	-679.39
213.916	278.6
214.134	-495.03
214.352	-83.88
214.57	-112.6
214.788	1646.38
215.006	492.73
215.224	463.36
215.442	137.88
215.66	189.61
215.878	245.35
216.096	116.52
216.314	111.14
216.532	77.22
216.75	64.93
216.968	51.11
217.185	39.36
217.403	56
217.621	42.01
217.839	53.63
218.057	68.53
218.275	59.08
218.492	59.5
218.71	61.66
218.928	46.08
219.146	73.29
219.363	85.38
219.581	79.34
219.799	94.08
220.017	140.65
220.234	105.51
220.452	78.26
220.67	58.92
220.887	72.31
221.105	62.33
221.323	80.52
221.54	61.57
221.758	55.79
221.976	59.04
222.193	51.25
222.411	48.48
222.629	59.08
222.846	55.64
223.064	37.56
223.281	32.8
223.499	42.58
223.716	42.28
223.934	60.3
224.151	66.49
224.369	50.14
224.586	39.08
224.804	41.63
225.021	52.23
225.239	57.84
225.456	67.21
225.674	57.18
225.891	59.33
226.108	61.64
226.326	63.35
226.543	56.8
226.76	68.18
226.978	69.41
227.195	59.41
227.413	54.29
227.63	49.56
227.847	52.83
228.064	49.85
228.282	43.35
228.499	42.12
228.716	34.7
228.934	36.38
229.151	34.86
229.368	32.82
229.585	29.76
229.802	29.2
230.02	27.98
230.237	25.51
230.454	23.34
230.671	25.6
230.888	23.81
231.105	26.04
231.323	22.62
231.54	23.26
231.757	27.39
231.974	33.58
232.191	26.25
232.408	28.11
232.625	30.75
232.842	34.36
233.059	30.46
233.276	28.05
233.493	23.69
233.71	27.04
233.927	25.79
234.144	20.12
234.361	15.51
234.578	24.38
234.795	21.8
235.012	19.07
235.229	15.79
235.446	15.97
235.663	17.94
235.879	15.17
236.096	16.01
236.313	12.32
236.53	13.97
236.747	18.77
236.964	12.96
237.181	10.58
237.397	11.09
237.614	16.59
237.831	22.56
238.048	24.07
238.264	32.68
238.481	26.33
238.698	27.56
238.915	29.47
239.131	33.26
239.348	38.33
239.565	39.95
239.781	39.55
239.998	37.18
240.215	33.64
240.431	31.66
240.648	27.82
240.865	29.24
241.081	27.22
241.298	23.91
241.514	19.81
241.731	17.2
241.947	15.09
242.164	12.13
242.38	10.27
242.597	10.44
242.814	10.55
243.03	9.99
243.246	8.89
243.463	9.64
243.679	9.42
243.896	9.63
244.112	9.54
244.329	12.42
244.545	14.16
244.762	15.43
244.978	14.72
245.194	15.07
245.411	16.5
245.627	18.06
245.843	18.21
246.06	19.24
246.276	18.04
246.492	17
246.709	15.82
246.925	16.45
247.141	17.06
247.357	17.34
247.574	17.04
247.79	16.58
248.006	16.54
248.222	16.85
248.439	15.93
248.655	15.58
248.871	17.42
249.087	16.85
249.303	17.09
249.519	17.86
249.736	18.06
249.952	17.79
250.168	20.55
250.384	22.01
250.6	22.07
250.816	22.5
251.032	22.96
251.248	21.11
251.464	21.85
251.68	19.17
251.896	17.22
252.112	15.71
252.328	16.16
252.544	14.54
252.76	13.23
252.976	10.84
253.192	11.57
253.408	13.14
253.624	14.22
253.84	16.44
254.056	17.99
254.272	16.98
254.487	19.57
254.703	17.34
254.919	15.99
255.135	15.86
255.351	18.83
255.567	17.83
255.782	11.54
255.998	6.7
256.214	5.55
256.43	4.98
256.646	8.5
256.861	7.57
257.077	8.1
257.293	11.57
257.508	13.79
257.724	13.89
257.94	13.13
258.155	16.09
258.371	17.25
258.587	15.39
258.802	14.37
259.018	12.32
259.234	12.81
259.449	13.78
259.665	11.99
259.88	10.18
260.096	10.19
260.312	10.25
260.527	9.22
260.743	9.27
260.958	9.41
261.174	9.9
261.389	10.01
261.605	9.72
261.82	9.48
262.036	10.02
262.251	9.56
262.466	8.16
262.682	9.4
262.897	10.54
263.113	9.1
263.328	9.31
263.543	9.91
263.759	11.94
263.974	11.62
264.189	11.18
264.405	11.52
264.62	13.75
264.835	14.59
265.051	14.43
265.266	14.74
265.481	16.4
265.696	16.72
265.912	16.03
266.127	14.45
266.342	13.1
266.557	12.32
266.773	12.29
266.988	12.69
267.203	13.29
267.418	13.51
267.633	12.66
267.848	11.47
268.064	10.45
268.279	9.95
268.494	9.41
268.709	9.16
268.924	8.73
269.139	7.66
269.354	6.85
269.569	7.66
269.784	6.36
269.999	7.43
270.214	7.94
270.429	9.77
270.644	9.4
270.859	9.61
271.074	9.72
271.289	10.39
271.504	10.01
271.719	9.9
271.934	9.29
272.149	9.38
272.363	9.61
272.578	9.34
272.793	8.38
273.008	8.4
273.223	9.44
273.438	9.99
273.653	10
273.867	11.6
274.082	13.03
274.297	12.77
274.512	13.54
274.726	12.8
274.941	13.32
275.156	13.22
275.371	11.64
275.585	12.11
275.8	11.77
276.015	12.45
276.229	10.74
276.444	8.53
276.659	8.84
276.873	7.39
277.088	7.65
277.302	6.57
277.517	6.38
277.732	7.7
277.946	6.6
278.161	7.96
278.375	7.94
278.59	9.28
278.804	9.06
279.019	9.72
279.233	9.31
279.448	9.11
279.662	11.6
279.877	12.86
280.091	12.53
280.306	12.83
280.52	12.03
280.735	12.19
280.949	10.32
281.163	11.55
281.378	12.53
281.592	12.52
281.806	12.58
282.021	11.28
282.235	9.51
282.449	10.81
282.664	10.83
282.878	11.09
283.092	10.36
283.307	11.64
283.521	11.65
283.735	9.42
283.949	9.81
284.164	8.69
284.378	8.04
284.592	8.5
284.806	7.49
285.02	6.16
285.234	5.38
285.449	5.16
285.663	5.05
285.877	6.04
286.091	6.22
286.305	6.15
286.519	7.02
286.733	7.59
286.947	7.51
287.161	7.81
287.375	9.45
287.589	9.3
287.803	10.08
288.017	10.05
288.231	8.98
288.445	10.17
288.659	10.23
288.873	9.27
289.087	8.85
289.301	9.58
289.515	10.29
289.729	9.83
289.943	10.82
290.157	10.65
290.371	10.77
290.584	11
290.798	9.83
291.012	11.63
291.226	12.99
291.44	13.31
291.654	13.12
291.867	11.77
292.081	11.28
292.295	10.67
292.509	9.38
292.722	10.05
292.936	9.32
293.15	8.79
293.364	6.87
293.577	6.38
293.791	5.81
294.005	5.8
294.218	6.97
294.432	7.66
294.645	8.56
294.859	9.7
295.073	9.3
295.286	9.6
295.5	10.11
295.713	10.13
295.927	10.03
296.14	10.28
296.354	10.09
296.568	10.48
296.781	11.19
296.994	10.59
297.208	11.01
297.421	11.11
297.635	11.3
297.848	11.34
298.062	11.58
298.275	12.06
298.489	12.27
298.702	13.03
298.915	12.06
299.129	11.34
299.342	11.9
299.555	11.08
299.769	10.56
299.982	10.26
300.195	10.18
300.409	10.5
300.622	8.67
300.835	8.72
301.048	7.6
301.262	7.9
301.475	7.72
301.688	7.78
301.901	8.26
302.115	9.48
302.328	10.64
302.541	10.21
302.754	9.84
302.967	10.95
303.18	11.86
303.393	11.28
303.607	11.94
303.82	12.41
304.033	11.24
304.246	10.71
304.459	10.47
304.672	9.34
304.885	9.76
305.098	10.15
305.311	10.44
305.524	9.33
305.737	11.28
305.95	12.07
306.163	10.33
306.376	10.51
306.589	11.07
306.802	10.02
307.015	10.44
307.228	11.54
307.44	11.03
307.653	10.56
307.866	9.9
308.079	9.02
308.292	7.5
308.505	8.76
308.718	9.11
308.93	8.63
309.143	9.46
309.356	9.11
309.569	8.72
309.781	9.7
309.994	9.01
310.207	9.97
310.42	9.16
310.632	9.46
310.845	9.65
311.058	9.17
311.27	9.01
311.483	8.3
311.696	7.92
311.908	6.63
312.121	6.07
312.333	6.91
312.546	5.96
312.759	6.52
312.971	6.65
313.184	6.54
313.396	6.91
313.609	7.81
313.821	9.19
314.034	9.86
314.246	11.21
314.459	10.82
314.671	10.64
314.884	11.65
315.096	11.77
315.309	12.13
315.521	12.74
315.733	12.58
315.946	11.51
316.158	10.49
316.371	10.31
316.583	11.06
316.795	11.21
317.008	11.25
317.22	10.57
317.432	11.74
317.644	10.22
317.857	9.86
318.069	10.92
318.281	11.86
318.494	11.5
318.706	11.61
318.918	10.7
319.13	12.46
319.342	13.01
319.555	12.84
319.767	12.23
319.979	12.9
320.191	12.63
320.403	12.23
320.615	11.73
320.827	11.93
321.039	13.24
321.252	13.53
321.464	11.42
321.676	11.55
321.888	12.82
322.1	12.14
322.312	12.06
322.524	12.42
322.736	12.18
322.948	12.59
323.16	12.59
323.372	10.55
323.584	11.05
323.796	12.57
324.007	12.25
324.219	12.02
324.431	12.21
324.643	12.53
324.855	12.87
325.067	13.81
325.279	14.08
325.491	14.53
325.702	15.26
325.914	14.83
326.126	14.31
326.338	14.18
326.55	13.53
326.761	14.56
326.973	14.47
327.185	14.31
327.396	13.59
327.608	13.5
327.82	12.8
328.032	13.04
328.243	13.13
328.455	12.96
328.666	13.09
328.878	13.71
329.09	12.86
329.301	12.92
329.513	12.28
329.725	13.12
329.936	13.47
330.148	14.3
330.359	14.7
330.571	15.31
330.782	15.61
330.994	15.89
331.205	15.56
331.417	15.35
331.628	16.01
331.84	16.77
332.051	16.48
332.262	15.4
332.474	15.02
332.685	15.74
332.897	15.14
333.108	15.45
333.319	15.64
333.531	15.46
333.742	15.77
333.953	15.09
334.165	14.85
334.376	14.47
334.587	15.64
334.799	15.85
335.01	15.29
335.221	14.89
335.432	13.03
335.644	13.6
335.855	14.48
336.066	14.66
336.277	15.33
336.488	15.35
336.7	15.42
336.911	15.78
337.122	15.59
337.333	15.53
337.544	16.66
337.755	17.67
337.966	17.27
338.177	16.9
338.388	17.09
338.599	17.39
338.811	16.8
339.022	16.67
339.233	14.89
339.444	14.48
339.655	14.73
339.866	14.08
340.076	13.87
340.287	14.02
340.498	13.76
340.709	14.21
340.92	13.69
341.131	13.6
341.342	13.85
341.553	14.24
341.764	14.8
341.975	14.74
342.185	14.91
342.396	15.39
342.607	15.93
342.818	17.51
343.029	16.19
343.239	16.17
343.45	16.58
343.661	17.03
343.872	17.94
344.082	18.04
344.293	17.37
344.504	18.05
344.714	17.64
344.925	16.98
345.136	15.65
345.346	16.37
345.557	16.06
345.768	16.93
345.978	16.39
346.189	16.45
346.399	16.66
346.61	16.86
346.821	16.4
347.031	16.13
347.242	15.42
347.452	15.72
347.663	15.64
347.873	16.3
348.084	14.98
348.294	15.36
348.504	14.36
348.715	14.1
348.925	14.17
349.136	13.81
349.346	14.15
349.557	14.99
349.767	14.57
349.977	13.64
350.188	13.52
350.398	14.16
350.608	14.05
350.819	13.88
351.029	13.95
351.239	14.29
351.449	14.06
351.66	14.4
351.87	14.25
352.08	14.5
352.29	15.58
352.501	15.64
352.711	16.03
352.921	15.63
353.131	16.38
353.341	16.29
353.552	15.5
353.762	15.83
353.972	14.6
354.182	15.37
354.392	15.61
354.602	15.89
354.812	15.46
355.022	15.08
355.232	14.56
355.442	14.27
355.652	14
355.862	14.76
356.072	14.73
356.282	15.51
356.492	14.57
356.702	14.2
356.912	13.56
357.122	13.69
357.332	13.74
357.542	13.82
357.752	13.89
357.962	14.23
358.171	13.74
358.381	13.47
358.591	12.96
358.801	13.34
359.011	13.22
359.221	13.67
359.43	13.87
359.64	13.53
359.85	13.55
360.06	13.54
360.269	13.11
360.479	13.14
360.689	13.25
360.899	13.86
361.108	13.32
361.318	13.26
361.528	12.84
361.737	12.36
361.947	12.2
362.156	12.31
362.366	12.28
362.576	12.14
362.785	11.97
362.995	11.81
363.204	11.63
363.414	11.71
363.623	11.63
363.833	11.49
364.042	12.14
364.252	12.25
364.461	12.57
364.671	12.06
364.88	12.38
365.09	12.96
365.299	13.13
365.509	12.77
365.718	12.94
365.927	13.13
366.137	13.6
366.346	13.61
366.555	13.66
366.765	13.36
366.974	13.86
367.183	14.02
367.393	13.41
367.602	13.68
367.811	13.71
368.021	13.53
368.23	13.68
368.439	13.4
368.648	12.86
368.857	12.6
369.067	13.05
369.276	13.27
369.485	13.36
369.694	13.58
369.903	13.31
370.112	13.39
370.321	13.71
370.531	13.3
370.74	13.05
370.949	12.67
371.158	13.01
371.367	12.54
371.576	12.5
371.785	12.44
371.994	12.42
372.203	12.36
372.412	12.25
372.621	11.96
372.83	12.21
373.039	12.46
373.248	12.5
373.457	12.57
373.666	12.69
373.874	12.11
374.083	12.11
374.292	11.9
374.501	11.82
374.71	12.29
374.919	12.15
375.128	11.79
375.336	11.98
375.545	12.19
375.754	11.87
375.963	11.95
376.171	12.18
376.38	11.93
376.589	12.2
376.798	12.19
377.006	12.14
377.215	12.76
377.424	12.98
377.632	12.68
377.841	12.42
378.05	12.86
378.258	12.58
378.467	12.47
378.675	12.3
378.884	12.07
379.093	12.11
379.301	11.92
379.51	11.3
379.718	11.23
379.927	11.08
380.135	10.92
380.344	10.61
380.552	10.39
380.761	10.38
380.969	10.41
381.177	10.55
381.386	9.78
381.594	9.81
381.803	9.87
382.011	9.72
382.219	9.87
382.428	10.27
382.636	10.14
382.845	10.34
383.053	10.37
383.261	10.09
383.469	10.5
383.678	11.59
383.886	11.5
384.094	11.56
384.302	11.73
384.511	11.65
384.719	11.29
384.927	11.56
385.135	11.69
385.343	12.02
385.552	12.27
385.76	12.05
385.968	11.4
386.176	11.36
386.384	11.15
386.592	11
386.8	11.39
387.008	11.51
387.216	11.32
387.424	11.18
387.633	10.99
387.841	11.12
388.049	11
388.257	11.19
388.465	11.07
388.672	11.12
388.88	10.95
389.088	10.91
389.296	11.03
389.504	11.39
389.712	11.51
389.92	11.44
390.128	11.5
390.336	11.22
390.544	11.18
390.751	11.15
390.959	11.37
391.167	11.35
391.375	11.06
391.583	10.79
391.79	10.52
391.998	10.51
392.206	10.46
392.414	10.09
392.621	10.19
392.829	9.98
393.037	9.88
393.244	9.59
393.452	9.83
393.66	9.58
393.867	9.79
394.075	9.53
394.283	9.57
394.49	9.46
394.698	9.6
394.905	9.47
395.113	9.65
395.32	9.62
395.528	9.76
395.735	9.77
395.943	9.93
396.15	9.84
396.358	9.85
396.565	9.55
396.773	9.66
396.98	9.91
397.188	10.31
397.395	10.48
397.602	10.79
397.81	10.9
398.017	10.64
398.225	10.93
398.432	10.9
398.639	10.99
398.847	11.2
399.054	10.74
399.261	10.39
399.468	9.96
399.676	9.62
399.883	9.34
400.09	8.85
400.297	9.05
400.505	8.69
400.712	8.75
400.919	8.74
401.126	8.46
401.333	8.98
401.54	9.1
401.748	9.1
401.955	9.2
402.162	9.41
402.369	9.56
402.576	9.23
402.783	8.9
402.99	8.78
403.197	8.89
403.404	8.93
403.611	8.69
403.818	8.61
404.025	8.66
404.232	8.5
404.439	8.5
404.646	8.79
404.853	9.06
405.06	9.52
405.267	9.67
405.474	9.34
405.681	9.25
405.887	9.41
406.094	9.42
406.301	9.58
406.508	9.77
406.715	9.52
406.922	9.22
407.128	9.32
407.335	8.95
407.542	8.92
407.749	9.25
407.955	9.56
408.162	9.66
408.369	9.83
408.575	9.85
408.782	9.78
408.989	9.96
409.195	10.47
409.402	10.48
409.609	10.56
409.815	10.46
410.022	10.19
410.228	9.92
410.435	9.81
410.642	9.71
410.848	9.65
411.055	9.54
411.261	9.34
411.468	9.16
411.674	9.02
411.881	9.1
412.087	9.22
412.294	9.4
412.5	9.31
412.706	9.06
412.913	9.04
413.119	8.99
413.326	9.14
413.532	9.25
413.738	9.12
413.945	8.75
414.151	8.51
414.357	8.75
414.564	8.74
414.77	8.98
414.976	9.31
415.182	9.42
415.389	9.45
415.595	9.41
415.801	9.32
416.007	9.28
416.214	9.52
416.42	9.58
416.626	9.33
416.832	9.26
417.038	9.4
417.244	9.22
417.45	9.11
417.657	8.89
417.863	8.94
418.069	8.91
418.275	8.76
418.481	8.75
418.687	8.69
418.893	8.85
419.099	8.88
419.305	8.88
419.511	8.92
419.717	8.86
419.923	8.97
420.129	8.94
420.335	9
420.541	8.9
420.746	8.85
420.952	8.77
421.158	8.72
421.364	8.6
421.57	8.56
421.776	8.51
421.982	8.55
422.187	8.47
422.393	8.45
422.599	8.37
422.805	8.37
423.01	8.47
423.216	8.64
423.422	8.69
423.628	8.82
423.833	8.71
424.039	8.64
424.245	8.6
424.45	8.63
424.656	8.64
424.862	8.58
425.067	8.69
425.273	8.67
425.478	8.65
425.684	8.43
425.889	8.36
426.095	8.44
426.301	8.51
426.506	8.67
426.712	8.68
426.917	8.78
427.123	8.99
427.328	9.13
427.533	9.1
427.739	8.96
427.944	8.99
428.15	9.06
428.355	8.95
428.561	8.9
428.766	8.68
428.971	8.61
429.177	8.63
429.382	8.45
429.587	8.4
429.793	8.4
429.998	8.48
430.203	8.71
430.408	8.6
430.614	8.58
430.819	8.61
431.024	8.54
431.229	8.67
431.434	8.6
431.64	8.72
431.845	8.54
432.05	8.5
432.255	8.72
432.46	8.74
432.665	8.97
432.87	9.08
433.076	9
433.281	9.18
433.486	9.07
433.691	8.94
433.896	8.86
434.101	8.92
434.306	9.04
434.511	9.06
434.716	8.91
434.921	8.76
435.126	8.68
435.331	8.66
435.535	8.64
435.74	8.63
435.945	8.7
436.15	8.79
436.355	8.85
436.56	8.85
436.765	8.87
436.97	8.93
437.174	8.82
437.379	8.91
437.584	9.17
437.789	9.19
437.993	9.24
438.198	9.29
438.403	9.28
438.608	9.18
438.812	8.89
439.017	8.65
439.222	8.56
439.426	8.61
439.631	8.6
439.836	8.3
440.04	8.1
440.245	7.99
440.45	7.84
440.654	7.79
440.859	7.7
441.063	7.89
441.268	7.99
441.472	8.04
441.677	8.2
441.881	8.22
442.086	8.5
442.29	8.56
442.495	8.82
442.699	8.83
442.904	8.85
443.108	8.9
443.312	8.7
443.517	8.56
443.721	8.64
443.925	8.44
444.13	8.32
444.334	8.02
444.538	8.07
444.743	7.87
444.947	7.97
445.151	8
445.356	8.17
445.56	8.32
445.764	8.38
445.968	8.38
446.173	8.44
446.377	8.48
446.581	8.59
446.785	8.58
446.989	8.65
447.193	8.69
447.398	8.8
447.602	8.82
447.806	8.84
448.01	8.77
448.214	8.79
448.418	8.66
448.622	8.62
448.826	8.58
449.03	8.56
449.234	8.59
449.438	8.37
449.642	8.28
449.846	8.08
450.05	8.02
450.254	8.13
450.458	7.94
450.662	7.99
450.866	7.98
451.069	8.07
451.273	8.02
451.477	7.92
451.681	8.17
451.885	8.1
452.089	8.18
452.292	8
452.496	7.91
452.7	7.87
452.904	7.87
453.107	7.94
453.311	7.84
453.515	7.88
453.719	7.92
453.922	7.76
454.126	7.67
454.33	7.8
454.533	7.83
454.737	7.96
454.94	7.89
455.144	7.98
455.348	8.02
455.551	8.07
455.755	8.26
455.958	8.03
456.162	8.08
456.365	8.06
456.569	7.82
456.772	7.99
456.976	7.92
457.179	8.18
457.383	8.04
457.586	7.98
457.79	8.1
457.993	8.05
458.196	8.26
458.4	8.42
458.603	8.6
458.807	8.61
459.01	8.55
459.213	8.55
459.417	8.48
459.62	8.59
459.823	8.45
460.026	8.35
460.23	8.24
460.433	8.18
460.636	7.97
460.839	7.84
461.042	7.9
461.246	7.91
461.449	7.86
461.652	7.75
461.855	7.75
462.058	7.79
462.261	7.77
462.464	7.68
462.668	7.65
462.871	7.74
463.074	7.74
463.277	7.63
463.48	7.55
463.683	7.68
463.886	7.94
464.089	7.78
464.292	7.88
464.495	7.89
464.698	7.93
464.901	7.98
465.104	8.04
465.306	8.05
465.509	8.07
465.712	8.05
465.915	8.01
466.118	7.8
466.321	7.8
466.524	7.79
466.726	7.97
466.929	8.13
467.132	8.11
467.335	8.08
467.538	8.13
467.74	8.23
467.943	8.38
468.146	8.23
468.348	8.24
468.551	8.06
468.754	8.11
468.956	7.99
469.159	7.96
469.362	7.99
469.564	7.9
469.767	8
469.969	7.91
470.172	8.04
470.375	8.05
470.577	8.04
470.78	8.08
470.982	7.97
471.185	7.85
471.387	7.89
471.59	7.8
471.792	7.86
471.995	7.83
472.197	7.87
472.399	7.65
472.602	7.86
472.804	8.19
473.007	8.36
473.209	8.25
473.411	8.07
473.614	8.14
473.816	8.13
474.018	8.29
474.22	8.16
474.423	8.26
474.625	8.14
474.827	7.94
475.03	7.61
475.232	7.48
475.434	7.57
475.636	7.83
475.838	7.65
476.04	7.71
476.243	7.65
476.445	7.61
476.647	7.48
476.849	7.52
477.051	7.53
477.253	7.57
477.455	7.6
477.657	7.51
477.859	7.57
478.061	7.56
478.263	7.49
478.465	7.38
478.667	7.47
478.869	7.5
479.071	7.56
479.273	7.5
479.475	7.5
479.677	7.57
479.879	7.7
480.081	7.65
480.283	7.67
480.485	7.55
480.686	7.55
480.888	7.58
481.09	7.5
481.292	7.44
481.494	7.44
481.695	7.52
481.897	7.4
482.099	7.43
482.301	7.47
482.502	7.41
482.704	7.44
482.906	7.57
483.107	7.49
483.309	7.51
483.511	7.57
483.712	7.63
483.914	7.59
484.115	7.56
484.317	7.58
484.519	7.52
484.72	7.52
484.922	7.55
485.123	7.48
485.325	7.47
485.526	7.51
485.728	7.46
485.929	7.41
486.131	7.47
486.332	7.55
486.534	7.45
486.735	7.49
486.936	7.52
487.138	7.5
487.339	7.53
487.541	7.62
487.742	7.59
487.943	7.59
488.144	7.59
488.346	7.55
488.547	7.53
488.748	7.59
488.95	7.62
489.151	7.63
489.352	7.63
489.553	7.71
489.755	7.71
489.956	7.64
490.157	7.56
490.358	7.67
490.559	7.65
490.76	7.73
490.961	7.73
491.163	7.73
491.364	7.71
491.565	7.78
491.766	7.67
491.967	7.64
492.168	7.68
492.369	7.8
492.57	7.79
492.771	7.76
492.972	7.75
493.173	7.77
493.374	7.81
493.575	7.88
493.776	7.91
493.976	7.98
494.177	7.94
494.378	8
494.579	8.01
494.78	8.09
494.981	8.18
495.182	8.17
495.382	8.2
495.583	8.06
495.784	8.1
495.985	8.1
496.185	8.06
496.386	8.08
496.587	8.01
496.788	8.03
496.988	7.88
497.189	7.89
497.39	7.82
497.59	7.94
497.791	8.11
497.992	8.06
498.192	8.07
498.393	8.09
498.593	8.17
498.794	8.12
498.994	8.18
499.195	8.05
499.395	8.06
499.596	8.05
499.796	7.87
499.997	7.75
500.197	7.82
500.398	7.73
500.598	7.74
500.799	7.65
500.999	7.85
501.199	7.67
501.4	7.93
501.6	7.87
501.801	7.86
502.001	7.98
502.201	8.13
502.402	8.13
502.602	8.13
502.802	8.21
503.002	8.29
503.203	8.21
503.403	8.18
503.603	8.1
503.803	8.11
504.003	8.16
504.204	8.06
504.404	8.16
504.604	8.13
504.804	8.41
505.004	8.42
505.204	8.4
505.404	8.52
505.604	8.56
505.804	8.63
506.005	8.61
506.205	8.58
506.405	8.64
506.605	8.42
506.805	8.47
507.005	8.34
507.204	8.22
507.404	8.24
507.604	8.21
507.804	8.33
508.004	8.37
508.204	8.46
508.404	8.63
508.604	8.68
508.804	8.68
509.003	8.71
509.203	8.67
509.403	8.78
509.603	8.86
509.803	8.92
510.002	8.93
510.202	8.95
510.402	8.93
510.602	8.89
510.801	8.79
511.001	8.9
511.201	8.77
511.4	8.64
511.6	8.53
511.8	8.35
511.999	8.18
512.199	8.16
512.398	8.13
512.598	8.22
512.797	8.2
512.997	8.24
513.197	8.19
513.396	8.3
513.596	8.44
513.795	8.61
513.994	8.76
514.194	8.97
514.393	8.99
514.593	8.98
514.792	9.06
514.992	9.2
515.191	9.43
515.39	9.42
515.59	9.41
515.789	9.57
515.988	9.48
516.188	9.52
516.387	9.42
516.586	9.36
516.786	9.42
516.985	9.36
517.184	9.37
517.383	9.32
517.582	9.39
517.782	9.51
517.981	9.38
518.18	9.38
518.379	9.36
518.578	9.45
518.777	9.4
518.976	9.45
519.176	9.62
519.375	9.51
519.574	9.56
519.773	9.55
519.972	9.51
520.171	9.66
520.37	9.73
520.569	9.75
520.768	9.81
520.967	10.04
521.166	10.01
521.365	9.8
521.564	9.88
521.762	9.72
521.961	9.86
522.16	9.9
522.359	9.81
522.558	9.86
522.757	9.97
522.956	10.05
523.154	9.92
523.353	10.01
523.552	10.07
523.751	10.2
523.949	10.35
524.148	10.37
524.347	10.35
524.546	10.42
524.744	10.41
524.943	10.37
525.142	10.29
525.34	10.29
525.539	10.27
525.737	10.25
525.936	10.3
526.135	10.27
526.333	10.18
526.532	10.19
526.73	10.22
526.929	10.21
527.127	10.26
527.326	10.26
527.524	10.33
527.723	10.4
527.921	10.51
528.12	10.5
528.318	10.56
528.516	10.61
528.715	10.64
528.913	10.68
529.112	10.75
529.31	10.72
529.508	10.79
529.707	10.88
529.905	10.92
530.103	10.88
530.301	10.89
530.5	10.91
530.698	10.97
530.896	10.98
531.094	11
531.293	11.01
531.491	11.12
531.689	11.13
531.887	11.16
532.085	11.17
532.283	11.37
532.481	11.4
532.68	11.45
532.878	11.52
533.076	11.57
533.274	11.64
533.472	11.73
533.67	11.76
533.868	11.89
534.066	11.87
534.264	11.83
534.462	11.73
534.66	11.85
534.858	11.91
535.056	11.92
535.253	12.05
535.451	12.05
535.649	12.07
535.847	12.2
536.045	12.24
536.243	12.33
536.441	12.53
536.638	12.7
536.836	12.71
537.034	12.69
537.232	12.8
537.43	12.76
537.627	12.82
537.825	12.93
538.023	12.91
538.22	12.86
538.418	12.91
538.616	12.97
538.813	13.01
539.011	13.09
539.209	13.22
539.406	13.3
539.604	13.43
539.801	13.55
539.999	13.58
540.196	13.65
540.394	13.73
540.591	13.77
540.789	13.78
540.986	13.88
541.184	13.9
541.381	13.93
541.579	13.92
541.776	14
541.974	14.06
542.171	14.12
542.368	14.19
542.566	14.25
542.763	14.28
542.96	14.32
543.158	14.23
543.355	14.23
543.552	14.3
543.75	14.46
543.947	14.48
544.144	14.48
544.341	14.51
544.539	14.54
544.736	14.52
544.933	14.55
545.13	14.65
545.327	14.96
545.524	15.17
545.722	15.32
545.919	15.32
546.116	15.5
546.313	15.72
546.51	15.79
546.707	16.02
546.904	16.3
547.101	16.52
547.298	16.51
547.495	16.54
547.692	16.63
547.889	16.74
548.086	16.9
548.283	17.07
548.48	17.15
548.677	17.22
548.874	17.25
549.07	17.06
549.267	17.13
549.464	17.4
549.661	17.52
549.858	17.68
550.055	17.81
550.251	17.88
550.448	18
550.645	18.04
550.842	18.16
551.038	18.37
551.235	18.63
551.432	18.79
551.628	18.87
551.825	18.97
552.022	19.1
552.218	19.16
552.415	19.24
552.612	19.21
552.808	19.28
553.005	19.45
553.201	19.41
553.398	19.59
553.594	19.73
553.791	19.87
553.987	19.73
554.184	19.76
554.38	19.92
554.577	20.13
554.773	20.15
554.97	20.4
555.166	20.65
555.362	20.86
555.559	21.15
555.755	21.24
555.952	21.41
556.148	21.8
556.344	22.05
556.541	21.99
556.737	22.15
556.933	22.61
557.129	22.59
557.326	22.52
557.522	22.67
557.718	22.66
557.914	22.63
558.11	22.58
558.307	22.67
558.503	22.83
558.699	23.15
558.895	23.17
559.091	23.21
559.287	23.41
559.483	23.63
559.679	23.66
559.876	23.89
560.072	24.24
560.268	24.43
560.464	24.62
560.66	24.51
560.856	24.48
561.052	24.63
561.247	24.6
561.443	24.68
561.639	24.62
561.835	24.7
562.031	24.72
562.227	24.6
562.423	24.95
562.619	25.12
562.815	25.44
563.01	25.46
563.206	25.56
563.402	25.56
563.598	25.63
563.793	25.82
563.989	26
564.185	26.16
564.381	26.4
564.576	26.16
564.772	25.96
564.968	25.84
565.163	26.12
565.359	26.2
565.555	26.32
565.75	26.67
565.946	26.78
566.141	26.77
566.337	26.71
566.532	26.88
566.728	27.17
566.923	27.52
567.119	27.77
567.314	27.98
567.51	28.09
567.705	28.05
567.901	27.94
568.096	28.13
568.292	28.28
568.487	28.46
568.682	28.57
568.878	28.52
569.073	28.52
569.268	28.58
569.464	28.66
569.659	28.97
569.854	29.3
570.05	29.43
570.245	29.56
570.44	29.78
570.635	29.93
570.831	30
571.026	30.18
571.221	30.33
571.416	30.43
571.611	30.29
571.806	30.16
572.002	30.22
572.197	30.22
572.392	30.15
572.587	30.08
572.782	30.17
572.977	30.3
573.172	30.33
573.367	30.48
573.562	30.51
573.757	30.76
573.952	30.88
574.147	31.02
574.342	31.03
574.537	31.3
574.732	31.34
574.927	31.35
575.121	31.3
575.316	31.34
575.511	31.26
575.706	31.36
575.901	31.29
576.096	31.26
576.29	31.43
576.485	31.53
576.68	31.63
576.875	31.82
577.069	31.98
577.264	32.18
577.459	32.33
577.654	32.58
577.848	32.75
578.043	33.13
578.238	33.42
578.432	33.45
578.627	33.8
578.821	33.8
579.016	33.95
579.21	33.95
579.405	34.15
579.6	34.33
579.794	34.3
579.989	34.2
580.183	34.17
580.378	34.13
580.572	34.17
580.766	34.24
580.961	34.5
581.155	34.59
581.35	34.67
581.544	34.7
581.738	34.69
581.933	34.7
582.127	34.74
582.321	34.73
582.516	34.65
582.71	34.73
582.904	34.84
583.099	34.49
583.293	34.58
583.487	34.69
583.681	34.5
583.875	34.62
584.07	34.86
584.264	34.9
584.458	34.99
584.652	35.19
584.846	35.44
585.04	35.32
585.234	35.61
585.428	35.51
585.623	35.47
585.817	35.67
586.011	35.79
586.205	35.82
586.399	36.28
586.593	36.25
586.787	36.4
586.981	35.92
587.174	36
587.368	36.05
587.562	36.29
587.756	36.18
587.95	36.37
588.144	36.23
588.338	36.11
588.532	35.63
588.725	35.66
588.919	35.83
589.113	35.99
589.307	35.79
589.501	35.81
589.694	35.9
589.888	36.04
590.082	35.72
590.275	35.76
590.469	35.83
590.663	36.04
590.856	35.94
591.05	35.92
591.244	36.12
591.437	36.46
591.631	36.39
591.824	36.43
592.018	36.61
592.212	36.66
592.405	36.62
592.599	36.76
592.792	37.02
592.986	36.98
593.179	36.83
593.372	36.78
593.566	36.68
593.759	37
593.953	36.8
594.146	36.64
594.339	36.76
594.533	36.85
594.726	36.87
594.92	36.84
595.113	37.07
595.306	36.98
595.499	37.04
595.693	36.96
595.886	36.72
596.079	36.58
596.272	36.6
596.466	36.75
596.659	36.67
596.852	36.61
597.045	36.62
597.238	36.56
597.431	36.6
597.624	36.7
597.818	36.7
598.011	36.78
598.204	36.95
598.397	37.08
598.59	36.93
598.783	37.18
598.976	37.24
599.169	37.29
599.362	37.38
599.555	37.76
599.748	37.5
599.941	37.64
600.134	37.87
600.326	37.88
600.519	38.1
600.712	38.14
600.905	38.23
601.098	38.52
601.291	38.43
601.483	38.61
601.676	38.64
601.869	38.75
602.062	38.65
602.255	38.3
602.447	38.46
602.64	38.21
602.833	38.36
603.025	38.4
603.218	38.3
603.411	38.27
603.603	38.07
603.796	37.98
603.989	38.06
604.181	38.04
604.374	38.09
604.566	37.96
604.759	37.98
604.951	37.99
605.144	37.89
605.336	37.72
605.529	37.72
605.721	37.97
605.914	38.03
606.106	37.99
606.299	38.3
606.491	38.44
606.683	38.73
606.876	38.93
607.068	39.02
607.26	39.49
607.453	39.56
607.645	39.63
607.837	39.34
608.03	39.26
608.222	39.36
608.414	39.35
608.606	39.24
608.799	38.96
608.991	38.81
609.183	38.56
609.375	38.37
609.567	38.56
609.759	38.46
609.952	38.59
610.144	38.48
610.336	38.35
610.528	38.31
610.72	38.43
610.912	38.48
611.104	38.59
611.296	38.75
611.488	38.88
611.68	38.97
611.872	39.11
612.064	39.28
612.256	39.34
612.448	39.38
612.64	39.4
612.832	39.46
613.023	39.84
613.215	39.86
613.407	40.1
613.599	39.82
613.791	39.75
613.983	39.79
614.174	39.63
614.366	39.63
614.558	39.9
614.75	39.78
614.941	39.97
615.133	39.75
615.325	39.84
615.516	39.84
615.708	39.48
615.9	39.69
616.091	39.75
616.283	39.95
616.475	40.17
616.666	39.88
616.858	40.21
617.049	40.04
617.241	39.97
617.432	39.84
617.624	39.76
617.815	40.09
618.007	40.03
618.198	40.29
618.39	40.22
618.581	40.24
618.773	40.55
618.964	40.46
619.155	40.62
619.347	40.81
619.538	40.9
619.729	41.11
619.921	41.18
620.112	40.94
620.303	40.78
620.494	40.78
620.686	40.76
620.877	40.67
621.068	40.89
621.259	40.52
621.451	40.49
621.642	40.62
621.833	40.41
622.024	40.68
622.215	40.73
622.406	40.57
622.597	40.61
622.788	40.51
622.98	40.4
623.171	40.48
623.362	40.83
623.553	41.04
623.744	40.94
623.935	40.98
624.126	40.8
624.317	40.6
624.508	40.93
624.698	40.74
624.889	40.44
625.08	41.03
625.271	40.69
625.462	40.58
625.653	40.54
625.844	40.47
626.034	40.33
626.225	40.42
626.416	40.6
626.607	40.51
626.798	40.67
626.988	40.8
627.179	40.46
627.37	40.52
627.56	40.55
627.751	40.39
627.942	40.39
628.132	40.49
628.323	40.64
628.514	40.69
628.704	40.47
628.895	40.43
629.085	40.69
629.276	40.67
629.466	40.72
629.657	40.59
629.847	40.74
630.038	40.7
630.228	40.7
630.419	40.7
630.609	40.57
630.8	40.82
630.99	40.7
631.181	40.7
631.371	40.76
631.561	40.8
631.752	41.02
631.942	41
632.132	40.96
632.323	41.2
632.513	40.96
632.703	41.17
632.893	41.35
633.084	41.39
633.274	41.44
633.464	41.32
633.654	41.34
633.844	41.21
634.034	41.12
634.225	41.53
634.415	41.26
634.605	41.51
634.795	41.6
634.985	41.51
635.175	41.43
635.365	41.38
635.555	41.53
635.745	41.61
635.935	41.82
636.125	42.2
636.315	42.23
636.505	42.47
636.695	42.44
636.885	42.16
637.075	42.15
637.265	42.58
637.455	42.68
637.644	42.9
637.834	42.64
638.024	42.64
638.214	42.51
638.404	42.04
638.593	41.99
638.783	41.74
638.973	41.94
639.163	41.85
639.352	41.86
639.542	41.69
639.732	41.67
639.921	41.87
640.111	41.75
640.301	41.86
640.49	42.45
640.68	42.5
640.87	42.61
641.059	42.46
641.249	42.48
641.438	42.2
641.628	42.75
641.817	42.67
642.007	42.53
642.196	42.39
642.386	42.08
642.575	42
642.764	41.89
642.954	41.92
643.143	42.3
643.333	42.81
643.522	43.05
643.711	42.52
643.901	42.62
644.09	42.5
644.279	42.66
644.469	43.2
644.658	42.98
644.847	43.1
645.036	43.31
645.226	43.19
645.415	42.96
645.604	43.15
645.793	43.41
645.982	43.48
646.171	43.72
646.361	43.77
646.55	43.41
646.739	43.53
646.928	43.36
647.117	42.94
647.306	42.97
647.495	42.83
647.684	42.65
647.873	42.69
648.062	42.75
648.251	42.54
648.44	42.53
648.629	42.34
648.818	42.71
649.007	42.61
649.196	42.68
649.384	42.66
649.573	42.56
649.762	42.51
649.951	42.66
650.14	42.56
650.328	43
650.517	43.06
650.706	43.28
650.895	43.07
651.083	43.49
651.272	43.48
651.461	43.46
651.65	43.54
651.838	43.43
652.027	43.15
652.216	43
652.404	42.82
652.593	42.97
652.781	42.96
652.97	42.82
653.158	42.65
653.347	43.11
653.535	43.23
653.724	43.16
653.912	43.08
654.101	43.44
654.289	43.44
654.478	43.4
654.666	43.37
654.855	43.08
655.043	42.84
655.231	42.84
655.42	42.77
655.608	42.53
655.796	42.93
655.985	43.34
656.173	42.96
656.361	43.19
656.55	43.03
656.738	43.14
656.926	43.27
657.114	43.71
657.302	43.92
657.491	43.69
657.679	43.61
657.867	43.38
658.055	43.1
658.243	42.98
658.431	42.81
658.619	43.03
658.807	42.94
658.996	42.97
659.184	42.68
659.372	42.59
659.56	42.65
659.748	42.66
659.936	42.43
660.124	42.44
660.311	42.44
660.499	42.41
660.687	42.67
660.875	42.97
661.063	42.92
661.251	43.15
661.439	43.01
661.627	43.04
661.814	43.41
662.002	43.71
662.19	44.1
662.378	44.45
662.565	44.6
662.753	44.48
662.941	44.15
663.129	44.46
663.316	44.82
663.504	44.99
663.692	45.03
663.879	45.15
664.067	45.3
664.254	45.16
664.442	45.43
664.63	45.63
664.817	45.39
665.005	45.69
665.192	45.66
665.38	45.36
665.567	45.43
665.755	45.16
665.942	44.78
666.13	44.85
666.317	44.63
666.504	44.22
666.692	44.33
666.879	44.23
667.067	44.08
667.254	43.97
667.441	44.14
667.629	44.07
667.816	44.29
668.003	44.32
668.19	44.27
668.378	44.21
668.565	44.26
668.752	43.69
668.939	43.76
669.127	43.85
669.314	43.94
669.501	43.26
669.688	43.24
669.875	43.13
670.062	43.17
670.249	43.25
670.436	43.72
670.623	44.17
670.81	44.61
670.997	45.22
671.184	44.76
671.371	44.78
671.558	45.48
671.745	45.76
671.932	46.02
672.119	46.38
672.306	46.3
672.493	46.01
672.68	45.81
672.867	46.01
673.054	45.06
673.24	45.22
673.427	45.18
673.614	45.42
673.801	44.89
673.988	44.69
674.174	44.36
674.361	43.69
674.548	44.03
674.734	43.96
674.921	43.92
675.108	44.2
675.294	44.33
675.481	44.61
675.668	44.27
675.854	44.41
676.041	44.53
676.227	44.86
676.414	45.73
676.601	45.8
676.787	45.61
676.974	45.34
677.16	45.47
677.347	45.38
677.533	45.24
677.719	45.15
677.906	45.59
678.092	45.88
678.279	45.8
678.465	45.41
678.651	45.15
678.838	45.32
679.024	45.19
679.21	45.44
679.397	45.55
679.583	45.48
679.769	45.36
679.955	44.9
680.142	44.67
680.328	44.69
680.514	44.87
680.7	45.01
680.886	44.78
681.073	45.04
681.259	44.89
681.445	44.89
681.631	44.92
681.817	45
682.003	45.08
682.189	45.37
682.375	45.07
682.561	44.8
682.747	44.67
682.933	45.04
683.119	44.92
683.305	45.37
683.491	45.35
683.677	45.27
683.863	45.36
684.049	45.86
684.235	45.55
684.42	45.72
684.606	45.71
684.792	45.74
684.978	45.72
685.164	45.56
685.349	45.11
685.535	45.22
685.721	44.85
685.907	44.99
686.092	44.47
686.278	44.45
686.464	44.58
686.649	44.99
686.835	44.47
687.021	44.14
687.206	44.16
687.392	44.34
687.577	44.32
687.763	44.95
687.948	45.15
688.134	45.08
688.319	45.35
688.505	45.5
688.69	45.26
688.876	45.41
689.061	45.53
689.247	46.25
689.432	45.9
689.618	45.82
689.803	45.7
689.988	45.52
690.174	45.79
690.359	45.53
690.544	45.58
690.73	45.67
690.915	45.96
691.1	46.39
691.285	45.47
691.471	45.49
691.656	45.3
691.841	45.5
692.026	44.99
692.211	44.78
692.396	44.41
692.582	43.97
692.767	44.52
692.952	44.32
693.137	43.89
693.322	44.49
693.507	44.6
693.692	44.46
693.877	43.78
694.062	44.29
694.247	44.72
694.432	45.42
694.617	45.43
694.802	44.74
694.987	44.77
695.172	44.61
695.357	44.12
695.541	43.74
695.726	44.21
695.911	44.84
696.096	44.92
696.281	44.95
696.466	44.61
696.65	44.51
696.835	44.35
697.02	44.67
697.204	44.47
697.389	44.88
697.574	45.14
697.759	44.95
697.943	44.49
698.128	44.1
698.312	43.8
698.497	43.32
698.682	43.34
698.866	43.35
699.051	43.6
699.235	44.17
699.42	43.88
699.604	43.91
699.789	44.08
699.973	44.2
700.158	44.28
700.342	44.23
700.527	44.65
700.711	44.97
700.895	45.18
701.08	44.96
701.264	44.32
701.448	44.49
701.633	44.57
701.817	44.55
702.001	44.89
702.186	45.37
702.37	45.61
702.554	45.98
702.738	46.68
702.923	46.76
703.107	46.75
703.291	47.22
703.475	47.12
703.659	47.17
703.843	47.24
704.027	47.32
704.212	47.26
704.396	47.77
704.58	47.25
704.764	46.31
704.948	46.32
705.132	46.49
705.316	46.53
705.5	46.41
705.684	46.83
705.868	46.6
706.052	46.78
706.235	46.45
706.419	46.08
706.603	47.09
706.787	47.15
706.971	47.7
707.155	46.96
707.339	46.65
707.522	46.94
707.706	47.02
707.89	47.49
708.074	47.3
708.257	47.57
708.441	48
708.625	48.18
708.808	48.54
708.992	47.87
709.176	48.56
709.359	48.55
709.543	48.38
709.727	48.08
709.91	47.56
710.094	47.2
710.277	47.26
710.461	47.01
710.644	46.96
710.828	46.25
711.011	46.76
711.195	46.75
711.378	46.95
711.562	47.36
711.745	47.33
711.928	47.8
712.112	47.39
712.295	46.75
712.478	46.86
712.662	46.48
712.845	47.24
713.028	46.72
713.212	46.34
713.395	46.91
713.578	46.54
713.761	46.46
713.945	46.35
714.128	47.52
714.311	47.79
714.494	47.61
714.677	47.7
714.86	47.6
715.043	47.97
715.227	48.2
715.41	47.67
715.593	47.53
715.776	46.9
715.959	46.5
716.142	45.81
716.325	46.07
716.508	45.65
716.691	45.34
716.874	45.19
717.057	44.4
717.239	44.71
717.422	44.26
717.605	44.91
717.788	45.04
717.971	45.74
718.154	45.56
718.337	45.39
718.519	45.74
718.702	45.96
718.885	46.37
719.068	47.22
719.25	46.68
719.433	47
719.616	46.85
719.798	46.89
719.981	46.51
720.164	46.86
720.346	47.19
720.529	47.21
720.712	47.15
720.894	46.94
721.077	47.18
721.259	47.34
721.442	47.7
721.624	48.26
721.807	48.11
721.989	48.31
722.172	48.75
722.354	48.3
722.537	48.92
722.719	49.31
722.901	48.8
723.084	47.55
723.266	47.12
723.448	47.43
723.631	47.13
723.813	48.31
723.995	48.34
724.178	48.14
724.36	48.28
724.542	47.72
724.724	47.19
724.907	47.66
725.089	48.17
725.271	49.28
725.453	48.29
725.635	48.99
725.817	48.2
725.999	48.49
726.181	48.74
726.364	48.63
726.546	47.94
726.728	47.75
726.91	47.52
727.092	48.11
727.274	47.3
727.456	47.43
727.638	46.16
727.819	46.22
728.001	45.57
728.183	45.07
728.365	44.57
728.547	44.72
728.729	45.13
728.911	45.72
729.093	45.47
729.274	45.42
729.456	45.45
729.638	45.65
729.82	46.13
730.001	46.46
730.183	46.59
730.365	46.85
730.546	47.05
730.728	46.98
730.91	46.96
731.091	46.68
731.273	46.25
731.455	46.98
731.636	47.72
731.818	48.07
731.999	47.44
732.181	47.87
732.362	48.6
732.544	49.58
732.725	49.16
732.907	49.24
733.088	50.54
733.27	51.88
733.451	51.49
733.633	50.88
733.814	50.68
733.995	51.17
734.177	51.01
734.358	51.05
734.539	50.8
734.721	51.12
734.902	50.62
735.083	49.66
735.264	48.56
735.446	48.61
735.627	48.45
735.808	48.18
735.989	47.96
736.17	48.11
736.351	47.42
736.533	46.64
736.714	46.19
736.895	46.02
737.076	46.45
737.257	46.87
737.438	45.88
737.619	46.15
737.8	45.87
737.981	45.24
738.162	44.94
738.343	45.17
738.524	46.49
738.705	47.61
738.886	47.19
739.067	46.73
739.247	46.89
739.428	48.24
739.609	48.24
739.79	48.78
739.971	49.72
740.151	49.31
740.332	48.97
740.513	47.81
740.694	47.75
740.874	47.68
741.055	47.67
741.236	47.86
741.417	48.64
741.597	48.28
741.778	48.63
741.958	48.45
742.139	49.4
742.32	50.47
742.5	51.6
742.681	51.03
742.861	51.37
743.042	51.73
743.222	51.9
743.403	51.09
743.583	51.56
743.764	51.12
743.944	51.79
744.124	51.62
744.305	51.16
744.485	50.66
744.666	50.48
744.846	51.26
745.026	51.35
745.207	51.49
745.387	52.08
745.567	51.51
745.747	51.56
745.928	51.7
746.108	51.84
746.288	52.27
746.468	50.92
746.648	52.46
746.829	51.44
747.009	50.73
747.189	49.96
747.369	47.89
747.549	48.84
747.729	48.58
747.909	48.31
748.089	48.61
748.269	47.47
748.449	48.96
748.629	48.6
748.809	49.35
748.989	50.4
749.169	50.7
749.349	52.14
749.529	52.56
749.709	52.11
749.889	51.71
750.068	51.6
750.248	52.52
750.428	51.92
750.608	51.1
750.788	51.22
750.967	50.54
751.147	51.29
751.327	51.33
751.507	50.87
751.686	52.07
751.866	51.57
752.046	50.29
752.225	50.27
752.405	50.96
752.585	52.12
752.764	51.88
752.944	52.11
753.123	51.68
753.303	51.79
753.482	52.21
753.662	51.42
753.841	51.91
754.021	52.35
754.2	52.5
754.38	52.43
754.559	51.44
754.739	51.05
754.918	52.14
755.097	50.84
755.277	50.82
755.456	49.92
755.635	50.88
755.815	51.14
755.994	52.32
756.173	52.25
756.352	52.12
756.532	52.28
756.711	52.98
756.89	52.51
757.069	52.88
757.248	51.53
757.427	51.57
757.607	50.94
757.786	51.87
757.965	51.56
758.144	51.57
758.323	51.27
758.502	49.95
758.681	48.79
758.86	47.73
759.039	47.74
759.218	47.89
759.397	47.36
759.576	47.07
759.755	45.75
759.934	45.54
760.113	45.51
760.291	44.99
760.47	46.02
760.649	45.65
760.828	45.38
761.007	46.22
761.186	47.01
761.364	47.72
761.543	48.37
761.722	48.11
761.901	47.83
762.079	47.32
762.258	47.18
762.437	46.58
762.615	47.51
762.794	47.81
762.972	46.98
763.151	46.64
763.33	46.65
763.508	45.81
763.687	45.69
763.865	45.34
764.044	46.09
764.222	45.78
764.401	45.8
764.579	45.53
764.758	46.15
764.936	46.55
765.114	47.25
765.293	47.78
765.471	48.55
765.65	49.13
765.828	49.14
766.006	49.02
766.184	50.69
766.363	50.87
766.541	51.05
766.719	51.34
766.898	52.38
767.076	51.55
767.254	51.35
767.432	50.91
767.61	51.52
767.788	53.72
767.967	52.84
768.145	52.76
768.323	53.13
768.501	53.78
768.679	53.75
768.857	52.56
769.035	54.21
769.213	53.35
769.391	54.28
769.569	53.67
769.747	52.13
769.925	52.7
770.103	51.28
770.281	52.47
770.459	52.41
770.636	51.81
770.814	51.84
770.992	51.22
771.17	51.72
771.348	52.02
771.525	53.09
771.703	52.96
771.881	53.3
772.059	54.31
772.236	53.31
772.414	54.38
772.592	54.61
772.769	55.96
772.947	57.7
773.125	58.41
773.302	58.37
773.48	58.66
773.657	59.02
773.835	59.48
774.013	60.11
774.19	61.57
774.368	61.56
774.545	61.54
774.723	62.11
774.9	59.37
775.077	59.17
775.255	58.07
775.432	58.57
775.61	57.57
775.787	58.17
775.964	58.06
776.142	56.4
776.319	56.53
776.496	55.31
776.674	53.31
776.851	53.98
777.028	53.86
777.205	53.4
777.382	52.82
777.56	53.68
777.737	54.27
777.914	55.79
778.091	56.81
778.268	56.02
778.445	56.27
778.622	57.13
778.8	59.56
778.977	59.99
779.154	64.76
779.331	63.45
779.508	63.04
779.685	62.28
779.862	60.6
780.038	60.58
780.215	61.25
780.392	62.94
780.569	63.2
780.746	60.28
780.923	60.39
781.1	57.68
781.277	58.03
781.453	56.83
781.63	56.43
781.807	57.26
781.984	56.84
782.16	54.95
782.337	53.31
782.514	52.57
782.691	54.63
782.867	54.33
783.044	52.52
783.221	51.59
783.397	50.9
783.574	49.89
783.75	48.63
783.927	49.05
784.103	50.34
784.28	52.29
784.456	52.84
784.633	50.95
784.809	51.77
784.986	51.68
785.162	52.42
785.339	55.2
785.515	55.75
785.692	54.5
785.868	54.05
786.044	55.27
786.221	52.36
786.397	52.38
786.573	52.49
786.749	50.38
786.926	49.71
787.102	49.74
787.278	48.81
787.454	48.27
787.631	50.51
787.807	50.5
787.983	49.31
788.159	51.7
788.335	51.49
788.511	52.42
788.687	53.67
788.863	55.3
789.039	54.04
789.216	53.99
789.392	53.93
789.568	53.15
789.744	55.1
789.919	54.92
790.095	53.66
790.271	53.79
790.447	52.88
790.623	53.23
790.799	52.97
790.975	54.98
791.151	55.57
791.327	55.69
791.502	55.52
791.678	53.05
791.854	53.31
792.03	53.81
792.205	54.83
792.381	55.12
792.557	54.65
792.733	54.63
792.908	55.25
793.084	56.88
793.259	56.92
793.435	57.29
793.611	58.33
793.786	59.59
793.962	59.54
794.137	57.06
794.313	57.4
794.488	56.77
794.664	57.99
794.839	56.07
795.015	53.57
795.19	53.06
795.366	51.43
795.541	51.19
795.716	50.51
795.892	49.76
796.067	50.72
796.242	50.08
796.418	50.16
796.593	47.5
796.768	46.23
796.944	46.37
797.119	47.7
797.294	49.89
797.469	49.82
797.644	47.77
797.82	47.67
797.995	47.18
798.17	47.04
798.345	48.62
798.52	49.76
798.695	49.44
798.87	49.22
799.045	48.95
799.22	49.22
799.395	49.16
799.57	52.81
799.745	52.25
799.92	52.11
800.095	53.57
800.27	49.78
800.445	50.33
800.62	52.99
800.795	55.05
800.97	56.31
801.145	54.26
801.319	54.04
801.494	50.81
801.669	52.78
801.844	55.95
802.018	54.47
802.193	56.4
802.368	55.94
802.543	57.08
802.717	56.39
802.892	55.07
803.067	56.81
803.241	58.48
803.416	57.05
803.59	56.58
803.765	54.03
803.94	54.74
804.114	55.06
804.289	55.31
804.463	53.99
804.638	54.39
804.812	54.28
804.986	53.82
805.161	54.04
805.335	55.93
805.51	54.63
805.684	52.28
805.858	51.61
806.033	51.15
806.207	51.17
806.381	52.59
806.556	52.16
806.73	54.37
806.904	53.13
807.078	52.26
807.253	54.39
807.427	56.3
807.601	59.74
807.775	60.76
807.949	59.2
808.123	59.17
808.298	57.68
808.472	57.43
808.646	54.28
808.82	55.21
808.994	54.35
809.168	51.91
809.342	50.39
809.516	50.45
809.69	51.96
809.864	58.07
810.038	58.58
810.212	56.94
810.385	58.28
810.559	60.6
810.733	60.63
810.907	60.65
811.081	60.71
811.255	63.24
811.428	63.02
811.602	61.49
811.776	56.88
811.95	55.3
812.123	55.7
812.297	54.95
812.471	54.56
812.644	54.39
812.818	53.32
812.992	52.09
813.165	49.28
813.339	49.23
813.512	47.92
813.686	49.84
813.86	49.5
814.033	51.2
814.207	48.46
814.38	49.53
814.554	48.55
814.727	50.28
814.9	49.94
815.074	52.27
815.247	50.43
815.421	48.36
815.594	47.99
815.767	48.78
815.941	46.7
816.114	49.43
816.287	47.4
816.46	49.91
816.634	48.84
816.807	48.85
816.98	47.82
817.153	47.93
817.327	46.96
817.5	47.16
817.673	46.92
817.846	50.77
818.019	48.38
818.192	50.49
818.365	47.55
818.538	50.01
818.711	50.35
818.884	51.01
819.057	54.54
819.23	59.56
819.403	58.36
819.576	58.89
819.749	56.56
819.922	58.44
820.095	53.77
820.268	54.3
820.441	52.75
820.614	54.71
820.786	52.97
820.959	49.23
821.132	47.37
821.305	46.3
821.477	44.97
821.65	45.42
821.823	45.37
821.996	46.4
822.168	46.03
822.341	45.41
822.514	44.45
822.686	44.31
822.859	44.51
823.031	44.17
823.204	44.98
823.376	44.48
823.549	44.37
823.722	43.78
823.894	43.76
824.067	43.86
824.239	43.68
824.411	43.87
824.584	43.85
824.756	43.83
824.929	43.65
825.101	42.91
825.273	43.8
825.446	43.32
825.618	43.74
825.79	43.81
825.963	43.49
826.135	44.09
826.307	44.45
826.479	44.94
826.652	44.71
826.824	45.32
826.996	45.23
827.168	45.32
827.34	45.49
827.512	45.14
827.684	44.56
827.856	46.2
828.029	46.13
828.201	45.41
828.373	44.52
828.545	45.68
828.717	46.24
828.889	46.95
829.061	46.23
829.232	47.15
829.404	46.69
829.576	47.6
829.748	46
829.92	47.11
830.092	48.98
830.264	51.56
830.436	50.47
830.607	49.34
830.779	48.36
830.951	49.47
831.123	49.62
831.294	51.81
831.466	51.86
831.638	52.97
831.809	51.84
831.981	50.96
832.153	47.11
832.324	47.92
832.496	48.24
832.667	48.02
832.839	49.24
833.011	48.9
833.182	50.46
833.354	50.58
833.525	50.52
833.697	49.83
833.868	49.48
834.039	50.36
834.211	50.73
834.382	51.54
834.554	51.76
834.725	52.25
834.896	49.99
835.068	49.01
835.239	48.31
835.41	47.08
835.581	47.74
835.753	46.59
835.924	47.45
836.095	45.58
836.266	44.51
836.438	44.48
836.609	42.99
836.78	42.07
836.951	41.52
837.122	41.8
837.293	43.87
837.464	45.55
837.635	47.94
837.806	47.17
837.977	48.57
838.148	50.47
838.319	51.16
838.49	52.68
838.661	55.7
838.832	54.49
839.003	53.34
839.174	53.51
839.345	51.12
839.516	50.72
839.687	50.85
839.857	52.05
840.028	51.36
840.199	52.95
840.37	49.13
840.54	50.65
840.711	51.11
840.882	50.3
841.053	48.66
841.223	47.53
841.394	48.33
841.564	50.15
841.735	50.16
841.906	50.82
842.076	49.91
842.247	52.08
842.417	52.18
842.588	51.56
842.758	52.82
842.929	53.98
843.099	55.48
843.27	53.52
843.44	51.61
843.611	50.3
843.781	50.25
843.951	48.68
844.122	50.39
844.292	48.39
844.462	47.33
844.633	53.77
844.803	56.29
844.973	55.69
845.144	58.28
845.314	60.63
845.484	62.59
845.654	63.61
845.824	71.57
845.995	72.36
846.165	76.25
846.335	81.26
846.505	82.86
846.675	83.68
846.845	85.76
847.015	84.49
847.185	89.29
847.355	86.91
847.525	86.55
847.695	80.07
847.865	71.7
848.035	68.13
848.205	72.16
848.375	68.44
848.545	69.31
848.715	68.33
848.884	68.23
849.054	62.17
849.224	66.44
849.394	63.69
849.564	64.69
849.733	70.89
849.903	72.06
850.073	64.96
850.243	60.23
850.412	53.59
850.582	51.47
850.752	56.5
850.921	57.62
851.091	57.91
851.26	62.98
851.43	60.47
851.599	55.17
851.769	54.41
851.939	64.24
852.108	63.83
852.278	69.5
852.447	70.47
852.616	65.86
852.786	63.5
852.955	60.52
853.125	56.64
853.294	64.15
853.463	62.7
853.633	65.43
853.802	56.9
853.971	56.43
854.141	54.85
854.31	59.56
854.479	56.97
854.648	56.77
854.818	58.05
854.987	58.38
855.156	60.87
855.325	69.89
855.494	72.35
855.663	78.66
855.832	83.23
856.001	80.14
856.171	76.01
856.34	83.48
856.509	80.81
856.678	73.85
856.847	74.76
857.016	65.52
857.185	67.85
857.353	69.17
857.522	72.73
857.691	72.83
857.86	79.87
858.029	80.15
858.198	80.97
858.367	85.86
858.535	99.2
858.704	109.7
858.873	116.71
859.042	96.17
859.21	97.5
859.379	87.35
859.548	93.07
859.717	89.54
859.885	89.79
860.054	86.48
860.222	78.76
860.391	65.47
860.56	55.79
860.728	52.53
860.897	58.78
861.065	53.27
861.234	47.54
861.402	44.41
861.571	43.82
861.739	46.1
861.908	38.46
862.076	53.53
862.244	72.9
862.413	74.4
862.581	69.42
862.749	79.97
862.918	89.34
863.086	98.24
863.254	84.55
863.423	79.67
863.591	75.11
863.759	77.35
863.927	76.09
864.096	73.23
864.264	79.62
864.432	80.33
864.6	71.4
864.768	66.55
864.936	66.29
865.104	78.79
865.272	85.68
865.44	91.14
865.608	84.17
865.776	80.15
865.944	74.1
866.112	69.53
866.28	74.78
866.448	86.26
866.616	80.28
866.784	82.98
866.952	74.98
867.12	72.43
867.288	72.91
867.455	70.74
867.623	73.17
867.791	76.69
867.959	78.35
868.127	73.89
868.294	75.26
868.462	80.1
868.63	66.8
868.797	69.64
868.965	63.7
869.133	53.71
869.3	65.12
869.468	59.4
869.636	69.7
869.803	72.86
869.971	71.81
870.138	68
870.306	69.57
870.473	72.43
870.641	65.78
870.808	66.87
870.975	67.32
871.143	60.43
871.31	58.04
871.478	45.57
871.645	36.7
871.812	43.42
871.98	43.84
872.147	44.31
872.314	51.49
872.482	53.68
872.649	51.47
872.816	53.25
872.983	57.2
873.15	60.33
873.318	70.29
873.485	73.05
873.652	74.39
873.819	80.46
873.986	69.85
874.153	64.23
874.32	60.6
874.487	61.69
874.654	58.83
874.821	55.89
874.988	60.8
875.155	56.16
875.322	58.39
875.489	50.18
875.656	48.78
875.823	63.77
875.99	63.02
876.157	65.25
876.324	70.28
876.49	71.09
876.657	74.21
876.824	59.96
876.991	63.95
877.157	68.11
877.324	71.75
877.491	63.96
877.658	64.52
877.824	76.57
877.991	80.04
878.157	64.95
878.324	67.89
878.491	69.64
878.657	69.16
878.824	63.26
878.99	55.69
879.157	60.92
879.323	63.02
879.49	60.19
879.656	52.07
879.823	49.01
879.989	56.08
880.156	52.51
880.322	52.81
880.488	54.15
880.655	57.99
880.821	64.66
880.987	60.42
881.154	58.75
881.32	59.43
881.486	57.77
881.652	59.5
881.819	60.45
881.985	57.28
882.151	53.37
882.317	50.65
882.483	48.82
882.649	46.37
882.816	41.68
882.982	41.7
883.148	40.86
883.314	40.68
883.48	40.22
883.646	38.18
883.812	39.15
883.978	38.9
884.144	40.15
884.31	40.32
884.476	39.59
884.642	41.79
884.807	42.96
884.973	43.64
885.139	43.61
885.305	44.34
885.471	46.51
885.637	47.73
885.802	48.34
885.968	49.14
886.134	49.6
886.3	52.58
886.465	51.76
886.631	50.47
886.797	51.46
886.962	51.93
887.128	55.37
887.293	52.19
887.459	50.22
887.625	48.84
887.79	46.68
887.956	49.61
888.121	45.65
888.287	49.32
888.452	50.64
888.618	48.73
888.783	49.41
