Data from LC_155_Reflection_2.txt Node
Date: Mon Nov 16 22:18:24 EST 2015
User: robert
Spectrometer: USB4E03001
Autoset integration time: false
Trigger mode: 4
Integration Time (sec): 1.000000E-1
Scans to average: 15
Electric dark correction enabled: true
Nonlinearity correction enabled: false
Boxcar width: 5
Stray light correction enabled: false
XAxis mode: Wavelengths
Stop averaging: false
Number of Pixels in Spectrum: 3648
>>>>>Begin Spectral Data<<<<<
177.566	4814.46
177.785	419.82
178.005	-2325.21
178.225	246.06
178.445	265.16
178.665	206.85
178.885	755.46
179.105	1400
179.324	2214.02
179.544	-281.38
179.764	-1158.13
179.984	-308.17
180.204	-310.85
180.423	-272.87
180.643	-368.33
180.863	-217.6
181.083	-163.86
181.302	-177.08
181.522	-169.76
181.742	-133
181.961	-271.79
182.181	-205.92
182.401	-247.49
182.621	-923.23
182.84	-322.79
183.06	-269.46
183.279	-188.35
183.499	-124.4
183.719	-94.91
183.938	-67.27
184.158	-111.76
184.377	-81.68
184.597	-162.26
184.816	-124.04
185.036	-116.15
185.256	-86.89
185.475	-92.85
185.695	-138.87
185.914	-251.68
186.134	-484.58
186.353	-661.85
186.572	-735.39
186.792	-966.59
187.011	-363.1
187.231	-282.99
187.45	-196.48
187.67	-655.58
187.889	-1824
188.108	2760.34
188.328	-615.38
188.547	-223.06
188.766	-404.07
188.986	-645.37
189.205	-446.62
189.424	-353.27
189.644	-1081.2
189.863	-1071.26
190.082	-561.28
190.302	-1186.79
190.521	-694.33
190.74	765.99
190.959	342.18
191.178	595.45
191.398	549.52
191.617	505.01
191.836	399.5
192.055	1007.97
192.274	402.19
192.494	503
192.713	456.65
192.932	1011.13
193.151	778.26
193.37	1372.16
193.589	-738.01
193.808	-134.46
194.027	-274.34
194.246	-3189.94
194.465	641.47
194.685	1765.63
194.904	842.86
195.123	-1340.46
195.342	-873.66
195.561	-388.39
195.78	-642.08
195.999	24488.73
196.218	923.01
196.436	715.56
196.655	-2293.44
196.874	-785.29
197.093	-1035.23
197.312	-852.55
197.531	2645.63
197.75	887.7
197.969	-2681.32
198.188	-365.62
198.407	-99.51
198.625	-74.42
198.844	-56.12
199.063	-70.56
199.282	-169.98
199.501	-136.59
199.719	-70.57
199.938	-5.1
200.157	-11.87
200.376	-40.58
200.594	-108.68
200.813	-291.57
201.032	-249.9
201.251	-232.67
201.469	-222.16
201.688	-169.99
201.907	-347.39
202.125	-548.24
202.344	20884.52
202.563	3777
202.781	593.43
203	1632.85
203.218	1178.4
203.437	913.91
203.656	505.56
203.874	284.12
204.093	266.48
204.311	323.83
204.53	336.71
204.748	537.76
204.967	336.55
205.185	277.83
205.404	342.99
205.622	212.11
205.841	173.79
206.059	161.31
206.278	160.14
206.496	379.79
206.715	150.83
206.933	84.49
207.151	80.28
207.37	113.86
207.588	175.48
207.806	146.05
208.025	285.31
208.243	-479.07
208.461	875.34
208.68	-10804.71
208.898	464.07
209.116	541.95
209.335	588.99
209.553	581.12
209.771	5419.17
209.989	1002
210.208	2062.36
210.426	-4083.96
210.644	2228.64
210.862	-2114.74
211.081	940.12
211.299	-410.09
211.517	1918.12
211.735	-504.22
211.953	-160914.29
212.171	-2359.04
212.39	-6634.23
212.608	-17421.74
212.826	704.01
213.044	534.32
213.262	410.28
213.48	2263.92
213.698	250.48
213.916	351.32
214.134	200.66
214.352	354.14
214.57	313.1
214.788	499.24
215.006	451.97
215.224	408.24
215.442	306.17
215.66	281.46
215.878	222.46
216.096	243.32
216.314	200.55
216.532	379.97
216.75	343.03
216.968	315.93
217.185	687.22
217.403	1193.03
217.621	-2804.26
217.839	-789.82
218.057	-931.26
218.275	1937.04
218.492	632.69
218.71	1180.2
218.928	341.94
219.146	317.67
219.363	260.13
219.581	172.13
219.799	139.27
220.017	151.96
220.234	139.17
220.452	133.59
220.67	121.82
220.887	100.7
221.105	102.63
221.323	79.23
221.54	98.67
221.758	100
221.976	112.08
222.193	71.52
222.411	41.46
222.629	76.86
222.846	84.66
223.064	91.44
223.281	107.29
223.499	105.32
223.716	112.23
223.934	78.28
224.151	85.64
224.369	71.58
224.586	88.36
224.804	90.77
225.021	86.08
225.239	83.31
225.456	90.72
225.674	91.96
225.891	77.69
226.108	87.81
226.326	94.85
226.543	88.62
226.76	89.97
226.978	78.63
227.195	84.57
227.413	70.45
227.63	63.1
227.847	54.79
228.064	45.09
228.282	41.55
228.499	33.72
228.716	29.49
228.934	24.63
229.151	25.31
229.368	24.09
229.585	19.59
229.802	21.52
230.02	19.36
230.237	20.11
230.454	20.95
230.671	21.31
230.888	22.07
231.105	21.56
231.323	21.75
231.54	19.15
231.757	19.03
231.974	19.7
232.191	17.17
232.408	23.4
232.625	22.26
232.842	26.95
233.059	29.49
233.276	28.09
233.493	30.62
233.71	32.63
233.927	34.29
234.144	35.98
234.361	31.67
234.578	32.62
234.795	29.24
235.012	28.45
235.229	26.4
235.446	25.83
235.663	28.94
235.879	29.1
236.096	25.96
236.313	24.36
236.53	21.98
236.747	25.42
236.964	24.13
237.181	28.49
237.397	31.06
237.614	30.33
237.831	24.48
238.048	26.29
238.264	25.86
238.481	27.93
238.698	33.44
238.915	30.54
239.131	33.11
239.348	32.87
239.565	31.41
239.781	28.93
239.998	25.88
240.215	28.83
240.431	25.2
240.648	22.03
240.865	21.86
241.081	18.96
241.298	18.67
241.514	17.87
241.731	18.03
241.947	16.53
242.164	16.04
242.38	15.45
242.597	14.94
242.814	14.67
243.03	15.94
243.246	15.33
243.463	16.71
243.679	18.01
243.896	16.71
244.112	18.08
244.329	18.27
244.545	18.87
244.762	19.44
244.978	19.24
245.194	18.85
245.411	17.01
245.627	17.74
245.843	15.76
246.06	14.07
246.276	15.66
246.492	14
246.709	14.8
246.925	14.26
247.141	14.38
247.357	14.43
247.574	14.27
247.79	13.93
248.006	13.03
248.222	12.76
248.439	12.78
248.655	12.54
248.871	13.57
249.087	12.65
249.303	12.83
249.519	12.72
249.736	13.9
249.952	14.1
250.168	16.18
250.384	16.5
250.6	18.31
250.816	19.53
251.032	17.73
251.248	18.01
251.464	17.71
251.68	16.86
251.896	16.43
252.112	14.7
252.328	14.8
252.544	14.65
252.76	16.25
252.976	14.12
253.192	13.81
253.408	14.46
253.624	17.06
253.84	16.75
254.056	18.18
254.272	18.92
254.487	19.99
254.703	20.29
254.919	21.18
255.135	18.52
255.351	21.27
255.567	26.71
255.782	29.37
255.998	25.86
256.214	27.09
256.43	25.22
256.646	27.73
256.861	29.03
257.077	30.66
257.293	27.2
257.508	26.18
257.724	27.3
257.94	21.65
258.155	18.49
258.371	16.33
258.587	15.37
258.802	15.61
259.018	14.25
259.234	12.8
259.449	12.2
259.665	11.92
259.88	12.69
260.096	11.95
260.312	11.6
260.527	11.23
260.743	11.59
260.958	11.6
261.174	11.11
261.389	11.62
261.605	11.9
261.82	11.74
262.036	12.88
262.251	13.82
262.466	13.68
262.682	15.52
262.897	16.85
263.113	16.18
263.328	17
263.543	18.84
263.759	19.35
263.974	19.83
264.189	20.42
264.405	19.71
264.62	18.96
264.835	20.08
265.051	20.27
265.266	20.48
265.481	21.05
265.696	21.17
265.912	19.75
266.127	17.17
266.342	15.6
266.557	15.66
266.773	15.91
266.988	14.96
267.203	14.24
267.418	13.17
267.633	12.12
267.848	13.27
268.064	12.17
268.279	11.83
268.494	12.65
268.709	13.76
268.924	13.86
269.139	14.31
269.354	13.22
269.569	11.4
269.784	11.34
269.999	12.43
270.214	11.48
270.429	11.64
270.644	11.76
270.859	10.63
271.074	10.18
271.289	9.21
271.504	9.33
271.719	11.44
271.934	12.32
272.149	12.64
272.363	12.16
272.578	12.14
272.793	11.91
273.008	11.77
273.223	12.27
273.438	12.14
273.653	13.89
273.867	13.71
274.082	12.35
274.297	13.6
274.512	13.32
274.726	12.88
274.941	12.68
275.156	13.93
275.371	14.86
275.585	15.19
275.8	15.01
276.015	13.65
276.229	13.16
276.444	14.34
276.659	13.66
276.873	14.54
277.088	16.18
277.302	16.85
277.517	17.12
277.732	17.61
277.946	17.59
278.161	18.01
278.375	18.27
278.59	18.45
278.804	17.37
279.019	17.43
279.233	16.44
279.448	15.53
279.662	14.79
279.877	14.45
280.091	13.05
280.306	12.2
280.52	12.47
280.735	10.89
280.949	10.97
281.163	12.03
281.378	11.34
281.592	11.58
281.806	13.1
282.021	13.22
282.235	13.62
282.449	13.84
282.664	13.92
282.878	13.82
283.092	16.21
283.307	15.26
283.521	15.34
283.735	15.41
283.949	16.73
284.164	15.65
284.378	15.54
284.592	14.27
284.806	14.29
285.02	14.12
285.234	13.45
285.449	11.4
285.663	11.65
285.877	10.66
286.091	10.62
286.305	8.96
286.519	8.18
286.733	7.45
286.947	6.76
287.161	6.57
287.375	7.5
287.589	7.86
287.803	8.45
288.017	9.31
288.231	9.53
288.445	9.23
288.659	10.03
288.873	10.2
289.087	11.2
289.301	12.44
289.515	11.79
289.729	10.48
289.943	11.31
290.157	11.16
290.371	12.07
290.584	12.04
290.798	13.21
291.012	13.01
291.226	13.11
291.44	12.75
291.654	12.1
291.867	13.08
292.081	12.69
292.295	13.49
292.509	13.07
292.722	11.98
292.936	11.91
293.15	12.33
293.364	12.66
293.577	13.64
293.791	13.47
294.005	15.33
294.218	15.1
294.432	16.02
294.645	14.22
294.859	14.76
295.073	14.63
295.286	14.03
295.5	12.69
295.713	12.86
295.927	12.91
296.14	13.2
296.354	12.26
296.568	11.7
296.781	12.12
296.994	12.19
297.208	12.59
297.421	12.59
297.635	13.1
297.848	12.89
298.062	11.83
298.275	11.77
298.489	12.01
298.702	13.1
298.915	13.42
299.129	13.66
299.342	13.6
299.555	13.65
299.769	14.53
299.982	14.64
300.195	15.33
300.409	17.09
300.622	17.67
300.835	17.78
301.048	17.24
301.262	17.27
301.475	16.33
301.688	17.07
301.901	17.18
302.115	16.99
302.328	17.76
302.541	17.1
302.754	17.48
302.967	17.01
303.18	16.85
303.393	15.91
303.607	15.72
303.82	16.55
304.033	16.12
304.246	17.24
304.459	17.46
304.672	17.34
304.885	17.35
305.098	15.75
305.311	14.55
305.524	14.87
305.737	15.42
305.95	16.9
306.163	15.04
306.376	15.05
306.589	14.08
306.802	12.63
307.015	12.16
307.228	13.25
307.44	12.92
307.653	14.24
307.866	12.44
308.079	13.63
308.292	12.73
308.505	14.31
308.718	14.42
308.93	12.97
309.143	13.32
309.356	12.97
309.569	12.33
309.781	13.17
309.994	12.75
310.207	13.9
310.42	12.19
310.632	11.36
310.845	11.21
311.058	10.61
311.27	11.74
311.483	11.5
311.696	11.69
311.908	11.86
312.121	11.76
312.333	12.32
312.546	11.78
312.759	12.39
312.971	12.73
313.184	12.81
313.396	13.12
313.609	13.61
313.821	13.74
314.034	13.8
314.246	13.79
314.459	13.5
314.671	13.41
314.884	13.71
315.096	14.06
315.309	14.65
315.521	15.24
315.733	14.18
315.946	12.28
316.158	12.19
316.371	11.8
316.583	12.7
316.795	12.25
317.008	12.24
317.22	13.6
317.432	12.54
317.644	12.37
317.857	11.36
318.069	12.74
318.281	13.16
318.494	13.34
318.706	14.25
318.918	13.43
319.13	14.12
319.342	13.94
319.555	12.57
319.767	13.76
319.979	13.62
320.191	13.2
320.403	13.14
320.615	13.94
320.827	14.97
321.039	14.67
321.252	14.64
321.464	14.24
321.676	14.55
321.888	13.93
322.1	13.35
322.312	11.63
322.524	11.35
322.736	11.77
322.948	10.86
323.16	9.05
323.372	9.45
323.584	8.38
323.796	7.96
324.007	7.09
324.219	7.58
324.431	7.85
324.643	9.25
324.855	9.63
325.067	9.12
325.279	8.86
325.491	9.96
325.702	9.21
325.914	10.41
326.126	11.56
326.338	12
326.55	11.86
326.761	11.88
326.973	12.42
327.185	12.82
327.396	13.32
327.608	14.25
327.82	14.57
328.032	15.45
328.243	14.47
328.455	15.36
328.666	14.82
328.878	14.75
329.09	14.22
329.301	14.27
329.513	14.5
329.725	14.33
329.936	14.31
330.148	13.97
330.359	13
330.571	13.29
330.782	11.61
330.994	13.13
331.205	14.03
331.417	14.08
331.628	13.34
331.84	13.73
332.051	14.56
332.262	14.33
332.474	13.51
332.685	14.91
332.897	14.82
333.108	15.79
333.319	14.78
333.531	14.44
333.742	15.92
333.953	14.86
334.165	14.61
334.376	13.27
334.587	13.39
334.799	14.2
335.01	13.42
335.221	13.43
335.432	12.88
335.644	11.91
335.855	12.08
336.066	11.94
336.277	13.45
336.488	13.39
336.7	13.2
336.911	13.47
337.122	12.75
337.333	13.35
337.544	15.26
337.755	15.48
337.966	15.7
338.177	15.51
338.388	15.03
338.599	14.81
338.811	14.4
339.022	14.63
339.233	14.67
339.444	15.44
339.655	13.2
339.866	11.99
340.076	12.18
340.287	13.86
340.498	14.41
340.709	13.66
340.92	13.19
341.131	13.66
341.342	14.28
341.553	13.58
341.764	13.36
341.975	14.95
342.185	14.24
342.396	13.63
342.607	13
342.818	12.54
343.029	12.95
343.239	12.93
343.45	12.75
343.661	12.03
343.872	12.36
344.082	12.35
344.293	11.92
344.504	12.28
344.714	11.6
344.925	10.91
345.136	10.93
345.346	10.72
345.557	11.09
345.768	10.76
345.978	10.77
346.189	11.1
346.399	10.65
346.61	11.59
346.821	11.98
347.031	13
347.242	12.8
347.452	12.86
347.663	12.91
347.873	13.27
348.084	13.9
348.294	15.04
348.504	15.22
348.715	15.65
348.925	14.63
349.136	13.89
349.346	13.37
349.557	13.49
349.767	13.89
349.977	13.66
350.188	13.78
350.398	13.96
350.608	13.19
350.819	12.72
351.029	12.97
351.239	13.45
351.449	13.18
351.66	13.45
351.87	14.21
352.08	13.38
352.29	13.35
352.501	12.54
352.711	12.18
352.921	12.21
353.131	11.82
353.341	11.62
353.552	11.08
353.762	11.81
353.972	11.52
354.182	12.27
354.392	11.59
354.602	11.55
354.812	12.08
355.022	11.79
355.232	11.35
355.442	12.1
355.652	12.19
355.862	11.79
356.072	11.76
356.282	11.52
356.492	10.92
356.702	11.77
356.912	12
357.122	12.02
357.332	12.08
357.542	12.21
357.752	11.53
357.962	11.48
358.171	11.8
358.381	12.05
358.591	12.22
358.801	11.5
359.011	11.45
359.221	11.36
359.43	11.51
359.64	12.2
359.85	12.48
360.06	12.62
360.269	12.94
360.479	12.84
360.689	12.39
360.899	12.13
361.108	12.48
361.318	12.91
361.528	12.85
361.737	12.09
361.947	11.27
362.156	11.48
362.366	11.52
362.576	10.94
362.785	10.88
362.995	10.65
363.204	10.75
363.414	10.71
363.623	10.23
363.833	10.72
364.042	11.06
364.252	11.6
364.461	10.99
364.671	10.53
364.88	11.17
365.09	11.8
365.299	12.24
365.509	11.83
365.718	11.07
365.927	11.1
366.137	10.78
366.346	10.42
366.555	10.07
366.765	10.27
366.974	10.77
367.183	10.32
367.393	9.76
367.602	9.32
367.811	9.74
368.021	10.13
368.23	10.25
368.439	9.47
368.648	10.34
368.857	10.75
369.067	10.79
369.276	10.38
369.485	10.2
369.694	10.76
369.903	11.51
370.112	11.78
370.321	11.98
370.531	11.71
370.74	12.11
370.949	11.54
371.158	11.01
371.367	11.09
371.576	11.12
371.785	11.23
371.994	10.71
372.203	10.25
372.412	10.31
372.621	10.66
372.83	11.08
373.039	11.03
373.248	10.78
373.457	10.89
373.666	10.46
373.874	10.8
374.083	11.13
374.292	10.77
374.501	10.38
374.71	9.95
374.919	9.74
375.128	9.72
375.336	9.93
375.545	10.64
375.754	10.48
375.963	10.95
376.171	10.53
376.38	10.32
376.589	10.48
376.798	10.39
377.006	10.65
377.215	10.92
377.424	10.46
377.632	10.46
377.841	10.32
378.05	10.35
378.258	10.14
378.467	10.16
378.675	9.88
378.884	10.05
379.093	10.43
379.301	10.22
379.51	9.9
379.718	9.46
379.927	9.52
380.135	8.82
380.344	8.89
380.552	8.09
380.761	8.11
380.969	8.17
381.177	7.94
381.386	7.76
381.594	7.69
381.803	7.68
382.011	8.03
382.219	7.38
382.428	7.11
382.636	6.74
382.845	7.42
383.053	7.64
383.261	7.41
383.469	7.61
383.678	7.92
383.886	7.92
384.094	7.65
384.302	7.97
384.511	8.44
384.719	8.92
384.927	8.89
385.135	9.19
385.343	9.5
385.552	9.41
385.76	9.33
385.968	8.95
386.176	8.71
386.384	8.69
386.592	8.37
386.8	8.3
387.008	8.83
387.216	9.38
387.424	8.95
387.633	8.61
387.841	8.94
388.049	8.82
388.257	8.75
388.465	8.8
388.672	8.85
388.88	8.78
389.088	8.66
389.296	8.14
389.504	8.2
389.712	8.41
389.92	8.01
390.128	7.83
390.336	7.82
390.544	8.25
390.751	8.12
390.959	8.11
391.167	8.14
391.375	8.22
391.583	7.94
391.79	7.36
391.998	7.31
392.206	7.58
392.414	7.39
392.621	7.62
392.829	7.35
393.037	7.47
393.244	7.4
393.452	7.49
393.66	7.46
393.867	7.77
394.075	7.88
394.283	7.75
394.49	7.62
394.698	7.51
394.905	7.23
395.113	7.31
395.32	7.5
395.528	7.57
395.735	7.55
395.943	7.49
396.15	7.42
396.358	7.54
396.565	7.45
396.773	7.67
396.98	7.73
397.188	7.69
397.395	7.69
397.602	7.52
397.81	7.34
398.017	7.39
398.225	7.14
398.432	7.18
398.639	6.97
398.847	7.06
399.054	6.49
399.261	6.77
399.468	6.87
399.676	6.79
399.883	6.71
400.09	6.83
400.297	6.68
400.505	6.8
400.712	6.54
400.919	6.96
401.126	7.13
401.333	7.59
401.54	7.48
401.748	7.65
401.955	7.52
402.162	7.51
402.369	7.49
402.576	7.55
402.783	7.44
402.99	7.42
403.197	7.4
403.404	7.1
403.611	6.88
403.818	6.86
404.025	6.56
404.232	6.45
404.439	6.34
404.646	6.06
404.853	5.82
405.06	5.87
405.267	5.98
405.474	5.56
405.681	5.64
405.887	5.6
406.094	5.64
406.301	5.94
406.508	5.89
406.715	6.1
406.922	6.27
407.128	6.25
407.335	6.2
407.542	6.23
407.749	6.43
407.955	6.61
408.162	6.75
408.369	6.83
408.575	6.69
408.782	6.73
408.989	6.66
409.195	6.77
409.402	7.01
409.609	7.28
409.815	7.2
410.022	7.5
410.228	7.12
410.435	7.16
410.642	6.83
410.848	6.97
411.055	7.01
411.261	6.85
411.468	6.75
411.674	6.67
411.881	6.41
412.087	6.46
412.294	6.01
412.5	5.9
412.706	5.79
412.913	5.79
413.119	5.59
413.326	5.59
413.532	5.85
413.738	5.92
413.945	6.13
414.151	6.09
414.357	6.02
414.564	6.4
414.77	6.57
414.976	6.49
415.182	6.86
415.389	6.88
415.595	6.75
415.801	6.71
416.007	6.63
416.214	6.49
416.42	6.66
416.626	6.6
416.832	6.25
417.038	6.33
417.244	6.4
417.45	6.16
417.657	6.23
417.863	6.48
418.069	6.62
418.275	6.62
418.481	6.6
418.687	6.33
418.893	6.44
419.099	6.44
419.305	6.55
419.511	6.52
419.717	6.53
419.923	6.38
420.129	6.27
420.335	6.17
420.541	6.23
420.746	6.18
420.952	6.41
421.158	6.31
421.364	6.36
421.57	6.3
421.776	6.24
421.982	6.16
422.187	6.1
422.393	6.06
422.599	5.97
422.805	6.03
423.01	6.05
423.216	5.86
423.422	5.76
423.628	5.8
423.833	5.79
424.039	5.85
424.245	6.02
424.45	6.17
424.656	6.32
424.862	6.33
425.067	6.32
425.273	6.25
425.478	6.32
425.684	6.42
425.889	6.51
426.095	6.44
426.301	6.53
426.506	6.54
426.712	6.54
426.917	6.22
427.123	6.24
427.328	6.15
427.533	6.34
427.739	6.42
427.944	6.44
428.15	6.3
428.355	6.45
428.561	6.38
428.766	6.23
428.971	6.27
429.177	6.5
429.382	6.76
429.587	6.83
429.793	6.52
429.998	6.42
430.203	6.5
430.408	6.58
430.614	6.57
430.819	6.56
431.024	6.68
431.229	6.54
431.434	6.83
431.64	6.45
431.845	6.38
432.05	6.6
432.255	6.72
432.46	6.52
432.665	6.29
432.87	6.26
433.076	6.28
433.281	6.28
433.486	6.25
433.691	6
433.896	5.98
434.101	6
434.306	6.05
434.511	5.93
434.716	6.16
434.921	6.44
435.126	6.26
435.331	6.12
435.535	6.04
435.74	6.12
435.945	6.28
436.15	6.39
436.355	6.36
436.56	6.44
436.765	6.63
436.97	6.47
437.174	6.26
437.379	6.47
437.584	6.55
437.789	6.51
437.993	6.46
438.198	6.31
438.403	6.34
438.608	6.42
438.812	6.07
439.017	5.92
439.222	5.93
439.426	5.92
439.631	5.93
439.836	5.78
440.04	5.89
440.245	5.94
440.45	6.01
440.654	5.9
440.859	5.83
441.063	6.04
441.268	6.12
441.472	6.23
441.677	6.21
441.881	6.05
442.086	6.27
442.29	6.28
442.495	6.19
442.699	6.12
442.904	6.23
443.108	6.22
443.312	6.25
443.517	6.2
443.721	6.02
443.925	6.02
444.13	6.15
444.334	6.09
444.538	5.97
444.743	5.96
444.947	5.98
445.151	5.93
445.356	5.88
445.56	5.62
445.764	5.57
445.968	5.66
446.173	5.7
446.377	5.67
446.581	5.58
446.785	5.62
446.989	5.63
447.193	5.7
447.398	5.68
447.602	5.72
447.806	6.04
448.01	6.24
448.214	6.33
448.418	6.41
448.622	6.45
448.826	6.53
449.03	6.55
449.234	6.61
449.438	6.51
449.642	6.59
449.846	6.67
450.05	6.52
450.254	6.26
450.458	6.28
450.662	6.15
450.866	6.21
451.069	6.24
451.273	6.18
451.477	6
451.681	5.91
451.885	5.89
452.089	5.73
452.292	5.67
452.496	5.77
452.7	5.64
452.904	5.79
453.107	5.79
453.311	5.9
453.515	5.91
453.719	6.01
453.922	6.16
454.126	6.15
454.33	6.38
454.533	6.28
454.737	6.19
454.94	6.1
455.144	6.05
455.348	6
455.551	5.89
455.755	5.8
455.958	5.83
456.162	5.7
456.365	5.6
456.569	5.34
456.772	5.41
456.976	5.55
457.179	5.64
457.383	5.5
457.586	5.64
457.79	5.5
457.993	5.64
458.196	5.54
458.4	5.57
458.603	5.62
458.807	5.72
459.01	5.81
459.213	5.72
459.417	5.67
459.62	5.78
459.823	5.6
460.026	5.66
460.23	5.64
460.433	5.76
460.636	5.72
460.839	5.73
461.042	5.75
461.246	5.72
461.449	5.75
461.652	5.87
461.855	5.73
462.058	5.76
462.261	5.78
462.464	5.92
462.668	5.98
462.871	6.04
463.074	6.16
463.277	5.96
463.48	6.05
463.683	6.07
463.886	6
464.089	6.02
464.292	6.19
464.495	6.34
464.698	6.09
464.901	6.02
465.104	5.98
465.306	5.95
465.509	6.09
465.712	6.04
465.915	6.05
466.118	5.86
466.321	5.92
466.524	6.01
466.726	5.88
466.929	6.08
467.132	6.05
467.335	6.09
467.538	5.94
467.74	5.9
467.943	6.12
468.146	6.08
468.348	6.18
468.551	6.16
468.754	6.01
468.956	5.88
469.159	5.79
469.362	5.78
469.564	5.8
469.767	5.86
469.969	5.84
470.172	5.53
470.375	5.58
470.577	5.6
470.78	5.62
470.982	5.62
471.185	5.83
471.387	5.95
471.59	5.99
471.792	6.04
471.995	6.02
472.197	6.06
472.399	5.97
472.602	5.91
472.804	5.97
473.007	5.91
473.209	5.85
473.411	5.72
473.614	5.62
473.816	5.63
474.018	5.72
474.22	5.83
474.423	5.89
474.625	6.06
474.827	6.24
475.03	6.2
475.232	6.35
475.434	6.42
475.636	6.61
475.838	6.54
476.04	6.48
476.243	6.24
476.445	6.24
476.647	6.18
476.849	6.07
477.051	5.83
477.253	5.97
477.455	5.88
477.657	5.79
477.859	5.68
478.061	5.64
478.263	5.57
478.465	5.64
478.667	5.62
478.869	5.58
479.071	5.49
479.273	5.55
479.475	5.35
479.677	5.35
479.879	5.45
480.081	5.58
480.283	5.54
480.485	5.57
480.686	5.55
480.888	5.55
481.09	5.6
481.292	5.59
481.494	5.54
481.695	5.48
481.897	5.35
482.099	5.31
482.301	5.26
482.502	5.26
482.704	5.28
482.906	5.28
483.107	5.27
483.309	5.25
483.511	5.34
483.712	5.37
483.914	5.42
484.115	5.47
484.317	5.46
484.519	5.45
484.72	5.48
484.922	5.47
485.123	5.52
485.325	5.52
485.526	5.57
485.728	5.47
485.929	5.46
486.131	5.43
486.332	5.43
486.534	5.44
486.735	5.49
486.936	5.45
487.138	5.46
487.339	5.37
487.541	5.34
487.742	5.32
487.943	5.33
488.144	5.37
488.346	5.32
488.547	5.33
488.748	5.36
488.95	5.26
489.151	5.34
489.352	5.34
489.553	5.37
489.755	5.43
489.956	5.4
490.157	5.45
490.358	5.41
490.559	5.56
490.76	5.54
490.961	5.45
491.163	5.47
491.364	5.46
491.565	5.4
491.766	5.36
491.967	5.34
492.168	5.34
492.369	5.42
492.57	5.44
492.771	5.45
492.972	5.47
493.173	5.62
493.374	5.64
493.575	5.66
493.776	5.74
493.976	5.82
494.177	5.9
494.378	6.13
494.579	5.97
494.78	6.12
494.981	6.17
495.182	6.14
495.382	5.98
495.583	5.99
495.784	5.95
495.985	5.99
496.185	6.03
496.386	5.95
496.587	5.86
496.788	5.91
496.988	5.83
497.189	5.75
497.39	5.86
497.59	5.89
497.791	5.93
497.992	5.88
498.192	5.88
498.393	5.95
498.593	5.93
498.794	5.79
498.994	5.88
499.195	5.8
499.395	5.85
499.596	5.87
499.796	5.93
499.997	5.93
500.197	6.1
500.398	6.2
500.598	6.17
500.799	6.21
500.999	6.3
501.199	6.18
501.4	6.19
501.6	6.05
501.801	5.99
502.001	6.08
502.201	6.14
502.402	6.01
502.602	5.86
502.802	5.94
503.002	6.07
503.203	6.09
503.403	6.23
503.603	6.24
503.803	6.39
504.003	6.38
504.204	6.35
504.404	6.3
504.604	6.27
504.804	6.47
505.004	6.47
505.204	6.49
505.404	6.55
505.604	6.55
505.804	6.56
506.005	6.52
506.205	6.54
506.405	6.52
506.605	6.6
506.805	6.68
507.005	6.69
507.204	6.77
507.404	6.78
507.604	6.69
507.804	6.65
508.004	6.77
508.204	6.87
508.404	6.83
508.604	6.76
508.804	6.86
509.003	6.85
509.203	6.77
509.403	6.64
509.603	6.6
509.803	6.78
510.002	6.91
510.202	6.78
510.402	6.69
510.602	6.88
510.801	6.97
511.001	6.91
511.201	6.94
511.4	6.96
511.6	7.08
511.8	7.07
511.999	7.07
512.199	6.98
512.398	7.15
512.598	7.26
512.797	7.24
512.997	7.33
513.197	7.34
513.396	7.47
513.596	7.61
513.795	7.71
513.994	7.75
514.194	7.69
514.393	7.77
514.593	7.81
514.792	7.85
514.992	7.74
515.191	7.63
515.39	7.66
515.59	7.55
515.789	7.49
515.988	7.45
516.188	7.45
516.387	7.49
516.586	7.45
516.786	7.37
516.985	7.3
517.184	7.39
517.383	7.57
517.582	7.49
517.782	7.6
517.981	7.62
518.18	7.54
518.379	7.63
518.578	7.55
518.777	7.59
518.976	7.51
519.176	7.63
519.375	7.67
519.574	7.6
519.773	7.68
519.972	7.6
520.171	7.59
520.37	7.74
520.569	7.69
520.768	7.73
520.967	7.87
521.166	8.03
521.365	7.97
521.564	8.03
521.762	8.16
521.961	8.19
522.16	8.14
522.359	8.06
522.558	7.93
522.757	7.86
522.956	7.96
523.154	7.83
523.353	7.92
523.552	7.89
523.751	7.94
523.949	7.9
524.148	8.01
524.347	8.11
524.546	8.19
524.744	8.15
524.943	8.34
525.142	8.34
525.34	8.47
525.539	8.44
525.737	8.53
525.936	8.45
526.135	8.33
526.333	8.27
526.532	8.22
526.73	8.24
526.929	8.29
527.127	8.18
527.326	8.17
527.524	8.15
527.723	8.15
527.921	8.11
528.12	8.14
528.318	8.22
528.516	8.23
528.715	8.31
528.913	8.28
529.112	8.3
529.31	8.34
529.508	8.41
529.707	8.42
529.905	8.45
530.103	8.53
530.301	8.6
530.5	8.64
530.698	8.72
530.896	8.7
531.094	8.89
531.293	8.91
531.491	9.02
531.689	9.05
531.887	9.14
532.085	9.18
532.283	9.18
532.481	9.15
532.68	9.11
532.878	9.07
533.076	9.18
533.274	9.08
533.472	9.19
533.67	9.13
533.868	9.12
534.066	9.11
534.264	9.05
534.462	9.1
534.66	9.19
534.858	9.2
535.056	9.15
535.253	9.05
535.451	9.19
535.649	9.18
535.847	9.39
536.045	9.42
536.243	9.46
536.441	9.62
536.638	9.62
536.836	9.62
537.034	9.76
537.232	9.92
537.43	10.1
537.627	10.03
537.825	10.02
538.023	9.92
538.22	9.98
538.418	9.96
538.616	10.01
538.813	10.14
539.011	10.2
539.209	10.28
539.406	10.33
539.604	10.36
539.801	10.48
539.999	10.51
540.196	10.61
540.394	10.69
540.591	10.72
540.789	10.68
540.986	10.56
541.184	10.62
541.381	10.6
541.579	10.61
541.776	10.69
541.974	10.66
542.171	10.68
542.368	10.66
542.566	10.67
542.763	10.72
542.96	10.75
543.158	10.9
543.355	10.94
543.552	10.96
543.75	11.08
543.947	10.93
544.144	10.97
544.341	11.08
544.539	11.17
544.736	11.19
544.933	11.22
545.13	11.28
545.327	11.22
545.524	11.19
545.722	11.27
545.919	11.3
546.116	11.55
546.313	11.7
546.51	11.82
546.707	11.89
546.904	12.03
547.101	12.14
547.298	12.24
547.495	12.27
547.692	12.28
547.889	12.28
548.086	12.42
548.283	12.46
548.48	12.51
548.677	12.55
548.874	12.57
549.07	12.55
549.267	12.58
549.464	12.55
549.661	12.66
549.858	12.83
550.055	13.01
550.251	12.83
550.448	12.97
550.645	12.9
550.842	12.96
551.038	13.11
551.235	12.98
551.432	13
551.628	13.17
551.825	13.27
552.022	13.37
552.218	13.39
552.415	13.61
552.612	13.67
552.808	13.8
553.005	13.69
553.201	13.68
553.398	13.93
553.594	13.96
553.791	13.98
553.987	14.07
554.184	14.16
554.38	14.27
554.577	14.27
554.773	14.28
554.97	14.46
555.166	14.77
555.362	14.81
555.559	15.01
555.755	15.17
555.952	15.16
556.148	15.18
556.344	15.22
556.541	15.06
556.737	15.19
556.933	15.32
557.129	15.23
557.326	15.16
557.522	15.43
557.718	15.39
557.914	15.38
558.11	15.52
558.307	15.47
558.503	15.65
558.699	15.78
558.895	16.05
559.091	16.04
559.287	16.12
559.483	16.32
559.679	16.44
559.876	16.54
560.072	16.79
560.268	16.79
560.464	17.09
560.66	16.99
560.856	17.23
561.052	17.2
561.247	17.24
561.443	17.33
561.639	17.34
561.835	17.27
562.031	17.22
562.227	17.12
562.423	17.2
562.619	17.35
562.815	17.42
563.01	17.48
563.206	17.4
563.402	17.38
563.598	17.48
563.793	17.69
563.989	17.69
564.185	17.8
564.381	18.16
564.576	18.29
564.772	18.15
564.968	18.25
565.163	18.19
565.359	17.9
565.555	18.21
565.75	18.35
565.946	18.21
566.141	18.25
566.337	18.4
566.532	18.41
566.728	18.55
566.923	18.73
567.119	18.75
567.314	18.81
567.51	19.32
567.705	19.25
567.901	19.18
568.096	19.3
568.292	19.51
568.487	19.64
568.682	19.5
568.878	19.51
569.073	19.66
569.268	19.82
569.464	20.04
569.659	20.01
569.854	20.1
570.05	20.22
570.245	20.24
570.44	20.31
570.635	20.36
570.831	20.5
571.026	20.58
571.221	20.7
571.416	20.71
571.611	20.73
571.806	20.78
572.002	20.75
572.197	20.82
572.392	20.78
572.587	20.79
572.782	20.93
572.977	21.18
573.172	21.39
573.367	21.21
573.562	21.29
573.757	21.16
573.952	21.3
574.147	21.56
574.342	21.83
574.537	22.1
574.732	22.14
574.927	22.06
575.121	22.06
575.316	21.92
575.511	22.04
575.706	22.13
575.901	22.47
576.096	22.54
576.29	22.59
576.485	22.51
576.68	22.6
576.875	22.74
577.069	22.91
577.264	22.8
577.459	23.04
577.654	23.25
577.848	23.31
578.043	23.29
578.238	23.38
578.432	23.46
578.627	23.46
578.821	23.6
579.016	23.64
579.21	23.72
579.405	23.84
579.6	23.91
579.794	23.95
579.989	23.99
580.183	24.53
580.378	24.47
580.572	24.56
580.766	24.57
580.961	24.56
581.155	24.81
581.35	24.75
581.544	24.83
581.738	24.73
581.933	24.69
582.127	25.16
582.321	24.8
582.516	24.98
582.71	25.24
582.904	25.4
583.099	25.11
583.293	24.85
583.487	25.18
583.681	25.3
583.875	25.37
584.07	25.57
584.264	25.13
584.458	25.11
584.652	24.98
584.846	24.62
585.04	24.8
585.234	25.09
585.428	25.33
585.623	25.11
585.817	25.18
586.011	25.44
586.205	25.58
586.399	25.82
586.593	25.97
586.787	26.42
586.981	26.27
587.174	26.17
587.368	26.11
587.562	26.29
587.756	26.45
587.95	26.49
588.144	26.47
588.338	26.43
588.532	26.54
588.725	26.54
588.919	26.37
589.113	26.75
589.307	26.79
589.501	27
589.694	26.85
589.888	26.84
590.082	26.85
590.275	26.81
590.469	27.02
590.663	26.86
590.856	26.97
591.05	27.02
591.244	26.87
591.437	27.14
591.631	27.1
591.824	27
592.018	27.23
592.212	27.42
592.405	27.31
592.599	27.23
592.792	27.14
592.986	27.23
593.179	27.31
593.372	27.5
593.566	27.44
593.759	27.55
593.953	27.63
594.146	27.29
594.339	27.39
594.533	27.82
594.726	27.89
594.92	28.11
595.113	28.03
595.306	27.94
595.499	28.03
595.693	28.17
595.886	28.17
596.079	28.3
596.272	28.47
596.466	28.23
596.659	28.11
596.852	28.01
597.045	28.05
597.238	28.13
597.431	28.13
597.624	28.05
597.818	28
598.011	27.99
598.204	28.02
598.397	28.06
598.59	28.24
598.783	28.28
598.976	28.52
599.169	28.68
599.362	28.74
599.555	28.98
599.748	29.36
599.941	29.19
600.134	29.3
600.326	29.46
600.519	29.58
600.712	29.48
600.905	29.47
601.098	29.52
601.291	29.39
601.483	29.45
601.676	29.43
601.869	29.13
602.062	29.5
602.255	29.52
602.447	29.64
602.64	29.52
602.833	29.9
603.025	29.59
603.218	29.53
603.411	29.49
603.603	29.41
603.796	29.5
603.989	29.73
604.181	29.69
604.374	29.81
604.566	29.59
604.759	29.78
604.951	29.57
605.144	29.85
605.336	29.84
605.529	29.9
605.721	29.96
605.914	29.96
606.106	29.91
606.299	29.82
606.491	29.95
606.683	30.17
606.876	30.14
607.068	30.19
607.26	30.15
607.453	30.26
607.645	30.5
607.837	30.55
608.03	30.83
608.222	30.84
608.414	31.06
608.606	30.93
608.799	31.06
608.991	31.09
609.183	31.42
609.375	31.43
609.567	31.26
609.759	31.33
609.952	31.42
610.144	31.21
610.336	31.28
610.528	31.23
610.72	31.26
610.912	31.2
611.104	31.29
611.296	31.11
611.488	31.25
611.68	31.46
611.872	31.29
612.064	31.46
612.256	31.57
612.448	31.51
612.64	31.28
612.832	31.22
613.023	31.43
613.215	31.57
613.407	31.47
613.599	31.64
613.791	31.69
613.983	31.89
614.174	31.73
614.366	31.7
614.558	31.81
614.75	31.88
614.941	32.03
615.133	31.84
615.325	31.91
615.516	32.06
615.708	31.83
615.9	31.55
616.091	31.46
616.283	31.4
616.475	31.38
616.666	31.47
616.858	31.92
617.049	31.66
617.241	31.72
617.432	31.54
617.624	31.74
617.815	31.83
618.007	32.21
618.198	32.38
618.39	32.17
618.581	32.2
618.773	32.18
618.964	32.19
619.155	32.32
619.347	32.55
619.538	32.63
619.729	32.75
619.921	32.86
620.112	32.73
620.303	32.56
620.494	33.03
620.686	33.09
620.877	33.13
621.068	33.07
621.259	33.27
621.451	33.08
621.642	33.01
621.833	32.93
622.024	33.05
622.215	33.19
622.406	33.35
622.597	33.17
622.788	33.17
622.98	33.2
623.171	33.15
623.362	33.02
623.553	33.12
623.744	33
623.935	32.9
624.126	32.75
624.317	32.56
624.508	32.71
624.698	32.96
624.889	33.09
625.08	33.21
625.271	33.48
625.462	33.45
625.653	33.5
625.844	33.49
626.034	33.2
626.225	33.36
626.416	33.35
626.607	33.26
626.798	33.32
626.988	33.54
627.179	33.31
627.37	32.98
627.56	33.22
627.751	33.12
627.942	33.37
628.132	33.44
628.323	33.31
628.514	33.58
628.704	33.59
628.895	33.59
629.085	33.5
629.276	33.7
629.466	33.84
629.657	33.76
629.847	33.77
630.038	33.76
630.228	34.16
630.419	34.53
630.609	34.38
630.8	34.23
630.99	33.94
631.181	33.95
631.371	33.91
631.561	34.16
631.752	34.42
631.942	34.29
632.132	34.23
632.323	34.03
632.513	33.61
632.703	33.8
632.893	33.98
633.084	34.09
633.274	33.89
633.464	33.94
633.654	33.72
633.844	33.57
634.034	33.68
634.225	33.79
634.415	33.66
634.605	33.91
634.795	33.79
634.985	34.02
635.175	33.99
635.365	33.94
635.555	34.16
635.745	34.13
635.935	34.1
636.125	34.18
636.315	34.2
636.505	34.37
636.695	34.21
636.885	34.42
637.075	34.06
637.265	34.18
637.455	34.19
637.644	34.04
637.834	34.31
638.024	34.2
638.214	34.21
638.404	34.37
638.593	34.81
638.783	34.95
638.973	35.01
639.163	34.94
639.352	35.02
639.542	35.34
639.732	35.43
639.921	35.5
640.111	35.71
640.301	35.64
640.49	35.38
640.68	35.07
640.87	35.02
641.059	34.96
641.249	35.14
641.438	35.08
641.628	34.84
641.817	34.54
642.007	34.62
642.196	34.37
642.386	34.47
642.575	34.52
642.764	34
642.954	34.14
643.143	34.1
643.333	34.43
643.522	34.53
643.711	34.77
643.901	34.92
644.09	34.95
644.279	35.46
644.469	35.71
644.658	35.98
644.847	36.55
645.036	36.5
645.226	36.73
645.415	36.31
645.604	36.4
645.793	36.38
645.982	36.41
646.171	36.47
646.361	36.55
646.55	36.3
646.739	36.14
646.928	36.26
647.117	36.2
647.306	35.84
647.495	36.22
647.684	36.23
647.873	36.16
648.062	36.35
648.251	35.97
648.44	35.42
648.629	35.49
648.818	35.42
649.007	35.22
649.196	35.32
649.384	35.52
649.573	35.2
649.762	35
649.951	35.05
650.14	34.96
650.328	35.21
650.517	35.68
650.706	35.79
650.895	36.26
651.083	36.58
651.272	36.72
651.461	36.96
651.65	37.44
651.838	37.67
652.027	37.66
652.216	37.67
652.404	37.73
652.593	37.59
652.781	37.85
652.97	37.8
653.158	37.74
653.347	37.91
653.535	37.46
653.724	37.14
653.912	37.21
654.101	37.35
654.289	37.41
654.478	37.61
654.666	37.78
654.855	37.5
655.043	37.17
655.231	37.08
655.42	36.97
655.608	37.46
655.796	37.8
655.985	37.72
656.173	37.76
656.361	37.6
656.55	37.4
656.738	37.05
656.926	37.41
657.114	37.5
657.302	37.49
657.491	37.38
657.679	36.9
657.867	36.43
658.055	36.23
658.243	36.03
658.431	36.35
658.619	36.69
658.807	37.01
658.996	36.96
659.184	37.02
659.372	37.18
659.56	37.08
659.748	37.13
659.936	37.38
660.124	37.57
660.311	37.87
660.499	37.81
660.687	37.74
660.875	37.78
661.063	37.71
661.251	37.63
661.439	37.31
661.627	37.53
661.814	37.97
662.002	37.78
662.19	38.04
662.378	37.91
662.565	38.11
662.753	38
662.941	38.2
663.129	38.53
663.316	38.65
663.504	38.74
663.692	38.73
663.879	38.59
664.067	38.77
664.254	38.8
664.442	38.76
664.63	38.35
664.817	38.2
665.005	38.03
665.192	37.66
665.38	38.02
665.567	38.16
665.755	38.24
665.942	38.27
666.13	38.53
666.317	38.33
666.504	38.5
666.692	39.14
666.879	39.26
667.067	38.81
667.254	38.58
667.441	38.22
667.629	38.25
667.816	38.43
668.003	38.76
668.19	38.66
668.378	38.58
668.565	38.62
668.752	38.22
668.939	38.14
669.127	39.05
669.314	38.91
669.501	39.12
669.688	39.26
669.875	39.13
670.062	38.98
670.249	39.21
670.436	39.33
670.623	39.17
670.81	38.81
670.997	38.97
671.184	38.32
671.371	38.7
671.558	38.53
671.745	39.08
671.932	38.99
672.119	39.04
672.306	38.89
672.493	39.12
672.68	39.09
672.867	39.73
673.054	39.47
673.24	39.52
673.427	39.77
673.614	39.95
673.801	39.52
673.988	39.94
674.174	39.69
674.361	39.65
674.548	39.51
674.734	39.57
674.921	39.31
675.108	39.95
675.294	39.52
675.481	39.32
675.668	39.8
675.854	39.28
676.041	38.91
676.227	38.98
676.414	39.26
676.601	39.4
676.787	39.57
676.974	40.01
677.16	39.61
677.347	40.04
677.533	39.88
677.719	39.41
677.906	39.55
678.092	40.06
678.279	39.67
678.465	39.13
678.651	38.65
678.838	38.72
679.024	38.41
679.21	38.36
679.397	38.56
679.583	38.64
679.769	38.45
679.955	38.37
680.142	37.95
680.328	38.86
680.514	38.96
680.7	38.79
680.886	39.14
681.073	39.17
681.259	39.16
681.445	39.18
681.631	39.15
681.817	39.56
682.003	39.59
682.189	39.77
682.375	39.09
682.561	39.45
682.747	40.31
682.933	40.17
683.119	40.36
683.305	40.56
683.491	40.48
683.677	40.55
683.863	40.47
684.049	41.02
684.235	40.86
684.42	40.82
684.606	40.62
684.792	39.96
684.978	39.96
685.164	40.12
685.349	40.23
685.535	40.59
685.721	40.33
685.907	40.17
686.092	39.84
686.278	40.07
686.464	40.14
686.649	40.07
686.835	40.46
687.021	40.43
687.206	40.34
687.392	39.73
687.577	39.86
687.763	40.26
687.948	40.22
688.134	40.58
688.319	40.77
688.505	41.03
688.69	41.19
688.876	41.46
689.061	41.47
689.247	41.28
689.432	41.79
689.618	41.4
689.803	41.38
689.988	41.29
690.174	41.34
690.359	41.26
690.544	41.2
690.73	41.12
690.915	40.72
691.1	41.06
691.285	41.09
691.471	41.1
691.656	41.18
691.841	41.52
692.026	41.91
692.211	41.75
692.396	41.76
692.582	41.92
692.767	42.29
692.952	42.7
693.137	41.99
693.322	42.38
693.507	42.51
693.692	42.6
693.877	42.24
694.062	41.97
694.247	42.01
694.432	42.4
694.617	42.91
694.802	42.82
694.987	42.77
695.172	42.66
695.357	42.64
695.541	42.62
695.726	42.82
695.911	43.36
696.096	43.06
696.281	42.95
696.466	42.19
696.65	41.65
696.835	42.12
697.02	41.98
697.204	42.14
697.389	41.86
697.574	41.12
697.759	40.8
697.943	40.34
698.128	40.4
698.312	40.37
698.497	40.14
698.682	40.11
698.866	39.55
699.051	39.33
699.235	39.45
699.42	39.57
699.604	39.82
699.789	39.6
699.973	39.89
700.158	40.24
700.342	40.2
700.527	40.83
700.711	40.85
700.895	40.96
701.08	41.52
701.264	41.55
701.448	41.46
701.633	42.33
701.817	42.8
702.001	42.86
702.186	42.5
702.37	42.36
702.554	42.18
702.738	42.27
702.923	42.46
703.107	42.49
703.291	42.67
703.475	42.35
703.659	41.79
703.843	41.79
704.027	41.52
704.212	41.84
704.396	42.43
704.58	42.14
704.764	42.11
704.948	41.67
705.132	41.08
705.316	41.1
705.5	41.68
705.684	42.1
705.868	42.15
706.052	41.9
706.235	41.86
706.419	41.57
706.603	42.15
706.787	42.19
706.971	43.16
707.155	43.22
707.339	43.03
707.522	43.09
707.706	42.53
707.89	42.42
708.074	42.61
708.257	42.35
708.441	42.84
708.625	42.58
708.808	42.76
708.992	42.27
709.176	42.69
709.359	42.51
709.543	42.6
709.727	42.9
709.91	42.92
710.094	43.05
710.277	43.39
710.461	42.48
710.644	42.74
710.828	42.9
711.011	43.38
711.195	43.48
711.378	44.01
711.562	43.75
711.745	43.59
711.928	43.38
712.112	42.95
712.295	42.93
712.478	43.68
712.662	43.65
712.845	43.03
713.028	42.44
713.212	42.21
713.395	41.82
713.578	42.02
713.761	41.66
713.945	41.46
714.128	42.29
714.311	42.53
714.494	42.34
714.677	42.21
714.86	42.68
715.043	42.66
715.227	42.71
715.41	42.7
715.593	42.38
715.776	42.58
715.959	43.23
716.142	42.91
716.325	42.22
716.508	42.21
716.691	42
716.874	41.83
717.057	42.24
717.239	42.17
717.422	42.53
717.605	42.56
717.788	42.82
717.971	43.13
718.154	43.11
718.337	43.66
718.519	43.8
718.702	44.33
718.885	44.57
719.068	44.56
719.25	44.92
719.433	44.54
719.616	45.08
719.798	44.77
719.981	44.99
720.164	44.97
720.346	44.87
720.529	45.3
720.712	44.98
720.894	44.8
721.077	44.43
721.259	43.68
721.442	43.75
721.624	43.8
721.807	44.26
721.989	43.05
722.172	43.09
722.354	42.93
722.537	42.76
722.719	43.05
722.901	42.91
723.084	43.47
723.266	43.41
723.448	44.08
723.631	43.79
723.813	43.98
723.995	44.53
724.178	44.98
724.36	45.57
724.542	45
724.724	45.42
724.907	45.63
725.089	45.1
725.271	46.13
725.453	45.28
725.635	44.89
725.817	44.94
725.999	44.51
726.181	44.27
726.364	43.75
726.546	44.84
726.728	44.2
726.91	43.72
727.092	43.68
727.274	42.44
727.456	43.21
727.638	43.33
727.819	43.05
728.001	43.67
728.183	43.52
728.365	43.47
728.547	42.65
728.729	42.98
728.911	43.85
729.093	43.84
729.274	43.76
729.456	43.27
729.638	43.74
729.82	43.6
730.001	43.18
730.183	43.49
730.365	44.21
730.546	44.31
730.728	43.35
730.91	42.62
731.091	42.72
731.273	43.01
731.455	43.02
731.636	43.3
731.818	43.93
731.999	44.18
732.181	44.31
732.362	43.92
732.544	44.4
732.725	45.31
732.907	46.1
733.088	47.28
733.27	47.99
733.451	47.99
733.633	47.68
733.814	47.52
733.995	48.16
734.177	47.87
734.358	47.95
734.539	47.66
734.721	47.14
734.902	46.4
735.083	45.47
735.264	45.32
735.446	45.97
735.627	45.63
735.808	45.05
735.989	44.6
736.17	45.13
736.351	44.79
736.533	44.63
736.714	44.64
736.895	45.2
737.076	44.83
737.257	44.56
737.438	43.36
737.619	43.68
737.8	44.36
737.981	44.03
738.162	43.1
738.343	44.12
738.524	43.78
738.705	44.57
738.886	44.57
739.067	44.92
739.247	45.15
739.428	45.7
739.609	45.64
739.79	45.64
739.971	44.73
740.151	44.41
740.332	43.54
740.513	43.53
740.694	43.54
740.874	43.58
741.055	43.35
741.236	43.49
741.417	43.8
741.597	43.79
741.778	43.35
741.958	44.61
742.139	45.43
742.32	45.85
742.5	46.88
742.681	46.95
742.861	45.98
743.042	45.71
743.222	45.81
743.403	45.51
743.583	45.53
743.764	46.08
743.944	45.83
744.124	46.32
744.305	45.74
744.485	45.01
744.666	44.44
744.846	45.38
745.026	46.36
745.207	46.1
745.387	46.3
745.567	46.87
745.747	46.9
745.928	46.35
746.108	46.71
746.288	47.48
746.468	47.44
746.648	47.38
746.829	47.94
747.009	47.71
747.189	48.38
747.369	48.01
747.549	47.04
747.729	46.91
747.909	46.46
748.089	45.78
748.269	45.11
748.449	46.05
748.629	45.77
748.809	45.36
748.989	46.16
749.169	45.67
749.349	46.19
749.529	47.29
749.709	46.63
749.889	47.3
750.068	47.06
750.248	48.2
750.428	47.97
750.608	47.92
750.788	47.56
750.967	45.85
751.147	45.29
751.327	46.31
751.507	45.21
751.686	45.44
751.866	45.68
752.046	45.98
752.225	45.63
752.405	45.66
752.585	46.53
752.764	47.02
752.944	47.54
753.123	47.43
753.303	47.07
753.482	47.59
753.662	47.82
753.841	47.57
754.021	48.13
754.2	48.48
754.38	48.14
754.559	48.33
754.739	47.42
754.918	47.9
755.097	48.11
755.277	47.22
755.456	47.78
755.635	47.82
755.815	47.91
755.994	46.73
756.173	45.93
756.352	45.32
756.532	44.78
756.711	44.75
756.89	43.84
757.069	44.62
757.248	44.39
757.427	43.01
757.607	43.38
757.786	43.85
757.965	44.09
758.144	44.71
758.323	45.34
758.502	45.81
758.681	47.05
758.86	48.11
759.039	48.4
759.218	49.33
759.397	49.86
759.576	49.37
759.755	49.21
759.934	49.22
760.113	49.27
760.291	48.63
760.47	48.01
760.649	47.8
760.828	47.03
761.007	46.42
761.186	45.81
761.364	46.35
761.543	45.65
761.722	45.63
761.901	45.33
762.079	44.95
762.258	45.56
762.437	45.76
762.615	45.09
762.794	45.37
762.972	44.57
763.151	44.28
763.33	43.79
763.508	44.64
763.687	44.35
763.865	44.45
764.044	44.51
764.222	44.22
764.401	44.41
764.579	44.17
764.758	43.95
764.936	44.6
765.114	44.55
765.293	45.43
765.471	45.78
765.65	46.12
765.828	46.47
766.006	46.78
766.184	47.41
766.363	47.35
766.541	47.58
766.719	48.21
766.898	47.79
767.076	48.23
767.254	47.78
767.432	46.28
767.61	45.98
767.788	46.41
767.967	46.2
768.145	46.16
768.323	45.68
768.501	46.1
768.679	45.6
768.857	46.51
769.035	46.99
769.213	46.96
769.391	47.73
769.569	48.62
769.747	49.04
769.925	49.58
770.103	48.78
770.281	49.18
770.459	50.74
770.636	51.85
770.814	51.16
770.992	51
771.17	51.2
771.348	51.88
771.525	51.04
771.703	49.3
771.881	48.51
772.059	49.24
772.236	48.35
772.414	46.89
772.592	45.41
772.769	45.99
772.947	45.77
773.125	45.41
773.302	45.91
773.48	46.24
773.657	47.29
773.835	46.92
774.013	47.05
774.19	50.86
774.368	49.75
774.545	49.88
774.723	48.73
774.9	48.48
775.077	48.55
775.255	48.69
775.432	48.97
775.61	50.12
775.787	49.5
775.964	49.58
776.142	46.3
776.319	46.84
776.496	47.91
776.674	48.99
776.851	50.44
777.028	49.78
777.205	49.66
777.382	49.75
777.56	48.89
777.737	50.71
777.914	49.65
778.091	51.26
778.268	52
778.445	52.13
778.622	52.96
778.8	50.83
778.977	52.38
779.154	56.48
779.331	56.39
779.508	57.13
779.685	56.3
779.862	57.72
780.038	57.36
780.215	57.97
780.392	57.24
780.569	55.86
780.746	57.3
780.923	56.13
781.1	52.58
781.277	52.3
781.453	50.82
781.63	50.9
781.807	49.81
781.984	48.86
782.16	48.28
782.337	50.15
782.514	49.59
782.691	51.38
782.867	51.64
783.044	50.2
783.221	50.03
783.397	50.45
783.574	49.88
783.75	51.14
783.927	51.73
784.103	52.91
784.28	52.17
784.456	52.32
784.633	50.07
784.809	51.12
784.986	50.94
785.162	51.82
785.339	51.6
785.515	52.3
785.692	51.01
785.868	51.85
786.044	52.36
786.221	51.43
786.397	53.26
786.573	53.16
786.749	52.27
786.926	54.1
787.102	53.33
787.278	53.52
787.454	54.16
787.631	55.79
787.807	52.99
787.983	50.77
788.159	50
788.335	50.77
788.511	51.78
788.687	51.5
788.863	50.17
789.039	50.97
789.216	51.64
789.392	51.99
789.568	51.45
789.744	53.38
789.919	52.15
790.095	52.08
790.271	50.61
790.447	50.24
790.623	49.47
790.799	50.48
790.975	49.75
791.151	50.02
791.327	49.58
791.502	50.08
791.678	49.75
791.854	51.21
792.03	50.83
792.205	54.16
792.381	54.88
792.557	56.71
792.733	56.8
792.908	57.21
793.084	54.94
793.259	55.41
793.435	52.64
793.611	52.62
793.786	52.1
793.962	53.27
794.137	51.71
794.313	49.16
794.488	48.84
794.664	48.88
794.839	48.44
795.015	49.75
795.19	50.02
795.366	51.5
795.541	50.23
795.716	50.16
795.892	51.29
796.067	49.72
796.242	50.89
796.418	49.61
796.593	48.05
796.768	49.14
796.944	48.64
797.119	45.46
797.294	44.51
797.469	47.12
797.644	47.37
797.82	47.99
797.995	47.56
798.17	46.04
798.345	47.08
798.52	48.62
798.695	49.21
798.87	48.85
799.045	50.96
799.22	54.08
799.395	51.97
799.57	55.02
799.745	54.84
799.92	55.28
800.095	59.21
800.27	58.99
800.445	58.96
800.62	57.92
800.795	60.21
800.97	61.02
801.145	57.99
801.319	59.59
801.494	57.68
801.669	57.11
801.844	58.69
802.018	54.61
802.193	53.94
802.368	53.09
802.543	53.33
802.717	52.38
802.892	53.12
803.067	53.77
803.241	53.65
803.416	52.89
803.59	53.53
803.765	52.62
803.94	56.31
804.114	55.63
804.289	56.12
804.463	53.48
804.638	51.56
804.812	52.84
804.986	52.98
805.161	53.44
805.335	54.66
805.51	53.57
805.684	52.29
805.858	48.73
806.033	48.66
806.207	49.4
806.381	51.89
806.556	51.8
806.73	48.9
806.904	47.9
807.078	45.72
807.253	46.1
807.427	44.93
807.601	45.72
807.775	47.94
807.949	51.59
808.123	51.03
808.298	50.62
808.472	53.56
808.646	53.71
808.82	53.07
808.994	54.7
809.168	54.85
809.342	59.43
809.516	61.91
809.69	64.47
809.864	61.12
810.038	63.13
810.212	64.64
810.385	62.08
810.559	63.85
810.733	65.23
810.907	63.35
811.081	62.41
811.255	59.88
811.428	58.12
811.602	55.7
811.776	57.73
811.95	56.72
812.123	57.31
812.297	60.06
812.471	59.07
812.644	59.27
812.818	64.18
812.992	63.86
813.165	63.3
813.339	58.4
813.512	57.96
813.686	56.48
813.86	56.08
814.033	53.09
814.207	52.72
814.38	52.97
814.554	51.3
814.727	46.81
814.9	50.1
815.074	51.95
815.247	55.78
815.421	53.72
815.594	56.46
815.767	54.71
815.941	53.32
816.114	52.96
816.287	53.59
816.46	55.9
816.634	55.38
816.807	54.92
816.98	53.99
817.153	55.57
817.327	58.28
817.5	58.53
817.673	61.43
817.846	61.89
818.019	62.47
818.192	61.49
818.365	57.83
818.538	57.81
818.711	54.04
818.884	54.85
819.057	51.05
819.23	47.62
819.403	44.54
819.576	41.81
819.749	43.35
819.922	41.75
820.095	42.15
820.268	44.2
820.441	44.11
820.614	43.41
820.786	41.65
820.959	43.78
821.132	45.6
821.305	45.16
821.477	45.94
821.65	45.74
821.823	45.14
821.996	42.98
822.168	43.1
822.341	42.96
822.514	43.33
822.686	43.57
822.859	42.84
823.031	42.36
823.204	42.87
823.376	42.59
823.549	42.79
823.722	42.88
823.894	44.14
824.067	43.68
824.239	43.94
824.411	44.43
824.584	44.21
824.756	44.99
824.929	45.32
825.101	45.44
825.273	45.61
825.446	45.53
825.618	45.48
825.79	44.78
825.963	45.26
826.135	45.29
826.307	43.94
826.479	43.89
826.652	43.27
826.824	43.05
826.996	42.25
827.168	41.96
827.34	41.68
827.512	42.52
827.684	43.34
827.856	43.97
828.029	45.01
828.201	45.5
828.373	46.06
828.545	46.41
828.717	47.44
828.889	47.21
829.061	49.4
829.232	49.76
829.404	49.77
829.576	49.57
829.748	49.61
829.92	50.68
830.092	51.5
830.264	50.7
830.436	52.14
830.607	53.75
830.779	56.72
830.951	55.83
831.123	53.81
831.294	52.34
831.466	52.5
831.638	51.66
831.809	49.59
831.981	51.82
832.153	53.61
832.324	52.95
832.496	52.08
832.667	52.73
832.839	51.64
833.011	52.26
833.182	52.7
833.354	53.26
833.525	54.54
833.697	54.83
833.868	51.69
834.039	52.01
834.211	51.72
834.382	50.23
834.554	48.95
834.725	49.4
834.896	49.42
835.068	49.63
835.239	48.54
835.41	48.38
835.581	47.39
835.753	48.44
835.924	47.29
836.095	47.12
836.266	47.1
836.438	45.75
836.609	44.26
836.78	45.26
836.951	46.63
837.122	46.97
837.293	46.05
837.464	44.92
837.635	46.17
837.806	47.59
837.977	48.51
838.148	52.75
838.319	54.14
838.49	56.65
838.661	59.52
838.832	58.94
839.003	60.9
839.174	63.08
839.345	68.22
839.516	69.63
839.687	68.73
839.857	67.67
840.028	64.25
840.199	65.7
840.37	66.17
840.54	65.61
840.711	62.7
840.882	62.32
841.053	61.55
841.223	60.19
841.394	56.63
841.564	60.03
841.735	59.57
841.906	59.76
842.076	54.82
842.247	54.85
842.417	53.37
842.588	55.87
842.758	55.93
842.929	55.18
843.099	53.25
843.27	54.09
843.44	54.54
843.611	55.27
843.781	49.8
843.951	53.14
844.122	56.28
844.292	56.07
844.462	56.05
844.633	55.16
844.803	54.87
844.973	58.12
845.144	61.95
845.314	57.11
845.484	54.65
845.654	59.79
845.824	65.63
845.995	63.45
846.165	64.9
846.335	66.55
846.505	67.44
846.675	72.27
846.845	68.94
847.015	69.6
847.185	70.6
847.355	74.66
847.525	77.22
847.695	82.87
847.865	74.3
848.035	80.3
848.205	83.08
848.375	90.38
848.545	68.78
848.715	75.92
848.884	71.54
849.054	72.49
849.224	74.16
849.394	69.45
849.564	67.77
849.733	70.83
849.903	67.39
850.073	60.87
850.243	56.14
850.412	66.73
850.582	65.7
850.752	67.68
850.921	68.79
851.091	70.49
851.26	76.28
851.43	70.28
851.599	69.72
851.769	74.07
851.939	72.45
852.108	80.45
852.278	83.57
852.447	66.64
852.616	69.77
852.786	68.86
852.955	72.23
853.125	73.34
853.294	72.34
853.463	71.38
853.633	72.92
853.802	82.66
853.971	77.77
854.141	80.1
854.31	89.62
854.479	77.76
854.648	80.76
854.818	71.58
854.987	69.57
855.156	71.8
855.325	72.08
855.494	68.01
855.663	61.36
855.832	67.41
856.001	64.03
856.171	59.65
856.34	75.41
856.509	75.51
856.678	90.81
856.847	97.12
857.016	89.47
857.185	83.96
857.353	90.13
857.522	102.66
857.691	97.72
857.86	100.75
858.029	104.51
858.198	100.53
858.367	96.78
858.535	85.05
858.704	85.88
858.873	89.25
859.042	96.47
859.21	86.28
859.379	79.43
859.548	63.84
859.717	57.55
859.885	45.06
860.054	43.61
860.222	39.66
860.391	48.88
860.56	37.92
860.728	41.74
860.897	35.58
861.065	39.52
861.234	48.66
861.402	64.4
861.571	68.12
861.739	79.42
861.908	89.58
862.076	93.72
862.244	89.53
862.413	85.78
862.581	90.76
862.749	89.89
862.918	91.21
863.086	83.11
863.254	79.68
863.423	82.69
863.591	87.12
863.759	75.83
863.927	71.66
864.096	70.76
864.264	79.38
864.432	71.16
864.6	72.04
864.768	71.25
864.936	81.68
865.104	85.56
865.272	85.09
865.44	84.62
865.608	80.47
865.776	87.25
865.944	92.08
866.112	98.43
866.28	94.13
866.448	95.84
866.616	85.01
866.784	82.5
866.952	80.19
867.12	78.27
867.288	77.47
867.455	78.81
867.623	85.66
867.791	82.55
867.959	68.42
868.127	70.49
868.294	80.2
868.462	82.47
868.63	79.55
868.797	76.74
868.965	78.51
869.133	78.9
869.3	77.21
869.468	66.25
869.636	57.87
869.803	77.43
869.971	88
870.138	80.03
870.306	77.36
870.473	77.31
870.641	78.36
870.808	79.41
870.975	84.32
871.143	95.83
871.31	93.61
871.478	108.13
871.645	104.15
871.812	95.65
871.98	90.52
872.147	97.5
872.314	89.63
872.482	88.86
872.649	87.11
872.816	82.34
872.983	69.8
873.15	73.9
873.318	70.99
873.485	64.56
873.652	69.32
873.819	77.97
873.986	81.31
874.153	94.28
874.32	87.97
874.487	99.31
874.654	92.09
874.821	101.74
874.988	96.17
875.155	87.86
875.322	84.36
875.489	91.73
875.656	84.15
875.823	79.23
875.99	70.44
876.157	82.93
876.324	77.51
876.49	76.07
876.657	74.5
876.824	75.63
876.991	85.9
877.157	79.79
877.324	76.72
877.491	71.97
877.658	74.22
877.824	66.28
877.991	60.33
878.157	58.6
878.324	60.27
878.491	64.6
878.657	72.62
878.824	73.25
878.99	72.06
879.157	70.43
879.323	75.64
879.49	74.23
879.656	81.45
879.823	81.46
879.989	77.73
880.156	78.02
880.322	67.72
880.488	61.83
880.655	59.34
880.821	65.31
880.987	63.64
881.154	59.4
881.32	60.58
881.486	63.86
881.652	66.39
881.819	64.22
881.985	60.16
882.151	62.48
882.317	59.99
882.483	56.84
882.649	53.94
882.816	55
882.982	54.49
883.148	51.94
883.314	50.14
883.48	48.73
883.646	48.42
883.812	47.53
883.978	48.62
884.144	49.05
884.31	47.72
884.476	48.67
884.642	48.93
884.807	50.23
884.973	50.74
885.139	50.06
885.305	50.11
885.471	50.1
885.637	50.91
885.802	50.38
885.968	50.85
886.134	53.06
886.3	51.23
886.465	49
886.631	47.37
886.797	45.89
886.962	47.24
887.128	47.97
887.293	49.1
887.459	49.97
887.625	45.36
887.79	44.09
887.956	45
888.121	47.96
888.287	49.35
888.452	48.69
888.618	52.11
888.783	51.48
