Data from LC_151_Reflection_1.txt Node
Date: Mon Nov 16 22:05:08 EST 2015
User: robert
Spectrometer: USB4E03001
Autoset integration time: false
Trigger mode: 4
Integration Time (sec): 1.000000E-1
Scans to average: 15
Electric dark correction enabled: true
Nonlinearity correction enabled: false
Boxcar width: 5
Stray light correction enabled: false
XAxis mode: Wavelengths
Stop averaging: false
Number of Pixels in Spectrum: 3648
>>>>>Begin Spectral Data<<<<<
177.566	-2516.87
177.785	-100.72
178.005	676.47
178.225	7.23
178.445	-122.81
178.665	791.44
178.885	159.38
179.105	-359.81
179.324	-949.07
179.544	138.13
179.764	451.54
179.984	335.35
180.204	314.35
180.423	208.57
180.643	169.42
180.863	145.71
181.083	163.78
181.302	133.76
181.522	113.43
181.742	52.59
181.961	37.51
182.181	23.29
182.401	36.77
182.621	-340.75
182.84	-188.35
183.06	-118.78
183.279	-65.68
183.499	-42.19
183.719	-22.39
183.938	-53.23
184.158	-35.51
184.377	-11.25
184.597	-23.5
184.816	-7.72
185.036	12.96
185.256	38.52
185.475	37.87
185.695	37.81
185.914	27.5
186.134	-9.96
186.353	33.89
186.572	-7.62
186.792	-83
187.011	19.71
187.231	25.13
187.45	28.79
187.67	-38.78
187.889	-253.13
188.108	704.22
188.328	-176.2
188.547	17.43
188.766	-7.11
188.986	91.34
189.205	119.65
189.424	41.22
189.644	-65.45
189.863	-45.81
190.082	71.75
190.302	44.98
190.521	316.69
190.74	-165.57
190.959	28.75
191.178	20.7
191.398	117.51
191.617	58.47
191.836	21.26
192.055	-211.48
192.274	-55.85
192.494	-71.81
192.713	-140.55
192.932	-117.21
193.151	-176.95
193.37	-572.96
193.589	407.33
193.808	204.36
194.027	155.39
194.246	389.39
194.465	66.74
194.685	457.06
194.904	317.33
195.123	-287.85
195.342	-61.37
195.561	13.01
195.78	-53.61
195.999	3401.41
196.218	162.76
196.436	108.99
196.655	-174.61
196.874	41.24
197.093	93.57
197.312	255.76
197.531	-230.42
197.75	102.77
197.969	-199.05
198.188	33.37
198.407	33.97
198.625	-3.36
198.844	31.55
199.063	60.62
199.282	-31.69
199.501	73.57
199.719	27.29
199.938	28.97
200.157	34.52
200.376	31.24
200.594	14.81
200.813	-0.28
201.032	37.48
201.251	2.89
201.469	-5.11
201.688	61.48
201.907	-22.18
202.125	-56.59
202.344	1203.57
202.563	729.24
202.781	156.13
203	369.49
203.218	377.5
203.437	547.78
203.656	287.05
203.874	146.61
204.093	160.99
204.311	144.24
204.53	119.78
204.748	250.94
204.967	92.46
205.185	111.81
205.404	146.54
205.622	100.82
205.841	46.07
206.059	21.23
206.278	6.2
206.496	-42.88
206.715	72.32
206.933	32.89
207.151	-9.28
207.37	5.59
207.588	16.46
207.806	2.14
208.025	-110.64
208.243	374.31
208.461	-505.68
208.68	-1510.59
208.898	119.57
209.116	66.34
209.335	207.51
209.553	145.51
209.771	1293.33
209.989	233.36
210.208	219.39
210.426	-336.18
210.644	173.84
210.862	95.25
211.081	-221.21
211.299	163.36
211.517	-518.66
211.735	155.25
211.953	20657.14
212.171	388.55
212.39	576.58
212.608	-1519.57
212.826	321.23
213.044	306.24
213.262	402.95
213.48	1932.91
213.698	209.06
213.916	287.14
214.134	133.72
214.352	256.26
214.57	155.61
214.788	123.03
215.006	125.82
215.224	89.31
215.442	77.62
215.66	18.91
215.878	33.38
216.096	-5.47
216.314	-30.65
216.532	23.86
216.75	33.41
216.968	58.1
217.185	233.76
217.403	373.31
217.621	-1185.58
217.839	-281.37
218.057	-336.22
218.275	780.34
218.492	437.36
218.71	636.63
218.928	182.11
219.146	212.78
219.363	149.72
219.581	109.37
219.799	91.78
220.017	76.33
220.234	54.4
220.452	66.59
220.67	62.1
220.887	5.89
221.105	17.7
221.323	4.65
221.54	13.08
221.758	5.57
221.976	19.71
222.193	18.51
222.411	6.49
222.629	50.97
222.846	73.36
223.064	87.83
223.281	95.45
223.499	83.98
223.716	91.26
223.934	67.33
224.151	74.72
224.369	61.43
224.586	68.43
224.804	69.31
225.021	64.11
225.239	35.54
225.456	25.26
225.674	21.58
225.891	12.88
226.108	23.78
226.326	23.3
226.543	24.4
226.76	23.75
226.978	23.97
227.195	31.93
227.413	24.75
227.63	23.25
227.847	22.09
228.064	18.39
228.282	17.84
228.499	14.94
228.716	12.27
228.934	9.29
229.151	10.65
229.368	9.73
229.585	10.63
229.802	11.62
230.02	12.48
230.237	14.07
230.454	14.35
230.671	15.44
230.888	15.82
231.105	17.56
231.323	20.56
231.54	19.74
231.757	18.2
231.974	15.06
232.191	12.88
232.408	16.93
232.625	16.87
232.842	20.68
233.059	25.12
233.276	22.28
233.493	24.99
233.71	21.48
233.927	22.81
234.144	26.12
234.361	24.97
234.578	27.01
234.795	19.57
235.012	19.63
235.229	19.73
235.446	18.87
235.663	17.03
235.879	19.97
236.096	13.45
236.313	17.34
236.53	18.2
236.747	16.58
236.964	16.59
237.181	19.73
237.397	17.22
237.614	13.5
237.831	10.83
238.048	17.76
238.264	14.33
238.481	18.82
238.698	18.44
238.915	15.04
239.131	18.99
239.348	18.8
239.565	20.32
239.781	21.85
239.998	23.61
240.215	21.06
240.431	18.76
240.648	16.73
240.865	17.37
241.081	14.56
241.298	16.06
241.514	15.59
241.731	14.88
241.947	14.59
242.164	12.74
242.38	13.09
242.597	14.16
242.814	14.36
243.03	14.52
243.246	14.37
243.463	14.37
243.679	14.01
243.896	12.42
244.112	13.12
244.329	11.49
244.545	11.61
244.762	8.65
244.978	8.11
245.194	7.99
245.411	5.48
245.627	6.31
245.843	7.6
246.06	7.74
246.276	10.78
246.492	10.26
246.709	11.22
246.925	11.67
247.141	12.26
247.357	12.17
247.574	12.31
247.79	13.15
248.006	12.29
248.222	12.31
248.439	12.28
248.655	12.35
248.871	12.09
249.087	12.08
249.303	11.8
249.519	11.86
249.736	12.36
249.952	11.82
250.168	12.37
250.384	15.01
250.6	14.28
250.816	14.17
251.032	9.47
251.248	10.24
251.464	9.27
251.68	10.25
251.896	10.59
252.112	9.19
252.328	10.43
252.544	11.15
252.76	9.43
252.976	9.67
253.192	8.7
253.408	11.28
253.624	13.49
253.84	13.72
254.056	13.25
254.272	12.41
254.487	12.31
254.703	10.44
254.919	8.41
255.135	10.68
255.351	13.28
255.567	17.26
255.782	15.99
255.998	11.46
256.214	12.38
256.43	11.17
256.646	13.03
256.861	16.12
257.077	14.87
257.293	14.91
257.508	12.31
257.724	13.92
257.94	12.13
258.155	10.91
258.371	11.25
258.587	10.82
258.802	10.89
259.018	11.37
259.234	9.98
259.449	10.8
259.665	10.25
259.88	11.19
260.096	10.01
260.312	10.08
260.527	10.27
260.743	10.58
260.958	10.92
261.174	10.97
261.389	11.19
261.605	11.46
261.82	11.06
262.036	12.48
262.251	12.22
262.466	12.91
262.682	13.33
262.897	13.55
263.113	13.04
263.328	12.21
263.543	11.99
263.759	10.36
263.974	10.8
264.189	12.24
264.405	11.7
264.62	11.64
264.835	11.35
265.051	11.16
265.266	13.81
265.481	14.69
265.696	16.23
265.912	17.28
266.127	15.85
266.342	15.29
266.557	13.86
266.773	13.03
266.988	12.2
267.203	12.12
267.418	11.4
267.633	8.64
267.848	8.51
268.064	7.62
268.279	7.2
268.494	8.4
268.709	8.33
268.924	7.93
269.139	8.24
269.354	8.4
269.569	7.67
269.784	7.37
269.999	9.2
270.214	7.62
270.429	8.84
270.644	8.34
270.859	7.15
271.074	7.87
271.289	8.29
271.504	7.53
271.719	8.36
271.934	8.2
272.149	8.93
272.363	8.99
272.578	9.53
272.793	8.13
273.008	7.95
273.223	7.71
273.438	6.74
273.653	7.19
273.867	6.64
274.082	5.55
274.297	5.95
274.512	5.22
274.726	4.75
274.941	4.94
275.156	6.12
275.371	7.06
275.585	8.08
275.8	9.74
276.015	10.01
276.229	10.65
276.444	11.99
276.659	12.18
276.873	12.36
277.088	11.34
277.302	11.99
277.517	12.32
277.732	14.25
277.946	14.3
278.161	13.99
278.375	14
278.59	13.21
278.804	12.51
279.019	12.31
279.233	12.77
279.448	13.89
279.662	13.15
279.877	12.84
280.091	10.21
280.306	9.38
280.52	9.28
280.735	8.22
280.949	8.79
281.163	9.49
281.378	8.21
281.592	6.95
281.806	6.25
282.021	5.24
282.235	4.79
282.449	4.43
282.664	5.59
282.878	5.29
283.092	6.67
283.307	7.74
283.521	7.79
283.735	9.05
283.949	10.22
284.164	9.87
284.378	10.87
284.592	10.78
284.806	11.34
285.02	10.08
285.234	9.85
285.449	8.82
285.663	7.91
285.877	7.35
286.091	7.09
286.305	6.37
286.519	6.85
286.733	6.28
286.947	5.77
287.161	5.4
287.375	6.68
287.589	6.89
287.803	6.77
288.017	7.56
288.231	7.57
288.445	6.8
288.659	7.67
288.873	6.99
289.087	7.37
289.301	7.93
289.515	8.19
289.729	8.03
289.943	7.73
290.157	7.62
290.371	8.63
290.584	8.49
290.798	10.09
291.012	10.48
291.226	10.88
291.44	12.14
291.654	12.26
291.867	11.81
292.081	11.76
292.295	12.82
292.509	14.17
292.722	12.9
292.936	12.97
293.15	12.32
293.364	11.2
293.577	11.68
293.791	9.95
294.005	10.48
294.218	10.5
294.432	9.86
294.645	8.98
294.859	7.5
295.073	8.04
295.286	7.91
295.5	7.76
295.713	8.63
295.927	9.15
296.14	10.82
296.354	10.42
296.568	10.84
296.781	10.7
296.994	11.05
297.208	11.06
297.421	10.67
297.635	10.71
297.848	10.98
298.062	11.29
298.275	11.33
298.489	10.45
298.702	10.04
298.915	10.44
299.129	11.33
299.342	11.21
299.555	11.42
299.769	12.51
299.982	12.97
300.195	13.15
300.409	12.22
300.622	12.09
300.835	12.98
301.048	13.51
301.262	13.27
301.475	12.14
301.688	13.27
301.901	13.28
302.115	11.94
302.328	11.66
302.541	10.54
302.754	11.59
302.967	11.64
303.18	11.43
303.393	12.02
303.607	11.55
303.82	11.52
304.033	9.89
304.246	10.7
304.459	11.94
304.672	12.23
304.885	14.09
305.098	13.81
305.311	12.77
305.524	11.21
305.737	10.41
305.95	12.49
306.163	12.8
306.376	13
306.589	12.74
306.802	11.08
307.015	11.88
307.228	11.17
307.44	9.99
307.653	10.2
307.866	9.82
308.079	12.12
308.292	11.32
308.505	11.85
308.718	11.08
308.93	10.75
309.143	11.3
309.356	10.2
309.569	9.56
309.781	10.53
309.994	10.24
310.207	11.72
310.42	9.37
310.632	8.03
310.845	7.83
311.058	7.76
311.27	8.91
311.483	9.07
311.696	9.88
311.908	10.23
312.121	9.65
312.333	10.85
312.546	10.12
312.759	11.28
312.971	11.68
313.184	11.78
313.396	12.76
313.609	11.87
313.821	10.67
314.034	10.21
314.246	9.92
314.459	10.19
314.671	9.37
314.884	9.1
315.096	7.78
315.309	8.1
315.521	8.93
315.733	7.79
315.946	7.67
316.158	8.55
316.371	7.55
316.583	8.42
316.795	7.94
317.008	8.61
317.22	10.22
317.432	10.88
317.644	10.61
317.857	9.07
318.069	10.23
318.281	10.38
318.494	10.35
318.706	11.63
318.918	11.54
319.13	12.2
319.342	12.31
319.555	11.71
319.767	12.41
319.979	12.19
320.191	12.96
320.403	12.25
320.615	13.61
320.827	13.95
321.039	13.24
321.252	12.88
321.464	11.03
321.676	10.71
321.888	10.56
322.1	9.81
322.312	8.87
322.524	7.45
322.736	7.32
322.948	5.61
323.16	4.76
323.372	5.89
323.584	4.19
323.796	4.58
324.007	4.2
324.219	3.88
324.431	4.16
324.643	4.93
324.855	5.85
325.067	6.39
325.279	6.68
325.491	7.25
325.702	6.34
325.914	7.81
326.126	9.35
326.338	9.67
326.55	9.46
326.761	9.37
326.973	9.35
327.185	9.42
327.396	9.53
327.608	9.73
327.82	10.77
328.032	11.58
328.243	11.66
328.455	11.58
328.666	11.61
328.878	12.4
329.09	11.79
329.301	12.02
329.513	12.13
329.725	11.82
329.936	11.67
330.148	10.9
330.359	10.14
330.571	9.96
330.782	9.8
330.994	9.79
331.205	9.31
331.417	10.09
331.628	10.41
331.84	11.03
332.051	10.98
332.262	11.82
332.474	11.52
332.685	11.55
332.897	11.63
333.108	11.84
333.319	11.47
333.531	11.77
333.742	12.64
333.953	12.06
334.165	11.69
334.376	12.66
334.587	12.03
334.799	12.11
335.01	11.93
335.221	11.64
335.432	11.21
335.644	10.95
335.855	10.57
336.066	10
336.277	10.58
336.488	10.75
336.7	9.48
336.911	9.54
337.122	9.21
337.333	10.25
337.544	11.32
337.755	11.57
337.966	12.38
338.177	12.57
338.388	13.09
338.599	13.44
338.811	13.56
339.022	13.53
339.233	13.96
339.444	15.19
339.655	13.34
339.866	12.39
340.076	12.76
340.287	12.62
340.498	12.69
340.709	11.88
340.92	11.07
341.131	10.62
341.342	11.73
341.553	10.9
341.764	10.3
341.975	11.51
342.185	11.12
342.396	10.63
342.607	10.89
342.818	11.1
343.029	11.63
343.239	12.1
343.45	12.69
343.661	12.2
343.872	12.43
344.082	12.44
344.293	12.05
344.504	12.57
344.714	11.52
344.925	11.04
345.136	10.77
345.346	10.76
345.557	11.16
345.768	10.84
345.978	10.37
346.189	10.95
346.399	10.18
346.61	10.46
346.821	10.06
347.031	11.05
347.242	11.14
347.452	11.52
347.663	10.87
347.873	10.87
348.084	10.31
348.294	10.84
348.504	10.02
348.715	10.93
348.925	10.48
349.136	10.37
349.346	9.54
349.557	9.56
349.767	9.82
349.977	9.69
350.188	9.45
350.398	10.57
350.608	10.95
350.819	11.18
351.029	11.02
351.239	10.37
351.449	10.64
351.66	11.83
351.87	12.42
352.08	11.44
352.29	11.37
352.501	10.72
352.711	9.45
352.921	9.53
353.131	9.96
353.341	9.85
353.552	10.6
353.762	11.03
353.972	10.32
354.182	10.33
354.392	10.01
354.602	10.09
354.812	10.18
355.022	10.51
355.232	10.31
355.442	10.16
355.652	10.62
355.862	10.32
356.072	10.12
356.282	10.41
356.492	10.35
356.702	10.58
356.912	11.23
357.122	11.06
357.332	11.24
357.542	10.84
357.752	10.82
357.962	9.86
358.171	9.78
358.381	9.93
358.591	9.44
358.801	8.8
359.011	9.36
359.221	8.69
359.43	9.53
359.64	10.16
359.85	10.34
360.06	10.39
360.269	10.78
360.479	11.12
360.689	10.59
360.899	10.82
361.108	11.12
361.318	10.81
361.528	10.89
361.737	10.32
361.947	9.53
362.156	9.83
362.366	9.26
362.576	9.07
362.785	8.92
362.995	9.18
363.204	9.01
363.414	9.14
363.623	9.23
363.833	9.59
364.042	9.39
364.252	9.88
364.461	9.24
364.671	9.69
364.88	10
365.09	10.33
365.299	10.69
365.509	10.53
365.718	9.56
365.927	9.09
366.137	8.94
366.346	9.31
366.555	8.74
366.765	8.62
366.974	8.57
367.183	8.8
367.393	7.76
367.602	7
367.811	7.46
368.021	7.55
368.23	8.13
368.439	7.79
368.648	7.89
368.857	8.23
369.067	8.5
369.276	8.37
369.485	8.07
369.694	8.52
369.903	9.24
370.112	8.96
370.321	9.24
370.531	8.58
370.74	8.56
370.949	8.02
371.158	7.71
371.367	7.59
371.576	7.33
371.785	7.17
371.994	7.36
372.203	7.35
372.412	7.52
372.621	8.07
372.83	8.61
373.039	8.74
373.248	8.74
373.457	8.83
373.666	8.73
373.874	8.96
374.083	9.19
374.292	9.49
374.501	8.84
374.71	8.63
374.919	8.36
375.128	7.89
375.336	7.74
375.545	8.03
375.754	7.88
375.963	7.94
376.171	8.23
376.38	8.12
376.589	8.16
376.798	7.83
377.006	8.05
377.215	8.16
377.424	8.35
377.632	8.59
377.841	8.6
378.05	8.81
378.258	9.04
378.467	9.08
378.675	9.01
378.884	8.63
379.093	8.76
379.301	8.21
379.51	7.65
379.718	7.79
379.927	7.61
380.135	7.25
380.344	7.14
380.552	7.1
380.761	6.72
380.969	6.75
381.177	7.02
381.386	7.43
381.594	7.62
381.803	8.05
382.011	7.65
382.219	7.26
382.428	7.07
382.636	6.97
382.845	6.99
383.053	6.95
383.261	6.63
383.469	6.82
383.678	6.77
383.886	6.98
384.094	6.59
384.302	6.8
384.511	7.28
384.719	8.05
384.927	8.03
385.135	7.85
385.343	8.07
385.552	8.01
385.76	7.51
385.968	7.54
386.176	7.41
386.384	7.72
386.592	7.46
386.8	7.1
387.008	6.8
387.216	6.99
387.424	7.12
387.633	7
387.841	7.06
388.049	7.15
388.257	7.03
388.465	7.09
388.672	6.84
388.88	7.07
389.088	7.1
389.296	7.18
389.504	7.12
389.712	6.93
389.92	6.62
390.128	6.89
390.336	7.01
390.544	7.44
390.751	7.13
390.959	7.03
391.167	7.17
391.375	7.21
391.583	6.75
391.79	6.55
391.998	6.51
392.206	6.82
392.414	6.56
392.621	6.48
392.829	6.18
393.037	6.26
393.244	6.31
393.452	6.57
393.66	6.65
393.867	7.01
394.075	7.03
394.283	7.09
394.49	6.87
394.698	6.74
394.905	6.7
395.113	6.64
395.32	6.71
395.528	6.61
395.735	6.33
395.943	6.09
396.15	5.72
396.358	5.87
396.565	5.87
396.773	6.33
396.98	6.57
397.188	6.68
397.395	6.94
397.602	6.69
397.81	6.69
398.017	6.6
398.225	6.73
398.432	6.78
398.639	6.67
398.847	6.71
399.054	6.23
399.261	6.25
399.468	6.29
399.676	5.83
399.883	6.14
400.09	6.32
400.297	6.09
400.505	6.08
400.712	6.13
400.919	6.35
401.126	6.38
401.333	6.34
401.54	6.31
401.748	6.09
401.955	6.23
402.162	6.23
402.369	6.01
402.576	6.14
402.783	6.1
402.99	6.36
403.197	6.1
403.404	5.82
403.611	5.99
403.818	5.97
404.025	6.07
404.232	6.01
404.439	5.87
404.646	5.85
404.853	5.78
405.06	5.83
405.267	5.55
405.474	5.52
405.681	5.73
405.887	5.54
406.094	5.77
406.301	5.64
406.508	5.68
406.715	5.8
406.922	5.77
407.128	5.71
407.335	5.75
407.542	5.72
407.749	5.95
407.955	6.04
408.162	6.26
408.369	6.02
408.575	5.96
408.782	5.72
408.989	5.72
409.195	5.96
409.402	6.18
409.609	6.25
409.815	6.53
410.022	6.61
410.228	6.43
410.435	6.5
410.642	6.31
410.848	6.55
411.055	6.62
411.261	6.67
411.468	6.52
411.674	6.33
411.881	6.18
412.087	6.42
412.294	6.33
412.5	6.22
412.706	6.25
412.913	6.44
413.119	6.32
413.326	6.32
413.532	6.33
413.738	6.28
413.945	6.54
414.151	6.41
414.357	6.23
414.564	6.08
414.77	6.18
414.976	6.04
415.182	6.1
415.389	6.27
415.595	6.29
415.801	6.04
416.007	6.14
416.214	6.13
416.42	6.27
416.626	6.16
416.832	6.14
417.038	6.02
417.244	6.05
417.45	5.74
417.657	5.64
417.863	5.76
418.069	5.99
418.275	6.22
418.481	6.07
418.687	6.04
418.893	5.93
419.099	5.96
419.305	6.17
419.511	6.11
419.717	6.29
419.923	6.21
420.129	6.14
420.335	6.03
420.541	5.94
420.746	5.98
420.952	5.99
421.158	5.99
421.364	5.97
421.57	5.92
421.776	6
421.982	5.92
422.187	5.9
422.393	5.84
422.599	5.9
422.805	5.85
423.01	5.89
423.216	5.8
423.422	5.74
423.628	5.81
423.833	5.67
424.039	5.7
424.245	5.74
424.45	5.91
424.656	5.96
424.862	5.83
425.067	5.78
425.273	5.65
425.478	5.69
425.684	5.74
425.889	5.78
426.095	5.91
426.301	5.84
426.506	5.89
426.712	5.88
426.917	5.8
427.123	5.96
427.328	6.16
427.533	6.32
427.739	6.27
427.944	6.32
428.15	6.14
428.355	6.19
428.561	5.89
428.766	5.83
428.971	5.63
429.177	5.86
429.382	5.93
429.587	5.83
429.793	5.64
429.998	5.83
430.203	5.9
430.408	5.96
430.614	5.88
430.819	6.1
431.024	6.22
431.229	6.11
431.434	6.14
431.64	5.86
431.845	5.83
432.05	5.86
432.255	5.69
432.46	5.57
432.665	5.42
432.87	5.36
433.076	5.38
433.281	5.26
433.486	5.36
433.691	5.02
433.896	4.84
434.101	4.8
434.306	4.89
434.511	5.04
434.716	5.1
434.921	5.26
435.126	5.13
435.331	5.11
435.535	5.17
435.74	5.13
435.945	5.45
436.15	5.68
436.355	5.69
436.56	5.8
436.765	5.81
436.97	5.76
437.174	5.76
437.379	5.92
437.584	5.85
437.789	5.85
437.993	5.87
438.198	5.8
438.403	6.03
438.608	6.18
438.812	5.9
439.017	5.93
439.222	5.88
439.426	5.84
439.631	5.89
439.836	5.89
440.04	5.9
440.245	5.91
440.45	6
440.654	5.9
440.859	5.69
441.063	5.71
441.268	5.64
441.472	5.7
441.677	5.7
441.881	5.53
442.086	5.63
442.29	5.61
442.495	5.55
442.699	5.49
442.904	5.35
443.108	5.42
443.312	5.38
443.517	5.34
443.721	5.27
443.925	5.26
444.13	5.32
444.334	5.21
444.538	5.08
444.743	5.08
444.947	5.04
445.151	5.02
445.356	4.96
445.56	5.1
445.764	5.09
445.968	5.18
446.173	5.12
446.377	5.2
446.581	5.25
446.785	5.31
446.989	5.32
447.193	5.25
447.398	5.26
447.602	5.32
447.806	5.29
448.01	5.34
448.214	5.33
448.418	5.39
448.622	5.35
448.826	5.28
449.03	5.38
449.234	5.47
449.438	5.46
449.642	5.45
449.846	5.42
450.05	5.46
450.254	5.38
450.458	5.62
450.662	5.62
450.866	5.61
451.069	5.6
451.273	5.38
451.477	5.18
451.681	5.34
451.885	5.21
452.089	5.27
452.292	5.25
452.496	5.34
452.7	5.07
452.904	5.09
453.107	5.09
453.311	5.35
453.515	5.37
453.719	5.3
453.922	5.25
454.126	5.39
454.33	5.37
454.533	5.29
454.737	5.25
454.94	5.28
455.144	5.3
455.348	5.26
455.551	5.13
455.755	4.97
455.958	5.17
456.162	4.95
456.365	5.12
456.569	5.08
456.772	4.99
456.976	5.01
457.179	4.93
457.383	4.92
457.586	5.03
457.79	5.04
457.993	5.26
458.196	5.17
458.4	5.36
458.603	5.24
458.807	5.36
459.01	5.52
459.213	5.33
459.417	5.27
459.62	5.31
459.823	5.27
460.026	5.15
460.23	5.15
460.433	5.27
460.636	5.27
460.839	5.26
461.042	5.18
461.246	5.1
461.449	5.27
461.652	5.31
461.855	5.1
462.058	5.18
462.261	5.12
462.464	5.08
462.668	5.03
462.871	4.87
463.074	4.92
463.277	4.74
463.48	4.82
463.683	4.73
463.886	4.89
464.089	4.94
464.292	4.98
464.495	5.11
464.698	5.11
464.901	5.07
465.104	5.21
465.306	5.27
465.509	5.38
465.712	5.41
465.915	5.51
466.118	5.37
466.321	5.39
466.524	5.48
466.726	5.56
466.929	5.56
467.132	5.67
467.335	5.42
467.538	5.26
467.74	5.23
467.943	5.19
468.146	5.31
468.348	5.36
468.551	5.43
468.754	5.05
468.956	4.91
469.159	4.91
469.362	4.73
469.564	4.82
469.767	4.98
469.969	5.02
470.172	4.82
470.375	4.75
470.577	4.58
470.78	4.57
470.982	4.75
471.185	4.81
471.387	4.89
471.59	4.94
471.792	5.1
471.995	4.96
472.197	4.99
472.399	5.11
472.602	5.02
472.804	5.27
473.007	5.24
473.209	5.3
473.411	5.15
473.614	5.11
473.816	5.14
474.018	5.21
474.22	5.33
474.423	5.38
474.625	5.29
474.827	5.41
475.03	5.44
475.232	5.51
475.434	5.43
475.636	5.61
475.838	5.61
476.04	5.62
476.243	5.52
476.445	5.36
476.647	5.31
476.849	5.46
477.051	5.36
477.253	5.33
477.455	5.33
477.657	5.21
477.859	5.43
478.061	5.43
478.263	5.27
478.465	5.33
478.667	5.44
478.869	5.42
479.071	5.26
479.273	5.25
479.475	5.16
479.677	5.1
479.879	5.11
480.081	4.93
480.283	4.87
480.485	4.89
480.686	4.84
480.888	4.93
481.09	4.92
481.292	4.89
481.494	4.88
481.695	4.97
481.897	4.93
482.099	4.96
482.301	4.96
482.502	5.06
482.704	5.08
482.906	5.09
483.107	5
483.309	5.01
483.511	5.1
483.712	5.05
483.914	4.96
484.115	4.98
484.317	4.99
484.519	4.95
484.72	4.89
484.922	4.83
485.123	4.84
485.325	4.84
485.526	4.85
485.728	4.82
485.929	4.85
486.131	4.92
486.332	4.97
486.534	4.92
486.735	4.92
486.936	4.92
487.138	4.97
487.339	5.01
487.541	5
487.742	4.95
487.943	4.93
488.144	4.92
488.346	4.83
488.547	4.79
488.748	4.86
488.95	4.86
489.151	4.84
489.352	4.85
489.553	4.79
489.755	4.84
489.956	4.9
490.157	4.94
490.358	4.96
490.559	5.07
490.76	5.04
490.961	4.99
491.163	5.03
491.364	5.17
491.565	5.1
491.766	5.04
491.967	5.03
492.168	4.97
492.369	4.93
492.57	4.9
492.771	4.89
492.972	4.93
493.173	4.97
493.374	4.93
493.575	4.85
493.776	5
493.976	5.09
494.177	5.13
494.378	5.21
494.579	5.16
494.78	5.37
494.981	5.36
495.182	5.31
495.382	5.18
495.583	5.29
495.784	5.15
495.985	5.16
496.185	5.08
496.386	5
496.587	5.08
496.788	5.19
496.988	5.17
497.189	5.2
497.39	5.24
497.59	5.39
497.791	5.32
497.992	5.39
498.192	5.43
498.393	5.47
498.593	5.52
498.794	5.36
498.994	5.35
499.195	5.3
499.395	5.32
499.596	5.34
499.796	5.33
499.997	5.39
500.197	5.47
500.398	5.52
500.598	5.49
500.799	5.48
500.999	5.68
501.199	5.54
501.4	5.55
501.6	5.42
501.801	5.48
502.001	5.42
502.201	5.48
502.402	5.5
502.602	5.45
502.802	5.53
503.002	5.67
503.203	5.61
503.403	5.7
503.603	5.69
503.803	5.75
504.003	5.7
504.204	5.88
504.404	5.84
504.604	5.7
504.804	5.72
505.004	5.78
505.204	5.68
505.404	5.76
505.604	5.91
505.804	5.9
506.005	5.9
506.205	5.84
506.405	5.72
506.605	5.76
506.805	5.92
507.005	5.95
507.204	5.92
507.404	5.95
507.604	5.96
507.804	5.91
508.004	5.91
508.204	6.08
508.404	6.15
508.604	6.19
508.804	6.17
509.003	6.17
509.203	6.19
509.403	6.17
509.603	6.03
509.803	6.25
510.002	6.31
510.202	6.41
510.402	6.29
510.602	6.44
510.801	6.45
511.001	6.54
511.201	6.57
511.4	6.56
511.6	6.57
511.8	6.67
511.999	6.57
512.199	6.55
512.398	6.57
512.598	6.68
512.797	6.66
512.997	6.87
513.197	6.83
513.396	6.91
513.596	7.06
513.795	7.31
513.994	7.51
514.194	7.47
514.393	7.52
514.593	7.54
514.792	7.6
514.992	7.58
515.191	7.34
515.39	7.31
515.59	7.21
515.789	7.18
515.988	7.03
516.188	6.92
516.387	6.99
516.586	7.06
516.786	7.16
516.985	7.2
517.184	7.21
517.383	7.34
517.582	7.47
517.782	7.52
517.981	7.49
518.18	7.52
518.379	7.6
518.578	7.59
518.777	7.64
518.976	7.48
519.176	7.57
519.375	7.67
519.574	7.62
519.773	7.56
519.972	7.55
520.171	7.44
520.37	7.45
520.569	7.42
520.768	7.39
520.967	7.37
521.166	7.54
521.365	7.44
521.564	7.41
521.762	7.57
521.961	7.64
522.16	7.65
522.359	7.67
522.558	7.77
522.757	7.77
522.956	7.85
523.154	7.79
523.353	7.9
523.552	7.97
523.751	8.16
523.949	8.09
524.148	8.16
524.347	8.25
524.546	8.43
524.744	8.41
524.943	8.54
525.142	8.52
525.34	8.61
525.539	8.57
525.737	8.61
525.936	8.54
526.135	8.52
526.333	8.47
526.532	8.49
526.73	8.59
526.929	8.57
527.127	8.53
527.326	8.58
527.524	8.62
527.723	8.62
527.921	8.66
528.12	8.68
528.318	8.8
528.516	8.84
528.715	8.88
528.913	8.82
529.112	8.88
529.31	8.9
529.508	8.88
529.707	8.9
529.905	8.92
530.103	8.9
530.301	8.88
530.5	8.86
530.698	8.88
530.896	8.88
531.094	8.99
531.293	9.04
531.491	9.09
531.689	9.17
531.887	9.28
532.085	9.34
532.283	9.4
532.481	9.49
532.68	9.45
532.878	9.48
533.076	9.54
533.274	9.45
533.472	9.47
533.67	9.45
533.868	9.48
534.066	9.46
534.264	9.42
534.462	9.47
534.66	9.47
534.858	9.63
535.056	9.7
535.253	9.68
535.451	9.77
535.649	9.76
535.847	9.9
536.045	9.93
536.243	9.95
536.441	10.1
536.638	10.11
536.836	10.2
537.034	10.15
537.232	10.15
537.43	10.28
537.627	10.44
537.825	10.49
538.023	10.48
538.22	10.61
538.418	10.6
538.616	10.6
538.813	10.68
539.011	10.74
539.209	10.82
539.406	10.91
539.604	11.1
539.801	11.11
539.999	11.16
540.196	11.24
540.394	11.33
540.591	11.41
540.789	11.47
540.986	11.48
541.184	11.5
541.381	11.54
541.579	11.57
541.776	11.53
541.974	11.48
542.171	11.55
542.368	11.62
542.566	11.56
542.763	11.61
542.96	11.62
543.158	11.69
543.355	11.73
543.552	11.84
543.75	11.9
543.947	11.83
544.144	11.88
544.341	11.97
544.539	11.98
544.736	12.11
544.933	12.18
545.13	12.3
545.327	12.37
545.524	12.39
545.722	12.49
545.919	12.58
546.116	12.77
546.313	12.96
546.51	13.11
546.707	13.15
546.904	13.16
547.101	13.25
547.298	13.34
547.495	13.36
547.692	13.41
547.889	13.37
548.086	13.44
548.283	13.55
548.48	13.56
548.677	13.32
548.874	13.42
549.07	13.67
549.267	13.65
549.464	13.55
549.661	13.64
549.858	13.92
550.055	14.03
550.251	13.94
550.448	13.9
550.645	14.04
550.842	14.28
551.038	14.33
551.235	14.03
551.432	14.07
551.628	14.24
551.825	14.44
552.022	14.4
552.218	14.43
552.415	14.65
552.612	14.67
552.808	14.52
553.005	14.54
553.201	14.72
553.398	15.04
553.594	15.16
553.791	15.35
553.987	15.25
554.184	15.29
554.38	15.32
554.577	15.34
554.773	15.38
554.97	15.75
555.166	16.03
555.362	16.02
555.559	15.97
555.755	16.09
555.952	16.15
556.148	16.3
556.344	16.36
556.541	16.42
556.737	16.6
556.933	16.98
557.129	16.9
557.326	16.8
557.522	16.83
557.718	16.96
557.914	16.98
558.11	17.04
558.307	17
558.503	17.13
558.699	17.18
558.895	17.06
559.091	16.97
559.287	16.98
559.483	17.08
559.679	17.23
559.876	17.35
560.072	17.56
560.268	17.55
560.464	17.56
560.66	17.75
560.856	17.95
561.052	18.07
561.247	18.24
561.443	18.42
561.639	18.42
561.835	18.5
562.031	18.42
562.227	18.43
562.423	18.54
562.619	18.86
562.815	18.82
563.01	19.01
563.206	18.94
563.402	18.9
563.598	18.93
563.793	19.12
563.989	19.2
564.185	19.49
564.381	19.71
564.576	19.82
564.772	19.78
564.968	19.99
565.163	19.89
565.359	19.95
565.555	20.07
565.75	20.19
565.946	20.25
566.141	20.21
566.337	20.29
566.532	20.41
566.728	20.5
566.923	20.66
567.119	20.55
567.314	20.6
567.51	20.92
567.705	20.99
567.901	21.03
568.096	21.14
568.292	21.4
568.487	21.44
568.682	21.33
568.878	21.33
569.073	21.46
569.268	21.68
569.464	21.91
569.659	21.87
569.854	21.97
570.05	22.15
570.245	22.12
570.44	22.14
570.635	22.29
570.831	22.29
571.026	22.57
571.221	22.74
571.416	22.75
571.611	22.77
571.806	22.9
572.002	23.06
572.197	23.07
572.392	23.25
572.587	23.35
572.782	23.39
572.977	23.66
573.172	23.63
573.367	23.46
573.562	23.56
573.757	23.54
573.952	23.71
574.147	23.9
574.342	24.14
574.537	24.34
574.732	24.44
574.927	24.49
575.121	24.54
575.316	24.53
575.511	24.65
575.706	24.66
575.901	24.84
576.096	24.81
576.29	24.6
576.485	24.43
576.68	24.42
576.875	24.41
577.069	24.47
577.264	24.4
577.459	24.59
577.654	24.77
577.848	24.93
578.043	25.11
578.238	25.11
578.432	25.12
578.627	25.3
578.821	25.16
579.016	25.15
579.21	25.39
579.405	25.51
579.6	25.74
579.794	25.82
579.989	25.85
580.183	25.69
580.378	25.66
580.572	25.95
580.766	25.91
580.961	26.17
581.155	26.37
581.35	26.21
581.544	26.21
581.738	26.16
581.933	26.2
582.127	26.51
582.321	26.78
582.516	26.88
582.71	27.15
582.904	27.21
583.099	26.99
583.293	27.03
583.487	27.16
583.681	27.26
583.875	27.21
584.07	27.21
584.264	26.85
584.458	26.84
584.652	26.83
584.846	26.57
585.04	26.76
585.234	26.93
585.428	27.06
585.623	27.06
585.817	27.2
586.011	27.18
586.205	27.43
586.399	27.78
586.593	27.8
586.787	28.08
586.981	28.15
587.174	28.06
587.368	28
587.562	27.83
587.756	27.82
587.95	27.96
588.144	27.92
588.338	27.93
588.532	27.68
588.725	27.97
588.919	28.1
589.113	28.14
589.307	28.4
589.501	28.43
589.694	28.55
589.888	28.72
590.082	28.67
590.275	29.02
590.469	29.11
590.663	29.02
590.856	28.94
591.05	29.06
591.244	29.03
591.437	29.12
591.631	29.34
591.824	29.53
592.018	29.56
592.212	29.73
592.405	29.53
592.599	29.4
592.792	29.85
592.986	29.73
593.179	29.52
593.372	29.87
593.566	29.82
593.759	29.88
593.953	29.91
594.146	29.7
594.339	29.79
594.533	29.93
594.726	30.19
594.92	30.13
595.113	30.36
595.306	30.61
595.499	30.49
595.693	30.53
595.886	30.75
596.079	30.93
596.272	31.06
596.466	31.02
596.659	31.22
596.852	31.1
597.045	31.09
597.238	30.91
597.431	30.82
597.624	30.74
597.818	30.84
598.011	30.72
598.204	30.67
598.397	30.94
598.59	30.8
598.783	30.64
598.976	30.58
599.169	30.72
599.362	30.82
599.555	31.2
599.748	31.46
599.941	31.3
600.134	31.29
600.326	31.34
600.519	31.24
600.712	31.62
600.905	31.52
601.098	31.97
601.291	32.08
601.483	32.18
601.676	32.07
601.869	32.07
602.062	32.42
602.255	32.44
602.447	32.43
602.64	32.32
602.833	32.3
603.025	32.29
603.218	32.16
603.411	32.25
603.603	32.27
603.796	32.18
603.989	32.43
604.181	32.24
604.374	32.5
604.566	32.51
604.759	32.52
604.951	32.59
605.144	32.87
605.336	32.74
605.529	32.72
605.721	32.92
605.914	32.93
606.106	32.81
606.299	32.83
606.491	32.68
606.683	32.7
606.876	32.84
607.068	32.77
607.26	32.75
607.453	33.09
607.645	33.11
607.837	32.95
608.03	33.09
608.222	33.15
608.414	33.34
608.606	33.32
608.799	33.35
608.991	33.37
609.183	33.46
609.375	33.43
609.567	33.27
609.759	33.24
609.952	33.1
610.144	33.07
610.336	33.08
610.528	32.94
610.72	33.03
610.912	33.19
611.104	33.21
611.296	33.15
611.488	33.14
611.68	33.33
611.872	33.23
612.064	33.69
612.256	33.7
612.448	33.68
612.64	33.83
612.832	33.77
613.023	33.54
613.215	33.53
613.407	33.79
613.599	34.14
613.791	33.85
613.983	34.14
614.174	33.94
614.366	33.94
614.558	33.98
614.75	33.81
614.941	33.83
615.133	34
615.325	34.09
615.516	34.09
615.708	33.58
615.9	33.54
616.091	33.46
616.283	33.76
616.475	33.77
616.666	33.69
616.858	34.03
617.049	34.08
617.241	34.26
617.432	34.47
617.624	34.43
617.815	34.74
618.007	34.67
618.198	34.78
618.39	34.52
618.581	34.65
618.773	34.92
618.964	34.79
619.155	35.05
619.347	35.04
619.538	34.89
619.729	34.79
619.921	34.97
620.112	35.31
620.303	35.5
620.494	35.65
620.686	35.68
620.877	35.77
621.068	35.81
621.259	35.74
621.451	35.63
621.642	35.62
621.833	35.29
622.024	35.33
622.215	35.35
622.406	35.12
622.597	35.26
622.788	35.43
622.98	35.25
623.171	35.44
623.362	35.47
623.553	35.85
623.744	36.02
623.935	36.51
624.126	36.36
624.317	36.29
624.508	36.53
624.698	36.38
624.889	36.21
625.08	36.46
625.271	36.57
625.462	36.63
625.653	36.34
625.844	36.29
626.034	36.13
626.225	36.12
626.416	36.27
626.607	36.08
626.798	36.16
626.988	36.36
627.179	36.1
627.37	35.9
627.56	35.91
627.751	36
627.942	35.99
628.132	35.95
628.323	36.05
628.514	36.12
628.704	36.16
628.895	36.17
629.085	35.95
629.276	36.1
629.466	36.22
629.657	36.31
629.847	36.16
630.038	36.34
630.228	36.57
630.419	36.76
630.609	36.74
630.8	36.83
630.99	36.63
631.181	36.79
631.371	36.78
631.561	36.94
631.752	37.05
631.942	37.38
632.132	37.44
632.323	37.39
632.513	37.25
632.703	37.35
632.893	37.27
633.084	37.37
633.274	37.4
633.464	37.31
633.654	37.19
633.844	37.08
634.034	36.86
634.225	36.79
634.415	36.62
634.605	36.76
634.795	36.64
634.985	36.66
635.175	36.57
635.365	36.73
635.555	37.03
635.745	37.08
635.935	37.06
636.125	37.03
636.315	37.22
636.505	37.57
636.695	37.19
636.885	37.34
637.075	37.41
637.265	37.67
637.455	37.15
637.644	37.26
637.834	37.44
638.024	37.34
638.214	37.78
638.404	37.59
638.593	37.56
638.783	37.9
638.973	38.21
639.163	38.23
639.352	38.27
639.542	38.83
639.732	38.76
639.921	38.67
640.111	39.01
640.301	38.63
640.49	38.61
640.68	38.78
640.87	38.92
641.059	38.37
641.249	38.47
641.438	38.4
641.628	38.07
641.817	37.85
642.007	37.62
642.196	37.4
642.386	37.57
642.575	37.82
642.764	37.69
642.954	37.38
643.143	37.96
643.333	38.36
643.522	38.74
643.711	38.81
643.901	38.81
644.09	39.17
644.279	39.41
644.469	39.13
644.658	39.23
644.847	39.3
645.036	39.32
645.226	39.04
645.415	38.64
645.604	38.48
645.793	38.49
645.982	38.64
646.171	38.55
646.361	38.69
646.55	39.21
646.739	38.91
646.928	39.08
647.117	39.29
647.306	39.24
647.495	39.53
647.684	39.38
647.873	39.84
648.062	40.2
648.251	40.18
648.44	39.88
648.629	39.77
648.818	40.01
649.007	39.75
649.196	39.83
649.384	40.22
649.573	40.03
649.762	40.05
649.951	39.74
650.14	39.57
650.328	39.51
650.517	39.9
650.706	39.83
650.895	40.01
651.083	40.07
651.272	40.13
651.461	39.92
651.65	40.33
651.838	40.81
652.027	41.1
652.216	40.95
652.404	41.26
652.593	41.02
652.781	41.3
652.97	41.21
653.158	41.35
653.347	41.38
653.535	41.5
653.724	41.04
653.912	40.68
654.101	40.44
654.289	40.45
654.478	40.81
654.666	40.9
654.855	40.57
655.043	40.41
655.231	40.09
655.42	39.98
655.608	40
655.796	40.1
655.985	40.31
656.173	40.56
656.361	40.44
656.55	40.07
656.738	39.99
656.926	40.42
657.114	40.77
657.302	41.15
657.491	41.14
657.679	40.97
657.867	41.2
658.055	41.08
658.243	40.89
658.431	41.08
658.619	41.3
658.807	41.46
658.996	41.55
659.184	41.22
659.372	41.24
659.56	41.49
659.748	41.26
659.936	41.03
660.124	41.01
660.311	41.14
660.499	41.14
660.687	41.09
660.875	40.97
661.063	40.82
661.251	41.13
661.439	40.93
661.627	40.86
661.814	41.29
662.002	41.55
662.19	41.85
662.378	41.89
662.565	42.12
662.753	41.99
662.941	42.05
663.129	42.06
663.316	42.2
663.504	42.06
663.692	42.3
663.879	42.33
664.067	42.06
664.254	41.82
664.442	41.65
664.63	41.78
664.817	41.87
665.005	42.12
665.192	42.11
665.38	41.91
665.567	42.27
665.755	42
665.942	42.15
666.13	42.52
666.317	42.64
666.504	42.54
666.692	42.52
666.879	42.89
667.067	42.55
667.254	42.51
667.441	42.3
667.629	42.11
667.816	42.19
668.003	41.93
668.19	41.93
668.378	41.63
668.565	41.8
668.752	41.65
668.939	41.2
669.127	41.49
669.314	41.64
669.501	41.65
669.688	41.68
669.875	41.82
670.062	42.22
670.249	41.99
670.436	42.34
670.623	42.38
670.81	42.39
670.997	42.58
671.184	42.49
671.371	42.64
671.558	42.95
671.745	43.23
671.932	42.82
672.119	42.52
672.306	42.31
672.493	42.33
672.68	42.67
672.867	42.68
673.054	42.65
673.24	42.39
673.427	42.48
673.614	42.45
673.801	42.36
673.988	42.98
674.174	43.05
674.361	43.7
674.548	43.56
674.734	43.3
674.921	43.26
675.108	43.56
675.294	43.25
675.481	43.26
675.668	43.35
675.854	43.21
676.041	42.83
676.227	42.88
676.414	42.82
676.601	43.33
676.787	43.63
676.974	43.71
677.16	43.32
677.347	43.46
677.533	43.33
677.719	43.12
677.906	43.14
678.092	43.73
678.279	43.55
678.465	43.43
678.651	43.32
678.838	43.29
679.024	43.34
679.21	43.49
679.397	44.01
679.583	43.66
679.769	43.64
679.955	43.88
680.142	43.6
680.328	44.01
680.514	44.08
680.7	43.82
680.886	44.15
681.073	44.09
681.259	44.17
681.445	44.25
681.631	44.71
681.817	44.82
682.003	44.58
682.189	44.56
682.375	44.18
682.561	44.08
682.747	44.71
682.933	44.4
683.119	44.54
683.305	44.4
683.491	44.34
683.677	43.96
683.863	44.17
684.049	44.3
684.235	44.35
684.42	44.33
684.606	44.27
684.792	43.7
684.978	43.65
685.164	43.88
685.349	44.09
685.535	44.37
685.721	44.5
685.907	44.52
686.092	44.66
686.278	44.4
686.464	44.54
686.649	44.64
686.835	44.75
687.021	44.8
687.206	44.47
687.392	44.14
687.577	43.87
687.763	43.73
687.948	43.43
688.134	43.42
688.319	43.92
688.505	44.23
688.69	44.49
688.876	44.21
689.061	44.34
689.247	44.49
689.432	44.85
689.618	44.81
689.803	45.14
689.988	45.27
690.174	45.03
690.359	45.09
690.544	44.84
690.73	44.87
690.915	45.13
691.1	44.89
691.285	44.8
691.471	44.97
691.656	45.15
691.841	45.22
692.026	45.81
692.211	46.26
692.396	46
692.582	46.27
692.767	46.37
692.952	46.26
693.137	46.26
693.322	46.84
693.507	46.78
693.692	46.93
693.877	47.15
694.062	46.46
694.247	46.39
694.432	46.71
694.617	46.88
694.802	46.89
694.987	47.13
695.172	47.68
695.357	47.42
695.541	47.49
695.726	47.44
695.911	47.52
696.096	47.47
696.281	47.79
696.466	47.15
696.65	46.92
696.835	47.19
697.02	47.41
697.204	46.8
697.389	46.57
697.574	46.29
697.759	46.13
697.943	45.75
698.128	45.99
698.312	45.7
698.497	45.18
698.682	45.25
698.866	45.11
699.051	45.07
699.235	45.19
699.42	45.46
699.604	45.4
699.789	45.2
699.973	45.55
700.158	46.09
700.342	46.03
700.527	46.8
700.711	46.89
700.895	46.57
701.08	46.77
701.264	47.06
701.448	46.81
701.633	46.96
701.817	46.84
702.001	46.63
702.186	45.93
702.37	46.5
702.554	46.62
702.738	46.68
702.923	46.69
703.107	46.48
703.291	46.12
703.475	46.34
703.659	46.5
703.843	47.16
704.027	47.11
704.212	47.1
704.396	46.67
704.58	46.39
704.764	46.54
704.948	46.57
705.132	45.77
705.316	46.1
705.5	45.78
705.684	45.93
705.868	46.21
706.052	46.11
706.235	45.74
706.419	45.7
706.603	45.76
706.787	45.49
706.971	45.66
707.155	46.14
707.339	46.21
707.522	46.18
707.706	46.17
707.89	46.19
708.074	46.31
708.257	46.91
708.441	47.25
708.625	48.04
708.808	48.3
708.992	48.17
709.176	48.27
709.359	48.16
709.543	48.43
709.727	48.41
709.91	47.77
710.094	47.98
710.277	48.01
710.461	47.55
710.644	47.05
710.828	46.63
711.011	46.77
711.195	46.61
711.378	46.18
711.562	46
711.745	46.04
711.928	46.15
712.112	45.98
712.295	46.09
712.478	46.64
712.662	47.33
712.845	47.21
713.028	47.38
713.212	47.33
713.395	47.53
713.578	47.98
713.761	47.24
713.945	47.02
714.128	46.94
714.311	46.76
714.494	46.62
714.677	46.26
714.86	46.26
715.043	46.66
715.227	47.07
715.41	47.43
715.593	46.89
715.776	47.43
715.959	48.34
716.142	48.37
716.325	48.09
716.508	47.83
716.691	47.67
716.874	48.28
717.057	47.79
717.239	48.12
717.422	48.56
717.605	48.4
717.788	48.69
717.971	48.17
718.154	48.32
718.337	48.52
718.519	49.08
718.702	49.42
718.885	49.11
719.068	49
719.25	48.3
719.433	47.98
719.616	48.73
719.798	48.63
719.981	49.86
720.164	49.67
720.346	49.76
720.529	49.38
720.712	49.08
720.894	48.73
721.077	48.51
721.259	48.68
721.442	48.95
721.624	48.97
721.807	48.77
721.989	46.84
722.172	47.03
722.354	47.05
722.537	47.29
722.719	46.15
722.901	46.63
723.084	47.23
723.266	47.18
723.448	47.18
723.631	47.41
723.813	46.75
723.995	47.55
724.178	47.64
724.36	48.03
724.542	47.8
724.724	49.17
724.907	49.46
725.089	49.66
725.271	49.97
725.453	49
725.635	48.88
725.817	50
725.999	49.57
726.181	49.26
726.364	48.92
726.546	49.27
726.728	48.95
726.91	48.47
727.092	48.54
727.274	47.94
727.456	48.38
727.638	48.5
727.819	47.76
728.001	48.04
728.183	48.38
728.365	48.03
728.547	47.91
728.729	48.01
728.911	48.22
729.093	48.23
729.274	48.29
729.456	48.23
729.638	48.66
729.82	48.75
730.001	48.41
730.183	48.41
730.365	48.99
730.546	49.19
730.728	48.83
730.91	48.66
731.091	48.26
731.273	48.11
731.455	47.75
731.636	47.05
731.818	47.53
731.999	48.28
732.181	47.85
732.362	47.53
732.544	47.78
732.725	48.65
732.907	48.74
733.088	49.12
733.27	49.89
733.451	49.94
733.633	50.36
733.814	49.74
733.995	49.15
734.177	49.41
734.358	49.43
734.539	49.28
734.721	48.59
734.902	48.72
735.083	47.87
735.264	47.64
735.446	48.02
735.627	47.71
735.808	48.17
735.989	49.03
736.17	49.49
736.351	48.91
736.533	48.43
736.714	47.23
736.895	47.3
737.076	48.05
737.257	48.68
737.438	48.35
737.619	48.87
737.8	49.43
737.981	49.11
738.162	48.47
738.343	49.68
738.524	48.85
738.705	49.5
738.886	49.51
739.067	49.58
739.247	48.98
739.428	49.61
739.609	48.8
739.79	48.72
739.971	48.4
740.151	48.65
740.332	48.82
740.513	48.72
740.694	49.32
740.874	48.81
741.055	48.75
741.236	47.66
741.417	47.36
741.597	47.28
741.778	46.71
741.958	46.27
742.139	46.85
742.32	47.13
742.5	48.18
742.681	48.76
742.861	48.71
743.042	48.27
743.222	49.75
743.403	49.88
743.583	49.32
743.764	49.5
743.944	49.76
744.124	49.07
744.305	48.05
744.485	47.82
744.666	46.34
744.846	46.69
745.026	46.72
745.207	46.41
745.387	45.89
745.567	47.87
745.747	47.93
745.928	48.27
746.108	48.63
746.288	47.29
746.468	47.1
746.648	47.54
746.829	46.8
747.009	47.14
747.189	47.81
747.369	48.91
747.549	47.42
747.729	47.77
747.909	47.6
748.089	47.47
748.269	48.47
748.449	48.95
748.629	49.59
748.809	50.89
748.989	51.56
749.169	50.91
749.349	50.64
749.529	51.11
749.709	50.89
749.889	51.54
750.068	51.24
750.248	52.13
750.428	51.68
750.608	51.32
750.788	50.7
750.967	49.74
751.147	49.26
751.327	49.55
751.507	49.15
751.686	48.9
751.866	48.56
752.046	48.7
752.225	47.99
752.405	48.9
752.585	49.44
752.764	48.82
752.944	49.08
753.123	49.71
753.303	49.11
753.482	49.41
753.662	49.48
753.841	49.75
754.021	50.99
754.2	51.2
754.38	50.95
754.559	49.83
754.739	49.6
754.918	49.82
755.097	49.49
755.277	49.85
755.456	50.02
755.635	50.69
755.815	50.31
755.994	49.31
756.173	49.17
756.352	48.14
756.532	48.13
756.711	48.42
756.89	46.8
757.069	47.15
757.248	46.67
757.427	45.35
757.607	45.05
757.786	45.59
757.965	44.95
758.144	45.44
758.323	46.75
758.502	47.04
758.681	47.41
758.86	48.7
759.039	48.2
759.218	48.42
759.397	50.34
759.576	50.01
759.755	49.42
759.934	49.64
760.113	49.48
760.291	49.23
760.47	49.96
760.649	49.88
760.828	50.45
761.007	51.24
761.186	51.2
761.364	50.96
761.543	51.38
761.722	50.92
761.901	50.79
762.079	49.79
762.258	50.36
762.437	50.62
762.615	51.05
762.794	51.23
762.972	50.09
763.151	50.05
763.33	49.31
763.508	48.82
763.687	49.06
763.865	49.29
764.044	49.51
764.222	49.1
764.401	49.15
764.579	48.57
764.758	48.04
764.936	48.7
765.114	48.72
765.293	49.08
765.471	49.49
765.65	49.24
765.828	49.49
766.006	50.31
766.184	50.37
766.363	49.93
766.541	49.98
766.719	50.65
766.898	50.49
767.076	49.6
767.254	49.91
767.432	50.09
767.61	50.95
767.788	50.53
767.967	50.95
768.145	50.94
768.323	50.59
768.501	50.65
768.679	49.61
768.857	50.26
769.035	51.39
769.213	51.07
769.391	50.16
769.569	49.79
769.747	49.72
769.925	48.97
770.103	46.8
770.281	47.18
770.459	48.55
770.636	47.52
770.814	46.15
770.992	45.89
771.17	45.56
771.348	46.27
771.525	46.86
771.703	46.57
771.881	46.75
772.059	49.13
772.236	48.67
772.414	46.75
772.592	48.08
772.769	49.13
772.947	49.3
773.125	49.39
773.302	49.7
773.48	49.1
773.657	49.84
773.835	49.31
774.013	49.23
774.19	49.51
774.368	48.88
774.545	49.72
774.723	49.17
774.9	49.07
775.077	49.89
775.255	49.71
775.432	49.44
775.61	50.49
775.787	49.65
775.964	49.04
776.142	49.93
776.319	51.77
776.496	50.55
776.674	50.64
776.851	50.35
777.028	49.06
777.205	49.13
777.382	48.99
777.56	47.42
777.737	48.73
777.914	47.88
778.091	47.22
778.268	48.1
778.445	48.91
778.622	49.6
778.8	50.87
778.977	51.61
779.154	51.32
779.331	51.47
779.508	51.44
779.685	50.04
779.862	50.58
780.038	51.51
780.215	50.18
780.392	48.91
780.569	47.99
780.746	48.15
780.923	47.17
781.1	47.06
781.277	46.4
781.453	47.62
781.63	47.74
781.807	49.8
781.984	49.07
782.16	49.04
782.337	49.26
782.514	49.4
782.691	49.47
782.867	50.22
783.044	49.98
783.221	51.02
783.397	51.33
783.574	51.95
783.75	51.14
783.927	51.17
784.103	52.01
784.28	53.91
784.456	54.81
784.633	53.94
784.809	54.37
784.986	53.37
785.162	53.11
785.339	51.28
785.515	50.46
785.692	47.87
785.868	46.33
786.044	47.77
786.221	47.3
786.397	46.55
786.573	47.68
786.749	46.43
786.926	49.54
787.102	49.62
787.278	52.29
787.454	52.71
787.631	55.55
787.807	55.69
787.983	53.34
788.159	50.33
788.335	49.95
788.511	48.63
788.687	50.49
788.863	49.29
789.039	47.73
789.216	45.44
789.392	46.11
789.568	44.6
789.744	46.04
789.919	45.28
790.095	48.42
790.271	50.22
790.447	49.76
790.623	49.46
790.799	49.31
790.975	50.75
791.151	51.51
791.327	52.13
791.502	51.28
791.678	49.49
791.854	51.33
792.03	51.39
792.205	52.42
792.381	52.69
792.557	52.07
792.733	51.54
792.908	50.06
793.084	48.85
793.259	47.4
793.435	47.98
793.611	49.84
793.786	48.8
793.962	47.37
794.137	44.07
794.313	44.43
794.488	43.44
794.664	42.87
794.839	43.32
795.015	44.18
795.19	45.26
795.366	44.25
795.541	43.74
795.716	43.54
795.892	44.85
796.067	45.88
796.242	45.47
796.418	47.19
796.593	47.47
796.768	47.16
796.944	47.19
797.119	44.63
797.294	46.77
797.469	46.59
797.644	46.88
797.82	46.66
797.995	46.14
798.17	45.35
798.345	44.64
798.52	44.79
798.695	47.45
798.87	47.83
799.045	50.47
799.22	52.73
799.395	53.34
799.57	54.03
799.745	53.84
799.92	53.89
800.095	56.19
800.27	56.5
800.445	56.6
800.62	54.2
800.795	55.3
800.97	54.61
801.145	51
801.319	51.52
801.494	51.98
801.669	49.97
801.844	50.77
802.018	49.51
802.193	48.66
802.368	47.9
802.543	48.32
802.717	46.97
802.892	50.1
803.067	51.2
803.241	50.57
803.416	49.53
803.59	50.2
803.765	51.29
803.94	51.4
804.114	51.5
804.289	53.85
804.463	53.52
804.638	52.05
804.812	49.52
804.986	48.02
805.161	47.33
805.335	46.94
805.51	48.21
805.684	46.09
805.858	47.05
806.033	45.69
806.207	45.53
806.381	47.22
806.556	48.33
806.73	48.01
806.904	48.38
807.078	47.12
807.253	48.11
807.427	46.57
807.601	47.16
807.775	47.32
807.949	49.09
808.123	49.23
808.298	48.85
808.472	49.73
808.646	48.53
808.82	48.75
808.994	49.8
809.168	51.24
809.342	52.67
809.516	52.67
809.69	51.58
809.864	51.55
810.038	50.76
810.212	50.27
810.385	48.36
810.559	48.13
810.733	49.03
810.907	50.14
811.081	49
811.255	49.16
811.428	47.94
811.602	48.6
811.776	48.75
811.95	48.84
812.123	49.25
812.297	49.66
812.471	50.13
812.644	48.5
812.818	48.32
812.992	46.72
813.165	48.38
813.339	47.39
813.512	46.63
813.686	46.81
813.86	49.29
814.033	47
814.207	47.38
814.38	48.09
814.554	49.45
814.727	48.75
814.9	49.14
815.074	46.18
815.247	48.94
815.421	50.92
815.594	51.19
815.767	46.27
815.941	48.89
816.114	53.49
816.287	51.43
816.46	49.36
816.634	49.16
816.807	52.57
816.98	53.47
817.153	52.88
817.327	50.32
817.5	50.38
817.673	52.04
817.846	51.09
818.019	47.88
818.192	49.35
818.365	48.55
818.538	49.69
818.711	47.04
818.884	48.85
819.057	49.91
819.23	52.31
819.403	51.81
819.576	51.02
819.749	50.19
819.922	49.77
820.095	49.79
820.268	51.57
820.441	51.82
820.614	50.6
820.786	49.23
820.959	49.2
821.132	48.17
821.305	47.03
821.477	47.84
821.65	49.47
821.823	50.48
821.996	50.22
822.168	49.65
822.341	49.44
822.514	49.87
822.686	50.18
822.859	50.33
823.031	50.44
823.204	50.81
823.376	50.54
823.549	50.36
823.722	49.56
823.894	49.97
824.067	50.05
824.239	50.63
824.411	50.5
824.584	50.55
824.756	50.81
824.929	50.78
825.101	50.96
825.273	51.7
825.446	51.86
825.618	51.91
825.79	51.49
825.963	52.32
826.135	51.64
826.307	51.8
826.479	51.59
826.652	50.35
826.824	50.07
826.996	49.63
827.168	48.85
827.34	47.91
827.512	48.23
827.684	47.92
827.856	47.18
828.029	47.46
828.201	47.86
828.373	47.72
828.545	48.21
828.717	48.9
828.889	48.86
829.061	50
829.232	52.05
829.404	52.7
829.576	54.03
829.748	54.5
829.92	54.85
830.092	55.15
830.264	54.48
830.436	56.53
830.607	56.44
830.779	57.85
830.951	57.56
831.123	54.7
831.294	53.56
831.466	52.77
831.638	52.05
831.809	50.93
831.981	50.77
832.153	53.43
832.324	50.4
832.496	49.69
832.667	50.07
832.839	50.3
833.011	50.95
833.182	50.99
833.354	51.33
833.525	54.13
833.697	55.29
833.868	53.32
834.039	52.79
834.211	52.8
834.382	51.56
834.554	51.95
834.725	51.45
834.896	51.73
835.068	51.42
835.239	50.17
835.41	48.47
835.581	46.78
835.753	48.97
835.924	46.6
836.095	47.81
836.266	48.3
836.438	48.07
836.609	47.15
836.78	46.6
836.951	48.78
837.122	49.01
837.293	49.94
837.464	50.27
837.635	47.39
837.806	50.9
837.977	50.51
838.148	51.23
838.319	50.06
838.49	48.47
838.661	51.23
838.832	46.1
839.003	45.04
839.174	42.56
839.345	42.22
839.516	45.54
839.687	45
839.857	43.94
840.028	45.13
840.199	44.8
840.37	47.82
840.54	46.12
840.711	49.44
840.882	53.25
841.053	57.35
841.223	59.48
841.394	58.51
841.564	58.58
841.735	59.46
841.906	57.22
842.076	51.89
842.247	51.42
842.417	52.56
842.588	55.07
842.758	54.52
842.929	50.58
843.099	53.26
843.27	53.02
843.44	50.4
843.611	47.43
843.781	46.62
843.951	55.59
844.122	56.41
844.292	57.54
844.462	55.96
844.633	54.36
844.803	58.36
844.973	51.23
845.144	50.13
845.314	54.86
845.484	57.07
845.654	62.13
845.824	58.14
845.995	59.78
846.165	53.31
846.335	52.89
846.505	50.26
846.675	45.81
846.845	54
847.015	56.53
847.185	50.05
847.355	49.68
847.525	47.67
847.695	49.2
847.865	41.98
848.035	32.27
848.205	38.77
848.375	42.81
848.545	36.13
848.715	32.17
848.884	29.54
849.054	31.63
849.224	35.24
849.394	41.38
849.564	43.41
849.733	44.91
849.903	49.78
850.073	46.69
850.243	46.08
850.412	49.95
850.582	47.08
850.752	47.34
850.921	44.62
851.091	42.82
851.26	36.11
851.43	34.44
851.599	36.53
851.769	46.17
851.939	45.15
852.108	52.94
852.278	60.56
852.447	55.95
852.616	63.91
852.786	71.78
852.955	75.22
853.125	82.61
853.294	90.18
853.463	93.96
853.633	85.8
853.802	84.59
853.971	87.87
854.141	84.06
854.31	79.63
854.479	68.28
854.648	61.27
854.818	55.44
854.987	46.6
855.156	35.72
855.325	39.26
855.494	39.26
855.663	45.59
855.832	33.57
856.001	36.45
856.171	52.31
856.34	57.26
856.509	54.45
856.678	49.9
856.847	52.85
857.016	58.35
857.185	48.15
857.353	54.86
857.522	57.47
857.691	59.32
857.86	53.45
858.029	39.57
858.198	43.13
858.367	51.5
858.535	62.83
858.704	62.57
858.873	58.15
859.042	60.84
859.21	60.51
859.379	49.74
859.548	45.11
859.717	41.41
859.885	41.95
860.054	36.85
860.222	27.3
860.391	19.05
860.56	18.09
860.728	16.86
860.897	2.8
861.065	-2.28
861.234	13.79
861.402	17.89
861.571	34.86
861.739	40.11
861.908	44.17
862.076	54.91
862.244	57.54
862.413	62.86
862.581	70.73
862.749	68.95
862.918	71.9
863.086	59.88
863.254	55.64
863.423	45.35
863.591	46.68
863.759	47.35
863.927	43.4
864.096	46.27
864.264	49.58
864.432	40.75
864.6	51.36
864.768	41.37
864.936	44.29
865.104	43.13
865.272	53.09
865.44	46.92
865.608	49.96
865.776	51.6
865.944	52.42
866.112	52.04
866.28	54.97
866.448	57.57
866.616	58.65
866.784	64.6
866.952	69.13
867.12	61.58
867.288	62.65
867.455	50.16
867.623	47.63
867.791	45.5
867.959	41.49
868.127	42.88
868.294	45.22
868.462	46.59
868.63	39.71
868.797	34.68
868.965	33.95
869.133	35.83
869.3	49.84
869.468	53.53
869.636	41.16
869.803	48.7
869.971	55.46
870.138	40.73
870.306	48.32
870.473	46.73
870.641	53.74
870.808	52.27
870.975	49.32
871.143	47.66
871.31	45.99
871.478	66.76
871.645	53.57
871.812	53.36
871.98	65.03
872.147	68.48
872.314	76.81
872.482	78.38
872.649	85.3
872.816	85.71
872.983	76.1
873.15	75.46
873.318	69.37
873.485	77.47
873.652	78.01
873.819	83.73
873.986	72.01
874.153	61.74
874.32	51.26
874.487	40.7
874.654	53.27
874.821	56.61
874.988	54.87
875.155	49.95
875.322	44.8
875.489	31.9
875.656	22.09
875.823	26.31
875.99	23.04
876.157	16.26
876.324	32.65
876.49	28.76
876.657	32.65
876.824	31.25
876.991	38.96
877.157	42.44
877.324	51.4
877.491	40.52
877.658	50.97
877.824	46.9
877.991	46.37
878.157	44.16
878.324	39
878.491	43.58
878.657	53
878.824	50.1
878.99	51.27
879.157	48.28
879.323	52.57
879.49	51.33
879.656	58.13
879.823	66.31
879.989	64.34
880.156	65.4
880.322	61.98
880.488	57.93
880.655	60.14
880.821	60.47
880.987	57.54
881.154	57.38
881.32	57.61
881.486	57.2
881.652	55.03
881.819	54.72
881.985	52.6
882.151	51.18
882.317	52.91
882.483	50.71
882.649	51.08
882.816	51.24
882.982	52.65
883.148	52.07
883.314	52.2
883.48	52.76
883.646	52.43
883.812	51.73
883.978	50.54
884.144	49.39
884.31	47.95
884.476	49.78
884.642	50.48
884.807	50.7
884.973	50.44
885.139	49.51
885.305	49.54
885.471	49.42
885.637	49.92
885.802	50.76
885.968	50.79
886.134	52.68
886.3	48.94
886.465	45.53
886.631	44.95
886.797	45.27
886.962	46.81
887.128	44.58
887.293	42.11
887.459	46.02
887.625	44.56
887.79	45.65
887.956	39.69
888.121	41.37
888.287	46.02
888.452	41.77
888.618	38.04
888.783	30.68
