Data from LC_161_Reflection_1.txt Node
Date: Mon Nov 16 22:38:02 EST 2015
User: robert
Spectrometer: USB4E03001
Autoset integration time: false
Trigger mode: 4
Integration Time (sec): 1.000000E-1
Scans to average: 15
Electric dark correction enabled: true
Nonlinearity correction enabled: false
Boxcar width: 5
Stray light correction enabled: false
XAxis mode: Wavelengths
Stop averaging: false
Number of Pixels in Spectrum: 3648
>>>>>Begin Spectral Data<<<<<
177.566	1866.27
177.785	136.46
178.005	-442.86
178.225	21.55
178.445	-90.71
178.665	705.14
178.885	645.94
179.105	239.25
179.324	-70.56
179.544	-0.88
179.764	-385.21
179.984	-94.07
180.204	14.96
180.423	2.98
180.643	-23.23
180.863	-12.73
181.083	-16.76
181.302	-87.33
181.522	-119.54
181.742	-120.53
181.961	-243.93
182.181	-193.99
182.401	-208.66
182.621	-1266.99
182.84	-545.57
183.06	-383.9
183.279	-247.75
183.499	-207.11
183.719	-142.31
183.938	-130.13
184.158	-153.9
184.377	-90.39
184.597	-206.18
184.816	-140
185.036	-104.09
185.256	-81.43
185.475	-98.63
185.695	-102.76
185.914	-146.87
186.134	-300.77
186.353	-385.88
186.572	-429.92
186.792	-655.63
187.011	-163.97
187.231	-142.32
187.45	-87.13
187.67	-244.42
187.889	-920.38
188.108	2197.89
188.328	-438.95
188.547	-132.51
188.766	-265.34
188.986	-417.8
189.205	-281.74
189.424	-178.03
189.644	-679.35
189.863	-787.52
190.082	-535.55
190.302	-1042.95
190.521	-599.1
190.74	654.46
190.959	334.76
191.178	547.18
191.398	488.01
191.617	436.52
191.836	388.62
192.055	922.58
192.274	377.2
192.494	424.13
192.713	424.27
192.932	815.07
193.151	593.37
193.37	1003.08
193.589	-454.1
193.808	-107.24
194.027	-148.08
194.246	-1864.25
194.465	321.12
194.685	980.09
194.904	465.91
195.123	-619.64
195.342	-371.4
195.561	-216.12
195.78	-287.71
195.999	10626.76
196.218	350.18
196.436	290.08
196.655	-618.31
196.874	-247.41
197.093	-258.53
197.312	-109.46
197.531	443.35
197.75	226.34
197.969	-554.37
198.188	-175.31
198.407	-53.42
198.625	-93.37
198.844	-89.17
199.063	-107.38
199.282	-222.66
199.501	-139.9
199.719	-133.73
199.938	-78.96
200.157	-62.64
200.376	-71.47
200.594	-99.56
200.813	-296.27
201.032	-196.29
201.251	-204.32
201.469	-214.1
201.688	-182.74
201.907	-344.73
202.125	-489.76
202.344	18809.52
202.563	3781.87
202.781	597.71
203	1783.71
203.218	1357.76
203.437	1066.5
203.656	515.52
203.874	303.41
204.093	256.42
204.311	305.09
204.53	266.93
204.748	385.83
204.967	249.27
205.185	202.92
205.404	239.04
205.622	132.78
205.841	123.18
206.059	95.7
206.278	5.28
206.496	70.76
206.715	60.84
206.933	57.64
207.151	57.72
207.37	58.39
207.588	113.2
207.806	99.49
208.025	108.46
208.243	-128.17
208.461	686.7
208.68	-9534.12
208.898	434.1
209.116	413.26
209.335	412.22
209.553	392.37
209.771	3967.08
209.989	839.68
210.208	1955.89
210.426	-4065.87
210.644	2043.38
210.862	-1550.08
211.081	773.81
211.299	-303.95
211.517	1331.52
211.735	-360.9
211.953	-154028.57
212.171	-2346.99
212.39	-6820.72
212.608	-17165.22
212.826	732.39
213.044	538.73
213.262	412.24
213.48	2474.89
213.698	263.05
213.916	376.59
214.134	229.33
214.352	463.98
214.57	363.8
214.788	426.81
215.006	352.09
215.224	267.96
215.442	225.91
215.66	195.55
215.878	145.19
216.096	155.11
216.314	187.2
216.532	397.99
216.75	325.69
216.968	255.83
217.185	676.09
217.403	1266.87
217.621	-3507.8
217.839	-955.88
218.057	-1286.22
218.275	2495.73
218.492	771.49
218.71	1071.17
218.928	328.72
219.146	316.69
219.363	274
219.581	183.53
219.799	143.32
220.017	151.4
220.234	154.42
220.452	152.49
220.67	152.96
220.887	154.22
221.105	171.28
221.323	102.49
221.54	92.47
221.758	96.83
221.976	130.28
222.193	97.18
222.411	66.68
222.629	77.22
222.846	95.07
223.064	100.9
223.281	101.21
223.499	96.28
223.716	106.75
223.934	84.73
224.151	92.05
224.369	61.96
224.586	65.73
224.804	63.57
225.021	59.56
225.239	52.53
225.456	60.84
225.674	62.94
225.891	45.68
226.108	65.16
226.326	79.78
226.543	69.04
226.76	77.01
226.978	67.23
227.195	71.66
227.413	66.43
227.63	58.82
227.847	48.33
228.064	45.62
228.282	42.09
228.499	34.21
228.716	27.47
228.934	23.74
229.151	24.11
229.368	22.27
229.585	18.77
229.802	19.71
230.02	17.36
230.237	19.38
230.454	16.62
230.671	17.85
230.888	19.95
231.105	21.54
231.323	21.18
231.54	21.11
231.757	23.17
231.974	23.35
232.191	14.16
232.408	20.42
232.625	14.65
232.842	14.77
233.059	23.29
233.276	21.7
233.493	20.47
233.71	25.05
233.927	23.26
234.144	23.91
234.361	23.6
234.578	30.7
234.795	28.79
235.012	34.97
235.229	35.2
235.446	30.49
235.663	25.5
235.879	26.16
236.096	20.92
236.313	22.08
236.53	21.58
236.747	25.39
236.964	21.51
237.181	22.63
237.397	17.84
237.614	20.71
237.831	15.17
238.048	22.3
238.264	24.96
238.481	26.44
238.698	28.25
238.915	26.83
239.131	24.34
239.348	29.38
239.565	29.1
239.781	32.9
239.998	29.97
240.215	31.47
240.431	30.04
240.648	25.53
240.865	26.03
241.081	24.72
241.298	24.24
241.514	24.76
241.731	22.04
241.947	20.98
242.164	18.83
242.38	17.95
242.597	17.78
242.814	17.21
243.03	17.3
243.246	17.26
243.463	17.72
243.679	18.78
243.896	16.62
244.112	16.71
244.329	16.84
244.545	16.7
244.762	17.18
244.978	17.98
245.194	18.32
245.411	19.95
245.627	18.62
245.843	16.8
246.06	15.18
246.276	17.02
246.492	16.31
246.709	15.66
246.925	15.16
247.141	14.43
247.357	13.87
247.574	14.18
247.79	13.59
248.006	13.22
248.222	13.18
248.439	12.87
248.655	12.74
248.871	12.68
249.087	12.81
249.303	11.86
249.519	12.43
249.736	12.82
249.952	10.42
250.168	11.47
250.384	11.31
250.6	11.42
250.816	10.86
251.032	8.74
251.248	9.24
251.464	8.42
251.68	11.11
251.896	12.31
252.112	11.88
252.328	14.12
252.544	13.89
252.76	14.3
252.976	13.27
253.192	14.1
253.408	14.68
253.624	16.02
253.84	18.65
254.056	18.46
254.272	15.29
254.487	15.23
254.703	14.29
254.919	12.83
255.135	12.83
255.351	15.69
255.567	17.99
255.782	20.18
255.998	19.17
256.214	16.3
256.43	14.53
256.646	19.65
256.861	19.63
257.077	19.53
257.293	19.36
257.508	17.79
257.724	17.01
257.94	15.51
258.155	14.15
258.371	13.6
258.587	13.82
258.802	14.5
259.018	14.6
259.234	13.84
259.449	13.8
259.665	13.14
259.88	14.15
260.096	13.72
260.312	12.95
260.527	12.64
260.743	13.22
260.958	13.04
261.174	12.61
261.389	12.42
261.605	13.2
261.82	13.63
262.036	13.97
262.251	14.03
262.466	14.67
262.682	16.4
262.897	16.71
263.113	15.52
263.328	15.07
263.543	15.42
263.759	15.23
263.974	15.26
264.189	13.59
264.405	12.82
264.62	10.86
264.835	11.2
265.051	10.33
265.266	12.75
265.481	14.06
265.696	15.76
265.912	14.79
266.127	13.72
266.342	12.31
266.557	13.42
266.773	14.13
266.988	14.55
267.203	14.34
267.418	12.96
267.633	11.11
267.848	10.91
268.064	9.66
268.279	10.37
268.494	9.12
268.709	10.1
268.924	9.52
269.139	10.36
269.354	10.12
269.569	9.78
269.784	10.63
269.999	12.49
270.214	13.11
270.429	14.74
270.644	14.59
270.859	13.78
271.074	12.31
271.289	12.02
271.504	11.44
271.719	12.25
271.934	11.79
272.149	12.41
272.363	11.5
272.578	10.28
272.793	8.74
273.008	8.67
273.223	9.5
273.438	9.77
273.653	10.23
273.867	9.51
274.082	8.12
274.297	7.54
274.512	7.99
274.726	6.88
274.941	7.29
275.156	8.87
275.371	9.9
275.585	10.47
275.8	11.86
276.015	11.9
276.229	12.17
276.444	13.94
276.659	14.16
276.873	12.24
277.088	13.89
277.302	14.26
277.517	14.79
277.732	15.79
277.946	16.43
278.161	16.59
278.375	17.11
278.59	16.54
278.804	15.08
279.019	15.63
279.233	16.32
279.448	15.56
279.662	14.61
279.877	13.78
280.091	11.81
280.306	9.88
280.52	10.47
280.735	8.92
280.949	10.05
281.163	10.1
281.378	9.13
281.592	8.78
281.806	9.03
282.021	8.64
282.235	9.32
282.449	9.67
282.664	11.4
282.878	10.25
283.092	10.97
283.307	10.19
283.521	11.41
283.735	11.43
283.949	12.24
284.164	11.26
284.378	12.43
284.592	11.21
284.806	11.23
285.02	10.17
285.234	9.91
285.449	9.94
285.663	10.28
285.877	9.16
286.091	9.68
286.305	8.91
286.519	8.55
286.733	7.69
286.947	7.72
287.161	7.28
287.375	8.09
287.589	8.93
287.803	9
288.017	9.15
288.231	8.56
288.445	7.89
288.659	8.34
288.873	8.85
289.087	9.3
289.301	9.29
289.515	9.68
289.729	8.8
289.943	8.18
290.157	8.11
290.371	9.49
290.584	10.17
290.798	11.35
291.012	12.42
291.226	12.75
291.44	12.97
291.654	13.51
291.867	13.15
292.081	13.28
292.295	13.88
292.509	13.79
292.722	13
292.936	14.4
293.15	15.47
293.364	14.79
293.577	13.61
293.791	12.9
294.005	12.21
294.218	12.72
294.432	13.18
294.645	13.32
294.859	12.28
295.073	11.4
295.286	10.67
295.5	8.46
295.713	7.96
295.927	8.84
296.14	9.61
296.354	9.29
296.568	9.31
296.781	9.09
296.994	8.95
297.208	9.38
297.421	9.95
297.635	8.99
297.848	9.57
298.062	9.91
298.275	10.27
298.489	10.26
298.702	10.87
298.915	11.07
299.129	11.87
299.342	11.11
299.555	12.18
299.769	12.44
299.982	13.42
300.195	13.6
300.409	13.96
300.622	13.61
300.835	13.99
301.048	13.12
301.262	12.34
301.475	11.23
301.688	13.51
301.901	12.78
302.115	12.79
302.328	13.58
302.541	13.48
302.754	13.84
302.967	14.27
303.18	13.29
303.393	14.21
303.607	14.99
303.82	15.81
304.033	14.12
304.246	14.38
304.459	13.7
304.672	13.06
304.885	13.49
305.098	12.17
305.311	12.01
305.524	12.32
305.737	12.14
305.95	11.98
306.163	10.57
306.376	9.75
306.589	9.39
306.802	8.74
307.015	9.51
307.228	10.36
307.44	10.88
307.653	10.97
307.866	10.91
308.079	12.12
308.292	11.89
308.505	12.87
308.718	13.86
308.93	13.48
309.143	15.04
309.356	14.86
309.569	13.43
309.781	14.56
309.994	14.59
310.207	14.78
310.42	13.37
310.632	12.54
310.845	12.76
311.058	11.93
311.27	13.09
311.483	12.33
311.696	10.99
311.908	11.88
312.121	10.92
312.333	11.46
312.546	11.41
312.759	12.4
312.971	13.2
313.184	12.33
313.396	11.94
313.609	11.34
313.821	10.72
314.034	11.63
314.246	11.22
314.459	11.42
314.671	9.67
314.884	8.48
315.096	6.77
315.309	6.66
315.521	8.25
315.733	8.52
315.946	7.4
316.158	8.05
316.371	8.4
316.583	7.48
316.795	6.63
317.008	8.2
317.22	9.49
317.432	10.1
317.644	9.86
317.857	7.77
318.069	8.46
318.281	8.65
318.494	7.79
318.706	8.33
318.918	8.37
319.13	10.07
319.342	10.37
319.555	10.17
319.767	11.59
319.979	12.11
320.191	13.42
320.403	14.04
320.615	14.53
320.827	16.38
321.039	14.85
321.252	15.35
321.464	13.58
321.676	11.79
321.888	11.38
322.1	11.64
322.312	9.48
322.524	8.39
322.736	7.43
322.948	6.88
323.16	5.87
323.372	7.46
323.584	6.78
323.796	6.6
324.007	7.65
324.219	7.84
324.431	6.79
324.643	8.4
324.855	9.14
325.067	9.44
325.279	9.95
325.491	10.29
325.702	8.9
325.914	9.15
326.126	10.11
326.338	11.51
326.55	11.7
326.761	11.98
326.973	11.93
327.185	12.07
327.396	12.55
327.608	12.54
327.82	12.03
328.032	12.83
328.243	12.27
328.455	12.48
328.666	10.52
328.878	10.26
329.09	9.4
329.301	8.98
329.513	8.52
329.725	8.39
329.936	8.23
330.148	8.95
330.359	8.35
330.571	9.08
330.782	8.26
330.994	8.95
331.205	9.51
331.417	9.68
331.628	10.24
331.84	10.62
332.051	9.89
332.262	10.69
332.474	8.87
332.685	10.15
332.897	10.32
333.108	11.38
333.319	10.51
333.531	10.36
333.742	11.5
333.953	10.98
334.165	11.12
334.376	11.68
334.587	11.36
334.799	12.62
335.01	11.51
335.221	11.41
335.432	10.58
335.644	10.76
335.855	11.01
336.066	11.13
336.277	10.96
336.488	10.81
336.7	10.25
336.911	10.1
337.122	10.07
337.333	10.81
337.544	11.81
337.755	12.46
337.966	11.75
338.177	11.26
338.388	10.89
338.599	11.88
338.811	11.68
339.022	11.48
339.233	10.89
339.444	10.69
339.655	9.87
339.866	9.26
340.076	9.59
340.287	11.18
340.498	11.54
340.709	11.58
340.92	10.17
341.131	10.84
341.342	11.19
341.553	12.44
341.764	12.66
341.975	13.19
342.185	12.34
342.396	11.84
342.607	11.28
342.818	10.97
343.029	10.75
343.239	11.18
343.45	10.94
343.661	10.78
343.872	9.45
344.082	9.05
344.293	8.88
344.504	9.53
344.714	7.6
344.925	7.4
345.136	6.98
345.346	5.88
345.557	6.36
345.768	6.18
345.978	6.06
346.189	6.65
346.399	7
346.61	7.65
346.821	7.12
347.031	8.87
347.242	8.62
347.452	8.52
347.663	9.08
347.873	9.13
348.084	8.95
348.294	9.06
348.504	9.01
348.715	8.94
348.925	7.76
349.136	7.99
349.346	7.2
349.557	8.02
349.767	8.65
349.977	8.77
350.188	9.35
350.398	10.31
350.608	9.98
350.819	10.31
351.029	9.76
351.239	10.54
351.449	10.67
351.66	11.78
351.87	11.57
352.08	10.76
352.29	10.72
352.501	9.68
352.711	8.97
352.921	9.7
353.131	9.1
353.341	8.99
353.552	8.49
353.762	8.24
353.972	7.11
354.182	7.02
354.392	7.07
354.602	7.14
354.812	7.42
355.022	6.94
355.232	6.43
355.442	6.55
355.652	7.2
355.862	7.22
356.072	8.06
356.282	8.16
356.492	8.25
356.702	8.65
356.912	8.65
357.122	8.72
357.332	9.07
357.542	8.95
357.752	8.08
357.962	8.03
358.171	7.82
358.381	7.71
358.591	8.16
358.801	8.19
359.011	8.34
359.221	8.37
359.43	8.34
359.64	8.53
359.85	8.84
360.06	9.52
360.269	9.66
360.479	10.07
360.689	9.61
360.899	9.12
361.108	9.34
361.318	9.08
361.528	8.56
361.737	7.71
361.947	7.19
362.156	7.06
362.366	6.96
362.576	6.68
362.785	6.39
362.995	6.22
363.204	6.42
363.414	5.91
363.623	5.89
363.833	6.49
364.042	7.41
364.252	7.86
364.461	7.9
364.671	7.94
364.88	8.22
365.09	8.82
365.299	9.29
365.509	8.55
365.718	8.43
365.927	8.97
366.137	9.12
366.346	9.35
366.555	9.03
366.765	8.22
366.974	8.38
367.183	8
367.393	6.96
367.602	6.35
367.811	6.92
368.021	6.52
368.23	6.16
368.439	5.62
368.648	5.3
368.857	5.71
369.067	6.64
369.276	6.43
369.485	6.44
369.694	6.87
369.903	7.53
370.112	7.76
370.321	8.78
370.531	8.62
370.74	8.7
370.949	8.37
371.158	8.33
371.367	8.28
371.576	7.85
371.785	7.94
371.994	7.9
372.203	7.93
372.412	7.88
372.621	7.5
372.83	7.85
373.039	8.27
373.248	8.01
373.457	7.67
373.666	7.33
373.874	7.81
374.083	7.99
374.292	7.65
374.501	7.2
374.71	6.87
374.919	7.01
375.128	6.51
375.336	6.68
375.545	6.98
375.754	6.78
375.963	6.83
376.171	6.7
376.38	6.49
376.589	6.88
376.798	6.89
377.006	7.09
377.215	7.12
377.424	6.95
377.632	6.7
377.841	6.73
378.05	6.55
378.258	6.55
378.467	6.56
378.675	6.64
378.884	6.44
379.093	6.37
379.301	6.11
379.51	5.98
379.718	5.95
379.927	5.56
380.135	5
380.344	5.41
380.552	5.65
380.761	5.58
380.969	5.26
381.177	5.16
381.386	4.6
381.594	4.67
381.803	3.99
382.011	4.19
382.219	4.16
382.428	3.7
382.636	2.98
382.845	2.98
383.053	3.29
383.261	3.44
383.469	3.54
383.678	3.99
383.886	3.76
384.094	4.13
384.302	4.29
384.511	4.47
384.719	5.46
384.927	5.88
385.135	6.16
385.343	6.15
385.552	5.89
385.76	5.93
385.968	6.07
386.176	6.49
386.384	6.29
386.592	5.75
386.8	5.61
387.008	5.7
387.216	6.22
387.424	5.57
387.633	5.56
387.841	5.56
388.049	5.22
388.257	5.23
388.465	4.79
388.672	5.25
388.88	5.59
389.088	5.64
389.296	5.21
389.504	4.98
389.712	5.05
389.92	4.86
390.128	4.8
390.336	5.04
390.544	5.35
390.751	5.21
390.959	5
391.167	5.13
391.375	5.24
391.583	5.43
391.79	5.23
391.998	5.41
392.206	5.56
392.414	5.72
392.621	5.82
392.829	5.85
393.037	5.89
393.244	6.11
393.452	6.23
393.66	6.06
393.867	6.09
394.075	5.92
394.283	5.92
394.49	5.58
394.698	5.44
394.905	5.37
395.113	4.92
395.32	5.37
395.528	5.01
395.735	4.54
395.943	4.45
396.15	4.23
396.358	4.46
396.565	4.22
396.773	4.56
396.98	4.76
397.188	4.65
397.395	4.89
397.602	4.6
397.81	4.65
398.017	5.11
398.225	5.25
398.432	5.45
398.639	5.74
398.847	5.93
399.054	5.67
399.261	5.67
399.468	5.7
399.676	5.39
399.883	5.58
400.09	5.65
400.297	5.46
400.505	5.64
400.712	5.51
400.919	5.16
401.126	5.02
401.333	5.23
401.54	5.08
401.748	5.12
401.955	5.16
402.162	4.83
402.369	4.73
402.576	4.8
402.783	4.54
402.99	4.5
403.197	4.63
403.404	4.72
403.611	4.78
403.818	4.76
404.025	4.75
404.232	4.62
404.439	4.64
404.646	4.64
404.853	4.36
405.06	4.52
405.267	4.32
405.474	3.94
405.681	3.8
405.887	3.7
406.094	3.88
406.301	3.93
406.508	4.05
406.715	4.12
406.922	4.07
407.128	4.07
407.335	4.06
407.542	4.13
407.749	4.36
407.955	4.45
408.162	4.3
408.369	4.35
408.575	4.03
408.782	4.2
408.989	4.37
409.195	4.37
409.402	4.59
409.609	4.72
409.815	5.01
410.022	5.18
410.228	5.04
410.435	5.41
410.642	5.01
410.848	5.24
411.055	5.06
411.261	5.03
411.468	5.06
411.674	5.09
411.881	4.88
412.087	4.9
412.294	4.8
412.5	4.62
412.706	4.22
412.913	4.23
413.119	4.21
413.326	4.04
413.532	4.07
413.738	3.84
413.945	3.93
414.151	3.84
414.357	4.01
414.564	3.85
414.77	4.13
414.976	3.97
415.182	4.38
415.389	4.35
415.595	4.32
415.801	4.26
416.007	4.77
416.214	4.42
416.42	4.56
416.626	4.3
416.832	4.25
417.038	4.25
417.244	4.65
417.45	4.54
417.657	4.6
417.863	4.86
418.069	4.98
418.275	4.79
418.481	4.86
418.687	4.68
418.893	4.71
419.099	4.66
419.305	4.77
419.511	4.71
419.717	4.66
419.923	4.58
420.129	4.41
420.335	4.38
420.541	4.32
420.746	4.33
420.952	4.4
421.158	4.41
421.364	4.44
421.57	4.43
421.776	4.46
421.982	4.4
422.187	4.3
422.393	4.34
422.599	4.21
422.805	4.28
423.01	4.21
423.216	4.11
423.422	4.04
423.628	4.14
423.833	4.05
424.039	3.97
424.245	3.97
424.45	4.18
424.656	4.14
424.862	4.1
425.067	4.14
425.273	4.12
425.478	4.21
425.684	4.25
425.889	4.3
426.095	4.27
426.301	4.36
426.506	4.53
426.712	4.39
426.917	4.31
427.123	4.51
427.328	4.49
427.533	4.63
427.739	4.63
427.944	4.54
428.15	4.33
428.355	4.4
428.561	4.18
428.766	3.97
428.971	4.07
429.177	4.19
429.382	4.28
429.587	4.3
429.793	4.17
429.998	4.26
430.203	4.42
430.408	4.5
430.614	4.63
430.819	4.73
431.024	4.86
431.229	4.79
431.434	4.84
431.64	4.58
431.845	4.58
432.05	4.76
432.255	4.74
432.46	4.65
432.665	4.56
432.87	4.34
433.076	4.31
433.281	4.39
433.486	4.36
433.691	4.21
433.896	3.96
434.101	3.87
434.306	3.95
434.511	3.89
434.716	3.88
434.921	4
435.126	4.01
435.331	3.83
435.535	3.71
435.74	3.71
435.945	3.98
436.15	4.24
436.355	4.43
436.56	4.41
436.765	4.49
436.97	4.42
437.174	4.29
437.379	4.47
437.584	4.73
437.789	4.68
437.993	4.74
438.198	4.67
438.403	4.8
438.608	4.71
438.812	4.49
439.017	4.4
439.222	4.31
439.426	4.28
439.631	4.22
439.836	4.01
440.04	4.07
440.245	3.98
440.45	3.88
440.654	3.83
440.859	3.64
441.063	3.7
441.268	3.63
441.472	3.81
441.677	3.84
441.881	3.66
442.086	3.8
442.29	3.7
442.495	3.73
442.699	3.8
442.904	3.76
443.108	3.89
443.312	3.97
443.517	4.02
443.721	3.97
443.925	4.02
444.13	4.25
444.334	4.19
444.538	4.3
444.743	4.27
444.947	4.16
445.151	4.13
445.356	4.18
445.56	4.12
445.764	4.08
445.968	4.06
446.173	4.04
446.377	4.01
446.581	3.99
446.785	3.98
446.989	3.94
447.193	3.97
447.398	4.02
447.602	3.94
447.806	3.95
448.01	4.11
448.214	4.13
448.418	4.16
448.622	4.28
448.826	4.44
449.03	4.38
449.234	4.48
449.438	4.58
449.642	4.64
449.846	4.76
450.05	4.8
450.254	4.66
450.458	4.85
450.662	4.75
450.866	4.6
451.069	4.39
451.273	4.32
451.477	4.24
451.681	4.19
451.885	3.99
452.089	3.8
452.292	3.72
452.496	3.76
452.7	3.63
452.904	3.86
453.107	3.88
453.311	4.06
453.515	4.15
453.719	4.15
453.922	4.23
454.126	4.15
454.33	4.41
454.533	4.26
454.737	4.26
454.94	4.29
455.144	4.19
455.348	4.09
455.551	3.92
455.755	3.8
455.958	3.79
456.162	3.63
456.365	3.83
456.569	3.56
456.772	3.65
456.976	3.6
457.179	3.57
457.383	3.6
457.586	3.63
457.79	3.63
457.993	3.81
458.196	3.79
458.4	3.92
458.603	3.88
458.807	4.08
459.01	4.3
459.213	4.21
459.417	4.08
459.62	3.97
459.823	3.86
460.026	3.84
460.23	3.74
460.433	3.82
460.636	3.79
460.839	3.8
461.042	3.76
461.246	3.74
461.449	3.73
461.652	3.83
461.855	3.84
462.058	3.93
462.261	3.92
462.464	3.9
462.668	4.02
462.871	4
463.074	4.11
463.277	3.76
463.48	3.7
463.683	3.9
463.886	4.01
464.089	3.99
464.292	4.09
464.495	4.36
464.698	4.35
464.901	4.26
465.104	4.21
465.306	4.14
465.509	4.47
465.712	4.41
465.915	4.29
466.118	4.21
466.321	4.16
466.524	4.24
466.726	4.09
466.929	4.2
467.132	4.21
467.335	4.31
467.538	4.13
467.74	4.09
467.943	4.24
468.146	4.43
468.348	4.35
468.551	4.46
468.754	4.32
468.956	4.28
469.159	4.3
469.362	4.31
469.564	4.09
469.767	4.27
469.969	4.32
470.172	4.08
470.375	3.88
470.577	3.92
470.78	3.86
470.982	3.88
471.185	3.93
471.387	3.97
471.59	3.94
471.792	4.13
471.995	4.08
472.197	3.99
472.399	3.9
472.602	3.82
472.804	3.78
473.007	3.76
473.209	3.82
473.411	3.77
473.614	3.67
473.816	3.53
474.018	3.53
474.22	3.59
474.423	3.65
474.625	3.67
474.827	3.89
475.03	3.84
475.232	4.07
475.434	4.13
475.636	4.19
475.838	4.21
476.04	4.21
476.243	4.18
476.445	4.25
476.647	4.15
476.849	4.15
477.051	4.03
477.253	4.1
477.455	4.02
477.657	3.8
477.859	3.78
478.061	3.71
478.263	3.73
478.465	3.64
478.667	3.42
478.869	3.4
479.071	3.3
479.273	3.23
479.475	3.13
479.677	3.11
479.879	2.99
480.081	3.05
480.283	3.12
480.485	3.17
480.686	3.28
480.888	3.45
481.09	3.6
481.292	3.71
481.494	3.71
481.695	3.85
481.897	3.76
482.099	3.92
482.301	3.85
482.502	3.86
482.704	3.88
482.906	3.83
483.107	3.8
483.309	3.7
483.511	3.74
483.712	3.72
483.914	3.63
484.115	3.63
484.317	3.59
484.519	3.6
484.72	3.55
484.922	3.5
485.123	3.54
485.325	3.52
485.526	3.55
485.728	3.51
485.929	3.5
486.131	3.54
486.332	3.56
486.534	3.57
486.735	3.59
486.936	3.54
487.138	3.52
487.339	3.42
487.541	3.44
487.742	3.4
487.943	3.39
488.144	3.42
488.346	3.44
488.547	3.47
488.748	3.53
488.95	3.45
489.151	3.54
489.352	3.6
489.553	3.65
489.755	3.61
489.956	3.59
490.157	3.67
490.358	3.66
490.559	3.69
490.76	3.61
490.961	3.54
491.163	3.59
491.364	3.59
491.565	3.53
491.766	3.59
491.967	3.65
492.168	3.69
492.369	3.68
492.57	3.67
492.771	3.71
492.972	3.73
493.173	3.8
493.374	3.87
493.575	3.92
493.776	4.02
493.976	4.07
494.177	4.09
494.378	4.23
494.579	4.16
494.78	4.28
494.981	4.13
495.182	4.17
495.382	4.15
495.583	3.93
495.784	3.94
495.985	3.97
496.185	3.88
496.386	3.74
496.587	3.8
496.788	3.87
496.988	3.84
497.189	3.87
497.39	4.03
497.59	3.97
497.791	4.12
497.992	4.08
498.192	4
498.393	4.02
498.593	4.12
498.794	3.87
498.994	3.96
499.195	3.92
499.395	4.02
499.596	3.9
499.796	3.96
499.997	3.94
500.197	3.97
500.398	4.13
500.598	4.14
500.799	4.05
500.999	4.24
501.199	4.06
501.4	4.18
501.6	4.04
501.801	4.05
502.001	4.08
502.201	4.19
502.402	4.16
502.602	3.98
502.802	4.09
503.002	4.26
503.203	4.26
503.403	4.29
503.603	4.22
503.803	4.31
504.003	4.38
504.204	4.38
504.404	4.37
504.604	4.36
504.804	4.56
505.004	4.42
505.204	4.4
505.404	4.46
505.604	4.63
505.804	4.56
506.005	4.55
506.205	4.44
506.405	4.48
506.605	4.4
506.805	4.54
507.005	4.5
507.204	4.55
507.404	4.54
507.604	4.47
507.804	4.32
508.004	4.47
508.204	4.42
508.404	4.45
508.604	4.47
508.804	4.6
509.003	4.55
509.203	4.45
509.403	4.38
509.603	4.28
509.803	4.39
510.002	4.51
510.202	4.47
510.402	4.47
510.602	4.47
510.801	4.46
511.001	4.35
511.201	4.26
511.4	4.26
511.6	4.41
511.8	4.47
511.999	4.49
512.199	4.34
512.398	4.43
512.598	4.49
512.797	4.63
512.997	4.72
513.197	4.79
513.396	4.95
513.596	5.08
513.795	5.23
513.994	5.3
514.194	5.25
514.393	5.32
514.593	5.37
514.792	5.45
514.992	5.24
515.191	5.11
515.39	5.03
515.59	4.85
515.789	4.73
515.988	4.59
516.188	4.6
516.387	4.59
516.586	4.54
516.786	4.44
516.985	4.42
517.184	4.51
517.383	4.64
517.582	4.78
517.782	4.86
517.981	4.87
518.18	4.79
518.379	4.88
518.578	4.8
518.777	4.87
518.976	4.82
519.176	4.86
519.375	4.97
519.574	4.98
519.773	4.93
519.972	4.84
520.171	4.87
520.37	4.87
520.569	4.89
520.768	4.94
520.967	5.11
521.166	5.24
521.365	5.23
521.564	5.24
521.762	5.22
521.961	5.21
522.16	5.31
522.359	5.3
522.558	5.45
522.757	5.4
522.956	5.48
523.154	5.25
523.353	5.24
523.552	5.13
523.751	5.17
523.949	5.1
524.148	5.16
524.347	5.26
524.546	5.33
524.744	5.27
524.943	5.36
525.142	5.28
525.34	5.48
525.539	5.52
525.737	5.55
525.936	5.54
526.135	5.51
526.333	5.41
526.532	5.33
526.73	5.36
526.929	5.33
527.127	5.27
527.326	5.3
527.524	5.2
527.723	5.22
527.921	5.29
528.12	5.24
528.318	5.34
528.516	5.39
528.715	5.42
528.913	5.41
529.112	5.44
529.31	5.41
529.508	5.41
529.707	5.41
529.905	5.44
530.103	5.44
530.301	5.48
530.5	5.48
530.698	5.52
530.896	5.58
531.094	5.67
531.293	5.7
531.491	5.76
531.689	5.81
531.887	5.88
532.085	5.91
532.283	5.87
532.481	5.91
532.68	5.82
532.878	5.81
533.076	5.86
533.274	5.77
533.472	5.85
533.67	5.85
533.868	5.83
534.066	5.85
534.264	5.77
534.462	5.85
534.66	5.85
534.858	5.99
535.056	6.02
535.253	5.92
535.451	6.02
535.649	6.02
535.847	6.21
536.045	6.3
536.243	6.36
536.441	6.52
536.638	6.67
536.836	6.68
537.034	6.68
537.232	6.83
537.43	7
537.627	6.99
537.825	6.98
538.023	6.87
538.22	7
538.418	6.98
538.616	7.03
538.813	6.89
539.011	6.98
539.209	7
539.406	6.93
539.604	7
539.801	7.2
539.999	7.33
540.196	7.42
540.394	7.43
540.591	7.54
540.789	7.5
540.986	7.5
541.184	7.5
541.381	7.56
541.579	7.55
541.776	7.52
541.974	7.47
542.171	7.43
542.368	7.49
542.566	7.46
542.763	7.49
542.96	7.59
543.158	7.75
543.355	7.82
543.552	7.81
543.75	7.96
543.947	7.92
544.144	7.93
544.341	8.06
544.539	8.03
544.736	8.17
544.933	8.1
545.13	8.06
545.327	7.9
545.524	7.83
545.722	7.94
545.919	7.91
546.116	8.14
546.313	8.22
546.51	8.25
546.707	8.32
546.904	8.32
547.101	8.42
547.298	8.45
547.495	8.59
547.692	8.66
547.889	8.64
548.086	8.87
548.283	8.9
548.48	9.03
548.677	9
548.874	9.09
549.07	9.23
549.267	9.25
549.464	9.21
549.661	9.37
549.858	9.58
550.055	9.86
550.251	9.67
550.448	9.64
550.645	9.84
550.842	10.03
551.038	10.15
551.235	10.02
551.432	10.16
551.628	10.28
551.825	10.31
552.022	10.44
552.218	10.3
552.415	10.34
552.612	10.37
552.808	10.32
553.005	10.39
553.201	10.39
553.398	10.47
553.594	10.58
553.791	10.74
553.987	10.83
554.184	10.91
554.38	11.02
554.577	11.2
554.773	11.45
554.97	11.51
555.166	11.55
555.362	11.61
555.559	11.75
555.755	11.82
555.952	12.02
556.148	12.04
556.344	11.99
556.541	12.06
556.737	12.09
556.933	12.09
557.129	12.14
557.326	12.17
557.522	12.3
557.718	12.41
557.914	12.34
558.11	12.25
558.307	12.02
558.503	12.28
558.699	12.31
558.895	12.44
559.091	12.41
559.287	12.49
559.483	12.62
559.679	12.63
559.876	12.73
560.072	12.85
560.268	12.87
560.464	13.01
560.66	12.93
560.856	13.08
561.052	13.18
561.247	13.4
561.443	13.47
561.639	13.57
561.835	13.66
562.031	13.85
562.227	13.79
562.423	14
562.619	14.27
562.815	14.37
563.01	14.54
563.206	14.53
563.402	14.55
563.598	14.72
563.793	14.83
563.989	14.9
564.185	14.69
564.381	15.18
564.576	15.43
564.772	15.36
564.968	15.47
565.163	15.36
565.359	15.15
565.555	15.09
565.75	15.02
565.946	15.07
566.141	15.13
566.337	15.36
566.532	15.36
566.728	15.37
566.923	15.64
567.119	15.6
567.314	15.68
567.51	16.03
567.705	16.29
567.901	16.45
568.096	16.55
568.292	16.68
568.487	16.69
568.682	16.62
568.878	16.56
569.073	16.45
569.268	16.46
569.464	16.63
569.659	16.6
569.854	16.56
570.05	16.74
570.245	16.97
570.44	17.02
570.635	17.19
570.831	17.13
571.026	17.3
571.221	17.47
571.416	17.51
571.611	17.64
571.806	17.69
572.002	17.69
572.197	17.8
572.392	17.57
572.587	17.63
572.782	17.7
572.977	18.07
573.172	18.14
573.367	18.21
573.562	18.43
573.757	18.35
573.952	18.57
574.147	18.96
574.342	19.06
574.537	19.28
574.732	19.34
574.927	19.29
575.121	19.4
575.316	19.35
575.511	19.5
575.706	19.69
575.901	19.94
576.096	20.1
576.29	19.9
576.485	19.9
576.68	19.97
576.875	20.03
577.069	20.26
577.264	20.12
577.459	20.44
577.654	20.44
577.848	20.52
578.043	20.63
578.238	20.46
578.432	20.57
578.627	20.52
578.821	20.77
579.016	20.81
579.21	20.91
579.405	20.97
579.6	21.11
579.794	21.35
579.989	21.14
580.183	21.32
580.378	21.55
580.572	21.72
580.766	21.83
580.961	21.49
581.155	21.81
581.35	21.75
581.544	21.7
581.738	21.63
581.933	21.69
582.127	22.08
582.321	21.8
582.516	21.83
582.71	22.02
582.904	22.3
583.099	22.59
583.293	22.4
583.487	22.6
583.681	23.04
583.875	22.94
584.07	23.1
584.264	23.02
584.458	23.12
584.652	23.04
584.846	23
585.04	22.73
585.234	22.81
585.428	22.93
585.623	22.93
585.817	22.8
586.011	23.06
586.205	23.11
586.399	23.07
586.593	23.2
586.787	23.43
586.981	23.47
587.174	23.76
587.368	23.67
587.562	23.78
587.756	23.98
587.95	23.99
588.144	23.97
588.338	24.1
588.532	24.29
588.725	24.37
588.919	24.51
589.113	24.47
589.307	24.4
589.501	24.37
589.694	24.44
589.888	24.45
590.082	24.58
590.275	24.62
590.469	24.41
590.663	24.34
590.856	24.36
591.05	24.34
591.244	24.42
591.437	24.56
591.631	24.76
591.824	24.84
592.018	24.9
592.212	24.8
592.405	24.85
592.599	25.01
592.792	24.97
592.986	25.11
593.179	25.12
593.372	25.15
593.566	25.24
593.759	25.32
593.953	25.39
594.146	25.16
594.339	25.39
594.533	25.61
594.726	25.6
594.92	25.83
595.113	25.88
595.306	25.83
595.499	25.81
595.693	25.79
595.886	25.72
596.079	25.82
596.272	25.9
596.466	25.77
596.659	25.65
596.852	25.69
597.045	25.67
597.238	25.65
597.431	25.82
597.624	25.81
597.818	25.77
598.011	25.87
598.204	25.81
598.397	26
598.59	26.15
598.783	26.33
598.976	26.42
599.169	26.41
599.362	26.46
599.555	26.57
599.748	26.98
599.941	27.06
600.134	27.25
600.326	27.5
600.519	27.58
600.712	27.56
600.905	27.42
601.098	27.53
601.291	27.83
601.483	27.89
601.676	27.87
601.869	27.73
602.062	27.93
602.255	27.74
602.447	27.72
602.64	27.72
602.833	27.98
603.025	27.93
603.218	27.89
603.411	27.88
603.603	27.83
603.796	27.78
603.989	27.94
604.181	27.99
604.374	28.25
604.566	28.08
604.759	28.15
604.951	28.21
605.144	28.28
605.336	28.54
605.529	28.34
605.721	28.44
605.914	28.56
606.106	28.58
606.299	28.59
606.491	28.57
606.683	28.72
606.876	28.62
607.068	28.56
607.26	28.77
607.453	28.54
607.645	28.77
607.837	28.77
608.03	28.73
608.222	28.58
608.414	28.63
608.606	28.64
608.799	28.87
608.991	28.77
609.183	28.85
609.375	28.69
609.567	28.41
609.759	28.6
609.952	28.58
610.144	28.69
610.336	28.76
610.528	28.62
610.72	28.53
610.912	28.43
611.104	28.69
611.296	28.65
611.488	28.8
611.68	29.16
611.872	28.78
612.064	29.16
612.256	29.24
612.448	29.28
612.64	29.3
612.832	29.57
613.023	29.54
613.215	29.58
613.407	29.39
613.599	29.52
613.791	29.52
613.983	29.68
614.174	29.58
614.366	29.31
614.558	29.37
614.75	29.44
614.941	29.38
615.133	29.64
615.325	29.73
615.516	30.01
615.708	29.66
615.9	29.36
616.091	29.27
616.283	29.22
616.475	29.18
616.666	29.28
616.858	29.64
617.049	29.57
617.241	29.34
617.432	29.27
617.624	29.54
617.815	29.87
618.007	30.39
618.198	30.77
618.39	30.79
618.581	31.08
618.773	31.22
618.964	31.13
619.155	31.24
619.347	31.39
619.538	31.55
619.729	31.34
619.921	31.15
620.112	31
620.303	30.94
620.494	31.03
620.686	30.94
620.877	30.73
621.068	30.54
621.259	30.69
621.451	30.69
621.642	30.68
621.833	30.7
622.024	30.95
622.215	30.96
622.406	31.22
622.597	31.17
622.788	31.3
622.98	31.53
623.171	31.66
623.362	31.54
623.553	31.76
623.744	31.52
623.935	31.33
624.126	31.31
624.317	31.52
624.508	31.5
624.698	31.31
624.889	31.44
625.08	31.7
625.271	32.03
625.462	32
625.653	31.76
625.844	32.03
626.034	32.01
626.225	31.98
626.416	31.97
626.607	31.96
626.798	32.19
626.988	32.23
627.179	32.17
627.37	31.85
627.56	32.04
627.751	32.44
627.942	32.29
628.132	32.35
628.323	32.46
628.514	32.5
628.704	32.38
628.895	32.4
629.085	32.37
629.276	32.35
629.466	32.45
629.657	32.54
629.847	32.26
630.038	32.43
630.228	32.75
630.419	32.74
630.609	32.73
630.8	32.6
630.99	32.63
631.181	32.72
631.371	32.69
631.561	32.87
631.752	32.69
631.942	32.76
632.132	32.82
632.323	32.61
632.513	32.58
632.703	32.64
632.893	32.82
633.084	32.77
633.274	32.78
633.464	32.69
633.654	32.75
633.844	32.82
634.034	32.55
634.225	32.61
634.415	32.54
634.605	32.79
634.795	32.78
634.985	33.16
635.175	33.22
635.365	33.15
635.555	33.42
635.745	33.38
635.935	33.34
636.125	33.53
636.315	33.57
636.505	33.84
636.695	33.55
636.885	33.32
637.075	32.87
637.265	32.88
637.455	32.64
637.644	32.72
637.834	32.77
638.024	32.96
638.214	33.11
638.404	33.01
638.593	33.06
638.783	33.48
638.973	34.04
639.163	34.32
639.352	34.48
639.542	34.68
639.732	34.57
639.921	34.61
640.111	34.38
640.301	34.31
640.49	34.22
640.68	34.12
640.87	34.11
641.059	33.86
641.249	33.84
641.438	33.84
641.628	33.86
641.817	33.65
642.007	33.74
642.196	33.65
642.386	33.6
642.575	34.14
642.764	33.78
642.954	33.67
643.143	34.07
643.333	34.05
643.522	34.11
643.711	34.44
643.901	34.43
644.09	34.39
644.279	35.11
644.469	34.91
644.658	34.79
644.847	35.28
645.036	35.6
645.226	35.26
645.415	35.3
645.604	35.23
645.793	35.16
645.982	35.1
646.171	35.04
646.361	35.03
646.55	35.71
646.739	35.44
646.928	35.62
647.117	35.51
647.306	35.47
647.495	35.39
647.684	35.66
647.873	35.97
648.062	36.26
648.251	36.46
648.44	36.2
648.629	35.98
648.818	36.05
649.007	35.61
649.196	35.24
649.384	35.59
649.573	35.51
649.762	35.14
649.951	34.69
650.14	34.7
650.328	34.68
650.517	34.68
650.706	34.56
650.895	35.06
651.083	35.45
651.272	35.41
651.461	35.34
651.65	36.02
651.838	36.17
652.027	36.25
652.216	36.09
652.404	35.99
652.593	36.17
652.781	36.4
652.97	36.12
653.158	35.95
653.347	36.41
653.535	36.28
653.724	35.46
653.912	35.74
654.101	35.91
654.289	36.04
654.478	36.03
654.666	36.11
654.855	36.15
655.043	35.76
655.231	35.61
655.42	35.87
655.608	35.95
655.796	36.43
655.985	36.15
656.173	36.03
656.361	36.13
656.55	36.09
656.738	35.81
656.926	35.71
657.114	36.4
657.302	36.82
657.491	36.3
657.679	36.29
657.867	36.42
658.055	36.32
658.243	36.31
658.431	36.29
658.619	36.62
658.807	36.84
658.996	37.06
659.184	36.43
659.372	36.23
659.56	36.41
659.748	36.31
659.936	36.26
660.124	36.46
660.311	36.51
660.499	36.46
660.687	36.13
660.875	36.02
661.063	35.9
661.251	36.3
661.439	36.29
661.627	36.23
661.814	36.35
662.002	36.46
662.19	36.18
662.378	36.14
662.565	36.47
662.753	36.86
662.941	37.01
663.129	36.86
663.316	37.12
663.504	37.24
663.692	37.73
663.879	37.75
664.067	37.49
664.254	37.47
664.442	37.38
664.63	37.3
664.817	37.34
665.005	37.39
665.192	37.55
665.38	37.41
665.567	36.81
665.755	36.82
665.942	37.02
666.13	37.41
666.317	37.58
666.504	37.61
666.692	37.78
666.879	37.67
667.067	37.37
667.254	37.44
667.441	37.33
667.629	38.08
667.816	37.73
668.003	37.39
668.19	37.33
668.378	37.45
668.565	37.56
668.752	37.33
668.939	37.28
669.127	37.65
669.314	37.35
669.501	37.52
669.688	37.46
669.875	37.63
670.062	38.08
670.249	38.46
670.436	38.85
670.623	38.98
670.81	38.77
670.997	39.06
671.184	39.03
671.371	39.36
671.558	39.09
671.745	39.31
671.932	39.22
672.119	38.62
672.306	38.04
672.493	37.98
672.68	37.9
672.867	38.49
673.054	38.22
673.24	38.14
673.427	38.31
673.614	38.6
673.801	38.93
673.988	39.47
674.174	40.14
674.361	40.56
674.548	40.05
674.734	40.37
674.921	40.17
675.108	40.54
675.294	40.23
675.481	40.14
675.668	40.34
675.854	39.68
676.041	39.11
676.227	39.02
676.414	39.09
676.601	39.66
676.787	39.47
676.974	39.4
677.16	39.28
677.347	39.54
677.533	39.01
677.719	38.71
677.906	38.99
678.092	39.44
678.279	39.08
678.465	38.95
678.651	38.98
678.838	39.12
679.024	38.93
679.21	38.84
679.397	38.94
679.583	39.67
679.769	39.98
679.955	39.77
680.142	39.46
680.328	39.92
680.514	39.77
680.7	39.23
680.886	39.47
681.073	39.59
681.259	39.52
681.445	39.68
681.631	39.38
681.817	39.04
682.003	39.08
682.189	39
682.375	38.63
682.561	38.6
682.747	39.08
682.933	38.75
683.119	38.88
683.305	39.19
683.491	39.1
683.677	39.04
683.863	39.67
684.049	39.89
684.235	39.87
684.42	39.84
684.606	39.8
684.792	40
684.978	40.2
685.164	40.42
685.349	40.59
685.535	40.75
685.721	40.72
685.907	40.17
686.092	40.29
686.278	40.79
686.464	40.75
686.649	41.05
686.835	40.84
687.021	40.94
687.206	40.69
687.392	40.12
687.577	39.87
687.763	40.28
687.948	40.49
688.134	40.11
688.319	40.04
688.505	40.4
688.69	40.68
688.876	40.92
689.061	40.78
689.247	41.08
689.432	41.31
689.618	41.44
689.803	41.9
689.988	41.86
690.174	42.34
690.359	42.43
690.544	42.25
690.73	42.53
690.915	42.5
691.1	42.54
691.285	42.47
691.471	42.75
691.656	43.06
691.841	42.13
692.026	42.44
692.211	42.44
692.396	42.34
692.582	42.12
692.767	41.5
692.952	41.03
693.137	41.03
693.322	40.95
693.507	41.12
693.692	40.65
693.877	40.88
694.062	40.43
694.247	40.23
694.432	40.32
694.617	40.87
694.802	41.04
694.987	41.23
695.172	41.16
695.357	41.1
695.541	40.68
695.726	40.78
695.911	41.27
696.096	41.07
696.281	41.23
696.466	41.43
696.65	41.25
696.835	41.04
697.02	41.25
697.204	41.53
697.389	41.77
697.574	41.69
697.759	42.1
697.943	41.85
698.128	42.16
698.312	42.2
698.497	41.48
698.682	41.21
698.866	41.52
699.051	41.09
699.235	40.86
699.42	40.9
699.604	40.86
699.789	40.47
699.973	40.59
700.158	40.54
700.342	40.21
700.527	40.96
700.711	41.47
700.895	40.97
701.08	41.54
701.264	41.83
701.448	41.85
701.633	42.14
701.817	42.46
702.001	42.49
702.186	42.33
702.37	42.87
702.554	42.45
702.738	42.56
702.923	42.91
703.107	42.88
703.291	42.93
703.475	42.51
703.659	42.64
703.843	42.03
704.027	42.65
704.212	42.97
704.396	42.82
704.58	42.53
704.764	42.61
704.948	42.29
705.132	41.72
705.316	41.63
705.5	42.18
705.684	42.09
705.868	42.67
706.052	41.75
706.235	41.62
706.419	41.92
706.603	41.69
706.787	41.54
706.971	42.59
707.155	42.8
707.339	43.01
707.522	42.21
707.706	42.36
707.89	41.98
708.074	42.04
708.257	41.93
708.441	42
708.625	43.02
708.808	42.9
708.992	42.18
709.176	42.65
709.359	42.63
709.543	43.14
709.727	43.37
709.91	43.35
710.094	43.64
710.277	44.49
710.461	44.57
710.644	44.22
710.828	44.47
711.011	44.63
711.195	44.64
711.378	44.22
711.562	44.06
711.745	43.75
711.928	43.98
712.112	43.34
712.295	43
712.478	42.68
712.662	43.41
712.845	43.03
713.028	42.71
713.212	42.84
713.395	43.21
713.578	43.25
713.761	42.81
713.945	42.79
714.128	43.25
714.311	43.59
714.494	44.08
714.677	43.35
714.86	43.24
715.043	43.78
715.227	43.66
715.41	43.43
715.593	43.67
715.776	43.84
715.959	44.05
716.142	44.08
716.325	42.89
716.508	42.46
716.691	42.96
716.874	42.91
717.057	42.63
717.239	42.48
717.422	42.77
717.605	42.7
717.788	43.06
717.971	43.87
718.154	44.04
718.337	45.16
718.519	45.15
718.702	45.47
718.885	46
719.068	45.7
719.25	46.06
719.433	45.83
719.616	45.6
719.798	44.78
719.981	43.92
720.164	44.05
720.346	43.9
720.529	44.6
720.712	44.13
720.894	44.05
721.077	44.72
721.259	44.31
721.442	44.96
721.624	45.35
721.807	46.38
721.989	46.64
722.172	46.67
722.354	46.57
722.537	46.57
722.719	46.03
722.901	46.02
723.084	46.15
723.266	45.62
723.448	46.18
723.631	46.48
723.813	45.9
723.995	45
724.178	44.7
724.36	44.92
724.542	44.32
724.724	44.58
724.907	44.71
725.089	44.55
725.271	45.66
725.453	44.79
725.635	44.82
725.817	45.56
725.999	46.47
726.181	46.35
726.364	45.93
726.546	46.29
726.728	46.31
726.91	45.87
727.092	45.45
727.274	45.49
727.456	45.27
727.638	45.63
727.819	45.29
728.001	45.31
728.183	45.64
728.365	45.61
728.547	45.78
728.729	46.29
728.911	47.22
729.093	47.42
729.274	46.31
729.456	46.44
729.638	46.36
729.82	46.22
730.001	45.77
730.183	45.64
730.365	46.67
730.546	46.22
730.728	45.31
730.91	44.55
731.091	44.53
731.273	44.99
731.455	45.33
731.636	44.99
731.818	45.48
731.999	45.15
732.181	44.89
732.362	44
732.544	44.55
732.725	45.03
732.907	45.36
733.088	46.33
733.27	47.2
733.451	46.92
733.633	47.68
733.814	47.37
733.995	48.19
734.177	48.7
734.358	48.67
734.539	48.33
734.721	48.46
734.902	47.65
735.083	46.49
735.264	46.26
735.446	46.23
735.627	44.49
735.808	44.09
735.989	43.77
736.17	44.06
736.351	44.13
736.533	43.83
736.714	43.39
736.895	44.51
737.076	44.99
737.257	44.21
737.438	43.89
737.619	44.91
737.8	45.95
737.981	45.81
738.162	45.51
738.343	46.07
738.524	45.83
738.705	46.35
738.886	46.12
739.067	45.73
739.247	46.01
739.428	46.42
739.609	46.12
739.79	45.77
739.971	45.08
740.151	44.78
740.332	44.75
740.513	44.29
740.694	44.55
740.874	44.79
741.055	44.81
741.236	45.22
741.417	45.54
741.597	45.81
741.778	45.48
741.958	45.97
742.139	46.4
742.32	46.51
742.5	47.73
742.681	47.15
742.861	46.27
743.042	46.24
743.222	45.55
743.403	45.36
743.583	45.24
743.764	45.83
743.944	46.14
744.124	46.97
744.305	46.03
744.485	45.21
744.666	45.27
744.846	45.91
745.026	46.43
745.207	46.82
745.387	46.95
745.567	48.19
745.747	47.93
745.928	47.71
746.108	47.08
746.288	47.62
746.468	48.11
746.648	48.54
746.829	48.68
747.009	48.87
747.189	49.58
747.369	49.78
747.549	48.44
747.729	48.58
747.909	48.69
748.089	48.31
748.269	47.84
748.449	48
748.629	47.41
748.809	47.01
748.989	46.46
749.169	46.28
749.349	45.42
749.529	45.8
749.709	44.36
749.889	45.65
750.068	44.78
750.248	45.65
750.428	45.82
750.608	46.04
750.788	46.23
750.967	46.03
751.147	45.27
751.327	45.71
751.507	45.72
751.686	47.05
751.866	46.15
752.046	46.97
752.225	46.44
752.405	46.68
752.585	46.95
752.764	46.57
752.944	47.4
753.123	47.88
753.303	48.23
753.482	48.87
753.662	48.52
753.841	48.72
754.021	48.79
754.2	49.07
754.38	48.94
754.559	48.1
754.739	47.99
754.918	46.64
755.097	46.92
755.277	47.1
755.456	46.39
755.635	46.52
755.815	45.7
755.994	45.61
756.173	45.7
756.352	45.07
756.532	45.63
756.711	46.29
756.89	46.2
757.069	46.56
757.248	45.56
757.427	44.4
757.607	44.43
757.786	45.34
757.965	45.04
758.144	45.61
758.323	46.55
758.502	46.56
758.681	46.5
758.86	47.59
759.039	47.08
759.218	47.52
759.397	48.9
759.576	48.56
759.755	47.84
759.934	48.71
760.113	48.07
760.291	47.75
760.47	48.18
760.649	49.15
760.828	49.09
761.007	48.8
761.186	48.66
761.364	48.38
761.543	48.82
761.722	48.83
761.901	48.36
762.079	48.81
762.258	48.54
762.437	47.74
762.615	46.51
762.794	46.72
762.972	46.71
763.151	46.41
763.33	46.77
763.508	46.72
763.687	46.58
763.865	46.75
764.044	46.7
764.222	45.97
764.401	46.59
764.579	46.21
764.758	45.3
764.936	45.35
765.114	45.87
765.293	45.69
765.471	45.88
765.65	46.87
765.828	47.09
766.006	47.02
766.184	48.41
766.363	47.97
766.541	48.11
766.719	49.04
766.898	49.24
767.076	48.74
767.254	48.93
767.432	49.62
767.61	48.88
767.788	48.61
767.967	47.71
768.145	46.58
768.323	46.79
768.501	48.36
768.679	48.39
768.857	48.59
769.035	49.56
769.213	50.47
769.391	49.12
769.569	48.58
769.747	49.69
769.925	50.67
770.103	50.76
770.281	51.79
770.459	51.73
770.636	51.17
770.814	51.66
770.992	51.41
771.17	50
771.348	50.38
771.525	52.8
771.703	50.81
771.881	50.12
772.059	50.26
772.236	48.48
772.414	47.9
772.592	48.78
772.769	47.83
772.947	47.6
773.125	47.23
773.302	47.68
773.48	46.27
773.657	47.11
773.835	45.84
774.013	47.44
774.19	49.63
774.368	48.84
774.545	48.76
774.723	48.01
774.9	48.17
775.077	48.97
775.255	48.15
775.432	47.6
775.61	48.41
775.787	48.59
775.964	47.99
776.142	47.1
776.319	48.85
776.496	48.54
776.674	49.6
776.851	50.32
777.028	49.47
777.205	50.72
777.382	50.9
777.56	50.51
777.737	54.28
777.914	54.16
778.091	53.57
778.268	53.48
778.445	54.15
778.622	53.77
778.8	52.74
778.977	54.08
779.154	59.59
779.331	59.29
779.508	59.3
779.685	57.07
779.862	56.67
780.038	56.75
780.215	56.8
780.392	55.65
780.569	55.15
780.746	55.37
780.923	55.78
781.1	50.78
781.277	49.98
781.453	48.06
781.63	48.04
781.807	47.83
781.984	46.31
782.16	46.17
782.337	47.5
782.514	49.35
782.691	51.79
782.867	50.36
783.044	47.98
783.221	48.9
783.397	50.76
783.574	50.88
783.75	52.3
783.927	55.24
784.103	54.84
784.28	54.79
784.456	52.58
784.633	50.61
784.809	50.76
784.986	51
785.162	50.83
785.339	48.19
785.515	47.14
785.692	44.37
785.868	43.88
786.044	45.75
786.221	45.46
786.397	46.32
786.573	45.93
786.749	46.41
786.926	49.1
787.102	49.17
787.278	52.16
787.454	53.73
787.631	54.58
787.807	55.11
787.983	52.25
788.159	51.81
788.335	52.62
788.511	52.36
788.687	53.32
788.863	52.18
789.039	53.33
789.216	51.74
789.392	51.56
789.568	53.11
789.744	51.78
789.919	51.83
790.095	52.75
790.271	51.39
790.447	51.33
790.623	50.38
790.799	51.21
790.975	50.61
791.151	51.45
791.327	51.2
791.502	50.36
791.678	49.7
791.854	50.85
792.03	50.26
792.205	52.8
792.381	54.16
792.557	52.3
792.733	51.81
792.908	52.42
793.084	52.44
793.259	52.78
793.435	51.55
793.611	52.7
793.786	51.56
793.962	53.12
794.137	51.87
794.313	51.35
794.488	52.84
794.664	54.58
794.839	53.31
795.015	53.17
795.19	53.09
795.366	55.95
795.541	56
795.716	55.42
795.892	54.95
796.067	53.66
796.242	53.96
796.418	53.39
796.593	52.17
796.768	52.6
796.944	53.12
797.119	51.59
797.294	50.04
797.469	49.32
797.644	51.11
797.82	50.29
797.995	49.7
798.17	49.37
798.345	50.06
798.52	48.19
798.695	49.29
798.87	47.48
799.045	48.51
799.22	49.57
799.395	50.32
799.57	51.06
799.745	51.29
799.92	52.12
800.095	52.51
800.27	53.41
800.445	54.19
800.62	53.08
800.795	56.1
800.97	58.28
801.145	55.99
801.319	57.53
801.494	56.85
801.669	58.49
801.844	59.36
802.018	59.47
802.193	58.49
802.368	58.63
802.543	57.7
802.717	57.5
802.892	55.9
803.067	57.71
803.241	54.91
803.416	55.66
803.59	53.68
803.765	53.44
803.94	52.95
804.114	52.34
804.289	53.19
804.463	53.72
804.638	50.26
804.812	54.05
804.986	51.21
805.161	51.36
805.335	50.88
805.51	50.07
805.684	47.68
805.858	48.88
806.033	47.97
806.207	45.51
806.381	46.37
806.556	48.48
806.73	44.99
806.904	45.62
807.078	45.28
807.253	44.73
807.427	43.94
807.601	47.04
807.775	47.25
807.949	49.65
808.123	51.44
808.298	53.08
808.472	53.12
808.646	52.56
808.82	52.91
808.994	54.12
809.168	55.18
809.342	56.43
809.516	56.49
809.69	55.11
809.864	53.97
810.038	55.76
810.212	53.91
810.385	53.27
810.559	53.37
810.733	54.46
810.907	53.24
811.081	51.03
811.255	53.49
811.428	52.26
811.602	50.83
811.776	51.32
811.95	48.22
812.123	47.62
812.297	47.32
812.471	47.71
812.644	45.75
812.818	44.09
812.992	42.58
813.165	41.11
813.339	38.4
813.512	37.24
813.686	37.99
813.86	39.61
814.033	39.15
814.207	39.54
814.38	36.9
814.554	41.37
814.727	45.81
814.9	48.8
815.074	47.88
815.247	53.01
815.421	51.63
815.594	52.31
815.767	50.75
815.941	51.12
816.114	53.17
816.287	56.22
816.46	55.19
816.634	51.68
816.807	52.16
816.98	53.43
817.153	51.95
817.327	55.75
817.5	53.74
817.673	55.99
817.846	56.26
818.019	53.5
818.192	52.56
818.365	50.21
818.538	53.21
818.711	49.01
818.884	49.31
819.057	47.72
819.23	47.16
819.403	45.02
819.576	44.36
819.749	45.02
819.922	46.78
820.095	47.85
820.268	50.02
820.441	50.13
820.614	51.49
820.786	49.93
820.959	50.8
821.132	49.32
821.305	49.86
821.477	49.26
821.65	48.61
821.823	47.87
821.996	46.37
822.168	45.2
822.341	44.36
822.514	44.69
822.686	44.73
822.859	44.55
823.031	44.58
823.204	44.61
823.376	44.59
823.549	44.69
823.722	44.68
823.894	44.95
824.067	45.16
824.239	45.92
824.411	45.69
824.584	45.5
824.756	45.23
824.929	45.35
825.101	45.43
825.273	45.12
825.446	44.93
825.618	44.95
825.79	45.5
825.963	46
826.135	45.7
826.307	45.92
826.479	46.74
826.652	46.84
826.824	46.67
826.996	46.62
827.168	46.85
827.34	47.69
827.512	47.43
827.684	47.41
827.856	46.92
828.029	47.05
828.201	47.19
828.373	46.35
828.545	47.04
828.717	47.44
828.889	47.33
829.061	48.82
829.232	49.17
829.404	49.12
829.576	48.55
829.748	48.2
829.92	48.81
830.092	48.93
830.264	48.19
830.436	47.69
830.607	48.89
830.779	49.6
830.951	47.71
831.123	43.01
831.294	43.07
831.466	43.64
831.638	44.2
831.809	42.89
831.981	44.97
832.153	46.1
832.324	45.92
832.496	45.26
832.667	47.35
832.839	50.39
833.011	53.29
833.182	54.36
833.354	54.63
833.525	54.45
833.697	53.67
833.868	50.13
834.039	51.55
834.211	51.75
834.382	51.78
834.554	50.77
834.725	48.12
834.896	47.42
835.068	47
835.239	47.4
835.41	49.18
835.581	49.92
835.753	50.35
835.924	50.68
836.095	49.57
836.266	49.28
836.438	48.45
836.609	49.85
836.78	51.14
836.951	53.26
837.122	52.88
837.293	51.39
837.464	50.65
837.635	52.68
837.806	53.72
837.977	56.41
838.148	59.22
838.319	62.42
838.49	63.14
838.661	65.41
838.832	64.33
839.003	64.55
839.174	64.87
839.345	68.08
839.516	70.58
839.687	69.99
839.857	69.25
840.028	67.37
840.199	64.01
840.37	61.95
840.54	63.81
840.711	60.09
840.882	60.01
841.053	58.74
841.223	53.79
841.394	49.3
841.564	51.64
841.735	52.02
841.906	51.06
842.076	47.01
842.247	50.94
842.417	47.25
842.588	51.37
842.758	53.63
842.929	54.08
843.099	58.93
843.27	60.79
843.44	58.84
843.611	58.96
843.781	53.19
843.951	54.69
844.122	54.43
844.292	57.93
844.462	59.82
844.633	55.96
844.803	55.22
844.973	53.92
845.144	56.01
845.314	52.89
845.484	51.08
845.654	61.54
845.824	72.19
845.995	74.99
846.165	67.19
846.335	61.23
846.505	62.21
846.675	66.25
846.845	70.07
847.015	68.35
847.185	70.14
847.355	70.25
847.525	72.88
847.695	75.94
847.865	66.99
848.035	73.32
848.205	77.53
848.375	90.56
848.545	73.2
848.715	63.34
848.884	68.9
849.054	67.93
849.224	76.79
849.394	75.04
849.564	70.78
849.733	79.97
849.903	77.84
850.073	77.49
850.243	72.11
850.412	78.34
850.582	83.42
850.752	75.36
850.921	70.1
851.091	70.67
851.26	67.41
851.43	61.98
851.599	55.75
851.769	59.69
851.939	59.17
852.108	60.9
852.278	67
852.447	60.3
852.616	69.93
852.786	75.34
852.955	65.24
853.125	67
853.294	62.42
853.463	61.9
853.633	63.7
853.802	62.14
853.971	60.44
854.141	58.16
854.31	58.97
854.479	44.03
854.648	47.29
854.818	49.95
854.987	48.81
855.156	54.92
855.325	54.96
855.494	53.34
855.663	56.5
855.832	55.13
856.001	54.47
856.171	54.3
856.34	65.15
856.509	58.61
856.678	66.05
856.847	68.89
857.016	72.53
857.185	74.58
857.353	81.99
857.522	90.04
857.691	86.15
857.86	84.82
858.029	91.74
858.198	100.15
858.367	103.27
858.535	94.42
858.704	86.82
858.873	87.6
859.042	91.85
859.21	81.44
859.379	77.1
859.548	73.78
859.717	76.29
859.885	69.37
860.054	61.96
860.222	49.59
860.391	62.69
860.56	59.39
860.728	49.55
860.897	34.4
861.065	35.08
861.234	42.99
861.402	45.67
861.571	51.79
861.739	52.52
861.908	50.37
862.076	67.35
862.244	57.57
862.413	59.32
862.581	57.59
862.749	63.27
862.918	61.52
863.086	59.42
863.254	57.28
863.423	50.07
863.591	51.6
863.759	52.31
863.927	46.24
864.096	52.65
864.264	55.97
864.432	54.95
864.6	53.73
864.768	49.51
864.936	41.92
865.104	48.37
865.272	57.91
865.44	61.3
865.608	61.76
865.776	62.65
865.944	67.07
866.112	71.5
866.28	73.9
866.448	76.72
866.616	71.87
866.784	75.96
866.952	76.36
867.12	67.58
867.288	68.24
867.455	67.04
867.623	78.96
867.791	75.59
867.959	74.56
868.127	73.54
868.294	73.96
868.462	74.61
868.63	69.25
868.797	71.83
868.965	85.84
869.133	83.56
869.3	83.01
869.468	65.82
869.636	52.66
869.803	49.76
869.971	58.71
870.138	55.15
870.306	57.92
870.473	58.86
870.641	56.19
870.808	44.5
870.975	41.14
871.143	46.42
871.31	46.25
871.478	55.57
871.645	49.69
871.812	45.61
871.98	51.1
872.147	57.42
872.314	53.11
872.482	48.91
872.649	47.07
872.816	45.83
872.983	41.47
873.15	44.62
873.318	45.12
873.485	56.07
873.652	60.45
873.819	64.06
873.986	51.63
874.153	66.74
874.32	67.6
874.487	64.44
874.654	64
874.821	65.49
874.988	65.01
875.155	73.79
875.322	69.32
875.489	62.78
875.656	48.89
875.823	51.59
875.99	42.58
876.157	45.22
876.324	52.88
876.49	54.14
876.657	46.28
876.824	43.23
876.991	29.4
877.157	26.88
877.324	31.03
877.491	39.36
877.658	43.37
877.824	43.68
877.991	45.3
878.157	45.25
878.324	43.19
878.491	52.93
878.657	67.81
878.824	79.14
878.99	79.39
879.157	79.38
879.323	77.53
879.49	80.3
879.656	85.17
879.823	84.38
879.989	85.04
880.156	85.43
880.322	77.98
880.488	71.14
880.655	67.26
880.821	73.29
880.987	75.36
881.154	69.72
881.32	68.98
881.486	65.43
881.652	67.27
881.819	64.33
881.985	61.84
882.151	64.63
882.317	60.92
882.483	57.88
882.649	55.29
882.816	53.15
882.982	52.51
883.148	50.36
883.314	50.78
883.48	51.52
883.646	49.9
883.812	49.72
883.978	50.2
884.144	50.54
884.31	49.41
884.476	50.74
884.642	51.42
884.807	54.02
884.973	55.35
885.139	55.72
885.305	53.34
885.471	54.68
885.637	54.9
885.802	53.93
885.968	54.62
886.134	57.39
886.3	54.46
886.465	53.15
886.631	49.39
886.797	46.4
886.962	46.12
887.128	49.8
887.293	49.92
887.459	50.86
887.625	48.82
887.79	51.87
887.956	46.92
888.121	51.12
888.287	51.86
888.452	55.04
888.618	63.36
888.783	63.65
