Data from LC_164_Reflection_6.txt Node
Date: Mon Nov 16 22:59:04 EST 2015
User: robert
Spectrometer: USB4E03001
Autoset integration time: false
Trigger mode: 4
Integration Time (sec): 1.000000E-1
Scans to average: 15
Electric dark correction enabled: true
Nonlinearity correction enabled: false
Boxcar width: 5
Stray light correction enabled: false
XAxis mode: Wavelengths
Stop averaging: false
Number of Pixels in Spectrum: 3648
>>>>>Begin Spectral Data<<<<<
177.566	-2000
177.785	-14.81
178.005	-1082.35
178.225	55.06
178.445	-128.14
178.665	951.71
178.885	82.91
179.105	4.67
179.324	-323.36
179.544	24.42
179.764	-182.28
179.984	15.12
180.204	-25.39
180.423	-112.32
180.643	-137.89
180.863	-54.66
181.083	-25.54
181.302	-82.79
181.522	-60.07
181.742	-75.13
181.961	-190.3
182.181	-123.29
182.401	-184.95
182.621	-1119.35
182.84	-545.83
183.06	-390.48
183.279	-242.13
183.499	-182.99
183.719	-195.84
183.938	-207.77
184.158	-223.95
184.377	-121.25
184.597	-218.73
184.816	-119.27
185.036	-61.09
185.256	-18.99
185.475	-30.27
185.695	-32.7
185.914	-37.52
186.134	-41.91
186.353	-75.32
186.572	-151.27
186.792	-271.45
187.011	-48.69
187.231	-85.83
187.45	-48.74
187.67	-444.62
187.889	-1215.13
188.108	2278.48
188.328	-610.29
188.547	-176.34
188.766	-299.53
188.986	-316.97
189.205	-224.75
189.424	-184.65
189.644	-529.05
189.863	-559.74
190.082	-235.55
190.302	-617.41
190.521	-401.73
190.74	510.47
190.959	326.02
191.178	518.34
191.398	496.64
191.617	424.71
191.836	334.86
192.055	666.02
192.274	288.45
192.494	330.35
192.713	346.38
192.932	844.2
193.151	616.15
193.37	932.4
193.589	-592.27
193.808	-109.36
194.027	-110.08
194.246	-1397.21
194.465	377.66
194.685	1081.48
194.904	506.46
195.123	-536.99
195.342	-225.87
195.561	-98.84
195.78	-145.69
195.999	6495.77
196.218	296.99
196.436	367.44
196.655	-1602.59
196.874	-555.94
197.093	-542.5
197.312	-365.38
197.531	1296.96
197.75	508.76
197.969	-1729.55
198.188	-367.22
198.407	-58.89
198.625	-99.27
198.844	-46.51
199.063	-28.86
199.282	-141.13
199.501	-114.21
199.719	-78.92
199.938	-39.26
200.157	-37.31
200.376	-20.52
200.594	-56.17
200.813	-144.52
201.032	-90.45
201.251	-122.72
201.469	-84.36
201.688	-70.33
201.907	-177.07
202.125	-264.03
202.344	9065.48
202.563	2110.33
202.781	419.01
203	1119.53
203.218	1002.83
203.437	877.19
203.656	448.86
203.874	289.48
204.093	213.59
204.311	272.34
204.53	290.12
204.748	447.73
204.967	250.42
205.185	240.64
205.404	288.5
205.622	198.06
205.841	146.85
206.059	131.16
206.278	136.01
206.496	446.22
206.715	281.86
206.933	211.91
207.151	180.5
207.37	197.69
207.588	219.28
207.806	203.37
208.025	305.88
208.243	-700
208.461	1466.67
208.68	-14021.18
208.898	596.68
209.116	566.15
209.335	586.45
209.553	580.73
209.771	5951.67
209.989	1102.91
210.208	2250.95
210.426	-4245.05
210.644	2242.22
210.862	-1688.91
211.081	609.95
211.299	-203.9
211.517	1181.7
211.735	-232.82
211.953	-95600
212.171	-1737.65
212.39	-4740.54
212.608	-10789.13
212.826	514.66
213.044	372.43
213.262	266.77
213.48	1798.52
213.698	207.19
213.916	226.28
214.134	131.11
214.352	188.08
214.57	138.38
214.788	195.44
215.006	210.3
215.224	212.07
215.442	182.49
215.66	207.67
215.878	175.33
216.096	211
216.314	278.22
216.532	463.7
216.75	408.06
216.968	398.61
217.185	876.37
217.403	1597.42
217.621	-4329.55
217.839	-1100.79
218.057	-1251.68
218.275	2361.74
218.492	716.17
218.71	1070.59
218.928	354.96
219.146	341.21
219.363	290.89
219.581	231.95
219.799	190.5
220.017	179.83
220.234	169.21
220.452	173.8
220.67	197.29
220.887	204.33
221.105	191.54
221.323	172.96
221.54	158.56
221.758	173.64
221.976	185.91
222.193	147.54
222.411	100.19
222.629	133.72
222.846	122.7
223.064	119.32
223.281	106.39
223.499	98.93
223.716	92.27
223.934	74.25
224.151	81.9
224.369	64.21
224.586	62.12
224.804	73.02
225.021	60.91
225.239	52.81
225.456	65.32
225.674	54.3
225.891	54.98
226.108	70.74
226.326	61.88
226.543	48.82
226.76	56.91
226.978	55.24
227.195	59.71
227.413	46.03
227.63	44.8
227.847	32.89
228.064	28.36
228.282	24.94
228.499	19.64
228.716	20.8
228.934	20.07
229.151	20.12
229.368	19.95
229.585	16.75
229.802	21.29
230.02	19.59
230.237	22.15
230.454	26.25
230.671	28.65
230.888	29.43
231.105	31.45
231.323	31.51
231.54	28.81
231.757	25.9
231.974	25.23
232.191	19.76
232.408	23
232.625	16.56
232.842	12.35
233.059	13.54
233.276	14.2
233.493	15.27
233.71	18.15
233.927	20.02
234.144	21.25
234.361	19.21
234.578	22.34
234.795	20.34
235.012	22.87
235.229	23.69
235.446	25.23
235.663	26.86
235.879	24.2
236.096	22.01
236.313	19.71
236.53	21.66
236.747	26.47
236.964	23.1
237.181	24.05
237.397	22.85
237.614	22.62
237.831	23.16
238.048	21.27
238.264	24.43
238.481	23.13
238.698	29.97
238.915	28.04
239.131	25.8
239.348	28.12
239.565	28.27
239.781	27.99
239.998	25.11
240.215	19.94
240.431	20.79
240.648	19.22
240.865	19.52
241.081	16.04
241.298	16.72
241.514	17.2
241.731	14.75
241.947	15.63
242.164	14.81
242.38	15.35
242.597	15.69
242.814	15.3
243.03	13.89
243.246	14.46
243.463	16.22
243.679	16.48
243.896	14.67
244.112	16.77
244.329	15.31
244.545	16.42
244.762	16.31
244.978	16.05
245.194	15.81
245.411	17.41
245.627	15.85
245.843	13.63
246.06	12.23
246.276	14.64
246.492	13.79
246.709	13.19
246.925	12.84
247.141	12.29
247.357	12.29
247.574	11.98
247.79	11.55
248.006	10.47
248.222	10.74
248.439	10.64
248.655	10.59
248.871	10.46
249.087	10.47
249.303	9.1
249.519	9.09
249.736	9.11
249.952	8.62
250.168	10.77
250.384	13.41
250.6	12.41
250.816	12.72
251.032	9.17
251.248	8.78
251.464	9.55
251.68	12.08
251.896	13.8
252.112	15.3
252.328	15.83
252.544	15.01
252.76	14.87
252.976	15.8
253.192	16.23
253.408	18.76
253.624	21.83
253.84	22.23
254.056	23.58
254.272	22
254.487	19.29
254.703	20.04
254.919	19.24
255.135	18.01
255.351	19.21
255.567	19.75
255.782	20.93
255.998	17.06
256.214	16.47
256.43	12.49
256.646	15.88
256.861	16.97
257.077	18.63
257.293	17.03
257.508	18.32
257.724	17.61
257.94	16.64
258.155	14.19
258.371	12.23
258.587	12.04
258.802	12.31
259.018	11.94
259.234	11.06
259.449	10.19
259.665	9.93
259.88	10.46
260.096	9.57
260.312	9.12
260.527	8.8
260.743	9.68
260.958	9.48
261.174	9.63
261.389	9.36
261.605	9.74
261.82	10.02
262.036	10.12
262.251	9.67
262.466	9.94
262.682	10.52
262.897	11.86
263.113	10.9
263.328	12.58
263.543	12.99
263.759	13.41
263.974	14.99
264.189	16.16
264.405	16.84
264.62	16.73
264.835	18.57
265.051	18.62
265.266	19.91
265.481	21.49
265.696	20.92
265.912	19.96
266.127	18.67
266.342	15.86
266.557	14
266.773	13.98
266.988	14.08
267.203	14.1
267.418	13.63
267.633	10.77
267.848	10.96
268.064	9.09
268.279	10.1
268.494	10.12
268.709	10.47
268.924	11.08
269.139	11.93
269.354	11.41
269.569	9.38
269.784	9.18
269.999	10.5
270.214	9.18
270.429	12.82
270.644	11.95
270.859	11.11
271.074	11.19
271.289	10.59
271.504	9.91
271.719	9.94
271.934	10.88
272.149	11.75
272.363	11.98
272.578	11.8
272.793	9.76
273.008	9.7
273.223	10.38
273.438	10.71
273.653	11.42
273.867	11.79
274.082	11.6
274.297	10.67
274.512	10.37
274.726	9.69
274.941	10.08
275.156	11.05
275.371	11.58
275.585	11.73
275.8	12.6
276.015	11.02
276.229	10.3
276.444	10.65
276.659	11.48
276.873	12.05
277.088	12.42
277.302	12.78
277.517	12.77
277.732	13.43
277.946	13.63
278.161	13.85
278.375	14.78
278.59	14.39
278.804	15.28
279.019	16.01
279.233	14.15
279.448	14.03
279.662	12.18
279.877	12.59
280.091	12.45
280.306	10.42
280.52	10.29
280.735	9.41
280.949	9.56
281.163	9.18
281.378	7.27
281.592	7.83
281.806	8.2
282.021	8.78
282.235	8.45
282.449	8.01
282.664	9.16
282.878	8.3
283.092	9.86
283.307	10.42
283.521	10.21
283.735	11.52
283.949	12.19
284.164	12.52
284.378	12.37
284.592	10.62
284.806	9.91
285.02	9.76
285.234	9.18
285.449	8.07
285.663	8.2
285.877	7.91
286.091	7.71
286.305	7.09
286.519	6.21
286.733	6.4
286.947	7.39
287.161	7.9
287.375	8.85
287.589	10.43
287.803	10.6
288.017	10.83
288.231	10.23
288.445	10.57
288.659	11.66
288.873	12.03
289.087	12.43
289.301	11.85
289.515	12.33
289.729	10.65
289.943	10.16
290.157	10.38
290.371	10.98
290.584	11.64
290.798	11.99
291.012	12.2
291.226	11.93
291.44	12.18
291.654	12.69
291.867	12.27
292.081	11.47
292.295	11.74
292.509	11.59
292.722	10.73
292.936	10
293.15	9.53
293.364	9.2
293.577	10.77
293.791	9.63
294.005	11.11
294.218	11.08
294.432	12.38
294.645	11.96
294.859	11.54
295.073	11.72
295.286	12.75
295.5	12.49
295.713	12.45
295.927	11.22
296.14	12.15
296.354	11.28
296.568	10.67
296.781	11
296.994	11.09
297.208	11.37
297.421	11.53
297.635	11.3
297.848	10.84
298.062	9.93
298.275	10.92
298.489	11.25
298.702	11.44
298.915	12.32
299.129	12.83
299.342	12.82
299.555	13.4
299.769	13.03
299.982	13.47
300.195	14.25
300.409	15.34
300.622	14.94
300.835	15.13
301.048	14.23
301.262	12.85
301.475	12.11
301.688	12.64
301.901	13.14
302.115	13.01
302.328	13.2
302.541	12.64
302.754	13.23
302.967	13.33
303.18	12.7
303.393	13.91
303.607	15.01
303.82	14.86
304.033	14.6
304.246	15.28
304.459	15.13
304.672	14.6
304.885	15.44
305.098	14.92
305.311	14.63
305.524	14.6
305.737	14.59
305.95	15.43
306.163	14.74
306.376	13.84
306.589	11.35
306.802	11.83
307.015	12.57
307.228	12.4
307.44	11.81
307.653	11.41
307.866	10.78
308.079	11.64
308.292	11.58
308.505	12.88
308.718	13.11
308.93	13.73
309.143	14.29
309.356	13.14
309.569	13.03
309.781	13.68
309.994	13.73
310.207	14.77
310.42	12.86
310.632	12
310.845	11.89
311.058	11.57
311.27	11.93
311.483	10.54
311.696	11.17
311.908	11.65
312.121	11.81
312.333	12.81
312.546	11.89
312.759	13.08
312.971	13.26
313.184	13.74
313.396	13.24
313.609	13.99
313.821	15.55
314.034	15.56
314.246	15.07
314.459	14.35
314.671	13.14
314.884	13.3
315.096	12.6
315.309	12.13
315.521	13.25
315.733	13.57
315.946	10.52
316.158	10.64
316.371	10.27
316.583	10.79
316.795	11.22
317.008	11.78
317.22	13.19
317.432	13.27
317.644	14
317.857	11.71
318.069	12.83
318.281	13.61
318.494	12.71
318.706	13.68
318.918	12.63
319.13	13.32
319.342	12.33
319.555	11.28
319.767	12.58
319.979	12.16
320.191	12.36
320.403	12.47
320.615	13.87
320.827	14.02
321.039	13.18
321.252	13.48
321.464	13.96
321.676	14.7
321.888	13.93
322.1	12.96
322.312	11.6
322.524	10.58
322.736	10.49
322.948	9.25
323.16	8.71
323.372	8.62
323.584	8.39
323.796	6.19
324.007	6.14
324.219	6.93
324.431	7.16
324.643	7.75
324.855	8.02
325.067	7.84
325.279	8.42
325.491	8.88
325.702	8.25
325.914	9.13
326.126	10.58
326.338	11.05
326.55	10.99
326.761	11.39
326.973	11.35
327.185	13.11
327.396	14.07
327.608	14.86
327.82	14.98
328.032	16.74
328.243	16.34
328.455	16.55
328.666	16.28
328.878	16.09
329.09	15.21
329.301	16.66
329.513	16.17
329.725	15.45
329.936	14.67
330.148	15.07
330.359	14.08
330.571	13.69
330.782	13.11
330.994	13.17
331.205	14.76
331.417	14.26
331.628	14.13
331.84	14.29
332.051	14.55
332.262	15.72
332.474	15.1
332.685	16.3
332.897	16.75
333.108	17.58
333.319	17.3
333.531	16.8
333.742	18.67
333.953	18.08
334.165	18.14
334.376	18.07
334.587	17.82
334.799	18.46
335.01	17.22
335.221	16.78
335.432	15.65
335.644	14.78
335.855	15.16
336.066	14.79
336.277	14.64
336.488	14.56
336.7	13.44
336.911	14.07
337.122	12.99
337.333	13.57
337.544	14.87
337.755	15.46
337.966	15.6
338.177	15.02
338.388	14.72
338.599	15.76
338.811	15.29
339.022	16.27
339.233	15.69
339.444	16.73
339.655	14.89
339.866	13.78
340.076	14.41
340.287	16.21
340.498	15.91
340.709	15.82
340.92	15.43
341.131	15.94
341.342	15.68
341.553	15.2
341.764	15.8
341.975	17.92
342.185	18.27
342.396	17.59
342.607	16.88
342.818	16.97
343.029	17.19
343.239	17.32
343.45	17.05
343.661	16.93
343.872	16.79
344.082	16.34
344.293	15.8
344.504	17.68
344.714	17.01
344.925	16.02
345.136	16.19
345.346	14.9
345.557	14.91
345.768	14.65
345.978	15.03
346.189	15.3
346.399	14.72
346.61	15.62
346.821	13.76
347.031	14.52
347.242	15.02
347.452	14.84
347.663	15.91
347.873	16.06
348.084	15.83
348.294	16.01
348.504	15.93
348.715	16.45
348.925	14.96
349.136	14.75
349.346	14.34
349.557	15.06
349.767	15.98
349.977	15.28
350.188	15.53
350.398	16.32
350.608	15.4
350.819	15.89
351.029	15.32
351.239	15.96
351.449	15.69
351.66	15.96
351.87	16.2
352.08	15.26
352.29	15.47
352.501	13.86
352.711	13.49
352.921	14.33
353.131	13.75
353.341	14.05
353.552	13.49
353.762	14.3
353.972	14.1
354.182	13.89
354.392	13.57
354.602	13.24
354.812	14.13
355.022	14.06
355.232	13.83
355.442	13.54
355.652	14.28
355.862	14.4
356.072	14.61
356.282	14.7
356.492	14.16
356.702	14.57
356.912	15.33
357.122	15.2
357.332	15.07
357.542	15.04
357.752	14.93
357.962	14.4
358.171	14.61
358.381	14.1
358.591	14.33
358.801	14.23
359.011	14.31
359.221	14.07
359.43	14.57
359.64	14.91
359.85	15.05
360.06	15.96
360.269	15.82
360.479	15.72
360.689	15.4
360.899	15.27
361.108	15.46
361.318	15.37
361.528	15.16
361.737	14.45
361.947	13.85
362.156	13.66
362.366	13.31
362.576	13.3
362.785	13.12
362.995	13.14
363.204	12.99
363.414	13.09
363.623	12.73
363.833	13.52
364.042	14.13
364.252	14.83
364.461	14.9
364.671	14.59
364.88	14.87
365.09	15.55
365.299	16
365.509	15.62
365.718	15.07
365.927	15.31
366.137	15.11
366.346	14.75
366.555	13.92
366.765	13.88
366.974	14.51
367.183	14.3
367.393	13.11
367.602	12.47
367.811	13.07
368.021	12.75
368.23	12.92
368.439	12.34
368.648	12.23
368.857	13.25
369.067	13.35
369.276	12.61
369.485	12.65
369.694	13.15
369.903	13.51
370.112	12.99
370.321	13.5
370.531	12.97
370.74	12.8
370.949	12.9
371.158	12.37
371.367	12.28
371.576	12.19
371.785	11.54
371.994	11.52
372.203	11.7
372.412	11.69
372.621	12.05
372.83	12.49
373.039	12.84
373.248	12.57
373.457	12.71
373.666	12.39
373.874	12.4
374.083	13.08
374.292	12.97
374.501	12.53
374.71	12.36
374.919	12.14
375.128	11.63
375.336	11.14
375.545	11.33
375.754	10.94
375.963	10.87
376.171	10.8
376.38	10.45
376.589	11.05
376.798	10.71
377.006	11.36
377.215	11.31
377.424	11.4
377.632	11.71
377.841	11.59
378.05	11.66
378.258	11.9
378.467	11.83
378.675	12.06
378.884	11.42
379.093	11.64
379.301	11.09
379.51	10.71
379.718	10.73
379.927	10.76
380.135	10.62
380.344	10.62
380.552	9.96
380.761	10.07
380.969	9.66
381.177	10.18
381.386	10.02
381.594	10.02
381.803	10.46
382.011	10.34
382.219	10.14
382.428	9.86
382.636	9.66
382.845	10.31
383.053	10.57
383.261	10.42
383.469	10.12
383.678	10.48
383.886	10.3
384.094	9.74
384.302	9.93
384.511	9.88
384.719	9.91
384.927	9.92
385.135	9.84
385.343	9.87
385.552	10.23
385.76	10
385.968	9.58
386.176	9.37
386.384	9.74
386.592	9.44
386.8	9.47
387.008	9.93
387.216	9.95
387.424	9.99
387.633	9.9
387.841	9.41
388.049	9.42
388.257	9.37
388.465	9.51
388.672	9.66
388.88	9.72
389.088	9.9
389.296	9.27
389.504	9.56
389.712	9.52
389.92	8.99
390.128	9.19
390.336	9.29
390.544	9.81
390.751	9.64
390.959	9.43
391.167	9.31
391.375	9.09
391.583	9.31
391.79	9.12
391.998	8.96
392.206	9.36
392.414	9.14
392.621	9.29
392.829	8.97
393.037	9.09
393.244	8.77
393.452	8.97
393.66	8.79
393.867	8.87
394.075	8.75
394.283	8.96
394.49	8.78
394.698	8.93
394.905	8.56
395.113	8.43
395.32	8.48
395.528	8.67
395.735	8.62
395.943	8.51
396.15	8.46
396.358	8.64
396.565	8.45
396.773	8.79
396.98	8.66
397.188	8.71
397.395	8.59
397.602	8.57
397.81	8.56
398.017	8.68
398.225	8.74
398.432	8.93
398.639	8.67
398.847	8.64
399.054	8.11
399.261	8.11
399.468	8.19
399.676	8.36
399.883	8.45
400.09	8.38
400.297	8.42
400.505	8.92
400.712	8.78
400.919	9.25
401.126	9.29
401.333	9.39
401.54	9.56
401.748	9.31
401.955	9.39
402.162	9.08
402.369	9.17
402.576	8.94
402.783	8.6
402.99	8.56
403.197	8.19
403.404	7.85
403.611	8.06
403.818	8
404.025	8.17
404.232	8.16
404.439	8.15
404.646	7.95
404.853	7.66
405.06	7.5
405.267	7.33
405.474	7.33
405.681	7.4
405.887	7.24
406.094	7.12
406.301	7.11
406.508	7.04
406.715	7.21
406.922	7.21
407.128	7.44
407.335	7.57
407.542	7.67
407.749	7.88
407.955	8.23
408.162	8.12
408.369	8.49
408.575	8.21
408.782	7.95
408.989	7.88
409.195	7.78
409.402	8.04
409.609	8.13
409.815	8.18
410.022	7.98
410.228	7.65
410.435	7.81
410.642	7.61
410.848	8.02
411.055	8.18
411.261	8.21
411.468	8.52
411.674	8.09
411.881	7.93
412.087	8.12
412.294	8.14
412.5	8.12
412.706	7.88
412.913	7.94
413.119	7.66
413.326	7.29
413.532	7.37
413.738	7.06
413.945	7.5
414.151	7.38
414.357	7.34
414.564	7.33
414.77	7.46
414.976	7.59
415.182	7.6
415.389	7.65
415.595	7.86
415.801	7.78
416.007	8.03
416.214	7.62
416.42	7.65
416.626	7.42
416.832	7.32
417.038	7.13
417.244	7.28
417.45	7.03
417.657	7.2
417.863	7.42
418.069	7.56
418.275	7.52
418.481	7.51
418.687	7.52
418.893	7.51
419.099	7.48
419.305	7.77
419.511	7.63
419.717	7.69
419.923	7.58
420.129	7.44
420.335	7.23
420.541	7.18
420.746	7.24
420.952	7.28
421.158	7.18
421.364	7.12
421.57	6.98
421.776	7.04
421.982	7
422.187	6.86
422.393	6.9
422.599	6.87
422.805	6.9
423.01	6.87
423.216	6.66
423.422	6.66
423.628	6.71
423.833	6.63
424.039	6.65
424.245	6.7
424.45	6.84
424.656	6.82
424.862	6.91
425.067	6.98
425.273	7
425.478	7.16
425.684	7.22
425.889	7.39
426.095	7.49
426.301	7.47
426.506	7.46
426.712	7.4
426.917	7.32
427.123	7.45
427.328	7.35
427.533	7.42
427.739	7.45
427.944	7.55
428.15	7.18
428.355	7.08
428.561	7.02
428.766	7.03
428.971	7.08
429.177	7.07
429.382	6.99
429.587	6.98
429.793	6.91
429.998	6.88
430.203	6.81
430.408	7
430.614	7.19
430.819	7
431.024	7.17
431.229	7.12
431.434	7.29
431.64	7.22
431.845	7.21
432.05	7.21
432.255	7.15
432.46	6.86
432.665	6.94
432.87	6.84
433.076	6.97
433.281	6.99
433.486	7.01
433.691	6.78
433.896	6.64
434.101	6.61
434.306	6.7
434.511	6.7
434.716	6.99
434.921	7.01
435.126	6.87
435.331	6.83
435.535	6.71
435.74	6.61
435.945	6.73
436.15	6.74
436.355	6.84
436.56	6.83
436.765	6.9
436.97	6.8
437.174	6.66
437.379	6.86
437.584	6.96
437.789	6.84
437.993	6.99
438.198	6.98
438.403	7.06
438.608	7.03
438.812	6.84
439.017	6.85
439.222	6.84
439.426	6.92
439.631	6.9
439.836	6.81
440.04	7.07
440.245	6.96
440.45	6.92
440.654	6.88
440.859	6.71
441.063	6.78
441.268	6.72
441.472	6.75
441.677	6.67
441.881	6.54
442.086	6.57
442.29	6.32
442.495	6.36
442.699	6.46
442.904	6.48
443.108	6.62
443.312	6.64
443.517	6.63
443.721	6.54
443.925	6.61
444.13	6.65
444.334	6.7
444.538	6.72
444.743	6.77
444.947	6.71
445.151	6.7
445.356	6.61
445.56	6.62
445.764	6.6
445.968	6.64
446.173	6.61
446.377	6.62
446.581	6.5
446.785	6.51
446.989	6.51
447.193	6.52
447.398	6.45
447.602	6.4
447.806	6.47
448.01	6.61
448.214	6.64
448.418	6.56
448.622	6.58
448.826	6.68
449.03	6.65
449.234	6.6
449.438	6.47
449.642	6.38
449.846	6.52
450.05	6.43
450.254	6.27
450.458	6.39
450.662	6.51
450.866	6.37
451.069	6.21
451.273	6.21
451.477	6.09
451.681	6.05
451.885	6.03
452.089	6.02
452.292	5.94
452.496	5.97
452.7	5.88
452.904	5.88
453.107	5.98
453.311	6.14
453.515	6.1
453.719	5.93
453.922	6.09
454.126	6.21
454.33	6.29
454.533	6.23
454.737	6.18
454.94	6.2
455.144	6.21
455.348	6.26
455.551	6.25
455.755	6.23
455.958	6.53
456.162	6.38
456.365	6.46
456.569	6.29
456.772	6.32
456.976	6.29
457.179	6.22
457.383	6.14
457.586	6.21
457.79	6.16
457.993	6.19
458.196	6.03
458.4	6.26
458.603	6.28
458.807	6.43
459.01	6.63
459.213	6.59
459.417	6.51
459.62	6.51
459.823	6.3
460.026	6.24
460.23	6.29
460.433	6.43
460.636	6.35
460.839	6.33
461.042	6.3
461.246	6.21
461.449	6.22
461.652	6.28
461.855	6.11
462.058	6.28
462.261	6.17
462.464	6.03
462.668	6.07
462.871	6.11
463.074	6.15
463.277	5.97
463.48	5.97
463.683	5.98
463.886	6.07
464.089	6.33
464.292	6.44
464.495	6.7
464.698	6.72
464.901	6.51
465.104	6.54
465.306	6.49
465.509	6.6
465.712	6.42
465.915	6.47
466.118	6.29
466.321	6.24
466.524	6.22
466.726	6.24
466.929	6.47
467.132	6.67
467.335	6.56
467.538	6.34
467.74	6.28
467.943	6.52
468.146	6.54
468.348	6.67
468.551	6.71
468.754	6.65
468.956	6.49
469.159	6.36
469.362	6.27
469.564	6.17
469.767	6.45
469.969	6.55
470.172	6.41
470.375	6.38
470.577	6.4
470.78	6.31
470.982	6.28
471.185	6.38
471.387	6.49
471.59	6.48
471.792	6.59
471.995	6.5
472.197	6.42
472.399	6.34
472.602	6.25
472.804	6.21
473.007	6.28
473.209	6.22
473.411	6.2
473.614	6.08
473.816	6.06
474.018	6.02
474.22	6.05
474.423	6.21
474.625	6.2
474.827	6.42
475.03	6.48
475.232	6.5
475.434	6.62
475.636	6.58
475.838	6.62
476.04	6.61
476.243	6.58
476.445	6.66
476.647	6.44
476.849	6.43
477.051	6.33
477.253	6.39
477.455	6.51
477.657	6.45
477.859	6.45
478.061	6.33
478.263	6.31
478.465	6.35
478.667	6.26
478.869	6.35
479.071	6.32
479.273	6.25
479.475	5.97
479.677	5.77
479.879	5.76
480.081	5.81
480.283	5.84
480.485	5.82
480.686	5.86
480.888	5.91
481.09	5.97
481.292	5.91
481.494	5.95
481.695	6.09
481.897	6.03
482.099	5.95
482.301	5.99
482.502	6.01
482.704	6.04
482.906	6.01
483.107	6.01
483.309	5.95
483.511	6.02
483.712	5.97
483.914	5.93
484.115	5.93
484.317	5.96
484.519	5.91
484.72	5.91
484.922	5.87
485.123	5.87
485.325	5.8
485.526	5.8
485.728	5.76
485.929	5.77
486.131	5.79
486.332	5.85
486.534	5.83
486.735	5.83
486.936	5.81
487.138	5.8
487.339	5.81
487.541	5.91
487.742	5.89
487.943	5.91
488.144	5.87
488.346	5.83
488.547	5.82
488.748	5.81
488.95	5.78
489.151	5.79
489.352	5.83
489.553	5.78
489.755	5.7
489.956	5.75
490.157	5.78
490.358	5.9
490.559	5.98
490.76	5.96
490.961	5.93
491.163	6.02
491.364	6.07
491.565	5.97
491.766	6.03
491.967	6.05
492.168	5.98
492.369	5.94
492.57	5.84
492.771	5.78
492.972	5.86
493.173	5.91
493.374	5.84
493.575	5.79
493.776	5.91
493.976	5.93
494.177	6
494.378	6.11
494.579	6.11
494.78	6.39
494.981	6.56
495.182	6.45
495.382	6.52
495.583	6.46
495.784	6.48
495.985	6.52
496.185	6.44
496.386	6.33
496.587	6.4
496.788	6.35
496.988	6.32
497.189	6.23
497.39	6.25
497.59	6.17
497.791	6.22
497.992	6.18
498.192	6.17
498.393	6.21
498.593	6.29
498.794	6.08
498.994	6.16
499.195	6.06
499.395	6.17
499.596	6.31
499.796	6.32
499.997	6.38
500.197	6.55
500.398	6.58
500.598	6.51
500.799	6.48
500.999	6.66
501.199	6.64
501.4	6.72
501.6	6.61
501.801	6.45
502.001	6.52
502.201	6.59
502.402	6.49
502.602	6.37
502.802	6.49
503.002	6.54
503.203	6.65
503.403	6.67
503.603	6.64
503.803	6.69
504.003	6.74
504.204	6.84
504.404	6.82
504.604	6.79
504.804	7.09
505.004	7.12
505.204	7.11
505.404	7.09
505.604	7.25
505.804	7.19
506.005	7.08
506.205	7.12
506.405	7.2
506.605	7.26
506.805	7.35
507.005	7.26
507.204	7.28
507.404	7.41
507.604	7.4
507.804	7.29
508.004	7.51
508.204	7.61
508.404	7.57
508.604	7.45
508.804	7.41
509.003	7.46
509.203	7.4
509.403	7.39
509.603	7.35
509.803	7.44
510.002	7.49
510.202	7.43
510.402	7.43
510.602	7.51
510.801	7.58
511.001	7.72
511.201	7.75
511.4	7.77
511.6	7.73
511.8	7.72
511.999	7.75
512.199	7.73
512.398	7.73
512.598	7.77
512.797	7.76
512.997	7.93
513.197	7.83
513.396	7.99
513.596	8.01
513.795	8.31
513.994	8.31
514.194	8.3
514.393	8.37
514.593	8.41
514.792	8.49
514.992	8.46
515.191	8.23
515.39	8.2
515.59	7.99
515.789	8.03
515.988	7.92
516.188	7.93
516.387	7.9
516.586	7.85
516.786	7.9
516.985	7.9
517.184	8.04
517.383	8.22
517.582	8.35
517.782	8.4
517.981	8.36
518.18	8.28
518.379	8.41
518.578	8.33
518.777	8.43
518.976	8.39
519.176	8.46
519.375	8.47
519.574	8.43
519.773	8.4
519.972	8.33
520.171	8.34
520.37	8.36
520.569	8.31
520.768	8.46
520.967	8.5
521.166	8.55
521.365	8.49
521.564	8.57
521.762	8.7
521.961	8.7
522.16	8.86
522.359	8.9
522.558	8.94
522.757	8.91
522.956	8.77
523.154	8.68
523.353	8.77
523.552	8.86
523.751	8.74
523.949	8.66
524.148	8.78
524.347	8.76
524.546	8.78
524.744	8.72
524.943	8.78
525.142	8.95
525.34	9.15
525.539	9.1
525.737	9.19
525.936	9.22
526.135	9.14
526.333	9.02
526.532	9.03
526.73	9.15
526.929	9.18
527.127	9.19
527.326	9.21
527.524	9.15
527.723	9.24
527.921	9.17
528.12	9.23
528.318	9.31
528.516	9.39
528.715	9.36
528.913	9.31
529.112	9.36
529.31	9.36
529.508	9.36
529.707	9.35
529.905	9.33
530.103	9.38
530.301	9.38
530.5	9.4
530.698	9.36
530.896	9.47
531.094	9.59
531.293	9.62
531.491	9.69
531.689	9.74
531.887	9.84
532.085	9.87
532.283	9.86
532.481	9.91
532.68	9.85
532.878	9.92
533.076	9.9
533.274	9.81
533.472	9.87
533.67	9.77
533.868	9.73
534.066	9.72
534.264	9.62
534.462	9.6
534.66	9.61
534.858	9.68
535.056	9.62
535.253	9.58
535.451	9.64
535.649	9.57
535.847	9.89
536.045	9.94
536.243	10.05
536.441	10.28
536.638	10.44
536.836	10.48
537.034	10.45
537.232	10.6
537.43	10.72
537.627	10.8
537.825	10.8
538.023	10.71
538.22	10.78
538.418	10.71
538.616	10.69
538.813	10.72
539.011	10.81
539.209	10.99
539.406	11.1
539.604	11.3
539.801	11.44
539.999	11.64
540.196	11.7
540.394	11.82
540.591	11.88
540.789	11.84
540.986	11.77
541.184	11.8
541.381	11.76
541.579	11.8
541.776	11.68
541.974	11.59
542.171	11.55
542.368	11.53
542.566	11.49
542.763	11.55
542.96	11.61
543.158	11.71
543.355	11.7
543.552	11.81
543.75	11.88
543.947	11.91
544.144	11.96
544.341	12.14
544.539	12.28
544.736	12.3
544.933	12.18
545.13	12.22
545.327	12.2
545.524	12.24
545.722	12.25
545.919	12.18
546.116	12.32
546.313	12.41
546.51	12.34
546.707	12.38
546.904	12.5
547.101	12.73
547.298	12.81
547.495	12.76
547.692	12.73
547.889	12.74
548.086	12.8
548.283	12.86
548.48	12.91
548.677	12.92
548.874	12.92
549.07	13
549.267	13
549.464	13.03
549.661	13.27
549.858	13.49
550.055	13.71
550.251	13.92
550.448	13.93
550.645	14.02
550.842	14.15
551.038	14.23
551.235	14
551.432	14.09
551.628	14.04
551.825	14.12
552.022	14.21
552.218	14.24
552.415	14.11
552.612	14.06
552.808	14.12
553.005	14.13
553.201	14.4
553.398	14.55
553.594	14.54
553.791	14.81
553.987	14.84
554.184	14.92
554.38	14.96
554.577	14.97
554.773	15.29
554.97	15.38
555.166	15.61
555.362	15.4
555.559	15.69
555.755	15.8
555.952	15.78
556.148	15.77
556.344	15.73
556.541	15.66
556.737	15.76
556.933	15.85
557.129	15.64
557.326	15.66
557.522	15.9
557.718	15.95
557.914	16.03
558.11	16.23
558.307	16.31
558.503	16.47
558.699	16.62
558.895	16.91
559.091	16.96
559.287	17.26
559.483	17.31
559.679	17.4
559.876	17.33
560.072	17.43
560.268	17.37
560.464	17.42
560.66	17.37
560.856	17.53
561.052	17.54
561.247	17.5
561.443	17.59
561.639	17.54
561.835	17.6
562.031	17.67
562.227	17.61
562.423	17.72
562.619	17.98
562.815	18.34
563.01	18.42
563.206	18.35
563.402	18.45
563.598	18.52
563.793	18.66
563.989	18.56
564.185	18.7
564.381	18.93
564.576	19.07
564.772	18.95
564.968	18.89
565.163	18.81
565.359	18.64
565.555	18.74
565.75	18.91
565.946	18.91
566.141	18.99
566.337	18.99
566.532	19.05
566.728	19.07
566.923	19.25
567.119	19.16
567.314	19.28
567.51	19.83
567.705	19.91
567.901	19.84
568.096	20.05
568.292	20.12
568.487	20.15
568.682	20.18
568.878	20.31
569.073	20.33
569.268	20.41
569.464	20.6
569.659	20.48
569.854	20.7
570.05	20.86
570.245	20.88
570.44	21.06
570.635	21.3
570.831	21.24
571.026	21.29
571.221	21.3
571.416	21.32
571.611	21.32
571.806	21.33
572.002	21.2
572.197	21.29
572.392	21.39
572.587	21.48
572.782	21.54
572.977	21.89
573.172	21.92
573.367	22.07
573.562	22.3
573.757	22.17
573.952	22.35
574.147	22.55
574.342	22.68
574.537	22.75
574.732	22.61
574.927	22.63
575.121	22.64
575.316	22.66
575.511	22.6
575.706	22.59
575.901	22.88
576.096	22.86
576.29	22.82
576.485	22.84
576.68	22.94
576.875	23.12
577.069	23.21
577.264	23.1
577.459	23.4
577.654	23.67
577.848	23.86
578.043	23.97
578.238	24.06
578.432	24.04
578.627	24.09
578.821	24.08
579.016	24.06
579.21	24.25
579.405	24.29
579.6	24.23
579.794	24.11
579.989	23.91
580.183	23.84
580.378	23.87
580.572	24.18
580.766	24.21
580.961	24.09
581.155	24.31
581.35	24.25
581.544	24.42
581.738	24.24
581.933	24.43
582.127	24.85
582.321	24.96
582.516	25.11
582.71	25.17
582.904	25.38
583.099	25.36
583.293	25.28
583.487	25.49
583.681	25.62
583.875	25.66
584.07	25.77
584.264	25.45
584.458	25.35
584.652	25.28
584.846	25.18
585.04	25.1
585.234	25.5
585.428	25.51
585.623	25.25
585.817	25.02
586.011	25.12
586.205	25.22
586.399	25.33
586.593	25.52
586.787	25.73
586.981	25.69
587.174	25.5
587.368	25.33
587.562	25.64
587.756	25.71
587.95	25.99
588.144	26.28
588.338	26.18
588.532	26.42
588.725	26.5
588.919	26.56
589.113	26.69
589.307	26.93
589.501	26.95
589.694	26.75
589.888	26.91
590.082	26.9
590.275	26.8
590.469	27.06
590.663	26.83
590.856	26.96
591.05	26.76
591.244	26.68
591.437	26.66
591.631	26.63
591.824	26.76
592.018	26.75
592.212	26.83
592.405	26.83
592.599	26.67
592.792	26.79
592.986	26.79
593.179	27.16
593.372	27.25
593.566	27.43
593.759	27.76
593.953	27.74
594.146	27.78
594.339	27.97
594.533	28.16
594.726	28.32
594.92	28.31
595.113	28.27
595.306	28.07
595.499	28.02
595.693	28.01
595.886	28.07
596.079	28.23
596.272	28.21
596.466	28.16
596.659	28.05
596.852	27.9
597.045	27.97
597.238	28.12
597.431	28.17
597.624	28.28
597.818	28.33
598.011	28.11
598.204	27.86
598.397	28.08
598.59	27.94
598.783	27.93
598.976	27.95
599.169	27.95
599.362	27.98
599.555	28.1
599.748	28.37
599.941	28.22
600.134	28.38
600.326	28.78
600.519	28.71
600.712	28.65
600.905	28.7
601.098	28.93
601.291	29.23
601.483	29.15
601.676	29.29
601.869	29.24
602.062	29.53
602.255	29.42
602.447	29.3
602.64	29.24
602.833	29.56
603.025	29.53
603.218	29.37
603.411	29.37
603.603	29.3
603.796	29.08
603.989	29.12
604.181	29.12
604.374	29.37
604.566	29.37
604.759	29.36
604.951	29.32
605.144	29.41
605.336	29.56
605.529	29.22
605.721	29.33
605.914	29.42
606.106	29.39
606.299	29.26
606.491	29.14
606.683	29.23
606.876	29.28
607.068	29.39
607.26	29.41
607.453	29.44
607.645	29.88
607.837	29.77
608.03	30.02
608.222	29.93
608.414	30.32
608.606	30.52
608.799	30.59
608.991	30.56
609.183	30.52
609.375	30.62
609.567	30.43
609.759	30.37
609.952	30.53
610.144	30.45
610.336	30.49
610.528	30.3
610.72	30.18
610.912	30.42
611.104	30.6
611.296	30.53
611.488	30.46
611.68	30.6
611.872	30.53
612.064	30.54
612.256	30.7
612.448	30.89
612.64	30.7
612.832	30.69
613.023	30.48
613.215	30.48
613.407	30.52
613.599	30.87
613.791	30.96
613.983	31.12
614.174	30.93
614.366	30.77
614.558	31.03
614.75	31.1
614.941	31.21
615.133	31.16
615.325	31.29
615.516	31.63
615.708	31.19
615.9	31.31
616.091	31.24
616.283	31.55
616.475	31.37
616.666	31.18
616.858	31.62
617.049	31.31
617.241	31.39
617.432	31.34
617.624	31.37
617.815	31.38
618.007	31.39
618.198	31.61
618.39	31.42
618.581	31.69
618.773	31.56
618.964	31.3
619.155	31.62
619.347	31.54
619.538	31.6
619.729	31.34
619.921	31.34
620.112	31.4
620.303	31.24
620.494	31.47
620.686	31.54
620.877	31.42
621.068	31.5
621.259	31.64
621.451	31.89
621.642	31.66
621.833	31.76
622.024	32.13
622.215	32.18
622.406	32.43
622.597	32.48
622.788	32.5
622.98	32.6
623.171	32.5
623.362	32.56
623.553	32.69
623.744	32.63
623.935	32.64
624.126	32.47
624.317	32.14
624.508	31.95
624.698	31.88
624.889	31.91
625.08	32.46
625.271	32.84
625.462	32.95
625.653	32.87
625.844	33.14
626.034	33
626.225	33.01
626.416	33.17
626.607	33.26
626.798	33.26
626.988	33.35
627.179	32.95
627.37	32.6
627.56	32.52
627.751	32.59
627.942	32.59
628.132	32.59
628.323	32.74
628.514	32.84
628.704	32.76
628.895	32.57
629.085	32.44
629.276	32.65
629.466	32.78
629.657	32.79
629.847	32.75
630.038	32.72
630.228	32.85
630.419	32.77
630.609	32.63
630.8	32.5
630.99	32.85
631.181	32.58
631.371	32.63
631.561	32.72
631.752	32.73
631.942	32.53
632.132	32.61
632.323	32.51
632.513	32.55
632.703	32.84
632.893	33.06
633.084	32.82
633.274	32.89
633.464	32.62
633.654	32.55
633.844	32.44
634.034	32.3
634.225	32.25
634.415	32.21
634.605	32.23
634.795	32.08
634.985	32.12
635.175	32.33
635.365	32.56
635.555	32.89
635.745	33.02
635.935	32.97
636.125	32.94
636.315	33.12
636.505	33.44
636.695	33.33
636.885	33.14
637.075	33.16
637.265	33.03
637.455	32.76
637.644	32.69
637.834	32.73
638.024	32.65
638.214	32.99
638.404	33.08
638.593	33.24
638.783	33.52
638.973	33.86
639.163	33.59
639.352	33.69
639.542	34.09
639.732	34.25
639.921	34.13
640.111	34.52
640.301	34.49
640.49	34.17
640.68	33.88
640.87	34.02
641.059	34.01
641.249	34.35
641.438	34.59
641.628	34.33
641.817	34.16
642.007	34.28
642.196	33.96
642.386	34.33
642.575	34.65
642.764	34.44
642.954	34.08
643.143	34.24
643.333	34.1
643.522	34.01
643.711	34.31
643.901	34.19
644.09	34.45
644.279	34.89
644.469	34.35
644.658	34.27
644.847	34.45
645.036	34.74
645.226	34.75
645.415	34.95
645.604	34.98
645.793	35.22
645.982	35.08
646.171	34.62
646.361	34.93
646.55	35.37
646.739	35.14
646.928	35.25
647.117	35.14
647.306	35.17
647.495	35.32
647.684	35.47
647.873	35.31
648.062	35.7
648.251	35.9
648.44	35.83
648.629	35.53
648.818	35.65
649.007	35.25
649.196	35.44
649.384	35.35
649.573	34.84
649.762	34.54
649.951	34.33
650.14	34.44
650.328	34.88
650.517	34.65
650.706	34.87
650.895	35.05
651.083	35.64
651.272	35.32
651.461	35.66
651.65	36.3
651.838	36.01
652.027	36.07
652.216	35.69
652.404	35.63
652.593	35.78
652.781	35.7
652.97	35.54
653.158	35.53
653.347	35.95
653.535	35.67
653.724	34.97
653.912	35.74
654.101	35.92
654.289	36.11
654.478	35.88
654.666	35.85
654.855	36.08
655.043	35.92
655.231	35.67
655.42	35.71
655.608	35.74
655.796	36
655.985	35.81
656.173	35.83
656.361	36.01
656.55	35.91
656.738	35.48
656.926	35.51
657.114	36.08
657.302	36.42
657.491	35.91
657.679	35.84
657.867	36.03
658.055	35.9
658.243	35.86
658.431	36.12
658.619	36.28
658.807	36.55
658.996	36.57
659.184	35.98
659.372	35.85
659.56	36.15
659.748	35.96
659.936	36.06
660.124	36.24
660.311	36.42
660.499	35.92
660.687	35.83
660.875	35.79
661.063	35.69
661.251	36.14
661.439	36.06
661.627	36.11
661.814	36.16
662.002	36.22
662.19	35.91
662.378	35.78
662.565	36.26
662.753	36.23
662.941	36.31
663.129	36.3
663.316	36.07
663.504	36.05
663.692	36.06
663.879	36.41
664.067	36.27
664.254	36.39
664.442	36.49
664.63	36.12
664.817	36.63
665.005	36.64
665.192	36.81
665.38	37.04
665.567	36.96
665.755	37.02
665.942	37.17
666.13	37.22
666.317	37.41
666.504	37.3
666.692	37.73
666.879	37.41
667.067	37.15
667.254	36.86
667.441	36.65
667.629	36.94
667.816	36.55
668.003	36.28
668.19	36.14
668.378	35.8
668.565	35.5
668.752	35.14
668.939	34.84
669.127	34.72
669.314	34.87
669.501	35.02
669.688	34.76
669.875	34.9
670.062	34.95
670.249	35.36
670.436	35.52
670.623	35.57
670.81	35.61
670.997	35.68
671.184	35.58
671.371	35.94
671.558	36.22
671.745	36.84
671.932	37.08
672.119	36.58
672.306	36.06
672.493	36.31
672.68	36.92
672.867	37.39
673.054	37.65
673.24	38.33
673.427	38.19
673.614	38.05
673.801	38.03
673.988	38.17
674.174	38.71
674.361	39.1
674.548	38.71
674.734	38.49
674.921	38.16
675.108	38.54
675.294	37.72
675.481	37.89
675.668	37.83
675.854	37.14
676.041	37.26
676.227	37.56
676.414	37.81
676.601	38.59
676.787	38.8
676.974	38.83
677.16	38.32
677.347	38.85
677.533	38.47
677.719	38.3
677.906	38.47
678.092	38.22
678.279	37.79
678.465	37.39
678.651	36.91
678.838	37.15
679.024	37.11
679.21	36.92
679.397	37.52
679.583	38.06
679.769	38.42
679.955	38.59
680.142	38.77
680.328	39.47
680.514	39.23
680.7	38.67
680.886	38.4
681.073	38.41
681.259	38.72
681.445	38.48
681.631	37.82
681.817	37.72
682.003	37.68
682.189	37.21
682.375	36.7
682.561	37.05
682.747	37.9
682.933	37.65
683.119	37.7
683.305	37.5
683.491	37.51
683.677	37.83
683.863	37.82
684.049	37.9
684.235	37.74
684.42	37.94
684.606	38.04
684.792	38.32
684.978	37.99
685.164	37.92
685.349	38.26
685.535	38.28
685.721	37.95
685.907	37.93
686.092	37.64
686.278	38.24
686.464	37.54
686.649	37.35
686.835	37.05
687.021	37.84
687.206	38.17
687.392	37.83
687.577	37.64
687.763	37.85
687.948	37.49
688.134	37.49
688.319	37.5
688.505	38.38
688.69	38.6
688.876	38.58
689.061	38.56
689.247	38.6
689.432	38.95
689.618	38.76
689.803	39.21
689.988	39.44
690.174	39.53
690.359	39.51
690.544	39.25
690.73	39.25
690.915	39.1
691.1	39.02
691.285	38.87
691.471	39.22
691.656	39.44
691.841	38.96
692.026	39.39
692.211	40.11
692.396	40.24
692.582	40.15
692.767	40.13
692.952	40.26
693.137	39.83
693.322	39.48
693.507	39.1
693.692	39.09
693.877	39.14
694.062	38.99
694.247	38.33
694.432	38.54
694.617	39.22
694.802	39.11
694.987	39.45
695.172	39.89
695.357	40.24
695.541	40.18
695.726	40.64
695.911	41.08
696.096	40.97
696.281	41.13
696.466	40.75
696.65	40.07
696.835	40.13
697.02	39.77
697.204	39.49
697.389	39.26
697.574	39.21
697.759	39
697.943	38.68
698.128	38.56
698.312	38.5
698.497	38.07
698.682	38.03
698.866	37.97
699.051	38.09
699.235	38
699.42	38.33
699.604	38.26
699.789	37.78
699.973	37.96
700.158	38.47
700.342	38.6
700.527	39.41
700.711	39.76
700.895	39.84
701.08	39.74
701.264	40.31
701.448	40.19
701.633	40.37
701.817	41.19
702.001	40.88
702.186	40.5
702.37	40.58
702.554	40.21
702.738	40.28
702.923	40.38
703.107	40.38
703.291	40.76
703.475	40.49
703.659	40.62
703.843	40.29
704.027	40.93
704.212	40.39
704.396	40.49
704.58	40.59
704.764	40.41
704.948	39.93
705.132	39.81
705.316	39.53
705.5	40.48
705.684	40.67
705.868	40.75
706.052	39.97
706.235	40.48
706.419	40.73
706.603	40.44
706.787	40.5
706.971	41.67
707.155	41.53
707.339	41.22
707.522	40.84
707.706	40.4
707.89	40.47
708.074	40.67
708.257	40.3
708.441	40.33
708.625	40.65
708.808	40.77
708.992	40.41
709.176	40.84
709.359	40.49
709.543	40.49
709.727	40.86
709.91	40.95
710.094	40.93
710.277	41.99
710.461	41.41
710.644	41.17
710.828	40.89
711.011	40.93
711.195	41.26
711.378	41.84
711.562	41.85
711.745	41.36
711.928	41.3
712.112	41.17
712.295	41
712.478	41.55
712.662	42.08
712.845	42.19
713.028	41.77
713.212	41.28
713.395	40.66
713.578	40.72
713.761	40.98
713.945	40.64
714.128	40.79
714.311	40.54
714.494	40.28
714.677	39.86
714.86	39.88
715.043	40.23
715.227	40.48
715.41	40.95
715.593	40.93
715.776	41.11
715.959	41.33
716.142	42.07
716.325	41.42
716.508	41.29
716.691	41.68
716.874	41.55
717.057	41.51
717.239	41.64
717.422	41.32
717.605	41.03
717.788	40.43
717.971	40.9
718.154	40.63
718.337	41.3
718.519	41.14
718.702	41.35
718.885	41.42
719.068	41.95
719.25	42.12
719.433	42.48
719.616	42.66
719.798	42.7
719.981	43.25
720.164	42.19
720.346	41.8
720.529	42.58
720.712	41.86
720.894	42.11
721.077	41.05
721.259	40.33
721.442	40.77
721.624	40.86
721.807	42.02
721.989	40.93
722.172	42.19
722.354	42.91
722.537	42.59
722.719	42.78
722.901	42.55
723.084	42.71
723.266	42.6
723.448	42.85
723.631	42.71
723.813	42.22
723.995	41.89
724.178	41.38
724.36	41.21
724.542	41.47
724.724	41.87
724.907	41.96
725.089	42.41
725.271	43.71
725.453	43.01
725.635	42.62
725.817	43.41
725.999	44.38
726.181	44.61
726.364	43.55
726.546	43.38
726.728	43.24
726.91	42.7
727.092	42.4
727.274	41.2
727.456	41.75
727.638	42.34
727.819	41.61
728.001	41.07
728.183	41.19
728.365	41.77
728.547	41.2
728.729	41.43
728.911	41.97
729.093	41.93
729.274	42.02
729.456	41.83
729.638	42.02
729.82	42.08
730.001	41.53
730.183	41.44
730.365	41.37
730.546	41.66
730.728	40.26
730.91	40.99
731.091	40.95
731.273	40.51
731.455	40.25
731.636	40.09
731.818	40.55
731.999	41.02
732.181	41.23
732.362	41.52
732.544	42.31
732.725	43.51
732.907	42.84
733.088	43.67
733.27	45.04
733.451	44.69
733.633	45.94
733.814	45.29
733.995	45.81
734.177	45.3
734.358	45.1
734.539	44.73
734.721	44.57
734.902	44.63
735.083	43.78
735.264	43.81
735.446	44.35
735.627	42.42
735.808	42.51
735.989	41.72
736.17	41.89
736.351	42.08
736.533	41.9
736.714	41.71
736.895	41.48
737.076	41.58
737.257	40.75
737.438	40.16
737.619	41.12
737.8	41.43
737.981	41.83
738.162	42.35
738.343	42.61
738.524	41.91
738.705	42.31
738.886	42.5
739.067	42.82
739.247	42.24
739.428	42.83
739.609	42.69
739.79	43.17
739.971	42.96
740.151	42.56
740.332	43.17
740.513	42.91
740.694	43.48
740.874	43.54
741.055	43.77
741.236	44.12
741.417	44.29
741.597	43.54
741.778	43.26
741.958	43.9
742.139	43.75
742.32	43.14
742.5	45.24
742.681	44.69
742.861	44.39
743.042	43.7
743.222	43.84
743.403	43.65
743.583	44.01
743.764	43.84
743.944	43.14
744.124	43.3
744.305	43.13
744.485	42.2
744.666	40.8
744.846	41.51
745.026	42.85
745.207	42.84
745.387	43.23
745.567	43.92
745.747	44.1
745.928	44.18
746.108	44.41
746.288	44.1
746.468	43.47
746.648	44.41
746.829	44.19
747.009	44.1
747.189	44.96
747.369	44.7
747.549	43.56
747.729	43.39
747.909	43.73
748.089	42.98
748.269	43.62
748.449	44.74
748.629	44.86
748.809	44.58
748.989	43.98
749.169	43.75
749.349	43.79
749.529	44.8
749.709	43.78
749.889	44.05
750.068	44.36
750.248	45.06
750.428	45.04
750.608	45.26
750.788	45.48
750.967	44.92
751.147	44.85
751.327	44.82
751.507	43.7
751.686	44.84
751.866	45.18
752.046	44.96
752.225	44.35
752.405	43.54
752.585	43.59
752.764	43.18
752.944	43.67
753.123	43.82
753.303	43.9
753.482	45.72
753.662	45.25
753.841	44
754.021	44.07
754.2	44.15
754.38	43.9
754.559	43.57
754.739	43.46
754.918	43.62
755.097	42.8
755.277	42.5
755.456	41.67
755.635	41.67
755.815	43.23
755.994	43.67
756.173	43.36
756.352	42.83
756.532	42.31
756.711	43.05
756.89	42.8
757.069	43.62
757.248	43.69
757.427	42.74
757.607	43.04
757.786	42.18
757.965	41.3
758.144	40.69
758.323	42.23
758.502	42.26
758.681	41.15
758.86	40.82
759.039	40.46
759.218	40.69
759.397	41.79
759.576	41.27
759.755	40.77
759.934	41.71
760.113	42.62
760.291	41.55
760.47	42.51
760.649	42.92
760.828	43.11
761.007	42.82
761.186	42.4
761.364	41.93
761.543	42.56
761.722	42.41
761.901	42.28
762.079	42.41
762.258	42.78
762.437	41.89
762.615	41.82
762.794	41.83
762.972	41.79
763.151	41.98
763.33	42.05
763.508	41.51
763.687	41.47
763.865	41.9
764.044	41.16
764.222	40.47
764.401	40.89
764.579	41.02
764.758	40.63
764.936	40.91
765.114	40.74
765.293	40.5
765.471	41.54
765.65	42.47
765.828	42.27
766.006	42.94
766.184	43.69
766.363	43.71
766.541	43.3
766.719	44.74
766.898	45.34
767.076	45.32
767.254	46.1
767.432	45.74
767.61	45.21
767.788	44.88
767.967	44.5
768.145	44.67
768.323	44.52
768.501	45.23
768.679	44.58
768.857	43.47
769.035	44.36
769.213	44.74
769.391	44.51
769.569	44.32
769.747	45.24
769.925	45.22
770.103	43.88
770.281	44.12
770.459	45.39
770.636	43.55
770.814	43.74
770.992	43.32
771.17	43.31
771.348	43.76
771.525	44.79
771.703	43.76
771.881	45.39
772.059	46.86
772.236	46.78
772.414	45.77
772.592	46.99
772.769	46.73
772.947	45.81
773.125	44.89
773.302	44.75
773.48	46.48
773.657	47.44
773.835	45.06
774.013	45.52
774.19	46.96
774.368	45.96
774.545	46.29
774.723	47.05
774.9	46.65
775.077	47.6
775.255	46.52
775.432	44.81
775.61	43.81
775.787	44.61
775.964	44.01
776.142	43.49
776.319	45.47
776.496	46.44
776.674	46.09
776.851	48.64
777.028	47.45
777.205	47.98
777.382	47.39
777.56	47.55
777.737	50.15
777.914	50.03
778.091	50.12
778.268	50.18
778.445	49.4
778.622	49.45
778.8	48.73
778.977	49.49
779.154	56.11
779.331	55.46
779.508	55.82
779.685	53.43
779.862	53.79
780.038	53.67
780.215	54.25
780.392	53.62
780.569	54.08
780.746	54.41
780.923	53.96
781.1	49.82
781.277	49.32
781.453	49.29
781.63	49
781.807	48.95
781.984	47.16
782.16	45.92
782.337	47.28
782.514	46.59
782.691	47.79
782.867	46.98
783.044	42.95
783.221	43.59
783.397	44.58
783.574	44.29
783.75	44.49
783.927	45.52
784.103	46.78
784.28	46.38
784.456	46.54
784.633	46.9
784.809	47.85
784.986	48.59
785.162	49.4
785.339	47.69
785.515	47.56
785.692	47.53
785.868	48.23
786.044	47.13
786.221	46.49
786.397	46.13
786.573	44.65
786.749	44.54
786.926	46.9
787.102	46.42
787.278	47.13
787.454	48.34
787.631	48.04
787.807	47.18
787.983	43.94
788.159	43.1
788.335	43.52
788.511	42.12
788.687	44.02
788.863	43
789.039	43.15
789.216	42.61
789.392	43.02
789.568	44.74
789.744	46.44
789.919	47.6
790.095	47.7
790.271	49.17
790.447	51.51
790.623	50.96
790.799	52.26
790.975	51.77
791.151	53.23
791.327	53.65
791.502	52.65
791.678	51.34
791.854	54.33
792.03	57.64
792.205	57.87
792.381	55.63
792.557	56.3
792.733	55.72
792.908	56.3
793.084	53.72
793.259	53.87
793.435	53.47
793.611	54.1
793.786	51.09
793.962	49.17
794.137	48.6
794.313	49.27
794.488	47.18
794.664	49.05
794.839	49.23
795.015	51.03
795.19	49.43
795.366	49.18
795.541	49.01
795.716	48.54
795.892	49.83
796.067	48.97
796.242	46.69
796.418	43.93
796.593	41.85
796.768	42.13
796.944	41.14
797.119	41.31
797.294	42.01
797.469	41.76
797.644	42.99
797.82	41.46
797.995	40.64
798.17	42.33
798.345	47.04
798.52	46.77
798.695	46.22
798.87	47.3
799.045	48.21
799.22	49.57
799.395	48.85
799.57	50.89
799.745	50.72
799.92	51.11
800.095	51.99
800.27	50.16
800.445	50.15
800.62	49.97
800.795	52.93
800.97	52.05
801.145	49.67
801.319	51.42
801.494	49.83
801.669	50.27
801.844	50.82
802.018	49.85
802.193	50.14
802.368	49.42
802.543	49.18
802.717	46.99
802.892	46.52
803.067	45.69
803.241	44.98
803.416	46.41
803.59	47.42
803.765	47.54
803.94	49.9
804.114	48.64
804.289	51.15
804.463	51.4
804.638	48.75
804.812	52.41
804.986	53.06
805.161	51.52
805.335	51.47
805.51	49.5
805.684	49.02
805.858	46.22
806.033	44.52
806.207	44.2
806.381	46.64
806.556	47.19
806.73	45.17
806.904	44.62
807.078	43.91
807.253	41.74
807.427	41.1
807.601	41.77
807.775	43.02
807.949	46.86
808.123	46.38
808.298	43.53
808.472	44.71
808.646	44.82
808.82	43.24
808.994	45.34
809.168	47.76
809.342	50.28
809.516	51.18
809.69	50.71
809.864	48.87
810.038	51.15
810.212	52.92
810.385	51.68
810.559	52.81
810.733	57.62
810.907	55.81
811.081	53.24
811.255	50.44
811.428	48.15
811.602	49.74
811.776	52.75
811.95	48.44
812.123	46.65
812.297	49.05
812.471	46.44
812.644	43.65
812.818	46
812.992	44.46
813.165	47.64
813.339	47.89
813.512	45.81
813.686	45.4
813.86	47.21
814.033	47.68
814.207	44.66
814.38	43.1
814.554	45.86
814.727	44.73
814.9	47.35
815.074	46.91
815.247	48.03
815.421	46.99
815.594	47.4
815.767	44.98
815.941	45.56
816.114	47.06
816.287	50.79
816.46	49.44
816.634	50.22
816.807	52.54
816.98	51.97
817.153	53.56
817.327	54.6
817.5	51.78
817.673	52.63
817.846	53.94
818.019	53.62
818.192	52.58
818.365	51.64
818.538	51.94
818.711	48.16
818.884	49.26
819.057	46.47
819.23	47.75
819.403	45.34
819.576	44.83
819.749	42.01
819.922	42.29
820.095	40.58
820.268	40.57
820.441	40.96
820.614	39.39
820.786	37.82
820.959	38.06
821.132	37.07
821.305	37.22
821.477	37.03
821.65	37.77
821.823	37.59
821.996	37.58
822.168	37.3
822.341	36.94
822.514	37.8
822.686	37.71
822.859	37.82
823.031	37.95
823.204	38.49
823.376	38.61
823.549	38.4
823.722	38.17
823.894	38.27
824.067	38.41
824.239	38.66
824.411	38.79
824.584	39.02
824.756	39.41
824.929	39.32
825.101	39.68
825.273	39.61
825.446	39.88
825.618	40
825.79	40.73
825.963	40.03
826.135	39.65
826.307	38.85
826.479	39.48
826.652	38.28
826.824	37.76
826.996	36.81
827.168	37.12
827.34	37.4
827.512	37.33
827.684	36.3
827.856	37.78
828.029	37.92
828.201	38.03
828.373	36.68
828.545	37.78
828.717	38.68
828.889	38.55
829.061	38.83
829.232	38.94
829.404	39.07
829.576	40.42
829.748	39.52
829.92	40.78
830.092	41.89
830.264	43.42
830.436	44.07
830.607	44.92
830.779	47.76
830.951	47.61
831.123	45.86
831.294	45.38
831.466	43.15
831.638	43.42
831.809	40.78
831.981	43.18
832.153	42.99
832.324	41.81
832.496	40.78
832.667	39.12
832.839	39.41
833.011	40.05
833.182	40.72
833.354	42.06
833.525	42.44
833.697	43.54
833.868	39.56
834.039	41.18
834.211	39.42
834.382	40.08
834.554	39.98
834.725	40.78
834.896	40.21
835.068	40.23
835.239	40.12
835.41	40.63
835.581	41.79
835.753	42.13
835.924	40.35
836.095	42.12
836.266	39.85
836.438	39.74
836.609	39.67
836.78	41.7
836.951	43.03
837.122	42.24
837.293	42.82
837.464	39.16
837.635	41.59
837.806	41.98
837.977	44.69
838.148	48.71
838.319	49.4
838.49	47.01
838.661	45.44
838.832	45.46
839.003	44.26
839.174	42.85
839.345	48.5
839.516	50.91
839.687	50.6
839.857	48.04
840.028	47.13
840.199	47.67
840.37	50.22
840.54	52.8
840.711	51.16
840.882	55.4
841.053	55.25
841.223	51.69
841.394	46.97
841.564	49.23
841.735	48.98
841.906	47.52
842.076	41.99
842.247	44
842.417	43.96
842.588	48.67
842.758	45.44
842.929	49.02
843.099	50.77
843.27	51.87
843.44	52.99
843.611	52.63
843.781	50.19
843.951	56
844.122	57.76
844.292	57.67
844.462	54.44
844.633	57.79
844.803	57.36
844.973	59.66
845.144	59.49
845.314	58.76
845.484	57.54
845.654	63.68
845.824	62.31
845.995	60.39
846.165	57.93
846.335	59.96
846.505	58.14
846.675	57.63
846.845	56.87
847.015	57.31
847.185	54.29
847.355	61.65
847.525	62.77
847.695	65.92
847.865	62.2
848.035	65.69
848.205	59.46
848.375	58.64
848.545	45.72
848.715	41.99
848.884	40.26
849.054	45.11
849.224	39.02
849.394	44.14
849.564	44.84
849.733	42.9
849.903	44.24
850.073	43.59
850.243	50
850.412	58.78
850.582	62.58
850.752	71.02
850.921	66.34
851.091	64.03
851.26	56.54
851.43	50.84
851.599	47.27
851.769	43.9
851.939	48.89
852.108	44.39
852.278	50.14
852.447	44.09
852.616	38.44
852.786	35.97
852.955	38.73
853.125	47.1
853.294	45.56
853.463	50.68
853.633	52.5
853.802	49.87
853.971	55.24
854.141	54.14
854.31	54.92
854.479	50.25
854.648	54.59
854.818	43.83
854.987	43.95
855.156	46.05
855.325	50.89
855.494	46.64
855.663	43.38
855.832	39.91
856.001	31.17
856.171	34.57
856.34	42.69
856.509	43.56
856.678	62.31
856.847	66.99
857.016	74.06
857.185	72.41
857.353	86.78
857.522	97.97
857.691	95.69
857.86	95.62
858.029	91.54
858.198	91.8
858.367	98.84
858.535	98.14
858.704	86.89
858.873	83.27
859.042	76.27
859.21	68.14
859.379	64.36
859.548	54.34
859.717	54.88
859.885	51.34
860.054	57.5
860.222	36.07
860.391	34.09
860.56	34.62
860.728	33.13
860.897	32.25
861.065	32
861.234	36.6
861.402	49.72
861.571	52.79
861.739	61.03
861.908	52.62
862.076	68.14
862.244	70.04
862.413	69.42
862.581	75.83
862.749	79.53
862.918	82.25
863.086	76.23
863.254	68.53
863.423	71.85
863.591	74.32
863.759	75.24
863.927	65.63
864.096	60.42
864.264	69.12
864.432	62.7
864.6	60.93
864.768	53.05
864.936	60.52
865.104	70.66
865.272	69.68
865.44	71.87
865.608	72.47
865.776	78.68
865.944	83.37
866.112	73.27
866.28	70.43
866.448	70.91
866.616	71.37
866.784	68.89
866.952	66.23
867.12	74.89
867.288	71.75
867.455	66.43
867.623	69.05
867.791	73.05
867.959	72.68
868.127	75.18
868.294	76.38
868.462	74.79
868.63	70.85
868.797	70.39
868.965	65.04
869.133	59.32
869.3	62.97
869.468	62.22
869.636	46.96
869.803	53.11
869.971	59.45
870.138	55.49
870.306	53.13
870.473	57.76
870.641	54.05
870.808	47.51
870.975	47.96
871.143	50.24
871.31	44.92
871.478	50.03
871.645	40.4
871.812	45.76
871.98	46.91
872.147	55.02
872.314	46
872.482	47.49
872.649	48.18
872.816	42.73
872.983	38.32
873.15	44.68
873.318	50.27
873.485	60.5
873.652	57.39
873.819	63.27
873.986	58.57
874.153	71.95
874.32	79.06
874.487	72.99
874.654	80.34
874.821	79.8
874.988	70.16
875.155	69.88
875.322	64.54
875.489	61.79
875.656	52.99
875.823	47.94
875.99	29.05
876.157	27.56
876.324	44.71
876.49	49.58
876.657	54.47
876.824	56.8
876.991	57.24
877.157	60.28
877.324	64.94
877.491	76.15
877.658	83.56
877.824	93.76
877.991	90.72
878.157	87.8
878.324	77.66
878.491	83.38
878.657	91.61
878.824	89.75
878.99	90.42
879.157	86.56
879.323	75.72
879.49	72.22
879.656	69.49
879.823	64.85
879.989	64.63
880.156	71.38
880.322	65.92
880.488	65.68
880.655	64.88
880.821	64.28
880.987	66.44
881.154	68.32
881.32	71.54
881.486	70.86
881.652	71.42
881.819	67.24
881.985	62.94
882.151	60.5
882.317	55.32
882.483	52.51
882.649	50.71
882.816	48.64
882.982	46.35
883.148	44.13
883.314	42.06
883.48	41.3
883.646	40.6
883.812	40.54
883.978	41.35
884.144	41.04
884.31	40.45
884.476	40.73
884.642	41.14
884.807	41.46
884.973	42.04
885.139	43.18
885.305	44.03
885.471	44.65
885.637	43.95
885.802	43.09
885.968	44.61
886.134	47.86
886.3	47.1
886.465	45.65
886.631	44.61
886.797	45.65
886.962	43.53
887.128	43.82
887.293	43.81
887.459	46.93
887.625	46.83
887.79	46.98
887.956	40.87
888.121	44.36
888.287	45.38
888.452	50.48
888.618	47.41
888.783	57.98
