Data from LC_190_Reflection_1.txt Node
Date: Tue Nov 17 13:30:45 EST 2015
User: robert
Spectrometer: USB4E03001
Autoset integration time: false
Trigger mode: 4
Integration Time (sec): 1.000000E-1
Scans to average: 15
Electric dark correction enabled: true
Nonlinearity correction enabled: false
Boxcar width: 5
Stray light correction enabled: false
XAxis mode: Wavelengths
Stop averaging: false
Number of Pixels in Spectrum: 3648
>>>>>Begin Spectral Data<<<<<
177.566	423.55
177.785	461.66
178.005	-2034.7
178.225	536.73
178.445	-672.36
178.665	-275.92
178.885	-39.26
179.105	-466.54
179.324	1386.9
179.544	1860.45
179.764	486.49
179.984	259
180.204	321.09
180.423	730.41
180.643	1005.87
180.863	-3224.14
181.083	-4724.49
181.302	1037.29
181.522	505.98
181.742	1390.47
181.961	14256.86
182.181	-874.62
182.401	-221.99
182.621	-501.8
182.84	-501.47
183.06	-1638.25
183.279	2264.46
183.499	-12176.47
183.719	-1294.16
183.938	-375.67
184.158	-563.07
184.377	-689.26
184.597	-640.02
184.816	549.07
185.036	558.08
185.256	617.33
185.475	367.6
185.695	503.98
185.914	403.5
186.134	363.16
186.353	229.13
186.572	247.4
186.792	233.82
187.011	228.63
187.231	852.77
187.45	3283.76
187.67	615.81
187.889	730.79
188.108	481.02
188.328	442.86
188.547	478.31
188.766	-2414.83
188.986	1918.53
189.205	514.38
189.424	626.15
189.644	429.06
189.863	288.17
190.082	321.18
190.302	323.88
190.521	418.8
190.74	8649.35
190.959	1273.07
191.178	330.78
191.398	323.95
191.617	974.89
191.836	641.22
192.055	426.94
192.274	-1234.76
192.494	-697.71
192.713	-1975.52
192.932	-931.1
193.151	1720.08
193.37	27106.35
193.589	-882450
193.808	25570.79
194.027	-3561.05
194.246	-1570.61
194.465	7091.16
194.685	782.7
194.904	562.53
195.123	98237.5
195.342	2397.88
195.561	733.11
195.78	569.16
195.999	737.84
196.218	455.92
196.436	372.33
196.655	275.22
196.874	313.44
197.093	308.51
197.312	247.55
197.531	205.79
197.75	199.03
197.969	227.47
198.188	243.5
198.407	210.62
198.625	247.91
198.844	245.95
199.063	244.29
199.282	273.63
199.501	266.67
199.719	412.05
199.938	443.12
200.157	477.52
200.376	1438.07
200.594	649.63
200.813	415.81
201.032	547.79
201.251	571.8
201.469	7428.17
201.688	2193.89
201.907	-9219.07
202.125	2422.04
202.344	2621.66
202.563	2530.61
202.781	1692.37
203	-2024.08
203.218	-425.44
203.437	-654.96
203.656	-422.91
203.874	-1059.53
204.093	-1494.32
204.311	-1523.04
204.53	33006.58
204.748	-1234.66
204.967	5012.36
205.185	1043.77
205.404	517.82
205.622	501.02
205.841	394.95
206.059	431.95
206.278	334.78
206.496	334.86
206.715	316.01
206.933	329.55
207.151	285.53
207.37	272.8
207.588	311.27
207.806	391.24
208.025	318.5
208.243	326.4
208.461	393.13
208.68	655.26
208.898	-952.84
209.116	-1838.97
209.335	4727.92
209.553	-3390.98
209.771	1364.52
209.989	449.45
210.208	571.5
210.426	540.21
210.644	505.39
210.862	366.24
211.081	250.53
211.299	194.75
211.517	227.21
211.735	205.26
211.953	185.1
212.171	210.97
212.39	560.9
212.608	489.72
212.826	763.7
213.044	700.76
213.262	636.35
213.48	-28941.79
213.698	-1311.83
213.916	572.49
214.134	-1113.03
214.352	-389.11
214.57	-448.18
214.788	4806.48
215.006	1731
215.224	1556.39
215.442	1019.72
215.66	1084.11
215.878	689.45
216.096	343.81
216.314	382.4
216.532	243.6
216.75	174.54
216.968	184.8
217.185	205.18
217.403	213.74
217.621	189.47
217.839	220.23
218.057	231.8
218.275	228.8
218.492	250.37
218.71	267.81
218.928	323.46
219.146	369.59
219.363	382.73
219.581	271.82
219.799	287.85
220.017	317.31
220.234	286.69
220.452	239.89
220.67	216.45
220.887	222.38
221.105	242.73
221.323	200.83
221.54	188.66
221.758	169.59
221.976	167.8
222.193	139.05
222.411	129.5
222.629	149.29
222.846	167.95
223.064	146.09
223.281	144.46
223.499	126.97
223.716	137.41
223.934	144.43
224.151	153.51
224.369	155.79
224.586	167.62
224.804	160.83
225.021	153.09
225.239	137.15
225.456	136.2
225.674	120.54
225.891	110.92
226.108	115.2
226.326	101.59
226.543	92.42
226.76	93.8
226.978	92.3
227.195	88.17
227.413	71.02
227.63	65.47
227.847	64.98
228.064	58.12
228.282	52.54
228.499	53.19
228.716	47.91
228.934	47.26
229.151	44.14
229.368	38.75
229.585	37.3
229.802	39.36
230.02	39.46
230.237	40.94
230.454	41.99
230.671	45.2
230.888	40.69
231.105	46.02
231.323	46.55
231.54	48.85
231.757	55.7
231.974	58.09
232.191	59.13
232.408	61.32
232.625	59.78
232.842	62.39
233.059	61.5
233.276	64.1
233.493	68.77
233.71	70.4
233.927	65.51
234.144	64.65
234.361	66.01
234.578	64.79
234.795	60.06
235.012	59.98
235.229	62.85
235.446	60.9
235.663	66.03
235.879	65.12
236.096	63.58
236.313	66.25
236.53	66.01
236.747	65.95
236.964	65.03
237.181	70.05
237.397	68.72
237.614	67.6
237.831	69
238.048	67.11
238.264	60.13
238.481	56.14
238.698	53.4
238.915	52.13
239.131	55.4
239.348	55.69
239.565	50.94
239.781	52.27
239.998	52.66
240.215	52.22
240.431	44.96
240.648	42.53
240.865	40.99
241.081	41.42
241.298	41.28
241.514	35.6
241.731	34.28
241.947	32.4
242.164	30.42
242.38	25.92
242.597	24.35
242.814	26.02
243.03	27.58
243.246	28.49
243.463	28.47
243.679	27.12
243.896	27.88
244.112	27.52
244.329	31.28
244.545	31.85
244.762	33.95
244.978	33.72
245.194	33.42
245.411	30.05
245.627	29.3
245.843	26.55
246.06	23.83
246.276	21.48
246.492	20.12
246.709	18.49
246.925	18.44
247.141	19.2
247.357	19.05
247.574	18.91
247.79	19.49
248.006	19.04
248.222	19.56
248.439	20.21
248.655	21.57
248.871	22.34
249.087	22.31
249.303	23.06
249.519	21.56
249.736	22.32
249.952	23.18
250.168	25.69
250.384	26.36
250.6	27.94
250.816	28.3
251.032	26.89
251.248	26.86
251.464	28.86
251.68	28.37
251.896	29.58
252.112	28.8
252.328	29.36
252.544	26.78
252.76	26.87
252.976	24.65
253.192	24.68
253.408	24.96
253.624	25.06
253.84	24.74
254.056	23.86
254.272	22.74
254.487	24.9
254.703	23.65
254.919	24.27
255.135	26.1
255.351	29.02
255.567	27.18
255.782	24.33
255.998	24.43
256.214	23.87
256.43	23.28
256.646	24.73
256.861	22.19
257.077	21.76
257.293	22.69
257.508	21.54
257.724	19.94
257.94	20.63
258.155	21.12
258.371	21.88
258.587	20.56
258.802	19.37
259.018	18.32
259.234	17.79
259.449	17.91
259.665	16.72
259.88	15.01
260.096	15.44
260.312	15.6
260.527	15.5
260.743	15.21
260.958	15.09
261.174	15.72
261.389	15.85
261.605	16.65
261.82	16.19
262.036	17.1
262.251	18.25
262.466	17.24
262.682	18.72
262.897	20.42
263.113	19.33
263.328	20.62
263.543	21.09
263.759	22.34
263.974	22.29
264.189	22.02
264.405	20.98
264.62	23.69
264.835	23.48
265.051	22.58
265.266	21.46
265.481	24.21
265.696	25.47
265.912	25.53
266.127	23.21
266.342	21.14
266.557	20.68
266.773	19.61
266.988	18.28
267.203	20.2
267.418	20.05
267.633	20.18
267.848	19.93
268.064	16.8
268.279	16.3
268.494	17.19
268.709	18
268.924	18.34
269.139	18.93
269.354	19.9
269.569	19.23
269.784	17.71
269.999	17.82
270.214	15.71
270.429	18.5
270.644	17.39
270.859	16.41
271.074	16.16
271.289	18.01
271.504	17.38
271.719	16.26
271.934	16.74
272.149	16.73
272.363	16.98
272.578	17.99
272.793	16.69
273.008	16.78
273.223	17.76
273.438	18.55
273.653	17.7
273.867	18.44
274.082	18.67
274.297	17.44
274.512	19.3
274.726	18.97
274.941	17.71
275.156	19.08
275.371	19.99
275.585	20.16
275.8	20.3
276.015	19.85
276.229	20.24
276.444	19.02
276.659	19.59
276.873	18.16
277.088	18.76
277.302	19.82
277.517	17.94
277.732	16.95
277.946	16.53
278.161	18.05
278.375	17.25
278.59	18.57
278.804	19.68
279.019	19.17
279.233	18.76
279.448	17.11
279.662	18.46
279.877	20.71
280.091	20.61
280.306	19.7
280.52	17.03
280.735	17.62
280.949	15.22
281.163	15.76
281.378	16.62
281.592	16.7
281.806	17.34
282.021	16.4
282.235	14.55
282.449	15.22
282.664	15.87
282.878	16.8
283.092	16.61
283.307	17.61
283.521	17.29
283.735	16.72
283.949	17.23
284.164	17.18
284.378	15.49
284.592	15.37
284.806	14.79
285.02	14.64
285.234	14.1
285.449	13.78
285.663	13.28
285.877	13.64
286.091	13.59
286.305	13.28
286.519	12.7
286.733	14.84
286.947	15.57
287.161	16.06
287.375	16.46
287.589	16.64
287.803	16.97
288.017	17.08
288.231	16.77
288.445	16.71
288.659	16.42
288.873	16.48
289.087	15.4
289.301	15.43
289.515	15.33
289.729	15.53
289.943	14.97
290.157	14.75
290.371	14.51
290.584	14.19
290.798	14.39
291.012	15.23
291.226	16.5
291.44	16.86
291.654	17.43
291.867	17
292.081	16.29
292.295	16.18
292.509	15.56
292.722	16.56
292.936	16.85
293.15	16.57
293.364	14.96
293.577	13.99
293.791	12.96
294.005	11.08
294.218	11.19
294.432	12.29
294.645	13.41
294.859	13.91
295.073	13.59
295.286	13.49
295.5	13.54
295.713	13.86
295.927	13.63
296.14	13.87
296.354	14.37
296.568	15.12
296.781	14.64
296.994	14.08
297.208	13.99
297.421	13.69
297.635	14.07
297.848	13.6
298.062	14.01
298.275	14.07
298.489	13.86
298.702	14.37
298.915	13.71
299.129	13.35
299.342	13.52
299.555	13.93
299.769	14.98
299.982	14.77
300.195	15.15
300.409	14.51
300.622	14.2
300.835	14.82
301.048	14.13
301.262	13.99
301.475	14.63
301.688	15.33
301.901	14.35
302.115	13.54
302.328	13.34
302.541	12.99
302.754	13.11
302.967	13.94
303.18	13.46
303.393	13.95
303.607	14.9
303.82	15.19
304.033	14.21
304.246	14.79
304.459	15.21
304.672	15.43
304.885	15.42
305.098	15.82
305.311	15.89
305.524	16.58
305.737	16.59
305.95	17.02
306.163	15.07
306.376	15.96
306.589	16.18
306.802	15.52
307.015	16.07
307.228	18.61
307.44	18.47
307.653	18.04
307.866	17.38
308.079	16.82
308.292	15.49
308.505	16.24
308.718	15.96
308.93	16.02
309.143	15.83
309.356	14.63
309.569	13.19
309.781	13.45
309.994	11.86
310.207	12.12
310.42	11.76
310.632	11.74
310.845	12.2
311.058	11.55
311.27	10.75
311.483	10.65
311.696	10.61
311.908	10.22
312.121	10.09
312.333	12.03
312.546	12.01
312.759	11.93
312.971	12.81
313.184	13.13
313.396	12.96
313.609	13.66
313.821	14.45
314.034	15.62
314.246	16.17
314.459	16.73
314.671	15.54
314.884	15.79
315.096	16.1
315.309	15.29
315.521	15.68
315.733	16.06
315.946	15.46
316.158	15.41
316.371	14.88
316.583	14.88
316.795	14.98
317.008	14.95
317.22	13.78
317.432	15.6
317.644	15.37
317.857	13.8
318.069	14.38
318.281	15.85
318.494	15.49
318.706	14.8
318.918	14.55
319.13	14.79
319.342	15.12
319.555	15.84
319.767	14.99
319.979	15.06
320.191	15.15
320.403	14.64
320.615	14.2
320.827	13.43
321.039	15.14
321.252	15.36
321.464	14.31
321.676	15.31
321.888	15.66
322.1	15.43
322.312	15.81
322.524	16.16
322.736	16.11
322.948	16.19
323.16	16.75
323.372	15.99
323.584	16.26
323.796	17.41
324.007	17.23
324.219	17.66
324.431	18.25
324.643	18.62
324.855	19.29
325.067	19.74
325.279	19.7
325.491	20.09
325.702	19.7
325.914	18.93
326.126	17.38
326.338	17.4
326.55	16.4
326.761	15.96
326.973	15.83
327.185	14.78
327.396	15.01
327.608	14.79
327.82	14.17
328.032	14.69
328.243	14.89
328.455	16.44
328.666	16.78
328.878	16.72
329.09	15.95
329.301	15.49
329.513	16.2
329.725	15.72
329.936	15.99
330.148	17.67
330.359	17.87
330.571	18.26
330.782	18.42
330.994	18.16
331.205	18.32
331.417	18.55
331.628	18.36
331.84	19.16
332.051	19.63
332.262	18.91
332.474	18.23
332.685	18.09
332.897	17.82
333.108	16.42
333.319	15.87
333.531	16.49
333.742	17.07
333.953	16.5
334.165	15.78
334.376	15.65
334.587	15.78
334.799	14.73
335.01	14.77
335.221	13.94
335.432	13.54
335.644	13.46
335.855	12.75
336.066	12.31
336.277	13.17
336.488	13.48
336.7	13.3
336.911	13.2
337.122	13.33
337.333	12.82
337.544	14.02
337.755	14.81
337.966	14.65
338.177	15.04
338.388	14.52
338.599	14.26
338.811	13.21
339.022	12.63
339.233	12.17
339.444	11.57
339.655	11.7
339.866	11.81
340.076	11.39
340.287	11.65
340.498	11.51
340.709	12.47
340.92	12.25
341.131	11.84
341.342	12.04
341.553	13.12
341.764	13.89
341.975	14.29
342.185	13.33
342.396	13.58
342.607	13.32
342.818	13.53
343.029	12.81
343.239	13.18
343.45	14.41
343.661	14.07
343.872	13.4
344.082	13.41
344.293	13.2
344.504	15.07
344.714	14.51
344.925	14.07
345.136	13.44
345.346	13.72
345.557	12.84
345.768	13.14
345.978	13.33
346.189	13.9
346.399	13.51
346.61	13.37
346.821	11.6
347.031	12.17
347.242	12.33
347.452	12.84
347.663	12.81
347.873	13.15
348.084	12.07
348.294	12.49
348.504	11.85
348.715	12.76
348.925	12.36
349.136	12.02
349.346	12.21
349.557	12.97
349.767	12.76
349.977	12.22
350.188	12.47
350.398	13.08
350.608	13.25
350.819	12.63
351.029	11.88
351.239	12.5
351.449	13.13
351.66	13.15
351.87	11.87
352.08	12.16
352.29	12.71
352.501	12.84
352.711	13.37
352.921	13.16
353.131	14.07
353.341	13.76
353.552	13.24
353.762	12.81
353.972	12.14
354.182	14.16
354.392	14.3
354.602	14.79
354.812	14.54
355.022	14.18
355.232	13.39
355.442	12.96
355.652	13.06
355.862	13.58
356.072	13.52
356.282	13.66
356.492	12.35
356.702	12.2
356.912	11.69
357.122	11.97
357.332	11.61
357.542	11.4
357.752	11.57
357.962	11.8
358.171	10.94
358.381	11.45
358.591	10.78
358.801	10.95
359.011	9.76
359.221	9.76
359.43	9.61
359.64	9.17
359.85	9.02
360.06	9.33
360.269	9
360.479	9.1
360.689	8.38
360.899	8.86
361.108	8.82
361.318	9.27
361.528	8.87
361.737	8.82
361.947	9.04
362.156	9.67
362.366	9.08
362.576	9.22
362.785	9.35
362.995	9.87
363.204	9.76
363.414	9.67
363.623	9.59
363.833	10.1
364.042	9.73
364.252	9.29
364.461	8.86
364.671	9.18
364.88	8.87
365.09	9.18
365.299	9.17
365.509	8.94
365.718	9.33
365.927	9.9
366.137	9.94
366.346	10.65
366.555	11.58
366.765	11.67
366.974	11.32
367.183	11.53
367.393	11.03
367.602	10.67
367.811	10.58
368.021	10.14
368.23	10.43
368.439	10.14
368.648	9.82
368.857	8.97
369.067	9.63
369.276	10
369.485	9.89
369.694	9.9
369.903	10.49
370.112	11.42
370.321	11.02
370.531	10.19
370.74	9.65
370.949	9.11
371.158	9.6
371.367	8.83
371.576	9.14
371.785	9.02
371.994	9.25
372.203	8.66
372.412	8.07
372.621	7.89
372.83	8.12
373.039	9.17
373.248	9.38
373.457	9.34
373.666	9.65
373.874	8.96
374.083	9.24
374.292	8.84
374.501	9.28
374.71	9.46
374.919	10.22
375.128	10.31
375.336	9.69
375.545	9.95
375.754	9.25
375.963	8.39
376.171	8.81
376.38	9.19
376.589	9.21
376.798	8.75
377.006	8.9
377.215	8.93
377.424	8.58
377.632	8.22
377.841	8.17
378.05	8.52
378.258	9.05
378.467	8.94
378.675	8.58
378.884	8.74
379.093	8.59
379.301	8.25
379.51	8.04
379.718	7.8
379.927	7.77
380.135	7.72
380.344	7.95
380.552	7.88
380.761	7.84
380.969	7.79
381.177	7.84
381.386	7.84
381.594	7.65
381.803	7.45
382.011	7.43
382.219	7.69
382.428	7.84
382.636	7.91
382.845	8.01
383.053	8.16
383.261	8.01
383.469	7.99
383.678	8.4
383.886	8.18
384.094	8.2
384.302	8.64
384.511	8.57
384.719	8.17
384.927	7.97
385.135	8.12
385.343	7.9
385.552	7.91
385.76	8.13
385.968	7.93
386.176	8.12
386.384	8.16
386.592	7.98
386.8	8.5
387.008	8.75
387.216	8.6
387.424	8.58
387.633	8.49
387.841	8.36
388.049	8.07
388.257	8.35
388.465	8.56
388.672	8.42
388.88	8.4
389.088	8.01
389.296	7.89
389.504	8.07
389.712	8.01
389.92	7.9
390.128	8.39
390.336	8.3
390.544	8.03
390.751	7.83
390.959	7.82
391.167	7.58
391.375	7.47
391.583	7.27
391.79	6.9
391.998	7.01
392.206	7.15
392.414	6.54
392.621	6.75
392.829	6.64
393.037	6.65
393.244	6.66
393.452	7.08
393.66	7.06
393.867	7.36
394.075	7.39
394.283	7.17
394.49	7.15
394.698	7.39
394.905	7.09
395.113	7.24
395.32	7.21
395.528	7.3
395.735	7.1
395.943	7.07
396.15	6.66
396.358	6.96
396.565	6.62
396.773	6.68
396.98	6.71
397.188	7.06
397.395	6.97
397.602	7.18
397.81	7.25
398.017	7.45
398.225	7.7
398.432	8.02
398.639	8.01
398.847	8.61
399.054	8.16
399.261	8.27
399.468	7.94
399.676	8.13
399.883	8.02
400.09	7.89
400.297	7.92
400.505	7.98
400.712	8
400.919	7.66
401.126	7.26
401.333	7.82
401.54	7.61
401.748	7.71
401.955	7.42
402.162	7.39
402.369	7.37
402.576	7.19
402.783	6.55
402.99	6.52
403.197	6.62
403.404	6.59
403.611	6.36
403.818	6.27
404.025	6.11
404.232	5.88
404.439	5.84
404.646	5.89
404.853	5.81
405.06	6.16
405.267	6.19
405.474	5.92
405.681	5.73
405.887	5.76
406.094	5.96
406.301	6.37
406.508	6.39
406.715	6.31
406.922	6.19
407.128	6.29
407.335	5.83
407.542	5.53
407.749	5.89
407.955	5.98
408.162	6.3
408.369	6.23
408.575	6.02
408.782	6.15
408.989	6.26
409.195	6.63
409.402	6.36
409.609	6.59
409.815	6.42
410.022	6.3
410.228	6.33
410.435	5.9
410.642	5.86
410.848	5.85
411.055	5.96
411.261	5.91
411.468	5.66
411.674	5.88
411.881	5.97
412.087	6.48
412.294	6.6
412.5	6.58
412.706	6.51
412.913	6.25
413.119	6.37
413.326	6.26
413.532	6.18
413.738	5.95
413.945	5.57
414.151	5.65
414.357	5.54
414.564	5.57
414.77	5.68
414.976	5.92
415.182	6.33
415.389	6.01
415.595	6.02
415.801	5.96
416.007	6.11
416.214	6.17
416.42	6.1
416.626	5.94
416.832	5.87
417.038	5.8
417.244	5.58
417.45	5.53
417.657	5.54
417.863	5.63
418.069	5.72
418.275	5.52
418.481	5.55
418.687	5.39
418.893	5.51
419.099	5.45
419.305	5.65
419.511	5.75
419.717	5.5
419.923	5.36
420.129	5.14
420.335	5.1
420.541	5.09
420.746	5
420.952	5.06
421.158	4.87
421.364	4.87
421.57	4.7
421.776	4.53
421.982	4.54
422.187	4.58
422.393	4.75
422.599	4.79
422.805	4.7
423.01	4.85
423.216	4.82
423.422	4.94
423.628	4.96
423.833	4.91
424.039	4.83
424.245	4.82
424.45	4.82
424.656	4.7
424.862	4.54
425.067	4.66
425.273	4.61
425.478	4.65
425.684	4.46
425.889	4.51
426.095	4.56
426.301	4.64
426.506	4.7
426.712	4.71
426.917	4.77
427.123	4.99
427.328	5.21
427.533	5.13
427.739	5.01
427.944	5.04
428.15	4.9
428.355	4.95
428.561	5.09
428.766	4.99
428.971	5.04
429.177	5.02
429.382	4.88
429.587	4.6
429.793	4.82
429.998	4.79
430.203	5.07
430.408	5.07
430.614	4.99
430.819	5.01
431.024	5.06
431.229	5.04
431.434	5.1
431.64	5.18
431.845	5.3
432.05	5.26
432.255	5.26
432.46	5.28
432.665	5.43
432.87	5.51
433.076	5.35
433.281	5.51
433.486	5.41
433.691	5.3
433.896	5.04
434.101	4.91
434.306	5.02
434.511	5.12
434.716	4.89
434.921	4.68
435.126	4.55
435.331	4.69
435.535	4.6
435.74	4.65
435.945	4.67
436.15	4.85
436.355	5.03
436.56	4.87
436.765	4.99
436.97	5.11
437.174	5.01
437.379	5.1
437.584	5.19
437.789	5.15
437.993	5.2
438.198	5.23
438.403	5.21
438.608	4.99
438.812	4.77
439.017	4.69
439.222	4.53
439.426	4.6
439.631	4.52
439.836	4.46
440.04	4.31
440.245	4.31
440.45	4.23
440.654	4.23
440.859	4.27
441.063	4.48
441.268	4.44
441.472	4.65
441.677	4.76
441.881	4.76
442.086	4.83
442.29	4.88
442.495	4.94
442.699	5.01
442.904	5.09
443.108	4.92
443.312	4.75
443.517	4.69
443.721	4.74
443.925	4.51
444.13	4.47
444.334	4.28
444.538	4.37
444.743	4.15
444.947	4.21
445.151	3.99
445.356	4.25
445.56	4.28
445.764	4.33
445.968	4.26
446.173	4.31
446.377	4.38
446.581	4.57
446.785	4.56
446.989	4.64
447.193	4.6
447.398	4.87
447.602	4.87
447.806	4.91
448.01	4.83
448.214	4.8
448.418	4.9
448.622	4.92
448.826	4.76
449.03	4.76
449.234	4.73
449.438	4.66
449.642	4.55
449.846	4.53
450.05	4.53
450.254	4.58
450.458	4.75
450.662	4.73
450.866	4.65
451.069	4.76
451.273	4.68
451.477	4.83
451.681	5
451.885	5.02
452.089	4.92
452.292	4.78
452.496	4.62
452.7	4.43
452.904	4.52
453.107	4.62
453.311	4.47
453.515	4.46
453.719	4.53
453.922	4.46
454.126	4.35
454.33	4.42
454.533	4.55
454.737	4.73
454.94	4.65
455.144	4.61
455.348	4.69
455.551	4.57
455.755	4.67
455.958	4.46
456.162	4.39
456.365	4.29
456.569	4.21
456.772	4.3
456.976	4.27
457.179	4.5
457.383	4.45
457.586	4.44
457.79	4.64
457.993	4.55
458.196	4.55
458.4	4.79
458.603	5.11
458.807	5.05
459.01	4.97
459.213	5.08
459.417	4.89
459.62	4.9
459.823	4.78
460.026	4.69
460.23	4.68
460.433	4.72
460.636	4.52
460.839	4.22
461.042	4.27
461.246	4.37
461.449	4.31
461.652	4.46
461.855	4.42
462.058	4.38
462.261	4.56
462.464	4.56
462.668	4.5
462.871	4.6
463.074	4.66
463.277	4.61
463.48	4.39
463.683	4.27
463.886	4.22
464.089	4.14
464.292	4.12
464.495	4.11
464.698	4.1
464.901	4.21
465.104	4.35
465.306	4.49
465.509	4.43
465.712	4.58
465.915	4.85
466.118	4.81
466.321	4.81
466.524	4.79
466.726	4.64
466.929	4.86
467.132	4.71
467.335	4.45
467.538	4.54
467.74	4.65
467.943	4.61
468.146	4.34
468.348	4.37
468.551	4.33
468.754	4.55
468.956	4.65
469.159	4.46
469.362	4.64
469.564	4.7
469.767	4.62
469.969	4.6
470.172	4.73
470.375	4.82
470.577	4.81
470.78	4.75
470.982	4.59
471.185	4.51
471.387	4.68
471.59	4.67
471.792	4.72
471.995	4.76
472.197	4.8
472.399	4.61
472.602	4.69
472.804	4.7
473.007	4.83
473.209	4.87
473.411	4.82
473.614	4.77
473.816	4.7
474.018	4.82
474.22	4.66
474.423	4.62
474.625	4.55
474.827	4.3
475.03	4.26
475.232	4.3
475.434	4.24
475.636	4.32
475.838	4.25
476.04	4.07
476.243	4.02
476.445	4
476.647	4.03
476.849	4.1
477.051	4.17
477.253	4.22
477.455	4.23
477.657	4.19
477.859	4.14
478.061	4.06
478.263	4.14
478.465	4.14
478.667	4.32
478.869	4.35
479.071	4.44
479.273	4.51
479.475	4.44
479.677	4.33
479.879	4.41
480.081	4.47
480.283	4.5
480.485	4.52
480.686	4.43
480.888	4.32
481.09	4.17
481.292	3.99
481.494	3.91
481.695	3.93
481.897	3.84
482.099	3.76
482.301	3.77
482.502	3.7
482.704	3.63
482.906	3.66
483.107	3.59
483.309	3.58
483.511	3.59
483.712	3.52
483.914	3.46
484.115	3.48
484.317	3.47
484.519	3.37
484.72	3.43
484.922	3.46
485.123	3.46
485.325	3.44
485.526	3.5
485.728	3.47
485.929	3.55
486.131	3.62
486.332	3.62
486.534	3.61
486.735	3.69
486.936	3.63
487.138	3.57
487.339	3.51
487.541	3.56
487.742	3.53
487.943	3.57
488.144	3.58
488.346	3.58
488.547	3.63
488.748	3.65
488.95	3.66
489.151	3.71
489.352	3.75
489.553	3.84
489.755	3.88
489.956	3.85
490.157	3.78
490.358	3.87
490.559	3.83
490.76	3.82
490.961	3.86
491.163	3.93
491.364	3.88
491.565	3.9
491.766	3.83
491.967	3.79
492.168	3.84
492.369	3.94
492.57	3.94
492.771	4
492.972	4.05
493.173	4.08
493.374	4.11
493.575	4.17
493.776	4.17
493.976	4.28
494.177	4.33
494.378	4.32
494.579	4.34
494.78	4.23
494.981	4.14
495.182	4.08
495.382	4.16
495.583	4.06
495.784	4.14
495.985	4.21
496.185	4.22
496.386	4.23
496.587	4.21
496.788	4.27
496.988	4.3
497.189	4.27
497.39	4.28
497.59	4.26
497.791	4.32
497.992	4.28
498.192	4.19
498.393	4.14
498.593	4.17
498.794	4.14
498.994	4.2
499.195	4.16
499.395	4.27
499.596	4.29
499.796	4.2
499.997	4.08
500.197	3.98
500.398	4.18
500.598	4.25
500.799	4.24
500.999	4.33
501.199	4.12
501.4	4.38
501.6	4.32
501.801	4.33
502.001	4.38
502.201	4.58
502.402	4.71
502.602	4.56
502.802	4.63
503.002	4.68
503.203	4.73
503.403	4.77
503.603	4.55
503.803	4.53
504.003	4.42
504.204	4.45
504.404	4.55
504.604	4.52
504.804	4.69
505.004	4.58
505.204	4.49
505.404	4.5
505.604	4.42
505.804	4.44
506.005	4.5
506.205	4.59
506.405	4.58
506.605	4.45
506.805	4.56
507.005	4.48
507.204	4.41
507.404	4.43
507.604	4.45
507.804	4.6
508.004	4.7
508.204	4.57
508.404	4.69
508.604	4.68
508.804	4.7
509.003	4.66
509.203	4.62
509.403	4.86
509.603	4.96
509.803	4.87
510.002	5
510.202	5.02
510.402	5.16
510.602	5.08
510.801	5.14
511.001	5.17
511.201	5.12
511.4	4.97
511.6	4.86
511.8	4.68
511.999	4.74
512.199	4.66
512.398	4.56
512.598	4.54
512.797	4.68
512.997	4.47
513.197	4.48
513.396	4.49
513.596	4.67
513.795	4.65
513.994	4.79
514.194	4.81
514.393	4.84
514.593	4.81
514.792	4.93
514.992	4.83
515.191	5.22
515.39	5.21
515.59	5.19
515.789	5.25
515.988	5.35
516.188	5.49
516.387	5.46
516.586	5.28
516.786	5.27
516.985	5.16
517.184	5.2
517.383	5.02
517.582	4.91
517.782	4.9
517.981	4.76
518.18	4.71
518.379	4.64
518.578	4.67
518.777	4.63
518.976	4.77
519.176	4.84
519.375	4.77
519.574	4.86
519.773	4.9
519.972	4.93
520.171	5.05
520.37	5.14
520.569	5.18
520.768	5.22
520.967	5.41
521.166	5.44
521.365	5.4
521.564	5.51
521.762	5.48
521.961	5.49
522.16	5.54
522.359	5.6
522.558	5.42
522.757	5.42
522.956	5.43
523.154	5.4
523.353	5.28
523.552	5.28
523.751	5.29
523.949	5.24
524.148	5.32
524.347	5.41
524.546	5.39
524.744	5.45
524.943	5.39
525.142	5.45
525.34	5.37
525.539	5.39
525.737	5.46
525.936	5.52
526.135	5.58
526.333	5.5
526.532	5.42
526.73	5.41
526.929	5.44
527.127	5.54
527.326	5.4
527.524	5.46
527.723	5.41
527.921	5.39
528.12	5.32
528.318	5.29
528.516	5.33
528.715	5.35
528.913	5.34
529.112	5.32
529.31	5.22
529.508	5.31
529.707	5.29
529.905	5.34
530.103	5.29
530.301	5.31
530.5	5.34
530.698	5.39
530.896	5.38
531.094	5.5
531.293	5.52
531.491	5.69
531.689	5.66
531.887	5.74
532.085	5.71
532.283	5.8
532.481	5.75
532.68	5.69
532.878	5.67
533.076	5.7
533.274	5.65
533.472	5.74
533.67	5.68
533.868	5.79
534.066	5.84
534.264	5.85
534.462	5.89
534.66	6
534.858	6.08
535.056	6.09
535.253	6.13
535.451	6.19
535.649	6.14
535.847	6.21
536.045	6.2
536.243	6.14
536.441	6.22
536.638	6.22
536.836	6.29
537.034	6.26
537.232	6.36
537.43	6.4
537.627	6.43
537.825	6.55
538.023	6.52
538.22	6.57
538.418	6.66
538.616	6.73
538.813	6.83
539.011	6.82
539.209	6.91
539.406	6.95
539.604	6.97
539.801	7.04
539.999	7.06
540.196	7.12
540.394	7.13
540.591	7.08
540.789	7.11
540.986	7.05
541.184	7.06
541.381	7.04
541.579	6.98
541.776	6.97
541.974	6.92
542.171	6.89
542.368	6.93
542.566	6.85
542.763	6.92
542.96	6.91
543.158	6.87
543.355	6.87
543.552	6.93
543.75	7.06
543.947	7.1
544.144	7.17
544.341	7.2
544.539	7.14
544.736	7.19
544.933	7.17
545.13	7.11
545.327	7.28
545.524	7.36
545.722	7.45
545.919	7.36
546.116	7.53
546.313	7.57
546.51	7.6
546.707	7.83
546.904	7.92
547.101	8.09
547.298	8.23
547.495	8.21
547.692	8.21
547.889	8.19
548.086	8.39
548.283	8.46
548.48	8.63
548.677	8.73
548.874	8.65
549.07	8.57
549.267	8.51
549.464	8.52
549.661	8.56
549.858	8.59
550.055	8.48
550.251	8.45
550.448	8.3
550.645	8.18
550.842	8.22
551.038	8.46
551.235	8.67
551.432	8.79
551.628	8.81
551.825	9.06
552.022	9.23
552.218	9.48
552.415	9.61
552.612	9.62
552.808	9.74
553.005	9.83
553.201	9.65
553.398	9.75
553.594	9.73
553.791	9.81
553.987	9.66
554.184	9.67
554.38	9.74
554.577	9.74
554.773	9.79
554.97	9.91
555.166	10.03
555.362	10.1
555.559	10.04
555.755	10.27
555.952	10.37
556.148	10.54
556.344	10.61
556.541	10.5
556.737	10.51
556.933	10.82
557.129	10.92
557.326	10.73
557.522	10.88
557.718	11.02
557.914	10.91
558.11	10.99
558.307	11.07
558.503	11.19
558.699	11.42
558.895	11.41
559.091	11.33
559.287	11.23
559.483	11.51
559.679	11.44
559.876	11.46
560.072	11.65
560.268	11.7
560.464	11.66
560.66	11.53
560.856	11.67
561.052	11.9
561.247	11.77
561.443	11.82
561.639	11.66
561.835	11.68
562.031	11.84
562.227	11.79
562.423	11.98
562.619	12.21
562.815	12.42
563.01	12.37
563.206	12.39
563.402	12.63
563.598	12.64
563.793	12.75
563.989	12.97
564.185	13.11
564.381	13.3
564.576	13.26
564.772	13.07
564.968	13.02
565.163	13.13
565.359	13.14
565.555	13.22
565.75	13.56
565.946	13.71
566.141	13.66
566.337	13.57
566.532	13.66
566.728	13.81
566.923	14.14
567.119	14.23
567.314	14.36
567.51	14.49
567.705	14.48
567.901	14.27
568.096	14.37
568.292	14.58
568.487	14.73
568.682	14.63
568.878	14.69
569.073	14.51
569.268	14.54
569.464	14.53
569.659	14.65
569.854	14.81
570.05	14.75
570.245	14.92
570.44	14.79
570.635	14.74
570.831	14.99
571.026	15.1
571.221	15.34
571.416	15.47
571.611	15.28
571.806	15.21
572.002	15.25
572.197	15.34
572.392	15.27
572.587	15.4
572.782	15.59
572.977	15.58
573.172	15.43
573.367	15.34
573.562	15.41
573.757	15.81
573.952	15.84
574.147	15.95
574.342	16.15
574.537	16.28
574.732	16.36
574.927	16.36
575.121	16.43
575.316	16.55
575.511	16.69
575.706	16.73
575.901	16.74
576.096	16.69
576.29	16.83
576.485	16.82
576.68	16.86
576.875	16.94
577.069	17.12
577.264	17.13
577.459	17.34
577.654	17.35
577.848	17.62
578.043	17.65
578.238	17.84
578.432	17.81
578.627	17.82
578.821	17.85
579.016	17.9
579.21	17.87
579.405	17.71
579.6	17.61
579.794	17.65
579.989	17.48
580.183	17.23
580.378	17.21
580.572	17.35
580.766	17.68
580.961	17.74
581.155	17.95
581.35	17.9
581.544	18.1
581.738	18.28
581.933	18.49
582.127	18.63
582.321	18.96
582.516	19.16
582.71	19.29
582.904	19.18
583.099	19.06
583.293	19.22
583.487	19.24
583.681	19.41
583.875	19.24
584.07	19.32
584.264	19.49
584.458	19.63
584.652	19.84
584.846	19.88
585.04	20
585.234	20.33
585.428	20.12
585.623	20.31
585.817	20.3
586.011	20.43
586.205	20.48
586.399	20.56
586.593	20.51
586.787	20.49
586.981	20.29
587.174	20.73
587.368	20.61
587.562	20.85
587.756	20.89
587.95	20.93
588.144	20.92
588.338	20.88
588.532	20.6
588.725	20.56
588.919	20.67
589.113	20.82
589.307	20.39
589.501	20.41
589.694	20.44
589.888	20.59
590.082	20.66
590.275	20.74
590.469	20.89
590.663	20.99
590.856	20.78
591.05	20.8
591.244	20.82
591.437	21.13
591.631	21.19
591.824	21.19
592.018	21.15
592.212	21.24
592.405	21.32
592.599	21.5
592.792	21.74
592.986	22.16
593.179	22.12
593.372	21.96
593.566	21.89
593.759	22.27
593.953	22.2
594.146	22.26
594.339	22.18
594.533	22.36
594.726	22.41
594.92	22.4
595.113	22.54
595.306	22.53
595.499	22.68
595.693	22.55
595.886	22.31
596.079	22.26
596.272	22.09
596.466	22.28
596.659	22.29
596.852	22.15
597.045	22.19
597.238	22.08
597.431	22.03
597.624	22.16
597.818	22.32
598.011	22.48
598.204	22.59
598.397	22.88
598.59	22.88
598.783	22.9
598.976	22.94
599.169	22.93
599.362	23.1
599.555	23.48
599.748	23.5
599.941	23.32
600.134	23.26
600.326	23.49
600.519	23.39
600.712	23.51
600.905	23.5
601.098	23.61
601.291	23.58
601.483	23.49
601.676	23.37
601.869	23.22
602.062	23.45
602.255	23.4
602.447	23.34
602.64	23.36
602.833	23.24
603.025	23.33
603.218	23.28
603.411	23.36
603.603	23.43
603.796	23.27
603.989	23.42
604.181	23.44
604.374	23.56
604.566	23.52
604.759	23.64
604.951	23.79
605.144	23.75
605.336	23.91
605.529	23.69
605.721	23.83
605.914	23.93
606.106	23.87
606.299	24.09
606.491	24.11
606.683	24.37
606.876	24.53
607.068	24.49
607.26	24.8
607.453	24.81
607.645	25.11
607.837	24.95
608.03	25.11
608.222	25.19
608.414	25.23
608.606	25.39
608.799	25.12
608.991	25.03
609.183	24.93
609.375	24.9
609.567	25.09
609.759	25.14
609.952	25.2
610.144	25.1
610.336	25.08
610.528	24.97
610.72	24.86
610.912	24.9
611.104	24.85
611.296	25.09
611.488	25.28
611.68	25.43
611.872	25.56
612.064	25.53
612.256	25.83
612.448	25.95
612.64	26.11
612.832	26.23
613.023	26.48
613.215	26.51
613.407	26.53
613.599	26.17
613.791	25.85
613.983	25.82
614.174	25.97
614.366	25.59
614.558	25.6
614.75	25.44
614.941	25.64
615.133	25.69
615.325	25.81
615.516	25.79
615.708	25.79
615.9	25.97
616.091	25.97
616.283	26.04
616.475	26.38
616.666	26.41
616.858	26.7
617.049	26.25
617.241	26.27
617.432	26.35
617.624	26.46
617.815	26.67
618.007	26.56
618.198	26.41
618.39	26.48
618.581	26.24
618.773	26.29
618.964	26.33
619.155	26.72
619.347	26.76
619.538	26.87
619.729	26.97
619.921	26.91
620.112	26.84
620.303	26.95
620.494	26.9
620.686	27.31
620.877	27.3
621.068	27.31
621.259	27.31
621.451	27.37
621.642	27.27
621.833	26.97
622.024	27.11
622.215	27.45
622.406	27.66
622.597	27.64
622.788	27.65
622.98	27.74
623.171	28.03
623.362	28.12
623.553	28.19
623.744	28.1
623.935	28.22
624.126	27.83
624.317	27.65
624.508	27.75
624.698	27.74
624.889	27.41
625.08	27.73
625.271	27.31
625.462	27.29
625.653	27.36
625.844	27.59
626.034	27.65
626.225	28.18
626.416	28.15
626.607	28.24
626.798	28.19
626.988	28.1
627.179	27.99
627.37	28.13
627.56	28.18
627.751	28.02
627.942	27.67
628.132	27.88
628.323	27.83
628.514	27.84
628.704	27.48
628.895	27.47
629.085	28.02
629.276	27.93
629.466	28.02
629.657	27.95
629.847	27.96
630.038	28.2
630.228	28.22
630.419	28.45
630.609	28.59
630.8	28.81
630.99	28.89
631.181	28.79
631.371	28.82
631.561	28.71
631.752	28.91
631.942	29.04
632.132	29.26
632.323	29.36
632.513	28.91
632.703	28.96
632.893	29.05
633.084	29.15
633.274	29.5
633.464	29.86
633.654	30.06
633.844	30.05
634.034	30.23
634.225	30.22
634.415	30.03
634.605	30.15
634.795	30.26
634.985	30.37
635.175	30.56
635.365	30
635.555	29.83
635.745	29.84
635.935	29.85
636.125	29.65
636.315	29.97
636.505	29.88
636.695	29.62
636.885	29.21
637.075	29.57
637.265	29.82
637.455	30
637.644	30.08
637.834	29.85
638.024	29.92
638.214	29.9
638.404	29.63
638.593	29.71
638.783	29.92
638.973	30.41
639.163	30.14
639.352	30.11
639.542	30.22
639.732	30.28
639.921	30.24
640.111	30.19
640.301	30.39
640.49	30.62
640.68	30.9
640.87	31.44
641.059	31.35
641.249	31.11
641.438	30.77
641.628	31.05
641.817	30.92
642.007	31.48
642.196	31.59
642.386	31.61
642.575	31.78
642.764	31.66
642.954	31.31
643.143	31.34
643.333	31.69
643.522	31.45
643.711	31.16
643.901	30.98
644.09	30.86
644.279	30.84
644.469	31.08
644.658	30.5
644.847	30.47
645.036	30.49
645.226	30.64
645.415	30.67
645.604	31.07
645.793	31.12
645.982	31.56
646.171	31.56
646.361	31.55
646.55	31.45
646.739	31.55
646.928	31.52
647.117	31.51
647.306	31.6
647.495	31.58
647.684	31.73
647.873	31.98
648.062	32.16
648.251	32.26
648.44	32.13
648.629	32.01
648.818	32.53
649.007	32.68
649.196	32.81
649.384	32.69
649.573	32.5
649.762	32.64
649.951	32.49
650.14	32.25
650.328	32.31
650.517	32.42
650.706	32.5
650.895	32.61
651.083	32.88
651.272	33.25
651.461	33.25
651.65	33.36
651.838	33.2
652.027	33.3
652.216	33.22
652.404	33.27
652.593	33.54
652.781	33.63
652.97	33.3
653.158	33.1
653.347	33.02
653.535	33.03
653.724	33.22
653.912	33.49
654.101	33.56
654.289	33.69
654.478	33.39
654.666	33.49
654.855	33.29
655.043	33.36
655.231	33.54
655.42	33.96
655.608	33.79
655.796	33.91
655.985	33.74
656.173	33.58
656.361	33.87
656.55	33.91
656.738	33.69
656.926	33.98
657.114	34.14
657.302	34.02
657.491	33.41
657.679	33.54
657.867	33.34
658.055	33.61
658.243	33.79
658.431	33.69
658.619	33.96
658.807	34.14
658.996	34.01
659.184	33.98
659.372	33.86
659.56	34.02
659.748	33.97
659.936	34.08
660.124	33.85
660.311	33.72
660.499	33.73
660.687	33.81
660.875	33.77
661.063	33.92
661.251	34.06
661.439	34.25
661.627	34.35
661.814	34.54
662.002	35.07
662.19	35.18
662.378	35.34
662.565	35.5
662.753	35.57
662.941	35.95
663.129	35.93
663.316	35.73
663.504	35.86
663.692	35.69
663.879	36
664.067	35.65
664.254	35.74
664.442	36.26
664.63	36.38
664.817	36.28
665.005	36.15
665.192	36.28
665.38	36.49
665.567	36.57
665.755	36.72
665.942	36.51
666.13	36.24
666.317	36.68
666.504	36.55
666.692	36.08
666.879	35.81
667.067	35.82
667.254	35.73
667.441	35.9
667.629	36.15
667.816	36.57
668.003	36.48
668.19	36.57
668.378	36.5
668.565	36.56
668.752	36.89
668.939	37
669.127	37.14
669.314	37.19
669.501	36.69
669.688	36.47
669.875	36.1
670.062	36.25
670.249	36.47
670.436	36.53
670.623	36.4
670.81	36.24
670.997	36.54
671.184	36.23
671.371	36.33
671.558	36.87
671.745	36.92
671.932	36.93
672.119	37.2
672.306	36.76
672.493	36.29
672.68	36.43
672.867	36.58
673.054	36.05
673.24	36.1
673.427	36.34
673.614	36.69
673.801	36.51
673.988	36.25
674.174	35.75
674.361	36.2
674.548	36.61
674.734	36.35
674.921	36.61
675.108	36.81
675.294	37.04
675.481	37.07
675.668	36.91
675.854	37.15
676.041	37.76
676.227	38.16
676.414	38.7
676.601	38.88
676.787	39.2
676.974	38.83
677.16	39.02
677.347	38.84
677.533	38.66
677.719	38.7
677.906	38.71
678.092	38.87
678.279	38.55
678.465	38.03
678.651	37.33
678.838	37.39
679.024	37.39
679.21	37.29
679.397	37.09
679.583	36.77
679.769	36.37
679.955	36.52
680.142	35.99
680.328	36.91
680.514	36.81
680.7	37.37
680.886	37.3
681.073	37.54
681.259	37.72
681.445	37.86
681.631	38.3
681.817	38.03
682.003	37.91
682.189	38.21
682.375	38.05
682.561	38.11
682.747	37.97
682.933	37.63
683.119	37.51
683.305	37.85
683.491	38.06
683.677	38.11
683.863	38.65
684.049	38.59
684.235	38.73
684.42	38.21
684.606	38.35
684.792	38.36
684.978	39.42
685.164	39.67
685.349	39.72
685.535	39.67
685.721	39.42
685.907	39.29
686.092	39.83
686.278	39.88
686.464	40.38
686.649	40.44
686.835	40.42
687.021	39.7
687.206	39.7
687.392	39.43
687.577	39.79
687.763	39.84
687.948	40.18
688.134	39.82
688.319	39.47
688.505	38.76
688.69	39.03
688.876	38.92
689.061	38.79
689.247	38.79
689.432	38.69
689.618	38.35
689.803	38.54
689.988	38.61
690.174	39.02
690.359	39.43
690.544	40
690.73	39.66
690.915	40.29
691.1	40.87
691.285	40.74
691.471	41.19
691.656	41.34
691.841	41.47
692.026	40.81
692.211	40.33
692.396	39.91
692.582	39.96
692.767	40.24
692.952	39.57
693.137	39.59
693.322	39.6
693.507	38.82
693.692	38.37
693.877	38.23
694.062	38.87
694.247	38.93
694.432	39.3
694.617	39.3
694.802	38.66
694.987	38.65
695.172	38.12
695.357	38.07
695.541	38.76
695.726	39.13
695.911	39.6
696.096	39.62
696.281	39.97
696.466	40.05
696.65	39.77
696.835	39.96
697.02	40.47
697.204	40.58
697.389	40.81
697.574	40.66
697.759	40.66
697.943	40.41
698.128	40.42
698.312	39.91
698.497	39.29
698.682	39.17
698.866	38.97
699.051	39.02
699.235	39.32
699.42	39.14
699.604	39.04
699.789	38.88
699.973	38.74
700.158	38.58
700.342	39.04
700.527	39.45
700.711	39.71
700.895	40.34
701.08	40.42
701.264	40.15
701.448	40.32
701.633	40.8
701.817	41.13
702.001	42
702.186	41.91
702.37	41.8
702.554	42.15
702.738	42.82
702.923	43.04
703.107	43.16
703.291	43.55
703.475	43.29
703.659	43.07
703.843	42.82
704.027	42.84
704.212	43.39
704.396	43.87
704.58	44.2
704.764	43.43
704.948	43.36
705.132	42.89
705.316	43.04
705.5	43.71
705.684	43.95
705.868	44.18
706.052	43.55
706.235	43.4
706.419	43.43
706.603	43.73
706.787	44.23
706.971	45.19
707.155	44.74
707.339	44.18
707.522	44.2
707.706	44.19
707.89	44.37
708.074	44.51
708.257	44.67
708.441	44.34
708.625	43.55
708.808	43.87
708.992	43.35
709.176	43.79
709.359	43.55
709.543	43.24
709.727	42.62
709.91	42.62
710.094	42.27
710.277	42
710.461	41.65
710.644	42.32
710.828	41.46
711.011	41.17
711.195	41.41
711.378	41.56
711.562	42.34
711.745	42.24
711.928	42.69
712.112	42.48
712.295	42.7
712.478	42.83
712.662	42.67
712.845	43.14
713.028	42.59
713.212	42.32
713.395	42.62
713.578	42.23
713.761	42.49
713.945	42.13
714.128	42.87
714.311	42.48
714.494	42.31
714.677	42.89
714.86	43.05
715.043	43.52
715.227	43.22
715.41	43.33
715.593	43.01
715.776	43.24
715.959	43.49
716.142	43.37
716.325	43.65
716.508	44.11
716.691	43.53
716.874	43.19
717.057	43.15
717.239	44.39
717.422	44.04
717.605	44.05
717.788	43.82
717.971	43.52
718.154	43.68
718.337	43.8
718.519	44.1
718.702	43.93
718.885	43.8
719.068	43.77
719.25	42.67
719.433	43.46
719.616	43.54
719.798	43.05
719.981	43.17
720.164	42.85
720.346	43.11
720.529	42.4
720.712	42.09
720.894	42.56
721.077	42.55
721.259	42.88
721.442	42.33
721.624	42.35
721.807	43.33
721.989	43.54
722.172	44.25
722.354	44.59
722.537	45.26
722.719	46.15
722.901	46.22
723.084	46.39
723.266	46.27
723.448	47.28
723.631	47.62
723.813	47.53
723.995	47.22
724.178	47.13
724.36	47.26
724.542	47.01
724.724	46.73
724.907	46.28
725.089	47.46
725.271	48.12
725.453	47.01
725.635	47.14
725.817	47.1
725.999	47.74
726.181	47.09
726.364	46.11
726.546	45.91
726.728	45.91
726.91	46.15
727.092	44.09
727.274	43.48
727.456	43.92
727.638	42.97
727.819	42.58
728.001	42.51
728.183	42.34
728.365	42.68
728.547	42.76
728.729	43.07
728.911	43.54
729.093	44.01
729.274	44.46
729.456	43.95
729.638	44.89
729.82	45.47
730.001	45.48
730.183	45.56
730.365	44.99
730.546	45.44
730.728	45
730.91	45.79
731.091	45.79
731.273	45.3
731.455	45.81
731.636	45.6
731.818	45.98
731.999	45.18
732.181	45.94
732.362	47.27
732.544	47.62
732.725	48.04
732.907	46.71
733.088	47.47
733.27	47.81
733.451	47.71
733.633	47.8
733.814	47.15
733.995	48.19
734.177	47.41
734.358	46.76
734.539	46.24
734.721	46.19
734.902	46.09
735.083	46.3
735.264	46.27
735.446	45.7
735.627	45.98
735.808	45.67
735.989	45.66
736.17	46.13
736.351	45.96
736.533	45.62
736.714	45.15
736.895	45.5
737.076	45.64
737.257	45.46
737.438	46.24
737.619	46.19
737.8	46.98
737.981	46.15
738.162	45.47
738.343	46.4
738.524	46.77
738.705	47.29
738.886	47.55
739.067	46.8
739.247	47.76
739.428	47.71
739.609	47.65
739.79	47.79
739.971	48.09
740.151	48.68
740.332	48.51
740.513	48.48
740.694	48.11
740.874	47.73
741.055	48.41
741.236	47.96
741.417	48.63
741.597	47.87
741.778	48.13
741.958	48.55
742.139	49.12
742.32	48.88
742.5	49.27
742.681	50.08
742.861	50.27
743.042	50.34
743.222	50.53
743.403	50.69
743.583	51.68
743.764	51.85
743.944	52.1
744.124	52.16
744.305	51.68
744.485	51.53
744.666	51.21
744.846	52.18
745.026	51.86
745.207	52.2
745.387	51.5
745.567	51.27
745.747	51.3
745.928	51.33
746.108	51.52
746.288	51.75
746.468	50.51
746.648	50.28
746.829	49.51
747.009	48.94
747.189	47.66
747.369	47.21
747.549	47.35
747.729	47.07
747.909	46.7
748.089	45.56
748.269	45.47
748.449	47.51
748.629	47.06
748.809	47.4
748.989	48.77
749.169	48.96
749.349	49.5
749.529	49.27
749.709	48.91
749.889	48.8
750.068	49.7
750.248	50.23
750.428	49.85
750.608	49.82
750.788	49.42
750.967	48.31
751.147	48.41
751.327	48.13
751.507	48.62
751.686	49.72
751.866	49.75
752.046	49.18
752.225	48.98
752.405	48.57
752.585	50
752.764	49.46
752.944	49.12
753.123	50.4
753.303	50.45
753.482	50.99
753.662	49.36
753.841	48.48
754.021	48.15
754.2	48.31
754.38	48.75
754.559	47.96
754.739	48.04
754.918	47.98
755.097	45.83
755.277	46.12
755.456	44.96
755.635	46.05
755.815	47.33
755.994	47.81
756.173	47.45
756.352	46.76
756.532	45.95
756.711	47.38
756.89	48.28
757.069	49.02
757.248	48.33
757.427	49.19
757.607	48.88
757.786	49.94
757.965	49.79
758.144	50.79
758.323	50.91
758.502	52.02
758.681	50.41
758.86	49.3
759.039	50
759.218	50.87
759.397	49.77
759.576	49.62
759.755	48.85
759.934	48.67
760.113	48.21
760.291	47.81
760.47	48.04
760.649	48.39
760.828	49.01
761.007	49.18
761.186	48.36
761.364	48.15
761.543	48.63
761.722	47.51
761.901	46.66
762.079	46.39
762.258	47.13
762.437	46.75
762.615	47.1
762.794	47.91
762.972	47.74
763.151	48.05
763.33	48.76
763.508	47.85
763.687	47.6
763.865	48.17
764.044	47.85
764.222	46.96
764.401	47.12
764.579	46.77
764.758	46.13
764.936	46.08
765.114	46.37
765.293	45.85
765.471	46.9
765.65	47.47
765.828	47.56
766.006	48.15
766.184	49.82
766.363	49.55
766.541	50.03
766.719	51.27
766.898	50.75
767.076	50.97
767.254	51.48
767.432	50.92
767.61	51.6
767.788	52.68
767.967	52.43
768.145	51.66
768.323	51.74
768.501	50.96
768.679	50.22
768.857	51.56
769.035	51.98
769.213	52.3
769.391	53.2
769.569	52.92
769.747	52.82
769.925	53.42
770.103	53.98
770.281	54.54
770.459	54.96
770.636	55.71
770.814	54.67
770.992	53.72
771.17	53.83
771.348	53.25
771.525	53.49
771.703	53.06
771.881	52.87
772.059	51.75
772.236	50.29
772.414	52
772.592	51.87
772.769	53.79
772.947	55.17
773.125	55.71
773.302	56.86
773.48	58.22
773.657	58.31
773.835	58.01
774.013	59.62
774.19	61.1
774.368	60.5
774.545	60.44
774.723	60.12
774.9	59.49
775.077	59.01
775.255	58.59
775.432	58.34
775.61	58.37
775.787	59.3
775.964	57.76
776.142	57.86
776.319	59.55
776.496	59.06
776.674	58.29
776.851	56.74
777.028	57.31
777.205	55.67
777.382	53.28
777.56	53.64
777.737	54.52
777.914	55.49
778.091	54.07
778.268	51.74
778.445	49.6
778.622	48.7
778.8	50.38
778.977	50.31
779.154	56.84
779.331	57.01
779.508	55.95
779.685	54.82
779.862	55.53
780.038	55.57
780.215	57.23
780.392	59.26
780.569	59.46
780.746	59.03
780.923	58.41
781.1	53.65
781.277	54.37
781.453	53.57
781.63	54.15
781.807	54.24
781.984	56.6
782.16	54.85
782.337	54.69
782.514	54.6
782.691	56.12
782.867	57.31
783.044	58.26
783.221	56.74
783.397	57.69
783.574	56.92
783.75	55.83
783.927	54.69
784.103	55.8
784.28	55.88
784.456	57.35
784.633	56.22
784.809	54.8
784.986	52.78
785.162	52.17
785.339	54.29
785.515	53.33
785.692	52.19
785.868	51.32
786.044	51.02
786.221	50.39
786.397	49.03
786.573	49.44
786.749	49.06
786.926	50.24
787.102	52.16
787.278	51.77
787.454	53.26
787.631	53.88
787.807	52.93
787.983	53.9
788.159	54.95
788.335	55.62
788.511	54.11
788.687	55.04
788.863	55.67
789.039	54.99
789.216	54.3
789.392	52.41
789.568	54.05
789.744	56.42
789.919	55.13
790.095	54.9
790.271	56.19
790.447	55.38
790.623	56.01
790.799	55.29
790.975	55.46
791.151	55.77
791.327	57.48
791.502	56.17
791.678	55.17
791.854	55.37
792.03	53.72
792.205	53.47
792.381	53.51
792.557	53.14
792.733	53.27
792.908	56.75
793.084	58.24
793.259	58.4
793.435	60.19
793.611	61
793.786	63.14
793.962	65
794.137	64.77
794.313	68.54
794.488	68.46
794.664	68.68
794.839	67.69
795.015	65.1
795.19	62.73
795.366	60.71
795.541	60.28
795.716	58.64
795.892	58.24
796.067	57.53
796.242	56.39
796.418	55.73
796.593	54.42
796.768	52.3
796.944	51.68
797.119	52.1
797.294	53.93
797.469	54.55
797.644	54.95
797.82	55.35
797.995	55.06
798.17	55.62
798.345	55.88
798.52	55.97
798.695	56.6
798.87	56.41
799.045	57.95
799.22	55.61
799.395	54.95
799.57	56.34
799.745	56.21
799.92	57.6
800.095	58.27
800.27	57.96
800.445	58.43
800.62	58.87
800.795	60.34
800.97	61.06
801.145	63.91
801.319	64.84
801.494	63.35
801.669	65.61
801.844	66.05
802.018	62.17
802.193	62.7
802.368	62.88
802.543	62.22
802.717	63.3
802.892	63.74
803.067	61.78
803.241	62.58
803.416	60.48
803.59	60.11
803.765	59.14
803.94	61.94
804.114	61.8
804.289	61.24
804.463	61.81
804.638	60.95
804.812	58.11
804.986	57.78
805.161	58.4
805.335	59.67
805.51	58.63
805.684	59.42
805.858	59.37
806.033	59.61
806.207	62.53
806.381	63.23
806.556	62.02
806.73	64.37
806.904	64.6
807.078	61.96
807.253	64.54
807.427	64.95
807.601	64.4
807.775	64.99
807.949	64.87
808.123	62.6
808.298	62.65
808.472	67.01
808.646	67.38
808.82	66.65
808.994	67.02
809.168	66.76
809.342	65.43
809.516	66.99
809.69	67.65
809.864	68.81
810.038	71.81
810.212	72.18
810.385	69
810.559	70.39
810.733	72.11
810.907	70.68
811.081	68.98
811.255	70.08
811.428	70.13
811.602	67.38
811.776	65.83
811.95	63.57
812.123	62.97
812.297	63.96
812.471	60.9
812.644	61.24
812.818	64.31
812.992	63.34
813.165	63.45
813.339	62.61
813.512	64.15
813.686	64.32
813.86	62.78
814.033	64.88
814.207	63.66
814.38	67.23
814.554	67.52
814.727	68.07
814.9	67.78
815.074	67.84
815.247	70.08
815.421	67.42
815.594	67.26
815.767	65.86
815.941	64.62
816.114	64.28
816.287	64.37
816.46	62.5
816.634	60.17
816.807	63.79
816.98	62.49
817.153	60.29
817.327	60.95
817.5	63.44
817.673	66.68
817.846	69.68
818.019	69.05
818.192	70.41
818.365	72.61
818.538	75.62
818.711	71.7
818.884	75.9
819.057	74.49
819.23	74.3
819.403	71.99
819.576	70.09
819.749	67.02
819.922	69.2
820.095	63.88
820.268	64.37
820.441	62.33
820.614	62.47
820.786	60.37
820.959	58.63
821.132	58.03
821.305	56.9
821.477	55.05
821.65	54.18
821.823	51.57
821.996	51.98
822.168	51.27
822.341	50.83
822.514	49.6
822.686	49.18
822.859	48.89
823.031	48.4
823.204	48.21
823.376	48.16
823.549	47.83
823.722	48.48
823.894	48.19
824.067	47.92
824.239	47.81
824.411	48.51
824.584	48.47
824.756	48.51
824.929	48.52
825.101	48.62
825.273	48.78
825.446	48.74
825.618	48.52
825.79	49.1
825.963	49.06
826.135	48.67
826.307	48.88
826.479	48.75
826.652	49.2
826.824	49.5
826.996	49.73
827.168	49.71
827.34	50.36
827.512	49.92
827.684	49.47
827.856	50.13
828.029	51.29
828.201	50.13
828.373	50
828.545	50.11
828.717	50.52
828.889	50.26
829.061	51.47
829.232	51.86
829.404	52.8
829.576	53.29
829.748	53.24
829.92	53.34
830.092	54.71
830.264	56.29
830.436	56.06
830.607	56.09
830.779	56.77
830.951	57.07
831.123	57.14
831.294	58.96
831.466	61.44
831.638	62.88
831.809	63.08
831.981	64.36
832.153	63.04
832.324	65.28
832.496	65.08
832.667	66.14
832.839	66.53
833.011	66.81
833.182	67.26
833.354	65.14
833.525	65.12
833.697	64.9
833.868	64.03
834.039	65.58
834.211	64.38
834.382	63.51
834.554	62.51
834.725	61.77
834.896	60.1
835.068	57.9
835.239	57.61
835.41	57.28
835.581	58.21
835.753	58.01
835.924	56.68
836.095	56.06
836.266	56.66
836.438	56.67
836.609	55.87
836.78	57.12
836.951	59.65
837.122	59.79
837.293	61
837.464	60.53
837.635	60.2
837.806	61.7
837.977	61.14
838.148	61.51
838.319	63.21
838.49	64.88
838.661	65.6
838.832	64.26
839.003	64.68
839.174	67.87
839.345	68.86
839.516	68.19
839.687	70.91
839.857	76.67
840.028	79.36
840.199	79.8
840.37	79.35
840.54	79.48
840.711	77.49
840.882	77.67
841.053	72.99
841.223	68.5
841.394	71.91
841.564	69.69
841.735	68.77
841.906	67.13
842.076	67.99
842.247	69.58
842.417	68.03
842.588	69.01
842.758	73.43
842.929	74.2
843.099	79.35
843.27	79.73
843.44	78.88
843.611	78.65
843.781	77.1
843.951	74.85
844.122	74.34
844.292	76.51
844.462	77.91
844.633	74.94
844.803	78.44
844.973	79.48
845.144	78.26
845.314	84.33
845.484	86.86
845.654	95.9
845.824	101.75
845.995	102.42
846.165	109.24
846.335	112.13
846.505	131.14
846.675	132.19
846.845	143.11
847.015	145.15
847.185	138.39
847.355	136.47
847.525	135.93
847.695	134.46
847.865	131.44
848.035	120
848.205	125.56
848.375	111.26
848.545	106.09
848.715	95.13
848.884	104.02
849.054	104.49
849.224	103.67
849.394	101.02
849.564	104.82
849.733	102.88
849.903	107.63
850.073	101.99
850.243	96.83
850.412	97.97
850.582	96.91
850.752	97.31
850.921	100.57
851.091	100.66
851.26	102.69
851.43	99.44
851.599	102.02
851.769	100.5
851.939	105.62
852.108	111.21
852.278	112.34
852.447	108.76
852.616	107.6
852.786	102
852.955	101.97
853.125	106.21
853.294	111.61
853.463	109.8
853.633	110.36
853.802	105.61
853.971	108.91
854.141	106.75
854.31	110.96
854.479	111.62
854.648	110.68
854.818	108.82
854.987	102.04
855.156	105.21
855.325	112.15
855.494	114.73
855.663	117.35
855.832	115.84
856.001	123.39
856.171	124.86
856.34	120.42
856.509	127.67
856.678	128.59
856.847	132.14
857.016	111.09
857.185	108.11
857.353	109.2
857.522	114.66
857.691	110.75
857.86	108.09
858.029	119.32
858.198	128.84
858.367	126.32
858.535	139.3
858.704	142.55
858.873	166.28
859.042	163.27
859.21	172.48
859.379	159.32
859.548	167.46
859.717	169.39
859.885	166.17
860.054	152.86
860.222	153.02
860.391	144.01
860.56	139.08
860.728	135.08
860.897	127.25
861.065	109.25
861.234	115.48
861.402	114.09
861.571	116.49
861.739	107.96
861.908	111.5
862.076	119.75
862.244	113.83
862.413	116.49
862.581	108.55
862.749	121.64
862.918	135.42
863.086	120.55
863.254	115.5
863.423	108.58
863.591	106.92
863.759	106.58
863.927	101.5
864.096	111.65
864.264	110.28
864.432	114.46
864.6	105.78
864.768	110.27
864.936	110.47
865.104	115.29
865.272	119.29
865.44	123.33
865.608	117.2
865.776	124.74
865.944	113.11
866.112	115.86
866.28	120.03
866.448	129.06
866.616	117.65
866.784	121.46
866.952	108.34
867.12	107.3
867.288	104.73
867.455	104.37
867.623	99.31
867.791	107.41
867.959	110.7
868.127	107.02
868.294	105.51
868.462	111.68
868.63	110.59
868.797	128.65
868.965	119.54
869.133	127.86
869.3	138.61
869.468	126.68
869.636	123.87
869.803	115.65
869.971	114.31
870.138	113.36
870.306	112.24
870.473	116.08
870.641	111.35
870.808	116.22
870.975	109.79
871.143	105.73
871.31	108.34
871.478	98.24
871.645	99.5
871.812	107.07
871.98	104.98
872.147	105.32
872.314	103.86
872.482	95.38
872.649	90.2
872.816	90.54
872.983	89.97
873.15	89.97
873.318	96.03
873.485	103.33
873.652	98.47
873.819	107.87
873.986	100.59
874.153	99.3
874.32	99.11
874.487	102.06
874.654	98.09
874.821	100.97
874.988	101.64
875.155	104.46
875.322	103.95
875.489	101.26
875.656	96.44
875.823	109.75
875.99	110.84
876.157	123.71
876.324	133.76
876.49	136.2
876.657	129.1
876.824	122.64
876.991	117.7
877.157	120.17
877.324	121.79
877.491	120.91
877.658	119.25
877.824	114.9
877.991	112.29
878.157	102.93
878.324	113.4
878.491	117.17
878.657	112.38
878.824	99.99
878.99	86.99
879.157	95.23
879.323	95.45
879.49	85.31
879.656	89.72
879.823	89.95
879.989	93.84
880.156	89.56
880.322	85.5
880.488	90.14
880.655	98.39
880.821	104.75
880.987	91.93
881.154	87.48
881.32	93.04
881.486	88.78
881.652	87.43
881.819	86.11
881.985	82.77
882.151	78.78
882.317	76.37
882.483	76.33
882.649	70.87
882.816	68.85
882.982	65.71
883.148	63.98
883.314	63.73
883.48	62.11
883.646	60.35
883.812	59.02
883.978	59.18
884.144	57.28
884.31	54.56
884.476	55
884.642	53.87
884.807	56.29
884.973	56.22
885.139	56.02
885.305	57.01
885.471	56.7
885.637	58.63
885.802	59.13
885.968	62.18
886.134	63.77
886.3	64.67
886.465	67.6
886.631	70.6
886.797	74.89
886.962	78.37
887.128	81.67
887.293	85.42
887.459	88.56
887.625	89.71
887.79	86.73
887.956	91.82
888.121	96.79
888.287	99.3
888.452	91.64
888.618	87.77
888.783	80.76
