Data from LC_192_Reflection_1.txt Node
Date: Tue Nov 17 13:36:28 EST 2015
User: robert
Spectrometer: USB4E03001
Autoset integration time: false
Trigger mode: 4
Integration Time (sec): 1.000000E-1
Scans to average: 15
Electric dark correction enabled: true
Nonlinearity correction enabled: false
Boxcar width: 5
Stray light correction enabled: false
XAxis mode: Wavelengths
Stop averaging: false
Number of Pixels in Spectrum: 3648
>>>>>Begin Spectral Data<<<<<
177.566	273.64
177.785	406.78
178.005	-2140.67
178.225	468.79
178.445	-703.86
178.665	-175.22
178.885	-71.61
179.105	-305.91
179.324	598.41
179.544	1068.91
179.764	339.2
179.984	179.06
180.204	237.35
180.423	562.75
180.643	815.35
180.863	-3073.37
181.083	-4311.48
181.302	1003.3
181.522	503.73
181.742	1729.63
181.961	22840.2
182.181	-1290.47
182.401	-283.91
182.621	-710.27
182.84	-719.06
183.06	-2033.25
183.279	2485.54
183.499	-13732.77
183.719	-1313.11
183.938	-450.46
184.158	-572.36
184.377	-616.65
184.597	-574.6
184.816	607.67
185.036	623.39
185.256	709.95
185.475	395.46
185.695	505.1
185.914	368.95
186.134	381.72
186.353	217.6
186.572	296.99
186.792	245.95
187.011	234.98
187.231	798.81
187.45	2528.12
187.67	497.71
187.889	646.85
188.108	455.69
188.328	460.22
188.547	442.32
188.766	-2099.74
188.986	1704.4
189.205	460.87
189.424	578.11
189.644	419.85
189.863	304.45
190.082	314.32
190.302	337.85
190.521	429.84
190.74	8459.09
190.959	1304.69
191.178	337.56
191.398	279.97
191.617	862.93
191.836	633.73
192.055	463.69
192.274	-1495.65
192.494	-718.45
192.713	-2269.18
192.932	-1147.87
193.151	2159.75
193.37	33739.68
193.589	-1147950
193.808	29477.53
194.027	-4021.35
194.246	-1775.95
194.465	7175.41
194.685	796.37
194.904	658.83
195.123	104166.67
195.342	2643.93
195.561	814.84
195.78	619.85
195.999	710.8
196.218	462.43
196.436	407.1
196.655	284.9
196.874	313.51
197.093	307.98
197.312	239.2
197.531	212.49
197.75	192.22
197.969	197.97
198.188	199.54
198.407	215.55
198.625	257.51
198.844	241.97
199.063	193.02
199.282	243.65
199.501	222.99
199.719	329.64
199.938	326.7
200.157	382.59
200.376	1294.18
200.594	604.64
200.813	368.19
201.032	516.92
201.251	518.58
201.469	8379.88
201.688	2493.8
201.907	-10868.64
202.125	3106.89
202.344	3300.24
202.563	2758.69
202.781	1775.3
203	-2257.54
203.218	-457.99
203.437	-653.02
203.656	-425.39
203.874	-953.9
204.093	-1362.98
204.311	-1250.65
204.53	26428.95
204.748	-988.8
204.967	4362.25
205.185	921.82
205.404	441.08
205.622	415.75
205.841	301.55
206.059	337.98
206.278	235.81
206.496	205.53
206.715	208.56
206.933	218.73
207.151	193.04
207.37	156.55
207.588	157.56
207.806	183.47
208.025	182.25
208.243	224.93
208.461	270.64
208.68	425.72
208.898	-804
209.116	-1273.57
209.335	3336.44
209.553	-2430.08
209.771	1199.12
209.989	440.84
210.208	569.09
210.426	564.8
210.644	503.48
210.862	376.13
211.081	277.34
211.299	186.17
211.517	223.14
211.735	210.79
211.953	210
212.171	253.9
212.39	656.4
212.608	605.2
212.826	873.89
213.044	939.42
213.262	870.62
213.48	-36634.33
213.698	-1998.98
213.916	905.01
214.134	-1787.2
214.352	-524.45
214.57	-538.52
214.788	5498.5
215.006	1910.25
215.224	1729.51
215.442	1034.24
215.66	1073.94
215.878	746.71
216.096	299.73
216.314	356.85
216.532	226.97
216.75	158.92
216.968	160.5
217.185	185.79
217.403	187.25
217.621	166.87
217.839	175.51
218.057	179.21
218.275	163.58
218.492	207.21
218.71	232.39
218.928	298.81
219.146	328.84
219.363	338.96
219.581	233.58
219.799	242.15
220.017	286.55
220.234	289.97
220.452	251.37
220.67	246.23
220.887	262.58
221.105	257.72
221.323	220.48
221.54	212.24
221.758	202.24
221.976	212.25
222.193	178.68
222.411	161.49
222.629	172.91
222.846	183.82
223.064	187.23
223.281	191.1
223.499	195.73
223.716	190.98
223.934	195.39
224.151	202.57
224.369	190.96
224.586	236.25
224.804	218.57
225.021	211.39
225.239	200.59
225.456	189.22
225.674	168.73
225.891	145.84
226.108	160.74
226.326	150.97
226.543	129.6
226.76	127.22
226.978	107.15
227.195	103.61
227.413	88.33
227.63	75.56
227.847	72.16
228.064	62.94
228.282	61.08
228.499	58.14
228.716	54.96
228.934	55.24
229.151	50.96
229.368	45.8
229.585	39.32
229.802	43.04
230.02	44.35
230.237	42.98
230.454	44.77
230.671	47
230.888	43.88
231.105	45.82
231.323	41.97
231.54	48.86
231.757	55.17
231.974	62.85
232.191	57.28
232.408	57.99
232.625	61.04
232.842	59.08
233.059	58.13
233.276	62.89
233.493	68.61
233.71	72.32
233.927	65.55
234.144	64.34
234.361	60.96
234.578	65.98
234.795	64.82
235.012	62.38
235.229	64.53
235.446	62.38
235.663	64.37
235.879	60.35
236.096	65.19
236.313	62.55
236.53	63.13
236.747	65.47
236.964	61.66
237.181	61.8
237.397	63.22
237.614	63.6
237.831	63.95
238.048	64.58
238.264	63.15
238.481	58.2
238.698	55.66
238.915	54.7
239.131	56.11
239.348	56.25
239.565	53.04
239.781	51.51
239.998	52.34
240.215	49.7
240.431	45.57
240.648	41.68
240.865	40.23
241.081	41.78
241.298	36.99
241.514	33.67
241.731	31.55
241.947	30.44
242.164	27.24
242.38	22.75
242.597	23.09
242.814	22.6
243.03	22.85
243.246	22.2
243.463	21.31
243.679	22.58
243.896	23.35
244.112	24.44
244.329	26.67
244.545	29.66
244.762	32.44
244.978	31.28
245.194	32.21
245.411	31.8
245.627	32.6
245.843	30.71
246.06	27.46
246.276	22.3
246.492	21.19
246.709	19.58
246.925	19.4
247.141	19.59
247.357	18.98
247.574	18.51
247.79	18.94
248.006	18.34
248.222	18.28
248.439	19.02
248.655	19.7
248.871	19.63
249.087	20.16
249.303	20.54
249.519	19.64
249.736	22
249.952	22.75
250.168	25.07
250.384	25.55
250.6	25.1
250.816	23.45
251.032	26.3
251.248	24.56
251.464	23.54
251.68	23.42
251.896	25.07
252.112	21.85
252.328	22.61
252.544	19.96
252.76	19.53
252.976	19.16
253.192	21.16
253.408	21.49
253.624	22.43
253.84	23.76
254.056	23.45
254.272	20.56
254.487	23.66
254.703	22.65
254.919	23.4
255.135	25.53
255.351	29.2
255.567	26.6
255.782	23.63
255.998	24.59
256.214	22.27
256.43	22.17
256.646	26.35
256.861	22.33
257.077	22.44
257.293	21.85
257.508	20.34
257.724	19.95
257.94	20.89
258.155	20.68
258.371	21.45
258.587	19.02
258.802	16.97
259.018	14.56
259.234	14.79
259.449	14.83
259.665	14.13
259.88	13.23
260.096	13.33
260.312	12.8
260.527	12.88
260.743	13.48
260.958	15.03
261.174	15.57
261.389	16.7
261.605	17.98
261.82	17.78
262.036	18.67
262.251	20.38
262.466	20.04
262.682	22.04
262.897	22.54
263.113	19.48
263.328	19.17
263.543	20.9
263.759	21.57
263.974	21
264.189	20.13
264.405	21
264.62	20.74
264.835	21.61
265.051	21.82
265.266	22.6
265.481	24.46
265.696	24.48
265.912	24.06
266.127	21.33
266.342	20.39
266.557	20.22
266.773	18.71
266.988	19.04
267.203	17.92
267.418	18.84
267.633	19.21
267.848	18.44
268.064	17.35
268.279	16.35
268.494	16.92
268.709	16.44
268.924	17.97
269.139	17.19
269.354	17.49
269.569	17.89
269.784	15.45
269.999	15.51
270.214	16.25
270.429	16.66
270.644	15.98
270.859	16.71
271.074	17.45
271.289	17.53
271.504	17.42
271.719	15.62
271.934	16.04
272.149	16.18
272.363	16.24
272.578	15.87
272.793	15.67
273.008	16.45
273.223	16.55
273.438	15.57
273.653	14.41
273.867	15.58
274.082	17.03
274.297	16.87
274.512	17.26
274.726	16.81
274.941	16.19
275.156	16.48
275.371	16.07
275.585	16.79
275.8	18.34
276.015	19.87
276.229	19.16
276.444	17.69
276.659	18.88
276.873	18.78
277.088	18.99
277.302	19.78
277.517	18.07
277.732	17.59
277.946	16.58
278.161	17.85
278.375	16.72
278.59	17.13
278.804	17.75
279.019	17.24
279.233	17.37
279.448	17.76
279.662	17.54
279.877	18.21
280.091	17.77
280.306	17.03
280.52	15.65
280.735	15.71
280.949	15.95
281.163	17.02
281.378	17.85
281.592	17.24
281.806	16.3
282.021	16.21
282.235	16.91
282.449	18.01
282.664	18.76
282.878	19.67
283.092	19.57
283.307	19.58
283.521	18.7
283.735	16.91
283.949	16.35
284.164	16.13
284.378	15.18
284.592	15.31
284.806	14.96
285.02	13.55
285.234	12.28
285.449	12.08
285.663	12.18
285.877	12.46
286.091	12.82
286.305	13.25
286.519	13.33
286.733	14.5
286.947	13.97
287.161	13.8
287.375	14.6
287.589	14.57
287.803	14.97
288.017	13.92
288.231	14.68
288.445	14.54
288.659	14.7
288.873	14.74
289.087	14.8
289.301	15.04
289.515	15.93
289.729	17.31
289.943	16.63
290.157	16.74
290.371	17.38
290.584	16.97
290.798	17.17
291.012	17.69
291.226	18.16
291.44	18.27
291.654	18.89
291.867	17.94
292.081	15.96
292.295	16.67
292.509	15.75
292.722	15.87
292.936	15.13
293.15	15.55
293.364	15.32
293.577	15.33
293.791	13.39
294.005	12.9
294.218	12.85
294.432	13.83
294.645	13.85
294.859	14.24
295.073	14.47
295.286	14.55
295.5	14
295.713	13.56
295.927	13.29
296.14	14.22
296.354	12.88
296.568	13.48
296.781	13.51
296.994	13.94
297.208	14.43
297.421	13.76
297.635	13.43
297.848	13.02
298.062	13.31
298.275	13.18
298.489	13.73
298.702	15.53
298.915	15.4
299.129	15.12
299.342	15.03
299.555	14.76
299.769	15.97
299.982	17.23
300.195	17.16
300.409	17.34
300.622	17.29
300.835	16.96
301.048	16.81
301.262	16.98
301.475	17.46
301.688	17.82
301.901	18.58
302.115	18.48
302.328	18.01
302.541	18.51
302.754	18.55
302.967	18.54
303.18	18.44
303.393	17.84
303.607	17.95
303.82	17.74
304.033	17.17
304.246	16.7
304.459	16.27
304.672	15.99
304.885	16.6
305.098	16.55
305.311	17.63
305.524	16.69
305.737	16.99
305.95	17.51
306.163	16.61
306.376	16.12
306.589	15.77
306.802	15.74
307.015	16.18
307.228	16.45
307.44	16.54
307.653	15.24
307.866	16.02
308.079	16.14
308.292	15.03
308.505	15.77
308.718	15.79
308.93	15.75
309.143	15.41
309.356	15.11
309.569	14.5
309.781	14.75
309.994	13.36
310.207	12.49
310.42	11.38
310.632	11.15
310.845	11.84
311.058	11.77
311.27	11.59
311.483	12.38
311.696	11.8
311.908	11.47
312.121	10.93
312.333	12.7
312.546	13.5
312.759	14.07
312.971	14.24
313.184	14.38
313.396	14.62
313.609	14.7
313.821	14.55
314.034	15.92
314.246	16.33
314.459	17.28
314.671	17
314.884	17.25
315.096	17.96
315.309	17.22
315.521	16.47
315.733	16.69
315.946	15.39
316.158	15.53
316.371	15.38
316.583	16.18
316.795	15.54
317.008	16.05
317.22	16.07
317.432	15.71
317.644	16.21
317.857	15.7
318.069	17.08
318.281	18.79
318.494	17.69
318.706	16.77
318.918	15.87
319.13	15.83
319.342	15.68
319.555	14.68
319.767	15.11
319.979	16.55
320.191	17.35
320.403	16.59
320.615	16.49
320.827	17.1
321.039	18.42
321.252	18.12
321.464	18.23
321.676	18.62
321.888	19.33
322.1	18.4
322.312	17.11
322.524	16.72
322.736	16.32
322.948	16.71
323.16	16.09
323.372	15.62
323.584	16.67
323.796	18.26
324.007	17.48
324.219	17.58
324.431	18.74
324.643	19.61
324.855	19.72
325.067	20.4
325.279	20.32
325.491	20.71
325.702	20.86
325.914	20.92
326.126	19.55
326.338	20.09
326.55	19.35
326.761	19.09
326.973	19.28
327.185	19.24
327.396	18.91
327.608	18.48
327.82	18.11
328.032	17.99
328.243	16.84
328.455	17.31
328.666	16.92
328.878	17.57
329.09	17.39
329.301	16.58
329.513	16.76
329.725	17.07
329.936	17.44
330.148	18.53
330.359	18.43
330.571	18.52
330.782	18.69
330.994	18.01
331.205	17.81
331.417	18.62
331.628	18.64
331.84	19.54
332.051	19.79
332.262	19.64
332.474	19.03
332.685	19.84
332.897	20.74
333.108	20.72
333.319	21.58
333.531	21.61
333.742	21.07
333.953	20.95
334.165	19.67
334.376	19.13
334.587	19.1
334.799	18.85
335.01	18.18
335.221	17.56
335.432	16.34
335.644	16.49
335.855	16.6
336.066	15.88
336.277	16.34
336.488	17.16
336.7	16.75
336.911	17.25
337.122	17.77
337.333	17.56
337.544	18.44
337.755	18.87
337.966	18.03
338.177	18.14
338.388	18.46
338.599	18.55
338.811	17.98
339.022	17.76
339.233	16.18
339.444	15.65
339.655	16.41
339.866	16.08
340.076	15.89
340.287	16.62
340.498	16.37
340.709	17.14
340.92	16.76
341.131	16.32
341.342	17.62
341.553	18.26
341.764	18.69
341.975	18.35
342.185	17.78
342.396	18.18
342.607	17.98
342.818	18.8
343.029	17.33
343.239	16.84
343.45	16.88
343.661	15.95
343.872	15.89
344.082	15.38
344.293	15.22
344.504	16.81
344.714	16.04
344.925	16.23
345.136	15.34
345.346	16.03
345.557	16.27
345.768	17.18
345.978	16.93
346.189	17.51
346.399	17.47
346.61	17.39
346.821	15.62
347.031	16.39
347.242	16.02
347.452	16.45
347.663	15.98
347.873	16.85
348.084	15.3
348.294	16.15
348.504	14.93
348.715	15.91
348.925	15.39
349.136	15.03
349.346	14.62
349.557	14.49
349.767	13.69
349.977	13.47
350.188	12.88
350.398	14.28
350.608	13.43
350.819	13.99
351.029	13.33
351.239	13.99
351.449	15.04
351.66	15.26
351.87	15.31
352.08	16.39
352.29	16.91
352.501	16.82
352.711	17.03
352.921	17.31
353.131	17.95
353.341	17.86
353.552	17.03
353.762	16.15
353.972	15.81
354.182	16.85
354.392	16.33
354.602	16.93
354.812	17.17
355.022	16.45
355.232	15.67
355.442	14.61
355.652	15.25
355.862	15.84
356.072	16.35
356.282	16.39
356.492	15.4
356.702	15.1
356.912	14.68
357.122	14.63
357.332	14.61
357.542	14.55
357.752	15.51
357.962	14.81
358.171	13.98
358.381	14.14
358.591	13.68
358.801	13.74
359.011	13.05
359.221	13.08
359.43	13.43
359.64	12.78
359.85	13.22
360.06	12.72
360.269	12.66
360.479	12.97
360.689	12.23
360.899	12.71
361.108	12.73
361.318	13
361.528	12.45
361.737	12.24
361.947	12.45
362.156	12.23
362.366	11.89
362.576	11.86
362.785	12.14
362.995	12.41
363.204	12.11
363.414	12.27
363.623	12.78
363.833	13.14
364.042	12.91
364.252	12.67
364.461	12.84
364.671	12.98
364.88	13.01
365.09	13.01
365.299	13.41
365.509	13.41
365.718	13.37
365.927	12.9
366.137	13.21
366.346	13.46
366.555	13.75
366.765	13.85
366.974	14.54
367.183	14.42
367.393	13.98
367.602	14.05
367.811	13.79
368.021	13.63
368.23	14.04
368.439	13.65
368.648	13.19
368.857	13.6
369.067	13.64
369.276	13.32
369.485	14.11
369.694	14.25
369.903	14.19
370.112	14.52
370.321	14.29
370.531	13.62
370.74	13.74
370.949	13.51
371.158	13.49
371.367	13.07
371.576	13.15
371.785	12.15
371.994	12.32
372.203	12
372.412	12.08
372.621	11.98
372.83	12.38
373.039	12.6
373.248	12.86
373.457	12.88
373.666	13.13
373.874	12.6
374.083	13.11
374.292	12.8
374.501	12.99
374.71	13.06
374.919	12.91
375.128	12.79
375.336	12.59
375.545	12.44
375.754	12
375.963	11.68
376.171	12.18
376.38	12.49
376.589	12.3
376.798	11.84
377.006	11.5
377.215	12.07
377.424	11.62
377.632	11.33
377.841	11.91
378.05	12.37
378.258	12.69
378.467	12.23
378.675	11.77
378.884	11.99
379.093	12.12
379.301	12.51
379.51	11.84
379.718	12.15
379.927	12.5
380.135	11.69
380.344	11.29
380.552	11.31
380.761	11.38
380.969	11.37
381.177	11.22
381.386	10.42
381.594	10.09
381.803	10.17
382.011	10
382.219	9.37
382.428	9.85
382.636	9.7
382.845	9.37
383.053	9.5
383.261	9.43
383.469	9.61
383.678	10.56
383.886	10.5
384.094	10.57
384.302	10.98
384.511	11.19
384.719	10.85
384.927	10.94
385.135	11.12
385.343	11.25
385.552	11.62
385.76	11.4
385.968	11.2
386.176	11.37
386.384	11.37
386.592	11.32
386.8	11.68
387.008	11.66
387.216	11.92
387.424	11.89
387.633	11.71
387.841	11.23
388.049	11.57
388.257	11.76
388.465	12.04
388.672	12.27
388.88	12.05
389.088	12.06
389.296	12.19
389.504	12.28
389.712	12.54
389.92	12.48
390.128	12.55
390.336	12.16
390.544	11.87
390.751	11.42
390.959	11.07
391.167	11.04
391.375	10.43
391.583	10.3
391.79	9.83
391.998	9.48
392.206	9.55
392.414	9.48
392.621	9.66
392.829	9.72
393.037	9.93
393.244	10.18
393.452	10.11
393.66	10.15
393.867	10.18
394.075	10.42
394.283	10.6
394.49	10.31
394.698	10.33
394.905	10.18
395.113	10.21
395.32	9.85
395.528	9.8
395.735	10.08
395.943	10.18
396.15	10.22
396.358	10.11
396.565	9.6
396.773	9.71
396.98	9.83
397.188	10.16
397.395	10.13
397.602	10.61
397.81	10.96
398.017	10.84
398.225	10.98
398.432	10.86
398.639	11.13
398.847	11.63
399.054	11.47
399.261	11.19
399.468	10.56
399.676	10.53
399.883	10.53
400.09	10.08
400.297	10.16
400.505	10.19
400.712	10.53
400.919	10.27
401.126	10.04
401.333	10.24
401.54	10.3
401.748	10.46
401.955	10.38
402.162	10.29
402.369	10.25
402.576	10.11
402.783	9.77
402.99	9.56
403.197	9.6
403.404	9.56
403.611	9.37
403.818	9.4
404.025	9.43
404.232	9.34
404.439	9
404.646	9.05
404.853	8.95
405.06	9.16
405.267	9.05
405.474	8.88
405.681	8.67
405.887	8.78
406.094	8.91
406.301	9.06
406.508	9.02
406.715	9.18
406.922	9.27
407.128	9.53
407.335	9.38
407.542	9.46
407.749	9.54
407.955	9.82
408.162	10.01
408.369	10.01
408.575	10.17
408.782	10.38
408.989	10.33
409.195	10.23
409.402	10.03
409.609	10.23
409.815	10.14
410.022	10.09
410.228	9.97
410.435	9.92
410.642	9.65
410.848	9.58
411.055	9.6
411.261	9.6
411.468	9.61
411.674	9.69
411.881	9.65
412.087	9.72
412.294	9.88
412.5	9.92
412.706	9.84
412.913	9.92
413.119	10.04
413.326	10.03
413.532	9.9
413.738	9.88
413.945	9.47
414.151	9.17
414.357	9.11
414.564	8.9
414.77	8.97
414.976	9.03
415.182	9.22
415.389	8.85
415.595	8.57
415.801	8.59
416.007	8.61
416.214	8.86
416.42	9.13
416.626	8.91
416.832	8.86
417.038	8.69
417.244	8.61
417.45	8.6
417.657	8.57
417.863	8.79
418.069	8.74
418.275	8.56
418.481	8.65
418.687	8.45
418.893	8.6
419.099	8.61
419.305	8.84
419.511	8.8
419.717	8.69
419.923	8.73
420.129	8.55
420.335	8.65
420.541	8.52
420.746	8.33
420.952	8.35
421.158	8.3
421.364	8.25
421.57	8.21
421.776	8.12
421.982	8.03
422.187	7.83
422.393	7.82
422.599	7.71
422.805	7.85
423.01	7.88
423.216	7.93
423.422	7.99
423.628	8.04
423.833	7.91
424.039	7.71
424.245	7.61
424.45	7.76
424.656	7.86
424.862	7.82
425.067	7.77
425.273	7.9
425.478	7.86
425.684	7.7
425.889	7.74
426.095	7.91
426.301	8.19
426.506	8.33
426.712	8.39
426.917	8.39
427.123	8.5
427.328	8.68
427.533	8.58
427.739	8.41
427.944	8.52
428.15	8.52
428.355	8.3
428.561	8.43
428.766	8.42
428.971	8.44
429.177	8.62
429.382	8.65
429.587	8.57
429.793	8.7
429.998	8.79
430.203	8.85
430.408	8.8
430.614	8.59
430.819	8.52
431.024	8.69
431.229	8.71
431.434	8.48
431.64	8.52
431.845	8.73
432.05	8.78
432.255	8.94
432.46	8.97
432.665	9.23
432.87	9.42
433.076	9.25
433.281	9.23
433.486	9.21
433.691	9.23
433.896	9.15
434.101	8.97
434.306	8.9
434.511	8.94
434.716	8.86
434.921	8.58
435.126	8.65
435.331	8.81
435.535	8.76
435.74	8.84
435.945	8.92
436.15	8.81
436.355	8.89
436.56	8.82
436.765	8.92
436.97	8.96
437.174	8.86
437.379	8.84
437.584	9
437.789	9.06
437.993	9.02
438.198	8.94
438.403	9.07
438.608	8.97
438.812	8.9
439.017	8.77
439.222	8.75
439.426	8.79
439.631	8.71
439.836	8.6
440.04	8.44
440.245	8.45
440.45	8.42
440.654	8.32
440.859	8.24
441.063	8.25
441.268	8.19
441.472	8.28
441.677	8.41
441.881	8.5
442.086	8.55
442.29	8.53
442.495	8.59
442.699	8.6
442.904	8.72
443.108	8.71
443.312	8.79
443.517	8.78
443.721	8.73
443.925	8.42
444.13	8.34
444.334	8.25
444.538	8.33
444.743	8.09
444.947	8.16
445.151	8
445.356	8.15
445.56	8.12
445.764	8.26
445.968	8.19
446.173	8.26
446.377	8.25
446.581	8.3
446.785	8.2
446.989	8.27
447.193	8.21
447.398	8.37
447.602	8.39
447.806	8.44
448.01	8.32
448.214	8.32
448.418	8.36
448.622	8.48
448.826	8.28
449.03	8.42
449.234	8.46
449.438	8.52
449.642	8.52
449.846	8.4
450.05	8.24
450.254	8.16
450.458	8.09
450.662	8.05
450.866	8.01
451.069	8.2
451.273	8.18
451.477	8.25
451.681	8.38
451.885	8.29
452.089	8.32
452.292	8.3
452.496	8.35
452.7	8.43
452.904	8.51
453.107	8.42
453.311	8.46
453.515	8.36
453.719	8.28
453.922	7.99
454.126	7.92
454.33	8.05
454.533	8.1
454.737	8.26
454.94	8.02
455.144	8.01
455.348	8.08
455.551	7.97
455.755	8.11
455.958	8.07
456.162	8.19
456.365	8.33
456.569	8.13
456.772	8.2
456.976	8.16
457.179	8.42
457.383	8.43
457.586	8.4
457.79	8.5
457.993	8.64
458.196	8.66
458.4	8.67
458.603	8.68
458.807	8.66
459.01	8.7
459.213	8.54
459.417	8.4
459.62	8.38
459.823	8.21
460.026	8.09
460.23	7.83
460.433	7.75
460.636	7.65
460.839	7.48
461.042	7.57
461.246	7.5
461.449	7.64
461.652	7.77
461.855	7.7
462.058	7.81
462.261	7.96
462.464	8.1
462.668	8.1
462.871	8.18
463.074	8.31
463.277	8.2
463.48	8.28
463.683	8.22
463.886	8.19
464.089	8.28
464.292	8.33
464.495	8.17
464.698	8.08
464.901	8.31
465.104	8.31
465.306	8.28
465.509	8.21
465.712	8.18
465.915	8.3
466.118	8.23
466.321	8.15
466.524	8.05
466.726	8.12
466.929	8.34
467.132	8.17
467.335	8.16
467.538	8.26
467.74	8.41
467.943	8.38
468.146	8.14
468.348	8.18
468.551	8.15
468.754	8.4
468.956	8.39
469.159	8.34
469.362	8.4
469.564	8.39
469.767	8.42
469.969	8.39
470.172	8.59
470.375	8.7
470.577	8.77
470.78	8.83
470.982	8.76
471.185	8.76
471.387	8.7
471.59	8.74
471.792	8.73
471.995	8.61
472.197	8.54
472.399	8.3
472.602	8.51
472.804	8.52
473.007	8.48
473.209	8.44
473.411	8.35
473.614	8.45
473.816	8.43
474.018	8.59
474.22	8.65
474.423	8.59
474.625	8.48
474.827	8.23
475.03	8.15
475.232	8.11
475.434	8.05
475.636	8.12
475.838	7.91
476.04	7.71
476.243	7.73
476.445	7.6
476.647	7.9
476.849	7.76
477.051	7.77
477.253	7.74
477.455	7.79
477.657	7.67
477.859	7.7
478.061	7.73
478.263	7.82
478.465	7.77
478.667	8.02
478.869	7.86
479.071	8.02
479.273	7.99
479.475	7.96
479.677	7.99
479.879	8.14
480.081	8
480.283	7.96
480.485	7.89
480.686	7.9
480.888	7.87
481.09	7.71
481.292	7.71
481.494	7.67
481.695	7.72
481.897	7.62
482.099	7.62
482.301	7.7
482.502	7.7
482.704	7.75
482.906	7.67
483.107	7.51
483.309	7.49
483.511	7.48
483.712	7.48
483.914	7.43
484.115	7.42
484.317	7.37
484.519	7.3
484.72	7.26
484.922	7.21
485.123	7.17
485.325	7.13
485.526	7.15
485.728	7.13
485.929	7.16
486.131	7.22
486.332	7.25
486.534	7.25
486.735	7.22
486.936	7.26
487.138	7.24
487.339	7.29
487.541	7.37
487.742	7.36
487.943	7.35
488.144	7.33
488.346	7.3
488.547	7.31
488.748	7.32
488.95	7.4
489.151	7.41
489.352	7.48
489.553	7.48
489.755	7.5
489.956	7.44
490.157	7.44
490.358	7.47
490.559	7.37
490.76	7.38
490.961	7.37
491.163	7.38
491.364	7.34
491.565	7.28
491.766	7.26
491.967	7.26
492.168	7.36
492.369	7.43
492.57	7.45
492.771	7.55
492.972	7.56
493.173	7.61
493.374	7.64
493.575	7.73
493.776	7.75
493.976	7.81
494.177	7.89
494.378	7.87
494.579	7.81
494.78	7.78
494.981	7.67
495.182	7.72
495.382	7.82
495.583	7.83
495.784	7.92
495.985	7.98
496.185	8.08
496.386	7.99
496.587	7.99
496.788	8.08
496.988	7.98
497.189	7.99
497.39	8
497.59	8.02
497.791	8.1
497.992	8.11
498.192	8.1
498.393	7.97
498.593	8.02
498.794	7.95
498.994	7.97
499.195	7.89
499.395	8.06
499.596	8.12
499.796	7.97
499.997	7.97
500.197	7.9
500.398	8.04
500.598	8.29
500.799	8.37
500.999	8.5
501.199	8.28
501.4	8.45
501.6	8.38
501.801	8.37
502.001	8.56
502.201	8.6
502.402	8.77
502.602	8.7
502.802	8.61
503.002	8.69
503.203	8.85
503.403	8.9
503.603	8.93
503.803	8.85
504.003	8.85
504.204	8.77
504.404	8.66
504.604	8.66
504.804	8.79
505.004	8.69
505.204	8.57
505.404	8.61
505.604	8.65
505.804	8.6
506.005	8.63
506.205	8.56
506.405	8.6
506.605	8.78
506.805	8.7
507.005	8.56
507.204	8.59
507.404	8.62
507.604	8.61
507.804	8.79
508.004	8.9
508.204	8.94
508.404	9.14
508.604	9.17
508.804	9.07
509.003	9.13
509.203	9.21
509.403	9.35
509.603	9.41
509.803	9.33
510.002	9.34
510.202	9.4
510.402	9.4
510.602	9.31
510.801	9.18
511.001	9.15
511.201	9.09
511.4	8.97
511.6	8.97
511.8	8.81
511.999	8.94
512.199	8.9
512.398	8.96
512.598	9.08
512.797	9.14
512.997	9.15
513.197	9.15
513.396	9.18
513.596	9.38
513.795	9.48
513.994	9.63
514.194	9.55
514.393	9.57
514.593	9.35
514.792	9.34
514.992	9.5
515.191	9.81
515.39	9.94
515.59	9.94
515.789	10.05
515.988	9.98
516.188	10.04
516.387	10.11
516.586	10.02
516.786	10.18
516.985	10.24
517.184	10.14
517.383	10.13
517.582	10.11
517.782	10.01
517.981	9.9
518.18	9.86
518.379	9.85
518.578	9.77
518.777	9.83
518.976	9.89
519.176	10.02
519.375	9.98
519.574	9.98
519.773	10.04
519.972	10.14
520.171	10.17
520.37	10.26
520.569	10.27
520.768	10.37
520.967	10.41
521.166	10.38
521.365	10.18
521.564	10.27
521.762	10.28
521.961	10.25
522.16	10.36
522.359	10.41
522.558	10.29
522.757	10.45
522.956	10.57
523.154	10.6
523.353	10.54
523.552	10.65
523.751	10.63
523.949	10.57
524.148	10.61
524.347	10.68
524.546	10.57
524.744	10.74
524.943	10.68
525.142	10.7
525.34	10.69
525.539	10.81
525.737	10.85
525.936	10.88
526.135	10.88
526.333	10.87
526.532	10.88
526.73	10.97
526.929	10.98
527.127	11.02
527.326	10.93
527.524	10.99
527.723	10.96
527.921	11.03
528.12	11.03
528.318	11.06
528.516	11.07
528.715	11.03
528.913	11.06
529.112	11
529.31	10.96
529.508	10.98
529.707	11
529.905	11.05
530.103	11.02
530.301	10.96
530.5	10.95
530.698	11.01
530.896	11.1
531.094	11.2
531.293	11.23
531.491	11.39
531.689	11.56
531.887	11.6
532.085	11.64
532.283	11.78
532.481	11.89
532.68	11.92
532.878	11.92
533.076	11.9
533.274	11.82
533.472	11.93
533.67	11.86
533.868	11.88
534.066	11.91
534.264	11.87
534.462	11.78
534.66	11.79
534.858	11.82
535.056	11.78
535.253	11.81
535.451	11.9
535.649	11.98
535.847	12.12
536.045	12.13
536.243	12.15
536.441	12.28
536.638	12.31
536.836	12.4
537.034	12.45
537.232	12.61
537.43	12.68
537.627	12.71
537.825	12.64
538.023	12.61
538.22	12.64
538.418	12.73
538.616	12.83
538.813	13.01
539.011	13.18
539.209	13.14
539.406	13.22
539.604	13.33
539.801	13.35
539.999	13.51
540.196	13.59
540.394	13.64
540.591	13.6
540.789	13.62
540.986	13.54
541.184	13.41
541.381	13.56
541.579	13.46
541.776	13.44
541.974	13.47
542.171	13.47
542.368	13.52
542.566	13.55
542.763	13.49
542.96	13.48
543.158	13.49
543.355	13.62
543.552	13.64
543.75	13.86
543.947	13.95
544.144	13.98
544.341	14.03
544.539	14.05
544.736	13.93
544.933	14.1
545.13	14.19
545.327	14.39
545.524	14.52
545.722	14.59
545.919	14.49
546.116	14.56
546.313	14.68
546.51	14.66
546.707	14.86
546.904	14.96
547.101	15.09
547.298	15.03
547.495	14.98
547.692	15.08
547.889	15.15
548.086	15.38
548.283	15.55
548.48	15.71
548.677	15.74
548.874	15.68
549.07	15.77
549.267	16.01
549.464	16.3
549.661	16.5
549.858	16.45
550.055	16.44
550.251	16.51
550.448	16.57
550.645	16.61
550.842	16.8
551.038	16.95
551.235	17.3
551.432	17.17
551.628	17.16
551.825	17.29
552.022	17.44
552.218	17.51
552.415	17.53
552.612	17.49
552.808	17.49
553.005	17.62
553.201	17.57
553.398	17.48
553.594	17.55
553.791	17.67
553.987	17.49
554.184	17.44
554.38	17.65
554.577	17.71
554.773	17.86
554.97	18.11
555.166	18.2
555.362	18.22
555.559	18.31
555.755	18.6
555.952	18.69
556.148	18.98
556.344	19.23
556.541	19.12
556.737	19.24
556.933	19.42
557.129	19.52
557.326	19.56
557.522	19.92
557.718	20.27
557.914	20.29
558.11	20.42
558.307	20.5
558.503	20.6
558.699	20.81
558.895	20.87
559.091	20.82
559.287	20.76
559.483	21.11
559.679	21.18
559.876	21.05
560.072	21.15
560.268	21.33
560.464	21.45
560.66	21.37
560.856	21.53
561.052	21.74
561.247	21.73
561.443	21.93
561.639	21.77
561.835	21.66
562.031	21.64
562.227	21.72
562.423	21.86
562.619	22.07
562.815	22.45
563.01	22.39
563.206	22.43
563.402	22.57
563.598	22.44
563.793	22.52
563.989	22.88
564.185	23.12
564.381	23.31
564.576	23.22
564.772	23.19
564.968	23.08
565.163	23.08
565.359	23.14
565.555	23.26
565.75	23.63
565.946	23.76
566.141	23.75
566.337	23.82
566.532	23.75
566.728	23.9
566.923	24.05
567.119	24.12
567.314	24.45
567.51	24.56
567.705	24.8
567.901	24.71
568.096	24.76
568.292	24.74
568.487	24.84
568.682	25.06
568.878	25.01
569.073	25
569.268	25.1
569.464	25.17
569.659	25.3
569.854	25.37
570.05	25.47
570.245	25.63
570.44	25.85
570.635	25.92
570.831	26.02
571.026	26.13
571.221	26.43
571.416	26.52
571.611	26.46
571.806	26.44
572.002	26.48
572.197	26.49
572.392	26.41
572.587	26.47
572.782	26.73
572.977	26.69
573.172	26.82
573.367	26.71
573.562	26.92
573.757	27.13
573.952	27.21
574.147	27.39
574.342	27.42
574.537	27.71
574.732	27.7
574.927	27.66
575.121	27.72
575.316	27.81
575.511	27.93
575.706	27.91
575.901	27.94
576.096	27.99
576.29	27.9
576.485	28.17
576.68	28.32
576.875	28.42
577.069	28.66
577.264	28.78
577.459	28.82
577.654	28.85
577.848	28.99
578.043	29.14
578.238	29.45
578.432	29.45
578.627	29.51
578.821	29.39
579.016	29.45
579.21	29.35
579.405	29.49
579.6	29.74
579.794	29.88
579.989	29.74
580.183	29.5
580.378	29.31
580.572	29.55
580.766	29.59
580.961	29.82
581.155	29.91
581.35	30.23
581.544	30.28
581.738	30.23
581.933	30.34
582.127	30.67
582.321	30.78
582.516	30.92
582.71	31.01
582.904	30.93
583.099	30.85
583.293	31.05
583.487	30.86
583.681	30.96
583.875	31.11
584.07	31.15
584.264	31.25
584.458	31.36
584.652	31.49
584.846	31.68
585.04	31.7
585.234	31.9
585.428	31.83
585.623	31.86
585.817	32.02
586.011	32.05
586.205	32.36
586.399	32.39
586.593	32.44
586.787	32.78
586.981	32.48
587.174	32.96
587.368	33.11
587.562	33.34
587.756	33.33
587.95	33.53
588.144	33.43
588.338	33.33
588.532	33.29
588.725	33.77
588.919	33.67
589.113	33.99
589.307	33.82
589.501	33.79
589.694	33.96
589.888	34
590.082	33.91
590.275	34.03
590.469	34.01
590.663	34.04
590.856	33.53
591.05	33.56
591.244	33.67
591.437	33.76
591.631	33.85
591.824	33.75
592.018	33.81
592.212	33.76
592.405	33.78
592.599	33.87
592.792	34.05
592.986	34.44
593.179	34.73
593.372	34.5
593.566	34.74
593.759	34.9
593.953	35
594.146	35.08
594.339	35.09
594.533	35.31
594.726	35.31
594.92	35.48
595.113	35.63
595.306	35.48
595.499	35.6
595.693	35.38
595.886	35.16
596.079	35.09
596.272	35.09
596.466	35.25
596.659	35.23
596.852	35.29
597.045	35.16
597.238	34.99
597.431	34.84
597.624	35.09
597.818	35.06
598.011	35.32
598.204	35.3
598.397	35.4
598.59	35.37
598.783	35.4
598.976	35.51
599.169	35.6
599.362	35.74
599.555	36
599.748	35.92
599.941	36.13
600.134	36.2
600.326	36.32
600.519	36.53
600.712	36.4
600.905	36.41
601.098	36.54
601.291	36.41
601.483	36.49
601.676	36.49
601.869	36.48
602.062	36.32
602.255	36.17
602.447	36.23
602.64	35.91
602.833	36.08
603.025	36.19
603.218	36.11
603.411	36.24
603.603	36.12
603.796	36.09
603.989	35.98
604.181	36.03
604.374	36.06
604.566	35.93
604.759	36.18
604.951	36.23
605.144	36.14
605.336	36.29
605.529	36.12
605.721	36.18
605.914	36.21
606.106	36.36
606.299	36.66
606.491	36.81
606.683	37.1
606.876	37.15
607.068	37.26
607.26	37.51
607.453	37.39
607.645	37.61
607.837	37.71
608.03	37.71
608.222	37.73
608.414	37.5
608.606	37.38
608.799	37.23
608.991	37.26
609.183	37.33
609.375	37.31
609.567	37.55
609.759	37.64
609.952	37.64
610.144	37.78
610.336	37.62
610.528	37.74
610.72	37.76
610.912	37.85
611.104	37.91
611.296	37.92
611.488	38.06
611.68	37.97
611.872	37.99
612.064	38.21
612.256	38.36
612.448	38.63
612.64	38.72
612.832	39.01
613.023	39.29
613.215	39.26
613.407	39.31
613.599	39.37
613.791	39.37
613.983	39.57
614.174	39.45
614.366	39.25
614.558	39.27
614.75	39.12
614.941	38.96
615.133	38.98
615.325	39.15
615.516	39.04
615.708	38.72
615.9	38.92
616.091	38.89
616.283	39.14
616.475	39.38
616.666	39.28
616.858	39.68
617.049	39.78
617.241	39.7
617.432	39.7
617.624	39.82
617.815	40.09
618.007	39.86
618.198	39.73
618.39	39.73
618.581	39.53
618.773	39.92
618.964	39.81
619.155	40.12
619.347	40.19
619.538	40.39
619.729	40.39
619.921	40.4
620.112	40.56
620.303	40.54
620.494	40.5
620.686	40.81
620.877	40.56
621.068	40.91
621.259	40.63
621.451	40.82
621.642	41.03
621.833	40.86
622.024	40.86
622.215	41.03
622.406	41.21
622.597	41.03
622.788	40.92
622.98	40.96
623.171	41.1
623.362	41.06
623.553	41.1
623.744	40.97
623.935	41.32
624.126	41.07
624.317	40.92
624.508	41.07
624.698	41.01
624.889	40.91
625.08	41.52
625.271	41.11
625.462	41.02
625.653	40.96
625.844	40.67
626.034	40.39
626.225	40.56
626.416	40.44
626.607	40.36
626.798	40.53
626.988	40.68
627.179	40.42
627.37	40.41
627.56	40.67
627.751	40.45
627.942	40.35
628.132	40.52
628.323	40.59
628.514	40.85
628.704	40.7
628.895	40.83
629.085	40.87
629.276	40.63
629.466	41.05
629.657	40.99
629.847	41.19
630.038	41.48
630.228	41.61
630.419	41.8
630.609	41.71
630.8	42.18
630.99	41.92
631.181	42.06
631.371	42.31
631.561	42.04
631.752	42.13
631.942	42.45
632.132	42.36
632.323	42.33
632.513	42.19
632.703	42.21
632.893	41.99
633.084	42.22
633.274	42.27
633.464	42.23
633.654	42.14
633.844	41.81
634.034	41.47
634.225	41.53
634.415	41.64
634.605	41.62
634.795	41.67
634.985	41.82
635.175	41.76
635.365	41.34
635.555	41.45
635.745	41.65
635.935	41.92
636.125	42.13
636.315	42.18
636.505	42.13
636.695	42.38
636.885	42.05
637.075	42.28
637.265	42.61
637.455	42.89
637.644	43.11
637.834	42.98
638.024	43.04
638.214	43.34
638.404	43.35
638.593	43.25
638.783	43.13
638.973	43.47
639.163	43.16
639.352	43.18
639.542	43.15
639.732	43.03
639.921	42.88
640.111	43.13
640.301	42.93
640.49	43.19
640.68	43.39
640.87	43.61
641.059	43.41
641.249	43.42
641.438	43.42
641.628	43.43
641.817	43.61
642.007	43.8
642.196	43.41
642.386	43.27
642.575	43.47
642.764	43.46
642.954	43.28
643.143	43.75
643.333	43.79
643.522	43.71
643.711	43.83
643.901	43.46
644.09	43.84
644.279	44.07
644.469	44.11
644.658	43.68
644.847	43.52
645.036	43.91
645.226	43.87
645.415	43.82
645.604	43.92
645.793	43.96
645.982	44.05
646.171	44.04
646.361	43.88
646.55	44.01
646.739	44.14
646.928	44.25
647.117	43.57
647.306	43.46
647.495	43.61
647.684	43.57
647.873	43.81
648.062	44.06
648.251	43.81
648.44	43.7
648.629	43.51
648.818	43.57
649.007	43.77
649.196	44.46
649.384	44.33
649.573	44.35
649.762	44.62
649.951	44.34
650.14	44.34
650.328	44.64
650.517	44.96
650.706	45.33
650.895	45.61
651.083	45.95
651.272	45.51
651.461	45.5
651.65	45.44
651.838	44.85
652.027	44.79
652.216	44.64
652.404	44.72
652.593	44.88
652.781	44.83
652.97	44.67
653.158	44.52
653.347	44.68
653.535	45.06
653.724	45.05
653.912	45.44
654.101	45.45
654.289	45.08
654.478	44.85
654.666	44.58
654.855	44.28
655.043	44.23
655.231	44.02
655.42	44.44
655.608	44.34
655.796	44.63
655.985	44.59
656.173	45.17
656.361	45.71
656.55	45.47
656.738	46.06
656.926	46.13
657.114	46.08
657.302	45.9
657.491	45.62
657.679	45.6
657.867	45.42
658.055	45.46
658.243	45.23
658.431	45.19
658.619	45.39
658.807	45.24
658.996	45.52
659.184	45.67
659.372	45.78
659.56	45.77
659.748	45.58
659.936	45.49
660.124	45.37
660.311	45.34
660.499	45.16
660.687	45.33
660.875	45.18
661.063	44.58
661.251	44.54
661.439	44.81
661.627	44.93
661.814	45.2
662.002	45.35
662.19	45.89
662.378	45.88
662.565	46.33
662.753	46.25
662.941	46.73
663.129	47.33
663.316	47.39
663.504	47.35
663.692	47.45
663.879	47.82
664.067	48.14
664.254	47.68
664.442	48.2
664.63	48.34
664.817	48.48
665.005	47.96
665.192	48.22
665.38	48.19
665.567	47.91
665.755	47.46
665.942	47.22
666.13	47.43
666.317	47.86
666.504	47.43
666.692	46.8
666.879	46.55
667.067	47
667.254	47.15
667.441	47.71
667.629	47.89
667.816	48.23
668.003	48.04
668.19	47.68
668.378	47.55
668.565	47.68
668.752	48.07
668.939	48.15
669.127	48.01
669.314	47.63
669.501	47.1
669.688	47.45
669.875	47.42
670.062	47.42
670.249	47.78
670.436	47.69
670.623	48.06
670.81	48.2
670.997	47.93
671.184	47.72
671.371	47.92
671.558	48.07
671.745	48.09
671.932	48.57
672.119	49.19
672.306	48.76
672.493	48.75
672.68	48.2
672.867	48.16
673.054	48.23
673.24	48.51
673.427	48.54
673.614	48.78
673.801	48.68
673.988	48.37
674.174	48.04
674.361	48.12
674.548	48.35
674.734	48.67
674.921	48.74
675.108	49.06
675.294	48.93
675.481	48.77
675.668	48.46
675.854	48.44
676.041	48.13
676.227	48.24
676.414	48.78
676.601	49.48
676.787	49.5
676.974	49.23
677.16	49.7
677.347	49.37
677.533	49.59
677.719	49.51
677.906	49.5
678.092	49.95
678.279	49.74
678.465	49.42
678.651	48.73
678.838	48.92
679.024	49
679.21	48.39
679.397	48.77
679.583	48.61
679.769	48.69
679.955	48.6
680.142	48.21
680.328	48.51
680.514	48.09
680.7	48.21
680.886	48.2
681.073	48.43
681.259	48.55
681.445	48.43
681.631	48.42
681.817	48.29
682.003	48.06
682.189	48.3
682.375	48.52
682.561	48.79
682.747	48.62
682.933	48.33
683.119	48.07
683.305	48.17
683.491	47.88
683.677	48.25
683.863	48.41
684.049	48.77
684.235	48.97
684.42	48.58
684.606	48.57
684.792	48.62
684.978	49.1
685.164	49.36
685.349	49.76
685.535	50.05
685.721	49.7
685.907	49.79
686.092	49.71
686.278	49.35
686.464	49.79
686.649	49.85
686.835	49.66
687.021	49.17
687.206	49.06
687.392	48.59
687.577	49.24
687.763	49.53
687.948	49.06
688.134	48.84
688.319	49.07
688.505	48.87
688.69	49.02
688.876	49.26
689.061	49.7
689.247	50.18
689.432	50.26
689.618	49.86
689.803	49.57
689.988	50.27
690.174	50.71
690.359	50.58
690.544	50.3
690.73	50.22
690.915	50.53
691.1	50.16
691.285	49.66
691.471	49.78
691.656	49.69
691.841	50.29
692.026	49.94
692.211	49.52
692.396	49.66
692.582	50.05
692.767	50.54
692.952	50.4
693.137	50.97
693.322	50.59
693.507	51.12
693.692	51.11
693.877	50.76
694.062	50.45
694.247	50.99
694.432	51.36
694.617	50.73
694.802	49.71
694.987	49.87
695.172	49.03
695.357	49.73
695.541	49.39
695.726	49.38
695.911	49.74
696.096	50
696.281	50.07
696.466	49.95
696.65	49.99
696.835	50.18
697.02	50.13
697.204	50.59
697.389	50.42
697.574	50.59
697.759	50.78
697.943	50.22
698.128	50.14
698.312	49.62
698.497	49.15
698.682	49.39
698.866	49.39
699.051	49.43
699.235	49.64
699.42	49.47
699.604	49.34
699.789	49.21
699.973	49.1
700.158	49.16
700.342	49.55
700.527	49.63
700.711	49.93
700.895	50.33
701.08	50.4
701.264	49.95
701.448	50.33
701.633	50.3
701.817	50.54
702.001	51.4
702.186	51.48
702.37	51.64
702.554	52.47
702.738	52.91
702.923	53.44
703.107	53.97
703.291	54.31
703.475	54.33
703.659	54.36
703.843	54.24
704.027	54.59
704.212	55.33
704.396	55.41
704.58	54.94
704.764	54.32
704.948	54.16
705.132	53.69
705.316	53.82
705.5	53.82
705.684	53.99
705.868	54.48
706.052	54.08
706.235	53.92
706.419	53.86
706.603	54.28
706.787	54.36
706.971	54.14
707.155	53.67
707.339	53.39
707.522	53.38
707.706	53.56
707.89	53.55
708.074	53.6
708.257	53.45
708.441	53.52
708.625	53.23
708.808	53.22
708.992	53.33
709.176	53.69
709.359	53.55
709.543	53.63
709.727	53.06
709.91	53.15
710.094	52.24
710.277	52.3
710.461	52.37
710.644	52.76
710.828	52.95
711.011	52.8
711.195	52.56
711.378	52.68
711.562	52.55
711.745	53.03
711.928	52.79
712.112	53.07
712.295	52.91
712.478	52.38
712.662	52.66
712.845	52.85
713.028	52.81
713.212	53.11
713.395	53.25
713.578	53.75
713.761	53.6
713.945	53.65
714.128	54.78
714.311	54.65
714.494	54.66
714.677	54.26
714.86	53.97
715.043	53.77
715.227	53.47
715.41	53.61
715.593	52.93
715.776	52.79
715.959	52.52
716.142	52.55
716.325	52.56
716.508	52.62
716.691	52.49
716.874	52.66
717.057	52.85
717.239	53.34
717.422	53.73
717.605	54.42
717.788	54.54
717.971	54.54
718.154	53.81
718.337	54.49
718.519	55.51
718.702	55.96
718.885	55.74
719.068	56.42
719.25	56.47
719.433	56.67
719.616	56.52
719.798	56.24
719.981	57.41
720.164	57.18
720.346	57.55
720.529	57.89
720.712	58
720.894	58.63
721.077	58.13
721.259	57.85
721.442	57.47
721.624	57.92
721.807	58.63
721.989	58.33
722.172	59.11
722.354	58.36
722.537	57.96
722.719	57.4
722.901	57.36
723.084	57.54
723.266	58.09
723.448	58.47
723.631	58.11
723.813	58.31
723.995	58.48
724.178	58.56
724.36	59.01
724.542	58.93
724.724	59.39
724.907	58.81
725.089	59.1
725.271	59.24
725.453	58.51
725.635	58.61
725.817	59
725.999	58.74
726.181	58.25
726.364	57.68
726.546	57.04
726.728	57.09
726.91	57.2
727.092	56.85
727.274	55.84
727.456	56.35
727.638	55.56
727.819	54.91
728.001	54.61
728.183	54.82
728.365	54.75
728.547	55.07
728.729	55.53
728.911	55.67
729.093	55.1
729.274	55.81
729.456	55.5
729.638	56.32
729.82	56.65
730.001	56.79
730.183	56.73
730.365	56.86
730.546	57.45
730.728	57.24
730.91	57.64
731.091	57.79
731.273	57.92
731.455	58.42
731.636	58.34
731.818	58.81
731.999	57.91
732.181	57.87
732.362	58.26
732.544	58.15
732.725	57.7
732.907	56.79
733.088	57.71
733.27	58.36
733.451	58.25
733.633	57.85
733.814	57.21
733.995	58.23
734.177	58.85
734.358	58.65
734.539	58.33
734.721	58.48
734.902	58.84
735.083	58.51
735.264	57.08
735.446	57.19
735.627	57.72
735.808	57.85
735.989	57.74
736.17	57.75
736.351	57.79
736.533	56.45
736.714	56.34
736.895	56.94
737.076	57.55
737.257	58.13
737.438	57.43
737.619	56.6
737.8	56.25
737.981	55.2
738.162	53.93
738.343	55.05
738.524	56.95
738.705	57.58
738.886	56.94
739.067	56.92
739.247	57.64
739.428	58.66
739.609	59.86
739.79	60.93
739.971	62.14
740.151	63.71
740.332	62.9
740.513	62.65
740.694	61.85
740.874	61.65
741.055	61.31
741.236	61.15
741.417	60.82
741.597	60.04
741.778	60.31
741.958	60.03
742.139	58.84
742.32	59.73
742.5	60
742.681	61.41
742.861	62.13
743.042	62.12
743.222	61.74
743.403	62.6
743.583	63.19
743.764	62.9
743.944	63.27
744.124	63.99
744.305	63.77
744.485	64.14
744.666	62.56
744.846	63.95
745.026	63.7
745.207	64.22
745.387	64.48
745.567	64.11
745.747	63.44
745.928	64.18
746.108	65.05
746.288	64.31
746.468	62.65
746.648	64.28
746.829	62.91
747.009	63.89
747.189	63.55
747.369	61.84
747.549	62
747.729	61.58
747.909	60.23
748.089	58.89
748.269	58.17
748.449	59.56
748.629	59
748.809	59.54
748.989	58.68
749.169	58.52
749.349	59.18
749.529	59.89
749.709	60.06
749.889	60.3
750.068	61.23
750.248	62.64
750.428	61.86
750.608	61.55
750.788	61.47
750.967	61.48
751.147	61.59
751.327	61.95
751.507	61.25
751.686	62.47
751.866	62.97
752.046	63.12
752.225	62.43
752.405	63.49
752.585	64.61
752.764	64.63
752.944	64.15
753.123	65.08
753.303	64.53
753.482	65.23
753.662	64.54
753.841	64.19
754.021	64.11
754.2	64.34
754.38	63.76
754.559	63.8
754.739	63.87
754.918	64.42
755.097	63.14
755.277	62.77
755.456	62.28
755.635	62.34
755.815	63.36
755.994	62.95
756.173	62.32
756.352	62.33
756.532	60.97
756.711	60.99
756.89	61.05
757.069	61.19
757.248	61.07
757.427	61
757.607	62.37
757.786	62.46
757.965	61.98
758.144	63.04
758.323	62.4
758.502	63.15
758.681	61.8
758.86	61.87
759.039	62.33
759.218	61.59
759.397	61.05
759.576	59.5
759.755	59.14
759.934	58.67
760.113	57.9
760.291	59.04
760.47	58.21
760.649	59.57
760.828	58.96
761.007	58.7
761.186	60.2
761.364	60.42
761.543	60.68
761.722	59.01
761.901	59.13
762.079	58.24
762.258	57.23
762.437	56.5
762.615	55.8
762.794	56.59
762.972	56.52
763.151	55.77
763.33	56.22
763.508	55.73
763.687	56.22
763.865	55.85
764.044	55.92
764.222	55.84
764.401	56.73
764.579	56.52
764.758	56.43
764.936	56.24
765.114	56.85
765.293	57.02
765.471	57.22
765.65	57.23
765.828	58.62
766.006	59.84
766.184	61.18
766.363	60.84
766.541	61.35
766.719	61.41
766.898	61.49
767.076	61.53
767.254	61.53
767.432	62.04
767.61	63.55
767.788	63.82
767.967	63.11
768.145	62.77
768.323	64.32
768.501	65.04
768.679	64.57
768.857	65.57
769.035	65.95
769.213	65.93
769.391	67.16
769.569	66.01
769.747	67.03
769.925	68.25
770.103	68.43
770.281	67.37
770.459	68.36
770.636	68.51
770.814	68.22
770.992	68.44
771.17	68.97
771.348	68.17
771.525	68.64
771.703	66.67
771.881	67.5
772.059	66.56
772.236	67.42
772.414	67.79
772.592	70.02
772.769	69.9
772.947	70.42
773.125	70.9
773.302	70.7
773.48	71.43
773.657	72.86
773.835	70.18
774.013	71.18
774.19	71
774.368	70.96
774.545	71.01
774.723	73.05
774.9	72.02
775.077	71.49
775.255	72.02
775.432	73.04
775.61	73.09
775.787	75.79
775.964	74.41
776.142	76.31
776.319	75.95
776.496	75.25
776.674	73.41
776.851	73.43
777.028	73.4
777.205	71.91
777.382	71.34
777.56	70.84
777.737	71.94
777.914	74.11
778.091	72.63
778.268	71.39
778.445	71.24
778.622	71.81
778.8	73.88
778.977	74.08
779.154	76.88
779.331	76.45
779.508	75.62
779.685	75.31
779.862	75.26
780.038	75.26
780.215	75.29
780.392	74.72
780.569	74.68
780.746	72.64
780.923	74.32
781.1	74.37
781.277	74.56
781.453	74.9
781.63	74.81
781.807	75.23
781.984	75.15
782.16	74.71
782.337	74.6
782.514	75.3
782.691	78.11
782.867	77.22
783.044	77.02
783.221	75.73
783.397	76.42
783.574	73.52
783.75	72.69
783.927	73.13
784.103	74.52
784.28	73.7
784.456	72.8
784.633	70.89
784.809	71.39
784.986	69.91
785.162	69.91
785.339	69.67
785.515	71.14
785.692	70.17
785.868	70.31
786.044	68.8
786.221	69.63
786.397	69.66
786.573	69.24
786.749	67.29
786.926	66.76
787.102	68.31
787.278	67.36
787.454	66.76
787.631	68.43
787.807	66.85
787.983	68.56
788.159	69.8
788.335	70.86
788.511	71.25
788.687	72.84
788.863	73.43
789.039	73.19
789.216	73.56
789.392	74.64
789.568	73.96
789.744	74.85
789.919	73.55
790.095	72.55
790.271	72.46
790.447	71.46
790.623	71.25
790.799	70.44
790.975	69.23
791.151	70.1
791.327	68.62
791.502	68.13
791.678	69.59
791.854	71.63
792.03	70.17
792.205	71.7
792.381	73.33
792.557	73.71
792.733	72.89
792.908	75.19
793.084	76.95
793.259	78.22
793.435	80.25
793.611	77.21
793.786	75.89
793.962	76.63
794.137	75.28
794.313	75.14
794.488	75.24
794.664	77.91
794.839	75.8
795.015	74.6
795.19	74.47
795.366	71.66
795.541	72.73
795.716	71.63
795.892	72.77
796.067	73.24
796.242	74.35
796.418	73.33
796.593	72.2
796.768	72.98
796.944	72.51
797.119	72.72
797.294	75.98
797.469	75.17
797.644	74.53
797.82	73.99
797.995	71.89
798.17	70.31
798.345	71.17
798.52	71.22
798.695	69.69
798.87	67.62
799.045	66.53
799.22	65.9
799.395	66.85
799.57	68.7
799.745	69.03
799.92	68.57
800.095	72.25
800.27	69.83
800.445	70.44
800.62	71.77
800.795	74.17
800.97	76.5
801.145	73.41
801.319	74.99
801.494	73.48
801.669	73.8
801.844	75.07
802.018	69.66
802.193	71.2
802.368	70.65
802.543	72.32
802.717	72.82
802.892	71.21
803.067	74.65
803.241	74.02
803.416	74.36
803.59	74.3
803.765	73.89
803.94	76.46
804.114	77.72
804.289	78.89
804.463	76.89
804.638	75.27
804.812	75.73
804.986	75.51
805.161	75.69
805.335	76.07
805.51	75.33
805.684	75.81
805.858	75.42
806.033	73.27
806.207	73.57
806.381	73.48
806.556	73.2
806.73	75.45
806.904	75.89
807.078	75.48
807.253	77.83
807.427	78.67
807.601	79.59
807.775	80.3
807.949	79.46
808.123	80.43
808.298	79.34
808.472	82.06
808.646	80.12
808.82	78.79
808.994	78.31
809.168	76.98
809.342	77.58
809.516	77.38
809.69	76.2
809.864	79.79
810.038	77.99
810.212	80.78
810.385	80.04
810.559	80.48
810.733	78.81
810.907	77.74
811.081	75.48
811.255	75.8
811.428	75.68
811.602	74.26
811.776	77.02
811.95	76.52
812.123	75.82
812.297	76.39
812.471	74.35
812.644	75.98
812.818	76.15
812.992	76.99
813.165	76.09
813.339	76.37
813.512	79.94
813.686	76.41
813.86	77.74
814.033	75.65
814.207	75.7
814.38	78.11
814.554	77.51
814.727	81.34
814.9	79.62
815.074	80.2
815.247	82.26
815.421	78.38
815.594	75.96
815.767	73.64
815.941	74.32
816.114	74.37
816.287	73.54
816.46	73.45
816.634	69.61
816.807	74.31
816.98	74.37
817.153	73.22
817.327	72.16
817.5	75.54
817.673	77.4
817.846	81.29
818.019	78.35
818.192	79.54
818.365	82.71
818.538	87.37
818.711	80.91
818.884	82.18
819.057	81.71
819.23	83.97
819.403	81.55
819.576	79.5
819.749	76.36
819.922	77.15
820.095	73.53
820.268	70.41
820.441	65.99
820.614	66.22
820.786	63.85
820.959	62.13
821.132	60.05
821.305	59.23
821.477	57.46
821.65	56.29
821.823	55.01
821.996	54.93
822.168	53.85
822.341	53.97
822.514	52.54
822.686	52.04
822.859	51.59
823.031	51.26
823.204	51.1
823.376	51.32
823.549	50.8
823.722	50.98
823.894	51
824.067	51.11
824.239	50.59
824.411	51.53
824.584	51.62
824.756	51.87
824.929	52.19
825.101	51.8
825.273	51.3
825.446	51.6
825.618	51.1
825.79	51.2
825.963	52
826.135	52.68
826.307	52.5
826.479	52.66
826.652	52.47
826.824	52.44
826.996	52.58
827.168	53.27
827.34	53.83
827.512	54.1
827.684	53.61
827.856	53.94
828.029	53.86
828.201	53.97
828.373	53.48
828.545	53.22
828.717	54.78
828.889	55.39
829.061	55.38
829.232	56.32
829.404	56.9
829.576	58.7
829.748	57.82
829.92	58.63
830.092	60.47
830.264	61.35
830.436	61.92
830.607	61.54
830.779	60.67
830.951	63.27
831.123	62.37
831.294	64.43
831.466	65.46
831.638	65.6
831.809	65.48
831.981	64.26
832.153	65.07
832.324	65.62
832.496	64.65
832.667	65.87
832.839	65.09
833.011	66.22
833.182	66.37
833.354	65.02
833.525	64.91
833.697	63.11
833.868	62.4
834.039	63.75
834.211	64.77
834.382	63.96
834.554	63.9
834.725	63.29
834.896	62.53
835.068	59.86
835.239	58.58
835.41	60.53
835.581	62.64
835.753	62.57
835.924	60.87
836.095	59.7
836.266	60.31
836.438	59.2
836.609	58.59
836.78	59.39
836.951	62.01
837.122	63.36
837.293	61.64
837.464	61.24
837.635	63.73
837.806	64.66
837.977	65.78
838.148	66.6
838.319	70
838.49	72.58
838.661	72.01
838.832	72.27
839.003	75.16
839.174	79.45
839.345	79.76
839.516	77.88
839.687	81.58
839.857	85.34
840.028	85.46
840.199	88.6
840.37	88.78
840.54	88.33
840.711	88.05
840.882	85.7
841.053	80.59
841.223	76.81
841.394	79.91
841.564	77.7
841.735	78.06
841.906	78.62
842.076	76.08
842.247	78.63
842.417	79.25
842.588	78.95
842.758	81.66
842.929	85.49
843.099	88.1
843.27	88.2
843.44	93.07
843.611	89.69
843.781	87.71
843.951	82.74
844.122	77.84
844.292	80.92
844.462	78.27
844.633	73.71
844.803	76.88
844.973	79.36
845.144	74.83
845.314	75.3
845.484	77.39
845.654	84.34
845.824	102.4
845.995	106.04
846.165	111.3
846.335	121.59
846.505	141.26
846.675	147.51
846.845	146.83
847.015	156.17
847.185	152.43
847.355	146.25
847.525	137.53
847.695	123
847.865	119.36
848.035	106.09
848.205	104.7
848.375	96.15
848.545	95.26
848.715	95.11
848.884	93.31
849.054	86.78
849.224	100.01
849.394	110.78
849.564	115.38
849.733	116.01
849.903	115.99
850.073	115.35
850.243	107.3
850.412	103.62
850.582	101.51
850.752	106.33
850.921	106.43
851.091	104.27
851.26	100.53
851.43	97.27
851.599	101.11
851.769	99.84
851.939	101.78
852.108	111.79
852.278	116.58
852.447	115.82
852.616	120.76
852.786	118.26
852.955	122
853.125	119.19
853.294	122.85
853.463	115.75
853.633	123.16
853.802	119.32
853.971	127.12
854.141	119.94
854.31	121.43
854.479	116.5
854.648	116.21
854.818	106.84
854.987	104.66
855.156	110.8
855.325	122.47
855.494	123.59
855.663	123.26
855.832	116.95
856.001	125.84
856.171	129.47
856.34	134.83
856.509	144.39
856.678	152.62
856.847	157.94
857.016	139.81
857.185	133.88
857.353	142.6
857.522	145.71
857.691	132.97
857.86	137.85
858.029	142.9
858.198	152.78
858.367	147.5
858.535	155.69
858.704	163.26
858.873	182.13
859.042	166.25
859.21	168.95
859.379	162.9
859.548	164.32
859.717	156.43
859.885	161.95
860.054	140.35
860.222	138.7
860.391	131.74
860.56	125.18
860.728	119.08
860.897	117.89
861.065	107.71
861.234	109.89
861.402	117.03
861.571	117.23
861.739	114.22
861.908	129.2
862.076	138.59
862.244	150.6
862.413	154.64
862.581	152.39
862.749	171.48
862.918	173.88
863.086	145.22
863.254	137.52
863.423	123.04
863.591	114.6
863.759	115.06
863.927	107.88
864.096	115.16
864.264	113.7
864.432	113.41
864.6	109.12
864.768	109.99
864.936	121.27
865.104	126.18
865.272	134.45
865.44	145.61
865.608	130.3
865.776	136.51
865.944	113.98
866.112	124.23
866.28	133.41
866.448	136.63
866.616	133.88
866.784	140.73
866.952	133.11
867.12	137.61
867.288	133.7
867.455	139.47
867.623	142.21
867.791	160.17
867.959	149.4
868.127	152.69
868.294	177.52
868.462	166.9
868.63	141.72
868.797	148.67
868.965	141.64
869.133	139.83
869.3	156.14
869.468	149.03
869.636	145
869.803	145.78
869.971	131.56
870.138	128.61
870.306	124.39
870.473	128.92
870.641	130.84
870.808	133.51
870.975	124.13
871.143	118.88
871.31	119.93
871.478	114.98
871.645	116.55
871.812	120.25
871.98	116.9
872.147	126.31
872.314	126.36
872.482	114.83
872.649	113.06
872.816	122.59
872.983	118.38
873.15	116.62
873.318	122.1
873.485	123.25
873.652	125.31
873.819	130.05
873.986	120.25
874.153	121.85
874.32	125.85
874.487	125.26
874.654	124.15
874.821	127.25
874.988	123.86
875.155	123.24
875.322	125.84
875.489	132.41
875.656	131.29
875.823	144.12
875.99	140.48
876.157	148.21
876.324	151.33
876.49	151.44
876.657	151.54
876.824	146.34
876.991	142.53
877.157	133.8
877.324	135.59
877.491	127.84
877.658	123.91
877.824	126.77
877.991	129.31
878.157	123.84
878.324	133.35
878.491	130.94
878.657	129.48
878.824	120.39
878.99	111.2
879.157	110.74
879.323	107.94
879.49	103.33
879.656	105.52
879.823	107.82
879.989	110.07
880.156	101.99
880.322	101.62
880.488	99.71
880.655	103.87
880.821	106.84
880.987	99.66
881.154	96.98
881.32	102.71
881.486	95.92
881.652	87.74
881.819	87.2
881.985	84.27
882.151	76.9
882.317	72.5
882.483	70.94
882.649	69.01
882.816	64.99
882.982	63.81
883.148	58.78
883.314	58.88
883.48	58.87
883.646	56.88
883.812	54.79
883.978	55.72
884.144	57.44
884.31	55.65
884.476	55.01
884.642	55.63
884.807	58.16
884.973	60.05
885.139	60.87
885.305	61.14
885.471	61.95
885.637	63.7
885.802	63.87
885.968	64.82
886.134	65.24
886.3	68.22
886.465	72.08
886.631	72.56
886.797	73.94
886.962	74.71
887.128	78.91
887.293	79.28
887.459	80.88
887.625	82.47
887.79	81.18
887.956	90.74
888.121	89.86
888.287	85.45
888.452	80.37
888.618	81.19
888.783	76.52
