Data from LC_193_Reflection_3.txt Node
Date: Tue Nov 17 13:41:00 EST 2015
User: robert
Spectrometer: USB4E03001
Autoset integration time: false
Trigger mode: 4
Integration Time (sec): 1.000000E-1
Scans to average: 15
Electric dark correction enabled: true
Nonlinearity correction enabled: false
Boxcar width: 5
Stray light correction enabled: false
XAxis mode: Wavelengths
Stop averaging: false
Number of Pixels in Spectrum: 3648
>>>>>Begin Spectral Data<<<<<
177.566	238.85
177.785	278.05
178.005	-1448.88
178.225	398.69
178.445	-518.87
178.665	-138.97
178.885	76.6
179.105	-275
179.324	585.43
179.544	1136.57
179.764	350.79
179.984	186.2
180.204	249.07
180.423	635.5
180.643	954.24
180.863	-3518.77
181.083	-4682.4
181.302	1068.98
181.522	486.14
181.742	1624.15
181.961	17956.86
182.181	-954.76
182.401	-171.85
182.621	-426.76
182.84	-295.6
183.06	-676
183.279	979.34
183.499	-5657.98
183.719	-494.74
183.938	-177.52
184.158	-228.9
184.377	-328.41
184.597	-306.59
184.816	374.27
185.036	313.1
185.256	399.06
185.475	231.61
185.695	286.93
185.914	225.87
186.134	292.76
186.353	168.87
186.572	207.53
186.792	149.04
187.011	157.3
187.231	433.51
187.45	1788.91
187.67	372.67
187.889	397.97
188.108	252.52
188.328	219.79
188.547	166.32
188.766	-734.65
188.986	734.59
189.205	253.76
189.424	331.89
189.644	305.73
189.863	220.33
190.082	226.03
190.302	309.08
190.521	392.36
190.74	8837.66
190.959	1337.91
191.178	335.58
191.398	287.14
191.617	690.23
191.836	463.89
192.055	257.49
192.274	-718.37
192.494	-405.28
192.713	-1108.28
192.932	-561.16
193.151	1276.4
193.37	20757.14
193.589	-872900
193.808	22361.8
194.027	-3012.33
194.246	-1320.77
194.465	6097.51
194.685	593.95
194.904	500.51
195.123	78862.5
195.342	2016.28
195.561	601.45
195.78	408.03
195.999	476.06
196.218	298.76
196.436	276.94
196.655	215.43
196.874	267.18
197.093	298.27
197.312	219.36
197.531	217.96
197.75	215.55
197.969	226.24
198.188	250.48
198.407	211.68
198.625	270.34
198.844	253.16
199.063	222.89
199.282	210.06
199.501	177.12
199.719	276.1
199.938	256.53
200.157	264.65
200.376	619.49
200.594	318.32
200.813	249.08
201.032	337.85
201.251	397.37
201.469	5352.63
201.688	1864.38
201.907	-9661.44
202.125	3115.56
202.344	2612.61
202.563	2240.85
202.781	1714.27
203	-1997.35
203.218	-439.17
203.437	-644.42
203.656	-392.46
203.874	-967.51
204.093	-1179.11
204.311	-934.14
204.53	18267.11
204.748	-867.9
204.967	3965.78
205.185	809.49
205.404	383.47
205.622	353.83
205.841	284.79
206.059	321.49
206.278	247.1
206.496	249.89
206.715	268.78
206.933	316.92
207.151	271.69
207.37	234.87
207.588	247.55
207.806	326.81
208.025	284.64
208.243	250.62
208.461	301.64
208.68	438.58
208.898	-647.89
209.116	-898.15
209.335	1732.28
209.553	-938.2
209.771	564.58
209.989	238.73
210.208	280.69
210.426	280.25
210.644	288.08
210.862	206.65
211.081	171.82
211.299	117.66
211.517	151.56
211.735	157.97
211.953	164.91
212.171	185.43
212.39	441.81
212.608	457.68
212.826	656.87
213.044	705.86
213.262	591.67
213.48	-25998.51
213.698	-1289.73
213.916	575.99
214.134	-1076.03
214.352	-310.08
214.57	-379.91
214.788	4220.7
215.006	1392.12
215.224	1308.44
215.442	702.03
215.66	823.21
215.878	525.22
216.096	264.25
216.314	288.73
216.532	187.6
216.75	133.8
216.968	135.55
217.185	144.88
217.403	178.64
217.621	155.8
217.839	201.12
218.057	214.83
218.275	213.1
218.492	236.08
218.71	247.52
218.928	314.9
219.146	365.22
219.363	410.68
219.581	301.42
219.799	288.22
220.017	333.41
220.234	321.39
220.452	266.48
220.67	253.99
220.887	263.35
221.105	282.25
221.323	249.74
221.54	239.69
221.758	186.22
221.976	199.69
222.193	161.73
222.411	139.81
222.629	137.94
222.846	150.73
223.064	132.32
223.281	128.93
223.499	113.06
223.716	119.21
223.934	116.17
224.151	119.4
224.369	104.15
224.586	113.35
224.804	127.33
225.021	135.12
225.239	124.41
225.456	116.03
225.674	107.83
225.891	106.15
226.108	103.05
226.326	91.03
226.543	74.82
226.76	80.45
226.978	77.35
227.195	73.49
227.413	57.18
227.63	53.59
227.847	52.99
228.064	52.99
228.282	46.64
228.499	47.56
228.716	45.75
228.934	49.9
229.151	48.28
229.368	43.48
229.585	40.14
229.802	42.28
230.02	43.21
230.237	42.86
230.454	41.64
230.671	45.61
230.888	41.07
231.105	44.15
231.323	40.2
231.54	41
231.757	45.74
231.974	49.14
232.191	44.72
232.408	42.43
232.625	42.57
232.842	48.12
233.059	47.58
233.276	51.5
233.493	51.98
233.71	54.76
233.927	50.27
234.144	54.92
234.361	57.14
234.578	65.85
234.795	65.3
235.012	64.21
235.229	59.33
235.446	58
235.663	64.79
235.879	61.95
236.096	67.58
236.313	69.21
236.53	59.17
236.747	54.08
236.964	51.68
237.181	57.78
237.397	58.14
237.614	59.54
237.831	59.71
238.048	51.97
238.264	51.5
238.481	40.43
238.698	39.16
238.915	45.44
239.131	47.73
239.348	48.92
239.565	43.07
239.781	45.5
239.998	44.58
240.215	43.07
240.431	39.44
240.648	37.66
240.865	36.91
241.081	37.98
241.298	34.44
241.514	32
241.731	27.53
241.947	28.03
242.164	25.53
242.38	22.96
242.597	22.45
242.814	23.76
243.03	22.13
243.246	22.2
243.463	21.39
243.679	22.13
243.896	22.69
244.112	23.64
244.329	23.21
244.545	24.95
244.762	25.68
244.978	24.39
245.194	25.3
245.411	26.65
245.627	28.12
245.843	25.04
246.06	22.34
246.276	19.68
246.492	18.64
246.709	18.04
246.925	17.55
247.141	18.63
247.357	17.93
247.574	18.03
247.79	17.97
248.006	16.88
248.222	17.55
248.439	17.55
248.655	16.71
248.871	17.31
249.087	17.96
249.303	18.88
249.519	16.46
249.736	19.01
249.952	16.91
250.168	22.25
250.384	23.71
250.6	24.79
250.816	26.01
251.032	29.17
251.248	27.66
251.464	24.25
251.68	22.84
251.896	24.99
252.112	21.04
252.328	23.42
252.544	18.31
252.76	18.37
252.976	17.11
253.192	18.9
253.408	19.38
253.624	20.44
253.84	22.31
254.056	21.73
254.272	22.2
254.487	27.49
254.703	25.97
254.919	28.15
255.135	28.09
255.351	28.94
255.567	25.05
255.782	23.14
255.998	23.48
256.214	24.72
256.43	26.21
256.646	26.64
256.861	22.76
257.077	25.09
257.293	24.65
257.508	26.86
257.724	27.87
257.94	26.23
258.155	25.38
258.371	25.08
258.587	23.1
258.802	20.78
259.018	18.76
259.234	17.68
259.449	16.93
259.665	15.95
259.88	15.28
260.096	15.01
260.312	15.03
260.527	15.22
260.743	14.35
260.958	13.38
261.174	13.44
261.389	13.77
261.605	14.8
261.82	14.15
262.036	14.31
262.251	13.1
262.466	10.95
262.682	12.83
262.897	13.51
263.113	14.07
263.328	16.5
263.543	19.03
263.759	20.59
263.974	19.76
264.189	19.47
264.405	21.7
264.62	22.6
264.835	24.2
265.051	21.42
265.266	21.15
265.481	21.72
265.696	22.46
265.912	22.51
266.127	20.71
266.342	20.51
266.557	19.95
266.773	18.64
266.988	18.16
267.203	17.77
267.418	19.84
267.633	18.43
267.848	17.55
268.064	15.65
268.279	13.33
268.494	13.5
268.709	13.51
268.924	14.12
269.139	14.4
269.354	15.23
269.569	16.31
269.784	15.44
269.999	16.6
270.214	17.16
270.429	20.12
270.644	20.36
270.859	19.62
271.074	18.79
271.289	19.51
271.504	18.34
271.719	17.95
271.934	17.53
272.149	17.32
272.363	18.53
272.578	18.01
272.793	16.17
273.008	17.01
273.223	17.24
273.438	17.36
273.653	16.94
273.867	17.76
274.082	17.37
274.297	16.76
274.512	16.84
274.726	14.79
274.941	14.59
275.156	15.23
275.371	14.42
275.585	15.34
275.8	16.65
276.015	17.63
276.229	16.17
276.444	15.59
276.659	17.69
276.873	17.95
277.088	18.96
277.302	19.44
277.517	18.28
277.732	17.97
277.946	17.52
278.161	18.59
278.375	17.97
278.59	19.84
278.804	19.62
279.019	19.02
279.233	18.23
279.448	18.23
279.662	20.18
279.877	20.59
280.091	19.65
280.306	18.89
280.52	16.86
280.735	16.87
280.949	15.77
281.163	16.76
281.378	16.56
281.592	16.42
281.806	14.91
282.021	13.77
282.235	13.94
282.449	16.34
282.664	17.64
282.878	18.98
283.092	17.75
283.307	18.92
283.521	19.44
283.735	17.52
283.949	17.24
284.164	18.32
284.378	16.8
284.592	16.31
284.806	15.8
285.02	14.97
285.234	13.17
285.449	13.41
285.663	12.79
285.877	11.74
286.091	12.32
286.305	12.27
286.519	12.1
286.733	13.23
286.947	13.73
287.161	12.84
287.375	12.99
287.589	13.82
287.803	13.91
288.017	13.84
288.231	14.91
288.445	14.58
288.659	15.25
288.873	14.59
289.087	14.44
289.301	14.35
289.515	14.89
289.729	15.38
289.943	15.28
290.157	15.37
290.371	14.67
290.584	14.96
290.798	15.36
291.012	16.54
291.226	17.8
291.44	17.42
291.654	18.16
291.867	17.75
292.081	16.33
292.295	17.02
292.509	16.87
292.722	18.19
292.936	17.44
293.15	17.29
293.364	15.35
293.577	14.72
293.791	14.32
294.005	14.69
294.218	14.7
294.432	16.4
294.645	16.2
294.859	16.18
295.073	15.1
295.286	15.27
295.5	15.49
295.713	15.34
295.927	14.62
296.14	15.09
296.354	13.85
296.568	14.21
296.781	14.16
296.994	14.05
297.208	14.68
297.421	14.51
297.635	14.69
297.848	14.19
298.062	14.97
298.275	15.22
298.489	15.39
298.702	15.62
298.915	15.37
299.129	15.44
299.342	15.76
299.555	15.32
299.769	16.76
299.982	16.77
300.195	16.91
300.409	15.81
300.622	16.03
300.835	16.25
301.048	17.25
301.262	17.57
301.475	16.72
301.688	16.19
301.901	16.71
302.115	16.94
302.328	17.56
302.541	18.04
302.754	18.4
302.967	18.5
303.18	18.42
303.393	18.15
303.607	18.26
303.82	18.74
304.033	18.71
304.246	18.7
304.459	18.29
304.672	17.77
304.885	18.16
305.098	18.95
305.311	19.27
305.524	18.82
305.737	18.32
305.95	18.92
306.163	17.56
306.376	16.83
306.589	16.17
306.802	13.83
307.015	13.72
307.228	14.95
307.44	15.04
307.653	14.43
307.866	14.69
308.079	15.24
308.292	13.66
308.505	14.63
308.718	14.91
308.93	15.01
309.143	15.93
309.356	16.06
309.569	14.95
309.781	15.13
309.994	14.17
310.207	13.7
310.42	12.47
310.632	12.66
310.845	12.44
311.058	12.32
311.27	11.61
311.483	11.79
311.696	11.23
311.908	11.24
312.121	10.72
312.333	11.8
312.546	12.03
312.759	12.67
312.971	13.53
313.184	14.27
313.396	14.61
313.609	15.61
313.821	16.21
314.034	17.45
314.246	17.61
314.459	17.64
314.671	17.98
314.884	18.55
315.096	18.91
315.309	18.09
315.521	17.95
315.733	17.61
315.946	16.77
316.158	16.87
316.371	16.13
316.583	17.2
316.795	16.49
317.008	16.84
317.22	16.79
317.432	16.54
317.644	16
317.857	16.09
318.069	17.83
318.281	18.38
318.494	18.31
318.706	18.4
318.918	17.5
319.13	19.43
319.342	18.93
319.555	17.31
319.767	17.87
319.979	18.19
320.191	18.64
320.403	17.93
320.615	17.29
320.827	17.01
321.039	17.79
321.252	18.43
321.464	17.37
321.676	17.93
321.888	19.39
322.1	19.66
322.312	20.13
322.524	20.09
322.736	19.72
322.948	21.33
323.16	21.28
323.372	20.08
323.584	19.85
323.796	21.12
324.007	21.24
324.219	21.65
324.431	21.61
324.643	21.87
324.855	22.42
325.067	23.34
325.279	22.73
325.491	23.27
325.702	24.26
325.914	24.23
326.126	23.87
326.338	23.91
326.55	22.8
326.761	22.98
326.973	22.89
327.185	22.65
327.396	22.82
327.608	22.92
327.82	22.75
328.032	22.56
328.243	22.73
328.455	23.05
328.666	23.42
328.878	24.7
329.09	24.85
329.301	25.67
329.513	25.61
329.725	25.64
329.936	26.97
330.148	28.54
330.359	29.52
330.571	29.87
330.782	29.98
330.994	28.59
331.205	28.73
331.417	27.88
331.628	28.05
331.84	29.45
332.051	30.08
332.262	29.19
332.474	28.09
332.685	28.69
332.897	28.41
333.108	27.9
333.319	29.38
333.531	29.67
333.742	30.88
333.953	30.15
334.165	29.52
334.376	29.9
334.587	30.49
334.799	30.7
335.01	30.15
335.221	29.56
335.432	29.61
335.644	29.99
335.855	30.22
336.066	30.26
336.277	31.2
336.488	30.9
336.7	29.53
336.911	29.71
337.122	29.58
337.333	29.78
337.544	31.48
337.755	31.32
337.966	30.8
338.177	30.77
338.388	30.98
338.599	31.18
338.811	31.25
339.022	31.6
339.233	30.88
339.444	30.6
339.655	30.99
339.866	30.88
340.076	31.39
340.287	31.18
340.498	31.62
340.709	31.07
340.92	30.5
341.131	30.47
341.342	30.98
341.553	31.74
341.764	32.54
341.975	32.28
342.185	31.59
342.396	31.67
342.607	32.65
342.818	33.04
343.029	32.2
343.239	32.51
343.45	31.67
343.661	31.5
343.872	31.36
344.082	31.83
344.293	31.41
344.504	32.86
344.714	31.86
344.925	31.33
345.136	30.63
345.346	31.5
345.557	31.36
345.768	32.73
345.978	32.61
346.189	33.07
346.399	32.46
346.61	32.41
346.821	30.63
347.031	31.29
347.242	30.83
347.452	31.3
347.663	31.14
347.873	31.47
348.084	30.64
348.294	31.23
348.504	31
348.715	31.35
348.925	31.67
349.136	31.84
349.346	31.49
349.557	32.39
349.767	31.67
349.977	31.07
350.188	30.85
350.398	30.99
350.608	30.1
350.819	29.38
351.029	29.68
351.239	29.78
351.449	30.31
351.66	30.77
351.87	29.74
352.08	29.78
352.29	30.85
352.501	30.55
352.711	31.98
352.921	32.17
353.131	32.62
353.341	31.68
353.552	31.14
353.762	30.73
353.972	30.36
354.182	31.41
354.392	31.71
354.602	31.98
354.812	32.46
355.022	31.23
355.232	30.86
355.442	30.65
355.652	30.9
355.862	31.06
356.072	31.18
356.282	31.55
356.492	30.39
356.702	29.89
356.912	29.06
357.122	28.75
357.332	28.4
357.542	28.32
357.752	28.2
357.962	27.88
358.171	27.44
358.381	27.55
358.591	26.6
358.801	27.26
359.011	27.06
359.221	27.49
359.43	27.16
359.64	27.04
359.85	26.82
360.06	26.9
360.269	27.08
360.479	27.2
360.689	26.65
360.899	26.89
361.108	26.58
361.318	26.57
361.528	25.66
361.737	25.74
361.947	25.84
362.156	26.1
362.366	25.84
362.576	25.18
362.785	25.41
362.995	25.58
363.204	25.65
363.414	25.58
363.623	25.43
363.833	25.98
364.042	25.74
364.252	25.49
364.461	25.41
364.671	25.53
364.88	25.84
365.09	25.63
365.299	25.7
365.509	25.27
365.718	25.01
365.927	25.25
366.137	25.88
366.346	26.31
366.555	26.42
366.765	26.56
366.974	26.34
367.183	26.72
367.393	26.58
367.602	26.51
367.811	26.81
368.021	26.58
368.23	26.84
368.439	26.12
368.648	25.72
368.857	25.78
369.067	25.66
369.276	25.88
369.485	26.02
369.694	25.89
369.903	25.81
370.112	25.98
370.321	26.2
370.531	25.95
370.74	25.72
370.949	25.32
371.158	25
371.367	25.16
371.576	24.98
371.785	24.67
371.994	24.93
372.203	24.71
372.412	24.6
372.621	24.54
372.83	24.19
373.039	24.84
373.248	25.52
373.457	25.91
373.666	25.52
373.874	25.45
374.083	25.39
374.292	24.95
374.501	24.8
374.71	24.64
374.919	24.73
375.128	24.79
375.336	24.54
375.545	24.58
375.754	24.1
375.963	23.72
376.171	24.1
376.38	24.34
376.589	24.46
376.798	24.36
377.006	24.29
377.215	24.77
377.424	24.34
377.632	23.98
377.841	23.84
378.05	24.15
378.258	24.27
378.467	23.86
378.675	23.43
378.884	23.81
379.093	24.05
379.301	24.33
379.51	23.62
379.718	23.9
379.927	24.22
380.135	24.14
380.344	24.09
380.552	24.46
380.761	24.31
380.969	24.2
381.177	23.7
381.386	23.8
381.594	23.38
381.803	23.42
382.011	23.46
382.219	22.65
382.428	22.49
382.636	22.31
382.845	22.02
383.053	22.33
383.261	22.23
383.469	22.09
383.678	22.02
383.886	21.92
384.094	21.79
384.302	21.45
384.511	21.79
384.719	21.74
384.927	21.68
385.135	21.88
385.343	21.78
385.552	22.03
385.76	22.13
385.968	21.79
386.176	21.95
386.384	22.04
386.592	22.27
386.8	22.29
387.008	22.21
387.216	22.27
387.424	22.04
387.633	21.75
387.841	21.55
388.049	21.74
388.257	22.08
388.465	22.38
388.672	22.27
388.88	22.04
389.088	21.99
389.296	21.95
389.504	21.83
389.712	21.99
389.92	21.79
390.128	21.93
390.336	21.65
390.544	21.33
390.751	20.79
390.959	20.87
391.167	21.11
391.375	20.97
391.583	20.61
391.79	20.61
391.998	20.66
392.206	21.03
392.414	20.73
392.621	20.74
392.829	20.77
393.037	21.05
393.244	20.83
393.452	20.58
393.66	20.58
393.867	20.74
394.075	20.72
394.283	20.44
394.49	20.29
394.698	20.22
394.905	20.03
395.113	19.84
395.32	19.4
395.528	19.36
395.735	19.45
395.943	19.4
396.15	19.33
396.358	19.33
396.565	19.22
396.773	18.98
396.98	19.21
397.188	19.29
397.395	19.32
397.602	19.63
397.81	19.81
398.017	19.55
398.225	19.82
398.432	19.91
398.639	19.9
398.847	20
399.054	19.94
399.261	19.68
399.468	19.55
399.676	19.77
399.883	19.67
400.09	19.58
400.297	20
400.505	19.66
400.712	19.93
400.919	19.96
401.126	19.74
401.333	19.9
401.54	19.87
401.748	19.94
401.955	19.75
402.162	19.87
402.369	19.56
402.576	19.44
402.783	19.17
402.99	18.6
403.197	18.51
403.404	18.47
403.611	18.49
403.818	18.16
404.025	17.97
404.232	17.63
404.439	17.23
404.646	17.27
404.853	17.18
405.06	17.43
405.267	17.37
405.474	16.87
405.681	16.65
405.887	16.59
406.094	16.91
406.301	17.25
406.508	17.31
406.715	17.6
406.922	17.66
407.128	17.57
407.335	17.34
407.542	17.54
407.749	17.91
407.955	18.32
408.162	18.37
408.369	18.38
408.575	18.06
408.782	18.11
408.989	18.18
409.195	18.2
409.402	18.36
409.609	18.46
409.815	18.18
410.022	18.28
410.228	17.85
410.435	17.6
410.642	17.62
410.848	17.63
411.055	17.58
411.261	17.34
411.468	17.53
411.674	17.33
411.881	17.16
412.087	17.71
412.294	17.56
412.5	17.68
412.706	18.09
412.913	17.97
413.119	18.09
413.326	18.04
413.532	17.8
413.738	17.66
413.945	17.43
414.151	17.51
414.357	17.29
414.564	17.09
414.77	17.12
414.976	16.9
415.182	17.02
415.389	16.61
415.595	16.56
415.801	16.68
416.007	16.49
416.214	16.56
416.42	16.56
416.626	16.43
416.832	16.55
417.038	16.61
417.244	16.45
417.45	16.29
417.657	16.24
417.863	16.41
418.069	16.35
418.275	16.35
418.481	16.44
418.687	16.33
418.893	16.28
419.099	15.98
419.305	16.08
419.511	16.12
419.717	16.12
419.923	16.14
420.129	15.95
420.335	16
420.541	15.86
420.746	15.71
420.952	15.62
421.158	15.61
421.364	15.74
421.57	15.68
421.776	15.5
421.982	15.38
422.187	15.29
422.393	15.3
422.599	15.25
422.805	15.22
423.01	15.23
423.216	15.34
423.422	15.34
423.628	15.29
423.833	15.12
424.039	14.94
424.245	15.02
424.45	15.07
424.656	15
424.862	14.94
425.067	14.97
425.273	15.1
425.478	14.98
425.684	14.72
425.889	14.87
426.095	15.04
426.301	15.26
426.506	15.17
426.712	15.1
426.917	15.16
427.123	15.34
427.328	15.43
427.533	15.2
427.739	15.33
427.944	15.63
428.15	15.43
428.355	15.33
428.561	15.44
428.766	15.33
428.971	15.57
429.177	15.66
429.382	15.48
429.587	15.42
429.793	15.51
429.998	15.37
430.203	15.26
430.408	15.2
430.614	15.13
430.819	15
431.024	15.14
431.229	15.1
431.434	15.03
431.64	15.16
431.845	15.42
432.05	15.45
432.255	15.5
432.46	15.54
432.665	15.77
432.87	15.63
433.076	15.73
433.281	15.88
433.486	15.64
433.691	15.59
433.896	15.23
434.101	15.1
434.306	15.2
434.511	15.09
434.716	15.03
434.921	15
435.126	15.22
435.331	15.1
435.535	14.98
435.74	15.21
435.945	15.3
436.15	15.46
436.355	15.49
436.56	15.34
436.765	15.69
436.97	15.61
437.174	15.49
437.379	15.31
437.584	15.59
437.789	15.64
437.993	15.52
438.198	15.43
438.403	15.46
438.608	15.4
438.812	15.3
439.017	15.19
439.222	15.14
439.426	15.03
439.631	15.04
439.836	14.77
440.04	14.71
440.245	14.74
440.45	14.7
440.654	14.57
440.859	14.45
441.063	14.48
441.268	14.41
441.472	14.51
441.677	14.72
441.881	14.86
442.086	15.04
442.29	15
442.495	15.05
442.699	15.11
442.904	15.18
443.108	15.09
443.312	14.99
443.517	15.01
443.721	15.02
443.925	14.66
444.13	14.43
444.334	14.31
444.538	14.18
444.743	14.06
444.947	14.11
445.151	14.11
445.356	14.27
445.56	14.39
445.764	14.32
445.968	14.36
446.173	14.49
446.377	14.54
446.581	14.57
446.785	14.57
446.989	14.62
447.193	14.61
447.398	14.72
447.602	14.67
447.806	14.64
448.01	14.59
448.214	14.62
448.418	14.57
448.622	14.63
448.826	14.53
449.03	14.62
449.234	14.58
449.438	14.39
449.642	14.38
449.846	14.41
450.05	14.33
450.254	14.26
450.458	14.05
450.662	14.11
450.866	14.03
451.069	14.26
451.273	14.13
451.477	14.26
451.681	14.48
451.885	14.42
452.089	14.34
452.292	14.23
452.496	14.27
452.7	14.36
452.904	14.44
453.107	14.47
453.311	14.36
453.515	14.39
453.719	14.33
453.922	14.27
454.126	14.11
454.33	14.15
454.533	14.24
454.737	14.29
454.94	14.07
455.144	13.85
455.348	13.7
455.551	13.61
455.755	13.77
455.958	13.65
456.162	13.55
456.365	13.72
456.569	13.66
456.772	13.72
456.976	13.8
457.179	14.13
457.383	14.19
457.586	14.39
457.79	14.5
457.993	14.73
458.196	14.7
458.4	14.87
458.603	14.94
458.807	14.93
459.01	15
459.213	14.94
459.417	14.8
459.62	14.79
459.823	14.56
460.026	14.48
460.23	14.2
460.433	14.26
460.636	14.15
460.839	14.04
461.042	14.1
461.246	14.01
461.449	14.06
461.652	14.02
461.855	14.11
462.058	14.18
462.261	14.31
462.464	14.39
462.668	14.27
462.871	14.3
463.074	14.26
463.277	14.13
463.48	14.23
463.683	14.17
463.886	14.33
464.089	14.28
464.292	14.28
464.495	14.09
464.698	14.06
464.901	14.34
465.104	14.42
465.306	14.55
465.509	14.57
465.712	14.28
465.915	14.45
466.118	14.31
466.321	14.27
466.524	14.23
466.726	14.31
466.929	14.42
467.132	14.23
467.335	14.12
467.538	14.06
467.74	14.02
467.943	14.32
468.146	14.04
468.348	14.11
468.551	14.15
468.754	14.34
468.956	14.21
469.159	14.09
469.362	14.05
469.564	14.17
469.767	14.41
469.969	14.58
470.172	14.71
470.375	14.76
470.577	14.74
470.78	14.65
470.982	14.61
471.185	14.71
471.387	14.82
471.59	15
471.792	14.99
471.995	14.85
472.197	14.7
472.399	14.46
472.602	14.71
472.804	14.78
473.007	14.8
473.209	14.83
473.411	14.8
473.614	14.75
473.816	14.75
474.018	14.65
474.22	14.53
474.423	14.53
474.625	14.46
474.827	14.14
475.03	14.11
475.232	14.17
475.434	14.27
475.636	14.35
475.838	14.43
476.04	14.28
476.243	14.44
476.445	14.46
476.647	14.54
476.849	14.29
477.051	14.35
477.253	14.29
477.455	14.23
477.657	13.95
477.859	13.93
478.061	13.75
478.263	13.77
478.465	13.69
478.667	13.77
478.869	13.76
479.071	14.07
479.273	14.08
479.475	14.11
479.677	14.27
479.879	14.35
480.081	14.44
480.283	14.44
480.485	14.36
480.686	14.42
480.888	14.32
481.09	14.22
481.292	14.14
481.494	14.07
481.695	14.07
481.897	13.95
482.099	13.97
482.301	13.94
482.502	14
482.704	14.04
482.906	13.95
483.107	13.85
483.309	13.83
483.511	13.82
483.712	13.81
483.914	13.73
484.115	13.66
484.317	13.61
484.519	13.51
484.72	13.49
484.922	13.46
485.123	13.44
485.325	13.43
485.526	13.46
485.728	13.47
485.929	13.5
486.131	13.62
486.332	13.72
486.534	13.66
486.735	13.74
486.936	13.73
487.138	13.74
487.339	13.71
487.541	13.82
487.742	13.77
487.943	13.78
488.144	13.75
488.346	13.71
488.547	13.72
488.748	13.78
488.95	13.77
489.151	13.82
489.352	13.81
489.553	13.89
489.755	13.84
489.956	13.75
490.157	13.72
490.358	13.8
490.559	13.79
490.76	13.7
490.961	13.78
491.163	13.93
491.364	13.94
491.565	13.97
491.766	13.92
491.967	13.91
492.168	13.99
492.369	13.99
492.57	14
492.771	14.03
492.972	14.11
493.173	14.14
493.374	14.15
493.575	14.18
493.776	14.22
493.976	14.34
494.177	14.46
494.378	14.51
494.579	14.64
494.78	14.58
494.981	14.5
495.182	14.6
495.382	14.46
495.583	14.3
495.784	14.3
495.985	14.24
496.185	14.27
496.386	14.27
496.587	14.42
496.788	14.53
496.988	14.58
497.189	14.59
497.39	14.53
497.59	14.73
497.791	14.87
497.992	14.85
498.192	14.92
498.393	14.8
498.593	14.8
498.794	14.62
498.994	14.72
499.195	14.59
499.395	14.68
499.596	14.72
499.796	14.59
499.997	14.47
500.197	14.64
500.398	14.67
500.598	14.85
500.799	15.05
500.999	15.08
501.199	14.76
501.4	15.08
501.6	15.22
501.801	15.26
502.001	15.29
502.201	15.39
502.402	15.41
502.602	15.32
502.802	15.29
503.002	15.23
503.203	15.48
503.403	15.56
503.603	15.45
503.803	15.5
504.003	15.44
504.204	15.55
504.404	15.77
504.604	15.78
504.804	16.16
505.004	16.34
505.204	16.31
505.404	16.54
505.604	16.71
505.804	16.69
506.005	16.71
506.205	16.85
506.405	16.99
506.605	16.99
506.805	17.12
507.005	16.97
507.204	16.81
507.404	16.89
507.604	16.98
507.804	17.04
508.004	17.32
508.204	17.35
508.404	17.46
508.604	17.49
508.804	17.45
509.003	17.51
509.203	17.45
509.403	17.59
509.603	17.67
509.803	17.51
510.002	17.58
510.202	17.6
510.402	17.75
510.602	17.75
510.801	17.7
511.001	17.74
511.201	17.7
511.4	17.81
511.6	17.85
511.8	17.79
511.999	17.99
512.199	18.06
512.398	18.09
512.598	18.19
512.797	18.4
512.997	18.55
513.197	18.72
513.396	18.84
513.596	18.88
513.795	19.16
513.994	19.52
514.194	19.59
514.393	19.76
514.593	19.94
514.792	20.02
514.992	20.1
515.191	20.44
515.39	20.41
515.59	20.42
515.789	20.77
515.988	20.83
516.188	20.83
516.387	20.82
516.586	20.75
516.786	20.78
516.985	20.87
517.184	20.94
517.383	20.97
517.582	21.2
517.782	21.33
517.981	21.27
518.18	21.29
518.379	21.43
518.578	21.58
518.777	21.7
518.976	21.76
519.176	21.77
519.375	21.77
519.574	21.81
519.773	21.84
519.972	21.97
520.171	22.08
520.37	22.21
520.569	22.23
520.768	22.32
520.967	22.4
521.166	22.56
521.365	22.69
521.564	22.94
521.762	22.98
521.961	23.15
522.16	23.23
522.359	23.43
522.558	23.52
522.757	23.69
522.956	23.87
523.154	23.96
523.353	23.96
523.552	24.07
523.751	24.15
523.949	24.23
524.148	24.33
524.347	24.47
524.546	24.58
524.744	24.66
524.943	24.74
525.142	24.78
525.34	24.84
525.539	25.08
525.737	25.2
525.936	25.26
526.135	25.4
526.333	25.42
526.532	25.4
526.73	25.46
526.929	25.56
527.127	25.68
527.326	25.72
527.524	25.79
527.723	25.81
527.921	25.9
528.12	25.95
528.318	25.96
528.516	26
528.715	26.11
528.913	26.14
529.112	26.12
529.31	26.09
529.508	26.14
529.707	26.24
529.905	26.29
530.103	26.32
530.301	26.34
530.5	26.39
530.698	26.43
530.896	26.48
531.094	26.64
531.293	26.76
531.491	26.91
531.689	27.05
531.887	27.11
532.085	27.35
532.283	27.44
532.481	27.56
532.68	27.67
532.878	27.89
533.076	27.95
533.274	27.87
533.472	27.99
533.67	27.99
533.868	28.04
534.066	28.1
534.264	28
534.462	28.01
534.66	28.04
534.858	28.08
535.056	28.05
535.253	28.14
535.451	28.32
535.649	28.34
535.847	28.51
536.045	28.58
536.243	28.8
536.441	28.97
536.638	29
536.836	29.06
537.034	29.14
537.232	29.22
537.43	29.26
537.627	29.32
537.825	29.46
538.023	29.52
538.22	29.66
538.418	29.54
538.616	29.63
538.813	29.91
539.011	30.2
539.209	30.26
539.406	30.35
539.604	30.57
539.801	30.67
539.999	30.75
540.196	30.88
540.394	30.9
540.591	31.04
540.789	31.02
540.986	31
541.184	30.91
541.381	31.04
541.579	31.06
541.776	31.06
541.974	31.07
542.171	31.13
542.368	31.1
542.566	31.11
542.763	31.08
542.96	31.18
543.158	31.11
543.355	31.23
543.552	31.23
543.75	31.36
543.947	31.4
544.144	31.43
544.341	31.51
544.539	31.63
544.736	31.68
544.933	31.76
545.13	31.75
545.327	31.94
545.524	32.03
545.722	32.2
545.919	32.18
546.116	32.17
546.313	32.38
546.51	32.33
546.707	32.5
546.904	32.74
547.101	32.96
547.298	32.98
547.495	33.14
547.692	33.19
547.889	33.21
548.086	33.47
548.283	33.63
548.48	33.63
548.677	33.74
548.874	33.76
549.07	33.59
549.267	33.63
549.464	33.77
549.661	33.96
549.858	34.08
550.055	34.12
550.251	34.07
550.448	34.09
550.645	34.25
550.842	34.18
551.038	34.33
551.235	34.46
551.432	34.65
551.628	34.78
551.825	34.76
552.022	34.82
552.218	35.02
552.415	34.92
552.612	35.13
552.808	35.11
553.005	35.22
553.201	35.16
553.398	35.38
553.594	35.28
553.791	35.38
553.987	35.29
554.184	35.23
554.38	35.27
554.577	35.4
554.773	35.41
554.97	35.65
555.166	35.83
555.362	35.89
555.559	35.87
555.755	36.17
555.952	36.2
556.148	36.46
556.344	36.95
556.541	36.93
556.737	37.05
556.933	37.2
557.129	37.29
557.326	37.41
557.522	37.52
557.718	37.72
557.914	37.61
558.11	37.83
558.307	37.93
558.503	37.71
558.699	38
558.895	38.04
559.091	38.03
559.287	38.08
559.483	38.17
559.679	38.26
559.876	38.11
560.072	38.33
560.268	38.22
560.464	38.16
560.66	38.17
560.856	38.06
561.052	38.2
561.247	38.33
561.443	38.4
561.639	38.39
561.835	38.34
562.031	38.55
562.227	38.5
562.423	38.71
562.619	38.72
562.815	39.03
563.01	39.15
563.206	39.18
563.402	39.21
563.598	39.15
563.793	39.19
563.989	39.51
564.185	39.66
564.381	39.59
564.576	39.45
564.772	39.51
564.968	39.33
565.163	39.38
565.359	39.42
565.555	39.46
565.75	39.63
565.946	39.62
566.141	39.4
566.337	39.42
566.532	39.53
566.728	39.69
566.923	39.75
567.119	39.91
567.314	39.97
567.51	40.05
567.705	40.09
567.901	40.06
568.096	40.13
568.292	40.33
568.487	40.15
568.682	40.33
568.878	40.36
569.073	40.36
569.268	40.22
569.464	40.46
569.659	40.53
569.854	40.68
570.05	40.54
570.245	40.63
570.44	40.63
570.635	40.88
570.831	41.03
571.026	41.25
571.221	41.44
571.416	41.52
571.611	41.41
571.806	41.47
572.002	41.41
572.197	41.55
572.392	41.5
572.587	41.65
572.782	41.74
572.977	41.55
573.172	41.48
573.367	41.55
573.562	41.81
573.757	41.87
573.952	41.76
574.147	42.06
574.342	42.15
574.537	42.35
574.732	42.32
574.927	42.38
575.121	42.39
575.316	42.53
575.511	42.59
575.706	42.44
575.901	42.43
576.096	42.45
576.29	42.4
576.485	42.47
576.68	42.65
576.875	42.81
577.069	42.85
577.264	42.96
577.459	43.03
577.654	42.99
577.848	43.17
578.043	43.42
578.238	43.76
578.432	43.76
578.627	43.86
578.821	43.67
579.016	43.63
579.21	43.66
579.405	43.84
579.6	43.64
579.794	43.77
579.989	43.94
580.183	43.5
580.378	43.47
580.572	43.51
580.766	43.6
580.961	43.96
581.155	43.91
581.35	43.87
581.544	43.83
581.738	44.06
581.933	44.31
582.127	44.47
582.321	44.71
582.516	44.62
582.71	44.66
582.904	44.75
583.099	44.49
583.293	44.86
583.487	44.94
583.681	45.3
583.875	45.34
584.07	45.31
584.264	45.24
584.458	45.5
584.652	45.7
584.846	45.71
585.04	45.48
585.234	45.81
585.428	45.71
585.623	46.02
585.817	45.81
586.011	46
586.205	45.93
586.399	45.97
586.593	45.91
586.787	45.93
586.981	45.9
587.174	46.36
587.368	46.27
587.562	46.33
587.756	46.24
587.95	46.46
588.144	46.34
588.338	46.31
588.532	46.07
588.725	46.29
588.919	46.42
589.113	46.48
589.307	46.09
589.501	46.11
589.694	46.02
589.888	45.98
590.082	45.55
590.275	45.67
590.469	45.92
590.663	46
590.856	45.8
591.05	45.75
591.244	45.79
591.437	46.01
591.631	45.81
591.824	46
592.018	45.84
592.212	46.34
592.405	46.33
592.599	46.17
592.792	46.37
592.986	46.48
593.179	46.58
593.372	46.66
593.566	46.85
593.759	47.58
593.953	47.38
594.146	47.7
594.339	47.56
594.533	47.32
594.726	47.44
594.92	47.47
595.113	47.67
595.306	47.67
595.499	47.84
595.693	47.73
595.886	47.41
596.079	47.48
596.272	47.27
596.466	47.29
596.659	47.46
596.852	47.44
597.045	47.37
597.238	47.12
597.431	47.09
597.624	47.06
597.818	47.08
598.011	47.14
598.204	47.16
598.397	47.19
598.59	47.13
598.783	47.09
598.976	47.09
599.169	47
599.362	47.04
599.555	47.07
599.748	47.15
599.941	47.16
600.134	47.05
600.326	47.03
600.519	47.26
600.712	47.25
600.905	47.43
601.098	47.46
601.291	47.37
601.483	47.6
601.676	47.54
601.869	47.39
602.062	47.33
602.255	47.48
602.447	47.7
602.64	47.55
602.833	47.53
603.025	47.51
603.218	47.59
603.411	47.75
603.603	47.75
603.796	47.71
603.989	47.66
604.181	47.73
604.374	47.69
604.566	47.56
604.759	47.58
604.951	47.7
605.144	47.63
605.336	47.64
605.529	47.57
605.721	47.63
605.914	47.84
606.106	47.83
606.299	47.82
606.491	47.85
606.683	47.89
606.876	48.11
607.068	48.15
607.26	48.42
607.453	48.49
607.645	48.57
607.837	48.42
608.03	48.27
608.222	48.56
608.414	48.6
608.606	48.52
608.799	48.58
608.991	48.41
609.183	48.49
609.375	48.46
609.567	48.76
609.759	48.85
609.952	49.01
610.144	49
610.336	48.86
610.528	48.91
610.72	49.2
610.912	49.05
611.104	49.26
611.296	49.32
611.488	49.48
611.68	49.08
611.872	48.96
612.064	49.13
612.256	49.15
612.448	49.04
612.64	49.13
612.832	48.84
613.023	49.24
613.215	49.36
613.407	49.23
613.599	48.98
613.791	49.31
613.983	49.62
614.174	49.56
614.366	49.71
614.558	49.93
614.75	49.74
614.941	50
615.133	49.96
615.325	49.84
615.516	49.73
615.708	49.52
615.9	49.44
616.091	49.43
616.283	49.28
616.475	49.04
616.666	49.07
616.858	49.6
617.049	49.35
617.241	49.12
617.432	49.1
617.624	49.37
617.815	49.77
618.007	49.44
618.198	49.48
618.39	49.57
618.581	49.85
618.773	49.8
618.964	49.45
619.155	49.74
619.347	50.19
619.538	50.37
619.729	50.36
619.921	50.35
620.112	50.6
620.303	50.31
620.494	50.33
620.686	50.5
620.877	50.59
621.068	50.72
621.259	50.58
621.451	50.4
621.642	50.14
621.833	50.23
622.024	50.02
622.215	50.13
622.406	50.62
622.597	50.52
622.788	50.2
622.98	50.14
623.171	50.19
623.362	50.28
623.553	50.44
623.744	50.79
623.935	50.74
624.126	50.68
624.317	50.12
624.508	49.78
624.698	49.65
624.889	49.55
625.08	49.81
625.271	49.69
625.462	49.41
625.653	49.3
625.844	48.96
626.034	49.02
626.225	49.27
626.416	49.57
626.607	49.63
626.798	49.6
626.988	49.68
627.179	49.77
627.37	49.7
627.56	49.96
627.751	49.94
627.942	50.08
628.132	49.99
628.323	50.05
628.514	50.29
628.704	50.2
628.895	50.46
629.085	50.76
629.276	50.26
629.466	50.52
629.657	50.34
629.847	50.2
630.038	50.2
630.228	50.32
630.419	50.34
630.609	50.26
630.8	50.63
630.99	50.51
631.181	50.41
631.371	50.71
631.561	50.78
631.752	50.81
631.942	51.09
632.132	51.08
632.323	50.97
632.513	50.86
632.703	50.8
632.893	50.65
633.084	50.72
633.274	51.05
633.464	51.13
633.654	50.83
633.844	51.03
634.034	50.87
634.225	51.07
634.415	51.14
634.605	51.48
634.795	51.52
634.985	51.56
635.175	51.86
635.365	51.43
635.555	51.54
635.745	51.64
635.935	51.69
636.125	52
636.315	51.9
636.505	51.85
636.695	51.41
636.885	51.23
637.075	51.5
637.265	51.43
637.455	51.68
637.644	51.96
637.834	51.82
638.024	51.65
638.214	51.42
638.404	51.04
638.593	51.18
638.783	51.12
638.973	51.24
639.163	50.98
639.352	50.89
639.542	50.49
639.732	50.05
639.921	49.9
640.111	50.22
640.301	50.13
640.49	50.59
640.68	50.77
640.87	50.98
641.059	51.07
641.249	50.78
641.438	50.55
641.628	50.86
641.817	50.95
642.007	51.25
642.196	51.03
642.386	50.94
642.575	51.19
642.764	50.76
642.954	50.58
643.143	50.44
643.333	50.62
643.522	50.47
643.711	50.28
643.901	50.24
644.09	49.96
644.279	50.22
644.469	50.7
644.658	50.19
644.847	50.36
645.036	50.68
645.226	50.9
645.415	50.63
645.604	51.02
645.793	51.27
645.982	51.43
646.171	52.07
646.361	51.69
646.55	51.62
646.739	51.93
646.928	51.8
647.117	51.55
647.306	51.53
647.495	51.72
647.684	51.64
647.873	51.64
648.062	51.6
648.251	50.92
648.44	50.88
648.629	50.64
648.818	50.55
649.007	50.99
649.196	51.04
649.384	50.85
649.573	51.07
649.762	51.12
649.951	51.05
650.14	51.47
650.328	52.03
650.517	52.47
650.706	52.36
650.895	52.33
651.083	52.45
651.272	52.33
651.461	52.49
651.65	52.67
651.838	52.54
652.027	52.48
652.216	51.88
652.404	51.84
652.593	51.79
652.781	51.93
652.97	52.2
653.158	51.98
653.347	52.16
653.535	52.37
653.724	52.02
653.912	52.57
654.101	52.85
654.289	52.75
654.478	52.89
654.666	52.37
654.855	52.29
655.043	52
655.231	51.64
655.42	51.91
655.608	51.95
655.796	52.27
655.985	51.91
656.173	51.89
656.361	52.38
656.55	51.69
656.738	51.94
656.926	51.88
657.114	51.92
657.302	52.28
657.491	51.93
657.679	51.55
657.867	51.75
658.055	52.03
658.243	51.97
658.431	51.74
658.619	52.13
658.807	52.39
658.996	52.61
659.184	52.72
659.372	52.43
659.56	52.57
659.748	52.5
659.936	52.07
660.124	51.66
660.311	51.86
660.499	52.11
660.687	52.32
660.875	52.76
661.063	52.79
661.251	52.83
661.439	53.1
661.627	53.5
661.814	53.62
662.002	53.98
662.19	54.42
662.378	54.03
662.565	53.73
662.753	53.71
662.941	53.08
663.129	52.99
663.316	53.18
663.504	53.51
663.692	53.29
663.879	53.6
664.067	53.81
664.254	53.51
664.442	53.84
664.63	53.91
664.817	53.85
665.005	53.63
665.192	53.41
665.38	52.99
665.567	52.51
665.755	51.97
665.942	51.24
666.13	50.89
666.317	50.99
666.504	50.94
666.692	51.09
666.879	50.9
667.067	51.29
667.254	51.83
667.441	52.3
667.629	52.75
667.816	53.04
668.003	53.37
668.19	53.08
668.378	53.11
668.565	53.13
668.752	53.12
668.939	53.04
669.127	52.63
669.314	52.24
669.501	51.88
669.688	51.82
669.875	52.08
670.062	52.33
670.249	52.85
670.436	52.78
670.623	53.14
670.81	52.94
670.997	52.73
671.184	52.74
671.371	52.86
671.558	52.73
671.745	52.34
671.932	52.07
672.119	52.16
672.306	52.12
672.493	52.16
672.68	51.88
672.867	52.54
673.054	52.62
673.24	52.43
673.427	52.62
673.614	53.11
673.801	53.9
673.988	53.69
674.174	53.74
674.361	53.45
674.548	53.97
674.734	53.96
674.921	53.56
675.108	53.86
675.294	54.1
675.481	53.78
675.668	53.55
675.854	53.07
676.041	53.39
676.227	53.13
676.414	53.55
676.601	53.44
676.787	53.53
676.974	53.81
677.16	53.87
677.347	53.81
677.533	54.27
677.719	53.91
677.906	54.11
678.092	54.37
678.279	54.32
678.465	53.93
678.651	53.55
678.838	53.31
679.024	53
679.21	52.93
679.397	53.27
679.583	52.93
679.769	53.09
679.955	52.74
680.142	52.64
680.328	53.18
680.514	52.83
680.7	52.82
680.886	52.85
681.073	53.09
681.259	53.09
681.445	52.98
681.631	52.92
681.817	53.19
682.003	53.25
682.189	53.23
682.375	53.06
682.561	53.54
682.747	53.64
682.933	53.69
683.119	53.69
683.305	53.63
683.491	53.7
683.677	53.93
683.863	53.8
684.049	54.38
684.235	54.26
684.42	53.99
684.606	53.74
684.792	53.76
684.978	53.65
685.164	53.26
685.349	53.54
685.535	53.66
685.721	53.26
685.907	53.61
686.092	53.17
686.278	53.17
686.464	53.43
686.649	53.84
686.835	53.5
687.021	53.63
687.206	53.62
687.392	53.59
687.577	53.59
687.763	54.13
687.948	53.54
688.134	53.13
688.319	53.13
688.505	52.77
688.69	52.64
688.876	52.82
689.061	52.77
689.247	53.4
689.432	53.37
689.618	53.29
689.803	52.96
689.988	53.68
690.174	54.12
690.359	54.18
690.544	54.53
690.73	54.9
690.915	55.35
691.1	55.44
691.285	55.02
691.471	54.95
691.656	54.84
691.841	55.54
692.026	55.06
692.211	55.12
692.396	55.06
692.582	55.45
692.767	55.36
692.952	54.74
693.137	54.76
693.322	54.43
693.507	54.49
693.692	54.1
693.877	53.85
694.062	53.86
694.247	53.44
694.432	54.15
694.617	53.18
694.802	52.9
694.987	53.34
695.172	53.31
695.357	53.68
695.541	54.08
695.726	54.98
695.911	55.26
696.096	55.26
696.281	55.76
696.466	55.47
696.65	55.92
696.835	55.34
697.02	55.53
697.204	55.62
697.389	55.89
697.574	55.7
697.759	55.07
697.943	54.24
698.128	54.05
698.312	53.91
698.497	53.4
698.682	53.44
698.866	53.75
699.051	53.74
699.235	53.9
699.42	53.36
699.604	53.23
699.789	53.22
699.973	53.38
700.158	53.4
700.342	53.41
700.527	53.72
700.711	53.59
700.895	53.27
701.08	53.35
701.264	52.78
701.448	53.06
701.633	53
701.817	53.53
702.001	54.1
702.186	54.32
702.37	54.25
702.554	54.26
702.738	54.94
702.923	55.84
703.107	56.1
703.291	56.12
703.475	56.28
703.659	56.53
703.843	56.08
704.027	56.41
704.212	56.05
704.396	56.4
704.58	56.29
704.764	55.73
704.948	55.32
705.132	55.04
705.316	55.41
705.5	55.22
705.684	55.71
705.868	56.08
706.052	55.25
706.235	55.75
706.419	55.71
706.603	55.7
706.787	55.7
706.971	55.92
707.155	55.3
707.339	55.17
707.522	55.31
707.706	55.33
707.89	55.22
708.074	55.26
708.257	55.05
708.441	54.84
708.625	55.12
708.808	55.47
708.992	54.86
709.176	54.57
709.359	54.53
709.543	54.11
709.727	53.25
709.91	53.11
710.094	53.16
710.277	53.41
710.461	53.5
710.644	53.54
710.828	53.14
711.011	53.81
711.195	54.66
711.378	54.81
711.562	55.36
711.745	56.05
711.928	56.19
712.112	55.84
712.295	55.24
712.478	55.64
712.662	55.78
712.845	55.78
713.028	55.25
713.212	55.17
713.395	55.28
713.578	55.37
713.761	54.63
713.945	54.58
714.128	55.08
714.311	55.69
714.494	54.62
714.677	54.84
714.86	54.9
715.043	55.06
715.227	54.37
715.41	54.54
715.593	54.59
715.776	54.82
715.959	54.94
716.142	55.35
716.325	54.76
716.508	55
716.691	54.37
716.874	54.54
717.057	54.18
717.239	54.73
717.422	54.09
717.605	53.52
717.788	53.22
717.971	53.9
718.154	53.41
718.337	54.14
718.519	54.53
718.702	54.53
718.885	54.24
719.068	54.8
719.25	55.47
719.433	55.98
719.616	56.09
719.798	56.49
719.981	56.16
720.164	55.72
720.346	55.55
720.529	55.55
720.712	55.62
720.894	56.12
721.077	56.1
721.259	55.34
721.442	55.36
721.624	56.16
721.807	55.49
721.989	55.1
722.172	55.97
722.354	55.89
722.537	55.8
722.719	56.26
722.901	56.79
723.084	57.08
723.266	56.67
723.448	57.67
723.631	57.87
723.813	58.78
723.995	58.55
724.178	57.92
724.36	58.37
724.542	58.52
724.724	58.55
724.907	57.83
725.089	58.12
725.271	59.25
725.453	57.81
725.635	57.53
725.817	57.85
725.999	58.39
726.181	58.93
726.364	59.25
726.546	58.59
726.728	58.47
726.91	57.51
727.092	56.49
727.274	56.13
727.456	57.19
727.638	55.83
727.819	55.12
728.001	54.47
728.183	53.94
728.365	52.88
728.547	53.4
728.729	53.75
728.911	54.62
729.093	55.07
729.274	54.39
729.456	53.93
729.638	54.5
729.82	55.42
730.001	55.87
730.183	56.1
730.365	56.04
730.546	56.04
730.728	55.52
730.91	56.22
731.091	56.63
731.273	56.76
731.455	57.08
731.636	57.53
731.818	57.2
731.999	56.97
732.181	57.78
732.362	58.53
732.544	59.29
732.725	59.04
732.907	58.1
733.088	58.21
733.27	58.77
733.451	58.18
733.633	58.35
733.814	58.24
733.995	58.33
734.177	57.66
734.358	57.05
734.539	55.61
734.721	56.27
734.902	56.25
735.083	55.84
735.264	56.31
735.446	56.55
735.627	56.52
735.808	56.67
735.989	56.52
736.17	56.61
736.351	56.88
736.533	57.06
736.714	56.93
736.895	56.72
737.076	56.46
737.257	55.73
737.438	55.36
737.619	54.45
737.8	54.08
737.981	54.52
738.162	54.32
738.343	55.1
738.524	55.89
738.705	55.92
738.886	56.95
739.067	57.53
739.247	57.25
739.428	58.05
739.609	58.87
739.79	58.68
739.971	58.1
740.151	59.17
740.332	58.16
740.513	57.79
740.694	56.71
740.874	56.13
741.055	55.95
741.236	56.01
741.417	55.71
741.597	55.58
741.778	56.43
741.958	56.61
742.139	55.38
742.32	55.97
742.5	56.28
742.681	57.49
742.861	57.69
743.042	57.05
743.222	56.94
743.403	57.5
743.583	57.89
743.764	58.09
743.944	58.77
744.124	59.3
744.305	59.49
744.485	59.94
744.666	59.53
744.846	60.13
745.026	60.98
745.207	61.77
745.387	62.18
745.567	61.68
745.747	60.82
745.928	60.09
746.108	60.3
746.288	59.76
746.468	58.18
746.648	58.36
746.829	58.2
747.009	58.31
747.189	57.96
747.369	56.75
747.549	57.27
747.729	57.09
747.909	57.44
748.089	56.56
748.269	57.1
748.449	59.04
748.629	58.61
748.809	58.11
748.989	57.63
749.169	57.12
749.349	58.08
749.529	57.71
749.709	58.44
749.889	58.19
750.068	59.01
750.248	59.07
750.428	57.73
750.608	57.34
750.788	57.77
750.967	57.79
751.147	58.44
751.327	57.98
751.507	58.4
751.686	58.87
751.866	59.04
752.046	57.93
752.225	57.72
752.405	58.59
752.585	59
752.764	59.18
752.944	58.71
753.123	59.15
753.303	58.48
753.482	58.39
753.662	57.23
753.841	57.22
754.021	57.7
754.2	57.1
754.38	56.93
754.559	57.45
754.739	55.7
754.918	56.7
755.097	55.51
755.277	55.8
755.456	55.3
755.635	55.46
755.815	55.69
755.994	55.37
756.173	55.12
756.352	55.02
756.532	54.94
756.711	56.49
756.89	57.05
757.069	57.04
757.248	56.05
757.427	55.89
757.607	56.73
757.786	57.61
757.965	57.61
758.144	58.89
758.323	58.92
758.502	58.74
758.681	57.62
758.86	56.48
759.039	57.7
759.218	58.86
759.397	58.42
759.576	57.84
759.755	57.04
759.934	56.87
760.113	57.41
760.291	56.9
760.47	57.7
760.649	57.65
760.828	57.53
761.007	57.54
761.186	57.56
761.364	58.76
761.543	59.59
761.722	58.3
761.901	58.17
762.079	56.97
762.258	57.35
762.437	56.48
762.615	57.5
762.794	57.91
762.972	57.72
763.151	57.07
763.33	56.09
763.508	54.59
763.687	55.01
763.865	54.93
764.044	54.29
764.222	53.52
764.401	53.6
764.579	53.59
764.758	53.22
764.936	53.12
765.114	54.02
765.293	54.54
765.471	54.99
765.65	55.16
765.828	55.96
766.006	57.32
766.184	59.81
766.363	60.5
766.541	59.45
766.719	60.47
766.898	60.24
767.076	59.38
767.254	60.42
767.432	60.33
767.61	60.94
767.788	61.44
767.967	60.77
768.145	58.95
768.323	58.03
768.501	59.39
768.679	59.04
768.857	58.54
769.035	59.76
769.213	58.6
769.391	59.64
769.569	58.29
769.747	57.53
769.925	57.48
770.103	58.32
770.281	59.37
770.459	59.07
770.636	58.13
770.814	57.84
770.992	57.45
771.17	57.02
771.348	55.64
771.525	57.04
771.703	57.02
771.881	57.36
772.059	57.29
772.236	56.37
772.414	56.82
772.592	58.1
772.769	59.66
772.947	60.67
773.125	61.88
773.302	63.57
773.48	64.77
773.657	65.33
773.835	65.49
774.013	67.14
774.19	67.39
774.368	69.06
774.545	69.58
774.723	69.02
774.9	67.91
775.077	66.76
775.255	66.66
775.432	65.52
775.61	63.14
775.787	64.29
775.964	60.61
776.142	60.51
776.319	58.5
776.496	56.77
776.674	56.09
776.851	55.03
777.028	57.15
777.205	56.76
777.382	56.88
777.56	58.35
777.737	60.38
777.914	61.43
778.091	60.91
778.268	60.44
778.445	61.56
778.622	61.38
778.8	62.27
778.977	60.33
779.154	66.52
779.331	65.49
779.508	64.93
779.685	62.89
779.862	64.42
780.038	64.55
780.215	64.72
780.392	65.15
780.569	66.96
780.746	66.09
780.923	67.09
781.1	62
781.277	63.02
781.453	63.8
781.63	61.82
781.807	62.25
781.984	62.04
782.16	62.34
782.337	60.65
782.514	60.41
782.691	61.6
782.867	62.52
783.044	60.78
783.221	60.11
783.397	60.26
783.574	61.66
783.75	59.39
783.927	60.02
784.103	60.44
784.28	62.52
784.456	61.59
784.633	61.39
784.809	59.89
784.986	59.96
785.162	58.18
785.339	59.08
785.515	60.1
785.692	60.73
785.868	62.11
786.044	61.58
786.221	59.01
786.397	58.34
786.573	58.75
786.749	58.69
786.926	59.01
787.102	60.78
787.278	60.53
787.454	59.84
787.631	61.19
787.807	59.21
787.983	60.51
788.159	62.18
788.335	62.96
788.511	62.72
788.687	62.93
788.863	64.06
789.039	64.65
789.216	64.06
789.392	63.72
789.568	63.05
789.744	64.17
789.919	63.24
790.095	62.54
790.271	62.47
790.447	61.63
790.623	61.61
790.799	60.8
790.975	61.67
791.151	62.31
791.327	63.33
791.502	62.08
791.678	62.66
791.854	63.22
792.03	62.73
792.205	64.13
792.381	64.26
792.557	65.26
792.733	64.7
792.908	63.93
793.084	64.22
793.259	66.03
793.435	67.98
793.611	66.36
793.786	65.52
793.962	66.56
794.137	64.93
794.313	66.89
794.488	66.55
794.664	68.26
794.839	68.64
795.015	66.27
795.19	61.85
795.366	61.36
795.541	61.34
795.716	61.62
795.892	62.01
796.067	62.61
796.242	60.92
796.418	60.78
796.593	59.32
796.768	59.23
796.944	62.06
797.119	62.42
797.294	62.97
797.469	64.05
797.644	63.43
797.82	62.22
797.995	61.69
798.17	63.49
798.345	64.39
798.52	65.38
798.695	64.92
798.87	63.42
799.045	65.79
799.22	66.62
799.395	65.38
799.57	67.86
799.745	67.58
799.92	68.39
800.095	69.28
800.27	67.81
800.445	68.49
800.62	67.6
800.795	69.49
800.97	70.3
801.145	68.08
801.319	71.45
801.494	68.9
801.669	69.44
801.844	69.01
802.018	65.95
802.193	65.51
802.368	64.27
802.543	66.15
802.717	65.87
802.892	61.7
803.067	62.52
803.241	60.79
803.416	60.28
803.59	60.21
803.765	58.44
803.94	61.51
804.114	61.41
804.289	63.13
804.463	62.83
804.638	63.02
804.812	65.74
804.986	64.63
805.161	64.32
805.335	66.55
805.51	66.23
805.684	66.46
805.858	64.25
806.033	64.57
806.207	65.31
806.381	64.44
806.556	62.91
806.73	64.3
806.904	64.68
807.078	66.42
807.253	66.26
807.427	66.24
807.601	67.36
807.775	68.86
807.949	68.55
808.123	67.53
808.298	67.66
808.472	69.57
808.646	69.01
808.82	69.52
808.994	66.26
809.168	66.35
809.342	67.59
809.516	68.25
809.69	68.46
809.864	70.54
810.038	71.51
810.212	72.73
810.385	71.96
810.559	73.78
810.733	73.59
810.907	74.47
811.081	73.02
811.255	73.96
811.428	74.55
811.602	75.97
811.776	77.12
811.95	75.28
812.123	74.18
812.297	74
812.471	69.54
812.644	69.43
812.818	71.15
812.992	70.97
813.165	69.37
813.339	69.25
813.512	66.12
813.686	63.9
813.86	62.16
814.033	60.69
814.207	60.06
814.38	61.7
814.554	60.8
814.727	61.03
814.9	64.85
815.074	66.45
815.247	68.06
815.421	66.47
815.594	67.89
815.767	70.24
815.941	70.4
816.114	74.24
816.287	74.68
816.46	73.8
816.634	71.37
816.807	70.88
816.98	71.55
817.153	69.7
817.327	72.43
817.5	73.85
817.673	72.2
817.846	75.93
818.019	70.31
818.192	71.9
818.365	73.71
818.538	75.54
818.711	72.46
818.884	72.25
819.057	70.97
819.23	69.03
819.403	65.73
819.576	64.14
819.749	62.75
819.922	64.09
820.095	63.02
820.268	64.36
820.441	62.6
820.614	63
820.786	61.34
820.959	61.65
821.132	60.82
821.305	59.12
821.477	58.87
821.65	57.79
821.823	57.43
821.996	56.39
822.168	55.47
822.341	55.52
822.514	54.18
822.686	54.19
822.859	53.73
823.031	53.28
823.204	53.85
823.376	53.8
823.549	53.4
823.722	53.44
823.894	54.08
824.067	53.87
824.239	53.85
824.411	54.38
824.584	54.51
824.756	54.78
824.929	54.98
825.101	54.61
825.273	54.89
825.446	54.92
825.618	54.55
825.79	53.82
825.963	54.15
826.135	53.38
826.307	53.89
826.479	53.34
826.652	53.19
826.824	53.56
826.996	53.96
827.168	53.85
827.34	54.2
827.512	54
827.684	53.44
827.856	53.67
828.029	54.7
828.201	54.23
828.373	54.62
828.545	54.8
828.717	55.48
828.889	55.63
829.061	55.91
829.232	56.38
829.404	56.95
829.576	57.96
829.748	57.22
829.92	57.9
830.092	59.59
830.264	58.61
830.436	59.04
830.607	58.73
830.779	58.29
830.951	59.03
831.123	59.57
831.294	59.92
831.466	60.96
831.638	63.19
831.809	63.82
831.981	62.72
832.153	64.8
832.324	64.39
832.496	62.14
832.667	62.58
832.839	65.54
833.011	65.94
833.182	68.44
833.354	67.21
833.525	66.44
833.697	63.82
833.868	63.79
834.039	64.54
834.211	64.74
834.382	65.36
834.554	65.93
834.725	64.58
834.896	63.44
835.068	60.76
835.239	60.4
835.41	61.91
835.581	63.99
835.753	62.93
835.924	61.46
836.095	60.65
836.266	61.93
836.438	60.42
836.609	59.85
836.78	59.68
836.951	62.01
837.122	62
837.293	61.43
837.464	63.36
837.635	65.32
837.806	66.84
837.977	68.24
838.148	69.39
838.319	71.97
838.49	72.25
838.661	71.86
838.832	67.38
839.003	69.61
839.174	70.12
839.345	65.94
839.516	65.62
839.687	70.17
839.857	74.02
840.028	74.06
840.199	76.81
840.37	76.79
840.54	80.1
840.711	81.8
840.882	80.27
841.053	77.06
841.223	77.1
841.394	80.6
841.564	77.74
841.735	75.61
841.906	74.96
842.076	72.46
842.247	72.99
842.417	73.24
842.588	73.12
842.758	73.48
842.929	75.64
843.099	73.44
843.27	68.14
843.44	67.62
843.611	70.13
843.781	67.2
843.951	65.19
844.122	63.74
844.292	62.79
844.462	68.43
844.633	69.14
844.803	71.92
844.973	73.83
845.144	78.32
845.314	78.44
845.484	75.81
845.654	81.88
845.824	87.77
845.995	87.87
846.165	94.75
846.335	94.3
846.505	106.07
846.675	102.13
846.845	101.06
847.015	102.96
847.185	107.26
847.355	105.81
847.525	103.71
847.695	106.89
847.865	105.02
848.035	91.95
848.205	97.48
848.375	93.18
848.545	88.7
848.715	89.76
848.884	83.04
849.054	79.4
849.224	88.2
849.394	90.5
849.564	87.32
849.733	89.82
849.903	94
850.073	86.59
850.243	81.93
850.412	83.83
850.582	83.02
850.752	86.19
850.921	86.86
851.091	78.84
851.26	79.35
851.43	79.26
851.599	80.55
851.769	80.23
851.939	84.89
852.108	85.82
852.278	90.4
852.447	93.53
852.616	96.22
852.786	92.78
852.955	103.42
853.125	104.11
853.294	104.42
853.463	101.05
853.633	101.25
853.802	99.41
853.971	105.02
854.141	103.58
854.31	101.12
854.479	95.42
854.648	94.82
854.818	87.92
854.987	86.74
855.156	90.3
855.325	97.66
855.494	110.14
855.663	115.08
855.832	116.9
856.001	117
856.171	118.62
856.34	129.58
856.509	136.09
856.678	133.87
856.847	135.46
857.016	127.65
857.185	126.78
857.353	128.51
857.522	130.16
857.691	117.55
857.86	123.77
858.029	129.29
858.198	139.42
858.367	138.86
858.535	150.7
858.704	153.7
858.873	154.94
859.042	139.41
859.21	137.45
859.379	128.9
859.548	143.24
859.717	134.06
859.885	137.82
860.054	115.62
860.222	110.97
860.391	105.51
860.56	102.21
860.728	104.01
860.897	109.3
861.065	100.19
861.234	95.49
861.402	89.5
861.571	92.18
861.739	94.27
861.908	110.97
862.076	115.79
862.244	114.11
862.413	107.56
862.581	107.01
862.749	104.31
862.918	113.65
863.086	110.36
863.254	104.19
863.423	104.91
863.591	93.49
863.759	90.36
863.927	89.28
864.096	94.92
864.264	102.81
864.432	104.86
864.6	107.4
864.768	114.14
864.936	118.01
865.104	125.87
865.272	131.83
865.44	146.41
865.608	135.08
865.776	137.67
865.944	130.8
866.112	133.6
866.28	138.58
866.448	129.54
866.616	116.05
866.784	119.81
866.952	110.25
867.12	108.86
867.288	102.16
867.455	101.65
867.623	106.65
867.791	105.46
867.959	98
868.127	90.76
868.294	99.66
868.462	98.89
868.63	83.75
868.797	86.93
868.965	83.61
869.133	89.49
869.3	105.65
869.468	96.59
869.636	108.52
869.803	108.64
869.971	108.07
870.138	108.32
870.306	108.84
870.473	120.67
870.641	122.6
870.808	125.9
870.975	123.48
871.143	114.36
871.31	109.45
871.478	100.28
871.645	99.81
871.812	105.21
871.98	110.98
872.147	112.22
872.314	111.46
872.482	107.56
872.649	104.75
872.816	108.96
872.983	114.88
873.15	127.05
873.318	129.9
873.485	134.46
873.652	138.32
873.819	145.46
873.986	135.36
874.153	131.33
874.32	125.69
874.487	123.23
874.654	112.19
874.821	109.22
874.988	101.18
875.155	101.52
875.322	106.14
875.489	97.61
875.656	81.44
875.823	94.14
875.99	97.85
876.157	104.79
876.324	109.49
876.49	116.24
876.657	116.56
876.824	110.72
876.991	106.26
877.157	106.33
877.324	113.24
877.491	117.23
877.658	109.2
877.824	106.44
877.991	104.07
878.157	103.56
878.324	106.91
878.491	113.05
878.657	115.68
878.824	100.72
878.99	88.3
879.157	88.83
879.323	88.06
879.49	85.11
879.656	87.71
879.823	92.66
879.989	99.69
880.156	101.25
880.322	95.68
880.488	94.79
880.655	112.71
880.821	120.16
880.987	112.78
881.154	107.34
881.32	119.18
881.486	109.76
881.652	102.96
881.819	92.7
881.985	87.56
882.151	84.27
882.317	79.59
882.483	74.72
882.649	68.96
882.816	66.37
882.982	64.67
883.148	61.4
883.314	62.49
883.48	62.84
883.646	61.48
883.812	60.96
883.978	60.41
884.144	61.59
884.31	61.51
884.476	62.18
884.642	61.71
884.807	62.82
884.973	61.2
885.139	60.48
885.305	59.47
885.471	59.99
885.637	60.04
885.802	59.18
885.968	60.7
886.134	61.98
886.3	64.64
886.465	67.41
886.631	70.78
886.797	76.25
886.962	80.07
887.128	84.72
887.293	88.32
887.459	92.36
887.625	97.82
887.79	97.88
887.956	100.13
888.121	100.45
888.287	100.17
888.452	94.71
888.618	94.46
888.783	88.48
