Data from LC_156_Reflection_1.txt Node
Date: Mon Nov 16 22:21:52 EST 2015
User: robert
Spectrometer: USB4E03001
Autoset integration time: false
Trigger mode: 4
Integration Time (sec): 1.000000E-1
Scans to average: 15
Electric dark correction enabled: true
Nonlinearity correction enabled: false
Boxcar width: 5
Stray light correction enabled: false
XAxis mode: Wavelengths
Stop averaging: false
Number of Pixels in Spectrum: 3648
>>>>>Begin Spectral Data<<<<<
177.566	-1018.07
177.785	113.85
178.005	666.39
178.225	-24.77
178.445	-239.75
178.665	894.86
178.885	120.17
179.105	-133.64
179.324	24.3
179.544	-65.16
179.764	-787.99
179.984	-160.94
180.204	-305.7
180.423	-187.23
180.643	-293.74
180.863	-204.84
181.083	-121.12
181.302	-250.78
181.522	-216.8
181.742	-185.86
181.961	-327.64
182.181	-223.78
182.401	-343.65
182.621	-1246.88
182.84	-718.33
183.06	-489.34
183.279	-306.15
183.499	-291.72
183.719	-232.96
183.938	-200.57
184.158	-191.74
184.377	-140.62
184.597	-237.58
184.816	-145.07
185.036	-107.56
185.256	-63.77
185.475	-77.98
185.695	-103.99
185.914	-173.1
186.134	-322.05
186.353	-525.49
186.572	-669.74
186.792	-1046.5
187.011	-382.07
187.231	-403.79
187.45	-300.11
187.67	-829.49
187.889	-2010.13
188.108	3483.12
188.328	-745.03
188.547	-274.7
188.766	-411.61
188.986	-662.64
189.205	-405.01
189.424	-315
189.644	-844.13
189.863	-904.35
190.082	-574.15
190.302	-1339.64
190.521	-704.52
190.74	688.83
190.959	287.66
191.178	414.88
191.398	351.06
191.617	311.8
191.836	287.92
192.055	524.06
192.274	223.82
192.494	244.06
192.713	211.12
192.932	628.97
193.151	678.26
193.37	1028.51
193.589	-763.43
193.808	-217.88
194.027	-259.39
194.246	-2963.13
194.465	587.23
194.685	1746.88
194.904	793.38
195.123	-1154.42
195.342	-752.98
195.561	-339.87
195.78	-582.74
195.999	23070.42
196.218	879.7
196.436	808.99
196.655	-2472.02
196.874	-1048.56
197.093	-1266.08
197.312	-1066.94
197.531	2819.96
197.75	826.21
197.969	-2443.26
198.188	-546.57
198.407	-160.45
198.625	-182.33
198.844	-154.32
199.063	-197.26
199.282	-286.47
199.501	-197.48
199.719	-144.31
199.938	-82.55
200.157	-88.52
200.376	-118.97
200.594	-177.94
200.813	-380.64
201.032	-242.96
201.251	-233.04
201.469	-188.22
201.688	-171.55
201.907	-334.37
202.125	-526.06
202.344	22394.05
202.563	4052.05
202.781	574.23
203	1738.79
203.218	1469.57
203.437	1397.22
203.656	646.21
203.874	370.13
204.093	353.04
204.311	418.07
204.53	400.71
204.748	539.39
204.967	318.56
205.185	328.85
205.404	375.95
205.622	228.62
205.841	171.48
206.059	191.97
206.278	239.48
206.496	523.99
206.715	298.76
206.933	229.75
207.151	237.67
207.37	307.25
207.588	322.01
207.806	290.16
208.025	612.6
208.243	-1078.17
208.461	1612.86
208.68	-13474.12
208.898	638.36
209.116	713.4
209.335	795.29
209.553	761.64
209.771	7572.5
209.989	1451.41
210.208	3032.51
210.426	-5049.15
210.644	2810.93
210.862	-2369.26
211.081	1167.61
211.299	-397.58
211.517	1262.32
211.735	-191.23
211.953	-95457.14
212.171	-873.19
212.39	-3209.01
212.608	-7884.78
212.826	462.73
213.044	322.77
213.262	312.78
213.48	1716.88
213.698	248.49
213.916	425.7
214.134	304.07
214.352	622.11
214.57	379.63
214.788	470.01
215.006	437.12
215.224	380.39
215.442	303.7
215.66	278.01
215.878	225.11
216.096	237.81
216.314	267.13
216.532	453.47
216.75	380.13
216.968	379.46
217.185	800.19
217.403	1286.2
217.621	-3251.54
217.839	-978.99
218.057	-1202.77
218.275	2219.51
218.492	649.43
218.71	893.28
218.928	288.26
219.146	240.65
219.363	212.53
219.581	164.67
219.799	126.89
220.017	134.35
220.234	134.33
220.452	152.72
220.67	160.96
220.887	179.26
221.105	219.86
221.323	182.68
221.54	195.88
221.758	255.82
221.976	298.82
222.193	285.24
222.411	183
222.629	184.87
222.846	180.55
223.064	190.65
223.281	159.61
223.499	129.85
223.716	135.19
223.934	100.04
224.151	103.8
224.369	89.03
224.586	94.71
224.804	99.2
225.021	93.47
225.239	84.53
225.456	86.61
225.674	101.54
225.891	101.13
226.108	113.75
226.326	117.46
226.543	91.84
226.76	84.97
226.978	73.39
227.195	79.14
227.413	62.27
227.63	58.84
227.847	50.52
228.064	41.43
228.282	36.78
228.499	29.21
228.716	26.29
228.934	25.77
229.151	26.8
229.368	26.73
229.585	24.8
229.802	26.24
230.02	23.51
230.237	24.67
230.454	26.23
230.671	28.14
230.888	30.88
231.105	32.89
231.323	35.47
231.54	34.9
231.757	36.91
231.974	37.1
232.191	36.01
232.408	47.05
232.625	48.44
232.842	50.51
233.059	49.96
233.276	47
233.493	43
233.71	42.21
233.927	44.55
234.144	38.38
234.361	34.14
234.578	37.93
234.795	30.77
235.012	31
235.229	29.93
235.446	27.67
235.663	26.64
235.879	30.56
236.096	26.31
236.313	22.14
236.53	27.02
236.747	33.88
236.964	32.81
237.181	31.94
237.397	34.68
237.614	37.58
237.831	36.44
238.048	41.73
238.264	43.11
238.481	44.15
238.698	47.21
238.915	43.62
239.131	39.58
239.348	39.59
239.565	38.32
239.781	36.9
239.998	31.5
240.215	28.68
240.431	22.67
240.648	18.03
240.865	19.21
241.081	16.92
241.298	18.35
241.514	17.84
241.731	16.79
241.947	17.92
242.164	16.38
242.38	16.74
242.597	17.55
242.814	19.09
243.03	20.02
243.246	19.15
243.463	20.01
243.679	20.23
243.896	17.59
244.112	17.7
244.329	16.86
244.545	18.14
244.762	17.32
244.978	18.46
245.194	17.32
245.411	16.41
245.627	16.21
245.843	16.72
246.06	16.32
246.276	17.76
246.492	17.21
246.709	16.76
246.925	16.15
247.141	15.39
247.357	14.45
247.574	14.36
247.79	14.51
248.006	13.84
248.222	13.51
248.439	13.03
248.655	13.09
248.871	12.73
249.087	12.75
249.303	12.19
249.519	14.78
249.736	15.56
249.952	14.88
250.168	16.23
250.384	17.8
250.6	17.66
250.816	17.96
251.032	17.88
251.248	16.63
251.464	16.04
251.68	16.65
251.896	15.11
252.112	14.87
252.328	16.02
252.544	16.32
252.76	16.57
252.976	15.59
253.192	15.67
253.408	15.76
253.624	20.08
253.84	21.26
254.056	22.42
254.272	21.28
254.487	22.34
254.703	22.06
254.919	19.53
255.135	18.63
255.351	20.52
255.567	21.91
255.782	23.21
255.998	18.75
256.214	18.57
256.43	15.08
256.646	17.68
256.861	18.15
257.077	17.19
257.293	17.37
257.508	16.77
257.724	18.37
257.94	17.87
258.155	16.3
258.371	15.79
258.587	14.25
258.802	15.23
259.018	14.63
259.234	13.27
259.449	13.12
259.665	12.62
259.88	13.11
260.096	12.09
260.312	11.1
260.527	11.23
260.743	11.54
260.958	11.76
261.174	11.48
261.389	11.43
261.605	12.44
261.82	12.75
262.036	13.13
262.251	14.19
262.466	14.25
262.682	16.62
262.897	16.32
263.113	16.38
263.328	17.02
263.543	18.15
263.759	18.67
263.974	16.67
264.189	16.97
264.405	18.31
264.62	17.22
264.835	18.5
265.051	17.1
265.266	18.19
265.481	18.66
265.696	19.58
265.912	18.03
266.127	15.18
266.342	14.53
266.557	14.44
266.773	13.56
266.988	12.97
267.203	13.08
267.418	12.9
267.633	12.4
267.848	13.16
268.064	11.55
268.279	12.31
268.494	12.34
268.709	13.7
268.924	13.91
269.139	13.47
269.354	11.85
269.569	10.61
269.784	10.35
269.999	10.76
270.214	9.18
270.429	11.17
270.644	10.3
270.859	11.43
271.074	11.6
271.289	10.94
271.504	11
271.719	12.65
271.934	12.69
272.149	11.93
272.363	11.83
272.578	10.13
272.793	9.22
273.008	8.88
273.223	8.05
273.438	7.54
273.653	8.1
273.867	8.76
274.082	8.13
274.297	8.54
274.512	9.12
274.726	8.08
274.941	11.07
275.156	11.52
275.371	12.43
275.585	13.13
275.8	13.44
276.015	12.41
276.229	11.48
276.444	11.96
276.659	12.76
276.873	13.6
277.088	15.52
277.302	14.92
277.517	15.41
277.732	16.23
277.946	16.44
278.161	17.73
278.375	18.4
278.59	18.87
278.804	19.02
279.019	17.62
279.233	16.33
279.448	15.82
279.662	16.33
279.877	16.16
280.091	15.35
280.306	14.58
280.52	13.53
280.735	11.88
280.949	11.89
281.163	11.39
281.378	10.47
281.592	9.85
281.806	9.88
282.021	8.33
282.235	8.67
282.449	8.77
282.664	9.21
282.878	8.95
283.092	10.52
283.307	9.87
283.521	10.12
283.735	11.2
283.949	13.18
284.164	12.8
284.378	14.4
284.592	12.99
284.806	12.73
285.02	13.03
285.234	12.44
285.449	12.31
285.663	12.85
285.877	12.46
286.091	12.17
286.305	11.33
286.519	10.3
286.733	8.82
286.947	9.04
287.161	8.9
287.375	9.42
287.589	10.23
287.803	10.79
288.017	11.48
288.231	11.64
288.445	12.33
288.659	13.03
288.873	13.23
289.087	14.25
289.301	14.91
289.515	14.5
289.729	13.81
289.943	13.69
290.157	13.11
290.371	13.38
290.584	13.41
290.798	13.77
291.012	13.48
291.226	12.91
291.44	13.45
291.654	13.66
291.867	14.06
292.081	13.45
292.295	13.57
292.509	13.68
292.722	11.75
292.936	12.26
293.15	12.4
293.364	11.6
293.577	13.13
293.791	11.61
294.005	12.17
294.218	12.12
294.432	13.2
294.645	12.41
294.859	11.85
295.073	12.83
295.286	12.43
295.5	11.22
295.713	11.46
295.927	10.79
296.14	11.05
296.354	9.56
296.568	9.46
296.781	9.05
296.994	8.73
297.208	8.77
297.421	8.65
297.635	8.05
297.848	8.19
298.062	7.99
298.275	8.93
298.489	8.73
298.702	8.95
298.915	10.13
299.129	10.03
299.342	10.89
299.555	11.11
299.769	10.55
299.982	11.26
300.195	11.24
300.409	11.67
300.622	11.59
300.835	12.82
301.048	13.18
301.262	11.79
301.475	11.92
301.688	12.52
301.901	12.95
302.115	13.09
302.328	13.54
302.541	13.48
302.754	14.23
302.967	14.87
303.18	14.86
303.393	14.61
303.607	15.07
303.82	15.55
304.033	14.6
304.246	14.71
304.459	15.02
304.672	14.81
304.885	16.21
305.098	14.58
305.311	12.93
305.524	11.99
305.737	12.76
305.95	13.93
306.163	12.33
306.376	12.03
306.589	10.77
306.802	10.75
307.015	11.56
307.228	11.36
307.44	12.19
307.653	12.79
307.866	12.04
308.079	13.07
308.292	12.26
308.505	14.06
308.718	14.73
308.93	14.77
309.143	15.9
309.356	15.65
309.569	14.77
309.781	15.09
309.994	14.58
310.207	15.91
310.42	14.77
310.632	13.72
310.845	13.2
311.058	12.42
311.27	12.97
311.483	11.99
311.696	11.43
311.908	11.22
312.121	11.02
312.333	12.4
312.546	11.97
312.759	12.42
312.971	12.93
313.184	13.36
313.396	14.24
313.609	14.29
313.821	14.05
314.034	14
314.246	13.94
314.459	14.29
314.671	13.51
314.884	13.21
315.096	11.69
315.309	10.26
315.521	10.02
315.733	9.11
315.946	8.33
316.158	8.98
316.371	8.6
316.583	9.79
316.795	8.54
317.008	8.74
317.22	10.12
317.432	11.36
317.644	12.93
317.857	11.77
318.069	11.98
318.281	12.57
318.494	12.66
318.706	13.85
318.918	11.99
319.13	13.69
319.342	14.11
319.555	14.37
319.767	14.08
319.979	13.41
320.191	14.49
320.403	15.01
320.615	15.19
320.827	15.1
321.039	14.2
321.252	15.22
321.464	14.01
321.676	13.86
321.888	12.04
322.1	12.6
322.312	12
322.524	10.86
322.736	10.63
322.948	10.26
323.16	10.44
323.372	11.15
323.584	11.16
323.796	10.03
324.007	9.15
324.219	9.61
324.431	8.87
324.643	9.55
324.855	10.61
325.067	10.83
325.279	10.7
325.491	10.67
325.702	9.97
325.914	9.76
326.126	12.34
326.338	12.38
326.55	12.8
326.761	13.37
326.973	13.47
327.185	12.98
327.396	12.82
327.608	14.12
327.82	14.8
328.032	14.83
328.243	15.17
328.455	14.21
328.666	14.62
328.878	14.19
329.09	13.71
329.301	13.44
329.513	13.56
329.725	13.17
329.936	12.28
330.148	12.12
330.359	11.96
330.571	12.09
330.782	11.51
330.994	12.04
331.205	12.99
331.417	13.43
331.628	14.47
331.84	15.21
332.051	15.3
332.262	15.58
332.474	14.17
332.685	15.2
332.897	14.77
333.108	15.09
333.319	14.02
333.531	13.19
333.742	13.79
333.953	12.94
334.165	11.95
334.376	12.23
334.587	12.36
334.799	13.37
335.01	12.22
335.221	11.8
335.432	11.39
335.644	11.36
335.855	11.37
336.066	11.26
336.277	11.75
336.488	13.03
336.7	12.76
336.911	12.11
337.122	11.09
337.333	11.92
337.544	13.52
337.755	13.88
337.966	13.39
338.177	13.61
338.388	13.75
338.599	14.73
338.811	13.93
339.022	13.88
339.233	14.23
339.444	14.75
339.655	13.72
339.866	12.53
340.076	12.95
340.287	14.47
340.498	14.09
340.709	13.93
340.92	12.46
341.131	12.52
341.342	12.76
341.553	12.93
341.764	13.38
341.975	14.67
342.185	14.58
342.396	14.32
342.607	13.83
342.818	14.22
343.029	13.63
343.239	13.94
343.45	13.81
343.661	13.57
343.872	13.17
344.082	12.54
344.293	12.31
344.504	12.83
344.714	12.02
344.925	11.54
345.136	10.93
345.346	11.58
345.557	11.98
345.768	11.96
345.978	11.91
346.189	12.74
346.399	12.55
346.61	12.59
346.821	12.27
347.031	13.14
347.242	13.07
347.452	13.52
347.663	12.41
347.873	13.04
348.084	12.54
348.294	12.82
348.504	12.25
348.715	12.37
348.925	12.11
349.136	11.26
349.346	10.47
349.557	10.9
349.767	11.05
349.977	11.18
350.188	10.16
350.398	10.82
350.608	10.69
350.819	9.72
351.029	9.65
351.239	9.62
351.449	9.96
351.66	10.08
351.87	10.41
352.08	9.26
352.29	9.58
352.501	9.18
352.711	9.64
352.921	9.96
353.131	10.72
353.341	10.61
353.552	10.18
353.762	10.68
353.972	10.91
354.182	10.9
354.392	11.63
354.602	11.35
354.812	12.05
355.022	11.66
355.232	11.16
355.442	11.85
355.652	12.66
355.862	12.87
356.072	13.16
356.282	12.64
356.492	12.45
356.702	12.21
356.912	12.59
357.122	12.02
357.332	11.71
357.542	11.86
357.752	11.14
357.962	10.92
358.171	10.59
358.381	10.58
358.591	10.45
358.801	10.05
359.011	10.29
359.221	10.03
359.43	10.49
359.64	11.21
359.85	10.98
360.06	10.85
360.269	10.51
360.479	10.64
360.689	10.14
360.899	10.39
361.108	10.52
361.318	10.52
361.528	10.33
361.737	10.11
361.947	9.18
362.156	9.28
362.366	9.11
362.576	9.23
362.785	9.16
362.995	8.72
363.204	9.07
363.414	9.18
363.623	9.02
363.833	9.76
364.042	9.72
364.252	10.07
364.461	10.02
364.671	10.22
364.88	10.26
365.09	10.39
365.299	11.13
365.509	10.39
365.718	9.75
365.927	9.47
366.137	8.95
366.346	8.65
366.555	8.69
366.765	8.54
366.974	8.85
367.183	8.61
367.393	8.3
367.602	7.9
367.811	8.38
368.021	8.55
368.23	8.58
368.439	8.14
368.648	8.21
368.857	8.55
369.067	8.65
369.276	8.32
369.485	9.03
369.694	9.67
369.903	10.28
370.112	10.2
370.321	10.25
370.531	10.19
370.74	10.26
370.949	10.16
371.158	10.09
371.367	10.55
371.576	10.62
371.785	10.27
371.994	9.69
372.203	9.56
372.412	9.41
372.621	9.71
372.83	9.93
373.039	10.42
373.248	10.55
373.457	10.33
373.666	9.66
373.874	9.73
374.083	9.36
374.292	9.7
374.501	9.36
374.71	9.13
374.919	9.08
375.128	9.19
375.336	8.8
375.545	8.87
375.754	8.52
375.963	8.67
376.171	8.21
376.38	8.58
376.589	8.57
376.798	8.32
377.006	8.44
377.215	8.74
377.424	8.65
377.632	8.65
377.841	8.55
378.05	8.61
378.258	8.47
378.467	8.37
378.675	8.33
378.884	8.15
379.093	8.25
379.301	8.12
379.51	7.79
379.718	7.47
379.927	7.56
380.135	7.15
380.344	7.11
380.552	7.11
380.761	7.23
380.969	7.15
381.177	7.04
381.386	6.78
381.594	6.86
381.803	6.71
382.011	7.01
382.219	6.93
382.428	6.66
382.636	6.72
382.845	7.08
383.053	7.25
383.261	6.76
383.469	6.78
383.678	7.09
383.886	6.94
384.094	6.92
384.302	6.97
384.511	7.24
384.719	7.81
384.927	7.76
385.135	7.65
385.343	7.59
385.552	8.05
385.76	7.77
385.968	7.72
386.176	7.44
386.384	7.41
386.592	7.02
386.8	6.59
387.008	6.7
387.216	6.86
387.424	6.52
387.633	6.74
387.841	6.29
388.049	6.32
388.257	6.4
388.465	6.7
388.672	6.62
388.88	6.54
389.088	6.53
389.296	6.38
389.504	6.28
389.712	6.48
389.92	6.16
390.128	6.3
390.336	6.49
390.544	6.68
390.751	6.23
390.959	6.34
391.167	6.5
391.375	6.74
391.583	6.5
391.79	6.25
391.998	5.98
392.206	6.18
392.414	6.02
392.621	5.95
392.829	5.72
393.037	5.96
393.244	6.04
393.452	6.23
393.66	5.93
393.867	6.11
394.075	6.4
394.283	6.64
394.49	6.39
394.698	6.57
394.905	6.36
395.113	6.35
395.32	6.53
395.528	6.25
395.735	5.81
395.943	5.93
396.15	5.81
396.358	5.51
396.565	5.34
396.773	5.64
396.98	5.58
397.188	5.76
397.395	5.82
397.602	5.64
397.81	5.64
398.017	6.03
398.225	5.98
398.432	6.06
398.639	6.4
398.847	6.44
399.054	6.01
399.261	5.84
399.468	5.9
399.676	5.67
399.883	5.68
400.09	5.78
400.297	5.6
400.505	5.64
400.712	5.68
400.919	5.74
401.126	5.74
401.333	5.94
401.54	5.84
401.748	5.74
401.955	5.89
402.162	6.01
402.369	5.89
402.576	5.98
402.783	6.19
402.99	6.07
403.197	5.76
403.404	5.41
403.611	5.63
403.818	6.1
404.025	6
404.232	5.78
404.439	5.65
404.646	5.49
404.853	5.23
405.06	5.01
405.267	4.83
405.474	5.05
405.681	5.24
405.887	5.15
406.094	5.03
406.301	5.11
406.508	5.39
406.715	5.52
406.922	5.79
407.128	5.84
407.335	5.89
407.542	6.04
407.749	5.96
407.955	6.27
408.162	6.18
408.369	6.15
408.575	6.09
408.782	5.76
408.989	5.65
409.195	5.44
409.402	5.68
409.609	5.72
409.815	5.73
410.022	5.8
410.228	5.66
410.435	5.83
410.642	5.65
410.848	5.79
411.055	5.93
411.261	6.02
411.468	6.3
411.674	6.15
411.881	5.95
412.087	6.12
412.294	5.95
412.5	5.9
412.706	5.78
412.913	5.67
413.119	5.64
413.326	5.44
413.532	5.63
413.738	5.29
413.945	5.66
414.151	5.89
414.357	5.92
414.564	5.97
414.77	6.06
414.976	5.74
415.182	5.9
415.389	5.69
415.595	5.76
415.801	5.48
416.007	5.75
416.214	5.67
416.42	5.54
416.626	5.29
416.832	5.33
417.038	5.24
417.244	5.32
417.45	5.16
417.657	5.41
417.863	5.67
418.069	5.66
418.275	5.66
418.481	5.44
418.687	5.41
418.893	5.5
419.099	5.39
419.305	5.52
419.511	5.64
419.717	5.79
419.923	5.6
420.129	5.45
420.335	5.63
420.541	5.59
420.746	5.59
420.952	5.72
421.158	5.64
421.364	5.6
421.57	5.61
421.776	5.58
421.982	5.56
422.187	5.51
422.393	5.48
422.599	5.26
422.805	5.2
423.01	5.14
423.216	4.93
423.422	4.98
423.628	5.08
423.833	5.05
424.039	5.09
424.245	5.11
424.45	5.32
424.656	5.38
424.862	5.4
425.067	5.51
425.273	5.48
425.478	5.67
425.684	5.64
425.889	5.78
426.095	5.81
426.301	5.82
426.506	5.76
426.712	5.78
426.917	5.65
427.123	5.75
427.328	5.73
427.533	5.9
427.739	5.81
427.944	6
428.15	5.74
428.355	5.62
428.561	5.52
428.766	5.5
428.971	5.38
429.177	5.61
429.382	5.73
429.587	5.65
429.793	5.5
429.998	5.67
430.203	5.42
430.408	5.5
430.614	5.64
430.819	5.63
431.024	5.83
431.229	5.73
431.434	5.66
431.64	5.51
431.845	5.62
432.05	5.79
432.255	5.64
432.46	5.68
432.665	5.65
432.87	5.58
433.076	5.6
433.281	5.64
433.486	5.65
433.691	5.5
433.896	5.46
434.101	5.45
434.306	5.43
434.511	5.48
434.716	5.53
434.921	5.54
435.126	5.29
435.331	5.29
435.535	5.14
435.74	5.31
435.945	5.56
436.15	5.63
436.355	5.57
436.56	5.59
436.765	5.62
436.97	5.49
437.174	5.54
437.379	5.69
437.584	5.61
437.789	5.54
437.993	5.51
438.198	5.46
438.403	5.61
438.608	5.7
438.812	5.56
439.017	5.5
439.222	5.54
439.426	5.53
439.631	5.59
439.836	5.57
440.04	5.69
440.245	5.68
440.45	5.5
440.654	5.29
440.859	5.13
441.063	5.15
441.268	5.11
441.472	5.16
441.677	5.05
441.881	4.89
442.086	4.92
442.29	4.79
442.495	4.76
442.699	4.86
442.904	4.91
443.108	5.1
443.312	5.12
443.517	5.06
443.721	5.06
443.925	5.23
444.13	5.43
444.334	5.41
444.538	5.35
444.743	5.26
444.947	5.09
445.151	5.07
445.356	4.92
445.56	4.98
445.764	4.99
445.968	4.87
446.173	4.82
446.377	4.73
446.581	4.77
446.785	4.79
446.989	4.87
447.193	5.03
447.398	5.06
447.602	5.11
447.806	5.22
448.01	5.37
448.214	5.53
448.418	5.49
448.622	5.53
448.826	5.5
449.03	5.66
449.234	5.67
449.438	5.71
449.642	5.71
449.846	5.71
450.05	5.58
450.254	5.47
450.458	5.57
450.662	5.63
450.866	5.66
451.069	5.56
451.273	5.39
451.477	5.19
451.681	5.01
451.885	4.83
452.089	4.96
452.292	4.97
452.496	4.93
452.7	4.75
452.904	4.82
453.107	4.98
453.311	5.19
453.515	5.21
453.719	5.32
453.922	5.46
454.126	5.56
454.33	5.54
454.533	5.43
454.737	5.42
454.94	5.5
455.144	5.51
455.348	5.28
455.551	5.23
455.755	4.95
455.958	5.1
456.162	4.98
456.365	5.1
456.569	4.88
456.772	4.9
456.976	4.96
457.179	4.93
457.383	4.76
457.586	4.87
457.79	4.78
457.993	5.01
458.196	4.69
458.4	4.73
458.603	4.76
458.807	4.8
459.01	4.99
459.213	4.89
459.417	4.8
459.62	4.93
459.823	4.84
460.026	4.91
460.23	5
460.433	5.12
460.636	5.19
460.839	5.19
461.042	5.33
461.246	5.27
461.449	5.42
461.652	5.58
461.855	5.45
462.058	5.55
462.261	5.36
462.464	5.26
462.668	5.37
462.871	5.31
463.074	5.26
463.277	4.85
463.48	4.96
463.683	4.79
463.886	4.85
464.089	5.02
464.292	5.03
464.495	5.23
464.698	5.2
464.901	5.12
465.104	5.09
465.306	5.17
465.509	5.5
465.712	5.33
465.915	5.38
466.118	5.21
466.321	5.08
466.524	5.29
466.726	5.42
466.929	5.53
467.132	5.56
467.335	5.64
467.538	5.33
467.74	5.29
467.943	5.39
468.146	5.37
468.348	5.42
468.551	5.37
468.754	5.18
468.956	4.88
469.159	4.97
469.362	4.99
469.564	4.79
469.767	5.01
469.969	4.94
470.172	4.72
470.375	4.79
470.577	4.85
470.78	4.93
470.982	4.85
471.185	5.01
471.387	5.01
471.59	4.86
471.792	5.01
471.995	4.95
472.197	4.92
472.399	4.97
472.602	4.73
472.804	4.67
473.007	4.7
473.209	4.7
473.411	4.65
473.614	4.52
473.816	4.66
474.018	4.7
474.22	4.85
474.423	4.96
474.625	4.97
474.827	5.13
475.03	5.12
475.232	5.19
475.434	5.2
475.636	5.34
475.838	5.4
476.04	5.37
476.243	5.35
476.445	5.28
476.647	5.23
476.849	5.19
477.051	5.21
477.253	5.2
477.455	5.08
477.657	5.16
477.859	5.11
478.061	5.02
478.263	4.95
478.465	4.84
478.667	4.9
478.869	4.74
479.071	4.81
479.273	4.86
479.475	4.76
479.677	4.85
479.879	4.69
480.081	4.69
480.283	4.71
480.485	4.69
480.686	4.71
480.888	4.74
481.09	4.89
481.292	4.91
481.494	4.9
481.695	4.96
481.897	4.85
482.099	4.85
482.301	4.77
482.502	4.73
482.704	4.75
482.906	4.78
483.107	4.66
483.309	4.61
483.511	4.63
483.712	4.58
483.914	4.53
484.115	4.53
484.317	4.54
484.519	4.52
484.72	4.53
484.922	4.5
485.123	4.52
485.325	4.56
485.526	4.6
485.728	4.55
485.929	4.54
486.131	4.6
486.332	4.65
486.534	4.6
486.735	4.71
486.936	4.68
487.138	4.71
487.339	4.62
487.541	4.59
487.742	4.6
487.943	4.62
488.144	4.65
488.346	4.57
488.547	4.54
488.748	4.65
488.95	4.54
489.151	4.61
489.352	4.64
489.553	4.67
489.755	4.73
489.956	4.67
490.157	4.71
490.358	4.75
490.559	4.86
490.76	4.87
490.961	4.81
491.163	4.84
491.364	4.87
491.565	4.82
491.766	4.84
491.967	4.83
492.168	4.82
492.369	4.84
492.57	4.79
492.771	4.77
492.972	4.74
493.173	4.78
493.374	4.75
493.575	4.69
493.776	4.74
493.976	4.8
494.177	4.93
494.378	5.08
494.579	4.97
494.78	5.16
494.981	5.16
495.182	5.24
495.382	5.11
495.583	5.1
495.784	5.12
495.985	5.14
496.185	5.19
496.386	4.91
496.587	4.96
496.788	5.01
496.988	5
497.189	5.09
497.39	5.24
497.59	5.4
497.791	5.43
497.992	5.38
498.192	5.43
498.393	5.39
498.593	5.5
498.794	5.31
498.994	5.28
499.195	5.14
499.395	5.19
499.596	5.11
499.796	4.97
499.997	4.9
500.197	4.99
500.398	4.95
500.598	4.96
500.799	4.9
500.999	5.04
501.199	5.02
501.4	5.06
501.6	4.94
501.801	4.97
502.001	5.05
502.201	5.3
502.402	5.2
502.602	5.06
502.802	5.06
503.002	5.19
503.203	5.2
503.403	5.22
503.603	5.28
503.803	5.39
504.003	5.39
504.204	5.41
504.404	5.44
504.604	5.48
504.804	5.78
505.004	5.85
505.204	5.83
505.404	5.86
505.604	6.04
505.804	5.97
506.005	5.89
506.205	5.8
506.405	5.94
506.605	5.87
506.805	5.9
507.005	5.76
507.204	5.75
507.404	5.68
507.604	5.66
507.804	5.54
508.004	5.66
508.204	5.6
508.404	5.62
508.604	5.5
508.804	5.49
509.003	5.45
509.203	5.46
509.403	5.36
509.603	5.39
509.803	5.51
510.002	5.6
510.202	5.56
510.402	5.58
510.602	5.68
510.801	5.74
511.001	5.8
511.201	5.74
511.4	5.72
511.6	5.87
511.8	5.83
511.999	5.95
512.199	5.9
512.398	5.89
512.598	5.99
512.797	6.07
512.997	6.06
513.197	6.03
513.396	6.3
513.596	6.39
513.795	6.44
513.994	6.62
514.194	6.45
514.393	6.56
514.593	6.62
514.792	6.7
514.992	6.66
515.191	6.61
515.39	6.6
515.59	6.55
515.789	6.61
515.988	6.53
516.188	6.43
516.387	6.38
516.586	6.25
516.786	6.27
516.985	6.18
517.184	6.15
517.383	6.34
517.582	6.4
517.782	6.41
517.981	6.3
518.18	6.24
518.379	6.26
518.578	6.35
518.777	6.45
518.976	6.33
519.176	6.44
519.375	6.46
519.574	6.34
519.773	6.32
519.972	6.23
520.171	6.26
520.37	6.38
520.569	6.48
520.768	6.33
520.967	6.4
521.166	6.55
521.365	6.49
521.564	6.67
521.762	6.74
521.961	6.75
522.16	6.82
522.359	6.79
522.558	6.8
522.757	6.8
522.956	6.99
523.154	6.82
523.353	6.88
523.552	6.88
523.751	6.85
523.949	6.87
524.148	6.98
524.347	7.05
524.546	7.08
524.744	6.95
524.943	6.98
525.142	6.95
525.34	7.16
525.539	7.18
525.737	7.27
525.936	7.19
526.135	7.15
526.333	7
526.532	6.99
526.73	7.11
526.929	7.11
527.127	7.03
527.326	7.01
527.524	6.92
527.723	6.95
527.921	6.94
528.12	6.96
528.318	7
528.516	7.09
528.715	7.08
528.913	7.05
529.112	7.12
529.31	7.15
529.508	7.18
529.707	7.18
529.905	7.2
530.103	7.22
530.301	7.24
530.5	7.26
530.698	7.32
530.896	7.37
531.094	7.48
531.293	7.52
531.491	7.59
531.689	7.71
531.887	7.86
532.085	7.9
532.283	7.89
532.481	7.93
532.68	7.93
532.878	7.9
533.076	7.93
533.274	7.88
533.472	7.93
533.67	7.91
533.868	7.87
534.066	7.81
534.264	7.73
534.462	7.81
534.66	7.75
534.858	7.78
535.056	7.78
535.253	7.78
535.451	7.82
535.649	7.79
535.847	7.94
536.045	7.96
536.243	8.06
536.441	8.14
536.638	8.15
536.836	8.25
537.034	8.29
537.232	8.38
537.43	8.48
537.627	8.52
537.825	8.55
538.023	8.45
538.22	8.63
538.418	8.63
538.616	8.69
538.813	8.76
539.011	8.84
539.209	8.93
539.406	8.86
539.604	8.97
539.801	9.02
539.999	9.15
540.196	9.26
540.394	9.2
540.591	9.26
540.789	9.27
540.986	9.13
541.184	9.12
541.381	9.15
541.579	9.2
541.776	9.14
541.974	9.11
542.171	9.1
542.368	9.1
542.566	9.09
542.763	9.14
542.96	9.16
543.158	9.31
543.355	9.37
543.552	9.46
543.75	9.57
543.947	9.52
544.144	9.58
544.341	9.61
544.539	9.71
544.736	9.77
544.933	9.74
545.13	9.8
545.327	9.79
545.524	9.85
545.722	9.84
545.919	9.81
546.116	10.02
546.313	10.09
546.51	10.15
546.707	10.18
546.904	10.22
547.101	10.26
547.298	10.31
547.495	10.25
547.692	10.18
547.889	10.15
548.086	10.25
548.283	10.27
548.48	10.3
548.677	10.3
548.874	10.28
549.07	10.39
549.267	10.42
549.464	10.47
549.661	10.71
549.858	10.91
550.055	11.1
550.251	11.03
550.448	10.99
550.645	10.89
550.842	11.19
551.038	11.17
551.235	11.09
551.432	11.08
551.628	11.11
551.825	11.26
552.022	11.22
552.218	11.25
552.415	11.2
552.612	11.27
552.808	11.36
553.005	11.15
553.201	11.43
553.398	11.48
553.594	11.48
553.791	11.57
553.987	11.52
554.184	11.75
554.38	11.73
554.577	11.85
554.773	12.06
554.97	12.19
555.166	12.29
555.362	12.11
555.559	12.34
555.755	12.65
555.952	12.61
556.148	12.72
556.344	12.53
556.541	12.5
556.737	12.65
556.933	12.67
557.129	12.58
557.326	12.65
557.522	12.75
557.718	12.69
557.914	12.48
558.11	12.55
558.307	12.33
558.503	12.56
558.699	12.73
558.895	13.05
559.091	12.97
559.287	12.97
559.483	12.96
559.679	13.05
559.876	13.09
560.072	13.24
560.268	13.26
560.464	13.48
560.66	13.35
560.856	13.33
561.052	13.28
561.247	13.52
561.443	13.69
561.639	13.91
561.835	13.81
562.031	13.89
562.227	13.98
562.423	14.08
562.619	14.17
562.815	14.38
563.01	14.58
563.206	14.4
563.402	14.27
563.598	14.23
563.793	14.21
563.989	14.38
564.185	14.36
564.381	14.47
564.576	14.38
564.772	14.47
564.968	14.58
565.163	14.4
565.359	14.36
565.555	14.41
565.75	14.54
565.946	14.59
566.141	14.48
566.337	14.62
566.532	14.7
566.728	14.94
566.923	14.85
567.119	14.66
567.314	14.78
567.51	14.95
567.705	14.98
567.901	15.16
568.096	15.3
568.292	15.42
568.487	15.35
568.682	15.31
568.878	15.32
569.073	15.4
569.268	15.52
569.464	15.66
569.659	15.76
569.854	15.93
570.05	15.81
570.245	15.72
570.44	15.85
570.635	15.94
570.831	15.92
571.026	16.06
571.221	16.17
571.416	16.1
571.611	16.05
571.806	15.98
572.002	15.99
572.197	16.05
572.392	16.12
572.587	16.23
572.782	16.3
572.977	16.43
573.172	16.37
573.367	16.3
573.562	16.39
573.757	16.33
573.952	16.45
574.147	16.56
574.342	16.88
574.537	16.98
574.732	16.95
574.927	16.95
575.121	16.87
575.316	16.83
575.511	16.92
575.706	16.98
575.901	17.24
576.096	17.35
576.29	17.37
576.485	17.21
576.68	17.24
576.875	17.21
577.069	17.26
577.264	17.41
577.459	17.71
577.654	17.85
577.848	17.94
578.043	17.96
578.238	17.76
578.432	17.6
578.627	17.56
578.821	17.65
579.016	17.76
579.21	17.92
579.405	17.92
579.6	17.91
579.794	17.9
579.989	17.87
580.183	17.99
580.378	18.41
580.572	18.55
580.766	18.42
580.961	18.36
581.155	18.39
581.35	18.21
581.544	18.15
581.738	17.92
581.933	17.98
582.127	18.26
582.321	18.06
582.516	17.79
582.71	18.09
582.904	18.39
583.099	18.3
583.293	18.51
583.487	18.8
583.681	19.03
583.875	19.1
584.07	19.46
584.264	19.14
584.458	19.36
584.652	19.44
584.846	19.12
585.04	19.18
585.234	19.29
585.428	19.19
585.623	19.18
585.817	19.16
586.011	19.37
586.205	19.25
586.399	19.66
586.593	19.54
586.787	19.72
586.981	19.86
587.174	19.78
587.368	19.74
587.562	19.9
587.756	19.93
587.95	19.94
588.144	19.95
588.338	19.99
588.532	19.85
588.725	20.08
588.919	20.08
589.113	20.08
589.307	20.17
589.501	20.12
589.694	20.06
589.888	20.04
590.082	19.93
590.275	20.05
590.469	20.01
590.663	19.89
590.856	19.84
591.05	19.85
591.244	19.91
591.437	20.1
591.631	20.21
591.824	20.12
592.018	20.24
592.212	20.21
592.405	20.08
592.599	20.1
592.792	20.22
592.986	20.38
593.179	20.4
593.372	20.52
593.566	20.43
593.759	20.54
593.953	20.78
594.146	20.66
594.339	20.91
594.533	21.08
594.726	21.11
594.92	21.19
595.113	21.08
595.306	20.86
595.499	20.84
595.693	20.84
595.886	20.84
596.079	21.07
596.272	21.13
596.466	21.29
596.659	21.27
596.852	21.31
597.045	21.41
597.238	21.31
597.431	21.65
597.624	21.53
597.818	21.52
598.011	21.43
598.204	21.1
598.397	21.32
598.59	21.07
598.783	21.17
598.976	20.88
599.169	20.85
599.362	21.16
599.555	21.37
599.748	21.73
599.941	21.68
600.134	21.95
600.326	22.18
600.519	22.17
600.712	22.24
600.905	22.25
601.098	22.91
601.291	23.12
601.483	22.93
601.676	22.73
601.869	22.52
602.062	22.71
602.255	22.43
602.447	22.44
602.64	22.36
602.833	22.66
603.025	22.46
603.218	22.27
603.411	22.14
603.603	22.25
603.796	22.19
603.989	22.23
604.181	22.36
604.374	22.5
604.566	22.46
604.759	22.4
604.951	22.26
605.144	22.26
605.336	22.23
605.529	22.1
605.721	22.04
605.914	21.99
606.106	21.98
606.299	21.86
606.491	22.07
606.683	22.15
606.876	22.08
607.068	22.16
607.26	22.39
607.453	22.49
607.645	22.71
607.837	22.82
608.03	23.09
608.222	23.15
608.414	23.37
608.606	23.4
608.799	23.49
608.991	23.6
609.183	23.72
609.375	23.63
609.567	23.63
609.759	23.76
609.952	23.67
610.144	23.54
610.336	23.62
610.528	23.34
610.72	23.27
610.912	23.12
611.104	23.39
611.296	23.27
611.488	23.26
611.68	23.21
611.872	23.1
612.064	23.4
612.256	23.32
612.448	23.4
612.64	23.46
612.832	23.44
613.023	23.53
613.215	23.35
613.407	23.27
613.599	23.52
613.791	23.65
613.983	23.5
614.174	23.38
614.366	23.55
614.558	23.41
614.75	23.35
614.941	23.42
615.133	23.53
615.325	23.63
615.516	23.79
615.708	23.5
615.9	23.35
616.091	23.32
616.283	23.34
616.475	23.21
616.666	23.37
616.858	23.83
617.049	23.54
617.241	23.39
617.432	23.41
617.624	23.37
617.815	23.51
618.007	23.94
618.198	24.22
618.39	24.09
618.581	24.1
618.773	24.13
618.964	23.86
619.155	24.17
619.347	24.19
619.538	24.11
619.729	24.27
619.921	24.17
620.112	23.79
620.303	23.77
620.494	23.81
620.686	23.97
620.877	23.9
621.068	23.89
621.259	23.93
621.451	23.95
621.642	23.88
621.833	23.97
622.024	24.19
622.215	24.59
622.406	24.68
622.597	24.98
622.788	24.88
622.98	24.75
623.171	24.88
623.362	24.93
623.553	25.49
623.744	25.55
623.935	25.51
624.126	25.53
624.317	25.22
624.508	25.4
624.698	25.13
624.889	25.25
625.08	25.53
625.271	25.54
625.462	25.42
625.653	25.1
625.844	25.36
626.034	25.2
626.225	25.17
626.416	25.13
626.607	25.12
626.798	25.45
626.988	25.54
627.179	25.25
627.37	25.06
627.56	25.22
627.751	25.14
627.942	24.91
628.132	24.81
628.323	25.02
628.514	25.37
628.704	25.19
628.895	25.04
629.085	25.05
629.276	25.43
629.466	25.68
629.657	25.63
629.847	25.63
630.038	25.86
630.228	26.25
630.419	26.05
630.609	25.91
630.8	25.84
630.99	25.6
631.181	25.76
631.371	25.89
631.561	26.01
631.752	26.23
631.942	26.31
632.132	26.26
632.323	26.11
632.513	26.17
632.703	26.13
632.893	26.33
633.084	26.58
633.274	26.47
633.464	26.13
633.654	26.22
633.844	25.98
634.034	25.9
634.225	25.79
634.415	25.82
634.605	25.87
634.795	25.89
634.985	25.92
635.175	25.98
635.365	25.9
635.555	26.14
635.745	25.81
635.935	25.9
636.125	26.15
636.315	26.19
636.505	26.28
636.695	26.09
636.885	26.03
637.075	26.16
637.265	25.96
637.455	26.08
637.644	25.86
637.834	26.15
638.024	26.23
638.214	26.25
638.404	26.12
638.593	26.31
638.783	26.55
638.973	27.18
639.163	26.97
639.352	27.31
639.542	27.58
639.732	27.98
639.921	28.01
640.111	28.08
640.301	27.98
640.49	27.92
640.68	27.82
640.87	27.9
641.059	27.67
641.249	27.95
641.438	27.92
641.628	27.37
641.817	27.04
642.007	27.21
642.196	26.93
642.386	27.38
642.575	27.87
642.764	27.74
642.954	27.65
643.143	27.76
643.333	27.47
643.522	27.53
643.711	28.22
643.901	28.14
644.09	27.99
644.279	28.09
644.469	27.68
644.658	27.59
644.847	27.6
645.036	27.78
645.226	27.33
645.415	27.39
645.604	27.38
645.793	26.98
645.982	27
646.171	27.18
646.361	27.6
646.55	27.92
646.739	28.03
646.928	27.87
647.117	27.64
647.306	27.48
647.495	27.9
647.684	27.96
647.873	28.35
648.062	28.66
648.251	28.45
648.44	28.18
648.629	27.89
648.818	27.79
649.007	27.85
649.196	28.24
649.384	28.82
649.573	28.55
649.762	28.32
649.951	27.94
650.14	27.95
650.328	28.09
650.517	28.33
650.706	28.49
650.895	28.81
651.083	29.06
651.272	28.6
651.461	28.45
651.65	28.74
651.838	29.02
652.027	28.91
652.216	28.85
652.404	29.08
652.593	28.94
652.781	28.97
652.97	28.79
653.158	28.95
653.347	29.58
653.535	29.37
653.724	28.94
653.912	28.95
654.101	29.55
654.289	29.42
654.478	29.4
654.666	29.51
654.855	29.08
655.043	28.89
655.231	28.67
655.42	28.39
655.608	28.57
655.796	28.82
655.985	29.07
656.173	28.69
656.361	28.81
656.55	28.58
656.738	28.32
656.926	28.63
657.114	29.02
657.302	29.23
657.491	28.93
657.679	28.48
657.867	28.47
658.055	28.31
658.243	28.35
658.431	28.47
658.619	28.51
658.807	28.95
658.996	29.19
659.184	28.95
659.372	28.94
659.56	29.28
659.748	29.49
659.936	29.59
660.124	29.42
660.311	29.75
660.499	29.87
660.687	29.86
660.875	29.68
661.063	29.58
661.251	29.68
661.439	29.63
661.627	29.29
661.814	29.45
662.002	29.4
662.19	29.45
662.378	29.12
662.565	29.35
662.753	29.47
662.941	29.49
663.129	29.49
663.316	29.58
663.504	29.1
663.692	29.52
663.879	29.64
664.067	29.83
664.254	30.08
664.442	29.85
664.63	29.41
664.817	29.67
665.005	29.74
665.192	30.03
665.38	30.1
665.567	30.49
665.755	30.51
665.942	30.75
666.13	30.89
666.317	30.78
666.504	30.99
666.692	31.41
666.879	31.09
667.067	30.85
667.254	30.25
667.441	30.03
667.629	30.3
667.816	30
668.003	29.41
668.19	29.36
668.378	29.22
668.565	29.59
668.752	29.22
668.939	28.96
669.127	29.14
669.314	29.39
669.501	29.35
669.688	29.38
669.875	29.42
670.062	30.08
670.249	30.1
670.436	30.05
670.623	29.5
670.81	29.75
670.997	30.05
671.184	30.19
671.371	30.66
671.558	30.85
671.745	30.92
671.932	30.73
672.119	30.19
672.306	30.01
672.493	30.2
672.68	30.79
672.867	31.13
673.054	31.54
673.24	31.49
673.427	31.03
673.614	31.26
673.801	31.71
673.988	32.36
674.174	32.84
674.361	32.99
674.548	33.23
674.734	33.33
674.921	32.51
675.108	32.71
675.294	32.29
675.481	32.76
675.668	32.52
675.854	31.85
676.041	31.85
676.227	31.81
676.414	31.91
676.601	31.98
676.787	31.66
676.974	32.11
677.16	31.9
677.347	32.45
677.533	32.07
677.719	32.23
677.906	32.13
678.092	31.97
678.279	31.87
678.465	31.57
678.651	31.65
678.838	31.73
679.024	31.67
679.21	31.45
679.397	31.5
679.583	31.57
679.769	31.94
679.955	31.82
680.142	31.66
680.328	32.11
680.514	32.09
680.7	31.62
680.886	31.86
681.073	31.75
681.259	31.58
681.445	31.54
681.631	31.55
681.817	31.07
682.003	31.38
682.189	31.27
682.375	30.75
682.561	30.66
682.747	31.08
682.933	30.83
683.119	30.88
683.305	31.09
683.491	30.92
683.677	31.02
683.863	31.2
684.049	31.07
684.235	31.25
684.42	31.3
684.606	31.51
684.792	31.48
684.978	31.43
685.164	31.51
685.349	31.83
685.535	31.99
685.721	31.83
685.907	31.43
686.092	31.59
686.278	32.01
686.464	32
686.649	31.92
686.835	32.01
687.021	32.57
687.206	32.94
687.392	32.43
687.577	32.57
687.763	32.47
687.948	32.69
688.134	32.8
688.319	32.8
688.505	33.06
688.69	33.32
688.876	33.28
689.061	33.09
689.247	33.07
689.432	33.43
689.618	33.28
689.803	33.35
689.988	33.41
690.174	33.63
690.359	33.48
690.544	33.11
690.73	33.42
690.915	33.23
691.1	32.91
691.285	32.98
691.471	32.79
691.656	32.86
691.841	32.72
692.026	32.96
692.211	33.01
692.396	33.08
692.582	33.76
692.767	33.49
692.952	33.51
693.137	33.56
693.322	33.5
693.507	33.54
693.692	33.5
693.877	33.52
694.062	33.7
694.247	33.52
694.432	34.09
694.617	34.19
694.802	34.42
694.987	34.65
695.172	34.58
695.357	35.06
695.541	35.14
695.726	35.16
695.911	35.77
696.096	35.25
696.281	35.55
696.466	34.86
696.65	34.39
696.835	33.96
697.02	33.79
697.204	33.65
697.389	32.81
697.574	32.86
697.759	32.98
697.943	32.67
698.128	32.99
698.312	32.69
698.497	32.82
698.682	32.66
698.866	33.23
699.051	33.11
699.235	33.19
699.42	33.72
699.604	33.71
699.789	33.43
699.973	33.62
700.158	33.52
700.342	33.37
700.527	33.58
700.711	33.91
700.895	33.19
701.08	33.35
701.264	33.68
701.448	33.46
701.633	33.7
701.817	34.19
702.001	34.39
702.186	34.66
702.37	35.16
702.554	34.99
702.738	34.69
702.923	34.74
703.107	35.46
703.291	35.45
703.475	34.89
703.659	34.53
703.843	34.55
704.027	34.23
704.212	33.92
704.396	33.67
704.58	33.5
704.764	33.49
704.948	33.49
705.132	32.62
705.316	32.49
705.5	33.14
705.684	33.94
705.868	33.42
706.052	33.92
706.235	33.86
706.419	34.24
706.603	33.86
706.787	34.14
706.971	34.97
707.155	35.4
707.339	35.36
707.522	35.23
707.706	33.98
707.89	34.21
708.074	33.61
708.257	34.25
708.441	34.27
708.625	34.65
708.808	34.6
708.992	34.09
709.176	33.78
709.359	33.86
709.543	34.06
709.727	34.68
709.91	34.9
710.094	35.03
710.277	34.73
710.461	33.84
710.644	33.47
710.828	33.51
711.011	33.66
711.195	34.34
711.378	34.67
711.562	34.98
711.745	35.06
711.928	35.08
712.112	34.95
712.295	34.84
712.478	35.25
712.662	36.45
712.845	36.27
713.028	35.79
713.212	35.6
713.395	35.08
713.578	34.91
713.761	34.91
713.945	34.83
714.128	34.84
714.311	35.18
714.494	35.45
714.677	35.01
714.86	34.95
715.043	35.72
715.227	35.29
715.41	35.72
715.593	35.92
715.776	35.71
715.959	35.64
716.142	36.37
716.325	35.95
716.508	36.5
716.691	36.35
716.874	36.5
717.057	36.39
717.239	36.62
717.422	36.18
717.605	35.93
717.788	35.9
717.971	36.56
718.154	36.2
718.337	36.66
718.519	36.54
718.702	37.15
718.885	37.16
719.068	37.02
719.25	37.44
719.433	37.93
719.616	37.54
719.798	37.3
719.981	37.58
720.164	37.95
720.346	38.29
720.529	38.32
720.712	38.1
720.894	38.39
721.077	38.53
721.259	38.28
721.442	38.27
721.624	38.07
721.807	39.2
721.989	38
722.172	37.63
722.354	37.02
722.537	36.91
722.719	36.23
722.901	37.18
723.084	37.13
723.266	36.85
723.448	36.72
723.631	37.18
723.813	36.74
723.995	36.65
724.178	36.21
724.36	36.54
724.542	36.31
724.724	37.08
724.907	37.13
725.089	36.54
725.271	37.56
725.453	37.35
725.635	38.11
725.817	38.05
725.999	38.75
726.181	38.78
726.364	38.28
726.546	38.09
726.728	37.77
726.91	36.62
727.092	36.72
727.274	35.92
727.456	36.44
727.638	35.13
727.819	35.13
728.001	35
728.183	35.62
728.365	36.36
728.547	36.5
728.729	36.83
728.911	37.54
729.093	37.94
729.274	36.77
729.456	36.18
729.638	36.48
729.82	36.69
730.001	36.67
730.183	36.57
730.365	36.23
730.546	36.42
730.728	35.83
730.91	35.34
731.091	35.04
731.273	36.46
731.455	36.85
731.636	36.94
731.818	37.21
731.999	37.17
732.181	36.69
732.362	36.92
732.544	37.43
732.725	37.38
732.907	37.49
733.088	38.16
733.27	38.51
733.451	37.91
733.633	38.73
733.814	38.66
733.995	39.21
734.177	40.05
734.358	39.96
734.539	39.58
734.721	39.48
734.902	39.07
735.083	38.5
735.264	38.39
735.446	39.71
735.627	38.72
735.808	38.41
735.989	37.71
736.17	37.91
736.351	37.28
736.533	36.87
736.714	36.83
736.895	37.39
737.076	37.69
737.257	38.07
737.438	36.85
737.619	38.06
737.8	38.4
737.981	38.9
738.162	38.58
738.343	39.6
738.524	39.32
738.705	39.38
738.886	39.52
739.067	38.9
739.247	38.46
739.428	38.91
739.609	38.11
739.79	38.4
739.971	37.66
740.151	37.94
740.332	37.96
740.513	38.14
740.694	39.9
740.874	39.94
741.055	40.73
741.236	39.91
741.417	41.13
741.597	40.66
741.778	40.47
741.958	40.87
742.139	40.85
742.32	41.02
742.5	41.08
742.681	40.1
742.861	39.1
743.042	38.93
743.222	39.48
743.403	38.52
743.583	39.17
743.764	38.77
743.944	39.05
744.124	38.43
744.305	37.43
744.485	37.95
744.666	37.28
744.846	38.08
745.026	38.68
745.207	38.23
745.387	37.6
745.567	38.25
745.747	37.85
745.928	38.82
746.108	40.11
746.288	40.05
746.468	39.64
746.648	40.44
746.829	40.67
747.009	40.16
747.189	40.83
747.369	41.29
747.549	39.87
747.729	40.7
747.909	39.07
748.089	38.16
748.269	38.58
748.449	39.22
748.629	38.62
748.809	38.73
748.989	38.71
749.169	39.09
749.349	38.56
749.529	39.46
749.709	39.15
749.889	39.97
750.068	39.47
750.248	40.37
750.428	39.78
750.608	40.31
750.788	39.52
750.967	39.18
751.147	38.59
751.327	39.38
751.507	39.41
751.686	39.54
751.866	39.58
752.046	40.26
752.225	39.25
752.405	39.9
752.585	39.55
752.764	40.28
752.944	40.67
753.123	40.82
753.303	41.25
753.482	41.82
753.662	41.74
753.841	40.74
754.021	40.95
754.2	40.69
754.38	39.71
754.559	39.82
754.739	39.02
754.918	38.36
755.097	38.18
755.277	37.71
755.456	37.3
755.635	37.01
755.815	38.15
755.994	37.18
756.173	36.7
756.352	36.68
756.532	36.5
756.711	37.04
756.89	37.48
757.069	37.24
757.248	36.87
757.427	36.06
757.607	36.56
757.786	37.26
757.965	37.01
758.144	38.28
758.323	39.49
758.502	39.59
758.681	39.32
758.86	39.68
759.039	40.26
759.218	40.34
759.397	41.5
759.576	40.86
759.755	39.97
759.934	40.72
760.113	40.53
760.291	39.79
760.47	40
760.649	40.29
760.828	39.31
761.007	39.25
761.186	39.28
761.364	38.44
761.543	38.5
761.722	38.16
761.901	38
762.079	37.31
762.258	37.15
762.437	36.99
762.615	36.31
762.794	37.41
762.972	37.07
763.151	37.04
763.33	37.54
763.508	37.88
763.687	37.28
763.865	37.11
764.044	37.4
764.222	37.82
764.401	38.01
764.579	38.25
764.758	37.72
764.936	38.25
765.114	38.52
765.293	38.36
765.471	38.75
765.65	39.79
765.828	39.78
766.006	40.53
766.184	39.89
766.363	39.79
766.541	40.11
766.719	40.95
766.898	40.82
767.076	41.14
767.254	41.52
767.432	41.92
767.61	42.2
767.788	42.92
767.967	41.65
768.145	41.81
768.323	40.54
768.501	41.08
768.679	39.71
768.857	39.83
769.035	40.06
769.213	39.87
769.391	39.26
769.569	38.83
769.747	39.08
769.925	39.81
770.103	40.6
770.281	43.13
770.459	43.77
770.636	45.27
770.814	44.51
770.992	43.19
771.17	42.41
771.348	41.73
771.525	42.64
771.703	41.77
771.881	42.57
772.059	42.38
772.236	40.77
772.414	38.79
772.592	38.11
772.769	37.52
772.947	36.68
773.125	36.49
773.302	36.2
773.48	36.17
773.657	36.36
773.835	35.4
774.013	35.57
774.19	36.55
774.368	37.59
774.545	38.03
774.723	39.12
774.9	40.35
775.077	41.07
775.255	42.43
775.432	42.06
775.61	42.42
775.787	43.02
775.964	43.8
776.142	44.27
776.319	44.6
776.496	43.97
776.674	43.12
776.851	44.12
777.028	44.02
777.205	44.79
777.382	44.55
777.56	44.22
777.737	47.1
777.914	46.6
778.091	44.77
778.268	45.12
778.445	45.61
778.622	47.36
778.8	46.54
778.977	46.77
779.154	50.95
779.331	50.19
779.508	51.19
779.685	47.34
779.862	47.35
780.038	48.52
780.215	49.16
780.392	49.14
780.569	47.38
780.746	49.36
780.923	49.84
781.1	44.99
781.277	45.73
781.453	44.99
781.63	44.99
781.807	43.53
781.984	43.48
782.16	43.12
782.337	42.25
782.514	43.3
782.691	43.39
782.867	42.38
783.044	41.28
783.221	41.6
783.397	41.83
783.574	41.68
783.75	45.94
783.927	45.97
784.103	45.79
784.28	47.12
784.456	46.51
784.633	44.02
784.809	45.8
784.986	46.6
785.162	45.34
785.339	43.87
785.515	44.27
785.692	40.42
785.868	40.29
786.044	38.28
786.221	39.64
786.397	39.19
786.573	39.4
786.749	37.21
786.926	38.58
787.102	38.02
787.278	38.84
787.454	40.09
787.631	41.4
787.807	41.39
787.983	42.23
788.159	39.08
788.335	41.58
788.511	41.49
788.687	43.61
788.863	42.47
789.039	45.03
789.216	45.66
789.392	45.86
789.568	45.61
789.744	47.46
789.919	47.03
790.095	47.5
790.271	47.41
790.447	47.71
790.623	46.32
790.799	47.25
790.975	45.29
791.151	45.12
791.327	45.85
791.502	45.39
791.678	43.96
791.854	44.81
792.03	46.45
792.205	46.33
792.381	46.05
792.557	47.05
792.733	45.49
792.908	46.68
793.084	47.53
793.259	46.69
793.435	46.12
793.611	46.15
793.786	45.64
793.962	45.67
794.137	44.5
794.313	44.65
794.488	44.36
794.664	46.56
794.839	45.08
795.015	45.42
795.19	44.9
795.366	46.59
795.541	47.2
795.716	47.37
795.892	48.03
796.067	47.88
796.242	47.98
796.418	46.32
796.593	44.43
796.768	45.78
796.944	45.42
797.119	44.72
797.294	45.1
797.469	44.57
797.644	46.46
797.82	45.97
797.995	45.66
798.17	44
798.345	45.32
798.52	45.15
798.695	45.01
798.87	43.92
799.045	45.93
799.22	44.97
799.395	44.28
799.57	42.66
799.745	43.16
799.92	43
800.095	45.5
800.27	46.31
800.445	46.4
800.62	45.48
800.795	48.99
800.97	48.2
801.145	48.71
801.319	51.06
801.494	50.55
801.669	49.5
801.844	52.24
802.018	49.85
802.193	48.76
802.368	48.96
802.543	48.5
802.717	46.89
802.892	44.45
803.067	44.13
803.241	42.52
803.416	44.42
803.59	44.85
803.765	42.82
803.94	45.78
804.114	46.06
804.289	47.7
804.463	47.14
804.638	44.42
804.812	48.64
804.986	47.6
805.161	47.93
805.335	48.11
805.51	48.16
805.684	48.43
805.858	47.54
806.033	44.49
806.207	43.78
806.381	47.02
806.556	48.94
806.73	47.36
806.904	48.49
807.078	47.69
807.253	46.63
807.427	47.05
807.601	47.16
807.775	46.37
807.949	50.6
808.123	51.49
808.298	50.06
808.472	50
808.646	49.07
808.82	48.52
808.994	49.55
809.168	50.64
809.342	50.35
809.516	51.21
809.69	51.35
809.864	48.86
810.038	48.18
810.212	47.99
810.385	47.51
810.559	49.69
810.733	49.54
810.907	47.6
811.081	47.09
811.255	46.73
811.428	45.53
811.602	47.86
811.776	50.27
811.95	49.89
812.123	52.03
812.297	53.28
812.471	51.93
812.644	51.53
812.818	55.41
812.992	54.99
813.165	56.54
813.339	56.66
813.512	53.78
813.686	51.54
813.86	52.14
814.033	50.79
814.207	51.65
814.38	51.44
814.554	51.4
814.727	47.84
814.9	49.36
815.074	49.02
815.247	50.61
815.421	49.85
815.594	51.87
815.767	50.11
815.941	52.98
816.114	51.43
816.287	54.29
816.46	53.59
816.634	55.51
816.807	56.34
816.98	56.37
817.153	54.82
817.327	55.55
817.5	56.97
817.673	59.92
817.846	55.02
818.019	55.74
818.192	54.11
818.365	55.45
818.538	56.18
818.711	51.23
818.884	51.79
819.057	50.6
819.23	51.99
819.403	49.4
819.576	48.96
819.749	49.11
819.922	48.03
820.095	46.56
820.268	46.31
820.441	45.67
820.614	46.86
820.786	45.29
820.959	45.28
821.132	42.62
821.305	42.47
821.477	41.2
821.65	41.6
821.823	41.29
821.996	40.54
822.168	39.36
822.341	38.91
822.514	38.52
822.686	38.47
822.859	37.94
823.031	37.97
823.204	38.32
823.376	38.3
823.549	37.92
823.722	37.43
823.894	37.84
824.067	38.15
824.239	38.64
824.411	39.33
824.584	39.53
824.756	40.12
824.929	41.3
825.101	41.29
825.273	41.76
825.446	42.41
825.618	42.8
825.79	42.8
825.963	43.18
826.135	42.41
826.307	41.78
826.479	41.65
826.652	41.19
826.824	39.61
826.996	39.02
827.168	38.48
827.34	38.37
827.512	39.28
827.684	39.19
827.856	39.09
828.029	39.91
828.201	39.71
828.373	39.21
828.545	40.07
828.717	41.18
828.889	41.69
829.061	42.88
829.232	43.97
829.404	43.17
829.576	43.94
829.748	44.64
829.92	46.05
830.092	47.51
830.264	49.04
830.436	49.53
830.607	50.92
830.779	51.46
830.951	49.32
831.123	47.66
831.294	47.78
831.466	47.73
831.638	47.96
831.809	46.98
831.981	48.21
832.153	47.09
832.324	46.39
832.496	45.56
832.667	46.02
832.839	47.95
833.011	47.09
833.182	46.37
833.354	45.8
833.525	46.47
833.697	44.06
833.868	41.27
834.039	42.84
834.211	43.23
834.382	42.63
834.554	43.49
834.725	42.98
834.896	43.78
835.068	44.3
835.239	45.26
835.41	45.17
835.581	46.34
835.753	45.96
835.924	44.73
836.095	44.46
836.266	45.21
836.438	43.85
836.609	44.08
836.78	44.8
836.951	45.88
837.122	43.43
837.293	42.24
837.464	42.87
837.635	46.68
837.806	48.66
837.977	52.05
838.148	54.21
838.319	53.77
838.49	54.18
838.661	54.06
838.832	55.29
839.003	56.53
839.174	55.53
839.345	52.95
839.516	53.61
839.687	54.59
839.857	50.92
840.028	49.4
840.199	50.73
840.37	53.05
840.54	55.94
840.711	50.84
840.882	55.27
841.053	57.5
841.223	57.69
841.394	54.67
841.564	53.29
841.735	54.2
841.906	49.94
842.076	43.03
842.247	44.42
842.417	40.93
842.588	45.35
842.758	42.88
842.929	44.11
843.099	48.18
843.27	50.34
843.44	50.77
843.611	49.79
843.781	51.08
843.951	58.76
844.122	57.31
844.292	56.91
844.462	58.3
844.633	59.47
844.803	58.19
844.973	56.26
845.144	55.33
845.314	59.41
845.484	59.73
845.654	66.15
845.824	67.11
845.995	68.77
846.165	69.59
846.335	66.42
846.505	63.53
846.675	67.47
846.845	70.72
847.015	72.44
847.185	67.12
847.355	66.46
847.525	65.62
847.695	70.56
847.865	67.06
848.035	63.71
848.205	63.54
848.375	70.93
848.545	55.28
848.715	53.5
848.884	53.01
849.054	54.81
849.224	64.78
849.394	63.62
849.564	59.44
849.733	61.23
849.903	63.45
850.073	75.32
850.243	67.4
850.412	74.72
850.582	73.86
850.752	75.13
850.921	72.92
851.091	68.22
851.26	71.53
851.43	73.91
851.599	73.76
851.769	71.1
851.939	59.47
852.108	63.35
852.278	67.93
852.447	65.98
852.616	66.54
852.786	64.89
852.955	65.94
853.125	72.28
853.294	66.47
853.463	56.05
853.633	59.94
853.802	62.12
853.971	70.64
854.141	70.58
854.31	68.41
854.479	62.96
854.648	66.64
854.818	64.79
854.987	54.36
855.156	59.37
855.325	70.06
855.494	73.98
855.663	69.92
855.832	61.42
856.001	62.92
856.171	62.48
856.34	63.87
856.509	67.71
856.678	65.21
856.847	69.19
857.016	66.11
857.185	58.58
857.353	64.9
857.522	71.81
857.691	68.74
857.86	65.86
858.029	59.96
858.198	70.79
858.367	69.44
858.535	71.67
858.704	75.49
858.873	75.14
859.042	88.82
859.21	85.74
859.379	76.9
859.548	79.91
859.717	83.98
859.885	89.5
860.054	73.67
860.222	66.28
860.391	76.19
860.56	60.62
860.728	58.1
860.897	38.9
861.065	36.67
861.234	51.74
861.402	49.17
861.571	48.16
861.739	53.45
861.908	57.87
862.076	70.49
862.244	63.75
862.413	70.69
862.581	77.67
862.749	82.83
862.918	78.65
863.086	68.87
863.254	79.09
863.423	85.52
863.591	96.37
863.759	91.28
863.927	84.02
864.096	78.49
864.264	81.01
864.432	78.08
864.6	79.46
864.768	80.14
864.936	83.86
865.104	74.84
865.272	71.17
865.44	72.92
865.608	72.39
865.776	74.2
865.944	74.3
866.112	71.8
866.28	74.98
866.448	74.71
866.616	77.42
866.784	76.63
866.952	79.45
867.12	81.61
867.288	77.86
867.455	72.57
867.623	77.85
867.791	77.82
867.959	79.72
868.127	74.27
868.294	74.07
868.462	71.79
868.63	67.96
868.797	62.86
868.965	60.02
869.133	54.38
869.3	66.7
869.468	56.4
869.636	43.23
869.803	43.18
869.971	39.32
870.138	39.36
870.306	42.13
870.473	56.7
870.641	63.82
870.808	65.12
870.975	70.97
871.143	68.7
871.31	72.55
871.478	87.36
871.645	78.54
871.812	76.44
871.98	82.34
872.147	84.28
872.314	76.6
872.482	70.09
872.649	69.78
872.816	64.71
872.983	61.97
873.15	53.97
873.318	56.74
873.485	73.21
873.652	79.85
873.819	88.92
873.986	101.54
874.153	112.33
874.32	115.59
874.487	117.95
874.654	113.92
874.821	117.33
874.988	123.32
875.155	122.76
875.322	115.86
875.489	129.76
875.656	114.5
875.823	91.98
875.99	78.56
876.157	81.3
876.324	78.35
876.49	77.05
876.657	69.28
876.824	65.37
876.991	64.07
877.157	63.27
877.324	65.39
877.491	62.61
877.658	71.33
877.824	73.81
877.991	73.5
878.157	68.78
878.324	65.23
878.491	70.23
878.657	77.95
878.824	74.2
878.99	73.35
879.157	73.71
879.323	72.87
879.49	71.73
879.656	78.83
879.823	77.38
879.989	77.86
880.156	80.91
880.322	76.55
880.488	73.91
880.655	77.5
880.821	77.58
880.987	77.65
881.154	70.29
881.32	74.7
881.486	66.23
881.652	65.24
881.819	64.84
881.985	59.62
882.151	60.67
882.317	60.3
882.483	55.65
882.649	55.03
882.816	50.92
882.982	50.35
883.148	46.68
883.314	45.8
883.48	45.63
883.646	44.21
883.812	42.94
883.978	41.82
884.144	39.91
884.31	38.54
884.476	39.75
884.642	40.12
884.807	42.22
884.973	41.87
885.139	42.67
885.305	43.09
885.471	44.73
885.637	46.38
885.802	47.3
885.968	48.94
886.134	52.34
886.3	49.58
886.465	49.45
886.631	48.36
886.797	51.05
886.962	49.05
887.128	49.88
887.293	48.03
887.459	53.37
887.625	54.32
887.79	54.1
887.956	50.68
888.121	54.13
888.287	54.87
888.452	57.61
888.618	54.76
888.783	64.73
