Data from LC_169_Reflection_3.txt Node
Date: Mon Nov 16 23:09:52 EST 2015
User: robert
Spectrometer: USB4E03001
Autoset integration time: false
Trigger mode: 4
Integration Time (sec): 1.000000E-1
Scans to average: 15
Electric dark correction enabled: true
Nonlinearity correction enabled: false
Boxcar width: 5
Stray light correction enabled: false
XAxis mode: Wavelengths
Stop averaging: false
Number of Pixels in Spectrum: 3648
>>>>>Begin Spectral Data<<<<<
177.566	4014.46
177.785	299.84
178.005	-3147.06
178.225	195.99
178.445	186.2
178.665	177.05
178.885	512.61
179.105	1171.03
179.324	1268.22
179.544	-229.83
179.764	-1234.85
179.984	-392.21
180.204	-379.71
180.423	-518.07
180.643	-672.28
180.863	-454.2
181.083	-408.19
181.302	-490.66
181.522	-403.2
181.742	-351.12
181.961	-623.85
182.181	-549.65
182.401	-799.34
182.621	-2937.96
182.84	-1206.27
183.06	-789.91
183.279	-489.16
183.499	-340.51
183.719	-301.4
183.938	-318.25
184.158	-368.11
184.377	-237.24
184.597	-338.08
184.816	-195.3
185.036	-144.85
185.256	-134.81
185.475	-172.35
185.695	-244.59
185.914	-374.38
186.134	-652.74
186.353	-867.25
186.572	-1193.08
186.792	-1934
187.011	-886.9
187.231	-800.95
187.45	-596.52
187.67	-1456.9
187.889	-3600.63
188.108	6131.86
188.328	-1624.44
188.547	-602.65
188.766	-1076.52
188.986	-1306.72
189.205	-911.29
189.424	-591.44
189.644	-1843.54
189.863	-1860.79
190.082	-1202.57
190.302	-2948.16
190.521	-1865.3
190.74	1749.26
190.959	740.87
191.178	1005.56
191.398	936.36
191.617	779.82
191.836	712.85
192.055	1672.5
192.274	707.62
192.494	849.94
192.713	864.25
192.932	2026.2
193.151	1767.22
193.37	3304.42
193.589	-2107.73
193.808	-616.43
194.027	-833.17
194.246	-6836.87
194.465	1188.4
194.685	3026.97
194.904	1309.4
195.123	-1927.21
195.342	-1087.86
195.561	-419.29
195.78	-713.54
195.999	28961.97
196.218	996.84
196.436	908.61
196.655	-3634.54
196.874	-1397.58
197.093	-2007.27
197.312	-1720.97
197.531	3835.17
197.75	1294.78
197.969	-4603.07
198.188	-946.99
198.407	-250.22
198.625	-318.48
198.844	-277.76
199.063	-264.44
199.282	-434.85
199.501	-322.51
199.719	-234.49
199.938	-174.82
200.157	-168.32
200.376	-208.81
200.594	-278.39
200.813	-601.65
201.032	-394.59
201.251	-353.16
201.469	-356.99
201.688	-307.14
201.907	-510.86
202.125	-747.9
202.344	25841.67
202.563	4971.35
202.781	738.62
203	2390.28
203.218	1738.51
203.437	1594.68
203.656	782.12
203.874	425.72
204.093	407.31
204.311	480.22
204.53	456.84
204.748	728.2
204.967	463.32
205.185	535.28
205.404	530.91
205.622	389.5
205.841	286.56
206.059	324.02
206.278	458.22
206.496	1138.23
206.715	655.95
206.933	625.21
207.151	508.83
207.37	563.22
207.588	524.26
207.806	467.95
208.025	998.95
208.243	-2027.08
208.461	2869.66
208.68	-23427.06
208.898	940.79
209.116	1039.49
209.335	882.99
209.553	871.45
209.771	8936.25
209.989	1701
210.208	4074.9
210.426	-6250.51
210.644	3398.01
210.862	-3409.19
211.081	1588.44
211.299	-800.85
211.517	3301.27
211.735	-946.05
211.953	-330900
212.171	-6683.13
212.39	-21054.95
212.608	-49280.43
212.826	1846.9
213.044	1429.23
213.262	1042.98
213.48	5605.27
213.698	580.99
213.916	782.59
214.134	510.81
214.352	1086.3
214.57	631.58
214.788	800.44
215.006	691.83
215.224	567.96
215.442	429.38
215.66	411.04
215.878	343.9
216.096	354.49
216.314	383.81
216.532	701.67
216.75	532.17
216.968	528.66
217.185	1189.06
217.403	2068.54
217.621	-6112.06
217.839	-1912.71
218.057	-2036.05
218.275	3681.55
218.492	1166.7
218.71	1916.91
218.928	579.3
219.146	530.34
219.363	411.91
219.581	316.13
219.799	259.16
220.017	267.43
220.234	249.76
220.452	271.13
220.67	291.84
220.887	299.2
221.105	312.18
221.323	256.97
221.54	261
221.758	383.56
221.976	387.69
222.193	352.73
222.411	228.75
222.629	227.72
222.846	239.25
223.064	237.86
223.281	215.32
223.499	195.17
223.716	200.9
223.934	170.09
224.151	145.13
224.369	144.12
224.586	157
224.804	172.31
225.021	169.8
225.239	137.76
225.456	138.27
225.674	141.02
225.891	129.84
226.108	137.92
226.326	130.1
226.543	119.58
226.76	112.24
226.978	101.16
227.195	98.69
227.413	78.08
227.63	73.3
227.847	63.3
228.064	51.93
228.282	46.17
228.499	40.02
228.716	35.16
228.934	32.4
229.151	30.2
229.368	30.48
229.585	30.42
229.802	34.59
230.02	31.91
230.237	34.68
230.454	36.6
230.671	37.01
230.888	38.33
231.105	43.17
231.323	45.71
231.54	48.96
231.757	44.98
231.974	46.35
232.191	44.79
232.408	55.65
232.625	52.21
232.842	60.86
233.059	64.8
233.276	63.57
233.493	59.36
233.71	59.52
233.927	58.61
234.144	60.44
234.361	54.97
234.578	57.56
234.795	54.2
235.012	55.18
235.229	52.93
235.446	50.87
235.663	49.46
235.879	50.26
236.096	41.09
236.313	36.6
236.53	38.66
236.747	44.47
236.964	39.05
237.181	37.2
237.397	33.87
237.614	34.06
237.831	27.75
238.048	31.52
238.264	35.61
238.481	37.68
238.698	44.12
238.915	40.68
239.131	35.43
239.348	36.25
239.565	36.43
239.781	37.64
239.998	35.85
240.215	38.57
240.431	35.7
240.648	31.02
240.865	32.77
241.081	29.78
241.298	27.88
241.514	30.65
241.731	28.68
241.947	26.92
242.164	25.75
242.38	23.6
242.597	22.99
242.814	22.08
243.03	23.29
243.246	23.88
243.463	23.59
243.679	25.29
243.896	21.92
244.112	23.4
244.329	23.83
244.545	24.69
244.762	25.09
244.978	27.35
245.194	28.47
245.411	23.1
245.627	22.11
245.843	21.19
246.06	18.43
246.276	19.27
246.492	18.33
246.709	18.19
246.925	17.49
247.141	17.42
247.357	16.17
247.574	15.65
247.79	16.63
248.006	15.45
248.222	15.71
248.439	16.74
248.655	17.15
248.871	17.64
249.087	18.31
249.303	18.85
249.519	20.6
249.736	22.9
249.952	22.98
250.168	25.05
250.384	27.34
250.6	28.51
250.816	28.51
251.032	28.25
251.248	26.52
251.464	24.99
251.68	24.08
251.896	22.51
252.112	19.3
252.328	21.3
252.544	21.31
252.76	20.5
252.976	19.4
253.192	17.82
253.408	17.55
253.624	20.34
253.84	20.29
254.056	23.17
254.272	23.44
254.487	27.44
254.703	28.05
254.919	28.34
255.135	27.87
255.351	29.6
255.567	32.53
255.782	34.89
255.998	31.58
256.214	33.59
256.43	28.47
256.646	29.96
256.861	29.34
257.077	27.64
257.293	25.48
257.508	26.14
257.724	27.97
257.94	27.52
258.155	24.59
258.371	22.27
258.587	20.23
258.802	19.77
259.018	18.73
259.234	16.27
259.449	15.77
259.665	15.45
259.88	15.52
260.096	14.42
260.312	13.25
260.527	13.51
260.743	14.08
260.958	14.42
261.174	14.84
261.389	15.64
261.605	16.52
261.82	17.04
262.036	17.78
262.251	18.22
262.466	18.41
262.682	20.86
262.897	21.55
263.113	22.16
263.328	22.33
263.543	23.28
263.759	22.02
263.974	22.52
264.189	23
264.405	22.93
264.62	23.75
264.835	24.91
265.051	24.23
265.266	25.56
265.481	26.22
265.696	27.54
265.912	26.83
266.127	25.85
266.342	25.22
266.557	24.85
266.773	24.41
266.988	23.01
267.203	22.18
267.418	20.99
267.633	18.74
267.848	18.15
268.064	16.29
268.279	16.1
268.494	15.81
268.709	15.74
268.924	16.01
269.139	16.61
269.354	16.4
269.569	14.53
269.784	14.29
269.999	14.77
270.214	15.56
270.429	18.26
270.644	16.76
270.859	15.67
271.074	16.35
271.289	16.09
271.504	15.35
271.719	15.79
271.934	16.42
272.149	16.32
272.363	16.16
272.578	14.57
272.793	12.97
273.008	14.04
273.223	15.15
273.438	14.38
273.653	14.58
273.867	14.1
274.082	12.65
274.297	13.05
274.512	13.86
274.726	14.24
274.941	15.07
275.156	15.61
275.371	15.74
275.585	15.29
275.8	16.35
276.015	16.02
276.229	16.41
276.444	18.67
276.659	18.54
276.873	19.51
277.088	19.54
277.302	20.7
277.517	21.31
277.732	22.72
277.946	22.86
278.161	23.52
278.375	23.22
278.59	22.57
278.804	21.92
279.019	23.1
279.233	21.64
279.448	21.51
279.662	19.63
279.877	19.37
280.091	17.2
280.306	16.4
280.52	14.78
280.735	13.81
280.949	15.12
281.163	15.53
281.378	14.26
281.592	14.44
281.806	14.36
282.021	13.78
282.235	14.13
282.449	13.88
282.664	14.21
282.878	14.2
283.092	15.61
283.307	14.46
283.521	14.77
283.735	15.07
283.949	14.69
284.164	14.4
284.378	14.84
284.592	12.69
284.806	12.56
285.02	12.95
285.234	12.83
285.449	11.34
285.663	12.14
285.877	11.14
286.091	10.93
286.305	11.19
286.519	11.74
286.733	11.93
286.947	12.75
287.161	13.58
287.375	14
287.589	14.05
287.803	15.43
288.017	15.11
288.231	15.44
288.445	15.04
288.659	16.03
288.873	14.96
289.087	16
289.301	15.55
289.515	15.73
289.729	14.36
289.943	14.08
290.157	13.54
290.371	14.9
290.584	15.08
290.798	16.79
291.012	17.06
291.226	18.04
291.44	17.58
291.654	18.79
291.867	18.65
292.081	19.34
292.295	20.93
292.509	21.11
292.722	20.52
292.936	20.56
293.15	20.41
293.364	18.84
293.577	18.67
293.791	18.21
294.005	18.43
294.218	18.62
294.432	18.33
294.645	17.71
294.859	16.77
295.073	16.56
295.286	16.66
295.5	15.78
295.713	16.59
295.927	16.3
296.14	16.8
296.354	15.63
296.568	14.64
296.781	14.7
296.994	14.79
297.208	14.66
297.421	15
297.635	14.61
297.848	14.54
298.062	13.82
298.275	14.73
298.489	14.28
298.702	14.48
298.915	15.67
299.129	17.1
299.342	16.73
299.555	18.3
299.769	18.65
299.982	19.31
300.195	19.48
300.409	20.07
300.622	19.65
300.835	21.37
301.048	21.17
301.262	21.77
301.475	20.22
301.688	20.61
301.901	20.88
302.115	20.92
302.328	21.38
302.541	21.42
302.754	21.44
302.967	21.67
303.18	21.47
303.393	21.93
303.607	20.31
303.82	21.44
304.033	21.46
304.246	21.09
304.459	20.92
304.672	20.2
304.885	19.82
305.098	19.64
305.311	19.72
305.524	19.48
305.737	19.75
305.95	21.2
306.163	19.98
306.376	20.13
306.589	19.09
306.802	18.5
307.015	19.66
307.228	21
307.44	21.01
307.653	21.06
307.866	20.2
308.079	22.19
308.292	21.97
308.505	22.97
308.718	22.81
308.93	23.17
309.143	22.31
309.356	21.33
309.569	21.23
309.781	22.68
309.994	21.84
310.207	21.47
310.42	18.55
310.632	17.11
310.845	16.42
311.058	15.61
311.27	15.81
311.483	15.79
311.696	15.5
311.908	14.88
312.121	13.93
312.333	15.13
312.546	15.53
312.759	16.88
312.971	17.9
313.184	18.34
313.396	18.53
313.609	19.63
313.821	20.51
314.034	21.17
314.246	21.77
314.459	21.97
314.671	21.36
314.884	20.66
315.096	20.27
315.309	20.69
315.521	20.87
315.733	21.17
315.946	19.02
316.158	18.68
316.371	18.41
316.583	18.67
316.795	18.34
317.008	18.74
317.22	19.72
317.432	20.06
317.644	19.88
317.857	19.23
318.069	19.72
318.281	20.65
318.494	20.55
318.706	21.6
318.918	21.59
319.13	22.61
319.342	21.57
319.555	21.78
319.767	22.85
319.979	22.55
320.191	23.42
320.403	23.85
320.615	24.44
320.827	25.68
321.039	25.75
321.252	25.86
321.464	25.03
321.676	25.08
321.888	23.84
322.1	23.18
322.312	21.77
322.524	20.5
322.736	19.9
322.948	18.52
323.16	18.62
323.372	18.4
323.584	17.74
323.796	17.53
324.007	17.33
324.219	18.52
324.431	17.62
324.643	18.73
324.855	19.06
325.067	19.9
325.279	20.11
325.491	19.09
325.702	18.03
325.914	18.5
326.126	18.76
326.338	20.38
326.55	20.44
326.761	21.83
326.973	22.37
327.185	23.18
327.396	23.5
327.608	24.97
327.82	25.74
328.032	26.7
328.243	26.28
328.455	27.76
328.666	26.9
328.878	27.67
329.09	26.17
329.301	25.53
329.513	25.43
329.725	24.43
329.936	24.24
330.148	24.84
330.359	23.94
330.571	24.98
330.782	23.74
330.994	24.56
331.205	24.3
331.417	25.67
331.628	26.42
331.84	26.54
332.051	27.98
332.262	27.54
332.474	27.04
332.685	28.75
332.897	27.72
333.108	28.19
333.319	26.5
333.531	26.31
333.742	26.37
333.953	24.92
334.165	24.5
334.376	23.78
334.587	23.95
334.799	24.18
335.01	22.81
335.221	22.86
335.432	22.95
335.644	22.93
335.855	23.22
336.066	24.12
336.277	25.75
336.488	26.35
336.7	25.52
336.911	25.76
337.122	24.83
337.333	25.86
337.544	27.11
337.755	26.44
337.966	26.7
338.177	25.99
338.388	25.43
338.599	25.63
338.811	25.54
339.022	26.03
339.233	25.66
339.444	26.48
339.655	24.83
339.866	23.67
340.076	24.98
340.287	25.86
340.498	26.01
340.709	25.52
340.92	24.51
341.131	24.64
341.342	25.09
341.553	24.78
341.764	24.5
341.975	25.59
342.185	25.35
342.396	24.18
342.607	23.7
342.818	23.74
343.029	23.62
343.239	23.58
343.45	22.47
343.661	21.4
343.872	21.06
344.082	20.93
344.293	20.17
344.504	22.35
344.714	22.37
344.925	22.58
345.136	22.96
345.346	21.56
345.557	21.89
345.768	21.79
345.978	21.71
346.189	22.17
346.399	21.75
346.61	22.58
346.821	20.93
347.031	21.49
347.242	20.76
347.452	20.21
347.663	21.43
347.873	22.13
348.084	22.81
348.294	24.31
348.504	24.22
348.715	24.46
348.925	23.32
349.136	22.39
349.346	21.28
349.557	21.84
349.767	22.54
349.977	23.12
350.188	22.85
350.398	23.26
350.608	22.65
350.819	22.7
351.029	22.71
351.239	23.33
351.449	24.21
351.66	24.98
351.87	25.53
352.08	24.77
352.29	24.4
352.501	23.57
352.711	22.89
352.921	23.06
353.131	23.15
353.341	23.47
353.552	23.55
353.762	23.12
353.972	22.46
354.182	22.74
354.392	22.6
354.602	22.32
354.812	22.23
355.022	22.93
355.232	21.85
355.442	22.45
355.652	21.81
355.862	21.1
356.072	21.5
356.282	20.85
356.492	20.24
356.702	19.95
356.912	19.96
357.122	19.93
357.332	19.19
357.542	19.4
357.752	18.86
357.962	19.08
358.171	18.87
358.381	19.31
358.591	20.44
358.801	19.94
359.011	20.44
359.221	20.32
359.43	20.38
359.64	20.49
359.85	20.85
360.06	20.56
360.269	20.83
360.479	21.1
360.689	20.28
360.899	19.68
361.108	19.35
361.318	18.99
361.528	18.68
361.737	18.21
361.947	17.65
362.156	17.29
362.366	16.96
362.576	16.5
362.785	16.21
362.995	16.16
363.204	16.15
363.414	16.88
363.623	16.68
363.833	17.31
364.042	17.78
364.252	18.31
364.461	18.3
364.671	18.6
364.88	18.91
365.09	19.44
365.299	19.71
365.509	19.42
365.718	18.61
365.927	18.67
366.137	18.9
366.346	19.04
366.555	18.96
366.765	19.04
366.974	18.86
367.183	18.55
367.393	18.11
367.602	17.5
367.811	18.03
368.021	17.81
368.23	18.41
368.439	17.39
368.648	17.54
368.857	18.05
369.067	18.12
369.276	18.21
369.485	18.46
369.694	19.08
369.903	19.62
370.112	19.22
370.321	19
370.531	18.26
370.74	18.39
370.949	17.7
371.158	17.07
371.367	17.21
371.576	16.8
371.785	16.45
371.994	16.02
372.203	15.97
372.412	16.26
372.621	17.03
372.83	17.08
373.039	17.42
373.248	17.55
373.457	17.49
373.666	16.77
373.874	17.13
374.083	17.52
374.292	17.2
374.501	16.25
374.71	15.64
374.919	15.61
375.128	16.04
375.336	15.92
375.545	16.09
375.754	15.99
375.963	16.22
376.171	15.9
376.38	15.73
376.589	16.26
376.798	16.21
377.006	16.53
377.215	16.73
377.424	16.4
377.632	16.38
377.841	16.17
378.05	15.98
378.258	15.86
378.467	16.07
378.675	16.14
378.884	15.9
379.093	16.09
379.301	15.5
379.51	14.89
379.718	14.64
379.927	14.45
380.135	13.8
380.344	13.72
380.552	13.76
380.761	13.91
380.969	13.67
381.177	13.39
381.386	13.29
381.594	13.45
381.803	13.25
382.011	13.32
382.219	12.86
382.428	12.93
382.636	12.93
382.845	13.19
383.053	12.75
383.261	12.39
383.469	12.52
383.678	12.95
383.886	12.9
384.094	13.03
384.302	13.21
384.511	13.53
384.719	14.03
384.927	13.92
385.135	13.55
385.343	13.89
385.552	13.95
385.76	13.69
385.968	13.44
386.176	12.97
386.384	12.76
386.592	12.26
386.8	11.98
387.008	12.02
387.216	12.56
387.424	12.37
387.633	12.38
387.841	12.42
388.049	12.69
388.257	12.49
388.465	12.92
388.672	13.13
388.88	13.37
389.088	13.74
389.296	13.4
389.504	13.15
389.712	13.46
389.92	12.97
390.128	12.88
390.336	13
390.544	13.45
390.751	13.34
390.959	13.3
391.167	13.42
391.375	13.37
391.583	13.24
391.79	13.03
391.998	12.76
392.206	12.83
392.414	12.74
392.621	12.73
392.829	12.62
393.037	12.83
393.244	12.66
393.452	12.63
393.66	12.48
393.867	12.96
394.075	13.02
394.283	13.24
394.49	13.06
394.698	13.06
394.905	12.71
395.113	12.59
395.32	12.38
395.528	12.67
395.735	12.59
395.943	12.27
396.15	11.89
396.358	12.09
396.565	11.81
396.773	12.2
396.98	12.12
397.188	12.17
397.395	12.15
397.602	12.1
397.81	11.64
398.017	11.65
398.225	11.71
398.432	11.68
398.639	11.52
398.847	11.9
399.054	11.41
399.261	11.65
399.468	11.76
399.676	11.46
399.883	11.4
400.09	11.73
400.297	11.73
400.505	11.8
400.712	11.63
400.919	12.08
401.126	11.86
401.333	12.16
401.54	12.06
401.748	11.9
401.955	12.2
402.162	12.24
402.369	12.16
402.576	12.08
402.783	11.96
402.99	12.09
403.197	11.52
403.404	11.39
403.611	11.18
403.818	11.14
404.025	10.98
404.232	10.67
404.439	10.6
404.646	10.35
404.853	10.04
405.06	10.16
405.267	10.09
405.474	10.06
405.681	9.97
405.887	9.99
406.094	10.01
406.301	10.13
406.508	10.35
406.715	10.44
406.922	10.73
407.128	10.79
407.335	10.75
407.542	10.55
407.749	10.71
407.955	11.14
408.162	11.1
408.369	11.25
408.575	11.08
408.782	11.13
408.989	10.94
409.195	10.78
409.402	11.22
409.609	11.39
409.815	11.69
410.022	11.95
410.228	11.8
410.435	11.96
410.642	11.69
410.848	12.01
411.055	11.87
411.261	12.16
411.468	12.18
411.674	11.87
411.881	11.77
412.087	11.85
412.294	11.46
412.5	11.11
412.706	11.14
412.913	11.12
413.119	10.84
413.326	10.93
413.532	10.78
413.738	10.55
413.945	10.81
414.151	10.62
414.357	10.36
414.564	10.24
414.77	10.49
414.976	10.27
415.182	10.62
415.389	10.57
415.595	10.37
415.801	10.32
416.007	10.59
416.214	10.33
416.42	10.41
416.626	10.41
416.832	10.49
417.038	10.24
417.244	10.45
417.45	10.1
417.657	10.25
417.863	10.34
418.069	10.35
418.275	10.36
418.481	10.43
418.687	10.32
418.893	10.35
419.099	10.21
419.305	10.36
419.511	10.2
419.717	10.25
419.923	9.97
420.129	9.99
420.335	9.97
420.541	9.99
420.746	9.78
420.952	9.87
421.158	9.82
421.364	9.88
421.57	9.97
421.776	9.99
421.982	9.89
422.187	9.85
422.393	9.76
422.599	9.59
422.805	9.49
423.01	9.65
423.216	9.47
423.422	9.44
423.628	9.46
423.833	9.25
424.039	9.28
424.245	9.28
424.45	9.45
424.656	9.46
424.862	9.59
425.067	9.57
425.273	9.47
425.478	9.67
425.684	9.69
425.889	9.74
426.095	9.75
426.301	9.69
426.506	9.81
426.712	9.86
426.917	9.77
427.123	9.82
427.328	9.87
427.533	9.97
427.739	9.83
427.944	9.77
428.15	9.71
428.355	9.89
428.561	9.82
428.766	9.84
428.971	9.8
429.177	9.91
429.382	9.87
429.587	9.84
429.793	9.7
429.998	9.84
430.203	9.94
430.408	10.11
430.614	10.07
430.819	10.22
431.024	10.28
431.229	10.29
431.434	10.41
431.64	10.39
431.845	10.47
432.05	10.51
432.255	10.44
432.46	10.45
432.665	10.16
432.87	10.11
433.076	10.08
433.281	10.07
433.486	10.02
433.691	9.78
433.896	9.66
434.101	9.63
434.306	9.76
434.511	9.68
434.716	9.61
434.921	9.66
435.126	9.5
435.331	9.34
435.535	9.22
435.74	9.31
435.945	9.44
436.15	9.68
436.355	9.82
436.56	9.83
436.765	9.95
436.97	9.88
437.174	9.96
437.379	10.15
437.584	10.49
437.789	10.53
437.993	10.56
438.198	10.64
438.403	10.55
438.608	10.43
438.812	10.22
439.017	10.22
439.222	10.13
439.426	10.06
439.631	9.88
439.836	9.69
440.04	9.72
440.245	9.65
440.45	9.63
440.654	9.54
440.859	9.45
441.063	9.47
441.268	9.38
441.472	9.57
441.677	9.61
441.881	9.73
442.086	9.73
442.29	9.64
442.495	9.62
442.699	9.58
442.904	9.62
443.108	9.72
443.312	9.7
443.517	9.75
443.721	9.6
443.925	9.46
444.13	9.55
444.334	9.6
444.538	9.63
444.743	9.49
444.947	9.4
445.151	9.43
445.356	9.22
445.56	9.31
445.764	9.12
445.968	9.11
446.173	9.13
446.377	9.06
446.581	8.92
446.785	9.01
446.989	9.13
447.193	9.18
447.398	9.12
447.602	9.12
447.806	9.24
448.01	9.52
448.214	9.64
448.418	9.63
448.622	9.7
448.826	9.85
449.03	9.82
449.234	9.9
449.438	9.9
449.642	10
449.846	10.23
450.05	10.29
450.254	10.18
450.458	10.28
450.662	10.43
450.866	10.25
451.069	10.18
451.273	10.12
451.477	10.01
451.681	10
451.885	9.79
452.089	9.74
452.292	9.49
452.496	9.45
452.7	9.33
452.904	9.35
453.107	9.47
453.311	9.55
453.515	9.49
453.719	9.4
453.922	9.4
454.126	9.55
454.33	9.5
454.533	9.52
454.737	9.54
454.94	9.45
455.144	9.48
455.348	9.48
455.551	9.47
455.755	9.46
455.958	9.61
456.162	9.55
456.365	9.67
456.569	9.62
456.772	9.6
456.976	9.65
457.179	9.81
457.383	9.65
457.586	9.68
457.79	9.63
457.993	9.61
458.196	9.45
458.4	9.44
458.603	9.39
458.807	9.46
459.01	9.56
459.213	9.41
459.417	9.26
459.62	9.34
459.823	9.22
460.026	9.21
460.23	9.32
460.433	9.38
460.636	9.42
460.839	9.37
461.042	9.3
461.246	9.26
461.449	9.3
461.652	9.41
461.855	9.32
462.058	9.33
462.261	9.26
462.464	9.2
462.668	9.35
462.871	9.42
463.074	9.47
463.277	9.46
463.48	9.59
463.683	9.66
463.886	9.66
464.089	9.75
464.292	9.98
464.495	10.04
464.698	9.91
464.901	9.75
465.104	9.81
465.306	9.82
465.509	9.93
465.712	9.84
465.915	9.92
466.118	9.86
466.321	9.82
466.524	9.75
466.726	9.82
466.929	10.02
467.132	10.05
467.335	9.93
467.538	9.73
467.74	9.61
467.943	9.62
468.146	9.66
468.348	9.56
468.551	9.6
468.754	9.47
468.956	9.44
469.159	9.36
469.362	9.41
469.564	9.28
469.767	9.48
469.969	9.55
470.172	9.41
470.375	9.16
470.577	9.36
470.78	9.31
470.982	9.46
471.185	9.52
471.387	9.51
471.59	9.54
471.792	9.64
471.995	9.64
472.197	9.65
472.399	9.64
472.602	9.73
472.804	9.7
473.007	9.66
473.209	9.59
473.411	9.45
473.614	9.51
473.816	9.55
474.018	9.63
474.22	9.7
474.423	9.73
474.625	9.84
474.827	10.04
475.03	10.07
475.232	10.29
475.434	10.32
475.636	10.53
475.838	10.52
476.04	10.37
476.243	10.35
476.445	10.35
476.647	10.17
476.849	9.99
477.051	9.8
477.253	9.77
477.455	9.54
477.657	9.45
477.859	9.42
478.061	9.29
478.263	9.14
478.465	9.16
478.667	8.99
478.869	9.19
479.071	9.4
479.273	9.37
479.475	9.24
479.677	9.39
479.879	9.44
480.081	9.36
480.283	9.39
480.485	9.39
480.686	9.37
480.888	9.46
481.09	9.24
481.292	9.04
481.494	9.02
481.695	9.04
481.897	8.9
482.099	8.85
482.301	8.8
482.502	8.81
482.704	8.82
482.906	8.69
483.107	8.61
483.309	8.6
483.511	8.64
483.712	8.59
483.914	8.55
484.115	8.55
484.317	8.51
484.519	8.51
484.72	8.48
484.922	8.47
485.123	8.54
485.325	8.55
485.526	8.58
485.728	8.56
485.929	8.58
486.131	8.62
486.332	8.66
486.534	8.68
486.735	8.66
486.936	8.62
487.138	8.61
487.339	8.56
487.541	8.56
487.742	8.55
487.943	8.56
488.144	8.59
488.346	8.55
488.547	8.57
488.748	8.65
488.95	8.6
489.151	8.64
489.352	8.67
489.553	8.75
489.755	8.8
489.956	8.84
490.157	8.83
490.358	8.83
490.559	8.91
490.76	8.89
490.961	8.86
491.163	8.93
491.364	9.01
491.565	8.98
491.766	8.94
491.967	8.97
492.168	8.96
492.369	8.99
492.57	9
492.771	9.09
492.972	9.09
493.173	9.13
493.374	9.08
493.575	9.09
493.776	9.23
493.976	9.32
494.177	9.38
494.378	9.53
494.579	9.57
494.78	9.85
494.981	9.76
495.182	9.79
495.382	9.83
495.583	9.92
495.784	9.87
495.985	9.97
496.185	9.93
496.386	9.82
496.587	9.77
496.788	9.72
496.988	9.6
497.189	9.66
497.39	9.73
497.59	9.66
497.791	9.7
497.992	9.73
498.192	9.71
498.393	9.83
498.593	9.92
498.794	9.86
498.994	9.97
499.195	10
499.395	9.97
499.596	9.96
499.796	9.95
499.997	10.06
500.197	10.15
500.398	10.21
500.598	10.19
500.799	10.19
500.999	10.22
501.199	10.19
501.4	10.1
501.6	10.14
501.801	10.33
502.001	10.51
502.201	10.51
502.402	10.47
502.602	10.38
502.802	10.3
503.002	10.46
503.203	10.64
503.403	10.58
503.603	10.51
503.803	10.57
504.003	10.44
504.204	10.51
504.404	10.53
504.604	10.49
504.804	10.67
505.004	10.74
505.204	10.65
505.404	10.65
505.604	10.84
505.804	10.89
506.005	10.84
506.205	10.79
506.405	10.81
506.605	10.79
506.805	10.87
507.005	10.7
507.204	10.67
507.404	10.71
507.604	10.73
507.804	10.65
508.004	10.8
508.204	10.77
508.404	10.86
508.604	10.85
508.804	10.84
509.003	10.87
509.203	10.93
509.403	11.01
509.603	11.02
509.803	11.07
510.002	11.22
510.202	11.21
510.402	11.2
510.602	11.24
510.801	11.21
511.001	11.3
511.201	11.27
511.4	11.23
511.6	11.22
511.8	11.24
511.999	11.41
512.199	11.31
512.398	11.32
512.598	11.53
512.797	11.66
512.997	11.71
513.197	11.72
513.396	11.78
513.596	11.9
513.795	12.16
513.994	12.2
514.194	12.03
514.393	12.14
514.593	12.31
514.792	12.24
514.992	12.19
515.191	12.21
515.39	12.23
515.59	12.22
515.789	12.21
515.988	12.06
516.188	12.09
516.387	12.07
516.586	11.97
516.786	11.87
516.985	11.95
517.184	11.94
517.383	12.07
517.582	12.03
517.782	12.1
517.981	12.01
518.18	11.89
518.379	11.82
518.578	11.83
518.777	11.91
518.976	11.86
519.176	11.86
519.375	11.91
519.574	11.78
519.773	11.85
519.972	11.73
520.171	11.79
520.37	11.98
520.569	12.09
520.768	12.2
520.967	12.31
521.166	12.42
521.365	12.4
521.564	12.46
521.762	12.68
521.961	12.67
522.16	12.78
522.359	12.76
522.558	12.68
522.757	12.7
522.956	12.8
523.154	12.68
523.353	12.81
523.552	12.84
523.751	12.88
523.949	12.8
524.148	12.92
524.347	13.04
524.546	13.07
524.744	13.09
524.943	13.16
525.142	12.97
525.34	13.1
525.539	13.09
525.737	13.16
525.936	13.08
526.135	12.98
526.333	12.82
526.532	12.71
526.73	12.77
526.929	12.74
527.127	12.69
527.326	12.66
527.524	12.51
527.723	12.46
527.921	12.39
528.12	12.35
528.318	12.37
528.516	12.42
528.715	12.41
528.913	12.36
529.112	12.33
529.31	12.33
529.508	12.35
529.707	12.42
529.905	12.43
530.103	12.53
530.301	12.62
530.5	12.69
530.698	12.71
530.896	12.93
531.094	13.12
531.293	13.31
531.491	13.48
531.689	13.67
531.887	13.71
532.085	13.79
532.283	13.77
532.481	13.83
532.68	13.77
532.878	13.84
533.076	13.74
533.274	13.68
533.472	13.73
533.67	13.64
533.868	13.62
534.066	13.65
534.264	13.65
534.462	13.65
534.66	13.7
534.858	13.91
535.056	13.9
535.253	14.03
535.451	14.17
535.649	14.14
535.847	14.36
536.045	14.32
536.243	14.48
536.441	14.63
536.638	14.84
536.836	14.86
537.034	14.88
537.232	15.02
537.43	15.12
537.627	15.19
537.825	15.31
538.023	15.42
538.22	15.7
538.418	15.84
538.616	15.97
538.813	16.1
539.011	16.31
539.209	16.42
539.406	16.48
539.604	16.57
539.801	16.62
539.999	16.54
540.196	16.51
540.394	16.46
540.591	16.43
540.789	16.4
540.986	16.23
541.184	16.16
541.381	16.14
541.579	16.13
541.776	16.08
541.974	16.02
542.171	16.12
542.368	16.14
542.566	16.12
542.763	16.13
542.96	16.18
543.158	16.33
543.355	16.5
543.552	16.63
543.75	16.85
543.947	16.87
544.144	17.02
544.341	17.17
544.539	17.32
544.736	17.55
544.933	17.76
545.13	17.86
545.327	17.89
545.524	17.85
545.722	18.06
545.919	18.08
546.116	18.27
546.313	18.33
546.51	18.32
546.707	18.41
546.904	18.51
547.101	18.53
547.298	18.68
547.495	18.76
547.692	18.8
547.889	18.68
548.086	18.93
548.283	19.17
548.48	19.49
548.677	19.64
548.874	19.81
549.07	20.09
549.267	20.42
549.464	20.6
549.661	20.93
549.858	21.35
550.055	21.76
550.251	21.64
550.448	21.76
550.645	21.85
550.842	22.03
551.038	22
551.235	21.93
551.432	21.73
551.628	21.61
551.825	21.73
552.022	21.69
552.218	21.52
552.415	21.82
552.612	21.74
552.808	21.65
553.005	21.71
553.201	21.87
553.398	22
553.594	22.11
553.791	22.41
553.987	22.49
554.184	22.58
554.38	22.75
554.577	22.68
554.773	22.97
554.97	23.43
555.166	23.7
555.362	23.68
555.559	23.83
555.755	24.22
555.952	24.31
556.148	24.39
556.344	24.54
556.541	24.56
556.737	24.77
556.933	24.95
557.129	24.7
557.326	24.62
557.522	24.96
557.718	25.27
557.914	25.09
558.11	25.09
558.307	25.07
558.503	25.24
558.699	25.48
558.895	25.8
559.091	25.78
559.287	25.92
559.483	26.05
559.679	26.1
559.876	25.84
560.072	26.09
560.268	26.08
560.464	26.22
560.66	26.13
560.856	26.25
561.052	26.13
561.247	26.36
561.443	26.62
561.639	26.83
561.835	26.92
562.031	27.1
562.227	27.06
562.423	27.37
562.619	27.68
562.815	27.97
563.01	28.3
563.206	28.58
563.402	28.56
563.598	28.51
563.793	28.63
563.989	28.65
564.185	28.7
564.381	29
564.576	28.99
564.772	28.91
564.968	28.9
565.163	28.64
565.359	28.29
565.555	28.25
565.75	28.36
565.946	28.22
566.141	28.16
566.337	28.21
566.532	28.25
566.728	28.39
566.923	28.42
567.119	28.46
567.314	28.57
567.51	28.86
567.705	28.99
567.901	29.06
568.096	29.24
568.292	29.52
568.487	29.63
568.682	29.65
568.878	29.64
569.073	29.79
569.268	30.03
569.464	30.31
569.659	30.54
569.854	30.76
570.05	30.89
570.245	30.95
570.44	31
570.635	31.06
570.831	31.07
571.026	31.33
571.221	31.39
571.416	31.22
571.611	31.09
571.806	31.19
572.002	31.29
572.197	31.26
572.392	31.18
572.587	31.17
572.782	31.38
572.977	31.65
573.172	31.56
573.367	31.66
573.562	31.85
573.757	31.89
573.952	31.85
574.147	31.91
574.342	32.28
574.537	32.52
574.732	32.59
574.927	32.51
575.121	32.63
575.316	32.88
575.511	32.9
575.706	32.9
575.901	32.96
576.096	33.12
576.29	33.13
576.485	33.04
576.68	33.23
576.875	33.57
577.069	33.7
577.264	33.66
577.459	33.86
577.654	34.09
577.848	34.41
578.043	34.85
578.238	35.08
578.432	35.13
578.627	35.42
578.821	35.54
579.016	35.54
579.21	36.02
579.405	36.11
579.6	36.06
579.794	36.17
579.989	36.14
580.183	36.08
580.378	36.02
580.572	36.29
580.766	36.28
580.961	36.23
581.155	36.42
581.35	36.16
581.544	36.1
581.738	36.26
581.933	36.49
582.127	36.74
582.321	36.85
582.516	37.04
582.71	37.19
582.904	37.3
583.099	37.46
583.293	37.55
583.487	37.89
583.681	38.31
583.875	38.52
584.07	38.53
584.264	38.43
584.458	38.61
584.652	38.52
584.846	38.31
585.04	38.4
585.234	38.51
585.428	38.64
585.623	38.67
585.817	38.4
586.011	38.39
586.205	38.62
586.399	38.78
586.593	38.95
586.787	39.15
586.981	39.3
587.174	39.33
587.368	39.21
587.562	39.04
587.756	39.12
587.95	39.4
588.144	39.25
588.338	39.26
588.532	39.51
588.725	39.31
588.919	39.39
589.113	39.42
589.307	39.15
589.501	39.08
589.694	39.14
589.888	39.25
590.082	39.15
590.275	39.33
590.469	39.32
590.663	38.92
590.856	39.2
591.05	39.03
591.244	39.06
591.437	39.56
591.631	39.9
591.824	40.09
592.018	40
592.212	40.13
592.405	40.14
592.599	40.29
592.792	40.58
592.986	40.66
593.179	41.06
593.372	41.08
593.566	41.01
593.759	41.11
593.953	41.02
594.146	40.8
594.339	40.94
594.533	41
594.726	40.91
594.92	40.81
595.113	40.65
595.306	40.41
595.499	40.12
595.693	40.21
595.886	40.06
596.079	40.13
596.272	40.07
596.466	39.93
596.659	39.71
596.852	39.53
597.045	39.65
597.238	39.63
597.431	39.54
597.624	39.82
597.818	39.59
598.011	39.63
598.204	39.51
598.397	39.76
598.59	39.85
598.783	40.28
598.976	40.52
599.169	40.69
599.362	40.99
599.555	41.37
599.748	41.63
599.941	41.84
600.134	42.09
600.326	42.48
600.519	42.81
600.712	42.87
600.905	42.78
601.098	43.08
601.291	43.24
601.483	43.23
601.676	43.24
601.869	43.15
602.062	43.34
602.255	43.04
602.447	43.11
602.64	42.71
602.833	42.74
603.025	42.37
603.218	42.09
603.411	41.76
603.603	41.37
603.796	41.18
603.989	40.93
604.181	40.72
604.374	40.84
604.566	40.56
604.759	40.58
604.951	40.38
605.144	40.46
605.336	40.63
605.529	40.64
605.721	40.91
605.914	41.04
606.106	41.41
606.299	41.6
606.491	41.74
606.683	42.08
606.876	42.24
607.068	42.74
607.26	43.01
607.453	43.01
607.645	43.22
607.837	43.35
608.03	43.56
608.222	43.44
608.414	43.6
608.606	43.65
608.799	43.61
608.991	43.52
609.183	43.61
609.375	43.71
609.567	43.54
609.759	43.62
609.952	43.51
610.144	43.69
610.336	43.91
610.528	43.77
610.72	43.78
610.912	44.02
611.104	44.5
611.296	44.45
611.488	44.45
611.68	44.99
611.872	45.18
612.064	45.78
612.256	45.94
612.448	46.1
612.64	46.3
612.832	46.74
613.023	47
613.215	46.99
613.407	47.36
613.599	47.9
613.791	47.9
613.983	47.93
614.174	47.69
614.366	47.55
614.558	47.49
614.75	47.72
614.941	47.46
615.133	47.39
615.325	47.34
615.516	47.18
615.708	46.9
615.9	47.06
616.091	47.03
616.283	47.18
616.475	47.09
616.666	47.41
616.858	47.75
617.049	47.75
617.241	47.41
617.432	47.42
617.624	47.7
617.815	47.8
618.007	47.53
618.198	47.75
618.39	47.58
618.581	47.57
618.773	47.48
618.964	47.3
619.155	47.6
619.347	48.07
619.538	48.39
619.729	48.38
619.921	48.39
620.112	48.47
620.303	48.64
620.494	48.89
620.686	49
620.877	48.87
621.068	48.91
621.259	48.88
621.451	48.7
621.642	48.56
621.833	48.37
622.024	48.65
622.215	48.98
622.406	48.87
622.597	48.99
622.788	49.05
622.98	49.32
623.171	49.64
623.362	49.8
623.553	49.84
623.744	49.83
623.935	50
624.126	49.54
624.317	49.42
624.508	49.51
624.698	49.32
624.889	49.34
625.08	49.16
625.271	49.03
625.462	48.77
625.653	48.63
625.844	48.41
626.034	47.89
626.225	47.92
626.416	47.61
626.607	47.4
626.798	47.49
626.988	47.55
627.179	47.38
627.37	46.94
627.56	47.06
627.751	47.13
627.942	47.33
628.132	47.71
628.323	47.71
628.514	48.09
628.704	48.13
628.895	48.12
629.085	48.11
629.276	48.26
629.466	48.59
629.657	48.43
629.847	48.6
630.038	48.72
630.228	48.88
630.419	49.28
630.609	49.3
630.8	49.48
630.99	49.48
631.181	49.52
631.371	49.92
631.561	50.02
631.752	50.45
631.942	50.37
632.132	50.44
632.323	50.3
632.513	50.23
632.703	50.25
632.893	50.28
633.084	50.39
633.274	50.3
633.464	50.07
633.654	49.83
633.844	49.56
634.034	49.46
634.225	49.24
634.415	49.21
634.605	49.3
634.795	49.17
634.985	49.47
635.175	49.45
635.365	49.69
635.555	49.77
635.745	50
635.935	50.05
636.125	50.39
636.315	50.61
636.505	50.88
636.695	50.84
636.885	50.66
637.075	50.28
637.265	50.55
637.455	50.41
637.644	50.61
637.834	50.85
638.024	50.98
638.214	50.87
638.404	50.93
638.593	50.9
638.783	51.29
638.973	51.84
639.163	51.89
639.352	51.76
639.542	52.21
639.732	52.16
639.921	52.45
640.111	52.75
640.301	53.34
640.49	53.44
640.68	53.71
640.87	53.69
641.059	53.61
641.249	54.16
641.438	54.33
641.628	54.26
641.817	54.65
642.007	54.35
642.196	54.1
642.386	53.84
642.575	54.02
642.764	53.71
642.954	53.35
643.143	53.72
643.333	53.52
643.522	53.7
643.711	53.56
643.901	53.26
644.09	53.58
644.279	53.9
644.469	53.77
644.658	53.72
644.847	54.06
645.036	54.2
645.226	53.85
645.415	53.88
645.604	53.56
645.793	53.51
645.982	53.62
646.171	53.49
646.361	53.65
646.55	54.01
646.739	53.93
646.928	54.04
647.117	54.39
647.306	54.49
647.495	54.55
647.684	54.78
647.873	55.33
648.062	55.55
648.251	55.57
648.44	55.32
648.629	54.93
648.818	54.89
649.007	54.77
649.196	54.67
649.384	54.9
649.573	54.34
649.762	54.35
649.951	53.99
650.14	53.83
650.328	53.79
650.517	53.9
650.706	53.69
650.895	53.98
651.083	53.81
651.272	53.7
651.461	53.56
651.65	54.15
651.838	53.84
652.027	53.93
652.216	53.81
652.404	53.92
652.593	53.84
652.781	54.42
652.97	54.33
653.158	54.52
653.347	54.85
653.535	54.82
653.724	54.67
653.912	55.13
654.101	55.23
654.289	55.71
654.478	55.73
654.666	56.16
654.855	55.84
655.043	55.68
655.231	55.54
655.42	55.56
655.608	55.96
655.796	56.11
655.985	55.77
656.173	55.75
656.361	55.25
656.55	55.18
656.738	55.02
656.926	55.06
657.114	55.84
657.302	55.75
657.491	55.1
657.679	54.26
657.867	53.85
658.055	53.84
658.243	53.24
658.431	53.1
658.619	52.82
658.807	52.47
658.996	52.16
659.184	51.18
659.372	51.14
659.56	51.13
659.748	51.07
659.936	51.37
660.124	51.51
660.311	51.79
660.499	52.08
660.687	52.02
660.875	52.18
661.063	52.46
661.251	53.03
661.439	53.26
661.627	53.7
661.814	54.23
662.002	54.33
662.19	54.63
662.378	54.87
662.565	54.72
662.753	55.51
662.941	55.77
663.129	55.77
663.316	56.3
663.504	55.92
663.692	56.24
663.879	56.38
664.067	56.56
664.254	56.55
664.442	56.62
664.63	56.93
664.817	56.73
665.005	56.62
665.192	57.31
665.38	56.8
665.567	57.45
665.755	57.34
665.942	57.61
666.13	57.64
666.317	57.71
666.504	57.87
666.692	57.83
666.879	58
667.067	57.72
667.254	57.28
667.441	57.4
667.629	57.38
667.816	57.48
668.003	57.28
668.19	56.96
668.378	56.4
668.565	56
668.752	55.94
668.939	55.67
669.127	56.04
669.314	55.77
669.501	55.88
669.688	56
669.875	55.79
670.062	55.99
670.249	56.43
670.436	56.67
670.623	57.15
670.81	57.19
670.997	57.11
671.184	56.93
671.371	57.93
671.558	57.95
671.745	57.97
671.932	58.19
672.119	57.93
672.306	57.46
672.493	57.72
672.68	57.72
672.867	58.53
673.054	58.71
673.24	59.12
673.427	59.02
673.614	59.17
673.801	59.37
673.988	59.35
674.174	59.83
674.361	60.02
674.548	60.11
674.734	60.63
674.921	59.66
675.108	60.07
675.294	59.04
675.481	58.79
675.668	58.65
675.854	58.74
676.041	58.76
676.227	58.47
676.414	58.63
676.601	58.77
676.787	58.48
676.974	58.89
677.16	58.57
677.347	59.08
677.533	58.77
677.719	58.47
677.906	57.74
678.092	57.84
678.279	57.57
678.465	57.21
678.651	57.04
678.838	56.83
679.024	56.47
679.21	56.14
679.397	56.24
679.583	56.02
679.769	55.85
679.955	55.79
680.142	55.4
680.328	55.49
680.514	55.08
680.7	54.24
680.886	53.96
681.073	54.11
681.259	54.04
681.445	54.07
681.631	54.3
681.817	54.53
682.003	54.58
682.189	54.49
682.375	54.64
682.561	55.52
682.747	56.3
682.933	56.41
683.119	56.38
683.305	56.58
683.491	56.94
683.677	56.88
683.863	57.17
684.049	57.81
684.235	58.21
684.42	58
684.606	57.39
684.792	58.1
684.978	58.26
685.164	58.33
685.349	58.82
685.535	58.72
685.721	58.42
685.907	57.75
686.092	57.43
686.278	57.49
686.464	57.7
686.649	58.25
686.835	57.7
687.021	57.91
687.206	57.72
687.392	57.4
687.577	57.26
687.763	57.17
687.948	57.88
688.134	57.8
688.319	57.86
688.505	57.97
688.69	57.79
688.876	58
689.061	57.8
689.247	58.23
689.432	58.15
689.618	58.14
689.803	58.75
689.988	58.62
690.174	58.92
690.359	59.1
690.544	59.05
690.73	59.69
690.915	59.4
691.1	59.41
691.285	59.45
691.471	59.73
691.656	60.29
691.841	60.31
692.026	60.72
692.211	61.04
692.396	61.17
692.582	61.55
692.767	61.45
692.952	61.7
693.137	62.01
693.322	62.35
693.507	62.52
693.692	62.77
693.877	62.45
694.062	62.52
694.247	62.45
694.432	62.72
694.617	62.68
694.802	62.75
694.987	63.48
695.172	63.55
695.357	63.55
695.541	63.69
695.726	63.32
695.911	64.34
696.096	63.94
696.281	63.55
696.466	62.85
696.65	62.28
696.835	61.61
697.02	60.62
697.204	59.87
697.389	58.87
697.574	58.01
697.759	57.55
697.943	56.39
698.128	56
698.312	55.75
698.497	54.85
698.682	54.59
698.866	54.16
699.051	53.83
699.235	53.83
699.42	54.21
699.604	54.48
699.789	53.98
699.973	54.41
700.158	54.65
700.342	54.72
700.527	55.95
700.711	56.53
700.895	57.39
701.08	58.2
701.264	58.76
701.448	59.25
701.633	59.73
701.817	60.52
702.001	61.24
702.186	61.23
702.37	61.89
702.554	61.72
702.738	61.88
702.923	62.22
703.107	62.75
703.291	62.91
703.475	62.44
703.659	62.45
703.843	62.53
704.027	62.03
704.212	62.75
704.396	62.67
704.58	62.81
704.764	62.53
704.948	61.97
705.132	61.13
705.316	61.61
705.5	62.28
705.684	62.55
705.868	62.44
706.052	62.48
706.235	62.31
706.419	62.32
706.603	62.27
706.787	62.34
706.971	62.92
707.155	63
707.339	63.22
707.522	63.17
707.706	62.58
707.89	63.34
708.074	63.01
708.257	62.36
708.441	62.94
708.625	62.7
708.808	62.83
708.992	62.83
709.176	62.78
709.359	61.87
709.543	61.72
709.727	62.05
709.91	61.28
710.094	61.34
710.277	61.9
710.461	60.54
710.644	60.34
710.828	60.22
711.011	59.45
711.195	59.34
711.378	59.42
711.562	59.23
711.745	59.13
711.928	59.13
712.112	58.81
712.295	58.66
712.478	59.5
712.662	60.01
712.845	60.31
713.028	60.4
713.212	60.49
713.395	60.57
713.578	60.47
713.761	60.09
713.945	60.4
714.128	60.63
714.311	60.37
714.494	60.05
714.677	60.14
714.86	59.77
715.043	60.5
715.227	60.42
715.41	60.14
715.593	60.06
715.776	60.12
715.959	60.18
716.142	61.01
716.325	60.88
716.508	60.87
716.691	60.97
716.874	61.44
717.057	61.09
717.239	61.59
717.422	62.22
717.605	62.4
717.788	62.55
717.971	63.74
718.154	62.95
718.337	63.91
718.519	64.55
718.702	64.87
718.885	64.68
719.068	64.72
719.25	64.87
719.433	64.66
719.616	64.94
719.798	65.04
719.981	64.62
720.164	64.92
720.346	64.98
720.529	65.62
720.712	65.55
720.894	65.7
721.077	65.65
721.259	65.64
721.442	65.59
721.624	65.77
721.807	66.34
721.989	65.35
722.172	65.8
722.354	65.67
722.537	65.24
722.719	63.79
722.901	64.25
723.084	64.36
723.266	63.79
723.448	64.09
723.631	63.74
723.813	63.42
723.995	62.57
724.178	62.16
724.36	61.87
724.542	61.01
724.724	62.72
724.907	63.03
725.089	63.1
725.271	64.12
725.453	63.19
725.635	63.08
725.817	64.13
725.999	65.96
726.181	65.82
726.364	65.8
726.546	66.32
726.728	65.92
726.91	64.82
727.092	64.74
727.274	64.03
727.456	64.77
727.638	64.7
727.819	63.5
728.001	62.5
728.183	62.84
728.365	62.76
728.547	63.42
728.729	63.21
728.911	63.67
729.093	63.54
729.274	63.17
729.456	62.77
729.638	62.65
729.82	62.67
730.001	62.68
730.183	62.42
730.365	62.59
730.546	61.58
730.728	60.68
730.91	60.52
731.091	60.55
731.273	59.86
731.455	59.83
731.636	60.11
731.818	60.56
731.999	60.95
732.181	60.41
732.362	60.4
732.544	60.8
732.725	61.28
732.907	61.33
733.088	61.34
733.27	62.86
733.451	63.81
733.633	65
733.814	64.06
733.995	63.34
734.177	63.27
734.358	62.49
734.539	62.47
734.721	62.7
734.902	62.5
735.083	61.72
735.264	61.41
735.446	60.52
735.627	58.58
735.808	58.32
735.989	59.21
736.17	60.15
736.351	60.16
736.533	60.23
736.714	60.28
736.895	60.63
737.076	61.99
737.257	62.17
737.438	62.07
737.619	63.36
737.8	65.18
737.981	65.24
738.162	65.91
738.343	66.65
738.524	66.7
738.705	65.92
738.886	65.54
739.067	65.61
739.247	65.83
739.428	66.43
739.609	65.51
739.79	65.08
739.971	64.11
740.151	63.22
740.332	63.89
740.513	62.98
740.694	64.06
740.874	63.64
741.055	63.37
741.236	62.61
741.417	63.24
741.597	63.55
741.778	63.98
741.958	64.28
742.139	65.07
742.32	64.35
742.5	65.41
742.681	65.84
742.861	65.99
743.042	65.95
743.222	66.57
743.403	65.76
743.583	65.3
743.764	65.09
743.944	66.08
744.124	66.31
744.305	67.17
744.485	66.33
744.666	65.89
744.846	66.35
745.026	66.29
745.207	66.24
745.387	66.23
745.567	68.21
745.747	67.7
745.928	67.3
746.108	67.64
746.288	66.55
746.468	67.67
746.648	67.74
746.829	68.11
747.009	68.74
747.189	69.12
747.369	69.38
747.549	67.72
747.729	67.98
747.909	67.45
748.089	66.86
748.269	66.64
748.449	65.95
748.629	65.74
748.809	65.86
748.989	65.36
749.169	65.06
749.349	65.95
749.529	67.45
749.709	66.52
749.889	66.98
750.068	67.11
750.248	68.16
750.428	68.91
750.608	68.88
750.788	67.87
750.967	67.83
751.147	67.83
751.327	67.21
751.507	66.42
751.686	67.04
751.866	67.87
752.046	67.62
752.225	67.92
752.405	67.88
752.585	68.03
752.764	67.94
752.944	67.78
753.123	67.05
753.303	67.3
753.482	67.17
753.662	66.56
753.841	65.29
754.021	65.89
754.2	65.65
754.38	65.88
754.559	65.38
754.739	65.48
754.918	65.78
755.097	65.87
755.277	64.65
755.456	64.33
755.635	65.17
755.815	66.02
755.994	65.68
756.173	65.04
756.352	64.08
756.532	63.7
756.711	64.25
756.89	62.65
757.069	63.5
757.248	63.38
757.427	63.12
757.607	63.22
757.786	62.14
757.965	61.24
758.144	61.87
758.323	62.83
758.502	63.42
758.681	63.35
758.86	64.42
759.039	64.05
759.218	64.83
759.397	64.71
759.576	63.38
759.755	63.48
759.934	63.46
760.113	64
760.291	62.74
760.47	62.58
760.649	62.84
760.828	63.4
761.007	63.66
761.186	64.04
761.364	64.01
761.543	64.57
761.722	63.89
761.901	63.66
762.079	63.46
762.258	63.91
762.437	63.77
762.615	62.67
762.794	61.87
762.972	60.7
763.151	59.99
763.33	59.57
763.508	58.91
763.687	58.83
763.865	59.01
764.044	57.85
764.222	56.87
764.401	56.53
764.579	56.31
764.758	56.21
764.936	56.72
765.114	55.93
765.293	56.25
765.471	57.37
765.65	58.55
765.828	58.74
766.006	59.26
766.184	60.18
766.363	60.49
766.541	60.79
766.719	61.72
766.898	61.71
767.076	63.22
767.254	63.82
767.432	64.06
767.61	63.61
767.788	63.76
767.967	63.41
768.145	64.06
768.323	63.67
768.501	64.6
768.679	64.51
768.857	64.61
769.035	64.73
769.213	65.55
769.391	65.18
769.569	65.21
769.747	65.57
769.925	66.32
770.103	65.59
770.281	66.17
770.459	67.55
770.636	67.44
770.814	68.32
770.992	68.82
771.17	67.82
771.348	68.9
771.525	68.95
771.703	68.56
771.881	69.41
772.059	70.32
772.236	71.05
772.414	70.61
772.592	71.26
772.769	71.46
772.947	70.21
773.125	70.94
773.302	69.53
773.48	71.21
773.657	71.49
773.835	70.53
774.013	71.78
774.19	72.37
774.368	71.64
774.545	73.06
774.723	73.93
774.9	73.82
775.077	74.81
775.255	75.99
775.432	76.16
775.61	75.97
775.787	76.4
775.964	76.23
776.142	77.12
776.319	77.41
776.496	77.05
776.674	74.87
776.851	75.36
777.028	73.58
777.205	74.38
777.382	72.23
777.56	72.56
777.737	75.01
777.914	72.5
778.091	71.97
778.268	71.84
778.445	71.13
778.622	71.17
778.8	71.67
778.977	72.71
779.154	76.95
779.331	78.5
779.508	78.9
779.685	77.89
779.862	79.46
780.038	77.68
780.215	78.25
780.392	76.8
780.569	77.49
780.746	78.43
780.923	77.87
781.1	72.3
781.277	69.23
781.453	68.64
781.63	67.45
781.807	66.98
781.984	67.61
782.16	68.7
782.337	69.6
782.514	69.26
782.691	70.07
782.867	69.69
783.044	69.34
783.221	72.6
783.397	74.25
783.574	74.21
783.75	76.08
783.927	79.01
784.103	77.77
784.28	77.45
784.456	76.72
784.633	75.51
784.809	76.52
784.986	77.82
785.162	76.16
785.339	74.36
785.515	74.81
785.692	73.31
785.868	72.63
786.044	72.03
786.221	72.73
786.397	73.77
786.573	72.05
786.749	72.26
786.926	72.82
787.102	72.97
787.278	73.43
787.454	73.5
787.631	75.44
787.807	73.97
787.983	73.37
788.159	72.08
788.335	72.35
788.511	73.51
788.687	73.18
788.863	72.31
789.039	73.26
789.216	72.17
789.392	72.14
789.568	71.72
789.744	71.73
789.919	71.56
790.095	70.84
790.271	71.77
790.447	70.92
790.623	70.68
790.799	69.44
790.975	67.91
791.151	69.12
791.327	68.58
791.502	67.98
791.678	67.86
791.854	68.78
792.03	72.07
792.205	72.72
792.381	73.93
792.557	74.31
792.733	75.77
792.908	77.09
793.084	76.39
793.259	77.79
793.435	75.12
793.611	75.2
793.786	75.32
793.962	73.28
794.137	73.17
794.313	70.69
794.488	69.84
794.664	69.8
794.839	69.98
795.015	71.59
795.19	70.51
795.366	71.38
795.541	70.4
795.716	68.81
795.892	69.3
796.067	67.6
796.242	69.09
796.418	68.22
796.593	69.49
796.768	69.95
796.944	70.64
797.119	70.99
797.294	70.88
797.469	73.2
797.644	74.53
797.82	73.58
797.995	72.77
798.17	71.98
798.345	72
798.52	70.23
798.695	70.32
798.87	68.47
799.045	66.73
799.22	68.44
799.395	68.63
799.57	68.56
799.745	69.61
799.92	70.91
800.095	73.88
800.27	76.01
800.445	74
800.62	72.51
800.795	74.27
800.97	77.48
801.145	74.68
801.319	74.13
801.494	74.56
801.669	73.6
801.844	74.85
802.018	71.74
802.193	72.22
802.368	73.25
802.543	72.83
802.717	70.79
802.892	69.56
803.067	70.18
803.241	68.14
803.416	69.86
803.59	70.41
803.765	68.87
803.94	72.14
804.114	71.07
804.289	72.92
804.463	75.14
804.638	73.59
804.812	73.56
804.986	71.63
805.161	72.16
805.335	69.07
805.51	68.44
805.684	66.48
805.858	64.15
806.033	60.71
806.207	59.35
806.381	58.46
806.556	59.07
806.73	58.46
806.904	62.01
807.078	59.88
807.253	60.01
807.427	61.03
807.601	62.47
807.775	63.68
807.949	66.98
808.123	66.98
808.298	68.22
808.472	69.68
808.646	69.53
808.82	66.46
808.994	67.11
809.168	68.41
809.342	71.06
809.516	72.27
809.69	71.28
809.864	71.37
810.038	76.87
810.212	74.68
810.385	74.3
810.559	75.76
810.733	77.71
810.907	80.74
811.081	78.04
811.255	75.44
811.428	76.58
811.602	76.8
811.776	77.79
811.95	72.11
812.123	75.08
812.297	73.78
812.471	71.47
812.644	70.4
812.818	72.09
812.992	73.31
813.165	75.02
813.339	69.8
813.512	69.59
813.686	70.04
813.86	71.03
814.033	68.84
814.207	70.18
814.38	70.97
814.554	72.9
814.727	70.53
814.9	72.96
815.074	72.6
815.247	75.67
815.421	72.75
815.594	73.64
815.767	72.48
815.941	72.51
816.114	74.32
816.287	77.3
816.46	74.56
816.634	73.41
816.807	75.76
816.98	75.84
817.153	76.82
817.327	79.18
817.5	77.11
817.673	80.95
817.846	81.75
818.019	82.17
818.192	79.73
818.365	80.23
818.538	83.31
818.711	78.01
818.884	75.99
819.057	73.51
819.23	73.51
819.403	70.34
819.576	67.88
819.749	66.84
819.922	65.57
820.095	63.79
820.268	63.91
820.441	59.97
820.614	57.71
820.786	56.02
820.959	57.27
821.132	53.46
821.305	52.55
821.477	51.19
821.65	50.44
821.823	49.18
821.996	47.84
822.168	46.45
822.341	45.73
822.514	45.58
822.686	45.25
822.859	44.59
823.031	45.19
823.204	45.65
823.376	45.71
823.549	45.58
823.722	45.33
823.894	46.55
824.067	46.66
824.239	47.48
824.411	48.24
824.584	48.77
824.756	48.85
824.929	49.06
825.101	48.92
825.273	49.29
825.446	49.24
825.618	49.96
825.79	49.83
825.963	50.24
826.135	50.17
826.307	49.44
826.479	49.19
826.652	48.88
826.824	48.78
826.996	48.31
827.168	47.94
827.34	48.47
827.512	47.99
827.684	47.11
827.856	47.2
828.029	48.39
828.201	48.11
828.373	47.94
828.545	48.9
828.717	49.82
828.889	50.94
829.061	51.33
829.232	51.78
829.404	52.43
829.576	53.73
829.748	54.08
829.92	54.66
830.092	57.36
830.264	58.81
830.436	59.7
830.607	60.5
830.779	61.79
830.951	63.47
831.123	63.7
831.294	62.83
831.466	61.16
831.638	61.52
831.809	59.28
831.981	60.82
832.153	59.79
832.324	59.32
832.496	59.69
832.667	59.37
832.839	58.17
833.011	55.66
833.182	57.71
833.354	59.14
833.525	61.77
833.697	61.24
833.868	58.63
834.039	61.42
834.211	60.82
834.382	57.38
834.554	57.56
834.725	56.69
834.896	56.57
835.068	55.93
835.239	55.01
835.41	54.39
835.581	54.51
835.753	53.6
835.924	51.63
836.095	51.54
836.266	52.69
836.438	50.98
836.609	51.98
836.78	52.76
836.951	54.06
837.122	54.09
837.293	52.46
837.464	53.97
837.635	57.24
837.806	59.28
837.977	60.21
838.148	62.34
838.319	65.09
838.49	65.88
838.661	69.15
838.832	70.79
839.003	68.96
839.174	72.19
839.345	71.24
839.516	73.08
839.687	75.06
839.857	75.55
840.028	75.96
840.199	76.08
840.37	79.14
840.54	81.12
840.711	76.34
840.882	83.7
841.053	83.06
841.223	84.18
841.394	82.06
841.564	80.6
841.735	82.11
841.906	80.72
842.076	74.41
842.247	77.34
842.417	76.65
842.588	77.95
842.758	77.89
842.929	75.07
843.099	77.32
843.27	79.34
843.44	76.64
843.611	76.31
843.781	73.63
843.951	76.74
844.122	74.24
844.292	76.05
844.462	79.37
844.633	77.63
844.803	84.83
844.973	86.39
845.144	83.18
845.314	87.24
845.484	87.16
845.654	96.58
845.824	110.7
845.995	109.74
846.165	105.88
846.335	106.94
846.505	107.22
846.675	112.08
846.845	114.04
847.015	117.17
847.185	117.69
847.355	118.43
847.525	125.05
847.695	132.86
847.865	135.74
848.035	141.17
848.205	134.32
848.375	143.72
848.545	117.54
848.715	115.39
848.884	107.89
849.054	114.3
849.224	119.16
849.394	114.42
849.564	97.93
849.733	98.38
849.903	94.73
850.073	100.8
850.243	93.83
850.412	98.24
850.582	99.65
850.752	106.29
850.921	98.89
851.091	100.05
851.26	100.53
851.43	105.39
851.599	100.88
851.769	105.61
851.939	98.74
852.108	105.71
852.278	111.7
852.447	108.62
852.616	106.71
852.786	108.56
852.955	103.11
853.125	101.78
853.294	102.49
853.463	98.52
853.633	102.23
853.802	105.15
853.971	102.82
854.141	103.83
854.31	103.62
854.479	101.64
854.648	106.27
854.818	104.19
854.987	101.21
855.156	109.35
855.325	116.22
855.494	124.73
855.663	121
855.832	112.34
856.001	124.03
856.171	121.04
856.34	133.36
856.509	127.63
856.678	132.29
856.847	140.47
857.016	124.34
857.185	124.85
857.353	124.49
857.522	136.97
857.691	151.32
857.86	143.17
858.029	138.96
858.198	139.57
858.367	155.83
858.535	151.05
858.704	154.77
858.873	155.97
859.042	161.04
859.21	150.06
859.379	154.37
859.548	136.73
859.717	133.84
859.885	132.53
860.054	120.61
860.222	98.46
860.391	121.76
860.56	106.59
860.728	108.69
860.897	100.9
861.065	96.53
861.234	91
861.402	94.15
861.571	94.07
861.739	103.05
861.908	106.65
862.076	119.07
862.244	111.5
862.413	112.72
862.581	120.89
862.749	113.14
862.918	120.82
863.086	118.8
863.254	129.53
863.423	133.89
863.591	137.8
863.759	139.5
863.927	133.2
864.096	122.43
864.264	130.19
864.432	125.1
864.6	134.75
864.768	132.53
864.936	136.26
865.104	126.93
865.272	130.58
865.44	131.52
865.608	123.06
865.776	125.14
865.944	133.47
866.112	126.8
866.28	119.49
866.448	121.44
866.616	115.94
866.784	118.04
866.952	123.85
867.12	119.23
867.288	123.74
867.455	124.43
867.623	132.93
867.791	123.66
867.959	120.57
868.127	121.71
868.294	118.45
868.462	115.53
868.63	113.47
868.797	115.39
868.965	109.56
869.133	100.75
869.3	105.4
869.468	97.97
869.636	87.13
869.803	98.64
869.971	109.31
870.138	108.59
870.306	109.48
870.473	101.67
870.641	98.52
870.808	100.37
870.975	102.03
871.143	108.49
871.31	109.86
871.478	131.83
871.645	120.44
871.812	111.92
871.98	108.66
872.147	108.35
872.314	103.65
872.482	100.28
872.649	105.89
872.816	108.22
872.983	101.35
873.15	104
873.318	100.33
873.485	112.77
873.652	108.56
873.819	123.09
873.986	134.05
874.153	141.45
874.32	139.2
874.487	149.83
874.654	136.16
874.821	139.48
874.988	132.94
875.155	131.75
875.322	129.13
875.489	137.01
875.656	119.08
875.823	116.92
875.99	120.67
876.157	134.35
876.324	118.89
876.49	126.1
876.657	116.92
876.824	112.79
876.991	117.22
877.157	106.49
877.324	112.16
877.491	126.35
877.658	123.1
877.824	114.05
877.991	108.4
878.157	107.82
878.324	102.1
878.491	106.67
878.657	120.33
878.824	114.92
878.99	118.12
879.157	119.5
879.323	107.18
879.49	105.75
879.656	114.3
879.823	110.21
879.989	104.76
880.156	103.89
880.322	97.43
880.488	89.5
880.655	87.03
880.821	85.38
880.987	84.51
881.154	86.66
881.32	85.52
881.486	82.2
881.652	80.51
881.819	79.48
881.985	76.98
882.151	78.82
882.317	76.02
882.483	72.66
882.649	69.72
882.816	66.86
882.982	61.26
883.148	59.32
883.314	56.15
883.48	57.01
883.646	54.11
883.812	51.66
883.978	50.65
884.144	49.95
884.31	48.46
884.476	49.6
884.642	49.78
884.807	53.13
884.973	51.83
885.139	52.66
885.305	53.27
885.471	55.41
885.637	55.75
885.802	55.12
885.968	55.66
886.134	57.8
886.3	54.94
886.465	53.88
886.631	50.6
886.797	52.94
886.962	54
887.128	52.7
887.293	54.75
887.459	60.33
887.625	63.51
887.79	66.04
887.956	66.44
888.121	72.59
888.287	74
888.452	78.67
888.618	84.76
888.783	90.47
