Data from LC_186__Reflection_3.txt Node
Date: Tue Nov 17 13:17:45 EST 2015
User: robert
Spectrometer: USB4E03001
Autoset integration time: false
Trigger mode: 4
Integration Time (sec): 1.000000E-1
Scans to average: 15
Electric dark correction enabled: true
Nonlinearity correction enabled: false
Boxcar width: 5
Stray light correction enabled: false
XAxis mode: Wavelengths
Stop averaging: false
Number of Pixels in Spectrum: 3648
>>>>>Begin Spectral Data<<<<<
177.566	224.08
177.785	254.78
178.005	-870.52
178.225	288.88
178.445	-457.95
178.665	-92.64
178.885	42.2
179.105	-159.45
179.324	497.43
179.544	848.26
179.764	210.42
179.984	107.96
180.204	120.8
180.423	138.24
180.643	198.5
180.863	-693.87
181.083	-1069.9
181.302	129.87
181.522	40.1
181.742	69.82
181.961	-68.63
182.181	105.78
182.401	85.8
182.621	152.87
182.84	126.9
183.06	581.73
183.279	-856.61
183.499	7531.09
183.719	566.86
183.938	150.38
184.158	162.33
184.377	183.48
184.597	158.4
184.816	-16.94
185.036	-26.77
185.256	-75.86
185.475	-13.07
185.695	-28.43
185.914	-49.01
186.134	-35.33
186.353	-29.48
186.572	-104.27
186.792	-43.97
187.011	-5.57
187.231	-206.13
187.45	-855.64
187.67	-70.89
187.889	-64.77
188.108	-18.31
188.328	43.24
188.547	28.85
188.766	303.2
188.986	-108.99
189.205	-60.39
189.424	-119.45
189.644	-60.58
189.863	-16.49
190.082	-39.05
190.302	16.57
190.521	73.38
190.74	-864.29
190.959	-114.44
191.178	78.6
191.398	72.54
191.617	132.37
191.836	40.15
192.055	40.83
192.274	48.77
192.494	-70
192.713	136.78
192.932	161.22
193.151	287.73
193.37	4036.51
193.589	-114800
193.808	4507.87
194.027	-192.78
194.246	-216.77
194.465	1517.68
194.685	176.36
194.904	125.61
195.123	15037.5
195.342	273.8
195.561	46.3
195.78	58.62
195.999	56.95
196.218	34.14
196.436	66.92
196.655	65.19
196.874	38.84
197.093	58.38
197.312	44.13
197.531	58.09
197.75	49.75
197.969	68.13
198.188	76.89
198.407	77.3
198.625	83.1
198.844	73.17
199.063	16.22
199.282	20.14
199.501	3.23
199.719	38.29
199.938	24.4
200.157	58.19
200.376	-176.13
200.594	-26.34
200.813	17.65
201.032	68.34
201.251	109.94
201.469	2079.26
201.688	605.55
201.907	-1551.27
202.125	271.49
202.344	303.3
202.563	69.74
202.781	126.28
203	144.64
203.218	59.79
203.437	117.61
203.656	158.19
203.874	319
204.093	250
204.311	298.94
204.53	-4642.11
204.748	272.07
204.967	-176.16
205.185	29.09
205.404	14.49
205.622	-47.32
205.841	-54.63
206.059	-43.71
206.278	-36.79
206.496	-60.54
206.715	-36.66
206.933	-85.78
207.151	-46.49
207.37	-63
207.588	-77.95
207.806	-138.19
208.025	-65.76
208.243	-55.05
208.461	-106.04
208.68	-212.8
208.898	419.68
209.116	677.65
209.335	-829.9
209.553	778.8
209.771	-289.2
209.989	-54.98
210.208	-47.28
210.426	-109.3
210.644	-93.12
210.862	-48.09
211.081	-2.59
211.299	13.45
211.517	29.45
211.735	17.56
211.953	17.47
212.171	15.68
212.39	-65.93
212.608	-21.23
212.826	27.01
213.044	90.43
213.262	118.17
213.48	-3485.07
213.698	-231.9
213.916	134.84
214.134	-197.28
214.352	-10.13
214.57	-37.64
214.788	922.69
215.006	229.51
215.224	134.92
215.442	41.68
215.66	37.53
215.878	24.28
216.096	12.55
216.314	-4.91
216.532	20.66
216.75	19.12
216.968	-0.62
217.185	4.64
217.403	13.51
217.621	18.83
217.839	7.84
218.057	8.95
218.275	6.97
218.492	18.47
218.71	22.46
218.928	34.08
219.146	52.16
219.363	74.95
219.581	45.37
219.799	18.5
220.017	-5.95
220.234	1
220.452	15.22
220.67	17.81
220.887	20.62
221.105	16.45
221.323	7.84
221.54	19.54
221.758	34.07
221.976	37.37
222.193	55.89
222.411	60.09
222.629	63.44
222.846	61.16
223.064	48.49
223.281	48.44
223.499	45.76
223.716	58.65
223.934	51.38
224.151	36.32
224.369	42.15
224.586	28.27
224.804	41.9
225.021	31.98
225.239	25.09
225.456	27.47
225.674	12.63
225.891	25.35
226.108	12.15
226.326	3.99
226.543	11.28
226.76	17.55
226.978	16.5
227.195	7.62
227.413	9.29
227.63	13.22
227.847	13.7
228.064	13.26
228.282	8.87
228.499	11.65
228.716	11.67
228.934	12.46
229.151	9.97
229.368	10.52
229.585	11.42
229.802	15.26
230.02	17.01
230.237	18.3
230.454	18.5
230.671	22.85
230.888	20.21
231.105	21.25
231.323	18.52
231.54	19.09
231.757	19.72
231.974	19
232.191	17.8
232.408	13.92
232.625	10.36
232.842	14.6
233.059	11.15
233.276	13.58
233.493	7.1
233.71	10.79
233.927	11.61
234.144	11.37
234.361	12.61
234.578	10.47
234.795	12.05
235.012	13.5
235.229	8.59
235.446	1.3
235.663	0.91
235.879	6.16
236.096	7.44
236.313	5.19
236.53	5.58
236.747	7.04
236.964	4.62
237.181	0.8
237.397	-1.66
237.614	0.49
237.831	5.86
238.048	6.74
238.264	12.64
238.481	8.56
238.698	5.51
238.915	10.95
239.131	16.02
239.348	23.37
239.565	22.62
239.781	26.96
239.998	28.23
240.215	29.75
240.431	27.62
240.648	22.19
240.865	20.72
241.081	25.19
241.298	22.33
241.514	19.01
241.731	16.05
241.947	15.58
242.164	12.32
242.38	11.95
242.597	10.27
242.814	9.16
243.03	11.32
243.246	10.74
243.463	10.33
243.679	8.12
243.896	7.26
244.112	3.47
244.329	3.72
244.545	3.09
244.762	3.76
244.978	0.54
245.194	3.3
245.411	2.49
245.627	5.63
245.843	5.63
246.06	7.16
246.276	5.26
246.492	7.84
246.709	8.09
246.925	9.72
247.141	9.65
247.357	11.62
247.574	11.42
247.79	10.17
248.006	8.37
248.222	8.16
248.439	7
248.655	7.72
248.871	6.8
249.087	5.79
249.303	4.98
249.519	4.07
249.736	1.34
249.952	-0.57
250.168	1.05
250.384	3.79
250.6	1.74
250.816	3.09
251.032	3.38
251.248	3.42
251.464	4.64
251.68	4.7
251.896	5.07
252.112	4.09
252.328	5.37
252.544	4.04
252.76	1.83
252.976	2.93
253.192	5.58
253.408	6.72
253.624	8.94
253.84	9.74
254.056	9.8
254.272	9.53
254.487	12.22
254.703	11.31
254.919	10.82
255.135	15.42
255.351	13.46
255.567	12.2
255.782	6.24
255.998	5.55
256.214	6.51
256.43	5.01
256.646	5.51
256.861	5.01
257.077	5.61
257.293	8.11
257.508	7.33
257.724	8.5
257.94	7.55
258.155	10.09
258.371	10.6
258.587	8.25
258.802	7.08
259.018	6.73
259.234	6.84
259.449	7.31
259.665	7.25
259.88	6.41
260.096	6.78
260.312	6.31
260.527	5.68
260.743	5.94
260.958	6.82
261.174	7.85
261.389	7.53
261.605	7.8
261.82	8.12
262.036	7.49
262.251	7.83
262.466	6.34
262.682	8.73
262.897	10.35
263.113	7.14
263.328	6.35
263.543	5.67
263.759	6.75
263.974	6.2
264.189	5.15
264.405	7.19
264.62	8.36
264.835	9.27
265.051	6.26
265.266	6.06
265.481	9.11
265.696	9.93
265.912	10.29
266.127	8.5
266.342	8.27
266.557	6.76
266.773	7.16
266.988	6.77
267.203	7.4
267.418	8.38
267.633	8.26
267.848	7.99
268.064	5.64
268.279	4.79
268.494	5.62
268.709	6.63
268.924	8.45
269.139	6.1
269.354	6.06
269.569	6.47
269.784	4.65
269.999	3.42
270.214	2.95
270.429	4.59
270.644	5.35
270.859	6.68
271.074	6.17
271.289	5.97
271.504	5.71
271.719	5.03
271.934	5.35
272.149	5.87
272.363	7.54
272.578	7.85
272.793	7.27
273.008	6.98
273.223	5.69
273.438	4.84
273.653	4.49
273.867	5.11
274.082	5.79
274.297	5.09
274.512	5.27
274.726	4.73
274.941	3.75
275.156	4.98
275.371	4.34
275.585	5.18
275.8	6.2
276.015	5.75
276.229	5.11
276.444	3.66
276.659	4.98
276.873	4.92
277.088	4.94
277.302	5.09
277.517	4.42
277.732	5.05
277.946	5.49
278.161	6.14
278.375	5.31
278.59	6.01
278.804	8.02
279.019	6.17
279.233	5.85
279.448	6.15
279.662	7.1
279.877	6.59
280.091	6.53
280.306	5.19
280.52	4.59
280.735	6.49
280.949	6.12
281.163	6.11
281.378	7.69
281.592	6.65
281.806	6.15
282.021	5.94
282.235	6.39
282.449	7.21
282.664	8
282.878	9.18
283.092	7.79
283.307	8.5
283.521	8.27
283.735	6.38
283.949	7.59
284.164	7
284.378	6.55
284.592	6.43
284.806	6.1
285.02	5.83
285.234	3.95
285.449	3.87
285.663	3.94
285.877	3.69
286.091	4.78
286.305	4.67
286.519	5.3
286.733	5.96
286.947	6.3
287.161	6.2
287.375	5.67
287.589	6.57
287.803	7.13
288.017	7.6
288.231	7.23
288.445	7.18
288.659	7.67
288.873	6.5
289.087	6.92
289.301	6.32
289.515	7.34
289.729	7.89
289.943	7.25
290.157	7.08
290.371	5.47
290.584	6.45
290.798	6.13
291.012	6.38
291.226	7.29
291.44	5.79
291.654	6.4
291.867	4.93
292.081	4.55
292.295	5.31
292.509	4.89
292.722	5.79
292.936	6.16
293.15	6.38
293.364	4.92
293.577	4.88
293.791	5.72
294.005	5.02
294.218	5.62
294.432	6.5
294.645	5.15
294.859	6.5
295.073	6.86
295.286	5.21
295.5	5.16
295.713	6.64
295.927	6.8
296.14	7.26
296.354	7.43
296.568	7.31
296.781	7.18
296.994	8.33
297.208	7.93
297.421	8.01
297.635	9.02
297.848	8.68
298.062	8.79
298.275	8.45
298.489	7.96
298.702	9.02
298.915	9.09
299.129	9.33
299.342	9.34
299.555	9.16
299.769	9.28
299.982	9.9
300.195	10.04
300.409	8.8
300.622	8.72
300.835	9.01
301.048	7.56
301.262	7.69
301.475	7.84
301.688	8.23
301.901	8.6
302.115	8.32
302.328	8.04
302.541	7.9
302.754	8.74
302.967	9.73
303.18	10.01
303.393	11.1
303.607	11.49
303.82	10.64
304.033	9.32
304.246	8.96
304.459	8.66
304.672	7.76
304.885	8.59
305.098	8.21
305.311	8.07
305.524	7.37
305.737	6.91
305.95	7.19
306.163	6.48
306.376	7.3
306.589	7.79
306.802	7.96
307.015	7.35
307.228	7.65
307.44	7.1
307.653	6.42
307.866	6.61
308.079	6.45
308.292	5.98
308.505	7.03
308.718	6.53
308.93	5.75
309.143	5.47
309.356	5.17
309.569	4.64
309.781	5.54
309.994	4.32
310.207	4.76
310.42	4.22
310.632	2.99
310.845	2.76
311.058	2.92
311.27	3.03
311.483	3.42
311.696	4.37
311.908	3.89
312.121	3.7
312.333	4.54
312.546	4.53
312.759	3.94
312.971	6.07
313.184	6.16
313.396	5.76
313.609	6.68
313.821	7.03
314.034	7.75
314.246	8.71
314.459	9.07
314.671	10.3
314.884	10.99
315.096	12.19
315.309	10.48
315.521	10.5
315.733	11.35
315.946	11.22
316.158	12.13
316.371	11.05
316.583	11.51
316.795	11.25
317.008	10.46
317.22	10.38
317.432	10.54
317.644	9.9
317.857	11.26
318.069	11.37
318.281	11.73
318.494	11.15
318.706	11.17
318.918	10
319.13	10.6
319.342	12.01
319.555	9.99
319.767	10.28
319.979	11.46
320.191	10.79
320.403	11.31
320.615	10.34
320.827	9.95
321.039	11.15
321.252	12.17
321.464	11.82
321.676	11.1
321.888	12.66
322.1	13.25
322.312	13.34
322.524	13.68
322.736	12.91
322.948	13.69
323.16	13.19
323.372	12.39
323.584	12.54
323.796	12.46
324.007	12.87
324.219	13.44
324.431	14.28
324.643	15.6
324.855	15.73
325.067	16.51
325.279	16.64
325.491	17.34
325.702	17.99
325.914	18.09
326.126	18.87
326.338	20.07
326.55	19.93
326.761	18.97
326.973	19.18
327.185	19.57
327.396	19.85
327.608	19.72
327.82	20.34
328.032	21.03
328.243	21.26
328.455	21.21
328.666	20.48
328.878	21.83
329.09	22.89
329.301	23.14
329.513	23.47
329.725	23.55
329.936	23.97
330.148	24.74
330.359	24.6
330.571	24.68
330.782	26.43
330.994	26.85
331.205	25.88
331.417	25.57
331.628	25.77
331.84	26.73
332.051	26.9
332.262	27.67
332.474	28.01
332.685	29.03
332.897	29.74
333.108	30.11
333.319	29.95
333.531	30.8
333.742	31.12
333.953	30.73
334.165	30.49
334.376	31.9
334.587	32.33
334.799	31.72
335.01	31.34
335.221	31.45
335.432	30.98
335.644	31.88
335.855	32.72
336.066	33
336.277	33.96
336.488	33.95
336.7	33.44
336.911	33.39
337.122	33.84
337.333	34.04
337.544	34.86
337.755	34.72
337.966	34.65
338.177	34.31
338.388	34.29
338.599	34.16
338.811	34.73
339.022	34.28
339.233	34.85
339.444	34.83
339.655	36.18
339.866	35.68
340.076	35.06
340.287	34.69
340.498	34.16
340.709	35.08
340.92	35.01
341.131	34.95
341.342	36.07
341.553	36.21
341.764	36.59
341.975	35.96
342.185	36.27
342.396	37.17
342.607	38.32
342.818	39.25
343.029	38.63
343.239	38.79
343.45	39.38
343.661	39.26
343.872	39.68
344.082	40.16
344.293	39.86
344.504	39.92
344.714	39.41
344.925	38.44
345.136	37.93
345.346	37.9
345.557	38.01
345.768	37.66
345.978	37.4
346.189	37.23
346.399	37.21
346.61	37.04
346.821	36.81
347.031	36.83
347.242	36.75
347.452	37.59
347.663	38.24
347.873	38.2
348.084	37.88
348.294	38.36
348.504	37.85
348.715	37.16
348.925	37.48
349.136	36.94
349.346	37.45
349.557	38.46
349.767	37.77
349.977	36.95
350.188	37.63
350.398	38.11
350.608	37.87
350.819	37.36
351.029	37.35
351.239	37.52
351.449	38.04
351.66	37.81
351.87	37.05
352.08	36.98
352.29	37.35
352.501	35.77
352.711	35.65
352.921	35.56
353.131	36.6
353.341	36.68
353.552	35.9
353.762	36.08
353.972	35.84
354.182	36.22
354.392	36.49
354.602	36.82
354.812	37.67
355.022	37.58
355.232	37.67
355.442	37.07
355.652	37.38
355.862	38.28
356.072	38.46
356.282	38.49
356.492	38.06
356.702	37.84
356.912	37.5
357.122	37.27
357.332	36.85
357.542	36.84
357.752	36.9
357.962	37.15
358.171	36.61
358.381	36.13
358.591	35.89
358.801	35.73
359.011	35.56
359.221	35.88
359.43	36.47
359.64	36.38
359.85	35.96
360.06	36.27
360.269	36.29
360.479	36.3
360.689	36.14
360.899	36.63
361.108	36.68
361.318	36.25
361.528	36.01
361.737	35.64
361.947	36.02
362.156	36.16
362.366	35.64
362.576	35.2
362.785	35.34
362.995	35.51
363.204	35.05
363.414	35.42
363.623	36.04
363.833	36.17
364.042	36.23
364.252	35.51
364.461	35.75
364.671	36.04
364.88	35.87
365.09	36
365.299	35.94
365.509	35.79
365.718	35.62
365.927	35.34
366.137	34.88
366.346	34.62
366.555	34.78
366.765	34.28
366.974	34.42
367.183	34.45
367.393	34.01
367.602	33.96
367.811	34.38
368.021	33.77
368.23	34.13
368.439	34.27
368.648	34.23
368.857	34.55
369.067	35.17
369.276	34.84
369.485	35.19
369.694	34.83
369.903	35.27
370.112	34.75
370.321	34.87
370.531	34.02
370.74	33.73
370.949	33.26
371.158	33.29
371.367	32.61
371.576	33.06
371.785	32.65
371.994	33.04
372.203	32.31
372.412	32.54
372.621	32.39
372.83	32.31
373.039	32.92
373.248	33.32
373.457	33.47
373.666	33.56
373.874	33.12
374.083	33.04
374.292	32.36
374.501	32.66
374.71	32.4
374.919	32.48
375.128	32.59
375.336	32.25
375.545	32.35
375.754	32.04
375.963	32.06
376.171	32.24
376.38	32.46
376.589	32.96
376.798	32.77
377.006	33.19
377.215	33.35
377.424	33.21
377.632	32.79
377.841	32.6
378.05	32.53
378.258	32.2
378.467	31.89
378.675	31.6
378.884	31.19
379.093	30.95
379.301	30.84
379.51	30.34
379.718	30.44
379.927	30.57
380.135	30.31
380.344	30.14
380.552	30.53
380.761	30.15
380.969	30.01
381.177	30.23
381.386	30.41
381.594	30.18
381.803	30.29
382.011	30.28
382.219	29.79
382.428	29.93
382.636	29.73
382.845	29.76
383.053	30.27
383.261	29.99
383.469	30.16
383.678	30.62
383.886	30.46
384.094	30.36
384.302	30.45
384.511	30.78
384.719	30.42
384.927	30.53
385.135	30.28
385.343	30.03
385.552	30.4
385.76	30.22
385.968	30.01
386.176	30.1
386.384	30.21
386.592	29.98
386.8	29.89
387.008	30.09
387.216	30.06
387.424	29.8
387.633	29.67
387.841	29.49
388.049	29.43
388.257	29.37
388.465	29.22
388.672	28.76
388.88	29.1
389.088	29.33
389.296	29.17
389.504	29.64
389.712	29.6
389.92	29.73
390.128	29.76
390.336	29.7
390.544	29.15
390.751	29.12
390.959	29.31
391.167	28.96
391.375	28.75
391.583	28.59
391.79	28.17
391.998	28.24
392.206	27.87
392.414	27.7
392.621	27.76
392.829	27.79
393.037	27.5
393.244	27.46
393.452	27.26
393.66	27.02
393.867	27.16
394.075	27.32
394.283	27.41
394.49	27.46
394.698	27.78
394.905	27.44
395.113	27.6
395.32	27.63
395.528	27.81
395.735	28.05
395.943	28.03
396.15	27.91
396.358	27.38
396.565	26.99
396.773	27.03
396.98	26.84
397.188	27.05
397.395	26.79
397.602	26.79
397.81	26.79
398.017	26.57
398.225	26.62
398.432	26.58
398.639	26.78
398.847	26.89
399.054	26.48
399.261	26.09
399.468	25.8
399.676	26.05
399.883	25.93
400.09	25.62
400.297	25.74
400.505	25.91
400.712	25.98
400.919	25.9
401.126	26.1
401.333	26.43
401.54	26.57
401.748	26.55
401.955	26.43
402.162	26.92
402.369	26.85
402.576	26.84
402.783	26.36
402.99	26.11
403.197	26.22
403.404	25.92
403.611	25.93
403.818	26.01
404.025	25.97
404.232	25.87
404.439	25.64
404.646	25.9
404.853	25.58
405.06	25.84
405.267	26.04
405.474	25.92
405.681	25.75
405.887	26.01
406.094	26
406.301	26.01
406.508	25.89
406.715	25.77
406.922	25.6
407.128	25.67
407.335	25.42
407.542	25.3
407.749	25.48
407.955	25.91
408.162	25.53
408.369	25.56
408.575	25.49
408.782	25.62
408.989	25.88
409.195	26.14
409.402	26.14
409.609	26.02
409.815	25.89
410.022	25.66
410.228	25.45
410.435	25.58
410.642	25.51
410.848	25.57
411.055	25.36
411.261	24.96
411.468	24.7
411.674	24.47
411.881	24.74
412.087	24.92
412.294	25.16
412.5	25.16
412.706	25.3
412.913	25.33
413.119	25.65
413.326	25.77
413.532	25.79
413.738	25.83
413.945	25.75
414.151	25.71
414.357	25.68
414.564	25.41
414.77	25.19
414.976	25.16
415.182	25.2
415.389	24.93
415.595	24.94
415.801	25
416.007	25.07
416.214	25.25
416.42	25.33
416.626	25.17
416.832	25.26
417.038	25.35
417.244	25.03
417.45	24.98
417.657	24.71
417.863	24.79
418.069	24.63
418.275	24.4
418.481	24.5
418.687	24.37
418.893	24.38
419.099	24.16
419.305	24.14
419.511	24.29
419.717	24.23
419.923	24.33
420.129	24.18
420.335	24.32
420.541	24.26
420.746	24.26
420.952	24.24
421.158	24.2
421.364	24.32
421.57	24.35
421.776	24.19
421.982	24.13
422.187	24.07
422.393	24.08
422.599	23.97
422.805	23.94
423.01	23.83
423.216	23.78
423.422	23.86
423.628	23.82
423.833	23.81
424.039	23.68
424.245	23.61
424.45	23.62
424.656	23.64
424.862	23.66
425.067	23.73
425.273	23.66
425.478	23.77
425.684	23.51
425.889	23.45
426.095	23.46
426.301	23.62
426.506	23.64
426.712	23.64
426.917	23.54
427.123	23.63
427.328	23.57
427.533	23.58
427.739	23.37
427.944	23.58
428.15	23.59
428.355	23.43
428.561	23.42
428.766	23.37
428.971	23.36
429.177	23.44
429.382	23.22
429.587	23.19
429.793	23.24
429.998	23.27
430.203	23.33
430.408	23.21
430.614	23.11
430.819	23.12
431.024	23.3
431.229	23.32
431.434	23.42
431.64	23.43
431.845	23.53
432.05	23.59
432.255	23.77
432.46	23.73
432.665	23.92
432.87	24.01
433.076	23.77
433.281	23.88
433.486	23.86
433.691	23.8
433.896	23.86
434.101	23.85
434.306	23.81
434.511	23.82
434.716	23.65
434.921	23.51
435.126	23.54
435.331	23.7
435.535	23.67
435.74	23.82
435.945	23.8
436.15	23.67
436.355	23.68
436.56	23.53
436.765	23.64
436.97	23.96
437.174	23.81
437.379	23.82
437.584	23.88
437.789	23.76
437.993	23.74
438.198	23.55
438.403	23.57
438.608	23.58
438.812	23.65
439.017	23.46
439.222	23.2
439.426	23.22
439.631	23.21
439.836	23.17
440.04	22.93
440.245	22.87
440.45	23.01
440.654	22.91
440.859	22.85
441.063	23.04
441.268	23.02
441.472	23.06
441.677	23.19
441.881	23.25
442.086	23.32
442.29	23.54
442.495	23.67
442.699	23.62
442.904	23.76
443.108	23.65
443.312	23.46
443.517	23.39
443.721	23.43
443.925	23.31
444.13	23.25
444.334	23.01
444.538	22.75
444.743	22.46
444.947	22.52
445.151	22.49
445.356	22.63
445.56	22.66
445.764	22.7
445.968	22.75
446.173	22.72
446.377	22.63
446.581	22.77
446.785	22.86
446.989	22.9
447.193	22.94
447.398	23.01
447.602	23.05
447.806	23.01
448.01	22.89
448.214	22.82
448.418	22.79
448.622	22.9
448.826	22.76
449.03	22.83
449.234	22.77
449.438	22.6
449.642	22.48
449.846	22.35
450.05	22.31
450.254	22.3
450.458	22.3
450.662	22.28
450.866	21.98
451.069	22.19
451.273	22.12
451.477	22.37
451.681	22.51
451.885	22.51
452.089	22.49
452.292	22.53
452.496	22.67
452.7	22.66
452.904	22.72
453.107	22.86
453.311	22.7
453.515	22.69
453.719	22.61
453.922	22.48
454.126	22.37
454.33	22.47
454.533	22.35
454.737	22.15
454.94	21.91
455.144	21.97
455.348	21.96
455.551	21.89
455.755	22.1
455.958	21.85
456.162	21.92
456.365	21.97
456.569	21.78
456.772	21.84
456.976	22.06
457.179	22.31
457.383	22.25
457.586	22.31
457.79	22.6
457.993	22.59
458.196	22.7
458.4	22.8
458.603	23.01
458.807	23.1
459.01	23.17
459.213	23.21
459.417	23.11
459.62	23.09
459.823	23.04
460.026	22.82
460.23	22.66
460.433	22.63
460.636	22.53
460.839	22.33
461.042	22.36
461.246	22.29
461.449	22.13
461.652	22.13
461.855	22.11
462.058	21.97
462.261	22.03
462.464	22.08
462.668	22
462.871	21.87
463.074	21.95
463.277	21.71
463.48	21.76
463.683	21.68
463.886	21.76
464.089	21.72
464.292	21.93
464.495	21.99
464.698	21.98
464.901	22.21
465.104	22.27
465.306	22.47
465.509	22.48
465.712	22.43
465.915	22.69
466.118	22.55
466.321	22.59
466.524	22.39
466.726	22.29
466.929	22.44
467.132	22.36
467.335	22.54
467.538	22.4
467.74	22.5
467.943	22.61
468.146	22.38
468.348	22.4
468.551	22.35
468.754	22.53
468.956	22.62
469.159	22.42
469.362	22.42
469.564	22.3
469.767	22.41
469.969	22.34
470.172	22.35
470.375	22.33
470.577	22.39
470.78	22.49
470.982	22.61
471.185	22.61
471.387	22.73
471.59	22.78
471.792	22.73
471.995	22.66
472.197	22.64
472.399	22.56
472.602	22.75
472.804	22.86
473.007	22.78
473.209	22.7
473.411	22.72
473.614	22.69
473.816	22.74
474.018	22.76
474.22	22.8
474.423	22.91
474.625	22.94
474.827	22.7
475.03	22.55
475.232	22.59
475.434	22.68
475.636	22.6
475.838	22.59
476.04	22.53
476.243	22.63
476.445	22.58
476.647	22.6
476.849	22.34
477.051	22.45
477.253	22.6
477.455	22.6
477.657	22.41
477.859	22.38
478.061	22.32
478.263	22.23
478.465	22.17
478.667	22.24
478.869	22.25
479.071	22.49
479.273	22.56
479.475	22.49
479.677	22.53
479.879	22.58
480.081	22.57
480.283	22.54
480.485	22.45
480.686	22.48
480.888	22.46
481.09	22.44
481.292	22.32
481.494	22.16
481.695	22.22
481.897	22.14
482.099	22.19
482.301	22.29
482.502	22.34
482.704	22.48
482.906	22.51
483.107	22.41
483.309	22.32
483.511	22.33
483.712	22.39
483.914	22.28
484.115	22.25
484.317	22.25
484.519	22.13
484.72	22.1
484.922	22.01
485.123	21.97
485.325	21.96
485.526	21.96
485.728	21.92
485.929	21.86
486.131	21.95
486.332	21.94
486.534	21.92
486.735	22.07
486.936	22.07
487.138	22.11
487.339	22.11
487.541	22.08
487.742	22.04
487.943	22.12
488.144	22.15
488.346	22.15
488.547	22.22
488.748	22.23
488.95	22.17
489.151	22.27
489.352	22.25
489.553	22.23
489.755	22.38
489.956	22.41
490.157	22.39
490.358	22.47
490.559	22.45
490.76	22.46
490.961	22.49
491.163	22.54
491.364	22.48
491.565	22.53
491.766	22.49
491.967	22.46
492.168	22.53
492.369	22.52
492.57	22.49
492.771	22.45
492.972	22.49
493.173	22.56
493.374	22.56
493.575	22.58
493.776	22.56
493.976	22.63
494.177	22.59
494.378	22.58
494.579	22.5
494.78	22.37
494.981	22.43
495.182	22.46
495.382	22.35
495.583	22.28
495.784	22.31
495.985	22.28
496.185	22.34
496.386	22.41
496.587	22.55
496.788	22.88
496.988	23.01
497.189	23.15
497.39	23.08
497.59	23.14
497.791	23.32
497.992	23.36
498.192	23.46
498.393	23.52
498.593	23.55
498.794	23.44
498.994	23.47
499.195	23.43
499.395	23.4
499.596	23.43
499.796	23.43
499.997	23.39
500.197	23.4
500.398	23.52
500.598	23.45
500.799	23.63
500.999	23.77
501.199	23.55
501.4	23.74
501.6	23.71
501.801	23.91
502.001	24.01
502.201	24.2
502.402	24.31
502.602	24.27
502.802	24.43
503.002	24.28
503.203	24.27
503.403	24.57
503.603	24.65
503.803	24.79
504.003	24.61
504.204	24.7
504.404	24.78
504.604	24.8
504.804	25.01
505.004	25.02
505.204	25.1
505.404	25.29
505.604	25.05
505.804	25.01
506.005	25.01
506.205	25.16
506.405	25.28
506.605	25.29
506.805	25.3
507.005	25.32
507.204	25.27
507.404	25.5
507.604	25.55
507.804	25.71
508.004	25.98
508.204	26.1
508.404	26.23
508.604	26.18
508.804	26.17
509.003	26.38
509.203	26.36
509.403	26.62
509.603	26.71
509.803	26.78
510.002	26.89
510.202	26.89
510.402	26.9
510.602	26.99
510.801	27.05
511.001	27.15
511.201	27.11
511.4	27.18
511.6	27.2
511.8	27.16
511.999	27.32
512.199	27.47
512.398	27.6
512.598	27.82
512.797	27.82
512.997	27.96
513.197	28.07
513.396	28.29
513.596	28.43
513.795	28.67
513.994	28.83
514.194	28.87
514.393	28.97
514.593	28.99
514.792	29.13
514.992	29.36
515.191	29.6
515.39	29.73
515.59	29.78
515.789	30.01
515.988	30.07
516.188	30.2
516.387	30.29
516.586	30.33
516.786	30.42
516.985	30.37
517.184	30.51
517.383	30.64
517.582	30.65
517.782	30.87
517.981	30.94
518.18	31.03
518.379	31.21
518.578	31.31
518.777	31.47
518.976	31.62
519.176	31.97
519.375	32.04
519.574	32.14
519.773	32.26
519.972	32.24
520.171	32.32
520.37	32.43
520.569	32.38
520.768	32.49
520.967	32.68
521.166	32.69
521.365	32.58
521.564	32.72
521.762	32.72
521.961	32.82
522.16	32.9
522.359	32.95
522.558	33.08
522.757	33.19
522.956	33.39
523.154	33.45
523.353	33.66
523.552	33.8
523.751	33.89
523.949	34.03
524.148	34.35
524.347	34.59
524.546	34.69
524.744	34.79
524.943	34.93
525.142	34.96
525.34	34.99
525.539	35.07
525.737	35.1
525.936	35.24
526.135	35.3
526.333	35.26
526.532	35.33
526.73	35.43
526.929	35.52
527.127	35.68
527.326	35.79
527.524	35.89
527.723	35.94
527.921	36.1
528.12	36.22
528.318	36.28
528.516	36.35
528.715	36.39
528.913	36.47
529.112	36.48
529.31	36.48
529.508	36.53
529.707	36.58
529.905	36.68
530.103	36.68
530.301	36.65
530.5	36.68
530.698	36.7
530.896	36.76
531.094	36.91
531.293	37.09
531.491	37.19
531.689	37.25
531.887	37.32
532.085	37.35
532.283	37.52
532.481	37.59
532.68	37.69
532.878	37.87
533.076	37.99
533.274	38.01
533.472	38.03
533.67	38.02
533.868	38.08
534.066	38.18
534.264	38.2
534.462	38.29
534.66	38.36
534.858	38.46
535.056	38.4
535.253	38.46
535.451	38.61
535.649	38.64
535.847	38.79
536.045	38.91
536.243	39
536.441	39.16
536.638	39.07
536.836	39.2
537.034	39.25
537.232	39.53
537.43	39.52
537.627	39.49
537.825	39.5
538.023	39.63
538.22	39.64
538.418	39.63
538.616	39.64
538.813	39.83
539.011	39.88
539.209	39.89
539.406	39.8
539.604	39.92
539.801	40
539.999	40.24
540.196	40.35
540.394	40.39
540.591	40.49
540.789	40.63
540.986	40.73
541.184	40.68
541.381	40.74
541.579	40.71
541.776	40.73
541.974	40.66
542.171	40.69
542.368	40.68
542.566	40.7
542.763	40.69
542.96	40.65
543.158	40.61
543.355	40.7
543.552	40.75
543.75	40.8
543.947	40.87
544.144	40.98
544.341	40.93
544.539	40.97
544.736	40.89
544.933	40.94
545.13	40.93
545.327	40.92
545.524	41.01
545.722	41.06
545.919	41.12
546.116	41.19
546.313	41.27
546.51	41.32
546.707	41.31
546.904	41.64
547.101	41.8
547.298	41.87
547.495	41.9
547.692	41.73
547.889	41.84
548.086	41.98
548.283	41.96
548.48	42.01
548.677	42.04
548.874	42.14
549.07	41.86
549.267	41.95
549.464	42.15
549.661	42.24
549.858	42.52
550.055	42.43
550.251	42.31
550.448	42.41
550.645	42.45
550.842	42.61
551.038	42.76
551.235	42.99
551.432	42.72
551.628	42.78
551.825	42.85
552.022	42.71
552.218	42.69
552.415	42.64
552.612	42.71
552.808	42.77
553.005	42.71
553.201	42.6
553.398	42.52
553.594	42.62
553.791	42.53
553.987	42.4
554.184	42.46
554.38	42.63
554.577	42.88
554.773	42.8
554.97	42.83
555.166	42.87
555.362	42.92
555.559	43.02
555.755	43.12
555.952	43.2
556.148	43.52
556.344	43.84
556.541	43.88
556.737	43.86
556.933	43.94
557.129	44.05
557.326	44.23
557.522	44.26
557.718	44.26
557.914	44.2
558.11	44.25
558.307	44.27
558.503	44.34
558.699	44.4
558.895	44.37
559.091	44.52
559.287	44.46
559.483	44.5
559.679	44.54
559.876	44.72
560.072	44.95
560.268	44.85
560.464	44.76
560.66	44.53
560.856	44.67
561.052	44.82
561.247	44.75
561.443	44.78
561.639	44.66
561.835	44.64
562.031	44.57
562.227	44.51
562.423	44.63
562.619	44.75
562.815	44.97
563.01	44.8
563.206	44.84
563.402	44.9
563.598	44.85
563.793	44.99
563.989	45.26
564.185	45.42
564.381	45.41
564.576	45.36
564.772	45.32
564.968	45.21
565.163	45.14
565.359	45.17
565.555	45.01
565.75	45.35
565.946	45.5
566.141	45.28
566.337	45.31
566.532	45.38
566.728	45.56
566.923	45.74
567.119	45.78
567.314	46.01
567.51	46.01
567.705	46.18
567.901	46
568.096	45.84
568.292	45.99
568.487	45.96
568.682	46.2
568.878	46.17
569.073	46.08
569.268	46.15
569.464	46.16
569.659	46.26
569.854	46.46
570.05	46.55
570.245	46.64
570.44	46.58
570.635	46.71
570.831	46.69
571.026	46.71
571.221	46.69
571.416	46.69
571.611	46.75
571.806	46.82
572.002	46.84
572.197	46.88
572.392	46.85
572.587	46.93
572.782	46.9
572.977	46.87
573.172	46.99
573.367	47.08
573.562	47.14
573.757	47.22
573.952	47.27
574.147	47.1
574.342	46.85
574.537	47.04
574.732	47.01
574.927	47.09
575.121	46.9
575.316	46.95
575.511	47.03
575.706	47.2
575.901	47.05
576.096	46.93
576.29	47.04
576.485	47.46
576.68	47.43
576.875	47.56
577.069	47.52
577.264	47.71
577.459	47.39
577.654	47.45
577.848	47.5
578.043	47.48
578.238	47.72
578.432	47.71
578.627	47.56
578.821	47.44
579.016	47.45
579.21	47.63
579.405	47.77
579.6	48.16
579.794	48.09
579.989	47.76
580.183	47.92
580.378	47.77
580.572	47.67
580.766	47.81
580.961	47.86
581.155	47.83
581.35	47.79
581.544	47.82
581.738	47.7
581.933	47.85
582.127	48.11
582.321	48.01
582.516	47.77
582.71	48.02
582.904	47.85
583.099	47.72
583.293	47.9
583.487	47.83
583.681	47.66
583.875	47.74
584.07	47.8
584.264	47.89
584.458	48.01
584.652	48.24
584.846	48.33
585.04	48.52
585.234	48.85
585.428	48.97
585.623	49
585.817	49.25
586.011	49.46
586.205	49.37
586.399	49.21
586.593	49.04
586.787	49.15
586.981	48.99
587.174	49.11
587.368	49.14
587.562	49.01
587.756	49.17
587.95	49.2
588.144	49.16
588.338	48.93
588.532	48.89
588.725	49.18
588.919	49.2
589.113	49.44
589.307	49.19
589.501	49.09
589.694	49.36
589.888	49.15
590.082	49.13
590.275	48.97
590.469	49.01
590.663	48.93
590.856	48.63
591.05	48.61
591.244	48.42
591.437	48.67
591.631	48.66
591.824	48.43
592.018	48.45
592.212	48.45
592.405	48.51
592.599	48.46
592.792	48.87
592.986	49.2
593.179	49.38
593.372	49.14
593.566	49.34
593.759	49.53
593.953	49.66
594.146	49.72
594.339	49.74
594.533	49.64
594.726	49.9
594.92	49.82
595.113	49.69
595.306	49.53
595.499	49.91
595.693	49.45
595.886	49.5
596.079	49.34
596.272	49.32
596.466	49.34
596.659	49.58
596.852	49.6
597.045	49.48
597.238	49.41
597.431	49.37
597.624	49.5
597.818	49.63
598.011	49.69
598.204	49.71
598.397	49.82
598.59	49.76
598.783	49.65
598.976	49.58
599.169	49.77
599.362	49.84
599.555	50.05
599.748	49.85
599.941	49.74
600.134	49.47
600.326	49.53
600.519	49.4
600.712	49.37
600.905	49.34
601.098	49.56
601.291	49.38
601.483	49.51
601.676	49.32
601.869	49.47
602.062	49.68
602.255	49.72
602.447	49.68
602.64	49.84
602.833	49.86
603.025	49.7
603.218	49.55
603.411	49.93
603.603	49.98
603.796	50.18
603.989	50.02
604.181	50.12
604.374	50.07
604.566	50.01
604.759	49.92
604.951	50.01
605.144	50.16
605.336	50.13
605.529	49.8
605.721	49.87
605.914	49.82
606.106	49.8
606.299	49.74
606.491	49.76
606.683	49.88
606.876	50.03
607.068	50.01
607.26	50.05
607.453	50.13
607.645	50.21
607.837	50.04
608.03	50.02
608.222	50.24
608.414	50.27
608.606	50.56
608.799	50.44
608.991	50.22
609.183	50.08
609.375	50.33
609.567	50.49
609.759	50.54
609.952	50.64
610.144	50.59
610.336	50.29
610.528	50.41
610.72	50.42
610.912	50.47
611.104	50.74
611.296	50.87
611.488	50.79
611.68	50.57
611.872	50.57
612.064	50.38
612.256	50.72
612.448	51
612.64	50.95
612.832	50.71
613.023	50.63
613.215	50.52
613.407	50.73
613.599	50.69
613.791	50.96
613.983	51.01
614.174	51.33
614.366	50.79
614.558	50.8
614.75	50.78
614.941	50.88
615.133	51.12
615.325	51.15
615.516	51.16
615.708	50.84
615.9	50.89
616.091	50.93
616.283	50.68
616.475	50.8
616.666	50.64
616.858	50.72
617.049	50.84
617.241	50.69
617.432	50.81
617.624	50.6
617.815	50.93
618.007	50.8
618.198	50.72
618.39	50.82
618.581	50.93
618.773	51.22
618.964	50.95
619.155	50.82
619.347	50.93
619.538	50.97
619.729	51.3
619.921	51.24
620.112	51.05
620.303	50.9
620.494	51.04
620.686	51.18
620.877	51.07
621.068	51.27
621.259	51.21
621.451	51.33
621.642	51.33
621.833	51.14
622.024	51.22
622.215	51.32
622.406	51.55
622.597	51.41
622.788	51.42
622.98	51.57
623.171	51.89
623.362	52.16
623.553	52.43
623.744	52.64
623.935	52.53
624.126	52.4
624.317	52.55
624.508	52.48
624.698	52.36
624.889	52.26
625.08	52.38
625.271	52.14
625.462	51.92
625.653	51.61
625.844	51.31
626.034	51.35
626.225	51.53
626.416	51.4
626.607	51.53
626.798	51.65
626.988	51.67
627.179	51.53
627.37	51.55
627.56	51.48
627.751	51.41
627.942	51.33
628.132	51.33
628.323	51.19
628.514	51.32
628.704	51.28
628.895	51.35
629.085	51.54
629.276	51.12
629.466	51.17
629.657	50.94
629.847	51.14
630.038	51.14
630.228	51.08
630.419	51.09
630.609	51.07
630.8	51.27
630.99	51.1
631.181	50.79
631.371	51.13
631.561	50.97
631.752	51.27
631.942	51.28
632.132	51.5
632.323	51.62
632.513	51.54
632.703	51.62
632.893	51.55
633.084	51.63
633.274	51.87
633.464	52.04
633.654	51.94
633.844	52.06
634.034	51.95
634.225	51.82
634.415	51.88
634.605	51.94
634.795	51.81
634.985	51.85
635.175	52.02
635.365	51.96
635.555	51.93
635.745	52.19
635.935	52.19
636.125	52.3
636.315	52.3
636.505	52.07
636.695	52.06
636.885	51.88
637.075	51.67
637.265	51.64
637.455	51.79
637.644	51.94
637.834	51.65
638.024	51.6
638.214	51.46
638.404	51.52
638.593	51.71
638.783	51.79
638.973	51.96
639.163	51.95
639.352	51.95
639.542	51.75
639.732	51.63
639.921	51.81
640.111	52.15
640.301	52.2
640.49	52.28
640.68	52.47
640.87	52.45
641.059	52.08
641.249	51.99
641.438	51.69
641.628	51.67
641.817	51.54
642.007	51.53
642.196	51.19
642.386	51.31
642.575	51.47
642.764	51.13
642.954	50.89
643.143	51.28
643.333	51.6
643.522	51.77
643.711	51.87
643.901	51.91
644.09	51.73
644.279	52.06
644.469	52.28
644.658	52
644.847	52.03
645.036	52.6
645.226	52.42
645.415	52.25
645.604	52.33
645.793	52.17
645.982	52.39
646.171	52.55
646.361	52.22
646.55	52.08
646.739	52.37
646.928	52.24
647.117	51.88
647.306	52.35
647.495	52.48
647.684	52.59
647.873	52.87
648.062	52.91
648.251	53.08
648.44	53.09
648.629	53.1
648.818	53.05
649.007	53.22
649.196	53.45
649.384	53.6
649.573	53.42
649.762	53.36
649.951	53.22
650.14	53.37
650.328	53.28
650.517	53.54
650.706	53.32
650.895	53.2
651.083	53.44
651.272	53.35
651.461	52.61
651.65	52.82
651.838	52.67
652.027	52.42
652.216	51.81
652.404	51.55
652.593	51.29
652.781	51.63
652.97	51.82
653.158	51.64
653.347	51.49
653.535	52.03
653.724	51.92
653.912	51.82
654.101	51.97
654.289	52.26
654.478	52.56
654.666	52.63
654.855	52.03
655.043	51.72
655.231	52.11
655.42	52.35
655.608	52.1
655.796	52.4
655.985	53.01
656.173	52.92
656.361	52.99
656.55	52.58
656.738	52.84
656.926	53.26
657.114	53.42
657.302	52.98
657.491	52.69
657.679	52.96
657.867	52.89
658.055	52.53
658.243	52.99
658.431	53.01
658.619	53.31
658.807	52.99
658.996	53.15
659.184	53.2
659.372	53.35
659.56	53.45
659.748	53.08
659.936	52.76
660.124	52.46
660.311	52.18
660.499	51.99
660.687	52.26
660.875	52.56
661.063	52.31
661.251	52.27
661.439	52.03
661.627	52.04
661.814	52.34
662.002	52.52
662.19	53.21
662.378	53.2
662.565	53.34
662.753	53.01
662.941	52.52
663.129	52.37
663.316	52.36
663.504	52.69
663.692	52.67
663.879	52.67
664.067	52.83
664.254	52.67
664.442	52.87
664.63	53.04
664.817	52.79
665.005	53.1
665.192	53.61
665.38	53.37
665.567	52.88
665.755	52.75
665.942	52.58
666.13	52.68
666.317	52.62
666.504	52.51
666.692	52.34
666.879	52.69
667.067	52.52
667.254	52.46
667.441	52.71
667.629	53.17
667.816	53.51
668.003	53.45
668.19	53.25
668.378	52.99
668.565	53.01
668.752	52.96
668.939	52.53
669.127	52.88
669.314	52.78
669.501	52.78
669.688	52.45
669.875	52.04
670.062	52.01
670.249	52.17
670.436	52.54
670.623	52.64
670.81	53.13
670.997	53.4
671.184	53.05
671.371	53.22
671.558	53.38
671.745	53.5
671.932	53.72
672.119	53.97
672.306	53.96
672.493	53.4
672.68	52.93
672.867	52.43
673.054	51.89
673.24	52.06
673.427	51.92
673.614	51.91
673.801	51.53
673.988	51.32
674.174	51.37
674.361	50.97
674.548	51.42
674.734	51.9
674.921	52.07
675.108	52.56
675.294	52.79
675.481	52.88
675.668	52.58
675.854	53.33
676.041	53.71
676.227	53.68
676.414	54.44
676.601	54.65
676.787	54.51
676.974	54.45
677.16	54.72
677.347	54.36
677.533	54.55
677.719	54.48
677.906	54.14
678.092	54.09
678.279	53.98
678.465	53.48
678.651	53.16
678.838	52.95
679.024	52.88
679.21	52.71
679.397	52.5
679.583	52.13
679.769	51.95
679.955	52.08
680.142	52.08
680.328	52.27
680.514	52.29
680.7	52.48
680.886	52.71
681.073	52.82
681.259	52.83
681.445	52.94
681.631	53.26
681.817	53.41
682.003	53.26
682.189	53.3
682.375	53.04
682.561	53.16
682.747	53.14
682.933	52.99
683.119	52.7
683.305	52.78
683.491	52.87
683.677	52.4
683.863	52.39
684.049	52.69
684.235	52.26
684.42	52.4
684.606	51.88
684.792	51.68
684.978	51.91
685.164	52.68
685.349	52.67
685.535	52.78
685.721	52.96
685.907	53.21
686.092	53.3
686.278	53.66
686.464	54.13
686.649	54.51
686.835	54.32
687.021	54.07
687.206	53.57
687.392	53.76
687.577	54.06
687.763	53.97
687.948	53.74
688.134	53.36
688.319	53.64
688.505	53.46
688.69	53.55
688.876	53.75
689.061	53.78
689.247	54.32
689.432	54.25
689.618	54.14
689.803	54.33
689.988	54.45
690.174	54.69
690.359	54.66
690.544	54.98
690.73	54.85
690.915	55.31
691.1	55.64
691.285	54.89
691.471	54.85
691.656	54.71
691.841	55.07
692.026	55.03
692.211	55.04
692.396	54.61
692.582	54.36
692.767	54.56
692.952	54.09
693.137	54.13
693.322	54.15
693.507	54.25
693.692	54.36
693.877	53.81
694.062	53.4
694.247	53.48
694.432	53.93
694.617	53.36
694.802	52.71
694.987	53.1
695.172	52.94
695.357	53.04
695.541	52.69
695.726	52.64
695.911	52.86
696.096	53.41
696.281	53.16
696.466	52.95
696.65	52.83
696.835	52.93
697.02	52.34
697.204	52.36
697.389	52.89
697.574	52.99
697.759	53.27
697.943	53.06
698.128	53.21
698.312	53.4
698.497	53.48
698.682	53.9
698.866	54.13
699.051	54.71
699.235	54.98
699.42	54.58
699.604	54.74
699.789	54.29
699.973	54.39
700.158	54.43
700.342	54.77
700.527	54.36
700.711	54.23
700.895	54.24
701.08	53.76
701.264	53.43
701.448	53.37
701.633	53.04
701.817	53.51
702.001	53.93
702.186	53.65
702.37	52.8
702.554	53.42
702.738	53.5
702.923	53.95
703.107	54.07
703.291	53.59
703.475	54.05
703.659	54.65
703.843	54.37
704.027	54
704.212	54.12
704.396	55.29
704.58	55.36
704.764	55.32
704.948	54.99
705.132	55.52
705.316	55.9
705.5	55.25
705.684	55.51
705.868	55.82
706.052	55.44
706.235	55.42
706.419	54.54
706.603	54.43
706.787	54.39
706.971	54.46
707.155	53.76
707.339	53.83
707.522	53.82
707.706	53.03
707.89	53.2
708.074	53.91
708.257	53.95
708.441	54.22
708.625	54.62
708.808	54.77
708.992	54.66
709.176	55.05
709.359	54.55
709.543	54.92
709.727	54.85
709.91	54.55
710.094	53.87
710.277	54.03
710.461	53.85
710.644	53.12
710.828	52.93
711.011	52.98
711.195	52.43
711.378	52.49
711.562	52.58
711.745	52.76
711.928	53.08
712.112	53.1
712.295	52.61
712.478	52.42
712.662	53.04
712.845	53.07
713.028	53.22
713.212	53.65
713.395	54.13
713.578	54.26
713.761	54.28
713.945	53.68
714.128	54.23
714.311	54.09
714.494	53.98
714.677	53.89
714.86	54.03
715.043	53.63
715.227	53.37
715.41	53.47
715.593	53.2
715.776	52.9
715.959	53.51
716.142	53.48
716.325	53.89
716.508	54.27
716.691	53.74
716.874	53.49
717.057	53.54
717.239	54.02
717.422	53.98
717.605	54.07
717.788	54.66
717.971	54.01
718.154	53.48
718.337	53.54
718.519	53.48
718.702	53
718.885	53.91
719.068	54.44
719.25	54.38
719.433	55.28
719.616	54.96
719.798	54.46
719.981	55.52
720.164	55.6
720.346	55.55
720.529	55.49
720.712	55.97
720.894	55.15
721.077	54.7
721.259	54.14
721.442	53.3
721.624	53.95
721.807	53.48
721.989	52.81
722.172	53.45
722.354	53.78
722.537	54.16
722.719	54.79
722.901	55.03
723.084	54.8
723.266	54.64
723.448	54.82
723.631	54.58
723.813	54.77
723.995	54.08
724.178	53.42
724.36	53.42
724.542	53.16
724.724	52.63
724.907	52.31
725.089	52.89
725.271	53.78
725.453	53.53
725.635	53.89
725.817	54.26
725.999	55.39
726.181	55.87
726.364	55.53
726.546	54.92
726.728	54.83
726.91	54.77
727.092	54.72
727.274	54.09
727.456	54.21
727.638	53.47
727.819	53.47
728.001	53.34
728.183	52.87
728.365	52.61
728.547	52.83
728.729	52.79
728.911	52.66
729.093	52.56
729.274	52.57
729.456	51.61
729.638	51.82
729.82	52.23
730.001	52.07
730.183	51.48
730.365	51.99
730.546	51.83
730.728	51.79
730.91	53.01
731.091	52.79
731.273	52.87
731.455	53.76
731.636	54.16
731.818	53.97
731.999	53.71
732.181	55.06
732.362	54.78
732.544	55.82
732.725	56.33
732.907	54.83
733.088	55.41
733.27	55.8
733.451	55.29
733.633	54.61
733.814	54.65
733.995	54.71
734.177	55.04
734.358	55.14
734.539	54.65
734.721	54.43
734.902	54.2
735.083	54.24
735.264	54.15
735.446	54.97
735.627	55.36
735.808	55.08
735.989	55.32
736.17	54.54
736.351	54.89
736.533	54.44
736.714	54.73
736.895	55.17
737.076	55.39
737.257	55.34
737.438	56.07
737.619	55.83
737.8	55.41
737.981	54.28
738.162	53.78
738.343	53.34
738.524	53.77
738.705	54.33
738.886	54.57
739.067	53.12
739.247	53.4
739.428	52.2
739.609	53.16
739.79	53.53
739.971	54.7
740.151	54.66
740.332	53.9
740.513	53.64
740.694	52.59
740.874	53.14
741.055	54.02
741.236	53.31
741.417	53.89
741.597	53.52
741.778	54
741.958	53.12
742.139	53.78
742.32	54.29
742.5	54.39
742.681	55.03
742.861	54.05
743.042	53.99
743.222	54.95
743.403	54.2
743.583	53.85
743.764	53.14
743.944	54.52
744.124	54.22
744.305	54.7
744.485	55.2
744.666	54.6
744.846	55.42
745.026	55.64
745.207	54.32
745.387	55.96
745.567	56.15
745.747	57.39
745.928	57.34
746.108	57.33
746.288	56.96
746.468	55.4
746.648	55.76
746.829	55.23
747.009	54.47
747.189	54.51
747.369	52.8
747.549	52.74
747.729	51.33
747.909	50.4
748.089	50.89
748.269	50.13
748.449	51.27
748.629	51.07
748.809	51.66
748.989	51.97
749.169	52.1
749.349	52.52
749.529	52.15
749.709	52.39
749.889	52.46
750.068	53.27
750.248	54.69
750.428	54.05
750.608	53.46
750.788	53.35
750.967	53.14
751.147	54.21
751.327	53.97
751.507	54
751.686	54.52
751.866	54.4
752.046	53.72
752.225	54.04
752.405	55
752.585	56.73
752.764	56.91
752.944	57.14
753.123	57.03
753.303	56.72
753.482	57.64
753.662	57.78
753.841	58.21
754.021	57.14
754.2	55.84
754.38	55.81
754.559	55.27
754.739	54.56
754.918	54.41
755.097	53.31
755.277	53.9
755.456	53.26
755.635	53.51
755.815	53.23
755.994	53.71
756.173	54.45
756.352	53.91
756.532	53.51
756.711	54.39
756.89	54.5
757.069	54.25
757.248	53.15
757.427	53.56
757.607	52.99
757.786	54.33
757.965	53.84
758.144	54.52
758.323	54.94
758.502	54.66
758.681	53.58
758.86	54.08
759.039	54.91
759.218	55.73
759.397	55.32
759.576	55.64
759.755	55.36
759.934	56.28
760.113	55.64
760.291	55.58
760.47	56.17
760.649	56.51
760.828	56.51
761.007	56.45
761.186	57.02
761.364	56.61
761.543	57.41
761.722	56.01
761.901	55.08
762.079	54.68
762.258	54.41
762.437	53.85
762.615	54.28
762.794	54.15
762.972	54.72
763.151	55.03
763.33	55.53
763.508	54.85
763.687	54.73
763.865	54.75
764.044	54.48
764.222	53.65
764.401	53.87
764.579	53.26
764.758	53.08
764.936	52.41
765.114	52.41
765.293	51.67
765.471	52.05
765.65	52.52
765.828	53.11
766.006	53.83
766.184	56.21
766.363	56.24
766.541	56.58
766.719	56.99
766.898	58.03
767.076	57.13
767.254	58.33
767.432	57.43
767.61	58.03
767.788	58.25
767.967	57.54
768.145	56.9
768.323	56.8
768.501	57.4
768.679	57.48
768.857	57.08
769.035	57.76
769.213	56.25
769.391	57.2
769.569	57.92
769.747	56.55
769.925	56.51
770.103	56.73
770.281	56.68
770.459	56.38
770.636	55.51
770.814	54.91
770.992	55.23
771.17	55.41
771.348	55.46
771.525	53.53
771.703	55.47
771.881	55.23
772.059	54.08
772.236	54.12
772.414	55.17
772.592	55.62
772.769	56.47
772.947	56.64
773.125	58.08
773.302	57.2
773.48	58.03
773.657	58.35
773.835	59.23
774.013	60.96
774.19	61.41
774.368	62.65
774.545	63
774.723	62.07
774.9	61.27
775.077	60.6
775.255	60.21
775.432	61.02
775.61	59.27
775.787	60.39
775.964	59.32
776.142	59.62
776.319	58.69
776.496	60.42
776.674	61.43
776.851	60.96
777.028	60.74
777.205	61.06
777.382	60.58
777.56	60.91
777.737	61.06
777.914	60.78
778.091	59.95
778.268	58.54
778.445	55.65
778.622	56.18
778.8	56.46
778.977	57.46
779.154	61.66
779.331	60.9
779.508	61.79
779.685	61.31
779.862	62
780.038	62.54
780.215	63.93
780.392	64.57
780.569	62.97
780.746	61.47
780.923	61.45
781.1	57.95
781.277	56.45
781.453	54.27
781.63	53.51
781.807	52.43
781.984	51.98
782.16	50.96
782.337	50.73
782.514	51.27
782.691	53.8
782.867	53.31
783.044	52.53
783.221	53.65
783.397	54.55
783.574	55.53
783.75	56.37
783.927	56.65
784.103	55.66
784.28	55.92
784.456	55.39
784.633	53.88
784.809	54.15
784.986	53.65
785.162	52.45
785.339	54.67
785.515	52.99
785.692	51.88
785.868	50.5
786.044	50.49
786.221	50.09
786.397	49.95
786.573	50.98
786.749	51.01
786.926	50.81
787.102	52.75
787.278	50.66
787.454	51.26
787.631	51.19
787.807	51.89
787.983	51.86
788.159	53.07
788.335	54.6
788.511	54.82
788.687	55.19
788.863	55.71
789.039	56.42
789.216	56.8
789.392	57.22
789.568	58.7
789.744	60.1
789.919	60.24
790.095	57.46
790.271	57.59
790.447	55.24
790.623	54.43
790.799	54.67
790.975	53.69
791.151	53.61
791.327	54.16
791.502	52.49
791.678	52.91
791.854	52.4
792.03	54.87
792.205	54.47
792.381	55.81
792.557	55.99
792.733	55.55
792.908	56.17
793.084	56.75
793.259	56.87
793.435	56.36
793.611	53.89
793.786	55.47
793.962	53.38
794.137	53.45
794.313	53.62
794.488	54.09
794.664	54.84
794.839	53.77
795.015	53.07
795.19	51.13
795.366	50.72
795.541	51.52
795.716	50.61
795.892	51.98
796.067	50.63
796.242	51.1
796.418	49.61
796.593	48.66
796.768	48.98
796.944	48.15
797.119	49.08
797.294	49.95
797.469	49.95
797.644	49.36
797.82	48.02
797.995	47.67
798.17	48.71
798.345	50.44
798.52	52.27
798.695	52.73
798.87	53.77
799.045	53.98
799.22	55.55
799.395	56.13
799.57	58.61
799.745	59.36
799.92	58.92
800.095	58.56
800.27	56.92
800.445	55.63
800.62	55.94
800.795	57.43
800.97	56.9
801.145	55.74
801.319	55.24
801.494	54.74
801.669	55.1
801.844	59.01
802.018	57.64
802.193	58.05
802.368	59.1
802.543	59.11
802.717	60.03
802.892	60.82
803.067	61.58
803.241	62.48
803.416	62.66
803.59	63.06
803.765	60.99
803.94	61.92
804.114	62.41
804.289	61.58
804.463	60.35
804.638	59.5
804.812	58.79
804.986	57.35
805.161	54.08
805.335	51.76
805.51	51.2
805.684	50.43
805.858	49.95
806.033	48.23
806.207	50.01
806.381	51.37
806.556	49.15
806.73	51.52
806.904	51.53
807.078	54.66
807.253	57.2
807.427	58.01
807.601	58.58
807.775	60.85
807.949	62.62
808.123	58.66
808.298	58.37
808.472	63.21
808.646	60.04
808.82	59.23
808.994	59.07
809.168	57.52
809.342	55.22
809.516	56.19
809.69	55.87
809.864	57.65
810.038	60.63
810.212	60.8
810.385	55.65
810.559	58.04
810.733	60.08
810.907	59.3
811.081	58.19
811.255	61.31
811.428	60.17
811.602	58.71
811.776	58.14
811.95	56.66
812.123	55.56
812.297	55.48
812.471	53.2
812.644	53.87
812.818	53.56
812.992	54.93
813.165	53.15
813.339	53.11
813.512	54.12
813.686	53.83
813.86	56.08
814.033	55.3
814.207	53.24
814.38	54.67
814.554	54.03
814.727	54.45
814.9	55.56
815.074	56.54
815.247	57.94
815.421	55.54
815.594	54.34
815.767	54.33
815.941	54.36
816.114	60.36
816.287	61.32
816.46	59.89
816.634	61.26
816.807	59.51
816.98	58.3
817.153	56.19
817.327	56.57
817.5	57.79
817.673	55.3
817.846	58.42
818.019	52.83
818.192	52.47
818.365	52.5
818.538	53.67
818.711	54.04
818.884	56.86
819.057	58.37
819.23	58.42
819.403	57.46
819.576	58.58
819.749	56.52
819.922	57.49
820.095	56.52
820.268	55.68
820.441	54.93
820.614	57.06
820.786	55.12
820.959	55.17
821.132	54.46
821.305	53.83
821.477	54.26
821.65	54.54
821.823	54.39
821.996	54.46
822.168	55.26
822.341	55.19
822.514	54.5
822.686	54.23
822.859	54.3
823.031	54.32
823.204	54.54
823.376	53.98
823.549	53.83
823.722	54.14
823.894	54.72
824.067	54.21
824.239	54.1
824.411	53.74
824.584	54.03
824.756	53.77
824.929	53.91
825.101	53.52
825.273	53.06
825.446	52.72
825.618	52.19
825.79	51.2
825.963	50.79
826.135	50.33
826.307	50.64
826.479	50.21
826.652	50.09
826.824	50.19
826.996	50.88
827.168	52.02
827.34	52.28
827.512	52.71
827.684	52.79
827.856	54.15
828.029	54.76
828.201	53.98
828.373	52.76
828.545	53
828.717	53.22
828.889	52.99
829.061	51.82
829.232	52
829.404	52.22
829.576	52.51
829.748	51.2
829.92	49.42
830.092	50.49
830.264	52.42
830.436	52.07
830.607	51.46
830.779	50.66
830.951	51.67
831.123	52.35
831.294	52.8
831.466	51.48
831.638	52.52
831.809	55.04
831.981	52.67
832.153	52.33
832.324	51.62
832.496	49.02
832.667	50.12
832.839	49.76
833.011	50.65
833.182	50.77
833.354	51.68
833.525	51.73
833.697	49.61
833.868	50.94
834.039	50.38
834.211	51.83
834.382	52.02
834.554	52.62
834.725	53.6
834.896	52.1
835.068	50.49
835.239	49.96
835.41	50.36
835.581	51.43
835.753	51.87
835.924	52.54
836.095	51.38
836.266	53.1
836.438	51.43
836.609	50.48
836.78	49.81
836.951	51.89
837.122	52
837.293	50.94
837.464	50.7
837.635	50.49
837.806	52.15
837.977	50.33
838.148	48.49
838.319	49.58
838.49	53.2
838.661	53.86
838.832	50.36
839.003	50.46
839.174	51.32
839.345	52.76
839.516	53.2
839.687	53.91
839.857	58.57
840.028	58.38
840.199	60.63
840.37	53.49
840.54	52.35
840.711	50.44
840.882	48.05
841.053	48.04
841.223	42.82
841.394	43
841.564	38.99
841.735	34.77
841.906	38.06
842.076	38.09
842.247	34.7
842.417	35.17
842.588	39.31
842.758	44.57
842.929	42.34
843.099	45.79
843.27	45.52
843.44	47.4
843.611	46.25
843.781	41.66
843.951	34.71
844.122	39.58
844.292	40.65
844.462	41.11
844.633	41.71
844.803	43.86
844.973	42.07
845.144	39.48
845.314	39.03
845.484	44.07
845.654	51.44
845.824	62.76
845.995	63.32
846.165	66.21
846.335	68.04
846.505	69.61
846.675	74.58
846.845	69.7
847.015	65.96
847.185	69.48
847.355	68.15
847.525	61.23
847.695	44.39
847.865	41.16
848.035	37.5
848.205	35.54
848.375	35.35
848.545	33.28
848.715	43.98
848.884	50.51
849.054	42.55
849.224	41.07
849.394	41.93
849.564	48.28
849.733	50.11
849.903	52.36
850.073	53.49
850.243	54.37
850.412	52.22
850.582	56.58
850.752	58.4
850.921	59.72
851.091	60.32
851.26	59.9
851.43	62.02
851.599	64.42
851.769	59.51
851.939	58.27
852.108	53.49
852.278	50.6
852.447	43.74
852.616	43.77
852.786	42.45
852.955	45.39
853.125	46.35
853.294	45.55
853.463	45.83
853.633	46.09
853.802	46.96
853.971	46.62
854.141	53.79
854.31	51.64
854.479	46.25
854.648	38.94
854.818	35.32
854.987	28.63
855.156	36.07
855.325	34.3
855.494	37.01
855.663	37.22
855.832	42.49
856.001	45.66
856.171	50.74
856.34	51.91
856.509	59.58
856.678	60.25
856.847	72.13
857.016	63.37
857.185	63.12
857.353	69.8
857.522	74.19
857.691	72.82
857.86	72.2
858.029	71.22
858.198	78.16
858.367	84.19
858.535	84.17
858.704	87.82
858.873	86.79
859.042	81.63
859.21	78.69
859.379	72.58
859.548	78.19
859.717	74.12
859.885	70.76
860.054	67.65
860.222	64.32
860.391	62.09
860.56	53.9
860.728	48.72
860.897	49.75
861.065	42.63
861.234	39.7
861.402	36.71
861.571	31.36
861.739	33.9
861.908	26.33
862.076	17.84
862.244	28.89
862.413	25.71
862.581	31.82
862.749	24.14
862.918	35.16
863.086	39.76
863.254	32.5
863.423	44.5
863.591	50.9
863.759	55.28
863.927	57.07
864.096	57.85
864.264	67.45
864.432	67.94
864.6	67.05
864.768	68.35
864.936	65.48
865.104	72.76
865.272	67
865.44	63.48
865.608	58.17
865.776	72.4
865.944	61.4
866.112	54.35
866.28	55.6
866.448	61.12
866.616	58.44
866.784	69.06
866.952	69.3
867.12	72.38
867.288	68.42
867.455	70.99
867.623	54.61
867.791	59.1
867.959	63.27
868.127	70.8
868.294	70.42
868.462	70.06
868.63	61.54
868.797	42.41
868.965	44.01
869.133	51.62
869.3	59.33
869.468	67.01
869.636	66.57
869.803	65.38
869.971	58.46
870.138	60.19
870.306	57.05
870.473	56.37
870.641	63.73
870.808	57.28
870.975	54.59
871.143	49.85
871.31	48.54
871.478	48.49
871.645	50.37
871.812	48.04
871.98	56.29
872.147	59.64
872.314	59.21
872.482	56.26
872.649	60.35
872.816	65.85
872.983	65.86
873.15	64.57
873.318	68.44
873.485	65.04
873.652	71.95
873.819	64.28
873.986	60.7
874.153	62.48
874.32	66.57
874.487	57.24
874.654	48.5
874.821	48.39
874.988	48.91
875.155	45.66
875.322	44.36
875.489	35.69
875.656	33.2
875.823	40.76
875.99	38.3
876.157	32.96
876.324	38.84
876.49	39.51
876.657	47.17
876.824	55.15
876.991	63.62
877.157	68.15
877.324	72.62
877.491	71.68
877.658	59.27
877.824	51.7
877.991	47.71
878.157	50.27
878.324	50.99
878.491	47.94
878.657	38.15
878.824	36.04
878.99	33.93
879.157	32.38
879.323	30.65
879.49	30.33
879.656	37.4
879.823	43.71
879.989	40.03
880.156	43.94
880.322	44.02
880.488	46.53
880.655	40.36
880.821	45.37
880.987	45.4
881.154	51.59
881.32	59.31
881.486	57.12
881.652	57.13
881.819	62.26
881.985	63.2
882.151	61.18
882.317	60.52
882.483	61.4
882.649	56.78
882.816	58.43
882.982	57.29
883.148	55.9
883.314	55.8
883.48	54.43
883.646	53.58
883.812	52.04
883.978	50.97
884.144	49.95
884.31	49.38
884.476	50.54
884.642	48.62
884.807	48.85
884.973	48.91
885.139	48.53
885.305	48.65
885.471	47.54
885.637	48.36
885.802	48.01
885.968	49.47
886.134	49.35
886.3	49.23
886.465	51.92
886.631	52.05
886.797	53.26
886.962	53.45
887.128	56
887.293	52.8
887.459	53.04
887.625	57.34
887.79	57.82
887.956	63.07
888.121	65.15
888.287	60.93
888.452	58.2
888.618	57.57
888.783	57.21
