Data from LC_160_Reflection_2.txt Node
Date: Mon Nov 16 22:35:02 EST 2015
User: robert
Spectrometer: USB4E03001
Autoset integration time: false
Trigger mode: 4
Integration Time (sec): 1.000000E-1
Scans to average: 15
Electric dark correction enabled: true
Nonlinearity correction enabled: false
Boxcar width: 5
Stray light correction enabled: false
XAxis mode: Wavelengths
Stop averaging: false
Number of Pixels in Spectrum: 3648
>>>>>Begin Spectral Data<<<<<
177.566	2114.46
177.785	238.06
178.005	-1365.55
178.225	106.77
178.445	15.98
178.665	347.26
178.885	163.87
179.105	-230.84
179.324	72.9
179.544	-95.82
179.764	-1033.53
179.984	-303.64
180.204	-258.91
180.423	-264.14
180.643	-302.59
180.863	-201.19
181.083	-186.33
181.302	-237.08
181.522	-191.7
181.742	-158.66
181.961	-310.04
182.181	-281.83
182.401	-418.27
182.621	-1963.98
182.84	-824.03
183.06	-531.59
183.279	-303.43
183.499	-216.04
183.719	-157.65
183.938	-170.02
184.158	-191.5
184.377	-136.86
184.597	-194.55
184.816	-134.83
185.036	-75.38
185.256	-60.29
185.475	-82.82
185.695	-122.97
185.914	-180.5
186.134	-436.25
186.353	-590.38
186.572	-746.74
186.792	-1014.94
187.011	-380.76
187.231	-288.97
187.45	-205.28
187.67	-537.16
187.889	-1798.88
188.108	3598.31
188.328	-958.65
188.547	-315.62
188.766	-471.77
188.986	-713.2
189.205	-499.04
189.424	-351.19
189.644	-1200.52
189.863	-1330.35
190.082	-981.03
190.302	-2003.68
190.521	-1225.16
190.74	1102.67
190.959	458.11
191.178	694.39
191.398	555.11
191.617	499.05
191.836	453.59
192.055	1065.39
192.274	513.53
192.494	606.39
192.713	699.89
192.932	1429.28
193.151	1292.82
193.37	2535.61
193.589	-1586.93
193.808	-434.77
194.027	-588.19
194.246	-4989.39
194.465	824.82
194.685	1757.41
194.904	700.53
195.123	-719.72
195.342	-396.55
195.561	-186.42
195.78	-279.41
195.999	12835.21
196.218	475.69
196.436	392.37
196.655	-1131.61
196.874	-314.3
197.093	-493.1
197.312	-428.7
197.531	1828.9
197.75	740.82
197.969	-2412.53
198.188	-437.95
198.407	-89.58
198.625	-130.16
198.844	-77.61
199.063	-139.42
199.282	-324.3
199.501	-206.36
199.719	-160.7
199.938	-67.02
200.157	-48.74
200.376	-71.86
200.594	-126.99
200.813	-319.08
201.032	-200.74
201.251	-216.51
201.469	-167.58
201.688	-123.78
201.907	-254.14
202.125	-413.56
202.344	14950
202.563	2916.76
202.781	389.28
203	1171.29
203.218	910.63
203.437	878.99
203.656	446.53
203.874	264.92
204.093	259.76
204.311	325.58
204.53	312.37
204.748	499.17
204.967	283.08
205.185	283.55
205.404	334.14
205.622	200.97
205.841	163.61
206.059	191.97
206.278	214.99
206.496	475.58
206.715	284.87
206.933	211.33
207.151	218.2
207.37	245.57
207.588	240.43
207.806	239
208.025	516.83
208.243	-996.92
208.461	1519.58
208.68	-14407.06
208.898	610.1
209.116	539.2
209.335	465.14
209.553	479.42
209.771	4317.08
209.989	1160.48
210.208	2093.35
210.426	-3509.56
210.644	1842.38
210.862	-1633.76
211.081	721.67
211.299	-264.66
211.517	1608.51
211.735	-497.7
211.953	-124242.86
212.171	-3418.37
212.39	-7811.71
212.608	-15797.83
212.826	650.47
213.044	439.53
213.262	394.59
213.48	2451.9
213.698	313.82
213.916	421.94
214.134	291.55
214.352	654.79
214.57	348.05
214.788	458.56
215.006	467.84
215.224	419.69
215.442	315.02
215.66	278.4
215.878	228.58
216.096	255.66
216.314	225.81
216.532	455.31
216.75	352.71
216.968	387.42
217.185	905.45
217.403	1467.55
217.621	-4022.93
217.839	-1220.22
218.057	-1482.44
218.275	2734.76
218.492	740.1
218.71	1420.23
218.928	343.89
219.146	352.87
219.363	307.16
219.581	251.74
219.799	202.99
220.017	209.06
220.234	185.14
220.452	190.69
220.67	200.01
220.887	233.67
221.105	249.36
221.323	216.09
221.54	206.35
221.758	250.87
221.976	245.03
222.193	245.54
222.411	157.06
222.629	169.6
222.846	163.37
223.064	154.14
223.281	132.68
223.499	115.33
223.716	118.67
223.934	91.24
224.151	69.36
224.369	53.99
224.586	52.77
224.804	49.26
225.021	54.54
225.239	42.77
225.456	52.06
225.674	63.7
225.891	49.2
226.108	61.95
226.326	63.51
226.543	73.05
226.76	74.71
226.978	62.23
227.195	68.9
227.413	59.64
227.63	52.48
227.847	47.09
228.064	35.11
228.282	32.58
228.499	29.16
228.716	26.45
228.934	24.19
229.151	21.5
229.368	20.73
229.585	18.93
229.802	19.7
230.02	19.71
230.237	21.89
230.454	24.86
230.671	26.07
230.888	26.17
231.105	29.81
231.323	29.87
231.54	33.07
231.757	33.69
231.974	32.97
232.191	30.63
232.408	37.02
232.625	31.51
232.842	32.99
233.059	35.15
233.276	33.33
233.493	32.63
233.71	31.97
233.927	30.47
234.144	33.79
234.361	31.21
234.578	31.82
234.795	31.46
235.012	32.87
235.229	28.24
235.446	29.73
235.663	30.62
235.879	29.25
236.096	24.85
236.313	20.98
236.53	18.83
236.747	22.87
236.964	23.33
237.181	22.15
237.397	22.27
237.614	24.97
237.831	21.51
238.048	23.84
238.264	26.71
238.481	29.06
238.698	36.35
238.915	39.05
239.131	39.08
239.348	38.26
239.565	38.1
239.781	38.81
239.998	36.77
240.215	35.2
240.431	32.84
240.648	27.59
240.865	26.38
241.081	21.48
241.298	20.67
241.514	18.8
241.731	18.73
241.947	17.57
242.164	15.23
242.38	14.7
242.597	15.28
242.814	15.16
243.03	15.04
243.246	15.34
243.463	17.63
243.679	18.8
243.896	17.26
244.112	18.77
244.329	18.6
244.545	20.01
244.762	20.79
244.978	20.62
245.194	20.11
245.411	19.95
245.627	21.27
245.843	19.56
246.06	17.18
246.276	17.75
246.492	15.72
246.709	14.96
246.925	14.5
247.141	14.08
247.357	13.76
247.574	14.06
247.79	14.67
248.006	13.03
248.222	11.84
248.439	11.58
248.655	12.67
248.871	13.45
249.087	14.57
249.303	13.99
249.519	15.41
249.736	16.69
249.952	15.56
250.168	16.15
250.384	18.14
250.6	21.37
250.816	20.98
251.032	18.33
251.248	18.01
251.464	17.07
251.68	19.06
251.896	18.12
252.112	16.19
252.328	19.43
252.544	18.96
252.76	18.18
252.976	16.94
253.192	17.79
253.408	18.06
253.624	19.14
253.84	17.6
254.056	18.35
254.272	18.22
254.487	20.61
254.703	18.17
254.919	17.97
255.135	17.41
255.351	17.94
255.567	20.02
255.782	21.35
255.998	19.59
256.214	22.98
256.43	19.18
256.646	18.95
256.861	18.29
257.077	19.4
257.293	18.86
257.508	19.99
257.724	22
257.94	20.11
258.155	18.46
258.371	17.63
258.587	16.04
258.802	16.9
259.018	16.11
259.234	14.37
259.449	13.78
259.665	13.05
259.88	13.26
260.096	12.49
260.312	11.78
260.527	12.41
260.743	12.75
260.958	13.09
261.174	12.61
261.389	13.46
261.605	14.29
261.82	14.98
262.036	15.85
262.251	16.44
262.466	16.49
262.682	18.6
262.897	17.76
263.113	18.83
263.328	20.15
263.543	21.68
263.759	21.33
263.974	21.99
264.189	20.79
264.405	20.48
264.62	20.38
264.835	21.45
265.051	21.48
265.266	21.76
265.481	22.34
265.696	22.58
265.912	21.1
266.127	19.84
266.342	18.96
266.557	18.7
266.773	17.82
266.988	16.95
267.203	16.27
267.418	14.85
267.633	14.8
267.848	13.58
268.064	10.97
268.279	12.02
268.494	11.31
268.709	12.06
268.924	12.24
269.139	13.14
269.354	13.66
269.569	12.45
269.784	13.97
269.999	14.89
270.214	14.04
270.429	15.45
270.644	14.68
270.859	14.67
271.074	13.82
271.289	13.37
271.504	13.64
271.719	13.08
271.934	14.16
272.149	13.45
272.363	12.45
272.578	11.75
272.793	11.11
273.008	11.04
273.223	11.08
273.438	10.77
273.653	11.89
273.867	11.54
274.082	11.18
274.297	10.35
274.512	10.31
274.726	10.28
274.941	11.29
275.156	11.94
275.371	12.21
275.585	12.76
275.8	13.38
276.015	13.31
276.229	12.89
276.444	13.29
276.659	14.12
276.873	14.44
277.088	14.47
277.302	13.75
277.517	14.06
277.732	15.58
277.946	15.52
278.161	15.92
278.375	14.41
278.59	14.69
278.804	14.29
279.019	14.29
279.233	13.48
279.448	14.27
279.662	15.12
279.877	15.06
280.091	13.72
280.306	12.34
280.52	12.83
280.735	12.9
280.949	12.41
281.163	13.11
281.378	12.16
281.592	11.32
281.806	10.76
282.021	8.95
282.235	9.44
282.449	9.76
282.664	11.07
282.878	9.59
283.092	10.08
283.307	10.07
283.521	10.95
283.735	11.85
283.949	12.93
284.164	13.15
284.378	14.9
284.592	13.9
284.806	13.57
285.02	13.91
285.234	14.23
285.449	13.49
285.663	13.4
285.877	12.34
286.091	11.78
286.305	10.74
286.519	9.66
286.733	8.8
286.947	9.14
287.161	9.36
287.375	9.26
287.589	9.32
287.803	9.62
288.017	10.84
288.231	9.93
288.445	9.88
288.659	11.66
288.873	12.39
289.087	12.94
289.301	13.57
289.515	12.54
289.729	12.17
289.943	12.42
290.157	12.23
290.371	12.74
290.584	13.51
290.798	14.51
291.012	14.65
291.226	14.72
291.44	15.03
291.654	14.6
291.867	15.37
292.081	14.85
292.295	16.2
292.509	17.28
292.722	16.12
292.936	15.73
293.15	15.92
293.364	14.83
293.577	15.61
293.791	15.27
294.005	15.97
294.218	15.73
294.432	16.55
294.645	15.45
294.859	14.96
295.073	14.57
295.286	15.55
295.5	14.43
295.713	14.14
295.927	13.41
296.14	13.27
296.354	11.94
296.568	11.3
296.781	11.71
296.994	11.56
297.208	11.2
297.421	11.47
297.635	11.2
297.848	11.34
298.062	11.23
298.275	11.79
298.489	11.8
298.702	12.42
298.915	13.51
299.129	13.36
299.342	13.01
299.555	13.74
299.769	14.15
299.982	14.15
300.195	13.96
300.409	15.14
300.622	14.51
300.835	15.38
301.048	15.67
301.262	15.38
301.475	14.6
301.688	15.56
301.901	14.84
302.115	14.71
302.328	14.85
302.541	14.66
302.754	15.28
302.967	15.45
303.18	14.58
303.393	14.16
303.607	13.55
303.82	14.01
304.033	12.71
304.246	13.58
304.459	14.23
304.672	15.53
304.885	15.87
305.098	14.29
305.311	14.11
305.524	14.8
305.737	13.45
305.95	13.65
306.163	12.5
306.376	13.49
306.589	13.03
306.802	11.34
307.015	9.28
307.228	10.4
307.44	10.85
307.653	10.48
307.866	9.42
308.079	12.38
308.292	12.93
308.505	14.04
308.718	13.94
308.93	13.3
309.143	14.08
309.356	14.39
309.569	13.51
309.781	13.4
309.994	14.38
310.207	15.28
310.42	12.94
310.632	11.88
310.845	11.15
311.058	10.29
311.27	10.85
311.483	10.88
311.696	11.05
311.908	11.4
312.121	11.27
312.333	11.74
312.546	11.46
312.759	12.36
312.971	13.26
313.184	14.01
313.396	14.53
313.609	15.01
313.821	14.98
314.034	14.91
314.246	14.42
314.459	14.11
314.671	13.55
314.884	12.73
315.096	12.14
315.309	12.11
315.521	12.73
315.733	12.93
315.946	10.68
316.158	9.84
316.371	9.49
316.583	9.5
316.795	9.74
317.008	9.63
317.22	10.83
317.432	12.48
317.644	11.43
317.857	10.69
318.069	10.39
318.281	12.46
318.494	12.76
318.706	14.04
318.918	14.63
319.13	15.63
319.342	15.58
319.555	15.15
319.767	14.9
319.979	15.41
320.191	15.8
320.403	15.33
320.615	14.6
320.827	15.01
321.039	13.75
321.252	13.16
321.464	11.47
321.676	11.26
321.888	10.96
322.1	10.88
322.312	9.3
322.524	7.79
322.736	9.33
322.948	9.38
323.16	9.17
323.372	9.67
323.584	9.61
323.796	8.57
324.007	8.06
324.219	7.72
324.431	7.73
324.643	8.44
324.855	8.88
325.067	8.73
325.279	7.97
325.491	8.24
325.702	7.65
325.914	7.56
326.126	10.2
326.338	10.93
326.55	10.84
326.761	10.86
326.973	11.65
327.185	12.27
327.396	12.14
327.608	13.4
327.82	12.6
328.032	12.89
328.243	12.7
328.455	12.1
328.666	11.8
328.878	12.57
329.09	11.87
329.301	10.73
329.513	10.53
329.725	9.22
329.936	9.07
330.148	9.9
330.359	10.03
330.571	10.02
330.782	10.04
330.994	10.14
331.205	10.35
331.417	9.75
331.628	11.22
331.84	10.73
332.051	11.68
332.262	11.64
332.474	11.09
332.685	11.57
332.897	11.37
333.108	11.4
333.319	10.92
333.531	11.28
333.742	12.69
333.953	12.05
334.165	12.48
334.376	12.91
334.587	12.39
334.799	12.64
335.01	11.85
335.221	11.64
335.432	10.97
335.644	10.76
335.855	10.04
336.066	10.29
336.277	9.96
336.488	10.17
336.7	8.86
336.911	9.62
337.122	9.5
337.333	9.95
337.544	11.12
337.755	11.36
337.966	11.26
338.177	10.7
338.388	10.21
338.599	11.17
338.811	10.62
339.022	10.75
339.233	10.35
339.444	10.01
339.655	9.03
339.866	8.93
340.076	9.07
340.287	9.56
340.498	9.89
340.709	8.91
340.92	8.12
341.131	7.69
341.342	8.07
341.553	7.81
341.764	8.28
341.975	9.19
342.185	7.88
342.396	7.49
342.607	8.03
342.818	8.52
343.029	9.4
343.239	9.66
343.45	10.38
343.661	9.92
343.872	9.73
344.082	9.4
344.293	8.78
344.504	9.51
344.714	8.27
344.925	7.39
345.136	7.55
345.346	5.78
345.557	6.41
345.768	6.12
345.978	5.95
346.189	6.42
346.399	6.15
346.61	6.94
346.821	6.51
347.031	8.19
347.242	7.77
347.452	7.51
347.663	8.68
347.873	9.03
348.084	8.49
348.294	9.63
348.504	9.81
348.715	10.49
348.925	9.26
349.136	9.03
349.346	8.67
349.557	9.82
349.767	10.55
349.977	10.37
350.188	9.69
350.398	10.02
350.608	9.83
350.819	9.11
351.029	8.92
351.239	9.94
351.449	10.45
351.66	10.29
351.87	10.26
352.08	8.43
352.29	8.87
352.501	8.9
352.711	8.84
352.921	8.56
353.131	8.98
353.341	9.21
353.552	8.92
353.762	8.76
353.972	8.22
354.182	8.65
354.392	9.11
354.602	9.02
354.812	8.77
355.022	8.83
355.232	8.97
355.442	9.55
355.652	9.48
355.862	8.94
356.072	9.53
356.282	9.99
356.492	9.64
356.702	9.41
356.912	9.78
357.122	9.69
357.332	8.92
357.542	8.84
357.752	8.36
357.962	8.08
358.171	7.99
358.381	8.02
358.591	7.53
358.801	7.22
359.011	7.99
359.221	7.8
359.43	7.98
359.64	9.18
359.85	9.05
360.06	8.4
360.269	8.36
360.479	8.48
360.689	8.01
360.899	8.5
361.108	8.21
361.318	7.8
361.528	7.47
361.737	7.05
361.947	6.45
362.156	6.34
362.366	6.48
362.576	6.56
362.785	6.64
362.995	6.53
363.204	6.1
363.414	6.34
363.623	5.94
363.833	6.38
364.042	6.55
364.252	7.3
364.461	7.83
364.671	7.99
364.88	8.03
365.09	8.02
365.299	8.46
365.509	8.57
365.718	8.2
365.927	8.54
366.137	8.55
366.346	8.86
366.555	8.54
366.765	8.26
366.974	8.52
367.183	8.74
367.393	8.7
367.602	8.41
367.811	8.5
368.021	8.55
368.23	8.7
368.439	8.09
368.648	8.02
368.857	7.83
369.067	7.45
369.276	7.08
369.485	6.9
369.694	6.94
369.903	7.33
370.112	6.9
370.321	6.09
370.531	5.7
370.74	5.46
370.949	4.98
371.158	4.92
371.367	5.37
371.576	5.09
371.785	5.12
371.994	5.21
372.203	5.16
372.412	5.66
372.621	6.65
372.83	7.01
373.039	7.66
373.248	7.44
373.457	7.17
373.666	7
373.874	7.14
374.083	7.15
374.292	7.02
374.501	6.49
374.71	6.12
374.919	6.09
375.128	5.81
375.336	5.53
375.545	6.22
375.754	6.2
375.963	6.08
376.171	5.95
376.38	5.74
376.589	6.11
376.798	6.15
377.006	6.56
377.215	7.11
377.424	7.3
377.632	7.36
377.841	7.16
378.05	7.36
378.258	7.28
378.467	7.37
378.675	7.51
378.884	7.24
379.093	7.35
379.301	7.03
379.51	6.13
379.718	5.57
379.927	5.67
380.135	4.74
380.344	4.71
380.552	4.54
380.761	4.52
380.969	4.25
381.177	4.5
381.386	3.8
381.594	3.62
381.803	3.87
382.011	4.44
382.219	3.97
382.428	4.35
382.636	4.26
382.845	4.58
383.053	4.57
383.261	4.59
383.469	4.27
383.678	5.11
383.886	5.48
384.094	5.24
384.302	5.48
384.511	5.79
384.719	6.13
384.927	6.06
385.135	5.78
385.343	5.99
385.552	5.87
385.76	5.77
385.968	5.51
386.176	5.31
386.384	5.4
386.592	4.99
386.8	4.77
387.008	4.99
387.216	5.26
387.424	5.27
387.633	5.43
387.841	5.64
388.049	5.64
388.257	5.42
388.465	5.31
388.672	5.41
388.88	5.14
389.088	5.08
389.296	4.73
389.504	4.64
389.712	4.6
389.92	4.06
390.128	3.94
390.336	4.02
390.544	4.57
390.751	4.34
390.959	4.21
391.167	4.29
391.375	4.6
391.583	4.44
391.79	4.22
391.998	4.19
392.206	4.69
392.414	4.5
392.621	4.38
392.829	4.09
393.037	4.28
393.244	4.35
393.452	4.49
393.66	4.44
393.867	4.88
394.075	4.84
394.283	4.93
394.49	4.45
394.698	4.54
394.905	4.44
395.113	4.43
395.32	4.55
395.528	4.59
395.735	4.71
395.943	4.48
396.15	4.15
396.358	4.32
396.565	4.15
396.773	4.66
396.98	4.68
397.188	4.61
397.395	4.52
397.602	4.48
397.81	4.13
398.017	4
398.225	4.18
398.432	4.46
398.639	4.47
398.847	4.54
399.054	4.2
399.261	4.07
399.468	4.45
399.676	4.7
399.883	4.94
400.09	5.33
400.297	5.56
400.505	5.68
400.712	5.31
400.919	5.35
401.126	5.63
401.333	5.7
401.54	5.93
401.748	5.81
401.955	5.44
402.162	5.05
402.369	5.03
402.576	4.74
402.783	4.58
402.99	4.82
403.197	4.72
403.404	4.37
403.611	4.25
403.818	4.34
404.025	4.01
404.232	4.15
404.439	4.13
404.646	4.05
404.853	3.94
405.06	3.96
405.267	3.69
405.474	3.65
405.681	3.69
405.887	3.55
406.094	3.49
406.301	3.74
406.508	3.74
406.715	3.91
406.922	3.96
407.128	3.84
407.335	3.72
407.542	3.83
407.749	3.96
407.955	4.31
408.162	4.46
408.369	4.32
408.575	4.29
408.782	4.12
408.989	4.16
409.195	4.01
409.402	4.5
409.609	4.85
409.815	5.03
410.022	5.11
410.228	4.85
410.435	4.94
410.642	4.75
410.848	4.87
411.055	4.92
411.261	4.63
411.468	4.61
411.674	4.28
411.881	3.94
412.087	3.97
412.294	3.93
412.5	3.83
412.706	3.83
412.913	4.04
413.119	3.73
413.326	3.47
413.532	3.68
413.738	3.61
413.945	3.89
414.151	3.76
414.357	3.7
414.564	3.4
414.77	3.32
414.976	3.09
415.182	3.36
415.389	3.6
415.595	3.5
415.801	3.43
416.007	3.71
416.214	3.51
416.42	3.55
416.626	3.27
416.832	3.46
417.038	3.45
417.244	3.53
417.45	3.05
417.657	3.06
417.863	3.53
418.069	3.58
418.275	3.39
418.481	3.34
418.687	3.39
418.893	3.53
419.099	3.48
419.305	3.61
419.511	3.59
419.717	3.78
419.923	3.65
420.129	3.5
420.335	3.58
420.541	3.53
420.746	3.52
420.952	3.53
421.158	3.6
421.364	3.52
421.57	3.62
421.776	3.7
421.982	3.62
422.187	3.53
422.393	3.47
422.599	3.31
422.805	3.47
423.01	3.48
423.216	3.34
423.422	3.25
423.628	3.29
423.833	3.12
424.039	3.1
424.245	3.16
424.45	3.43
424.656	3.43
424.862	3.44
425.067	3.39
425.273	3.38
425.478	3.57
425.684	3.52
425.889	3.67
426.095	3.78
426.301	3.67
426.506	3.61
426.712	3.57
426.917	3.57
427.123	3.67
427.328	3.61
427.533	3.71
427.739	3.64
427.944	3.76
428.15	3.48
428.355	3.27
428.561	3.38
428.766	3.32
428.971	3.32
429.177	3.53
429.382	3.57
429.587	3.57
429.793	3.51
429.998	3.6
430.203	3.51
430.408	3.76
430.614	4.07
430.819	4.06
431.024	4.25
431.229	3.98
431.434	3.97
431.64	3.64
431.845	3.74
432.05	3.82
432.255	3.77
432.46	3.69
432.665	3.51
432.87	3.43
433.076	3.45
433.281	3.44
433.486	3.51
433.691	3.28
433.896	3.26
434.101	3.16
434.306	3.22
434.511	3.07
434.716	3.14
434.921	3.23
435.126	3.1
435.331	3.1
435.535	3.15
435.74	3.28
435.945	3.38
436.15	3.57
436.355	3.66
436.56	3.58
436.765	3.83
436.97	3.8
437.174	3.62
437.379	3.74
437.584	3.76
437.789	3.67
437.993	3.72
438.198	3.77
438.403	3.9
438.608	3.92
438.812	3.67
439.017	3.63
439.222	3.64
439.426	3.6
439.631	3.51
439.836	3.34
440.04	3.49
440.245	3.36
440.45	3.32
440.654	3.32
440.859	3.21
441.063	3.28
441.268	3.16
441.472	3.19
441.677	3.19
441.881	3.13
442.086	3.3
442.29	3.05
442.495	3.05
442.699	2.99
442.904	2.9
443.108	2.88
443.312	3.05
443.517	3.09
443.721	2.92
443.925	3.1
444.13	3.24
444.334	3.16
444.538	3.17
444.743	3.11
444.947	3.05
445.151	3.08
445.356	3.09
445.56	3.08
445.764	3.04
445.968	3.09
446.173	3
446.377	3
446.581	2.99
446.785	3.09
446.989	3.16
447.193	3.23
447.398	3.1
447.602	3.11
447.806	3.05
448.01	3.21
448.214	3.34
448.418	3.38
448.622	3.48
448.826	3.58
449.03	3.54
449.234	3.61
449.438	3.53
449.642	3.58
449.846	3.63
450.05	3.57
450.254	3.34
450.458	3.42
450.662	3.52
450.866	3.4
451.069	3.27
451.273	3.21
451.477	3.08
451.681	3.1
451.885	3.05
452.089	3.04
452.292	3.15
452.496	3.26
452.7	3.03
452.904	2.86
453.107	2.71
453.311	2.85
453.515	2.99
453.719	2.89
453.922	3.13
454.126	3.34
454.33	3.29
454.533	3.32
454.737	3.21
454.94	3.2
455.144	3.34
455.348	3.44
455.551	3.46
455.755	3.2
455.958	3.35
456.162	3.12
456.365	3.03
456.569	2.95
456.772	2.91
456.976	3.06
457.179	3.1
457.383	3.07
457.586	3.24
457.79	3.1
457.993	3.27
458.196	3.13
458.4	3.11
458.603	3.11
458.807	3.3
459.01	3.41
459.213	3.24
459.417	3.22
459.62	3.26
459.823	3.18
460.026	3.2
460.23	3.23
460.433	3.33
460.636	3.39
460.839	3.36
461.042	3.38
461.246	3.35
461.449	3.35
461.652	3.42
461.855	3.3
462.058	3.27
462.261	3.18
462.464	3.12
462.668	3.19
462.871	3.23
463.074	3.42
463.277	3.11
463.48	3.16
463.683	3.28
463.886	3.28
464.089	3.31
464.292	3.46
464.495	3.58
464.698	3.51
464.901	3.32
465.104	3.21
465.306	3.15
465.509	3.26
465.712	3.25
465.915	3.13
466.118	3.02
466.321	2.99
466.524	2.9
466.726	2.85
466.929	2.99
467.132	3.17
467.335	3.21
467.538	2.99
467.74	3.06
467.943	3.1
468.146	3.31
468.348	3.43
468.551	3.63
468.754	3.57
468.956	3.52
469.159	3.58
469.362	3.59
469.564	3.49
469.767	3.48
469.969	3.4
470.172	3.16
470.375	3.09
470.577	3.03
470.78	2.92
470.982	2.9
471.185	3.07
471.387	3
471.59	2.74
471.792	2.81
471.995	2.92
472.197	3.03
472.399	2.94
472.602	2.79
472.804	2.79
473.007	2.86
473.209	2.83
473.411	2.75
473.614	2.6
473.816	2.75
474.018	2.83
474.22	2.86
474.423	2.88
474.625	2.99
474.827	3.25
475.03	3.28
475.232	3.13
475.434	3.28
475.636	3.36
475.838	3.42
476.04	3.44
476.243	3.4
476.445	3.42
476.647	3.27
476.849	3.22
477.051	3.17
477.253	3.21
477.455	3.4
477.657	3.29
477.859	3.25
478.061	3.13
478.263	3.16
478.465	3.09
478.667	3.07
478.869	3.08
479.071	3.1
479.273	3
479.475	2.82
479.677	2.7
479.879	2.57
480.081	2.63
480.283	2.67
480.485	2.5
480.686	2.53
480.888	2.44
481.09	2.55
481.292	2.5
481.494	2.45
481.695	2.49
481.897	2.4
482.099	2.46
482.301	2.37
482.502	2.43
482.704	2.49
482.906	2.48
483.107	2.54
483.309	2.52
483.511	2.62
483.712	2.6
483.914	2.56
484.115	2.59
484.317	2.57
484.519	2.6
484.72	2.62
484.922	2.58
485.123	2.62
485.325	2.59
485.526	2.57
485.728	2.5
485.929	2.47
486.131	2.55
486.332	2.55
486.534	2.51
486.735	2.47
486.936	2.41
487.138	2.37
487.339	2.31
487.541	2.37
487.742	2.37
487.943	2.37
488.144	2.45
488.346	2.37
488.547	2.41
488.748	2.52
488.95	2.43
489.151	2.39
489.352	2.45
489.553	2.46
489.755	2.42
489.956	2.4
490.157	2.44
490.358	2.39
490.559	2.49
490.76	2.43
490.961	2.36
491.163	2.55
491.364	2.7
491.565	2.74
491.766	2.76
491.967	2.75
492.168	2.76
492.369	2.79
492.57	2.79
492.771	2.84
492.972	2.88
493.173	2.93
493.374	2.88
493.575	2.85
493.776	2.84
493.976	2.9
494.177	2.93
494.378	3.07
494.579	3
494.78	3.18
494.981	3.12
495.182	3.12
495.382	3.08
495.583	3.07
495.784	3.04
495.985	3.17
496.185	3.16
496.386	3.08
496.587	3.1
496.788	3.09
496.988	3.03
497.189	3.01
497.39	3.05
497.59	3.15
497.791	3.15
497.992	3.06
498.192	2.96
498.393	2.96
498.593	3.07
498.794	2.99
498.994	3.09
499.195	3.05
499.395	3.1
499.596	3.16
499.796	3.08
499.997	3.18
500.197	3.37
500.398	3.34
500.598	3.33
500.799	3.29
500.999	3.26
501.199	3.06
501.4	3.09
501.6	3.08
501.801	3.08
502.001	3.13
502.201	3.08
502.402	2.99
502.602	2.93
502.802	2.93
503.002	2.99
503.203	3.03
503.403	3.14
503.603	3.22
503.803	3.18
504.003	3.04
504.204	3.05
504.404	3.04
504.604	2.94
504.804	3.11
505.004	3.11
505.204	3.14
505.404	3.22
505.604	3.33
505.804	3.18
506.005	3.14
506.205	3.27
506.405	3.34
506.605	3.35
506.805	3.49
507.005	3.4
507.204	3.41
507.404	3.27
507.604	3.16
507.804	3.06
508.004	3.25
508.204	3.26
508.404	3.2
508.604	3.15
508.804	3.2
509.003	3.16
509.203	3.27
509.403	3.26
509.603	3.37
509.803	3.55
510.002	3.73
510.202	3.59
510.402	3.51
510.602	3.62
510.801	3.64
511.001	3.7
511.201	3.77
511.4	3.74
511.6	3.75
511.8	3.72
511.999	3.75
512.199	3.59
512.398	3.68
512.598	3.82
512.797	3.81
512.997	3.85
513.197	3.85
513.396	3.88
513.596	3.97
513.795	4.19
513.994	4.28
514.194	4.19
514.393	4.28
514.593	4.31
514.792	4.38
514.992	4.29
515.191	4.26
515.39	4.18
515.59	4.17
515.789	3.99
515.988	3.85
516.188	3.76
516.387	3.73
516.586	3.67
516.786	3.7
516.985	3.61
517.184	3.6
517.383	3.69
517.582	3.77
517.782	3.75
517.981	3.68
518.18	3.63
518.379	3.74
518.578	3.69
518.777	3.7
518.976	3.58
519.176	3.68
519.375	3.78
519.574	3.68
519.773	3.69
519.972	3.55
520.171	3.69
520.37	3.72
520.569	3.63
520.768	3.65
520.967	3.66
521.166	3.67
521.365	3.56
521.564	3.58
521.762	3.71
521.961	3.68
522.16	4.02
522.359	3.95
522.558	3.93
522.757	3.89
522.956	3.92
523.154	3.9
523.353	4.05
523.552	4.07
523.751	4
523.949	3.94
524.148	4.02
524.347	3.88
524.546	3.98
524.744	3.98
524.943	4.19
525.142	4.25
525.34	4.37
525.539	4.36
525.737	4.42
525.936	4.45
526.135	4.35
526.333	4.26
526.532	4.23
526.73	4.24
526.929	4.21
527.127	4.11
527.326	4.05
527.524	4.01
527.723	3.97
527.921	3.94
528.12	3.91
528.318	3.96
528.516	3.99
528.715	3.99
528.913	3.94
529.112	3.99
529.31	3.98
529.508	3.96
529.707	3.93
529.905	3.98
530.103	4
530.301	4.01
530.5	4.01
530.698	3.97
530.896	4.01
531.094	4.1
531.293	4.12
531.491	4.22
531.689	4.34
531.887	4.46
532.085	4.39
532.283	4.39
532.481	4.44
532.68	4.42
532.878	4.51
533.076	4.51
533.274	4.48
533.472	4.54
533.67	4.53
533.868	4.48
534.066	4.45
534.264	4.49
534.462	4.51
534.66	4.49
534.858	4.55
535.056	4.54
535.253	4.5
535.451	4.57
535.649	4.54
535.847	4.64
536.045	4.68
536.243	4.75
536.441	4.88
536.638	4.98
536.836	5.03
537.034	5.05
537.232	5.03
537.43	5.16
537.627	5.22
537.825	5.2
538.023	5.13
538.22	5.22
538.418	5.23
538.616	5.17
538.813	5.22
539.011	5.33
539.209	5.39
539.406	5.52
539.604	5.66
539.801	5.77
539.999	5.77
540.196	5.94
540.394	6.01
540.591	6.05
540.789	6.11
540.986	6.01
541.184	6.02
541.381	6.02
541.579	6.04
541.776	5.97
541.974	5.93
542.171	5.96
542.368	5.89
542.566	5.85
542.763	5.89
542.96	5.83
543.158	6.01
543.355	6.05
543.552	6.15
543.75	6.21
543.947	6.2
544.144	6.14
544.341	6.33
544.539	6.4
544.736	6.47
544.933	6.44
545.13	6.51
545.327	6.38
545.524	6.37
545.722	6.45
545.919	6.43
546.116	6.57
546.313	6.63
546.51	6.49
546.707	6.58
546.904	6.63
547.101	6.72
547.298	6.83
547.495	6.88
547.692	6.86
547.889	6.77
548.086	6.92
548.283	6.99
548.48	7.12
548.677	7.12
548.874	7.21
549.07	7.28
549.267	7.46
549.464	7.38
549.661	7.6
549.858	7.88
550.055	8.07
550.251	8.03
550.448	7.88
550.645	7.94
550.842	8.15
551.038	8.12
551.235	8.01
551.432	7.84
551.628	8.02
551.825	8.12
552.022	8.14
552.218	8.1
552.415	8.36
552.612	8.55
552.808	8.56
553.005	8.47
553.201	8.51
553.398	8.69
553.594	8.75
553.791	8.89
553.987	8.88
554.184	8.96
554.38	9.04
554.577	8.95
554.773	9.11
554.97	9.41
555.166	9.75
555.362	9.88
555.559	9.99
555.755	10.24
555.952	10.23
556.148	10.2
556.344	10.17
556.541	10.22
556.737	10.26
556.933	10.22
557.129	10.01
557.326	9.97
557.522	10.07
557.718	10.17
557.914	9.99
558.11	9.91
558.307	10.04
558.503	10.19
558.699	10.28
558.895	10.5
559.091	10.63
559.287	10.7
559.483	10.71
559.679	10.72
559.876	10.74
560.072	11.07
560.268	11.28
560.464	11.28
560.66	11.13
560.856	11.24
561.052	11.31
561.247	11.4
561.443	11.61
561.639	11.84
561.835	11.93
562.031	12.05
562.227	12.03
562.423	11.9
562.619	12.07
562.815	12.24
563.01	12.29
563.206	12.12
563.402	12.11
563.598	12.16
563.793	12.1
563.989	12.07
564.185	12.06
564.381	12.22
564.576	12.47
564.772	12.46
564.968	12.59
565.163	12.59
565.359	12.5
565.555	12.65
565.75	12.79
565.946	12.82
566.141	12.86
566.337	13.08
566.532	13.1
566.728	13.21
566.923	13.37
567.119	13.37
567.314	13.31
567.51	13.72
567.705	13.72
567.901	13.65
568.096	13.75
568.292	14.03
568.487	13.99
568.682	13.95
568.878	13.93
569.073	14.03
569.268	14.17
569.464	14.53
569.659	14.52
569.854	14.61
570.05	14.64
570.245	14.83
570.44	14.73
570.635	14.72
570.831	14.85
571.026	15.04
571.221	15.03
571.416	15.03
571.611	14.86
571.806	14.87
572.002	14.85
572.197	15.07
572.392	14.84
572.587	14.8
572.782	15.03
572.977	15.13
573.172	15.24
573.367	15.28
573.562	15.43
573.757	15.59
573.952	15.66
574.147	15.88
574.342	16.08
574.537	16.29
574.732	16.43
574.927	16.39
575.121	16.57
575.316	16.48
575.511	16.56
575.706	16.52
575.901	16.65
576.096	16.83
576.29	16.93
576.485	16.85
576.68	17.03
576.875	17.08
577.069	17.09
577.264	17
577.459	17.16
577.654	17.31
577.848	17.43
578.043	17.53
578.238	17.46
578.432	17.24
578.627	17.21
578.821	17.21
579.016	17.33
579.21	17.5
579.405	17.5
579.6	17.54
579.794	17.58
579.989	17.7
580.183	17.73
580.378	17.82
580.572	18.07
580.766	18.05
580.961	17.98
581.155	18.39
581.35	18.28
581.544	18.21
581.738	18.25
581.933	18.27
582.127	18.35
582.321	18.45
582.516	18.33
582.71	18.56
582.904	18.72
583.099	18.83
583.293	18.52
583.487	18.81
583.681	19.13
583.875	19.16
584.07	19.41
584.264	19.5
584.458	19.49
584.652	19.57
584.846	19.42
585.04	19.41
585.234	19.55
585.428	19.63
585.623	19.5
585.817	19.52
586.011	19.78
586.205	19.89
586.399	20.05
586.593	20.22
586.787	20.46
586.981	20.45
587.174	20.5
587.368	20.48
587.562	20.65
587.756	20.82
587.95	20.87
588.144	20.65
588.338	20.59
588.532	20.43
588.725	20.43
588.919	20.5
589.113	20.58
589.307	20.53
589.501	20.46
589.694	20.42
589.888	20.47
590.082	20.53
590.275	20.66
590.469	20.74
590.663	20.57
590.856	20.78
591.05	20.72
591.244	20.87
591.437	21.12
591.631	21.3
591.824	21.27
592.018	21.32
592.212	21.38
592.405	21.44
592.599	21.46
592.792	21.77
592.986	21.72
593.179	21.76
593.372	21.61
593.566	21.67
593.759	21.8
593.953	21.84
594.146	21.8
594.339	21.98
594.533	22.2
594.726	22.15
594.92	22.09
595.113	21.97
595.306	21.96
595.499	22.02
595.693	21.96
595.886	21.89
596.079	21.89
596.272	21.82
596.466	21.68
596.659	21.54
596.852	21.63
597.045	21.76
597.238	21.86
597.431	22.07
597.624	22.14
597.818	22.14
598.011	22.15
598.204	22.23
598.397	22.6
598.59	22.67
598.783	22.79
598.976	22.84
599.169	22.89
599.362	22.86
599.555	23.06
599.748	23.37
599.941	23.36
600.134	23.53
600.326	23.78
600.519	23.72
600.712	23.73
600.905	23.72
601.098	23.92
601.291	23.91
601.483	24.13
601.676	23.95
601.869	23.82
602.062	24.14
602.255	24.04
602.447	24.19
602.64	24.22
602.833	24.18
603.025	24.12
603.218	24.02
603.411	24.01
603.603	23.88
603.796	23.79
603.989	23.91
604.181	23.92
604.374	24.04
604.566	23.9
604.759	23.86
604.951	24.03
605.144	24.14
605.336	24.18
605.529	24.24
605.721	24.43
605.914	24.52
606.106	24.45
606.299	24.44
606.491	24.69
606.683	24.79
606.876	24.76
607.068	24.66
607.26	24.78
607.453	24.91
607.645	24.93
607.837	24.81
608.03	24.96
608.222	24.96
608.414	24.86
608.606	24.74
608.799	24.73
608.991	24.83
609.183	25.02
609.375	25
609.567	24.93
609.759	25.04
609.952	25.09
610.144	25.03
610.336	25.08
610.528	25.09
610.72	25.01
610.912	25.15
611.104	25.25
611.296	25.35
611.488	25.24
611.68	25.29
611.872	25.2
612.064	25.56
612.256	25.66
612.448	25.85
612.64	25.83
612.832	26.09
613.023	25.91
613.215	25.91
613.407	25.82
613.599	26.15
613.791	25.93
613.983	25.92
614.174	25.71
614.366	25.75
614.558	25.75
614.75	25.78
614.941	25.66
615.133	25.9
615.325	26.09
615.516	26.16
615.708	25.87
615.9	26.15
616.091	26.16
616.283	25.99
616.475	25.99
616.666	26.16
616.858	26.68
617.049	26.55
617.241	26.52
617.432	26.26
617.624	26.44
617.815	26.67
618.007	26.68
618.198	26.92
618.39	27.04
618.581	26.95
618.773	26.67
618.964	26.48
619.155	26.83
619.347	26.87
619.538	27.16
619.729	27.07
619.921	26.94
620.112	26.96
620.303	27.15
620.494	27.19
620.686	27.53
620.877	27.88
621.068	27.91
621.259	27.97
621.451	27.94
621.642	27.94
621.833	27.84
622.024	28.19
622.215	28.51
622.406	28.22
622.597	28.34
622.788	28.32
622.98	28.04
623.171	27.94
623.362	27.71
623.553	27.94
623.744	27.77
623.935	28.05
624.126	27.79
624.317	27.54
624.508	27.84
624.698	27.69
624.889	27.68
625.08	27.85
625.271	28.08
625.462	27.94
625.653	27.67
625.844	27.83
626.034	27.74
626.225	28.02
626.416	27.84
626.607	27.89
626.798	28.11
626.988	28.11
627.179	28.03
627.37	27.98
627.56	28.18
627.751	28.25
627.942	28.44
628.132	28.36
628.323	28.32
628.514	28.58
628.704	28.6
628.895	28.56
629.085	28.59
629.276	28.62
629.466	28.52
629.657	28.62
629.847	28.74
630.038	28.4
630.228	28.62
630.419	28.79
630.609	28.88
630.8	28.66
630.99	28.76
631.181	28.9
631.371	28.99
631.561	29.4
631.752	29.52
631.942	29.46
632.132	29.89
632.323	29.75
632.513	29.52
632.703	29.48
632.893	29.6
633.084	29.29
633.274	29.09
633.464	28.99
633.654	28.94
633.844	28.59
634.034	28.76
634.225	28.44
634.415	28.55
634.605	28.62
634.795	28.56
634.985	28.76
635.175	29
635.365	29.1
635.555	29.33
635.745	29.1
635.935	29.26
636.125	29.11
636.315	29.52
636.505	29.47
636.695	29.31
636.885	29.23
637.075	28.96
637.265	29.07
637.455	29.08
637.644	29.04
637.834	29.5
638.024	29.79
638.214	29.93
638.404	29.71
638.593	29.84
638.783	30.19
638.973	30.81
639.163	30.73
639.352	30.85
639.542	31.05
639.732	31.12
639.921	31.21
640.111	31.22
640.301	31.13
640.49	31.12
640.68	31.08
640.87	31.08
641.059	30.94
641.249	31.24
641.438	31.18
641.628	30.78
641.817	30.65
642.007	30.15
642.196	29.98
642.386	30.21
642.575	30.26
642.764	30.13
642.954	29.71
643.143	29.77
643.333	29.67
643.522	29.58
643.711	29.92
643.901	30.09
644.09	30.34
644.279	30.65
644.469	30.8
644.658	30.82
644.847	30.87
645.036	31.15
645.226	30.79
645.415	30.62
645.604	30.96
645.793	31.16
645.982	30.88
646.171	30.79
646.361	31.16
646.55	31.18
646.739	31.17
646.928	31.5
647.117	31.83
647.306	31.87
647.495	32.07
647.684	31.87
647.873	32.09
648.062	32.55
648.251	32.6
648.44	32.02
648.629	31.91
648.818	31.97
649.007	31.54
649.196	31.6
649.384	31.8
649.573	31.74
649.762	31.55
649.951	31.32
650.14	31
650.328	31.34
650.517	31.32
650.706	31.61
650.895	31.62
651.083	32.06
651.272	31.43
651.461	31.64
651.65	32.06
651.838	32.22
652.027	31.96
652.216	31.83
652.404	31.74
652.593	31.93
652.781	31.59
652.97	32.49
653.158	32.46
653.347	33.27
653.535	32.93
653.724	32.44
653.912	32.61
654.101	32.88
654.289	33.4
654.478	33.57
654.666	33.84
654.855	34.21
655.043	33.13
655.231	32.95
655.42	32.7
655.608	33.08
655.796	33.32
655.985	33.1
656.173	33.13
656.361	32.84
656.55	32.25
656.738	32.07
656.926	32.05
657.114	32.55
657.302	32.71
657.491	32.46
657.679	32.04
657.867	32.13
658.055	32.5
658.243	32.74
658.431	32.78
658.619	33.3
658.807	33.59
658.996	33.44
659.184	33.18
659.372	33.41
659.56	33.61
659.748	33.44
659.936	33.63
660.124	33.5
660.311	33.49
660.499	33.68
660.687	33.68
660.875	33.65
661.063	33.77
661.251	33.64
661.439	33.53
661.627	33.56
661.814	33.92
662.002	33.76
662.19	33.82
662.378	33.7
662.565	33.79
662.753	33.38
662.941	33.33
663.129	33.48
663.316	33.89
663.504	34
663.692	34.39
663.879	34.35
664.067	34.46
664.254	34.66
664.442	34.48
664.63	34.87
664.817	35.55
665.005	35.14
665.192	34.85
665.38	34.97
665.567	34.6
665.755	34.35
665.942	34.63
666.13	34.82
666.317	34.83
666.504	34.83
666.692	35.03
666.879	34.86
667.067	35.06
667.254	35.31
667.441	35.29
667.629	35.37
667.816	35.22
668.003	35.03
668.19	34.75
668.378	34.35
668.565	34.6
668.752	34.07
668.939	33.81
669.127	33.77
669.314	33.57
669.501	33.51
669.688	33.76
669.875	33.76
670.062	34.13
670.249	34.58
670.436	34.98
670.623	34.95
670.81	34.96
670.997	35.17
671.184	35.39
671.371	35.63
671.558	35.54
671.745	35.85
671.932	36.08
672.119	35.93
672.306	35.64
672.493	35.93
672.68	35.99
672.867	36.33
673.054	36.04
673.24	35.92
673.427	36.21
673.614	36.3
673.801	36.23
673.988	36.59
674.174	36.72
674.361	36.64
674.548	36.39
674.734	36.35
674.921	35.71
675.108	36.44
675.294	36.17
675.481	36.03
675.668	35.95
675.854	35.3
676.041	34.72
676.227	34.7
676.414	35.2
676.601	35.35
676.787	35.76
676.974	36.28
677.16	35.81
677.347	36.23
677.533	36.13
677.719	36.36
677.906	36.62
678.092	37.03
678.279	36.68
678.465	35.93
678.651	36.03
678.838	35.64
679.024	35.17
679.21	35.22
679.397	35.45
679.583	35.49
679.769	35.52
679.955	35.52
680.142	35.43
680.328	35.87
680.514	36.16
680.7	35.77
680.886	36.09
681.073	36.41
681.259	36.59
681.445	36.5
681.631	36.29
681.817	36.27
682.003	36.35
682.189	36.05
682.375	35.69
682.561	35.96
682.747	36.76
682.933	36.79
683.119	36.97
683.305	37.07
683.491	36.93
683.677	37.17
683.863	37.4
684.049	37.69
684.235	37.96
684.42	38.3
684.606	38.19
684.792	37.68
684.978	37.52
685.164	37.58
685.349	37.25
685.535	37.4
685.721	37.48
685.907	37.25
686.092	36.97
686.278	37.23
686.464	37.07
686.649	36.78
686.835	36.65
687.021	36.81
687.206	36.69
687.392	36.57
687.577	36.69
687.763	36.71
687.948	36.72
688.134	36.64
688.319	36.63
688.505	36.48
688.69	36.68
688.876	36.81
689.061	37.01
689.247	36.83
689.432	37.05
689.618	36.54
689.803	36.25
689.988	36.24
690.174	36.57
690.359	36.48
690.544	36.58
690.73	36.69
690.915	36.66
691.1	36.51
691.285	37.11
691.471	37.3
691.656	37.64
691.841	37.82
692.026	38.06
692.211	38.4
692.396	38.32
692.582	38.75
692.767	39.29
692.952	39.3
693.137	39.01
693.322	38.52
693.507	38.7
693.692	38.78
693.877	39.02
694.062	39.1
694.247	39.04
694.432	39.95
694.617	39.88
694.802	40.01
694.987	40.38
695.172	40.53
695.357	40.97
695.541	40.7
695.726	40.97
695.911	41.39
696.096	41.28
696.281	41.23
696.466	40.59
696.65	40.6
696.835	40.3
697.02	40.24
697.204	40.1
697.389	39.84
697.574	39.53
697.759	39.38
697.943	38.89
698.128	38.88
698.312	38.57
698.497	38.1
698.682	37.82
698.866	37.74
699.051	37.72
699.235	37.85
699.42	37.85
699.604	38.22
699.789	38.12
699.973	38.2
700.158	38.17
700.342	38.2
700.527	38.81
700.711	39.03
700.895	38.9
701.08	39.22
701.264	39.73
701.448	39.72
701.633	39.87
701.817	40.1
702.001	40.21
702.186	40.03
702.37	40.53
702.554	40.01
702.738	40.4
702.923	40.48
703.107	40.4
703.291	39.98
703.475	40.06
703.659	39.78
703.843	39.65
704.027	40.01
704.212	40.69
704.396	40.31
704.58	40.66
704.764	40.42
704.948	40.41
705.132	39.64
705.316	39.86
705.5	40.39
705.684	40.89
705.868	40.64
706.052	40.21
706.235	39.6
706.419	39.73
706.603	39.61
706.787	39.33
706.971	39.67
707.155	39.3
707.339	39.03
707.522	38.67
707.706	38.44
707.89	39.3
708.074	39.51
708.257	39.74
708.441	40
708.625	40.28
708.808	40.48
708.992	40.49
709.176	41.14
709.359	41.35
709.543	41.35
709.727	41.33
709.91	40.7
710.094	40.54
710.277	40.7
710.461	40.64
710.644	40.6
710.828	40.75
711.011	40.75
711.195	40.96
711.378	41.43
711.562	41.15
711.745	41.16
711.928	41.58
712.112	41.52
712.295	41.42
712.478	41
712.662	41.44
712.845	41.38
713.028	41.14
713.212	41.37
713.395	40.68
713.578	40.98
713.761	40.45
713.945	40.45
714.128	40.43
714.311	40.5
714.494	40.57
714.677	40.33
714.86	40.07
715.043	40.53
715.227	40.13
715.41	40.45
715.593	40.76
715.776	40.97
715.959	41
716.142	41.76
716.325	41.65
716.508	41.95
716.691	42.29
716.874	42.81
717.057	42.36
717.239	42.5
717.422	42.61
717.605	42.22
717.788	42.52
717.971	42.89
718.154	42.5
718.337	43.21
718.519	43.17
718.702	43.31
718.885	43.14
719.068	43.44
719.25	44.04
719.433	43.53
719.616	43.74
719.798	43.87
719.981	44.08
720.164	43.74
720.346	43.2
720.529	43.71
720.712	43.06
720.894	43.4
721.077	43.15
721.259	42.3
721.442	42.84
721.624	42.79
721.807	42.72
721.989	42.31
722.172	42.44
722.354	42.35
722.537	42.38
722.719	42.46
722.901	41.94
723.084	42.1
723.266	42.77
723.448	42.86
723.631	42.99
723.813	42.96
723.995	41.54
724.178	41.08
724.36	41.49
724.542	40.83
724.724	41.44
724.907	42
725.089	41.71
725.271	42.16
725.453	41.7
725.635	41.36
725.817	42.42
725.999	43.91
726.181	44.69
726.364	44.3
726.546	44.88
726.728	44.41
726.91	43.99
727.092	44.66
727.274	44.03
727.456	44.67
727.638	44.98
727.819	43.99
728.001	43.57
728.183	43.3
728.365	43.13
728.547	43.55
728.729	43.49
728.911	44.33
729.093	43.93
729.274	43.18
729.456	42.17
729.638	42.16
729.82	42.2
730.001	42.12
730.183	42.64
730.365	42.64
730.546	41.97
730.728	41.21
730.91	40.39
731.091	40.11
731.273	40.7
731.455	41.38
731.636	41.74
731.818	42.2
731.999	42.22
732.181	41.79
732.362	41.98
732.544	42.63
732.725	43.43
732.907	43.33
733.088	44.28
733.27	45.26
733.451	45.49
733.633	46.66
733.814	46.29
733.995	46.75
734.177	46.34
734.358	46.35
734.539	45.87
734.721	45.94
734.902	45.6
735.083	44.91
735.264	44.26
735.446	44.07
735.627	42.61
735.808	42.26
735.989	42.1
736.17	43.24
736.351	43.41
736.533	43.5
736.714	42.96
736.895	44.11
737.076	44.04
737.257	44.11
737.438	44.03
737.619	44.02
737.8	44.66
737.981	44.76
738.162	44.59
738.343	44.7
738.524	44.31
738.705	44.26
738.886	43.93
739.067	44.16
739.247	44.35
739.428	44.37
739.609	44
739.79	43.97
739.971	43.34
740.151	42.95
740.332	42.91
740.513	42.15
740.694	43.04
740.874	43.09
741.055	43.35
741.236	42.29
741.417	42.11
741.597	41.72
741.778	42.32
741.958	42.69
742.139	43.28
742.32	43.02
742.5	44.31
742.681	44.8
742.861	44.24
743.042	43.92
743.222	44.59
743.403	45.27
743.583	45.91
743.764	45.17
743.944	45.27
744.124	44.57
744.305	44.99
744.485	44.54
744.666	42.67
744.846	42.96
745.026	43.54
745.207	43.81
745.387	43.27
745.567	45.05
745.747	45.01
745.928	44.95
746.108	45.29
746.288	44.84
746.468	44.47
746.648	45.44
746.829	46.24
747.009	45.88
747.189	45.78
747.369	46.38
747.549	44.63
747.729	44.97
747.909	44.66
748.089	44.93
748.269	44.31
748.449	45.62
748.629	45.09
748.809	44.98
748.989	44.99
749.169	44.45
749.349	43.82
749.529	44.74
749.709	43.74
749.889	43.74
750.068	43.1
750.248	44.78
750.428	43.97
750.608	44.61
750.788	43.8
750.967	43.58
751.147	43.04
751.327	43.02
751.507	41.41
751.686	42.64
751.866	43.74
752.046	43.82
752.225	43.34
752.405	44.09
752.585	43.54
752.764	44.08
752.944	44.71
753.123	45.98
753.303	46.03
753.482	47.73
753.662	47.06
753.841	46.3
754.021	47.37
754.2	47.83
754.38	46.62
754.559	46.73
754.739	46.21
754.918	45.66
755.097	45.15
755.277	45.35
755.456	44.87
755.635	45.68
755.815	45.28
755.994	44.32
756.173	43.09
756.352	43
756.532	42.71
756.711	42.63
756.89	42.52
757.069	43.4
757.248	42.7
757.427	42.12
757.607	41.92
757.786	42.32
757.965	41.94
758.144	42.67
758.323	44.2
758.502	45.38
758.681	45.84
758.86	45.68
759.039	45.41
759.218	46.63
759.397	47.12
759.576	46.27
759.755	45.87
759.934	47.07
760.113	46.68
760.291	45.48
760.47	44.89
760.649	45.46
760.828	46.13
761.007	45.1
761.186	44.59
761.364	44.43
761.543	44.42
761.722	44.46
761.901	42.85
762.079	43.44
762.258	43.87
762.437	44.09
762.615	43.25
762.794	43.54
762.972	43.86
763.151	44.14
763.33	44.57
763.508	44.64
763.687	44.64
763.865	45.77
764.044	45.17
764.222	44.96
764.401	44.77
764.579	44.92
764.758	44.36
764.936	44.95
765.114	44.3
765.293	43.12
765.471	42.98
765.65	43.72
765.828	43.22
766.006	43.41
766.184	43.8
766.363	44.29
766.541	43.86
766.719	44.09
766.898	43.82
767.076	44.26
767.254	45.5
767.432	45.85
767.61	45.36
767.788	45.6
767.967	45.78
768.145	45.93
768.323	45.75
768.501	46.77
768.679	46.54
768.857	46.07
769.035	46.31
769.213	46.61
769.391	47.41
769.569	46.6
769.747	47.19
769.925	47.16
770.103	45.69
770.281	46.95
770.459	47.39
770.636	48.62
770.814	48.77
770.992	49.65
771.17	49
771.348	48.77
771.525	49.96
771.703	48.85
771.881	50.45
772.059	51.44
772.236	48.8
772.414	47.95
772.592	47.36
772.769	47.36
772.947	46.62
773.125	47.12
773.302	47.12
773.48	46.83
773.657	46.95
773.835	44.95
774.013	46.74
774.19	50.19
774.368	49.6
774.545	49.59
774.723	49.38
774.9	48.67
775.077	47.55
775.255	48.06
775.432	49.61
775.61	51.34
775.787	52.11
775.964	51.17
776.142	50.34
776.319	51.23
776.496	50.61
776.674	50.33
776.851	50.93
777.028	51.19
777.205	50.57
777.382	49.8
777.56	48.9
777.737	51.9
777.914	51.09
778.091	50.94
778.268	51.93
778.445	51.8
778.622	52.79
778.8	52.4
778.977	53.46
779.154	58.08
779.331	56.79
779.508	56.26
779.685	53.99
779.862	54.96
780.038	52.94
780.215	51.95
780.392	51.82
780.569	53.25
780.746	53.58
780.923	53.92
781.1	49.67
781.277	48.84
781.453	48.85
781.63	46.67
781.807	46.32
781.984	47.5
782.16	48.01
782.337	48.23
782.514	46.08
782.691	47.74
782.867	46.36
783.044	44.79
783.221	47.75
783.397	49.11
783.574	50.53
783.75	51.74
783.927	52.6
784.103	53.79
784.28	54.78
784.456	54.95
784.633	53.93
784.809	52.66
784.986	54.19
785.162	53.5
785.339	51.71
785.515	51.41
785.692	49.21
785.868	49.73
786.044	49.19
786.221	49.65
786.397	51.1
786.573	51.82
786.749	54.4
786.926	54.69
787.102	54.11
787.278	53.24
787.454	51.74
787.631	52.06
787.807	49.56
787.983	47.98
788.159	46.66
788.335	45.44
788.511	43.4
788.687	43.68
788.863	43.39
789.039	43.23
789.216	42.98
789.392	45.47
789.568	46.63
789.744	47.78
789.919	48.06
790.095	48.41
790.271	49.24
790.447	50.03
790.623	48.97
790.799	49.11
790.975	48.33
791.151	52.87
791.327	52.18
791.502	51.66
791.678	50.35
791.854	51.6
792.03	53.22
792.205	54.26
792.381	54.21
792.557	55.83
792.733	54.41
792.908	54.96
793.084	51.32
793.259	50.85
793.435	50.86
793.611	52.37
793.786	51.26
793.962	48.8
794.137	46.7
794.313	46.1
794.488	44.4
794.664	46.52
794.839	46.86
795.015	46.24
795.19	45.62
795.366	46.36
795.541	46.15
795.716	46.11
795.892	48.2
796.067	49
796.242	49.67
796.418	49.77
796.593	49.89
796.768	50.37
796.944	51
797.119	51.71
797.294	50.8
797.469	49.02
797.644	48.77
797.82	47.28
797.995	45.4
798.17	45.22
798.345	46.24
798.52	46.26
798.695	45.57
798.87	45.52
799.045	46.39
799.22	47.46
799.395	50.24
799.57	52.29
799.745	52.51
799.92	53.69
800.095	55.7
800.27	54.83
800.445	54.69
800.62	53.51
800.795	55.03
800.97	55.02
801.145	51.5
801.319	52.14
801.494	49.77
801.669	49.74
801.844	50.98
802.018	49.8
802.193	50.48
802.368	49.89
802.543	52.07
802.717	50.01
802.892	49.68
803.067	53.52
803.241	51.79
803.416	54.8
803.59	55.68
803.765	55.16
803.94	55.88
804.114	52.33
804.289	52.23
804.463	51.55
804.638	51.02
804.812	51.91
804.986	47.1
805.161	45.65
805.335	43.9
805.51	41.63
805.684	40.3
805.858	40.59
806.033	43.01
806.207	43.58
806.381	44.55
806.556	44.03
806.73	42.15
806.904	43.95
807.078	45.58
807.253	47.25
807.427	49.06
807.601	50.46
807.775	51.22
807.949	52.37
808.123	52.87
808.298	52.05
808.472	55.32
808.646	56.73
808.82	58.86
808.994	59.3
809.168	59.83
809.342	61.95
809.516	61.36
809.69	59.18
809.864	57.16
810.038	58.96
810.212	58.3
810.385	56.34
810.559	58.32
810.733	55.62
810.907	53.57
811.081	50.36
811.255	46.45
811.428	46.91
811.602	48.44
811.776	51.19
811.95	49.44
812.123	50.16
812.297	51.85
812.471	51.17
812.644	53.41
812.818	55.68
812.992	58.41
813.165	63.43
813.339	63.88
813.512	64.22
813.686	65.04
813.86	66.3
814.033	66.74
814.207	65.84
814.38	62.4
814.554	61.33
814.727	60.79
814.9	57.64
815.074	52.61
815.247	53.08
815.421	50.46
815.594	50.15
815.767	47.33
815.941	46.43
816.114	47.47
816.287	52.84
816.46	50.78
816.634	49.6
816.807	54.75
816.98	57.27
817.153	58.01
817.327	58.29
817.5	56.24
817.673	57.41
817.846	57.63
818.019	58.92
818.192	59.49
818.365	58.9
818.538	60.02
818.711	54.57
818.884	55.94
819.057	51.46
819.23	53.93
819.403	50.45
819.576	48.19
819.749	49.4
819.922	47.67
820.095	45.12
820.268	47.35
820.441	47.05
820.614	47.31
820.786	45.08
820.959	46.41
821.132	45.14
821.305	46.09
821.477	46.53
821.65	45.83
821.823	46.08
821.996	44.52
822.168	44.53
822.341	44.44
822.514	45.07
822.686	44.94
822.859	45.04
823.031	44.69
823.204	45
823.376	45.25
823.549	45.22
823.722	45.02
823.894	46.14
824.067	45.92
824.239	46.19
824.411	45.82
824.584	46.26
824.756	46.48
824.929	46.74
825.101	46.88
825.273	47.19
825.446	47.45
825.618	47.25
825.79	46.48
825.963	46.73
826.135	46.9
826.307	46.57
826.479	47.06
826.652	46.5
826.824	46.15
826.996	45.4
827.168	44.17
827.34	44.19
827.512	44.26
827.684	44.49
827.856	44.61
828.029	44.4
828.201	45.15
828.373	44.01
828.545	45.41
828.717	47.03
828.889	47.71
829.061	48.83
829.232	49.53
829.404	50.04
829.576	50.9
829.748	50.78
829.92	52.02
830.092	51.83
830.264	51.56
830.436	51.07
830.607	50.46
830.779	51.94
830.951	52.77
831.123	50.32
831.294	49.05
831.466	47.75
831.638	47.67
831.809	44.89
831.981	46.89
832.153	49.23
832.324	48.69
832.496	50.1
832.667	49.67
832.839	49.54
833.011	53.61
833.182	54.37
833.354	52.92
833.525	56.34
833.697	56.13
833.868	52.4
834.039	53.16
834.211	52.81
834.382	51.26
834.554	51.66
834.725	49.91
834.896	48.16
835.068	46.68
835.239	47.1
835.41	45.57
835.581	46.67
835.753	48.08
835.924	47.03
836.095	46.83
836.266	46.67
836.438	45.59
836.609	47.47
836.78	47.2
836.951	50.48
837.122	51.46
837.293	50.63
837.464	50.73
837.635	51.8
837.806	52.56
837.977	54.17
838.148	57.43
838.319	58.98
838.49	54.12
838.661	57.31
838.832	56.29
839.003	56.66
839.174	57.52
839.345	56.64
839.516	57.5
839.687	57.77
839.857	57.64
840.028	55.51
840.199	52.57
840.37	54.96
840.54	55.79
840.711	53.78
840.882	58.73
841.053	56.78
841.223	56.55
841.394	55.54
841.564	57.14
841.735	55.57
841.906	51.96
842.076	49.68
842.247	57.05
842.417	54.49
842.588	55.28
842.758	51.52
842.929	53.24
843.099	53.91
843.27	57.8
843.44	54.06
843.611	55.45
843.781	53.47
843.951	57.66
844.122	55.14
844.292	51.99
844.462	54.73
844.633	53.8
844.803	55.11
844.973	57.18
845.144	53.09
845.314	61.05
845.484	60.67
845.654	69.74
845.824	73.14
845.995	73.45
846.165	74.01
846.335	71.83
846.505	74.7
846.675	73.42
846.845	78.91
847.015	80.63
847.185	74.76
847.355	76.24
847.525	76.7
847.695	80.96
847.865	78.42
848.035	81.37
848.205	76.38
848.375	67.38
848.545	59.05
848.715	53.11
848.884	58.66
849.054	56.75
849.224	53.56
849.394	56.2
849.564	52.66
849.733	56.1
849.903	62.64
850.073	66.58
850.243	71.11
850.412	79.01
850.582	78.8
850.752	73.13
850.921	75.5
851.091	80.3
851.26	79.16
851.43	73.47
851.599	69.55
851.769	64.58
851.939	61.7
852.108	64.9
852.278	70.37
852.447	64.78
852.616	67.65
852.786	61.73
852.955	56.14
853.125	64.66
853.294	71.73
853.463	63.95
853.633	62.99
853.802	66.55
853.971	59.72
854.141	53.89
854.31	59.08
854.479	52.26
854.648	51.73
854.818	49.89
854.987	45.92
855.156	43.99
855.325	51.85
855.494	51.83
855.663	46.88
855.832	49.38
856.001	61.22
856.171	60.31
856.34	69.15
856.509	76.07
856.678	83.93
856.847	82.05
857.016	71.28
857.185	68.13
857.353	67.26
857.522	79.78
857.691	88.29
857.86	73.79
858.029	63.88
858.198	70.79
858.367	68.47
858.535	69.35
858.704	62.81
858.873	75.31
859.042	77.49
859.21	81.02
859.379	76.55
859.548	73.98
859.717	75.74
859.885	78.17
860.054	67.01
860.222	57.06
860.391	69.6
860.56	75.57
860.728	78.45
860.897	73.45
861.065	77.71
861.234	78.2
861.402	75.19
861.571	72.22
861.739	75.08
861.908	78.61
862.076	86.22
862.244	78.66
862.413	63.19
862.581	55.91
862.749	57.74
862.918	50.73
863.086	46.88
863.254	45.93
863.423	41.47
863.591	58.35
863.759	62.51
863.927	70.32
864.096	73.57
864.264	84.83
864.432	79.05
864.6	82.13
864.768	85.77
864.936	95.27
865.104	92.52
865.272	97.14
865.44	92.35
865.608	82.39
865.776	86.78
865.944	84.1
866.112	79.95
866.28	85.8
866.448	88.72
866.616	84.48
866.784	81.32
866.952	79.08
867.12	77.33
867.288	70.28
867.455	75.66
867.623	73.29
867.791	71.24
867.959	75.93
868.127	69.51
868.294	71.67
868.462	71.91
868.63	65.71
868.797	62.03
868.965	58.43
869.133	57.31
869.3	56.67
869.468	52.1
869.636	38.29
869.803	42.35
869.971	58.48
870.138	50.07
870.306	50.35
870.473	46.99
870.641	62.37
870.808	62.31
870.975	65.62
871.143	61.53
871.31	59.72
871.478	87.98
871.645	75.26
871.812	65.14
871.98	66.71
872.147	73.84
872.314	74.72
872.482	67.99
872.649	66.59
872.816	62.1
872.983	59.12
873.15	61.19
873.318	47.97
873.485	52.56
873.652	58.7
873.819	67.7
873.986	64.6
874.153	78.43
874.32	80.94
874.487	90.81
874.654	81.93
874.821	87.28
874.988	93.7
875.155	93.42
875.322	89.14
875.489	85.11
875.656	75.74
875.823	66.23
875.99	55.51
876.157	49.8
876.324	49.5
876.49	56.27
876.657	60.25
876.824	52.41
876.991	55.75
877.157	59.51
877.324	58.53
877.491	59.17
877.658	64.87
877.824	67.76
877.991	68.97
878.157	70.37
878.324	70.92
878.491	72.94
878.657	85.71
878.824	84.66
878.99	77.95
879.157	82.23
879.323	77.69
879.49	77.14
879.656	79.54
879.823	75.17
879.989	77.61
880.156	71.19
880.322	69.61
880.488	65.11
880.655	63.95
880.821	69.32
880.987	63.96
881.154	67.27
881.32	66.39
881.486	67.53
881.652	70.08
881.819	66.36
881.985	66.74
882.151	62.41
882.317	57.08
882.483	55.88
882.649	56.08
882.816	56.66
882.982	54.19
883.148	52.25
883.314	50.98
883.48	51.55
883.646	51.08
883.812	50.43
883.978	50.6
884.144	50.91
884.31	48.8
884.476	47.9
884.642	49.14
884.807	49.43
884.973	50.08
885.139	49.84
885.305	50.29
885.471	50.14
885.637	50.8
885.802	51.67
885.968	53.77
886.134	55.57
886.3	55.24
886.465	52.89
886.631	52.31
886.797	52.16
886.962	51.98
887.128	50.49
887.293	50.6
887.459	51.11
887.625	52.33
887.79	50.5
887.956	48.04
888.121	49.94
888.287	50.85
888.452	53.36
888.618	56.71
888.783	57.7
