Data from LC_191_Reflection_1.txt Node
Date: Tue Nov 17 13:33:27 EST 2015
User: robert
Spectrometer: USB4E03001
Autoset integration time: false
Trigger mode: 4
Integration Time (sec): 1.000000E-1
Scans to average: 15
Electric dark correction enabled: true
Nonlinearity correction enabled: false
Boxcar width: 5
Stray light correction enabled: false
XAxis mode: Wavelengths
Stop averaging: false
Number of Pixels in Spectrum: 3648
>>>>>Begin Spectral Data<<<<<
177.566	179.53
177.785	234.45
178.005	-1126.12
178.225	320.65
178.445	-335.51
178.665	-121.19
178.885	210.23
179.105	-229.72
179.324	490.94
179.544	725.25
179.764	259.41
179.984	130.29
180.204	155.38
180.423	288.32
180.643	432.52
180.863	-1513.03
181.083	-2346.43
181.302	685.42
181.522	327.51
181.742	1078.55
181.961	13300
182.181	-624.46
182.401	-97.23
182.621	-321.52
182.84	-324.25
183.06	-1019
183.279	1195.32
183.499	-4900
183.719	-462.85
183.938	-86.98
184.158	-167.85
184.377	-206.75
184.597	-278
184.816	357.7
185.036	299.64
185.256	376.47
185.475	208.69
185.695	301.29
185.914	250.1
186.134	245.61
186.353	141.56
186.572	125.31
186.792	104.57
187.011	89.69
187.231	223.16
187.45	1139.21
187.67	210.16
187.889	286.35
188.108	170.24
188.328	198.01
188.547	209.81
188.766	-1031.59
188.986	1023.94
189.205	298.17
189.424	422.41
189.644	322.13
189.863	218.42
190.082	230.5
190.302	246.39
190.521	311.91
190.74	7238.96
190.959	939.06
191.178	272.56
191.398	225.04
191.617	672.01
191.836	444.32
192.055	250.98
192.274	-680.92
192.494	-464.01
192.713	-1376.86
192.932	-612.38
193.151	1214.08
193.37	18892.06
193.589	-689350
193.808	18383.15
194.027	-2341.05
194.246	-1019.97
194.465	4799.72
194.685	516.6
194.904	391.68
195.123	70608.33
195.342	1901.83
195.561	511.44
195.78	372.86
195.999	439.33
196.218	307.95
196.436	265.13
196.655	176.87
196.874	211.71
197.093	222.19
197.312	168.73
197.531	129.19
197.75	112.71
197.969	141.81
198.188	147.64
198.407	148.75
198.625	171.75
198.844	170.69
199.063	171.49
199.282	170.42
199.501	139.19
199.719	230.19
199.938	238.38
200.157	278.21
200.376	619.11
200.594	324.91
200.813	203.69
201.032	268.99
201.251	278.6
201.469	3938.39
201.688	1178.48
201.907	-5070.76
202.125	1274.1
202.344	1238.8
202.563	1146.72
202.781	879.31
203	-1032.04
203.218	-194.32
203.437	-252.2
203.656	-155.25
203.874	-236.01
204.093	-425.88
204.311	-622.36
204.53	14531.58
204.748	-633
204.967	2802.43
205.185	516.76
205.404	249.2
205.622	253.94
205.841	214.16
206.059	244.02
206.278	210.47
206.496	188.25
206.715	156.31
206.933	152.13
207.151	150.26
207.37	111.77
207.588	133.7
207.806	154.86
208.025	118.42
208.243	107.19
208.461	104.79
208.68	131.56
208.898	-166.63
209.116	-397.38
209.335	907.52
209.553	-306.02
209.771	192.49
209.989	111.65
210.208	174.46
210.426	180.72
210.644	195.85
210.862	164.76
211.081	136.6
211.299	96.19
211.517	106.26
211.735	109.66
211.953	118.93
212.171	153.48
212.39	335.25
212.608	315.3
212.826	379.79
213.044	371.22
213.262	319.58
213.48	-9770.15
213.698	-708.62
213.916	411.57
214.134	-737.78
214.352	-188.54
214.57	-202.03
214.788	2922.69
215.006	783.8
215.224	769.92
215.442	476.53
215.66	363.7
215.878	280.98
216.096	117.02
216.314	132.3
216.532	97.16
216.75	75.72
216.968	66.57
217.185	56.42
217.403	93
217.621	82.25
217.839	98.47
218.057	132.32
218.275	132.07
218.492	134.54
218.71	120.02
218.928	151.96
219.146	184.83
219.363	214.78
219.581	193.96
219.799	177.73
220.017	221.01
220.234	202.1
220.452	163.24
220.67	163.11
220.887	190.31
221.105	190.5
221.323	162.7
221.54	165.49
221.758	138.58
221.976	127.83
222.193	113.2
222.411	97.02
222.629	102.02
222.846	112.19
223.064	98.54
223.281	91.13
223.499	95.87
223.716	97.05
223.934	90.27
224.151	102.29
224.369	90.78
224.586	102.87
224.804	104.36
225.021	116.24
225.239	91.02
225.456	90.44
225.674	79.99
225.891	73.87
226.108	86.11
226.326	79.39
226.543	49.88
226.76	60.17
226.978	53.17
227.195	52.72
227.413	43.16
227.63	49.23
227.847	48.49
228.064	46.06
228.282	41.98
228.499	41.4
228.716	38.6
228.934	44.86
229.151	41.4
229.368	38.69
229.585	35.28
229.802	34.78
230.02	34.58
230.237	31.41
230.454	31.68
230.671	36.41
230.888	31.86
231.105	33.13
231.323	26.98
231.54	28.7
231.757	30.92
231.974	31.69
232.191	34.03
232.408	32.82
232.625	33.75
232.842	35.54
233.059	33.3
233.276	39.35
233.493	39.21
233.71	44.41
233.927	38.99
234.144	41.57
234.361	41.24
234.578	36.96
234.795	34.1
235.012	37.76
235.229	37.8
235.446	33.69
235.663	34.31
235.879	32.06
236.096	37.29
236.313	42.15
236.53	38.45
236.747	39.41
236.964	36.4
237.181	40.31
237.397	37.69
237.614	36.13
237.831	41.86
238.048	41.47
238.264	43.8
238.481	36.15
238.698	29.65
238.915	33.75
239.131	34.89
239.348	40.03
239.565	34.89
239.781	39.27
239.998	39.63
240.215	33.99
240.431	32.01
240.648	29.84
240.865	29
241.081	30.99
241.298	28.04
241.514	24.55
241.731	22.94
241.947	24.39
242.164	20.76
242.38	17.67
242.597	17.62
242.814	15.26
243.03	13.88
243.246	13.83
243.463	13.93
243.679	13.38
243.896	13.3
244.112	13.15
244.329	11.1
244.545	12.05
244.762	13.13
244.978	11.88
245.194	14.3
245.411	17.11
245.627	18.8
245.843	19.1
246.06	17.86
246.276	15.78
246.492	14.72
246.709	15.27
246.925	16.17
247.141	16.99
247.357	15.96
247.574	15.32
247.79	14.95
248.006	14.05
248.222	13.68
248.439	13.81
248.655	15.06
248.871	15.73
249.087	16.04
249.303	15.08
249.519	14.08
249.736	16.42
249.952	16.18
250.168	18.07
250.384	18.69
250.6	17.68
250.816	19.16
251.032	20.23
251.248	17.99
251.464	17.67
251.68	18.99
251.896	20.84
252.112	19.37
252.328	20.69
252.544	17.86
252.76	16.43
252.976	15.62
253.192	14.49
253.408	13.68
253.624	16.31
253.84	16.18
254.056	14.49
254.272	12.75
254.487	15.16
254.703	13.42
254.919	13.61
255.135	15.73
255.351	14.69
255.567	16.2
255.782	16.48
255.998	12.78
256.214	12.21
256.43	10.49
256.646	10.47
256.861	8.56
257.077	8.5
257.293	11.29
257.508	11.67
257.724	12.85
257.94	12.17
258.155	10.06
258.371	12.39
258.587	11.46
258.802	13.23
259.018	12.47
259.234	11.51
259.449	12.7
259.665	12.01
259.88	11.5
260.096	12.53
260.312	11.94
260.527	12.43
260.743	11.71
260.958	11.67
261.174	11.36
261.389	10.96
261.605	12.53
261.82	11.99
262.036	11.42
262.251	11.6
262.466	9.31
262.682	11.94
262.897	12.95
263.113	11.55
263.328	11.87
263.543	13.76
263.759	15.64
263.974	14.56
264.189	13.05
264.405	16.55
264.62	19.35
264.835	22.04
265.051	20.56
265.266	20.75
265.481	22.39
265.696	25.47
265.912	22.78
266.127	22.07
266.342	20.09
266.557	19.42
266.773	16.96
266.988	15.88
267.203	14.24
267.418	14.03
267.633	13.88
267.848	13.18
268.064	9.56
268.279	9.59
268.494	9.6
268.709	10.36
268.924	12.26
269.139	11.96
269.354	12.28
269.569	13.75
269.784	13.35
269.999	12.92
270.214	13.55
270.429	14.83
270.644	13.89
270.859	14.22
271.074	14.34
271.289	13.43
271.504	12.75
271.719	11.94
271.934	10.96
272.149	10.91
272.363	12.02
272.578	11.63
272.793	11.16
273.008	11.56
273.223	11.78
273.438	11.51
273.653	12.13
273.867	13.54
274.082	13.04
274.297	13.77
274.512	14.37
274.726	13.86
274.941	14.02
275.156	16.31
275.371	16.01
275.585	16.06
275.8	17.07
276.015	16.45
276.229	15.52
276.444	15.21
276.659	15.63
276.873	14.15
277.088	13.78
277.302	14.34
277.517	12.34
277.732	12.18
277.946	11.47
278.161	11.52
278.375	11.3
278.59	11.85
278.804	12.4
279.019	11.63
279.233	12.47
279.448	12.3
279.662	12.12
279.877	12.42
280.091	12.39
280.306	12.5
280.52	12.56
280.735	13.32
280.949	12.13
281.163	13.72
281.378	14.19
281.592	13.95
281.806	13.51
282.021	13.67
282.235	13.96
282.449	15.32
282.664	16.15
282.878	16.37
283.092	15.71
283.307	16.43
283.521	15.82
283.735	15.09
283.949	14.7
284.164	15.06
284.378	13.71
284.592	13.19
284.806	11.85
285.02	10.92
285.234	9.63
285.449	10.22
285.663	10.85
285.877	10.71
286.091	9.98
286.305	10.41
286.519	9.37
286.733	10.27
286.947	10.39
287.161	10.78
287.375	10.85
287.589	11.23
287.803	10.89
288.017	10.75
288.231	10.12
288.445	11.36
288.659	11.59
288.873	12.59
289.087	13.17
289.301	13.03
289.515	13.45
289.729	14.17
289.943	13.97
290.157	13.23
290.371	12.71
290.584	12.9
290.798	12.68
291.012	13.43
291.226	13.79
291.44	13.7
291.654	13.85
291.867	13.72
292.081	12.12
292.295	12.7
292.509	12.79
292.722	12.77
292.936	12.37
293.15	12.25
293.364	10.25
293.577	10.27
293.791	9.38
294.005	9.77
294.218	9.79
294.432	10.38
294.645	10.64
294.859	10.66
295.073	10.72
295.286	10.57
295.5	10.23
295.713	11.29
295.927	10.53
296.14	10.92
296.354	10.39
296.568	10.92
296.781	11.55
296.994	11.21
297.208	11.34
297.421	11.22
297.635	12.15
297.848	11.81
298.062	11.7
298.275	12.2
298.489	11.86
298.702	12.5
298.915	11.7
299.129	12.19
299.342	12.38
299.555	12.04
299.769	12.3
299.982	11.78
300.195	12.14
300.409	11.6
300.622	11.12
300.835	11.53
301.048	10.65
301.262	10.59
301.475	9.92
301.688	10.41
301.901	11.82
302.115	12.8
302.328	12.9
302.541	13.21
302.754	13.74
302.967	14.24
303.18	14.21
303.393	14.29
303.607	14.68
303.82	14.72
304.033	13.45
304.246	12.98
304.459	11.25
304.672	10.94
304.885	10.4
305.098	9.67
305.311	10.23
305.524	10.39
305.737	10.67
305.95	11.66
306.163	10.02
306.376	10.94
306.589	9.73
306.802	9.8
307.015	10.8
307.228	12.64
307.44	13.68
307.653	12.99
307.866	12.86
308.079	11.99
308.292	11.32
308.505	11.9
308.718	12
308.93	12.58
309.143	12.97
309.356	11.39
309.569	10.33
309.781	10.2
309.994	8.86
310.207	9.43
310.42	9.12
310.632	8.96
310.845	10
311.058	9.68
311.27	8.99
311.483	9.36
311.696	10.25
311.908	10.24
312.121	9.63
312.333	10.58
312.546	9.88
312.759	10.99
312.971	11.3
313.184	11.63
313.396	10.78
313.609	12.33
313.821	13.29
314.034	13.65
314.246	14.7
314.459	15.24
314.671	16.22
314.884	16.52
315.096	16.66
315.309	15.64
315.521	14.24
315.733	14.81
315.946	14.08
316.158	13.26
316.371	11.75
316.583	11.35
316.795	11.49
317.008	11.25
317.22	11.09
317.432	11.79
317.644	12.63
317.857	13.15
318.069	14.26
318.281	14.25
318.494	13.85
318.706	14.18
318.918	13.87
319.13	14.25
319.342	14.44
319.555	13.89
319.767	13.34
319.979	13.47
320.191	13.88
320.403	13.88
320.615	14.59
320.827	13.71
321.039	15.67
321.252	14.95
321.464	15.14
321.676	13.98
321.888	14.44
322.1	15.3
322.312	14.2
322.524	14.2
322.736	14.03
322.948	14.05
323.16	14.15
323.372	11.82
323.584	12.61
323.796	12.58
324.007	13.03
324.219	13.78
324.431	13.91
324.643	15.14
324.855	15.13
325.067	15.47
325.279	15.36
325.491	16.82
325.702	18.7
325.914	19.02
326.126	18.78
326.338	19.42
326.55	18.58
326.761	17.64
326.973	18.3
327.185	17.75
327.396	17.09
327.608	17.48
327.82	16.8
328.032	15.87
328.243	15.53
328.455	16.25
328.666	16.39
328.878	17.35
329.09	17.9
329.301	17.28
329.513	18.86
329.725	19.94
329.936	19.64
330.148	21.15
330.359	22.11
330.571	21.81
330.782	20.78
330.994	20.24
331.205	19.91
331.417	19.84
331.628	20.48
331.84	20.77
332.051	20.32
332.262	21.15
332.474	20.26
332.685	20.34
332.897	20.44
333.108	21.53
333.319	21.95
333.531	22.05
333.742	21.97
333.953	20.79
334.165	19.89
334.376	20.48
334.587	20.19
334.799	19.72
335.01	19.46
335.221	19.36
335.432	18.64
335.644	18.49
335.855	18.54
336.066	19.37
336.277	20.69
336.488	20.67
336.7	20.19
336.911	20.17
337.122	20.28
337.333	20.45
337.544	22
337.755	22.11
337.966	22.46
338.177	23.34
338.388	22.74
338.599	22.77
338.811	22.89
339.022	22.71
339.233	21.65
339.444	21.37
339.655	22.02
339.866	21.03
340.076	20.76
340.287	20.04
340.498	19.24
340.709	19.59
340.92	18.73
341.131	19.29
341.342	19.68
341.553	20.99
341.764	21.69
341.975	21.53
342.185	21.99
342.396	22.4
342.607	22.82
342.818	23.18
343.029	22.33
343.239	22.34
343.45	22.41
343.661	22.15
343.872	21.53
344.082	21.27
344.293	20.67
344.504	21.7
344.714	21.61
344.925	21.79
345.136	20.56
345.346	20.96
345.557	20.82
345.768	21.26
345.978	20.89
346.189	21.64
346.399	21.85
346.61	22.16
346.821	21.18
347.031	21.69
347.242	21.63
347.452	22.55
347.663	22.21
347.873	22.65
348.084	21
348.294	22.21
348.504	21.92
348.715	21.77
348.925	22.05
349.136	20.96
349.346	20.59
349.557	20.41
349.767	20.16
349.977	19.39
350.188	18.72
350.398	19.51
350.608	18.23
350.819	17.33
351.029	16.97
351.239	17.48
351.449	17.83
351.66	18.14
351.87	17.98
352.08	18.73
352.29	20.07
352.501	20.4
352.711	20.17
352.921	20.79
353.131	21.31
353.341	21.57
353.552	20.01
353.762	20.35
353.972	19.27
354.182	19.98
354.392	19.51
354.602	19.9
354.812	20.08
355.022	19.93
355.232	18.85
355.442	18.83
355.652	19.16
355.862	20.04
356.072	19.24
356.282	19.6
356.492	18.68
356.702	18.36
356.912	17.81
357.122	17.82
357.332	18
357.542	18.33
357.752	18.46
357.962	18.04
358.171	17.35
358.381	18.06
358.591	17.69
358.801	18.07
359.011	17.74
359.221	18.23
359.43	18.58
359.64	18.14
359.85	18.32
360.06	18.15
360.269	17.74
360.479	17.69
360.689	17.02
360.899	17.5
361.108	17.54
361.318	17.63
361.528	16.98
361.737	16.36
361.947	16.56
362.156	16.65
362.366	16.38
362.576	16.33
362.785	16.54
362.995	16.66
363.204	16.1
363.414	15.72
363.623	15.61
363.833	15.7
364.042	15.5
364.252	15.33
364.461	15.35
364.671	15.44
364.88	15.69
365.09	15.91
365.299	16.63
365.509	17.2
365.718	17.65
365.927	17.35
366.137	18.11
366.346	18.56
366.555	18.63
366.765	18.48
366.974	18.54
367.183	18.68
367.393	17.92
367.602	17.68
367.811	17.78
368.021	17.73
368.23	18.35
368.439	17.53
368.648	17.27
368.857	17.43
369.067	17.56
369.276	17.64
369.485	17.78
369.694	17.91
369.903	17.79
370.112	17.37
370.321	17.26
370.531	16.82
370.74	16.62
370.949	16.41
371.158	16.31
371.367	15.99
371.576	16.37
371.785	16.42
371.994	16.85
372.203	16.82
372.412	16.79
372.621	16.55
372.83	16.95
373.039	17.64
373.248	17.8
373.457	17.85
373.666	17.88
373.874	17.73
374.083	17.42
374.292	17.17
374.501	16.87
374.71	16.47
374.919	16.54
375.128	16.18
375.336	15.56
375.545	15.98
375.754	15.49
375.963	15.2
376.171	15.01
376.38	15.5
376.589	15.59
376.798	15.47
377.006	16.26
377.215	16.57
377.424	16.23
377.632	16.18
377.841	15.57
378.05	15.77
378.258	16.32
378.467	16.03
378.675	14.85
378.884	14.69
379.093	14.92
379.301	14.53
379.51	14.32
379.718	14.72
379.927	15.1
380.135	15.19
380.344	15.23
380.552	14.87
380.761	15.15
380.969	15.7
381.177	15.46
381.386	15.17
381.594	15.45
381.803	15.21
382.011	14.93
382.219	14.58
382.428	14.91
382.636	14.7
382.845	14.82
383.053	14.71
383.261	14.73
383.469	15.54
383.678	15.87
383.886	15.36
384.094	15.33
384.302	15.76
384.511	15.71
384.719	15.45
384.927	15.85
385.135	15.97
385.343	15.93
385.552	15.93
385.76	15.67
385.968	15.18
386.176	15.23
386.384	15.3
386.592	14.93
386.8	15.11
387.008	15.39
387.216	15.16
387.424	14.9
387.633	14.73
387.841	14.75
388.049	14.79
388.257	14.98
388.465	14.98
388.672	14.53
388.88	14.47
389.088	14.77
389.296	14.56
389.504	14.9
389.712	15.09
389.92	14.85
390.128	14.96
390.336	14.77
390.544	14.67
390.751	14.56
390.959	14.99
391.167	15.26
391.375	14.98
391.583	14.85
391.79	14.37
391.998	14.39
392.206	14.86
392.414	14.73
392.621	14.6
392.829	14.48
393.037	14.56
393.244	14.51
393.452	14.3
393.66	14.03
393.867	14.01
394.075	14.07
394.283	13.63
394.49	13.18
394.698	13.26
394.905	13.09
395.113	13.26
395.32	13.11
395.528	13.11
395.735	13.29
395.943	13.26
396.15	13.29
396.358	13.53
396.565	13.48
396.773	13.57
396.98	13.75
397.188	14.09
397.395	14.03
397.602	14.3
397.81	14.5
398.017	14.47
398.225	14.66
398.432	14.78
398.639	14.72
398.847	15.27
399.054	15.28
399.261	15.05
399.468	14.88
399.676	15.08
399.883	14.91
400.09	14.45
400.297	14.58
400.505	14.57
400.712	14.64
400.919	14.51
401.126	14.06
401.333	14.15
401.54	14.09
401.748	14.03
401.955	13.96
402.162	14.14
402.369	14.34
402.576	14.12
402.783	13.78
402.99	13.58
403.197	13.43
403.404	13.61
403.611	13.59
403.818	13.66
404.025	13.43
404.232	13.21
404.439	13.14
404.646	13.03
404.853	13.04
405.06	13.21
405.267	13.07
405.474	13.07
405.681	12.77
405.887	12.79
406.094	12.81
406.301	13.12
406.508	13.16
406.715	13.12
406.922	13.1
407.128	13.1
407.335	13.03
407.542	13.17
407.749	13.29
407.955	13.79
408.162	13.8
408.369	13.93
408.575	13.74
408.782	14.02
408.989	14.04
409.195	14.35
409.402	14.17
409.609	14.44
409.815	14.2
410.022	14.21
410.228	13.92
410.435	13.66
410.642	13.42
410.848	13.49
411.055	13.38
411.261	13.28
411.468	13.53
411.674	13.66
411.881	13.57
412.087	14.03
412.294	14.23
412.5	14.17
412.706	14.6
412.913	14.54
413.119	14.54
413.326	14.1
413.532	13.92
413.738	13.57
413.945	13.19
414.151	12.96
414.357	12.86
414.564	12.33
414.77	12.46
414.976	12.42
415.182	12.65
415.389	12.6
415.595	12.91
415.801	13.09
416.007	13.04
416.214	13.45
416.42	13.37
416.626	13.26
416.832	13.65
417.038	13.64
417.244	13.41
417.45	13.35
417.657	13.29
417.863	13.26
418.069	13.3
418.275	13.2
418.481	13
418.687	13.09
418.893	13.23
419.099	12.97
419.305	13.11
419.511	13.3
419.717	13.23
419.923	13.23
420.129	13.12
420.335	13.13
420.541	13.06
420.746	13.12
420.952	13.08
421.158	12.96
421.364	13.05
421.57	12.9
421.776	12.81
421.982	12.82
422.187	12.79
422.393	12.83
422.599	12.74
422.805	12.73
423.01	12.68
423.216	12.82
423.422	12.88
423.628	12.97
423.833	13.04
424.039	12.89
424.245	12.89
424.45	12.94
424.656	12.93
424.862	12.91
425.067	12.93
425.273	13.04
425.478	12.99
425.684	12.84
425.889	12.73
426.095	12.57
426.301	12.63
426.506	12.67
426.712	12.72
426.917	12.89
427.123	13.1
427.328	13.17
427.533	13.12
427.739	12.99
427.944	13
428.15	13.1
428.355	13.14
428.561	13.33
428.766	13.23
428.971	13.15
429.177	12.99
429.382	12.87
429.587	12.92
429.793	13.03
429.998	13.12
430.203	13.16
430.408	13.16
430.614	13.2
430.819	13.18
431.024	13.4
431.229	13.4
431.434	13.43
431.64	13.58
431.845	13.67
432.05	13.59
432.255	13.65
432.46	13.66
432.665	13.6
432.87	13.6
433.076	13.35
433.281	13.41
433.486	13.39
433.691	13.37
433.896	13.14
434.101	12.94
434.306	12.99
434.511	12.96
434.716	12.89
434.921	12.74
435.126	12.92
435.331	12.94
435.535	12.82
435.74	12.93
435.945	12.92
436.15	12.98
436.355	13.07
436.56	12.9
436.765	12.95
436.97	13.09
437.174	13.11
437.379	12.89
437.584	13.21
437.789	13.17
437.993	12.97
438.198	13.01
438.403	12.91
438.608	12.88
438.812	12.81
439.017	12.63
439.222	12.67
439.426	12.79
439.631	12.76
439.836	12.57
440.04	12.37
440.245	12.48
440.45	12.39
440.654	12.44
440.859	12.37
441.063	12.46
441.268	12.56
441.472	12.61
441.677	12.67
441.881	12.75
442.086	12.82
442.29	12.85
442.495	12.99
442.699	13.14
442.904	13.21
443.108	13.29
443.312	13.28
443.517	13.33
443.721	13.23
443.925	13.14
444.13	13.06
444.334	12.98
444.538	13.01
444.743	12.79
444.947	12.73
445.151	12.68
445.356	12.6
445.56	12.62
445.764	12.49
445.968	12.49
446.173	12.48
446.377	12.47
446.581	12.56
446.785	12.57
446.989	12.58
447.193	12.63
447.398	12.68
447.602	12.74
447.806	12.74
448.01	12.78
448.214	12.77
448.418	12.7
448.622	12.79
448.826	12.68
449.03	12.77
449.234	12.74
449.438	12.58
449.642	12.48
449.846	12.49
450.05	12.32
450.254	12.32
450.458	12.24
450.662	12.31
450.866	12.3
451.069	12.41
451.273	12.27
451.477	12.35
451.681	12.49
451.885	12.79
452.089	12.79
452.292	12.86
452.496	12.79
452.7	12.86
452.904	12.9
453.107	12.88
453.311	12.85
453.515	12.99
453.719	12.98
453.922	12.89
454.126	12.6
454.33	12.61
454.533	12.54
454.737	12.55
454.94	12.48
455.144	12.47
455.348	12.45
455.551	12.34
455.755	12.43
455.958	12.35
456.162	12.37
456.365	12.48
456.569	12.32
456.772	12.5
456.976	12.68
457.179	12.94
457.383	12.85
457.586	12.99
457.79	13.06
457.993	13.12
458.196	13.05
458.4	13.26
458.603	13.26
458.807	13.23
459.01	13.17
459.213	13.1
459.417	12.85
459.62	13.04
459.823	12.85
460.026	12.68
460.23	12.51
460.433	12.59
460.636	12.36
460.839	12.24
461.042	12.33
461.246	12.38
461.449	12.42
461.652	12.55
461.855	12.36
462.058	12.38
462.261	12.6
462.464	12.53
462.668	12.4
462.871	12.4
463.074	12.4
463.277	12.27
463.48	12.27
463.683	12.12
463.886	12.19
464.089	12.09
464.292	12.25
464.495	12.16
464.698	12.19
464.901	12.25
465.104	12.44
465.306	12.52
465.509	12.6
465.712	12.49
465.915	12.83
466.118	12.62
466.321	12.6
466.524	12.41
466.726	12.54
466.929	12.57
467.132	12.62
467.335	12.52
467.538	12.45
467.74	12.47
467.943	12.47
468.146	12.16
468.348	12.14
468.551	12.24
468.754	12.44
468.956	12.42
469.159	12.4
469.362	12.27
469.564	12.3
469.767	12.36
469.969	12.37
470.172	12.5
470.375	12.62
470.577	12.77
470.78	12.65
470.982	12.53
471.185	12.34
471.387	12.39
471.59	12.52
471.792	12.5
471.995	12.47
472.197	12.48
472.399	12.36
472.602	12.36
472.804	12.42
473.007	12.5
473.209	12.52
473.411	12.59
473.614	12.66
473.816	12.71
474.018	12.69
474.22	12.61
474.423	12.7
474.625	12.58
474.827	12.45
475.03	12.45
475.232	12.36
475.434	12.31
475.636	12.44
475.838	12.37
476.04	12.2
476.243	12.24
476.445	12.33
476.647	12.39
476.849	12.38
477.051	12.4
477.253	12.29
477.455	12.41
477.657	12.45
477.859	12.43
478.061	12.41
478.263	12.39
478.465	12.38
478.667	12.29
478.869	12.08
479.071	12.31
479.273	12.29
479.475	12.31
479.677	12.32
479.879	12.2
480.081	12.24
480.283	12.25
480.485	12.36
480.686	12.39
480.888	12.44
481.09	12.47
481.292	12.28
481.494	12.18
481.695	12.18
481.897	12.13
482.099	12.14
482.301	12.16
482.502	12.09
482.704	12.06
482.906	12.04
483.107	12
483.309	11.96
483.511	11.95
483.712	11.97
483.914	11.96
484.115	11.93
484.317	11.9
484.519	11.84
484.72	11.87
484.922	11.83
485.123	11.79
485.325	11.78
485.526	11.81
485.728	11.8
485.929	11.83
486.131	11.81
486.332	11.85
486.534	11.85
486.735	11.82
486.936	11.81
487.138	11.8
487.339	11.87
487.541	11.91
487.742	11.91
487.943	11.94
488.144	11.95
488.346	11.91
488.547	11.9
488.748	11.97
488.95	11.97
489.151	12
489.352	12.08
489.553	12.11
489.755	12.16
489.956	12.07
490.157	12.08
490.358	12.05
490.559	12.03
490.76	12.09
490.961	12.04
491.163	12.09
491.364	12.07
491.565	12.01
491.766	11.96
491.967	11.93
492.168	11.95
492.369	11.96
492.57	12.01
492.771	12.13
492.972	12.12
493.173	12.22
493.374	12.27
493.575	12.27
493.776	12.28
493.976	12.35
494.177	12.32
494.378	12.35
494.579	12.46
494.78	12.41
494.981	12.25
495.182	12.23
495.382	12.21
495.583	12.18
495.784	12.18
495.985	12.21
496.185	12.19
496.386	12.19
496.587	12.29
496.788	12.49
496.988	12.46
497.189	12.51
497.39	12.48
497.59	12.47
497.791	12.49
497.992	12.51
498.192	12.59
498.393	12.56
498.593	12.59
498.794	12.56
498.994	12.41
499.195	12.4
499.395	12.67
499.596	12.67
499.796	12.55
499.997	12.55
500.197	12.43
500.398	12.53
500.598	12.55
500.799	12.59
500.999	12.52
501.199	12.5
501.4	12.54
501.6	12.38
501.801	12.51
502.001	12.5
502.201	12.53
502.402	12.75
502.602	12.54
502.802	12.57
503.002	12.62
503.203	12.67
503.403	12.47
503.603	12.43
503.803	12.31
504.003	12.16
504.204	12.2
504.404	12.41
504.604	12.39
504.804	12.62
505.004	12.7
505.204	12.68
505.404	12.65
505.604	12.73
505.804	12.66
506.005	12.63
506.205	12.67
506.405	12.7
506.605	12.42
506.805	12.37
507.005	12.25
507.204	12.02
507.404	11.88
507.604	12.03
507.804	12.14
508.004	12.42
508.204	12.48
508.404	12.63
508.604	12.73
508.804	12.86
509.003	12.99
509.203	12.92
509.403	13.07
509.603	13.21
509.803	13.29
510.002	13.26
510.202	13.2
510.402	13.3
510.602	13.22
510.801	13.18
511.001	13.1
511.201	13.04
511.4	13.02
511.6	13.06
511.8	12.92
511.999	12.79
512.199	12.8
512.398	12.81
512.598	12.84
512.797	12.91
512.997	12.84
513.197	12.92
513.396	12.87
513.596	12.97
513.795	13.04
513.994	13.19
514.194	13.31
514.393	13.33
514.593	13.12
514.792	13.11
514.992	13.19
515.191	13.39
515.39	13.41
515.59	13.46
515.789	13.57
515.988	13.54
516.188	13.68
516.387	13.64
516.586	13.54
516.786	13.72
516.985	13.65
517.184	13.61
517.383	13.66
517.582	13.5
517.782	13.48
517.981	13.45
518.18	13.45
518.379	13.45
518.578	13.44
518.777	13.48
518.976	13.45
519.176	13.57
519.375	13.58
519.574	13.57
519.773	13.7
519.972	13.68
520.171	13.68
520.37	13.75
520.569	13.72
520.768	13.75
520.967	13.76
521.166	13.84
521.365	13.76
521.564	13.84
521.762	13.85
521.961	13.77
522.16	13.85
522.359	13.97
522.558	13.87
522.757	13.86
522.956	13.93
523.154	14.06
523.353	13.95
523.552	13.98
523.751	14
523.949	13.97
524.148	14.03
524.347	14.17
524.546	14.14
524.744	14.23
524.943	14.29
525.142	14.27
525.34	14.24
525.539	14.38
525.737	14.42
525.936	14.47
526.135	14.48
526.333	14.44
526.532	14.32
526.73	14.31
526.929	14.25
527.127	14.21
527.326	14.17
527.524	14.18
527.723	14.19
527.921	14.24
528.12	14.17
528.318	14.13
528.516	14.23
528.715	14.28
528.913	14.32
529.112	14.33
529.31	14.33
529.508	14.38
529.707	14.44
529.905	14.48
530.103	14.44
530.301	14.48
530.5	14.5
530.698	14.54
530.896	14.59
531.094	14.64
531.293	14.72
531.491	14.8
531.689	14.83
531.887	14.93
532.085	14.97
532.283	15.03
532.481	14.97
532.68	14.97
532.878	14.96
533.076	15.02
533.274	15.03
533.472	15.05
533.67	14.99
533.868	15.06
534.066	14.99
534.264	14.93
534.462	14.89
534.66	14.97
534.858	15.08
535.056	15.11
535.253	15.06
535.451	15.06
535.649	15.18
535.847	15.3
536.045	15.36
536.243	15.42
536.441	15.61
536.638	15.7
536.836	15.72
537.034	15.68
537.232	15.73
537.43	15.78
537.627	15.87
537.825	15.9
538.023	15.93
538.22	16.04
538.418	16.07
538.616	16.03
538.813	16.17
539.011	16.35
539.209	16.5
539.406	16.62
539.604	16.78
539.801	16.75
539.999	16.71
540.196	16.8
540.394	16.84
540.591	16.87
540.789	16.93
540.986	16.92
541.184	16.85
541.381	16.89
541.579	16.78
541.776	16.74
541.974	16.72
542.171	16.71
542.368	16.69
542.566	16.63
542.763	16.55
542.96	16.47
543.158	16.39
543.355	16.45
543.552	16.44
543.75	16.58
543.947	16.61
544.144	16.63
544.341	16.72
544.539	16.89
544.736	16.84
544.933	16.82
545.13	16.91
545.327	17.1
545.524	17.11
545.722	17.21
545.919	17.16
546.116	17.28
546.313	17.39
546.51	17.47
546.707	17.51
546.904	17.69
547.101	18.01
547.298	18.13
547.495	18.09
547.692	18.19
547.889	18.18
548.086	18.48
548.283	18.5
548.48	18.58
548.677	18.53
548.874	18.53
549.07	18.51
549.267	18.6
549.464	18.66
549.661	18.92
549.858	18.95
550.055	18.95
550.251	18.81
550.448	18.94
550.645	19.04
550.842	19.39
551.038	19.62
551.235	19.92
551.432	19.88
551.628	19.99
551.825	20.04
552.022	20.17
552.218	20.26
552.415	20.32
552.612	20.35
552.808	20.41
553.005	20.4
553.201	20.21
553.398	20.15
553.594	20.27
553.791	20.44
553.987	20.46
554.184	20.51
554.38	20.88
554.577	21.05
554.773	21.12
554.97	21.31
555.166	21.41
555.362	21.57
555.559	21.64
555.755	21.64
555.952	21.57
556.148	21.68
556.344	21.79
556.541	21.51
556.737	21.56
556.933	21.69
557.129	21.72
557.326	21.65
557.522	21.77
557.718	21.97
557.914	22.05
558.11	22.11
558.307	22.14
558.503	22.23
558.699	22.52
558.895	22.55
559.091	22.68
559.287	22.78
559.483	23.03
559.679	23.1
559.876	23
560.072	23.16
560.268	23.4
560.464	23.55
560.66	23.53
560.856	23.63
561.052	23.79
561.247	23.83
561.443	24.01
561.639	23.85
561.835	23.85
562.031	24.09
562.227	24.17
562.423	24.1
562.619	24.18
562.815	24.29
563.01	24.23
563.206	24.29
563.402	24.26
563.598	24.03
563.793	24.04
563.989	24.15
564.185	24.23
564.381	24.39
564.576	24.26
564.772	24.23
564.968	24.11
565.163	24.04
565.359	23.99
565.555	23.94
565.75	24.23
565.946	24.54
566.141	24.61
566.337	24.58
566.532	24.47
566.728	24.72
566.923	24.91
567.119	25.12
567.314	25.26
567.51	25.45
567.705	25.58
567.901	25.49
568.096	25.46
568.292	25.43
568.487	25.58
568.682	25.71
568.878	25.83
569.073	25.78
569.268	25.72
569.464	25.89
569.659	25.91
569.854	26.12
570.05	26.23
570.245	26.27
570.44	26.52
570.635	26.51
570.831	26.58
571.026	26.68
571.221	26.77
571.416	26.91
571.611	26.85
571.806	26.91
572.002	26.87
572.197	26.87
572.392	26.95
572.587	27.06
572.782	27.24
572.977	27.25
573.172	27.15
573.367	27.13
573.562	27.24
573.757	27.31
573.952	27.28
574.147	27.57
574.342	27.59
574.537	27.63
574.732	27.42
574.927	27.33
575.121	27.38
575.316	27.45
575.511	27.44
575.706	27.48
575.901	27.58
576.096	27.63
576.29	27.6
576.485	27.67
576.68	27.91
576.875	28.08
577.069	28.23
577.264	28.2
577.459	28.38
577.654	28.58
577.848	28.93
578.043	29
578.238	29.16
578.432	29.09
578.627	29.1
578.821	28.91
579.016	28.97
579.21	29.15
579.405	29.4
579.6	29.45
579.794	29.41
579.989	29.16
580.183	28.91
580.378	28.97
580.572	28.92
580.766	29.18
580.961	29.6
581.155	29.73
581.35	29.7
581.544	29.82
581.738	29.66
581.933	29.82
582.127	29.72
582.321	30.03
582.516	30.11
582.71	30.3
582.904	30.48
583.099	30.23
583.293	30.44
583.487	30.36
583.681	30.35
583.875	30.54
584.07	30.93
584.264	31.29
584.458	31.46
584.652	31.61
584.846	31.75
585.04	31.79
585.234	31.98
585.428	31.86
585.623	32.08
585.817	32.27
586.011	32.48
586.205	32.39
586.399	32.54
586.593	32.57
586.787	32.48
586.981	32.39
587.174	32.42
587.368	32.41
587.562	32.63
587.756	32.62
587.95	32.5
588.144	32.37
588.338	32.45
588.532	32.35
588.725	32.43
588.919	32.77
589.113	32.77
589.307	32.59
589.501	32.58
589.694	32.69
589.888	32.8
590.082	32.8
590.275	32.92
590.469	32.7
590.663	32.59
590.856	32.63
591.05	32.66
591.244	32.72
591.437	32.99
591.631	32.95
591.824	32.85
592.018	32.86
592.212	32.98
592.405	33.02
592.599	33.11
592.792	33.53
592.986	33.62
593.179	33.51
593.372	33.71
593.566	33.91
593.759	34.06
593.953	34.16
594.146	34.19
594.339	34.33
594.533	34.15
594.726	34.43
594.92	34.27
595.113	34.25
595.306	34.29
595.499	34.31
595.693	33.91
595.886	33.92
596.079	33.85
596.272	33.73
596.466	33.82
596.659	34.03
596.852	33.93
597.045	34.03
597.238	33.87
597.431	33.88
597.624	33.93
597.818	34.2
598.011	34.22
598.204	34.28
598.397	34.54
598.59	34.36
598.783	34.41
598.976	34.35
599.169	34.47
599.362	34.76
599.555	34.93
599.748	35.08
599.941	35.02
600.134	35.18
600.326	35.05
600.519	35.03
600.712	35
600.905	35.12
601.098	35.5
601.291	35.27
601.483	35.28
601.676	35.12
601.869	34.9
602.062	34.97
602.255	34.89
602.447	35.23
602.64	35.15
602.833	35.28
603.025	35.19
603.218	35.05
603.411	35.08
603.603	35.21
603.796	35.22
603.989	35.28
604.181	35.31
604.374	35.46
604.566	35.22
604.759	35.28
604.951	35.33
605.144	35.32
605.336	35.39
605.529	35.31
605.721	35.44
605.914	35.49
606.106	35.51
606.299	35.67
606.491	35.71
606.683	36.2
606.876	36.4
607.068	36.54
607.26	36.99
607.453	37.24
607.645	37.5
607.837	37.34
608.03	37.62
608.222	37.85
608.414	37.79
608.606	37.81
608.799	37.35
608.991	37.39
609.183	37.48
609.375	37.45
609.567	37.44
609.759	37.47
609.952	37.69
610.144	37.83
610.336	37.65
610.528	37.77
610.72	37.73
610.912	38.05
611.104	38.14
611.296	38.35
611.488	38.48
611.68	38.68
611.872	39.01
612.064	39.15
612.256	39.22
612.448	39.38
612.64	39.41
612.832	39.75
613.023	40.04
613.215	40.11
613.407	40
613.599	39.89
613.791	39.88
613.983	39.75
614.174	39.7
614.366	39.66
614.558	39.97
614.75	40.08
614.941	40.17
615.133	40.21
615.325	40.29
615.516	40.38
615.708	40.18
615.9	40.17
616.091	40.11
616.283	40.01
616.475	40.06
616.666	39.94
616.858	40.24
617.049	40.16
617.241	39.99
617.432	40
617.624	40.08
617.815	40.34
618.007	40.31
618.198	40.54
618.39	40.69
618.581	40.55
618.773	40.68
618.964	40.54
619.155	40.81
619.347	40.9
619.538	40.98
619.729	41.15
619.921	41.13
620.112	40.82
620.303	40.67
620.494	40.8
620.686	40.74
620.877	40.78
621.068	41.01
621.259	40.88
621.451	41.05
621.642	41.22
621.833	41.11
622.024	41.1
622.215	41.36
622.406	41.52
622.597	41.21
622.788	41.38
622.98	41.19
623.171	41.19
623.362	41.18
623.553	41.27
623.744	41.36
623.935	41.29
624.126	41.3
624.317	41.09
624.508	41.33
624.698	41.27
624.889	41.13
625.08	41.46
625.271	41.04
625.462	40.93
625.653	40.69
625.844	40.36
626.034	40.27
626.225	40.38
626.416	40.53
626.607	40.47
626.798	40.69
626.988	40.77
627.179	40.72
627.37	40.87
627.56	40.9
627.751	40.92
627.942	40.91
628.132	41.01
628.323	41.18
628.514	41.25
628.704	41.29
628.895	41.47
629.085	41.97
629.276	41.84
629.466	42.28
629.657	42.16
629.847	42.44
630.038	42.66
630.228	42.99
630.419	42.93
630.609	43.09
630.8	43.11
630.99	42.81
631.181	42.59
631.371	42.5
631.561	42.25
631.752	42.68
631.942	42.67
632.132	42.75
632.323	42.62
632.513	42.81
632.703	42.79
632.893	42.54
633.084	42.54
633.274	42.54
633.464	43.01
633.654	42.86
633.844	42.68
634.034	42.57
634.225	42.64
634.415	42.74
634.605	42.47
634.795	42.65
634.985	42.94
635.175	43.19
635.365	42.71
635.555	42.54
635.745	42.7
635.935	42.8
636.125	43.13
636.315	43.08
636.505	43.03
636.695	42.95
636.885	42.81
637.075	43.01
637.265	43.11
637.455	43.7
637.644	44.12
637.834	44.14
638.024	44.03
638.214	44.07
638.404	44.09
638.593	44.1
638.783	44.26
638.973	44.67
639.163	44.39
639.352	44.55
639.542	44.83
639.732	44.67
639.921	44.73
640.111	44.98
640.301	45.03
640.49	45.35
640.68	45.6
640.87	45.77
641.059	45.41
641.249	45.57
641.438	45.45
641.628	45.37
641.817	45.38
642.007	45.67
642.196	45.6
642.386	45.39
642.575	45.62
642.764	45.33
642.954	45.58
643.143	45.73
643.333	45.75
643.522	45.96
643.711	45.71
643.901	45.75
644.09	45.56
644.279	46.14
644.469	46.1
644.658	45.74
644.847	45.56
645.036	45.65
645.226	45.47
645.415	45.63
645.604	45.7
645.793	45.89
645.982	45.75
646.171	45.6
646.361	45.23
646.55	45.52
646.739	45.39
646.928	45.6
647.117	45.34
647.306	45.62
647.495	45.75
647.684	45.41
647.873	45.78
648.062	45.95
648.251	46.37
648.44	46.12
648.629	45.62
648.818	45.89
649.007	46
649.196	45.87
649.384	45.61
649.573	45.31
649.762	45.79
649.951	45.45
650.14	45.29
650.328	45.24
650.517	45.66
650.706	46.06
650.895	45.99
651.083	45.97
651.272	46.5
651.461	46.67
651.65	46.72
651.838	46.44
652.027	46.11
652.216	46.27
652.404	45.99
652.593	45.93
652.781	46.09
652.97	45.93
653.158	46.03
653.347	46.01
653.535	46.14
653.724	46.21
653.912	46.29
654.101	46.54
654.289	46.41
654.478	46.6
654.666	46.62
654.855	46.68
655.043	46.77
655.231	46.58
655.42	46.43
655.608	46.37
655.796	46.55
655.985	46.58
656.173	47.04
656.361	47.75
656.55	47.79
656.738	48.01
656.926	48.03
657.114	48.19
657.302	48.68
657.491	48.48
657.679	48.31
657.867	48.03
658.055	47.86
658.243	47.51
658.431	47.02
658.619	47.06
658.807	46.78
658.996	46.38
659.184	46.25
659.372	45.8
659.56	45.79
659.748	45.87
659.936	45.65
660.124	45.58
660.311	45.76
660.499	45.77
660.687	45.63
660.875	46.01
661.063	46.03
661.251	46.04
661.439	46.33
661.627	46.83
661.814	46.88
662.002	47.24
662.19	47.78
662.378	47.48
662.565	47.42
662.753	47.86
662.941	48.04
663.129	48.34
663.316	48.7
663.504	48.88
663.692	48.81
663.879	49.46
664.067	49.81
664.254	49.85
664.442	50.32
664.63	51.14
664.817	51.16
665.005	50.74
665.192	51.13
665.38	51.24
665.567	51.36
665.755	51.17
665.942	50.57
666.13	50.7
666.317	51.09
666.504	50.72
666.692	50.23
666.879	50.24
667.067	50.6
667.254	50.51
667.441	50.55
667.629	50.47
667.816	50.45
668.003	50.42
668.19	50.09
668.378	49.67
668.565	50.02
668.752	50.24
668.939	50.13
669.127	49.75
669.314	49.51
669.501	49.18
669.688	49.48
669.875	49.4
670.062	49.69
670.249	50.08
670.436	50.17
670.623	50
670.81	49.97
670.997	49.76
671.184	49.79
671.371	50.38
671.558	50.67
671.745	50.95
671.932	51.22
672.119	51.3
672.306	51.26
672.493	51.26
672.68	51.33
672.867	51.5
673.054	51.87
673.24	52.25
673.427	51.81
673.614	52.16
673.801	51.71
673.988	51.47
674.174	51.72
674.361	51.57
674.548	51.67
674.734	52.24
674.921	51.93
675.108	52.14
675.294	52.05
675.481	52.32
675.668	52.08
675.854	52.18
676.041	52.45
676.227	52.25
676.414	52.69
676.601	52.82
676.787	52.35
676.974	52.14
677.16	51.75
677.347	51.61
677.533	51.56
677.719	51.26
677.906	50.82
678.092	51.09
678.279	51.03
678.465	50.56
678.651	50.08
678.838	50.47
679.024	50.64
679.21	50.63
679.397	50.44
679.583	50.25
679.769	50.04
679.955	50.05
680.142	49.61
680.328	49.63
680.514	49.42
680.7	49.67
680.886	49.3
681.073	49.63
681.259	49.34
681.445	49.39
681.631	49.3
681.817	49.1
682.003	49.15
682.189	49.3
682.375	49.21
682.561	49.59
682.747	49.44
682.933	49.69
683.119	49.29
683.305	49.78
683.491	49.99
683.677	50.05
683.863	51.16
684.049	51.68
684.235	51.5
684.42	51.85
684.606	51.97
684.792	51.89
684.978	51.77
685.164	52.24
685.349	52.25
685.535	51.94
685.721	51.84
685.907	51.22
686.092	51.14
686.278	51.25
686.464	51.11
686.649	51.01
686.835	51.14
687.021	51.16
687.206	50.82
687.392	50.84
687.577	51.41
687.763	51.88
687.948	52.11
688.134	51.87
688.319	52.2
688.505	51.89
688.69	51.98
688.876	51.76
689.061	51.74
689.247	52.12
689.432	52.4
689.618	52.07
689.803	52.22
689.988	52.39
690.174	52.52
690.359	52.39
690.544	52.59
690.73	52.89
690.915	53.72
691.1	53.74
691.285	53.51
691.471	52.9
691.656	53.2
691.841	52.85
692.026	52.77
692.211	52.79
692.396	52.85
692.582	53.39
692.767	53.7
692.952	53.14
693.137	53.54
693.322	53.79
693.507	54.19
693.692	54.11
693.877	54.51
694.062	53.88
694.247	53.98
694.432	54.54
694.617	53.69
694.802	52.81
694.987	52.94
695.172	52.55
695.357	52.76
695.541	52.8
695.726	52.95
695.911	53.51
696.096	53.63
696.281	53.77
696.466	53.11
696.65	53.1
696.835	53
697.02	52.61
697.204	52.01
697.389	51.7
697.574	51.76
697.759	51.43
697.943	50.44
698.128	50.51
698.312	50.24
698.497	49.73
698.682	49.56
698.866	49.25
699.051	49.58
699.235	50.06
699.42	50.02
699.604	49.92
699.789	49.57
699.973	49.89
700.158	49.73
700.342	49.79
700.527	50.43
700.711	51.09
700.895	51.75
701.08	51.76
701.264	51.81
701.448	51.7
701.633	51.58
701.817	52.29
702.001	52.9
702.186	53.65
702.37	54.09
702.554	54.33
702.738	54.98
702.923	55.76
703.107	56.3
703.291	56.85
703.475	57.52
703.659	58.03
703.843	58.05
704.027	58.29
704.212	58.29
704.396	58.78
704.58	58.96
704.764	58.5
704.948	58.42
705.132	58.46
705.316	58.41
705.5	58.27
705.684	58.51
705.868	59.23
706.052	58.89
706.235	59.05
706.419	58.39
706.603	58.59
706.787	58.06
706.971	57.51
707.155	56.03
707.339	55.72
707.522	55.47
707.706	55.45
707.89	55.7
708.074	55.22
708.257	55.38
708.441	55.57
708.625	55.94
708.808	56.2
708.992	56.13
709.176	58.03
709.359	57.95
709.543	58.14
709.727	57.48
709.91	57.09
710.094	57.13
710.277	56.96
710.461	56.99
710.644	56.64
710.828	56.71
711.011	56.88
711.195	56.12
711.378	55.85
711.562	55.83
711.745	56.83
711.928	56.8
712.112	57.04
712.295	56.95
712.478	57.11
712.662	57.19
712.845	57.05
713.028	57.57
713.212	57.69
713.395	57.91
713.578	58.37
713.761	57.89
713.945	57.59
714.128	58.08
714.311	58.06
714.494	57.14
714.677	57.71
714.86	58.06
715.043	57.29
715.227	56.89
715.41	56.96
715.593	56.74
715.776	56.46
715.959	56.74
716.142	56.2
716.325	55.63
716.508	56.51
716.691	55.33
716.874	55.06
717.057	55.07
717.239	55.74
717.422	56.1
717.605	56.1
717.788	56.32
717.971	56.44
718.154	56.63
718.337	57.53
718.519	57.87
718.702	57.86
718.885	57.76
719.068	58.48
719.25	58.42
719.433	58.61
719.616	58.63
719.798	58.81
719.981	59.05
720.164	58.84
720.346	59.5
720.529	59.44
720.712	59.67
720.894	60.07
721.077	59.84
721.259	59.48
721.442	59.27
721.624	59.57
721.807	59.59
721.989	58.79
722.172	59.08
722.354	58.9
722.537	58.75
722.719	59.88
722.901	60.11
723.084	59.53
723.266	59.82
723.448	60.47
723.631	60.33
723.813	60.39
723.995	61.16
724.178	60.5
724.36	60.3
724.542	60.03
724.724	60.01
724.907	59.68
725.089	60.94
725.271	61.77
725.453	61.16
725.635	61.3
725.817	61.79
725.999	61.44
726.181	62.29
726.364	61.55
726.546	60.9
726.728	60.76
726.91	61.09
727.092	59.88
727.274	58.76
727.456	59.22
727.638	58.18
727.819	57.58
728.001	57.22
728.183	56.73
728.365	56.93
728.547	57.56
728.729	57.56
728.911	57.55
729.093	57.45
729.274	58.06
729.456	57.45
729.638	58.14
729.82	57.78
730.001	58.63
730.183	58.13
730.365	57.99
730.546	58.53
730.728	57.92
730.91	58.93
731.091	59.84
731.273	59.17
731.455	59.84
731.636	60.03
731.818	60.49
731.999	59.92
732.181	61.3
732.362	61.91
732.544	61.82
732.725	62.31
732.907	60.84
733.088	60.79
733.27	62.01
733.451	60.84
733.633	60.3
733.814	60.76
733.995	61.38
734.177	61.44
734.358	60.97
734.539	60.47
734.721	60.86
734.902	61.33
735.083	61.37
735.264	60.84
735.446	61.76
735.627	62.75
735.808	62.38
735.989	62.65
736.17	62.15
736.351	62.58
736.533	63.4
736.714	63.39
736.895	63.45
737.076	64.02
737.257	64.92
737.438	64.93
737.619	64.91
737.8	65.25
737.981	64.63
738.162	64.65
738.343	65.15
738.524	64.91
738.705	64.45
738.886	64.4
739.067	63.86
739.247	63.18
739.428	63.5
739.609	63.16
739.79	62.94
739.971	62.46
740.151	62.15
740.332	61.51
740.513	60.6
740.694	60.52
740.874	60.08
741.055	59.82
741.236	60.25
741.417	60.01
741.597	59.76
741.778	60.24
741.958	60.83
742.139	61.84
742.32	62.87
742.5	64.21
742.681	64.76
742.861	65.54
743.042	66.51
743.222	66.13
743.403	66.76
743.583	67.3
743.764	67.69
743.944	67.87
744.124	67.27
744.305	67.07
744.485	66.82
744.666	67.12
744.846	67.91
745.026	67.35
745.207	67.28
745.387	68.15
745.567	68.63
745.747	68.77
745.928	69.56
746.108	70.3
746.288	70.17
746.468	68.67
746.648	69.21
746.829	69.19
747.009	69.63
747.189	69.4
747.369	68.06
747.549	68.58
747.729	68.12
747.909	68.07
748.089	67.32
748.269	66.9
748.449	68.74
748.629	67.99
748.809	67.06
748.989	65.78
749.169	66.3
749.349	66.49
749.529	65.37
749.709	65.11
749.889	64.62
750.068	66.06
750.248	66.58
750.428	65.34
750.608	64.74
750.788	65.17
750.967	65.29
751.147	65.22
751.327	65.68
751.507	65.99
751.686	66.16
751.866	65.8
752.046	64.54
752.225	63.74
752.405	65.22
752.585	67.02
752.764	66.9
752.944	67.35
753.123	67.99
753.303	67.4
753.482	67.92
753.662	68.23
753.841	68.65
754.021	68.52
754.2	69.67
754.38	69.35
754.559	68.73
754.739	68.63
754.918	69.34
755.097	68.78
755.277	68.84
755.456	69.46
755.635	69.75
755.815	70.81
755.994	70.57
756.173	70.46
756.352	70.09
756.532	69.36
756.711	69.94
756.89	69.97
757.069	68.71
757.248	68.06
757.427	67.39
757.607	67.82
757.786	67.64
757.965	67.25
758.144	66.53
758.323	66.05
758.502	65.35
758.681	64.4
758.86	63.41
759.039	64.24
759.218	63.98
759.397	63.27
759.576	61.63
759.755	60.91
759.934	61.03
760.113	61.71
760.291	62
760.47	63.15
760.649	63.55
760.828	63.33
761.007	63.2
761.186	63.77
761.364	63.49
761.543	63.4
761.722	62.72
761.901	62.1
762.079	61.34
762.258	60.77
762.437	59.48
762.615	58.47
762.794	58.44
762.972	57.93
763.151	58.18
763.33	58.02
763.508	57.81
763.687	57.23
763.865	57.36
764.044	56.77
764.222	56.3
764.401	56.77
764.579	57.14
764.758	57.36
764.936	57.36
765.114	57.14
765.293	57.32
765.471	57.81
765.65	57.91
765.828	58.08
766.006	58.91
766.184	60.62
766.363	60.63
766.541	60.14
766.719	61.18
766.898	62.23
767.076	62.74
767.254	63.25
767.432	63.02
767.61	64.26
767.788	65.46
767.967	67.1
768.145	66.72
768.323	67.6
768.501	69.05
768.679	68.24
768.857	68.74
769.035	68.85
769.213	69.1
769.391	70.36
769.569	71.09
769.747	71.65
769.925	71.34
770.103	72.1
770.281	72.09
770.459	72.5
770.636	74.44
770.814	73.38
770.992	75.09
771.17	74.6
771.348	75.58
771.525	76.03
771.703	76.13
771.881	74.77
772.059	74.58
772.236	74.98
772.414	75.69
772.592	76.3
772.769	78.45
772.947	77.36
773.125	78.35
773.302	78.14
773.48	79.03
773.657	78.27
773.835	79.7
774.013	81.09
774.19	81.68
774.368	81.15
774.545	79.59
774.723	78.7
774.9	78.85
775.077	79.57
775.255	80.06
775.432	79.45
775.61	79.51
775.787	79.4
775.964	77.69
776.142	76.93
776.319	78.36
776.496	78.94
776.674	79.73
776.851	80.37
777.028	79.58
777.205	77.74
777.382	77.41
777.56	78.02
777.737	80.4
777.914	82.01
778.091	82.33
778.268	82.12
778.445	81.81
778.622	81.19
778.8	82.27
778.977	83.37
779.154	90.39
779.331	89.75
779.508	89.15
779.685	88.23
779.862	86.77
780.038	86.86
780.215	87.41
780.392	87.76
780.569	88.13
780.746	85.97
780.923	86.07
781.1	80.12
781.277	80.25
781.453	80.8
781.63	79.14
781.807	80.63
781.984	80.52
782.16	77.07
782.337	77.44
782.514	78.32
782.691	80
782.867	80.27
783.044	80.57
783.221	79.94
783.397	79.51
783.574	80.08
783.75	79.26
783.927	79.52
784.103	83.02
784.28	82.16
784.456	80.02
784.633	78.37
784.809	77.98
784.986	75.72
785.162	76.69
785.339	77.64
785.515	77.23
785.692	76.86
785.868	75.9
786.044	74.12
786.221	73.64
786.397	72.61
786.573	71.57
786.749	70.51
786.926	72.38
787.102	71.13
787.278	69.83
787.454	70.1
787.631	70.07
787.807	68.96
787.983	70.14
788.159	71.09
788.335	71.78
788.511	73.18
788.687	73.78
788.863	74.01
789.039	75.15
789.216	76
789.392	75.28
789.568	75.08
789.744	77.62
789.919	75.85
790.095	74.36
790.271	75.12
790.447	73.63
790.623	73.67
790.799	73.79
790.975	73.07
791.151	74.24
791.327	73.73
791.502	74.78
791.678	73.89
791.854	74.25
792.03	73.93
792.205	74.52
792.381	76.73
792.557	77.94
792.733	77.08
792.908	78.06
793.084	77.58
793.259	77.9
793.435	78.77
793.611	77.36
793.786	77.46
793.962	77.72
794.137	77.37
794.313	76.24
794.488	74.95
794.664	75.72
794.839	75.96
795.015	73.93
795.19	72.8
795.366	71.11
795.541	71.89
795.716	71.16
795.892	71.43
796.067	71.49
796.242	71.05
796.418	70.78
796.593	69.72
796.768	69.17
796.944	70.3
797.119	71.1
797.294	72.54
797.469	73.66
797.644	76.26
797.82	77.82
797.995	76.43
798.17	76.38
798.345	78.56
798.52	78.95
798.695	77.67
798.87	77.15
799.045	77.24
799.22	76.85
799.395	76.92
799.57	77.34
799.745	76.59
799.92	78.41
800.095	80.46
800.27	77.75
800.445	78.53
800.62	80.35
800.795	81.03
800.97	83.23
801.145	79.86
801.319	78.8
801.494	75.05
801.669	75.88
801.844	75.93
802.018	74.36
802.193	74.96
802.368	75.25
802.543	76.11
802.717	78.84
802.892	77.45
803.067	81.09
803.241	80.52
803.416	81.29
803.59	79.71
803.765	78.93
803.94	81.59
804.114	82.21
804.289	83.06
804.463	80.1
804.638	79.22
804.812	77.76
804.986	75.61
805.161	77.7
805.335	77.81
805.51	76.71
805.684	74.37
805.858	72.45
806.033	71.4
806.207	69.85
806.381	71.19
806.556	69.49
806.73	71.57
806.904	72.93
807.078	70.06
807.253	72.46
807.427	73.96
807.601	76.31
807.775	78.07
807.949	76.55
808.123	77.7
808.298	75.67
808.472	76.03
808.646	75.25
808.82	75.28
808.994	76.38
809.168	76.94
809.342	77.75
809.516	77.59
809.69	74.53
809.864	77.97
810.038	77.48
810.212	78.87
810.385	77.05
810.559	77.9
810.733	78.03
810.907	78.49
811.081	75.66
811.255	76.85
811.428	79.12
811.602	81.95
811.776	84.57
811.95	85.15
812.123	84.01
812.297	85.58
812.471	85.34
812.644	83.77
812.818	82.9
812.992	82.32
813.165	81.33
813.339	80.14
813.512	78.63
813.686	77.05
813.86	73.95
814.033	76.89
814.207	77.18
814.38	74.26
814.554	77.61
814.727	76.8
814.9	79.29
815.074	81.05
815.247	83.18
815.421	78.46
815.594	74.7
815.767	76.11
815.941	74.59
816.114	77.46
816.287	80.91
816.46	77.55
816.634	75.88
816.807	77.88
816.98	74.98
817.153	72.36
817.327	74
817.5	75.43
817.673	75.5
817.846	75.88
818.019	71.78
818.192	71.87
818.365	72.4
818.538	76.2
818.711	70.59
818.884	71.43
819.057	71.52
819.23	74.2
819.403	74.78
819.576	74.03
819.749	72.16
819.922	69.79
820.095	68.09
820.268	66.84
820.441	65.62
820.614	65.03
820.786	62.4
820.959	60.35
821.132	57.3
821.305	54.3
821.477	52.19
821.65	50.84
821.823	50.28
821.996	48.54
822.168	48.24
822.341	47.2
822.514	46.7
822.686	46.35
822.859	46.45
823.031	45.88
823.204	45.68
823.376	45.44
823.549	45.28
823.722	45.62
823.894	46.27
824.067	45.83
824.239	45.48
824.411	45.8
824.584	45.72
824.756	45.31
824.929	45.44
825.101	45.15
825.273	45.73
825.446	45.94
825.618	45.59
825.79	45.58
825.963	45.53
826.135	45.92
826.307	46.14
826.479	46.8
826.652	46.73
826.824	47.57
826.996	48.44
827.168	47.99
827.34	48.43
827.512	48.38
827.684	48.57
827.856	50.2
828.029	51.18
828.201	50.3
828.373	49.35
828.545	50.04
828.717	50.83
828.889	51.42
829.061	52.01
829.232	51.88
829.404	53.46
829.576	53.35
829.748	52.83
829.92	52.71
830.092	54.98
830.264	56.8
830.436	56.02
830.607	55.92
830.779	56.58
830.951	59.29
831.123	60.24
831.294	59.83
831.466	62.08
831.638	64.11
831.809	66.05
831.981	64.74
832.153	65.09
832.324	65.88
832.496	64.12
832.667	63.27
832.839	63.02
833.011	64.79
833.182	65.52
833.354	65.03
833.525	62.73
833.697	59.32
833.868	58.98
834.039	58.79
834.211	59.23
834.382	59.41
834.554	59.52
834.725	59.31
834.896	57.74
835.068	56.1
835.239	54.25
835.41	54.21
835.581	55.63
835.753	54.76
835.924	54.93
836.095	55.99
836.266	57.58
836.438	56.01
836.609	53.97
836.78	54.34
836.951	55
837.122	54.19
837.293	56.05
837.464	55.56
837.635	56.8
837.806	57.96
837.977	56.67
838.148	55.24
838.319	58.87
838.49	60.52
838.661	60.84
838.832	61.46
839.003	65.13
839.174	66.13
839.345	67.25
839.516	69.42
839.687	69.14
839.857	74.09
840.028	76.37
840.199	75.72
840.37	75.63
840.54	78.27
840.711	77.95
840.882	77.53
841.053	72.97
841.223	70.19
841.394	71.09
841.564	72.29
841.735	70.05
841.906	70.33
842.076	72.93
842.247	74.86
842.417	74.69
842.588	76.38
842.758	76.54
842.929	79.23
843.099	87.24
843.27	84.16
843.44	84.47
843.611	84.74
843.781	83.39
843.951	80.39
844.122	78.08
844.292	75.59
844.462	78.21
844.633	78.65
844.803	76.87
844.973	72.33
845.144	74.97
845.314	78.45
845.484	75.82
845.654	78.77
845.824	83.61
845.995	88.3
846.165	95.84
846.335	97.85
846.505	107.97
846.675	117.99
846.845	129.44
847.015	139.23
847.185	138.7
847.355	148.62
847.525	150.56
847.695	159.46
847.865	155.81
848.035	142.95
848.205	136.3
848.375	129.03
848.545	123.61
848.715	123.72
848.884	116.03
849.054	111.72
849.224	108.71
849.394	105.62
849.564	99.6
849.733	98.93
849.903	104.48
850.073	101.55
850.243	91.44
850.412	85.73
850.582	83.26
850.752	92.57
850.921	93.1
851.091	92.98
851.26	93.2
851.43	90.28
851.599	87.93
851.769	84.05
851.939	87.56
852.108	94.45
852.278	100.8
852.447	92.57
852.616	91.13
852.786	86.09
852.955	85.02
853.125	83.25
853.294	93.41
853.463	94.8
853.633	93.17
853.802	94.93
853.971	100.26
854.141	100.23
854.31	110.52
854.479	107.11
854.648	105.32
854.818	102.97
854.987	107.36
855.156	105.02
855.325	109.24
855.494	123.79
855.663	121.32
855.832	116.41
856.001	117.17
856.171	111.42
856.34	115.96
856.509	126.35
856.678	129.35
856.847	122.6
857.016	115.32
857.185	113.31
857.353	117.91
857.522	119.14
857.691	117.39
857.86	125.01
858.029	126.13
858.198	124.25
858.367	123.56
858.535	132.82
858.704	139.41
858.873	153.97
859.042	153.87
859.21	150.23
859.379	145.49
859.548	149.99
859.717	142.65
859.885	144.83
860.054	131.55
860.222	130.6
860.391	120.62
860.56	121.03
860.728	108.91
860.897	98.86
861.065	87.3
861.234	92
861.402	91.5
861.571	98.1
861.739	101.91
861.908	114.77
862.076	123.31
862.244	133.42
862.413	122.71
862.581	136.78
862.749	153.75
862.918	162.05
863.086	140.31
863.254	121.12
863.423	110.01
863.591	101.22
863.759	90.13
863.927	83.87
864.096	85.71
864.264	90.91
864.432	86.45
864.6	90.23
864.768	94.7
864.936	99.95
865.104	110.86
865.272	113.02
865.44	115.81
865.608	115.86
865.776	114.7
865.944	106.38
866.112	106.47
866.28	118.77
866.448	120.85
866.616	111.21
866.784	119.36
866.952	114.25
867.12	116.4
867.288	117.09
867.455	115.92
867.623	118.48
867.791	134.54
867.959	142.01
868.127	132.19
868.294	123.95
868.462	104.02
868.63	92.35
868.797	86.4
868.965	75.21
869.133	81.26
869.3	98.08
869.468	98.07
869.636	96.48
869.803	86.71
869.971	86.89
870.138	93.87
870.306	100.83
870.473	101.07
870.641	98.64
870.808	111.3
870.975	102.51
871.143	97.04
871.31	95.3
871.478	85.48
871.645	86.31
871.812	85.37
871.98	80.21
872.147	80.57
872.314	78.18
872.482	72.77
872.649	67.32
872.816	69.15
872.983	69.28
873.15	73.32
873.318	79.74
873.485	83.92
873.652	93.21
873.819	104.82
873.986	95.8
874.153	99.3
874.32	108.68
874.487	111.87
874.654	105.78
874.821	98.31
874.988	94.79
875.155	91.32
875.322	91.21
875.489	82.61
875.656	81.1
875.823	97.55
875.99	92.15
876.157	92.08
876.324	95.24
876.49	103.84
876.657	119.92
876.824	103.56
876.991	99.98
877.157	99.44
877.324	99.3
877.491	91.44
877.658	76.96
877.824	83.78
877.991	78.01
878.157	75.08
878.324	77.37
878.491	69.53
878.657	81.5
878.824	80.75
878.99	73.63
879.157	82.2
879.323	81.63
879.49	82.6
879.656	78.02
879.823	77.97
879.989	74.2
880.156	74.62
880.322	77.55
880.488	75.38
880.655	71.12
880.821	77.15
880.987	75.1
881.154	71.23
881.32	79.18
881.486	79.72
881.652	79.41
881.819	78.58
881.985	73.91
882.151	69.54
882.317	64.95
882.483	64.15
882.649	60.12
882.816	55.65
882.982	54.58
883.148	52.45
883.314	50.48
883.48	52.14
883.646	49.8
883.812	47.71
883.978	47.5
884.144	48.73
884.31	48.93
884.476	48.46
884.642	47.88
884.807	48.81
884.973	47.19
885.139	47.91
885.305	46.06
885.471	48.13
885.637	49.3
885.802	48.58
885.968	48.01
886.134	47.88
886.3	49.3
886.465	51.7
886.631	51.72
886.797	54.95
886.962	58.35
887.128	61.22
887.293	60.09
887.459	64.12
887.625	67.68
887.79	71.83
887.956	75.66
888.121	77.65
888.287	77.52
888.452	78.2
888.618	80.02
888.783	72.52
