Data from LC_186__Reflection_2.txt Node
Date: Tue Nov 17 13:17:37 EST 2015
User: robert
Spectrometer: USB4E03001
Autoset integration time: false
Trigger mode: 4
Integration Time (sec): 1.000000E-1
Scans to average: 15
Electric dark correction enabled: true
Nonlinearity correction enabled: false
Boxcar width: 5
Stray light correction enabled: false
XAxis mode: Wavelengths
Stop averaging: false
Number of Pixels in Spectrum: 3648
>>>>>Begin Spectral Data<<<<<
177.566	199.73
177.785	183.98
178.005	-1282.46
178.225	293.18
178.445	-355.87
178.665	-141.33
178.885	-79.54
179.105	-324.8
179.324	886.05
179.544	1218.91
179.764	320.62
179.984	137.84
180.204	165.43
180.423	365.78
180.643	559.5
180.863	-1994.44
181.083	-3053.83
181.302	662.76
181.522	273.63
181.742	654.49
181.961	6778.43
182.181	-275.54
182.401	-64.42
182.621	-137.21
182.84	-155.98
183.06	-343.36
183.279	638.98
183.499	-1626.05
183.719	-199.5
183.938	-55.51
184.158	-160.27
184.377	-176.01
184.597	-270.31
184.816	262.13
185.036	251.88
185.256	270.06
185.475	159.08
185.695	136.67
185.914	86.97
186.134	52.23
186.353	42.31
186.572	4.75
186.792	20.77
187.011	13.92
187.231	-149.57
187.45	-262.97
187.67	17.72
187.889	58.61
188.108	55.43
188.328	85.55
188.547	105.38
188.766	-66.24
188.986	276.51
189.205	40.48
189.424	37.9
189.644	37.66
189.863	25.94
190.082	2.61
190.302	18.94
190.521	32.28
190.74	-68.83
190.959	89.64
191.178	69.79
191.398	12.93
191.617	79.65
191.836	-23.31
192.055	-21.54
192.274	189.55
192.494	16.99
192.713	-34.59
192.932	4.88
193.151	200.19
193.37	409.52
193.589	-179300
193.808	6044.94
194.027	-384.81
194.246	-351.57
194.465	2114.64
194.685	248.03
194.904	185.41
195.123	18950
195.342	369.27
195.561	122.65
195.78	130.99
195.999	160.77
196.218	141.29
196.436	169.93
196.655	118.29
196.874	122.69
197.093	113.27
197.312	96.74
197.531	84.28
197.75	91.54
197.969	115.18
198.188	94.32
198.407	94.75
198.625	96.66
198.844	107.32
199.063	68.38
199.282	101.17
199.501	92.53
199.719	127.35
199.938	118.56
200.157	139.91
200.376	228.63
200.594	259.6
200.813	160.85
201.032	168.45
201.251	175.31
201.469	2225.08
201.688	443.33
201.907	-2037.29
202.125	320.25
202.344	402.33
202.563	158.34
202.781	93.13
203	293.46
203.218	133.62
203.437	87.61
203.656	146.16
203.874	108.39
204.093	-61.75
204.311	-62.13
204.53	6257.89
204.748	-334.37
204.967	1867.77
205.185	389.75
205.404	301.38
205.622	300.07
205.841	212.03
206.059	267.54
206.278	182.97
206.496	177.05
206.715	179.27
206.933	187.34
207.151	126.87
207.37	146.05
207.588	161.27
207.806	110.84
208.025	109.13
208.243	108.79
208.461	70.24
208.68	134.61
208.898	-36.84
209.116	-2.33
209.335	259.6
209.553	-314.44
209.771	-5.87
209.989	70.31
210.208	145.88
210.426	119.55
210.644	182.15
210.862	154.82
211.081	105.88
211.299	97.48
211.517	115.26
211.735	119.71
211.953	133.56
212.171	156.01
212.39	411.57
212.608	345.38
212.826	480.42
213.044	437.62
213.262	363.65
213.48	-17692.54
213.698	-965.67
213.916	495.03
214.134	-872.23
214.352	-192.16
214.57	-219.06
214.788	1565.34
215.006	449.47
215.224	150.08
215.442	61.45
215.66	41.2
215.878	40.23
216.096	36.35
216.314	19.3
216.532	46.03
216.75	45.01
216.968	36.8
217.185	42.51
217.403	66.22
217.621	89.56
217.839	101.89
218.057	131.36
218.275	130.19
218.492	123.46
218.71	136.3
218.928	147.54
219.146	162.43
219.363	184.45
219.581	164.58
219.799	168.34
220.017	163.65
220.234	151.7
220.452	104.13
220.67	113.4
220.887	148.22
221.105	137.15
221.323	123.66
221.54	111.82
221.758	95.9
221.976	86.68
222.193	82.02
222.411	73.86
222.629	68.12
222.846	70.12
223.064	39.86
223.281	30.69
223.499	30.52
223.716	49.61
223.934	66.16
224.151	65.64
224.369	69.32
224.586	75.17
224.804	90.93
225.021	104.99
225.239	105.86
225.456	97.62
225.674	80.58
225.891	77.15
226.108	69.99
226.326	67.08
226.543	58.51
226.76	65.85
226.978	61.77
227.195	47.5
227.413	41.25
227.63	40.71
227.847	42.93
228.064	42.55
228.282	37.63
228.499	35.88
228.716	32.44
228.934	33.66
229.151	33.66
229.368	29.16
229.585	29.04
229.802	31.35
230.02	30.78
230.237	29.98
230.454	32.91
230.671	37.88
230.888	35.49
231.105	35.15
231.323	33.46
231.54	32.74
231.757	36.12
231.974	35.99
232.191	30.92
232.408	28.99
232.625	30.89
232.842	27.31
233.059	21.43
233.276	25.8
233.493	23.52
233.71	27.04
233.927	20.79
234.144	17.76
234.361	15.89
234.578	13.98
234.795	14.64
235.012	19.86
235.229	18.65
235.446	17.66
235.663	16.2
235.879	20.39
236.096	24.97
236.313	28.02
236.53	27.62
236.747	30.41
236.964	32.06
237.181	26.96
237.397	18.09
237.614	16.71
237.831	22.5
238.048	24.74
238.264	25.78
238.481	19.77
238.698	14.44
238.915	20.1
239.131	26.31
239.348	27.89
239.565	31.64
239.781	34.22
239.998	38.25
240.215	33.12
240.431	29.21
240.648	25.3
240.865	25.55
241.081	26.68
241.298	25.45
241.514	22.63
241.731	21.98
241.947	21.88
242.164	20.45
242.38	18.85
242.597	18.18
242.814	18.35
243.03	19.54
243.246	18.71
243.463	19.05
243.679	19.08
243.896	18.83
244.112	17.24
244.329	18.05
244.545	17.98
244.762	16.11
244.978	16.5
245.194	18.39
245.411	17.27
245.627	18.16
245.843	17.42
246.06	16.51
246.276	15.5
246.492	15.8
246.709	15.88
246.925	16.62
247.141	17.55
247.357	16.79
247.574	16.2
247.79	16.64
248.006	15.93
248.222	16.25
248.439	15.88
248.655	16.07
248.871	16.73
249.087	15.27
249.303	15.17
249.519	14.44
249.736	16.14
249.952	16.38
250.168	15.97
250.384	17.03
250.6	15.68
250.816	14.07
251.032	15.34
251.248	14.69
251.464	16.14
251.68	15.03
251.896	16.01
252.112	13.75
252.328	15.21
252.544	16.09
252.76	15.23
252.976	16.62
253.192	19.49
253.408	18.11
253.624	19.76
253.84	20.26
254.056	20.92
254.272	20.51
254.487	21.24
254.703	18.56
254.919	18.05
255.135	19.97
255.351	17.14
255.567	17.18
255.782	15.24
255.998	10.01
256.214	11.37
256.43	10.48
256.646	10.7
256.861	12.34
257.077	13.46
257.293	13.97
257.508	15.41
257.724	16.33
257.94	14.2
258.155	16.12
258.371	17.45
258.587	15.54
258.802	14.62
259.018	13.88
259.234	13.76
259.449	13.41
259.665	12.61
259.88	10.89
260.096	11.28
260.312	11.13
260.527	10.82
260.743	11.35
260.958	11.9
261.174	12.53
261.389	12.84
261.605	13.23
261.82	13.16
262.036	13.8
262.251	15.02
262.466	13.47
262.682	14.98
262.897	15.78
263.113	14.19
263.328	14.82
263.543	15.83
263.759	16.68
263.974	16.98
264.189	16.5
264.405	16.88
264.62	18.49
264.835	19.46
265.051	18.32
265.266	17.69
265.481	19.79
265.696	19.61
265.912	18.14
266.127	16.88
266.342	14.92
266.557	13.59
266.773	12.97
266.988	12.02
267.203	12.26
267.418	13.95
267.633	14.67
267.848	13.66
268.064	11.78
268.279	10.8
268.494	11.91
268.709	12.96
268.924	15.24
269.139	16.59
269.354	17.7
269.569	19.34
269.784	17.81
269.999	16.94
270.214	16.43
270.429	16.76
270.644	17.47
270.859	16.98
271.074	16.3
271.289	16.91
271.504	14.69
271.719	13.4
271.934	12.25
272.149	11.86
272.363	13.08
272.578	12.85
272.793	12.94
273.008	13.09
273.223	13.64
273.438	13.55
273.653	12.92
273.867	14.08
274.082	13.37
274.297	13.79
274.512	14.76
274.726	13.84
274.941	12.91
275.156	13.6
275.371	13.42
275.585	12.98
275.8	13.79
276.015	14.01
276.229	12.81
276.444	12.01
276.659	12.09
276.873	9.78
277.088	9.15
277.302	10.22
277.517	10.9
277.732	9.72
277.946	9.2
278.161	9.68
278.375	8.05
278.59	10.6
278.804	11.41
279.019	11.26
279.233	12.35
279.448	11.73
279.662	13.58
279.877	13.14
280.091	14.17
280.306	14.06
280.52	13.5
280.735	14.49
280.949	12.99
281.163	13.73
281.378	13.64
281.592	13.54
281.806	13.06
282.021	11.79
282.235	11.18
282.449	11.25
282.664	11.38
282.878	11.85
283.092	12.04
283.307	11.82
283.521	11.53
283.735	10.37
283.949	10.3
284.164	10.81
284.378	10.22
284.592	10.4
284.806	9.86
285.02	9.23
285.234	7.74
285.449	7.22
285.663	7.74
285.877	8.39
286.091	9.19
286.305	9.69
286.519	9.68
286.733	11.22
286.947	11.33
287.161	12.22
287.375	12.44
287.589	12.91
287.803	13.06
288.017	12.85
288.231	12.68
288.445	13.2
288.659	12.8
288.873	11.82
289.087	11.5
289.301	12.28
289.515	12.74
289.729	13.44
289.943	12.78
290.157	12.25
290.371	10.78
290.584	11.64
290.798	11.24
291.012	12.38
291.226	14.11
291.44	12.88
291.654	12.66
291.867	11.26
292.081	9.74
292.295	11.27
292.509	12.07
292.722	14.3
292.936	13.53
293.15	13.84
293.364	13
293.577	12.4
293.791	13.51
294.005	12.07
294.218	12.81
294.432	13.61
294.645	13.53
294.859	13.63
295.073	12.59
295.286	11.96
295.5	11.44
295.713	11.46
295.927	11.29
296.14	11.22
296.354	10.68
296.568	11.54
296.781	11.81
296.994	11.76
297.208	11.06
297.421	10.77
297.635	11.37
297.848	11.41
298.062	11.56
298.275	11.7
298.489	11.12
298.702	12.57
298.915	11.51
299.129	11.95
299.342	11.61
299.555	11.4
299.769	12.25
299.982	11.82
300.195	11.23
300.409	10.86
300.622	10.55
300.835	11.25
301.048	10.57
301.262	10.06
301.475	8.72
301.688	8.51
301.901	9.18
302.115	9.23
302.328	9.71
302.541	10.5
302.754	10.8
302.967	10.79
303.18	10.22
303.393	8.64
303.607	9.66
303.82	10.16
304.033	9.83
304.246	9.93
304.459	10.67
304.672	10.35
304.885	10.77
305.098	10.95
305.311	11.45
305.524	11.64
305.737	14.41
305.95	14.96
306.163	13.71
306.376	14.22
306.589	14.22
306.802	12.8
307.015	12.45
307.228	12.9
307.44	13.3
307.653	11.95
307.866	12
308.079	11.63
308.292	10
308.505	10.54
308.718	10.94
308.93	10.5
309.143	11.47
309.356	10.62
309.569	9.73
309.781	9.31
309.994	9.1
310.207	9.41
310.42	8.03
310.632	8.28
310.845	9.44
311.058	8.47
311.27	8.18
311.483	7.16
311.696	7.7
311.908	7.48
312.121	7.37
312.333	8.09
312.546	8.22
312.759	8.48
312.971	8.76
313.184	8.87
313.396	9.09
313.609	9.74
313.821	10.81
314.034	11.44
314.246	12.69
314.459	12.82
314.671	13.43
314.884	13.24
315.096	13.99
315.309	13.77
315.521	13.35
315.733	14.21
315.946	14.58
316.158	14.61
316.371	13.75
316.583	12.94
316.795	13.14
317.008	13.03
317.22	12.44
317.432	12.72
317.644	11.96
317.857	12.07
318.069	13.03
318.281	12.59
318.494	11.28
318.706	10.71
318.918	10.05
319.13	11.03
319.342	10.84
319.555	10.13
319.767	9.61
319.979	9.79
320.191	9.62
320.403	9.7
320.615	9.74
320.827	10.77
321.039	13.35
321.252	13.54
321.464	12.34
321.676	13.09
321.888	14.42
322.1	14.2
322.312	14.92
322.524	14.85
322.736	12.92
322.948	13.27
323.16	12.47
323.372	11
323.584	11.29
323.796	11.11
324.007	10.63
324.219	10.32
324.431	11.83
324.643	12.02
324.855	12.21
325.067	13.28
325.279	13.14
325.491	13.95
325.702	14.39
325.914	14.68
326.126	14.38
326.338	14.27
326.55	13.96
326.761	12.89
326.973	12.81
327.185	12.15
327.396	11.88
327.608	11.58
327.82	10.71
328.032	10.84
328.243	9.76
328.455	9.87
328.666	9.79
328.878	10.17
329.09	10.08
329.301	10.69
329.513	11.32
329.725	11.48
329.936	11.93
330.148	13.76
330.359	12.99
330.571	13.84
330.782	14.66
330.994	14.4
331.205	14.02
331.417	14.12
331.628	14.04
331.84	15.01
332.051	14.5
332.262	14.94
332.474	14.33
332.685	16.44
332.897	16.78
333.108	16.99
333.319	17.29
333.531	17.06
333.742	16.93
333.953	15.49
334.165	14.67
334.376	15.06
334.587	14.33
334.799	14.34
335.01	13.28
335.221	12.46
335.432	10.83
335.644	11.38
335.855	11.64
336.066	12.08
336.277	13.3
336.488	13.53
336.7	13.98
336.911	14.17
337.122	13.1
337.333	12.92
337.544	13.81
337.755	14.63
337.966	14.22
338.177	14.31
338.388	13.83
338.599	13.24
338.811	12.85
339.022	11.96
339.233	10.96
339.444	11.45
339.655	11.21
339.866	10.71
340.076	9.61
340.287	9.2
340.498	8.35
340.709	9.09
340.92	8.73
341.131	7.86
341.342	8.3
341.553	9.06
341.764	9.06
341.975	9.64
342.185	10.12
342.396	10.72
342.607	11.97
342.818	13.17
343.029	11.73
343.239	11.99
343.45	12.41
343.661	12.8
343.872	13.6
344.082	13.71
344.293	13.62
344.504	13
344.714	12.65
344.925	11.21
345.136	9.95
345.346	10.66
345.557	9.94
345.768	10
345.978	9.5
346.189	9.38
346.399	9.8
346.61	9.76
346.821	9.86
347.031	10.3
347.242	10.51
347.452	11.5
347.663	11.19
347.873	11.84
348.084	11.64
348.294	12.07
348.504	11.15
348.715	11.08
348.925	10.55
349.136	10.18
349.346	10.73
349.557	10.96
349.767	10.35
349.977	10.16
350.188	10.54
350.398	11.32
350.608	11.27
350.819	11.17
351.029	11.2
351.239	11.65
351.449	12.17
351.66	12.46
351.87	12.3
352.08	12.8
352.29	14.04
352.501	13.78
352.711	13.82
352.921	13.54
353.131	14.3
353.341	14.1
353.552	13.03
353.762	12.72
353.972	11.44
354.182	12.21
354.392	12.26
354.602	12.08
354.812	12.36
355.022	11.99
355.232	10.86
355.442	10.41
355.652	10.1
355.862	10.83
356.072	10.52
356.282	10.94
356.492	10.08
356.702	10.1
356.912	9.72
357.122	9.36
357.332	8.88
357.542	9.96
357.752	9.79
357.962	10.33
358.171	10.04
358.381	10.26
358.591	10.06
358.801	10.5
359.011	10.29
359.221	10.5
359.43	10.78
359.64	11.03
359.85	10.91
360.06	11.21
360.269	10.49
360.479	10.23
360.689	10.02
360.899	10.13
361.108	9.54
361.318	9.28
361.528	9.14
361.737	8.82
361.947	9.11
362.156	8.96
362.366	8.67
362.576	8.61
362.785	9
362.995	8.98
363.204	8.78
363.414	9.17
363.623	9.49
363.833	8.98
364.042	9.33
364.252	8.58
364.461	8.3
364.671	8.13
364.88	8.38
365.09	8.31
365.299	8.26
365.509	8.79
365.718	9.09
365.927	8.9
366.137	9.64
366.346	10
366.555	10.29
366.765	10.37
366.974	10.69
367.183	10.59
367.393	10.28
367.602	10.41
367.811	9.86
368.021	8.99
368.23	9.38
368.439	8.95
368.648	8.22
368.857	8.2
369.067	8.34
369.276	8.69
369.485	8.99
369.694	9.24
369.903	9.75
370.112	10.18
370.321	10.71
370.531	10.07
370.74	9.8
370.949	9.33
371.158	9.79
371.367	9.57
371.576	9.33
371.785	8.94
371.994	8.7
372.203	8.15
372.412	8.19
372.621	7.71
372.83	7.71
373.039	8.23
373.248	8.64
373.457	8.66
373.666	8.54
373.874	8.2
374.083	8.34
374.292	8.48
374.501	8.92
374.71	9.1
374.919	9.33
375.128	9.17
375.336	9.1
375.545	9.35
375.754	8.85
375.963	8.62
376.171	8.92
376.38	9.27
376.589	9.09
376.798	8.7
377.006	8.52
377.215	9.22
377.424	9.23
377.632	8.62
377.841	8.72
378.05	9.19
378.258	9.62
378.467	9.64
378.675	9.24
378.884	9.75
379.093	10.08
379.301	10.12
379.51	9.47
379.718	9.56
379.927	9.92
380.135	9.45
380.344	9.38
380.552	9.37
380.761	8.88
380.969	8.93
381.177	8.51
381.386	7.99
381.594	7.85
381.803	7.67
382.011	7.92
382.219	7.77
382.428	7.93
382.636	7.93
382.845	7.58
383.053	7.94
383.261	7.86
383.469	7.9
383.678	8.12
383.886	7.52
384.094	7.82
384.302	7.62
384.511	7.57
384.719	7.46
384.927	7.26
385.135	7.42
385.343	7.42
385.552	7.56
385.76	7.61
385.968	7.75
386.176	8.14
386.384	8.32
386.592	8.61
386.8	9.13
387.008	9.13
387.216	8.92
387.424	9.07
387.633	8.82
387.841	8.68
388.049	8.71
388.257	8.52
388.465	8.42
388.672	8.15
388.88	8.04
389.088	7.89
389.296	7.86
389.504	8.27
389.712	8.33
389.92	8.36
390.128	8.54
390.336	8.14
390.544	8.21
390.751	8.31
390.959	8.19
391.167	7.88
391.375	7.51
391.583	7.42
391.79	6.91
391.998	7.02
392.206	7.03
392.414	6.53
392.621	6.87
392.829	6.75
393.037	6.53
393.244	6.67
393.452	6.63
393.66	6.32
393.867	6.41
394.075	6.69
394.283	6.57
394.49	6.47
394.698	6.9
394.905	6.78
395.113	6.95
395.32	6.96
395.528	6.79
395.735	7
395.943	7.19
396.15	7.06
396.358	6.95
396.565	6.49
396.773	6.46
396.98	6.3
397.188	6.28
397.395	6.26
397.602	6.67
397.81	6.88
398.017	6.78
398.225	7.24
398.432	7.39
398.639	7.68
398.847	8.19
399.054	8.24
399.261	8.18
399.468	8.16
399.676	8.26
399.883	7.81
400.09	7.33
400.297	7.47
400.505	7.17
400.712	7
400.919	6.87
401.126	6.74
401.333	6.69
401.54	6.7
401.748	6.8
401.955	6.65
402.162	6.93
402.369	7.15
402.576	6.96
402.783	6.7
402.99	6.76
403.197	6.75
403.404	6.38
403.611	6.4
403.818	6.33
404.025	6.04
404.232	5.8
404.439	5.87
404.646	5.98
404.853	5.97
405.06	6.23
405.267	6.24
405.474	6.08
405.681	6.09
405.887	6.16
406.094	6.28
406.301	6.4
406.508	6.62
406.715	6.27
406.922	6.15
407.128	6.32
407.335	6.2
407.542	6.31
407.749	6.63
407.955	7.04
408.162	7.26
408.369	7.19
408.575	7.48
408.782	7.71
408.989	7.88
409.195	8.3
409.402	8.15
409.609	8.12
409.815	7.94
410.022	7.62
410.228	7.41
410.435	7.13
410.642	7.02
410.848	6.69
411.055	6.44
411.261	6.49
411.468	6.25
411.674	6.33
411.881	6.5
412.087	6.68
412.294	6.85
412.5	6.87
412.706	7.02
412.913	7
413.119	7.17
413.326	7.16
413.532	7.05
413.738	6.92
413.945	6.55
414.151	6.18
414.357	6.26
414.564	6.29
414.77	6.23
414.976	6.34
415.182	6.44
415.389	6.13
415.595	6.09
415.801	6.05
416.007	6.02
416.214	6.31
416.42	6.47
416.626	6.27
416.832	5.96
417.038	5.85
417.244	5.71
417.45	5.89
417.657	5.92
417.863	5.91
418.069	5.83
418.275	5.68
418.481	5.88
418.687	5.83
418.893	5.83
419.099	5.89
419.305	6.16
419.511	6.07
419.717	5.87
419.923	5.93
420.129	5.85
420.335	5.92
420.541	6.03
420.746	5.9
420.952	5.97
421.158	6.03
421.364	6.04
421.57	5.88
421.776	5.92
421.982	5.91
422.187	5.88
422.393	5.94
422.599	5.92
422.805	5.91
423.01	5.96
423.216	5.88
423.422	5.87
423.628	5.88
423.833	5.89
424.039	5.71
424.245	5.68
424.45	5.62
424.656	5.62
424.862	5.51
425.067	5.37
425.273	5.29
425.478	5.3
425.684	5.04
425.889	5.1
426.095	5.04
426.301	5.25
426.506	5.42
426.712	5.42
426.917	5.36
427.123	5.58
427.328	5.71
427.533	5.64
427.739	5.5
427.944	5.77
428.15	5.63
428.355	5.55
428.561	5.54
428.766	5.18
428.971	5.18
429.177	5.34
429.382	5.38
429.587	5.53
429.793	5.59
429.998	5.6
430.203	5.68
430.408	5.67
430.614	5.58
430.819	5.53
431.024	5.71
431.229	5.85
431.434	5.69
431.64	5.66
431.845	5.62
432.05	5.57
432.255	5.74
432.46	5.68
432.665	5.78
432.87	5.83
433.076	5.6
433.281	5.65
433.486	5.52
433.691	5.48
433.896	5.34
434.101	5.24
434.306	5.38
434.511	5.4
434.716	5.23
434.921	5.12
435.126	5.17
435.331	5.25
435.535	5.34
435.74	5.41
435.945	5.58
436.15	5.48
436.355	5.62
436.56	5.51
436.765	5.57
436.97	5.73
437.174	5.64
437.379	5.68
437.584	5.89
437.789	5.6
437.993	5.67
438.198	5.54
438.403	5.73
438.608	5.54
438.812	5.39
439.017	5.46
439.222	5.38
439.426	5.45
439.631	5.4
439.836	5.24
440.04	5.18
440.245	5.13
440.45	5.14
440.654	5.08
440.859	5.04
441.063	5.18
441.268	4.93
441.472	5.11
441.677	5.12
441.881	5.23
442.086	5.35
442.29	5.46
442.495	5.54
442.699	5.5
442.904	5.47
443.108	5.5
443.312	5.4
443.517	5.39
443.721	5.33
443.925	5.31
444.13	5.14
444.334	5.12
444.538	5.04
444.743	4.93
444.947	5
445.151	5
445.356	5.12
445.56	5.18
445.764	5.32
445.968	5.26
446.173	5.27
446.377	5.28
446.581	5.25
446.785	5.35
446.989	5.4
447.193	5.48
447.398	5.53
447.602	5.52
447.806	5.54
448.01	5.42
448.214	5.39
448.418	5.39
448.622	5.46
448.826	5.37
449.03	5.33
449.234	5.32
449.438	5.12
449.642	5.15
449.846	5.08
450.05	4.85
450.254	4.91
450.458	4.81
450.662	4.63
450.866	4.5
451.069	4.56
451.273	4.48
451.477	4.58
451.681	4.82
451.885	4.68
452.089	4.66
452.292	4.63
452.496	4.6
452.7	4.73
452.904	5
453.107	5.12
453.311	5.23
453.515	5.33
453.719	5.2
453.922	4.92
454.126	4.91
454.33	5.01
454.533	5.18
454.737	5.21
454.94	5.01
455.144	4.95
455.348	4.88
455.551	4.74
455.755	4.89
455.958	4.85
456.162	4.92
456.365	4.77
456.569	4.68
456.772	4.62
456.976	4.5
457.179	4.76
457.383	4.59
457.586	4.7
457.79	4.81
457.993	4.82
458.196	4.78
458.4	4.9
458.603	5.27
458.807	5.31
459.01	5.47
459.213	5.55
459.417	5.39
459.62	5.55
459.823	5.44
460.026	5.35
460.23	5.24
460.433	5.24
460.636	5.08
460.839	4.85
461.042	4.89
461.246	4.77
461.449	4.78
461.652	4.89
461.855	4.78
462.058	4.75
462.261	4.83
462.464	4.88
462.668	4.91
462.871	5.05
463.074	5.28
463.277	5.04
463.48	5.15
463.683	5.09
463.886	4.95
464.089	4.86
464.292	4.94
464.495	4.98
464.698	4.84
464.901	4.98
465.104	4.92
465.306	4.78
465.509	4.86
465.712	4.77
465.915	4.96
466.118	4.95
466.321	4.87
466.524	4.82
466.726	4.81
466.929	5.03
467.132	5.02
467.335	5.22
467.538	5.28
467.74	5.32
467.943	5.31
468.146	5.12
468.348	5.13
468.551	5.25
468.754	5.31
468.956	5.3
469.159	5.2
469.362	5.07
469.564	4.89
469.767	4.94
469.969	4.93
470.172	5.06
470.375	5.03
470.577	5.07
470.78	5.1
470.982	5.15
471.185	5.12
471.387	5.08
471.59	5.21
471.792	5.18
471.995	5.05
472.197	5.09
472.399	5.07
472.602	5.19
472.804	5.19
473.007	5.18
473.209	5.09
473.411	5.06
473.614	5.18
473.816	5.14
474.018	5.34
474.22	5.39
474.423	5.48
474.625	5.35
474.827	5.18
475.03	5.27
475.232	5.25
475.434	5.25
475.636	5.29
475.838	5.17
476.04	5.12
476.243	4.98
476.445	4.91
476.647	4.77
476.849	4.73
477.051	4.69
477.253	4.47
477.455	4.45
477.657	4.41
477.859	4.38
478.061	4.42
478.263	4.46
478.465	4.5
478.667	4.57
478.869	4.72
479.071	4.83
479.273	4.94
479.475	5.02
479.677	5.14
479.879	5.13
480.081	5.2
480.283	5.16
480.485	4.99
480.686	4.91
480.888	4.87
481.09	4.67
481.292	4.57
481.494	4.53
481.695	4.74
481.897	4.55
482.099	4.6
482.301	4.56
482.502	4.53
482.704	4.59
482.906	4.65
483.107	4.61
483.309	4.63
483.511	4.65
483.712	4.64
483.914	4.52
484.115	4.52
484.317	4.52
484.519	4.5
484.72	4.51
484.922	4.5
485.123	4.48
485.325	4.46
485.526	4.47
485.728	4.41
485.929	4.42
486.131	4.5
486.332	4.51
486.534	4.45
486.735	4.48
486.936	4.43
487.138	4.41
487.339	4.35
487.541	4.45
487.742	4.51
487.943	4.57
488.144	4.52
488.346	4.45
488.547	4.5
488.748	4.54
488.95	4.49
489.151	4.48
489.352	4.47
489.553	4.58
489.755	4.56
489.956	4.45
490.157	4.37
490.358	4.45
490.559	4.53
490.76	4.55
490.961	4.65
491.163	4.73
491.364	4.77
491.565	4.8
491.766	4.74
491.967	4.68
492.168	4.73
492.369	4.8
492.57	4.86
492.771	4.86
492.972	4.86
493.173	4.86
493.374	4.78
493.575	4.85
493.776	4.87
493.976	4.87
494.177	4.81
494.378	4.82
494.579	4.78
494.78	4.74
494.981	4.65
495.182	4.66
495.382	4.62
495.583	4.71
495.784	4.74
495.985	4.73
496.185	4.93
496.386	4.97
496.587	5.06
496.788	5.26
496.988	5.1
497.189	5.12
497.39	5.14
497.59	5.17
497.791	5.27
497.992	5.19
498.192	5.18
498.393	5
498.593	5.14
498.794	5.05
498.994	5.07
499.195	5.19
499.395	5.34
499.596	5.36
499.796	5.28
499.997	5.13
500.197	5.2
500.398	5.32
500.598	5.41
500.799	5.4
500.999	5.58
501.199	5.38
501.4	5.54
501.6	5.56
501.801	5.52
502.001	5.53
502.201	5.78
502.402	5.96
502.602	5.79
502.802	5.89
503.002	5.97
503.203	5.89
503.403	5.91
503.603	5.81
503.803	5.85
504.003	5.75
504.204	5.87
504.404	5.86
504.604	5.84
504.804	6
505.004	5.95
505.204	5.79
505.404	5.75
505.604	5.76
505.804	5.74
506.005	5.6
506.205	5.77
506.405	5.62
506.605	5.58
506.805	5.61
507.005	5.6
507.204	5.56
507.404	5.56
507.604	5.78
507.804	5.8
508.004	5.88
508.204	5.94
508.404	6.08
508.604	6.23
508.804	6.25
509.003	6.3
509.203	6.32
509.403	6.45
509.603	6.63
509.803	6.62
510.002	6.7
510.202	6.86
510.402	6.94
510.602	6.82
510.801	6.8
511.001	6.77
511.201	6.62
511.4	6.48
511.6	6.46
511.8	6.24
511.999	6.16
512.199	6.28
512.398	6.29
512.598	6.37
512.797	6.48
512.997	6.49
513.197	6.63
513.396	6.76
513.596	6.95
513.795	7.12
513.994	7.39
514.194	7.49
514.393	7.43
514.593	7.23
514.792	7.2
514.992	7.25
515.191	7.54
515.39	7.55
515.59	7.46
515.789	7.65
515.988	7.62
516.188	7.72
516.387	7.74
516.586	7.74
516.786	7.95
516.985	8
517.184	8.06
517.383	8.07
517.582	8.06
517.782	8.27
517.981	8.22
518.18	8.17
518.379	8.23
518.578	8.23
518.777	8.21
518.976	8.14
519.176	8.23
519.375	8.15
519.574	8.19
519.773	8.13
519.972	8.06
520.171	7.99
520.37	8.03
520.569	7.93
520.768	7.97
520.967	8.1
521.166	8.25
521.365	8.26
521.564	8.46
521.762	8.43
521.961	8.6
522.16	8.7
522.359	8.77
522.558	8.84
522.757	8.94
522.956	9
523.154	8.97
523.353	9.02
523.552	8.93
523.751	8.89
523.949	8.93
524.148	8.97
524.347	9.05
524.546	9.12
524.744	9.19
524.943	9.16
525.142	9.34
525.34	9.36
525.539	9.3
525.737	9.39
525.936	9.44
526.135	9.44
526.333	9.45
526.532	9.37
526.73	9.35
526.929	9.36
527.127	9.43
527.326	9.39
527.524	9.46
527.723	9.58
527.921	9.59
528.12	9.59
528.318	9.58
528.516	9.59
528.715	9.67
528.913	9.75
529.112	9.74
529.31	9.7
529.508	9.72
529.707	9.74
529.905	9.81
530.103	9.82
530.301	9.87
530.5	9.89
530.698	9.9
530.896	9.87
531.094	9.92
531.293	9.97
531.491	10.12
531.689	10.19
531.887	10.25
532.085	10.21
532.283	10.33
532.481	10.31
532.68	10.4
532.878	10.52
533.076	10.62
533.274	10.7
533.472	10.75
533.67	10.74
533.868	10.79
534.066	10.86
534.264	10.84
534.462	10.87
534.66	10.94
534.858	10.99
535.056	11
535.253	11.06
535.451	11.04
535.649	11.12
535.847	11.2
536.045	11.23
536.243	11.2
536.441	11.3
536.638	11.35
536.836	11.45
537.034	11.47
537.232	11.58
537.43	11.56
537.627	11.59
537.825	11.61
538.023	11.62
538.22	11.64
538.418	11.62
538.616	11.62
538.813	11.71
539.011	11.77
539.209	11.83
539.406	11.92
539.604	12.04
539.801	12.1
539.999	12.14
540.196	12.33
540.394	12.44
540.591	12.63
540.789	12.72
540.986	12.72
541.184	12.74
541.381	12.79
541.579	12.75
541.776	12.73
541.974	12.75
542.171	12.78
542.368	12.78
542.566	12.8
542.763	12.75
542.96	12.75
543.158	12.78
543.355	12.84
543.552	12.86
543.75	12.98
543.947	13.08
544.144	13.08
544.341	13.17
544.539	13.08
544.736	13.01
544.933	13.06
545.13	13.16
545.327	13.18
545.524	13.18
545.722	13.37
545.919	13.38
546.116	13.44
546.313	13.56
546.51	13.65
546.707	13.93
546.904	14.16
547.101	14.35
547.298	14.41
547.495	14.53
547.692	14.6
547.889	14.57
548.086	14.69
548.283	14.8
548.48	14.83
548.677	14.74
548.874	14.68
549.07	14.47
549.267	14.54
549.464	14.64
549.661	14.72
549.858	14.83
550.055	14.79
550.251	14.89
550.448	15
550.645	15.17
550.842	15.38
551.038	15.57
551.235	15.95
551.432	15.89
551.628	15.84
551.825	15.86
552.022	15.96
552.218	16.27
552.415	16.21
552.612	16.21
552.808	16.44
553.005	16.56
553.201	16.48
553.398	16.46
553.594	16.51
553.791	16.6
553.987	16.57
554.184	16.56
554.38	16.64
554.577	16.85
554.773	16.99
554.97	16.92
555.166	17.02
555.362	17.05
555.559	17.07
555.755	17.24
555.952	17.44
556.148	17.82
556.344	18.17
556.541	18.02
556.737	17.99
556.933	17.99
557.129	17.96
557.326	17.96
557.522	18.34
557.718	18.53
557.914	18.69
558.11	18.58
558.307	18.41
558.503	18.35
558.699	18.68
558.895	18.81
559.091	19.1
559.287	19.32
559.483	19.54
559.679	19.51
559.876	19.54
560.072	19.73
560.268	19.91
560.464	20.1
560.66	20.15
560.856	20.05
561.052	20
561.247	19.87
561.443	19.94
561.639	19.91
561.835	19.91
562.031	20.02
562.227	19.92
562.423	20.2
562.619	20.36
562.815	20.34
563.01	20.26
563.206	20.5
563.402	20.71
563.598	20.68
563.793	20.66
563.989	20.77
564.185	20.94
564.381	21.12
564.576	20.92
564.772	20.79
564.968	20.93
565.163	21.16
565.359	21.28
565.555	21.3
565.75	21.62
565.946	21.83
566.141	21.78
566.337	21.7
566.532	21.77
566.728	21.97
566.923	22.25
567.119	22.24
567.314	22.4
567.51	22.47
567.705	22.32
567.901	22.22
568.096	22.15
568.292	22.35
568.487	22.54
568.682	22.55
568.878	22.63
569.073	22.61
569.268	22.66
569.464	22.7
569.659	22.71
569.854	23.08
570.05	23.21
570.245	23.45
570.44	23.5
570.635	23.5
570.831	23.87
571.026	23.94
571.221	24.13
571.416	24.37
571.611	24.3
571.806	24.4
572.002	24.5
572.197	24.42
572.392	24.46
572.587	24.66
572.782	24.93
572.977	24.7
573.172	24.81
573.367	24.75
573.562	24.73
573.757	24.98
573.952	25.05
574.147	25.18
574.342	25.33
574.537	25.59
574.732	25.46
574.927	25.52
575.121	25.59
575.316	25.66
575.511	25.87
575.706	25.96
575.901	25.99
576.096	25.97
576.29	25.94
576.485	26.09
576.68	26.03
576.875	26.05
577.069	26.24
577.264	26.31
577.459	26.25
577.654	26.11
577.848	26.22
578.043	26.41
578.238	26.44
578.432	26.42
578.627	26.27
578.821	26.19
579.016	26.42
579.21	26.27
579.405	26.45
579.6	26.39
579.794	26.4
579.989	26.53
580.183	26.37
580.378	26.46
580.572	26.32
580.766	26.58
580.961	26.93
581.155	26.92
581.35	26.68
581.544	26.67
581.738	26.85
581.933	27.14
582.127	26.73
582.321	26.71
582.516	26.73
582.71	27.2
582.904	27.14
583.099	26.88
583.293	27.1
583.487	27.37
583.681	27.67
583.875	27.91
584.07	27.82
584.264	28.11
584.458	28.36
584.652	28.49
584.846	28.55
585.04	28.52
585.234	28.69
585.428	28.76
585.623	28.94
585.817	28.93
586.011	28.89
586.205	29.17
586.399	29.47
586.593	29.5
586.787	29.81
586.981	29.52
587.174	29.94
587.368	30.01
587.562	30.18
587.756	30.11
587.95	30.15
588.144	30.19
588.338	30.11
588.532	29.99
588.725	30.02
588.919	29.95
589.113	30.29
589.307	29.89
589.501	30.03
589.694	30.08
589.888	30.14
590.082	30.01
590.275	30.02
590.469	30.01
590.663	30.06
590.856	29.79
591.05	30
591.244	30.11
591.437	30.59
591.631	30.46
591.824	30.48
592.018	30.65
592.212	30.79
592.405	30.92
592.599	31
592.792	31.19
592.986	31.67
593.179	31.62
593.372	31.49
593.566	31.49
593.759	31.85
593.953	31.73
594.146	31.73
594.339	31.82
594.533	31.73
594.726	32.11
594.92	32.12
595.113	32.04
595.306	32.05
595.499	32.28
595.693	32.15
595.886	32.01
596.079	32
596.272	31.99
596.466	31.94
596.659	32.07
596.852	31.81
597.045	31.7
597.238	31.71
597.431	31.67
597.624	31.83
597.818	32.06
598.011	32.07
598.204	32.18
598.397	32.21
598.59	32.21
598.783	32.22
598.976	32.13
599.169	32.3
599.362	32.37
599.555	32.65
599.748	32.52
599.941	32.32
600.134	32.42
600.326	32.43
600.519	32.45
600.712	32.39
600.905	32.37
601.098	32.9
601.291	32.91
601.483	33.04
601.676	32.98
601.869	33.08
602.062	32.94
602.255	32.96
602.447	32.99
602.64	32.99
602.833	33.08
603.025	33.18
603.218	33.03
603.411	33.22
603.603	33.11
603.796	33.05
603.989	33.03
604.181	33.31
604.374	33.47
604.566	33.52
604.759	33.68
604.951	33.81
605.144	34
605.336	33.98
605.529	33.77
605.721	33.99
605.914	34.13
606.106	34.08
606.299	34.11
606.491	33.89
606.683	34.02
606.876	34.25
607.068	34.48
607.26	34.53
607.453	34.55
607.645	34.72
607.837	34.59
608.03	34.65
608.222	34.76
608.414	34.75
608.606	34.95
608.799	34.77
608.991	34.51
609.183	34.39
609.375	34.48
609.567	34.72
609.759	34.86
609.952	34.91
610.144	34.8
610.336	34.54
610.528	34.61
610.72	34.77
610.912	34.88
611.104	34.85
611.296	34.88
611.488	34.7
611.68	34.53
611.872	34.45
612.064	34.47
612.256	34.68
612.448	34.95
612.64	35
612.832	34.81
613.023	34.78
613.215	34.94
613.407	35.08
613.599	35.18
613.791	35.46
613.983	35.51
614.174	35.63
614.366	35.47
614.558	35.4
614.75	35.38
614.941	35.67
615.133	35.7
615.325	35.75
615.516	35.58
615.708	35.46
615.9	35.41
616.091	35.33
616.283	35.43
616.475	35.6
616.666	35.78
616.858	36.17
617.049	35.94
617.241	36.11
617.432	36.23
617.624	36.2
617.815	36.34
618.007	36.36
618.198	36.52
618.39	36.33
618.581	36.4
618.773	36.6
618.964	36.33
619.155	36.62
619.347	36.73
619.538	36.63
619.729	36.89
619.921	37.01
620.112	36.78
620.303	36.64
620.494	36.96
620.686	36.88
620.877	36.51
621.068	36.59
621.259	36.48
621.451	36.57
621.642	36.91
621.833	36.91
622.024	36.87
622.215	36.9
622.406	37.14
622.597	36.94
622.788	36.85
622.98	37.02
623.171	37.28
623.362	37.34
623.553	37.49
623.744	37.53
623.935	37.56
624.126	37.39
624.317	37.21
624.508	37.32
624.698	37.08
624.889	36.99
625.08	37.47
625.271	37.23
625.462	37.19
625.653	37.12
625.844	37.05
626.034	36.93
626.225	37.02
626.416	37.24
626.607	37.19
626.798	37.48
626.988	37.73
627.179	37.47
627.37	37.68
627.56	37.69
627.751	37.63
627.942	37.53
628.132	37.73
628.323	37.74
628.514	38.02
628.704	38.08
628.895	38.38
629.085	38.6
629.276	38.67
629.466	38.61
629.657	38.82
629.847	38.81
630.038	38.7
630.228	38.58
630.419	38.56
630.609	38.41
630.8	38.35
630.99	37.92
631.181	37.61
631.371	37.53
631.561	37.33
631.752	37.04
631.942	37.16
632.132	37.23
632.323	37.42
632.513	37.49
632.703	37.6
632.893	37.79
633.084	38.02
633.274	38.25
633.464	38.28
633.654	38.29
633.844	38.34
634.034	38.38
634.225	38.72
634.415	38.78
634.605	38.97
634.795	38.94
634.985	38.93
635.175	38.92
635.365	38.85
635.555	39.05
635.745	39.31
635.935	39.48
636.125	39.66
636.315	39.73
636.505	39.67
636.695	39.72
636.885	39.69
637.075	39.75
637.265	39.87
637.455	40.04
637.644	40.11
637.834	40.07
638.024	40.23
638.214	40.1
638.404	39.87
638.593	39.85
638.783	39.88
638.973	39.93
639.163	39.69
639.352	39.85
639.542	39.65
639.732	39.67
639.921	39.37
640.111	39.3
640.301	39.24
640.49	39.22
640.68	39.6
640.87	39.65
641.059	39.77
641.249	39.77
641.438	39.69
641.628	40.17
641.817	39.84
642.007	40.22
642.196	39.98
642.386	40.09
642.575	40.48
642.764	40.19
642.954	40.06
643.143	39.81
643.333	40.02
643.522	40.01
643.711	39.5
643.901	39.61
644.09	39.36
644.279	39.55
644.469	39.49
644.658	39.53
644.847	39.51
645.036	40.36
645.226	40.65
645.415	40.64
645.604	41.03
645.793	41.37
645.982	41.43
646.171	42.08
646.361	42.09
646.55	42.18
646.739	42.23
646.928	42.1
647.117	41.48
647.306	41.61
647.495	41.53
647.684	41.25
647.873	40.98
648.062	40.94
648.251	40.39
648.44	40.39
648.629	40.09
648.818	39.95
649.007	40.03
649.196	40.08
649.384	40.28
649.573	40.56
649.762	40.85
649.951	40.97
650.14	41.5
650.328	41.81
650.517	41.94
650.706	42.29
650.895	42.31
651.083	42.56
651.272	42.53
651.461	42.38
651.65	42.3
651.838	41.88
652.027	42.11
652.216	41.61
652.404	41.8
652.593	41.66
652.781	41.76
652.97	41.77
653.158	42
653.347	42.1
653.535	42.21
653.724	42.36
653.912	42.49
654.101	42.3
654.289	42.4
654.478	42.53
654.666	42.69
654.855	42.31
655.043	41.88
655.231	41.7
655.42	41.57
655.608	41.32
655.796	41.56
655.985	42.08
656.173	42.15
656.361	42.24
656.55	41.88
656.738	42.02
656.926	42.6
657.114	43.22
657.302	43.02
657.491	43.06
657.679	43.12
657.867	42.57
658.055	42.2
658.243	42.32
658.431	42.56
658.619	42.61
658.807	42.81
658.996	42.53
659.184	42.58
659.372	42.77
659.56	42.83
659.748	42.73
659.936	43.03
660.124	42.7
660.311	42.6
660.499	42.64
660.687	42.84
660.875	42.61
661.063	42.61
661.251	42.56
661.439	42.57
661.627	42.81
661.814	43.02
662.002	43
662.19	43.36
662.378	43.16
662.565	42.96
662.753	42.8
662.941	42.73
663.129	42.8
663.316	42.92
663.504	42.64
663.692	42.49
663.879	42.44
664.067	42.84
664.254	42.85
664.442	43.33
664.63	43.47
664.817	43.8
665.005	43.84
665.192	43.87
665.38	43.33
665.567	43.83
665.755	43.56
665.942	43.51
666.13	43.2
666.317	43.16
666.504	43.33
666.692	43.06
666.879	42.79
667.067	43.01
667.254	43.13
667.441	43.68
667.629	43.47
667.816	43.61
668.003	43.51
668.19	43.56
668.378	43.74
668.565	43.63
668.752	43.74
668.939	43.77
669.127	43.9
669.314	43.96
669.501	43.3
669.688	43.32
669.875	43.06
670.062	43.29
670.249	43.57
670.436	43.68
670.623	43.9
670.81	43.97
670.997	43.97
671.184	43.57
671.371	43.39
671.558	44.33
671.745	44.21
671.932	44.8
672.119	45.18
672.306	44.73
672.493	45.07
672.68	44.82
672.867	45.24
673.054	44.87
673.24	45.17
673.427	45.38
673.614	45.11
673.801	45.01
673.988	44.58
674.174	44.07
674.361	44.03
674.548	43.7
674.734	43.84
674.921	43.69
675.108	43.98
675.294	44.03
675.481	44.14
675.668	44.02
675.854	44.4
676.041	44.91
676.227	45.36
676.414	46.07
676.601	46.46
676.787	46.4
676.974	46.4
677.16	46.41
677.347	46.19
677.533	45.89
677.719	46.06
677.906	45.86
678.092	46.17
678.279	46.11
678.465	45.75
678.651	45.39
678.838	45.36
679.024	45.39
679.21	45.62
679.397	45.81
679.583	46.01
679.769	45.67
679.955	45.99
680.142	45.59
680.328	45.34
680.514	45.15
680.7	45.15
680.886	45.51
681.073	45.51
681.259	45.55
681.445	45.63
681.631	45.69
681.817	45.83
682.003	45.44
682.189	45.5
682.375	45.86
682.561	45.93
682.747	46.08
682.933	45.95
683.119	45.66
683.305	45.76
683.491	45.53
683.677	45.42
683.863	45.55
684.049	46.03
684.235	46.07
684.42	45.88
684.606	45.99
684.792	45.88
684.978	45.98
685.164	46.55
685.349	46.76
685.535	47.13
685.721	47.05
685.907	47.23
686.092	46.82
686.278	46.6
686.464	47
686.649	46.92
686.835	46.48
687.021	46.41
687.206	46.23
687.392	46.18
687.577	46.64
687.763	47.08
687.948	47.04
688.134	46.99
688.319	47.07
688.505	46.7
688.69	46.91
688.876	47.68
689.061	47.51
689.247	47.61
689.432	47.16
689.618	46.7
689.803	46.92
689.988	47.15
690.174	47.58
690.359	47.71
690.544	47.81
690.73	47.89
690.915	47.73
691.1	48.16
691.285	47.99
691.471	48.42
691.656	48.28
691.841	48.09
692.026	47.84
692.211	47.72
692.396	47.69
692.582	47.92
692.767	48.07
692.952	47.17
693.137	46.98
693.322	46.97
693.507	46.59
693.692	46.43
693.877	46.32
694.062	46.14
694.247	46.12
694.432	46.43
694.617	46.19
694.802	45.79
694.987	46.6
695.172	46.4
695.357	46.57
695.541	46.95
695.726	46.81
695.911	47.17
696.096	47.66
696.281	48.01
696.466	47.59
696.65	47.51
696.835	47.32
697.02	47.46
697.204	47.44
697.389	47.88
697.574	47.8
697.759	48.29
697.943	47.67
698.128	47.73
698.312	47.29
698.497	47.43
698.682	47.35
698.866	47.6
699.051	47.95
699.235	48.19
699.42	47.79
699.604	47.77
699.789	47.71
699.973	47.88
700.158	47.69
700.342	47.95
700.527	48.06
700.711	48.54
700.895	48.47
701.08	48.01
701.264	47.38
701.448	47.02
701.633	46.89
701.817	46.87
702.001	47.42
702.186	47.38
702.37	47.44
702.554	47.49
702.738	47.33
702.923	47.71
703.107	48.01
703.291	48.62
703.475	48.76
703.659	49.24
703.843	48.85
704.027	48.63
704.212	48.54
704.396	48.62
704.58	48.49
704.764	48.19
704.948	48.49
705.132	48.57
705.316	48.27
705.5	48.55
705.684	48.42
705.868	48.79
706.052	48.83
706.235	48.26
706.419	47.37
706.603	47.49
706.787	47.51
706.971	47
707.155	46.29
707.339	46.6
707.522	46.71
707.706	46.77
707.89	46.9
708.074	46.73
708.257	47.31
708.441	47.89
708.625	48.17
708.808	48.67
708.992	48.99
709.176	49.68
709.359	49.48
709.543	49.57
709.727	48.98
709.91	48.76
710.094	48.37
710.277	48.59
710.461	48.71
710.644	48.24
710.828	47.77
711.011	48.35
711.195	48.62
711.378	49.04
711.562	49.27
711.745	49.47
711.928	49.92
712.112	49.97
712.295	49.42
712.478	49.74
712.662	49.98
712.845	50.13
713.028	49.45
713.212	48.96
713.395	48.7
713.578	48.73
713.761	48.85
713.945	48.18
714.128	48.79
714.311	49.24
714.494	48.98
714.677	49.06
714.86	49.63
715.043	49.59
715.227	49.31
715.41	49.53
715.593	48.87
715.776	49.02
715.959	49.4
716.142	49.41
716.325	49.08
716.508	49.22
716.691	48.75
716.874	48.71
717.057	48.45
717.239	49.15
717.422	49.3
717.605	49.76
717.788	49.39
717.971	49.57
718.154	49.34
718.337	49.66
718.519	49.37
718.702	50.07
718.885	49.6
719.068	50.18
719.25	49.84
719.433	49.96
719.616	50.14
719.798	50.14
719.981	50.11
720.164	50.06
720.346	50.35
720.529	49.72
720.712	49.18
720.894	49.14
721.077	49.01
721.259	48.19
721.442	47.51
721.624	47.11
721.807	47.5
721.989	47.82
722.172	48.07
722.354	47.92
722.537	49.21
722.719	49.7
722.901	48.97
723.084	48.78
723.266	49.69
723.448	49.66
723.631	50.21
723.813	51.03
723.995	50.57
724.178	49.9
724.36	50.07
724.542	49.9
724.724	49.65
724.907	50.64
725.089	50.83
725.271	50.57
725.453	50.93
725.635	51.72
725.817	50.94
725.999	51.24
726.181	51.11
726.364	50.66
726.546	50.25
726.728	50.17
726.91	49.53
727.092	49.19
727.274	49.2
727.456	49.33
727.638	47.91
727.819	47.17
728.001	46.81
728.183	46.92
728.365	47.05
728.547	47.03
728.729	47.85
728.911	48.52
729.093	48.34
729.274	48.73
729.456	48.24
729.638	48.57
729.82	49.76
730.001	49.88
730.183	50.12
730.365	50.12
730.546	51
730.728	50.44
730.91	50.77
731.091	51.52
731.273	51.17
731.455	52.04
731.636	52.24
731.818	52.4
731.999	52.07
732.181	52.62
732.362	52.26
732.544	52.16
732.725	52.41
732.907	52.43
733.088	52.58
733.27	52.99
733.451	52.78
733.633	52.37
733.814	52.22
733.995	52.44
734.177	52.56
734.358	53.48
734.539	52.93
734.721	52.66
734.902	51.43
735.083	50.61
735.264	50.2
735.446	49.48
735.627	49.95
735.808	49.51
735.989	50.04
736.17	49.41
736.351	48.82
736.533	49.31
736.714	49.63
736.895	49.85
737.076	50.63
737.257	50.89
737.438	51.55
737.619	51.28
737.8	51.57
737.981	50.73
738.162	50.27
738.343	51.13
738.524	50.99
738.705	51.83
738.886	52.39
739.067	51.69
739.247	51.42
739.428	51.14
739.609	51.18
739.79	51.18
739.971	51.91
740.151	52.15
740.332	51.46
740.513	50.89
740.694	49.78
740.874	49.18
741.055	49.58
741.236	49.37
741.417	49
741.597	49.44
741.778	49.38
741.958	48.82
742.139	49.22
742.32	49.74
742.5	50.2
742.681	50.39
742.861	51.05
743.042	51.59
743.222	52.1
743.403	52.43
743.583	51.9
743.764	52.06
743.944	53.17
744.124	53.81
744.305	53.85
744.485	54.05
744.666	53.44
744.846	53.62
745.026	53.18
745.207	52.72
745.387	54.24
745.567	54.74
745.747	54.52
745.928	55.18
746.108	55.23
746.288	54.56
746.468	52.67
746.648	53.45
746.829	53.45
747.009	52.9
747.189	52.6
747.369	50.34
747.549	50.7
747.729	50.48
747.909	48.82
748.089	48.71
748.269	48.3
748.449	50.02
748.629	49.56
748.809	48.97
748.989	49.06
749.169	49.06
749.349	49.68
749.529	49.71
749.709	50.1
749.889	50.57
750.068	50.96
750.248	51.55
750.428	50.84
750.608	50.58
750.788	51.71
750.967	52.11
751.147	52.95
751.327	53.16
751.507	51.93
751.686	53.44
751.866	52.51
752.046	51.54
752.225	51.78
752.405	52.31
752.585	53.82
752.764	52.81
752.944	52.59
753.123	52.42
753.303	51.94
753.482	53
753.662	51.48
753.841	51.48
754.021	51.64
754.2	50.53
754.38	50.41
754.559	49.49
754.739	49.52
754.918	50.04
755.097	49.24
755.277	49.44
755.456	49.38
755.635	48.93
755.815	49.97
755.994	49.8
756.173	51.17
756.352	51.83
756.532	51.94
756.711	52.8
756.89	52.08
757.069	51.91
757.248	51.27
757.427	51.08
757.607	51.44
757.786	50.82
757.965	49.82
758.144	49.71
758.323	49.12
758.502	48.24
758.681	47.2
758.86	47.35
759.039	48.32
759.218	48.34
759.397	48.35
759.576	48.65
759.755	49.15
759.934	49.81
760.113	49.92
760.291	50.28
760.47	51.44
760.649	51.7
760.828	52.09
761.007	52.04
761.186	52.66
761.364	51.99
761.543	51.5
761.722	50.63
761.901	50.78
762.079	51.33
762.258	51.42
762.437	50.45
762.615	51.06
762.794	51.53
762.972	51.85
763.151	52.41
763.33	52.61
763.508	52.27
763.687	52.75
763.865	52.83
764.044	51.65
764.222	50.7
764.401	51.44
764.579	51.5
764.758	51.01
764.936	50.51
765.114	50.88
765.293	51.16
765.471	52.01
765.65	52.11
765.828	52.41
766.006	52.66
766.184	54.44
766.363	54.23
766.541	53.61
766.719	53.92
766.898	54.19
767.076	53.22
767.254	53.13
767.432	52.67
767.61	53.08
767.788	52.91
767.967	52.97
768.145	52.23
768.323	51.71
768.501	52.38
768.679	51.81
768.857	52.59
769.035	52.56
769.213	51.98
769.391	51.92
769.569	51.16
769.747	51.18
769.925	51.51
770.103	52.03
770.281	52.66
770.459	51.59
770.636	51.13
770.814	50.11
770.992	50.88
771.17	51.42
771.348	51.87
771.525	51.73
771.703	52.66
771.881	53.53
772.059	52.74
772.236	51.95
772.414	53.41
772.592	53.96
772.769	55.18
772.947	55.41
773.125	55.19
773.302	54.68
773.48	55.2
773.657	54.75
773.835	54.7
774.013	55.01
774.19	55.89
774.368	56.59
774.545	56.84
774.723	56.25
774.9	56.17
775.077	57.2
775.255	58.07
775.432	58.46
775.61	58.55
775.787	59.45
775.964	59.18
776.142	58.93
776.319	58.72
776.496	59.61
776.674	59.27
776.851	57.46
777.028	57
777.205	55.5
777.382	54.98
777.56	55.3
777.737	55.47
777.914	55.84
778.091	55.77
778.268	54.12
778.445	52.71
778.622	51.41
778.8	53.38
778.977	52.62
779.154	57.99
779.331	57
779.508	56.87
779.685	55.84
779.862	56.59
780.038	57.05
780.215	58.79
780.392	60.04
780.569	61.99
780.746	60.73
780.923	61.89
781.1	58.31
781.277	60.87
781.453	59.24
781.63	59.08
781.807	59.69
781.984	57.94
782.16	55.65
782.337	53.19
782.514	52.4
782.691	54.3
782.867	55.88
783.044	54.21
783.221	50.47
783.397	52.52
783.574	52.66
783.75	51.54
783.927	53.67
784.103	54.66
784.28	56.08
784.456	55.89
784.633	54.73
784.809	53.41
784.986	54.51
785.162	55.05
785.339	54.65
785.515	52
785.692	50.45
785.868	48.82
786.044	49.34
786.221	48.61
786.397	47.54
786.573	46.52
786.749	45.92
786.926	44.69
787.102	46.17
787.278	45.95
787.454	48.17
787.631	49.92
787.807	50.81
787.983	50.13
788.159	51.9
788.335	52.88
788.511	54.02
788.687	55
788.863	55.87
789.039	56.49
789.216	55.85
789.392	56.34
789.568	54.97
789.744	55.65
789.919	54.74
790.095	53.43
790.271	54.95
790.447	54.91
790.623	52.98
790.799	52.35
790.975	51.82
791.151	51.6
791.327	51.02
791.502	50.32
791.678	50.52
791.854	52.27
792.03	54.34
792.205	54.19
792.381	52.94
792.557	53.7
792.733	54.33
792.908	55.68
793.084	56.54
793.259	57
793.435	58.25
793.611	56.7
793.786	56.54
793.962	53.35
794.137	52.51
794.313	53.27
794.488	53.6
794.664	54.21
794.839	53.2
795.015	51.42
795.19	50.16
795.366	50.18
795.541	52.46
795.716	51.52
795.892	53.45
796.067	52.44
796.242	53.58
796.418	51.47
796.593	51.04
796.768	50.5
796.944	51.25
797.119	51.49
797.294	50.09
797.469	48.7
797.644	50.05
797.82	48.36
797.995	50.75
798.17	51.13
798.345	52.78
798.52	51.78
798.695	50.69
798.87	52.44
799.045	53.84
799.22	56.42
799.395	55.85
799.57	55.9
799.745	56.71
799.92	55.02
800.095	54.37
800.27	54.37
800.445	55.37
800.62	57.58
800.795	56.93
800.97	57.08
801.145	55.99
801.319	56.43
801.494	55.41
801.669	54.65
801.844	55.49
802.018	56.5
802.193	56.63
802.368	57.39
802.543	58.27
802.717	58.27
802.892	57.5
803.067	58.83
803.241	57.47
803.416	56.4
803.59	56.79
803.765	57.46
803.94	57.44
804.114	57.94
804.289	57.7
804.463	57.55
804.638	57.74
804.812	55.94
804.986	54.28
805.161	56.3
805.335	57.47
805.51	56.47
805.684	54.77
805.858	55
806.033	54.33
806.207	54.99
806.381	53.09
806.556	53.79
806.73	58.19
806.904	57.62
807.078	57.15
807.253	56.74
807.427	58.76
807.601	60.58
807.775	59.42
807.949	58.6
808.123	57.06
808.298	58.16
808.472	59.79
808.646	58.04
808.82	58.66
808.994	58.68
809.168	61
809.342	61.34
809.516	61.2
809.69	60.13
809.864	63.01
810.038	63.95
810.212	64.88
810.385	63.12
810.559	63.72
810.733	64.66
810.907	64.4
811.081	63.01
811.255	62.22
811.428	63.05
811.602	64.86
811.776	63.02
811.95	61.42
812.123	59.73
812.297	60.03
812.471	58.44
812.644	58.3
812.818	56.89
812.992	55.04
813.165	55.87
813.339	54.9
813.512	55.65
813.686	58.02
813.86	59.05
814.033	57.65
814.207	56.33
814.38	54.99
814.554	54.59
814.727	57.79
814.9	59.7
815.074	58.83
815.247	56.92
815.421	53.88
815.594	53.43
815.767	54.99
815.941	57.53
816.114	58.04
816.287	59.83
816.46	61.21
816.634	59.71
816.807	59.32
816.98	58.27
817.153	59.86
817.327	60.07
817.5	58.4
817.673	55.12
817.846	55.05
818.019	55.6
818.192	54.4
818.365	53.46
818.538	52.76
818.711	50.95
818.884	54.11
819.057	55.24
819.23	56.49
819.403	58.29
819.576	59.01
819.749	57.68
819.922	56.61
820.095	56.06
820.268	55.42
820.441	55.75
820.614	58.7
820.786	55.53
820.959	55.03
821.132	53.94
821.305	53.19
821.477	52.86
821.65	53.14
821.823	52.43
821.996	53.42
822.168	53.64
822.341	53.34
822.514	52.35
822.686	52.89
822.859	52.53
823.031	52.91
823.204	52.84
823.376	53
823.549	52.9
823.722	53.25
823.894	52.91
824.067	52.52
824.239	52.67
824.411	53.06
824.584	52.75
824.756	52.89
824.929	52.78
825.101	52.86
825.273	52.16
825.446	51.3
825.618	51.32
825.79	51.57
825.963	52.2
826.135	51.5
826.307	51.36
826.479	51.71
826.652	50.35
826.824	50.19
826.996	50.74
827.168	50.95
827.34	51.47
827.512	51.41
827.684	51.39
827.856	51.02
828.029	52.59
828.201	52.13
828.373	52.04
828.545	54.14
828.717	54.32
828.889	53.74
829.061	54.46
829.232	55.17
829.404	55.19
829.576	54.98
829.748	55.42
829.92	55.01
830.092	56.45
830.264	56.72
830.436	55.64
830.607	55.16
830.779	54.9
830.951	56.02
831.123	55.76
831.294	55.44
831.466	55.81
831.638	55.04
831.809	54.54
831.981	52.22
832.153	53.53
832.324	54.73
832.496	54.1
832.667	54.32
832.839	55.71
833.011	56.17
833.182	60.02
833.354	59.14
833.525	58.88
833.697	57.06
833.868	58.56
834.039	57.4
834.211	56.79
834.382	56.07
834.554	56.25
834.725	55.28
834.896	56.04
835.068	52.77
835.239	52.67
835.41	54.2
835.581	56.61
835.753	55.56
835.924	53.64
836.095	53.33
836.266	55.83
836.438	54.42
836.609	54.92
836.78	54.05
836.951	56.41
837.122	56.83
837.293	54.98
837.464	54.53
837.635	55.5
837.806	59.19
837.977	59.47
838.148	57.19
838.319	58.13
838.49	55.96
838.661	57.62
838.832	55.78
839.003	56.02
839.174	58.38
839.345	56.82
839.516	56.72
839.687	59.48
839.857	60.83
840.028	63.37
840.199	67.15
840.37	66.94
840.54	66.59
840.711	67.79
840.882	69.1
841.053	65.66
841.223	61.76
841.394	62.44
841.564	55.56
841.735	55.88
841.906	55.87
842.076	53.72
842.247	54.38
842.417	50.64
842.588	45.47
842.758	46.57
842.929	47.67
843.099	52.88
843.27	50.97
843.44	52.82
843.611	49.16
843.781	46.8
843.951	41.53
844.122	43.51
844.292	46.29
844.462	51.61
844.633	48.69
844.803	50.69
844.973	47.11
845.144	46.14
845.314	47.33
845.484	51.09
845.654	53.29
845.824	65.81
845.995	59.57
846.165	59.47
846.335	53.9
846.505	60.75
846.675	58.53
846.845	57.58
847.015	55.35
847.185	61.42
847.355	55.81
847.525	49.67
847.695	35.71
847.865	40.45
848.035	45.61
848.205	54.91
848.375	45.06
848.545	41.78
848.715	45.94
848.884	49.43
849.054	37.58
849.224	44.46
849.394	48.6
849.564	48.67
849.733	53.09
849.903	54.49
850.073	51.14
850.243	55.82
850.412	60.22
850.582	62
850.752	66.15
850.921	69.44
851.091	64.95
851.26	69.86
851.43	70.64
851.599	74.41
851.769	72.3
851.939	75.68
852.108	74.33
852.278	74.46
852.447	72.3
852.616	66.18
852.786	67.02
852.955	75.53
853.125	69.6
853.294	74.21
853.463	68.55
853.633	65.43
853.802	61.85
853.971	64.7
854.141	62.45
854.31	61.5
854.479	63.25
854.648	55.61
854.818	54.83
854.987	58.9
855.156	58.61
855.325	60.12
855.494	56.72
855.663	57.37
855.832	62.32
856.001	60.97
856.171	58.13
856.34	64.59
856.509	67.22
856.678	59.7
856.847	54.12
857.016	51.53
857.185	47.48
857.353	58.82
857.522	65.58
857.691	61.25
857.86	70.56
858.029	78.32
858.198	78.97
858.367	84.91
858.535	94.43
858.704	106.01
858.873	120.45
859.042	110.71
859.21	107.59
859.379	98.92
859.548	109.88
859.717	110.41
859.885	109.71
860.054	100.86
860.222	99.7
860.391	97.74
860.56	90.42
860.728	84.93
860.897	79.98
861.065	73.55
861.234	68.87
861.402	60.89
861.571	50.42
861.739	46.97
861.908	39.38
862.076	35.78
862.244	38.54
862.413	29.64
862.581	19.31
862.749	24.65
862.918	32.92
863.086	41.54
863.254	35.33
863.423	43.03
863.591	47.03
863.759	46.75
863.927	53.29
864.096	52.35
864.264	57.41
864.432	58.66
864.6	59.93
864.768	58.33
864.936	56.79
865.104	63.26
865.272	59
865.44	65.15
865.608	67.09
865.776	69.3
865.944	59.28
866.112	61.64
866.28	64.23
866.448	68.02
866.616	71.41
866.784	77.54
866.952	71.79
867.12	80.2
867.288	78.46
867.455	78.04
867.623	71.29
867.791	75.11
867.959	70.92
868.127	75.06
868.294	81.69
868.462	71.6
868.63	68.66
868.797	67.94
868.965	61.18
869.133	61.37
869.3	83.07
869.468	82.9
869.636	98.83
869.803	97.61
869.971	92.25
870.138	87.73
870.306	87.52
870.473	95.94
870.641	100.13
870.808	104.54
870.975	97.88
871.143	83.96
871.31	81.47
871.478	66.74
871.645	72.03
871.812	73.26
871.98	74.38
872.147	75.86
872.314	68.79
872.482	62.33
872.649	61.29
872.816	61.75
872.983	59.45
873.15	59.88
873.318	63.45
873.485	60.73
873.652	69.29
873.819	72.12
873.986	58.2
874.153	60.64
874.32	61.98
874.487	61.57
874.654	57.84
874.821	60.11
874.988	56.31
875.155	49.54
875.322	45.61
875.489	38.23
875.656	35.65
875.823	52.6
875.99	51.21
876.157	67.18
876.324	67.43
876.49	71.33
876.657	81.87
876.824	90.24
876.991	90.86
877.157	87.64
877.324	85.78
877.491	78.12
877.658	72.01
877.824	68.38
877.991	62.75
878.157	61.21
878.324	69.31
878.491	62.74
878.657	66.57
878.824	69.9
878.99	67.53
879.157	65.51
879.323	67.96
879.49	68.5
879.656	71.61
879.823	68.28
879.989	72.77
880.156	66.7
880.322	65.34
880.488	62.24
880.655	63.59
880.821	63.63
880.987	67.17
881.154	65.61
881.32	69.08
881.486	67.73
881.652	68.5
881.819	65.66
881.985	63.74
882.151	64.09
882.317	62.84
882.483	60.44
882.649	60.95
882.816	56.11
882.982	56.26
883.148	54.81
883.314	56.04
883.48	54.12
883.646	53.67
883.812	52.76
883.978	51.49
884.144	52.04
884.31	52.57
884.476	52.84
884.642	54.09
884.807	54.44
884.973	54.09
885.139	53.5
885.305	54.37
885.471	53.65
885.637	55.26
885.802	54.26
885.968	55.16
886.134	54.86
886.3	54.88
886.465	55.2
886.631	54.74
886.797	57.46
886.962	58.08
887.128	59.48
887.293	57.98
887.459	58.78
887.625	63.3
887.79	59.23
887.956	60.71
888.121	58.62
888.287	59.5
888.452	58.52
888.618	53.14
888.783	49.7
