Data from LC_170_Reflection_2.txt Node
Date: Mon Nov 16 23:13:03 EST 2015
User: robert
Spectrometer: USB4E03001
Autoset integration time: false
Trigger mode: 4
Integration Time (sec): 1.000000E-1
Scans to average: 15
Electric dark correction enabled: true
Nonlinearity correction enabled: false
Boxcar width: 5
Stray light correction enabled: false
XAxis mode: Wavelengths
Stop averaging: false
Number of Pixels in Spectrum: 3648
>>>>>Begin Spectral Data<<<<<
177.566	721.69
177.785	68.23
178.005	-106.72
178.225	-98.55
178.445	-47.13
178.665	-59.25
178.885	137.25
179.105	1261.68
179.324	2950.47
179.544	-327.52
179.764	-1750.51
179.984	-487.56
180.204	-447.73
180.423	-419.91
180.643	-462.25
180.863	-429.42
181.083	-427.8
181.302	-566.3
181.522	-423.32
181.742	-314.14
181.961	-526.88
182.181	-400.74
182.401	-589.96
182.621	-2285.05
182.84	-1146.97
183.06	-819.35
183.279	-505.73
183.499	-360.96
183.719	-309.38
183.938	-309.42
184.158	-367.62
184.377	-273.5
184.597	-429.79
184.816	-272.86
185.036	-214.34
185.256	-158.8
185.475	-200.08
185.695	-246.44
185.914	-374.64
186.134	-567.38
186.353	-752.72
186.572	-958.79
186.792	-1349.45
187.011	-537.47
187.231	-530.82
187.45	-402.66
187.67	-1107.77
187.889	-2937.5
188.108	5808.02
188.328	-1487.54
188.547	-571.93
188.766	-965.08
188.986	-1362.58
189.205	-957.12
189.424	-667.21
189.644	-1820.28
189.863	-1966.43
190.082	-1339.44
190.302	-2668.87
190.521	-1454.69
190.74	1624.03
190.959	667.26
191.178	1092.66
191.398	886.87
191.617	777.73
191.836	676.66
192.055	1636.87
192.274	646.76
192.494	704.81
192.713	823.56
192.932	1837.33
193.151	1310.49
193.37	2731.73
193.589	-1394.98
193.808	-415.77
194.027	-605.84
194.246	-5892.46
194.465	1041.7
194.685	2859.84
194.904	1327.78
195.123	-1756.94
195.342	-1158.02
195.561	-524.34
195.78	-764.51
195.999	33061.97
196.218	1077.59
196.436	839.13
196.655	-3216.75
196.874	-1265.68
197.093	-1589.19
197.312	-1216.28
197.531	3194.87
197.75	1077.08
197.969	-4234.04
198.188	-927.57
198.407	-284.81
198.625	-355.88
198.844	-317.11
199.063	-269.61
199.282	-534.6
199.501	-324.71
199.719	-267.84
199.938	-177.7
200.157	-153.24
200.376	-155.08
200.594	-225.4
200.813	-474.5
201.032	-369.29
201.251	-364.71
201.469	-368.74
201.688	-285.61
201.907	-510.83
202.125	-721.06
202.344	27480.95
202.563	4867.25
202.781	746.49
203	2348.06
203.218	1768.05
203.437	1486.16
203.656	703.26
203.874	392.02
204.093	352.31
204.311	478.82
204.53	461.13
204.748	699.45
204.967	469.61
205.185	494.57
205.404	495.47
205.622	338.57
205.841	260.27
206.059	295.05
206.278	407.85
206.496	1040.64
206.715	512.94
206.933	436.14
207.151	380.24
207.37	446.92
207.588	422.83
207.806	372.19
208.025	824.37
208.243	-1576.88
208.461	2546.94
208.68	-22385.88
208.898	959.04
209.116	1103.46
209.335	1024.44
209.553	1039.71
209.771	9802.5
209.989	2036.19
210.208	4779.09
210.426	-8060.41
210.644	4426.66
210.862	-3837.56
211.081	1830.25
211.299	-841.61
211.517	3463.59
211.735	-950.36
211.953	-305814.29
212.171	-5559.04
212.39	-16814.41
212.608	-45802.17
212.826	1638.22
213.044	1237.3
213.262	909.25
213.48	4302.32
213.698	508.14
213.916	664.26
214.134	420.3
214.352	770.7
214.57	562.97
214.788	718.6
215.006	553.56
215.224	444.38
215.442	315.75
215.66	283.87
215.878	251.22
216.096	256.31
216.314	289.14
216.532	597.39
216.75	527.24
216.968	456.21
217.185	1033.9
217.403	1983.7
217.621	-6019.62
217.839	-1911.7
218.057	-2287.23
218.275	4057.93
218.492	1170.62
218.71	1865.17
218.928	515.11
219.146	485.1
219.363	403.68
219.581	313.54
219.799	227.86
220.017	220.94
220.234	196.48
220.452	218.2
220.67	250.56
220.887	274.94
221.105	293.73
221.323	244.93
221.54	214.56
221.758	311.54
221.976	328.39
222.193	301.58
222.411	215.28
222.629	218.87
222.846	208.1
223.064	212.52
223.281	180.16
223.499	162.41
223.716	178.44
223.934	158.17
224.151	141.91
224.369	122.45
224.586	134.04
224.804	157.28
225.021	155.41
225.239	141.95
225.456	128.91
225.674	144.56
225.891	123.63
226.108	121.51
226.326	115.39
226.543	94.63
226.76	91.39
226.978	84.09
227.195	83.46
227.413	70.72
227.63	62.58
227.847	58.64
228.064	51.21
228.282	46.77
228.499	42.01
228.716	36.6
228.934	33.02
229.151	33.88
229.368	29.42
229.585	25.46
229.802	26.83
230.02	26.99
230.237	27.17
230.454	26.74
230.671	27.81
230.888	28
231.105	31.83
231.323	34.99
231.54	33.85
231.757	38.62
231.974	42.01
232.191	40.83
232.408	42.65
232.625	34.97
232.842	33.68
233.059	37.88
233.276	37.48
233.493	35.99
233.71	38.05
233.927	37.97
234.144	36.93
234.361	35.09
234.578	38.81
234.795	35.98
235.012	42.8
235.229	45.51
235.446	41.94
235.663	39.36
235.879	39.48
236.096	38.87
236.313	44.61
236.53	45.39
236.747	46.98
236.964	43.47
237.181	47.51
237.397	45.6
237.614	44.34
237.831	41.9
238.048	46.6
238.264	45.06
238.481	40.3
238.698	34.97
238.915	31.79
239.131	32.13
239.348	34.05
239.565	31.03
239.781	33.55
239.998	30.14
240.215	30.02
240.431	29
240.648	27.52
240.865	29.63
241.081	27.78
241.298	27.13
241.514	23.82
241.731	22.13
241.947	21.12
242.164	19.47
242.38	18.16
242.597	17.88
242.814	16.75
243.03	16.59
243.246	15.49
243.463	16.3
243.679	17.2
243.896	16.05
244.112	15.36
244.329	16.06
244.545	16.6
244.762	20.11
244.978	22.64
245.194	21.82
245.411	23.32
245.627	23.28
245.843	22.42
246.06	20.06
246.276	21.09
246.492	19.72
246.709	18.46
246.925	17.33
247.141	16.84
247.357	15.58
247.574	16
247.79	14.65
248.006	13.49
248.222	13.4
248.439	13.54
248.655	13.45
248.871	13.73
249.087	14.19
249.303	14.15
249.519	14.14
249.736	15.86
249.952	14.32
250.168	17.7
250.384	20.07
250.6	20.11
250.816	20.2
251.032	19.27
251.248	20.58
251.464	21.77
251.68	21.37
251.896	20.75
252.112	20.4
252.328	22.52
252.544	21.49
252.76	21.26
252.976	21.13
253.192	21.04
253.408	23.36
253.624	24.91
253.84	23.43
254.056	25.41
254.272	25.51
254.487	25.81
254.703	24.1
254.919	25.5
255.135	25.59
255.351	26.88
255.567	29.76
255.782	28.95
255.998	26.58
256.214	27.44
256.43	23.44
256.646	26.55
256.861	27.13
257.077	25.01
257.293	22.13
257.508	21.12
257.724	20.65
257.94	20.13
258.155	17.84
258.371	15.71
258.587	14.38
258.802	15.38
259.018	13.58
259.234	12.02
259.449	12.4
259.665	12.28
259.88	12.73
260.096	11.83
260.312	10.43
260.527	10.85
260.743	11.94
260.958	12.54
261.174	12.57
261.389	13.64
261.605	14.95
261.82	16.11
262.036	16.67
262.251	17.52
262.466	18.52
262.682	20.97
262.897	20.99
263.113	20.99
263.328	20.75
263.543	21.25
263.759	20.25
263.974	19.66
264.189	19.58
264.405	20.02
264.62	19.02
264.835	21.03
265.051	19.46
265.266	21.43
265.481	21.58
265.696	24.49
265.912	24.72
266.127	22.73
266.342	20.97
266.557	20.87
266.773	21.06
266.988	20.82
267.203	19.87
267.418	19.63
267.633	18.09
267.848	17.76
268.064	14.93
268.279	14.1
268.494	14.56
268.709	15.41
268.924	14.42
269.139	14.38
269.354	14.14
269.569	13.67
269.784	14.59
269.999	16.09
270.214	15.69
270.429	18.79
270.644	18.76
270.859	17.54
271.074	16.8
271.289	16.18
271.504	16.3
271.719	16.08
271.934	15.49
272.149	15.19
272.363	15.07
272.578	13.28
272.793	11.49
273.008	11.43
273.223	12.28
273.438	12.73
273.653	14.61
273.867	14.29
274.082	13.73
274.297	14.09
274.512	14.52
274.726	13.55
274.941	15.16
275.156	15.48
275.371	15.96
275.585	16.36
275.8	17.03
276.015	15.34
276.229	14.95
276.444	15.67
276.659	16.4
276.873	16.19
277.088	17
277.302	18.63
277.517	18.81
277.732	20.56
277.946	20.21
278.161	20.22
278.375	21.43
278.59	21.25
278.804	21.83
279.019	22.7
279.233	22.66
279.448	21.61
279.662	19.63
279.877	19.93
280.091	18.09
280.306	16.63
280.52	16.57
280.735	15.44
280.949	15.08
281.163	14.57
281.378	12.53
281.592	12.19
281.806	12.98
282.021	12.73
282.235	12.4
282.449	11.83
282.664	12.89
282.878	12.83
283.092	13.35
283.307	13.43
283.521	14.19
283.735	14.76
283.949	15.78
284.164	15.32
284.378	16.23
284.592	15.37
284.806	15.97
285.02	15.67
285.234	14.73
285.449	14.67
285.663	14.53
285.877	13.51
286.091	13.24
286.305	12.43
286.519	11.28
286.733	10.57
286.947	10.82
287.161	9.91
287.375	9.83
287.589	10.29
287.803	10.64
288.017	10.43
288.231	10.73
288.445	11.24
288.659	11.85
288.873	12.2
289.087	13.37
289.301	13.28
289.515	13.17
289.729	11.79
289.943	12.25
290.157	11.22
290.371	13.49
290.584	13.17
290.798	13.89
291.012	13.91
291.226	14.51
291.44	14.88
291.654	15.06
291.867	15.37
292.081	16.43
292.295	17.49
292.509	17.74
292.722	16.68
292.936	17.27
293.15	18.12
293.364	17.88
293.577	18.78
293.791	18.06
294.005	19.76
294.218	20.59
294.432	21.85
294.645	19.84
294.859	19.06
295.073	18.4
295.286	18.68
295.5	17.15
295.713	17.62
295.927	16.72
296.14	16.66
296.354	14.84
296.568	13.7
296.781	13.5
296.994	13.65
297.208	14.09
297.421	13.86
297.635	13.58
297.848	13.55
298.062	12.78
298.275	13.4
298.489	13.33
298.702	14.29
298.915	15.12
299.129	14.6
299.342	14.31
299.555	15.38
299.769	16.48
299.982	16.18
300.195	16.62
300.409	17.54
300.622	18.23
300.835	18.59
301.048	17.69
301.262	17.82
301.475	17.44
301.688	19.2
301.901	17.89
302.115	17.2
302.328	18.74
302.541	18.1
302.754	18.06
302.967	17.79
303.18	18.52
303.393	18.9
303.607	18.33
303.82	19.91
304.033	18.31
304.246	19.14
304.459	19.72
304.672	18.36
304.885	18.34
305.098	17.55
305.311	16.16
305.524	15.31
305.737	14.9
305.95	16.12
306.163	14.01
306.376	13.9
306.589	13.52
306.802	13.03
307.015	15.02
307.228	16.19
307.44	15.98
307.653	16.04
307.866	14.88
308.079	17.14
308.292	16.37
308.505	17.56
308.718	17.89
308.93	17.67
309.143	17.32
309.356	15.58
309.569	14.63
309.781	15.4
309.994	15.79
310.207	16.34
310.42	14.75
310.632	14.13
310.845	14.23
311.058	13.59
311.27	13.98
311.483	14.03
311.696	14.11
311.908	14.18
312.121	13.39
312.333	13.69
312.546	13.44
312.759	12.65
312.971	13.41
313.184	14.16
313.396	14.52
313.609	15.08
313.821	15.31
314.034	15.94
314.246	16.86
314.459	17.35
314.671	17.19
314.884	17.56
315.096	17.99
315.309	17.41
315.521	17.9
315.733	17.64
315.946	16.42
316.158	15.96
316.371	15.23
316.583	14.24
316.795	13.72
317.008	14.47
317.22	15.34
317.432	15.88
317.644	15.76
317.857	14.41
318.069	15.55
318.281	15.84
318.494	15.68
318.706	16.52
318.918	16.13
319.13	16.89
319.342	16.28
319.555	16.05
319.767	17.33
319.979	17.21
320.191	18.17
320.403	17.49
320.615	18.6
320.827	20.25
321.039	19.43
321.252	20.02
321.464	20.45
321.676	21.36
321.888	20.63
322.1	19.62
322.312	18.72
322.524	16.59
322.736	16.33
322.948	14.86
323.16	13.03
323.372	13.81
323.584	13.1
323.796	13.18
324.007	12.15
324.219	12.99
324.431	12.96
324.643	14.32
324.855	15.11
325.067	14.9
325.279	15.25
325.491	16.46
325.702	15.33
325.914	15.6
326.126	15.59
326.338	15.47
326.55	14.66
326.761	15.31
326.973	15.36
327.185	15.56
327.396	15.92
327.608	15.7
327.82	15.72
328.032	16.64
328.243	16.55
328.455	16.91
328.666	17.59
328.878	17.87
329.09	16.81
329.301	16.26
329.513	15.46
329.725	15.49
329.936	15.21
330.148	15.29
330.359	14.67
330.571	15.93
330.782	14.87
330.994	15.29
331.205	16.34
331.417	16.86
331.628	16.98
331.84	18.74
332.051	18.46
332.262	20.12
332.474	19.07
332.685	20.48
332.897	18.92
333.108	19.33
333.319	18.23
333.531	17.13
333.742	17.14
333.953	16.39
334.165	14.87
334.376	15.25
334.587	14.03
334.799	14.17
335.01	13.25
335.221	12.92
335.432	13.02
335.644	12.89
335.855	13.11
336.066	13.79
336.277	14.85
336.488	15.19
336.7	14.89
336.911	15.49
337.122	14.85
337.333	14.81
337.544	17.21
337.755	16.91
337.966	16.9
338.177	17.32
338.388	16.85
338.599	17.36
338.811	17.17
339.022	17.61
339.233	17.37
339.444	18.77
339.655	17.72
339.866	16.17
340.076	16.92
340.287	17.99
340.498	17.69
340.709	16.94
340.92	15.9
341.131	15.86
341.342	15.53
341.553	15.69
341.764	14.63
341.975	15.27
342.185	15.27
342.396	14.61
342.607	14.11
342.818	14.09
343.029	14.71
343.239	14.75
343.45	15.2
343.661	14.33
343.872	13.6
344.082	14.1
344.293	14.77
344.504	16.64
344.714	15.4
344.925	14.44
345.136	14.59
345.346	12.77
345.557	12.87
345.768	12.71
345.978	13.2
346.189	13.93
346.399	13.29
346.61	13.14
346.821	11.7
347.031	13.27
347.242	12.98
347.452	12.81
347.663	13.94
347.873	14.87
348.084	14.76
348.294	15.54
348.504	14.46
348.715	15.13
348.925	14.25
349.136	13.45
349.346	11.79
349.557	12.14
349.767	12.47
349.977	12.61
350.188	12.43
350.398	12.6
350.608	12.03
350.819	12.19
351.029	11.21
351.239	11.69
351.449	11.85
351.66	13.38
351.87	14.39
352.08	13.53
352.29	13.3
352.501	12.39
352.711	12.44
352.921	12.5
353.131	12.95
353.341	13.37
353.552	13.5
353.762	13.73
353.972	13.48
354.182	13.05
354.392	13.1
354.602	13.62
354.812	13.34
355.022	13.31
355.232	13.47
355.442	13.71
355.652	14.06
355.862	13.32
356.072	13.27
356.282	12.41
356.492	12.55
356.702	12.73
356.912	12.94
357.122	13.97
357.332	13.68
357.542	13.12
357.752	13.18
357.962	13.08
358.171	13.38
358.381	13.57
358.591	13.96
358.801	13.55
359.011	13.35
359.221	12.41
359.43	11.84
359.64	11.98
359.85	12.04
360.06	11.85
360.269	11.59
360.479	11.61
360.689	11.12
360.899	11.07
361.108	11.03
361.318	10.99
361.528	11.15
361.737	10.87
361.947	10.29
362.156	10.69
362.366	10.59
362.576	10.35
362.785	9.74
362.995	9.71
363.204	9.81
363.414	9.67
363.623	9.94
363.833	10.84
364.042	10.6
364.252	11.28
364.461	10.59
364.671	10.94
364.88	11.25
365.09	12.55
365.299	12.6
365.509	11.83
365.718	12.16
365.927	11.54
366.137	11.67
366.346	12.2
366.555	11.95
366.765	12.12
366.974	11.95
367.183	12.43
367.393	11.58
367.602	11.64
367.811	11.98
368.021	11.47
368.23	11.6
368.439	10.54
368.648	10.74
368.857	10.87
369.067	10.99
369.276	10.67
369.485	10.4
369.694	10.58
369.903	10.94
370.112	11.59
370.321	11.96
370.531	11.94
370.74	11.96
370.949	11.43
371.158	11.42
371.367	11.78
371.576	11.76
371.785	10.79
371.994	10.61
372.203	10.56
372.412	10.13
372.621	10.15
372.83	10.24
373.039	10.41
373.248	10.33
373.457	10.39
373.666	9.7
373.874	9.71
374.083	10.25
374.292	10.22
374.501	9.86
374.71	9.79
374.919	9.76
375.128	9.79
375.336	9.38
375.545	9.79
375.754	9.55
375.963	9.63
376.171	9.09
376.38	9.24
376.589	9.35
376.798	8.93
377.006	9
377.215	9.48
377.424	9.36
377.632	9.63
377.841	9.06
378.05	8.49
378.258	8.55
378.467	8.68
378.675	8.56
378.884	8.42
379.093	8.46
379.301	7.88
379.51	7.11
379.718	6.97
379.927	6.88
380.135	6.58
380.344	6.95
380.552	6.86
380.761	7.1
380.969	6.8
381.177	6.79
381.386	6.54
381.594	7.04
381.803	6.97
382.011	7.05
382.219	6.74
382.428	6.47
382.636	6.22
382.845	6.29
383.053	6.33
383.261	6.46
383.469	6.69
383.678	7.02
383.886	6.76
384.094	6.87
384.302	7.18
384.511	7.51
384.719	7.87
384.927	7.93
385.135	8.22
385.343	8.16
385.552	7.9
385.76	7.55
385.968	7.41
386.176	7.27
386.384	7.47
386.592	7.05
386.8	6.99
387.008	7.4
387.216	7.69
387.424	7.47
387.633	7.24
387.841	7.24
388.049	7.43
388.257	7.41
388.465	7.25
388.672	6.94
388.88	6.91
389.088	6.84
389.296	6.76
389.504	6.79
389.712	6.61
389.92	6.52
390.128	6.59
390.336	6.6
390.544	7.07
390.751	7.25
390.959	7.1
391.167	7.2
391.375	7.55
391.583	7.14
391.79	6.7
391.998	6.44
392.206	6.9
392.414	6.74
392.621	6.52
392.829	6.25
393.037	6.2
393.244	6.45
393.452	6.42
393.66	6.01
393.867	6.37
394.075	6.39
394.283	6.75
394.49	6.18
394.698	6.29
394.905	6.32
395.113	6.16
395.32	6.29
395.528	6.07
395.735	5.97
395.943	6.02
396.15	5.6
396.358	5.93
396.565	5.8
396.773	6.25
396.98	6.46
397.188	6.35
397.395	6.18
397.602	5.95
397.81	5.82
398.017	6.03
398.225	5.56
398.432	5.91
398.639	5.75
398.847	5.68
399.054	5.22
399.261	5.11
399.468	5.28
399.676	5.29
399.883	5.59
400.09	6.01
400.297	6.06
400.505	6.44
400.712	6.41
400.919	6.58
401.126	6.67
401.333	6.84
401.54	6.78
401.748	6.83
401.955	7.08
402.162	6.93
402.369	6.72
402.576	6.36
402.783	6.42
402.99	6.41
403.197	5.97
403.404	5.83
403.611	5.79
403.818	5.98
404.025	5.68
404.232	5.49
404.439	5.26
404.646	5.07
404.853	5.11
405.06	4.96
405.267	4.69
405.474	4.64
405.681	4.48
405.887	4.42
406.094	4.18
406.301	4.35
406.508	4.34
406.715	4.7
406.922	4.9
407.128	4.89
407.335	4.82
407.542	5.06
407.749	5.39
407.955	5.87
408.162	5.85
408.369	6.19
408.575	6.03
408.782	6.01
408.989	5.85
409.195	5.87
409.402	6.11
409.609	6.37
409.815	6.32
410.022	6.23
410.228	5.81
410.435	6.05
410.642	5.72
410.848	6.07
411.055	5.98
411.261	5.96
411.468	5.78
411.674	5.53
411.881	5.36
412.087	5.37
412.294	5.24
412.5	5.16
412.706	4.91
412.913	4.86
413.119	4.45
413.326	4.34
413.532	4.39
413.738	4.41
413.945	4.53
414.151	4.43
414.357	4.36
414.564	4.43
414.77	4.63
414.976	4.61
415.182	4.74
415.389	5.07
415.595	5.14
415.801	4.95
416.007	4.94
416.214	4.9
416.42	4.83
416.626	4.49
416.832	4.54
417.038	4.33
417.244	4.44
417.45	4.26
417.657	4.17
417.863	4.3
418.069	4.36
418.275	4.47
418.481	4.29
418.687	4.31
418.893	4.57
419.099	4.5
419.305	4.64
419.511	4.62
419.717	4.68
419.923	4.5
420.129	4.39
420.335	4.46
420.541	4.44
420.746	4.51
420.952	4.58
421.158	4.56
421.364	4.5
421.57	4.51
421.776	4.51
421.982	4.41
422.187	4.34
422.393	4.35
422.599	4.16
422.805	4.02
423.01	3.99
423.216	3.71
423.422	3.52
423.628	3.51
423.833	3.38
424.039	3.39
424.245	3.47
424.45	3.67
424.656	3.69
424.862	3.74
425.067	3.78
425.273	3.71
425.478	3.85
425.684	3.89
425.889	4.1
426.095	4.21
426.301	4.04
426.506	4.1
426.712	4.11
426.917	4.06
427.123	4.13
427.328	4.16
427.533	4.23
427.739	4.28
427.944	4.33
428.15	4.12
428.355	4.12
428.561	4.16
428.766	3.93
428.971	3.8
429.177	3.92
429.382	3.99
429.587	4.07
429.793	4.13
429.998	4.22
430.203	4.16
430.408	4.2
430.614	4.18
430.819	4.16
431.024	4.36
431.229	4.24
431.434	4.27
431.64	4.12
431.845	4.13
432.05	4.14
432.255	4.17
432.46	4.01
432.665	3.93
432.87	3.8
433.076	3.89
433.281	3.99
433.486	3.94
433.691	3.7
433.896	3.46
434.101	3.39
434.306	3.56
434.511	3.33
434.716	3.69
434.921	3.74
435.126	3.66
435.331	3.57
435.535	3.4
435.74	3.57
435.945	3.86
436.15	4.12
436.355	4.16
436.56	3.94
436.765	4.23
436.97	3.87
437.174	3.95
437.379	4.14
437.584	4.2
437.789	4.22
437.993	4.2
438.198	4.13
438.403	4.15
438.608	4.2
438.812	4.05
439.017	3.86
439.222	3.86
439.426	3.62
439.631	3.58
439.836	3.56
440.04	3.52
440.245	3.52
440.45	3.48
440.654	3.45
440.859	3.32
441.063	3.25
441.268	3.28
441.472	3.47
441.677	3.54
441.881	3.38
442.086	3.37
442.29	3.32
442.495	3.16
442.699	3.2
442.904	3.18
443.108	3.07
443.312	3.18
443.517	3.18
443.721	2.99
443.925	3
444.13	3.24
444.334	3.17
444.538	3.29
444.743	3.44
444.947	3.37
445.151	3.24
445.356	3.19
445.56	3.26
445.764	3.22
445.968	3.22
446.173	3.36
446.377	3.35
446.581	3.35
446.785	3.33
446.989	3.26
447.193	3.16
447.398	3.29
447.602	3.44
447.806	3.53
448.01	3.68
448.214	3.8
448.418	3.8
448.622	3.81
448.826	3.86
449.03	4.01
449.234	4.26
449.438	4.23
449.642	4.23
449.846	4.25
450.05	4.25
450.254	4.02
450.458	4.12
450.662	3.96
450.866	3.97
451.069	3.92
451.273	3.66
451.477	3.31
451.681	3.44
451.885	3.36
452.089	3.36
452.292	3.23
452.496	3.37
452.7	3.27
452.904	3.44
453.107	3.4
453.311	3.56
453.515	3.54
453.719	3.56
453.922	3.6
454.126	3.6
454.33	3.52
454.533	3.48
454.737	3.39
454.94	3.36
455.144	3.43
455.348	3.41
455.551	3.24
455.755	3.23
455.958	3.44
456.162	3.35
456.365	3.44
456.569	3.39
456.772	3.31
456.976	3.36
457.179	3.3
457.383	3.08
457.586	3.1
457.79	3.13
457.993	3.22
458.196	3
458.4	3.06
458.603	2.97
458.807	3.03
459.01	3.19
459.213	3.17
459.417	3.13
459.62	3.21
459.823	3.16
460.026	3.24
460.23	3.21
460.433	3.31
460.636	3.25
460.839	3.39
461.042	3.46
461.246	3.53
461.449	3.46
461.652	3.39
461.855	3.2
462.058	3.23
462.261	2.98
462.464	2.94
462.668	2.99
462.871	3.15
463.074	3.11
463.277	2.85
463.48	2.81
463.683	2.94
463.886	3.18
464.089	3.23
464.292	3.17
464.495	3.34
464.698	3.32
464.901	3.33
465.104	3.33
465.306	3.33
465.509	3.49
465.712	3.51
465.915	3.48
466.118	3.38
466.321	3.4
466.524	3.48
466.726	3.61
466.929	3.75
467.132	3.71
467.335	3.57
467.538	3.41
467.74	3.38
467.943	3.44
468.146	3.52
468.348	3.53
468.551	3.68
468.754	3.67
468.956	3.53
469.159	3.4
469.362	3.41
469.564	3.34
469.767	3.32
469.969	3.24
470.172	3
470.375	3.05
470.577	3.15
470.78	3.02
470.982	3
471.185	3.1
471.387	3.13
471.59	3.15
471.792	3.3
471.995	3.45
472.197	3.66
472.399	3.68
472.602	3.42
472.804	3.39
473.007	3.47
473.209	3.39
473.411	3.3
473.614	3.4
473.816	3.37
474.018	3.41
474.22	3.45
474.423	3.47
474.625	3.43
474.827	3.67
475.03	3.74
475.232	3.72
475.434	3.86
475.636	3.88
475.838	3.83
476.04	3.74
476.243	3.64
476.445	3.59
476.647	3.46
476.849	3.39
477.051	3.26
477.253	3.25
477.455	3.27
477.657	3.18
477.859	3.19
478.061	2.97
478.263	3.05
478.465	3.05
478.667	2.93
478.869	2.93
479.071	2.88
479.273	2.97
479.475	2.69
479.677	2.7
479.879	2.63
480.081	2.72
480.283	2.88
480.485	2.82
480.686	2.99
480.888	2.96
481.09	2.99
481.292	3.02
481.494	2.9
481.695	3.05
481.897	2.82
482.099	2.84
482.301	2.8
482.502	2.82
482.704	2.81
482.906	2.69
483.107	2.67
483.309	2.59
483.511	2.66
483.712	2.61
483.914	2.52
484.115	2.58
484.317	2.56
484.519	2.54
484.72	2.5
484.922	2.46
485.123	2.53
485.325	2.55
485.526	2.62
485.728	2.61
485.929	2.64
486.131	2.73
486.332	2.78
486.534	2.78
486.735	2.75
486.936	2.74
487.138	2.74
487.339	2.67
487.541	2.64
487.742	2.58
487.943	2.57
488.144	2.6
488.346	2.55
488.547	2.52
488.748	2.56
488.95	2.5
489.151	2.59
489.352	2.62
489.553	2.53
489.755	2.55
489.956	2.53
490.157	2.51
490.358	2.53
490.559	2.66
490.76	2.69
490.961	2.58
491.163	2.66
491.364	2.62
491.565	2.55
491.766	2.63
491.967	2.66
492.168	2.71
492.369	2.76
492.57	2.75
492.771	2.74
492.972	2.68
493.173	2.8
493.374	2.84
493.575	2.91
493.776	3.06
493.976	3.08
494.177	3.18
494.378	3.25
494.579	3.25
494.78	3.45
494.981	3.4
495.182	3.5
495.382	3.51
495.583	3.43
495.784	3.41
495.985	3.39
496.185	3.4
496.386	3.2
496.587	3.25
496.788	3.15
496.988	3.03
497.189	3.07
497.39	3.04
497.59	3.11
497.791	3.18
497.992	3.12
498.192	3.18
498.393	3.26
498.593	3.43
498.794	3.27
498.994	3.42
499.195	3.4
499.395	3.38
499.596	3.46
499.796	3.33
499.997	3.41
500.197	3.61
500.398	3.58
500.598	3.54
500.799	3.49
500.999	3.6
501.199	3.48
501.4	3.61
501.6	3.54
501.801	3.67
502.001	3.79
502.201	3.73
502.402	3.6
502.602	3.6
502.802	3.64
503.002	3.75
503.203	3.88
503.403	3.8
503.603	3.6
503.803	3.7
504.003	3.59
504.204	3.74
504.404	3.65
504.604	3.63
504.804	3.75
505.004	3.75
505.204	3.72
505.404	3.67
505.604	3.91
505.804	3.93
506.005	3.82
506.205	3.9
506.405	3.92
506.605	4.05
506.805	4.14
507.005	4.02
507.204	3.97
507.404	3.98
507.604	4.02
507.804	3.95
508.004	4.02
508.204	4.09
508.404	3.96
508.604	3.86
508.804	3.9
509.003	3.96
509.203	3.99
509.403	4.02
509.603	4.01
509.803	4.12
510.002	4.19
510.202	4.14
510.402	4.17
510.602	4.37
510.801	4.4
511.001	4.35
511.201	4.33
511.4	4.36
511.6	4.36
511.8	4.34
511.999	4.44
512.199	4.35
512.398	4.42
512.598	4.51
512.797	4.54
512.997	4.6
513.197	4.6
513.396	4.6
513.596	4.66
513.795	4.82
513.994	4.87
514.194	4.74
514.393	4.82
514.593	4.9
514.792	5.03
514.992	4.88
515.191	4.81
515.39	4.8
515.59	4.71
515.789	4.75
515.988	4.74
516.188	4.8
516.387	4.71
516.586	4.73
516.786	4.85
516.985	4.78
517.184	4.9
517.383	5
517.582	5.16
517.782	5.26
517.981	5.15
518.18	5.05
518.379	5.06
518.578	5.05
518.777	5.05
518.976	4.98
519.176	5.03
519.375	4.99
519.574	5.03
519.773	5.04
519.972	4.97
520.171	5.02
520.37	5.09
520.569	5.2
520.768	5.28
520.967	5.37
521.166	5.35
521.365	5.22
521.564	5.39
521.762	5.38
521.961	5.3
522.16	5.43
522.359	5.42
522.558	5.46
522.757	5.32
522.956	5.35
523.154	5.26
523.353	5.38
523.552	5.57
523.751	5.57
523.949	5.56
524.148	5.63
524.347	5.59
524.546	5.68
524.744	5.66
524.943	5.77
525.142	5.73
525.34	5.95
525.539	5.94
525.737	5.9
525.936	5.83
526.135	5.76
526.333	5.72
526.532	5.8
526.73	5.81
526.929	5.68
527.127	5.6
527.326	5.65
527.524	5.51
527.723	5.57
527.921	5.59
528.12	5.6
528.318	5.69
528.516	5.72
528.715	5.68
528.913	5.66
529.112	5.76
529.31	5.8
529.508	5.8
529.707	5.83
529.905	5.8
530.103	5.78
530.301	5.76
530.5	5.78
530.698	5.8
530.896	5.86
531.094	6.04
531.293	6.12
531.491	6.21
531.689	6.32
531.887	6.38
532.085	6.5
532.283	6.55
532.481	6.66
532.68	6.64
532.878	6.67
533.076	6.68
533.274	6.56
533.472	6.6
533.67	6.5
533.868	6.49
534.066	6.46
534.264	6.36
534.462	6.39
534.66	6.41
534.858	6.42
535.056	6.42
535.253	6.38
535.451	6.45
535.649	6.44
535.847	6.66
536.045	6.67
536.243	6.8
536.441	6.98
536.638	7.06
536.836	7.06
537.034	7.08
537.232	7.13
537.43	7.33
537.627	7.39
537.825	7.4
538.023	7.28
538.22	7.5
538.418	7.52
538.616	7.5
538.813	7.56
539.011	7.72
539.209	7.82
539.406	7.91
539.604	8
539.801	8.06
539.999	8.12
540.196	8.25
540.394	8.25
540.591	8.29
540.789	8.22
540.986	8.13
541.184	8.1
541.381	8.1
541.579	8.07
541.776	8.04
541.974	8
542.171	8.01
542.368	7.99
542.566	7.91
542.763	7.91
542.96	8
543.158	8.2
543.355	8.27
543.552	8.35
543.75	8.52
543.947	8.44
544.144	8.51
544.341	8.63
544.539	8.75
544.736	8.9
544.933	8.98
545.13	9.04
545.327	8.91
545.524	8.96
545.722	9.09
545.919	9.06
546.116	9.21
546.313	9.2
546.51	9.28
546.707	9.31
546.904	9.2
547.101	9.33
547.298	9.47
547.495	9.56
547.692	9.55
547.889	9.53
548.086	9.64
548.283	9.79
548.48	9.96
548.677	9.98
548.874	10.07
549.07	10.34
549.267	10.35
549.464	10.37
549.661	10.43
549.858	10.68
550.055	10.8
550.251	10.68
550.448	10.75
550.645	10.85
550.842	10.92
551.038	11.03
551.235	10.92
551.432	10.85
551.628	10.81
551.825	11.07
552.022	11.02
552.218	10.94
552.415	11.17
552.612	10.97
552.808	11.01
553.005	10.99
553.201	11.05
553.398	11.15
553.594	11.26
553.791	11.55
553.987	11.53
554.184	11.59
554.38	11.74
554.577	11.79
554.773	12.08
554.97	12.14
555.166	12.37
555.362	12.25
555.559	12.45
555.755	12.6
555.952	12.53
556.148	12.46
556.344	12.47
556.541	12.48
556.737	12.53
556.933	12.75
557.129	12.86
557.326	12.81
557.522	13.11
557.718	13.31
557.914	13.34
558.11	13.38
558.307	13.41
558.503	13.52
558.699	13.61
558.895	13.65
559.091	13.53
559.287	13.52
559.483	13.68
559.679	13.88
559.876	13.87
560.072	14.03
560.268	14.06
560.464	14.15
560.66	14.24
560.856	14.32
561.052	14.35
561.247	14.48
561.443	14.54
561.639	14.48
561.835	14.47
562.031	14.38
562.227	14.28
562.423	14.39
562.619	14.65
562.815	14.84
563.01	15.08
563.206	15.19
563.402	15.18
563.598	15.17
563.793	15.33
563.989	15.23
564.185	15.21
564.381	15.6
564.576	15.54
564.772	15.52
564.968	15.47
565.163	15.16
565.359	15.04
565.555	15.19
565.75	15.37
565.946	15.51
566.141	15.44
566.337	15.49
566.532	15.42
566.728	15.6
566.923	15.68
567.119	15.62
567.314	15.76
567.51	16.02
567.705	16.13
567.901	16.18
568.096	16.13
568.292	16.35
568.487	16.45
568.682	16.55
568.878	16.69
569.073	16.77
569.268	16.92
569.464	17.24
569.659	17.27
569.854	17.28
570.05	17.26
570.245	17.46
570.44	17.47
570.635	17.84
570.831	17.77
571.026	17.82
571.221	17.88
571.416	17.82
571.611	17.8
571.806	17.87
572.002	17.92
572.197	18.23
572.392	18.13
572.587	18.35
572.782	18.24
572.977	18.49
573.172	18.6
573.367	18.48
573.562	18.64
573.757	18.73
573.952	18.75
574.147	18.89
574.342	18.98
574.537	19.15
574.732	19.1
574.927	19.18
575.121	19.22
575.316	19.19
575.511	19.37
575.706	19.43
575.901	19.34
576.096	19.62
576.29	19.62
576.485	19.61
576.68	19.74
576.875	19.8
577.069	19.79
577.264	19.66
577.459	19.88
577.654	20.02
577.848	20.21
578.043	20.47
578.238	20.38
578.432	20.37
578.627	20.32
578.821	20.25
579.016	20.32
579.21	20.51
579.405	20.7
579.6	20.71
579.794	20.79
579.989	20.55
580.183	20.81
580.378	21.01
580.572	21.33
580.766	21.34
580.961	21.37
581.155	21.44
581.35	21.34
581.544	21.28
581.738	21.23
581.933	21.33
582.127	21.86
582.321	21.69
582.516	21.6
582.71	21.46
582.904	21.6
583.099	21.6
583.293	21.68
583.487	22.1
583.681	22.56
583.875	22.33
584.07	22.45
584.264	22.31
584.458	22.33
584.652	22.26
584.846	22.18
585.04	22.23
585.234	22.47
585.428	22.55
585.623	22.23
585.817	22.11
586.011	22.48
586.205	22.49
586.399	22.45
586.593	22.57
586.787	22.84
586.981	22.93
587.174	22.95
587.368	22.83
587.562	22.85
587.756	22.94
587.95	22.88
588.144	22.77
588.338	22.89
588.532	23.16
588.725	23.04
588.919	23.15
589.113	23.17
589.307	23.28
589.501	23.33
589.694	23.47
589.888	23.76
590.082	23.62
590.275	23.7
590.469	23.76
590.663	23.45
590.856	23.51
591.05	23.62
591.244	23.72
591.437	23.89
591.631	24.03
591.824	23.82
592.018	23.65
592.212	23.85
592.405	23.88
592.599	24.02
592.792	24.13
592.986	24.36
593.179	24.39
593.372	24.26
593.566	24.08
593.759	24.34
593.953	24.54
594.146	24.41
594.339	24.51
594.533	24.79
594.726	24.58
594.92	24.82
595.113	24.74
595.306	24.65
595.499	24.77
595.693	24.94
595.886	24.74
596.079	24.86
596.272	24.86
596.466	24.96
596.659	24.81
596.852	24.9
597.045	24.87
597.238	24.88
597.431	24.83
597.624	24.84
597.818	24.76
598.011	24.77
598.204	24.65
598.397	24.92
598.59	24.88
598.783	24.99
598.976	24.94
599.169	25
599.362	25.37
599.555	25.69
599.748	26.18
599.941	26.25
600.134	26.43
600.326	26.64
600.519	26.92
600.712	26.91
600.905	26.78
601.098	27.04
601.291	26.93
601.483	26.7
601.676	26.73
601.869	26.32
602.062	26.52
602.255	26.46
602.447	26.45
602.64	26.2
602.833	26.34
603.025	26.52
603.218	26.45
603.411	26.46
603.603	26.39
603.796	26.4
603.989	26.58
604.181	26.49
604.374	26.7
604.566	26.64
604.759	26.52
604.951	26.54
605.144	26.57
605.336	26.67
605.529	26.71
605.721	26.77
605.914	26.56
606.106	26.52
606.299	26.65
606.491	26.56
606.683	26.74
606.876	26.86
607.068	26.91
607.26	27.11
607.453	27.05
607.645	27.04
607.837	27.09
608.03	27.47
608.222	27.59
608.414	27.56
608.606	27.48
608.799	27.44
608.991	27.46
609.183	27.35
609.375	27.24
609.567	27.18
609.759	27.34
609.952	27.39
610.144	27.32
610.336	27.29
610.528	27.25
610.72	27.32
610.912	27.45
611.104	27.66
611.296	27.83
611.488	27.85
611.68	28.25
611.872	28.19
612.064	28.5
612.256	28.58
612.448	28.54
612.64	28.48
612.832	28.65
613.023	28.73
613.215	28.77
613.407	28.7
613.599	28.76
613.791	28.55
613.983	28.57
614.174	28.2
614.366	28.28
614.558	28.39
614.75	28.34
614.941	28.19
615.133	28.19
615.325	28.23
615.516	28.46
615.708	28.45
615.9	28.39
616.091	28.74
616.283	29.36
616.475	29.09
616.666	29.26
616.858	29.77
617.049	29.86
617.241	29.89
617.432	30.06
617.624	30.17
617.815	30.3
618.007	30.31
618.198	30.15
618.39	29.68
618.581	29.62
618.773	29.6
618.964	29.33
619.155	29.36
619.347	29.5
619.538	29.31
619.729	29.37
619.921	29.23
620.112	29.34
620.303	29.37
620.494	29.54
620.686	29.64
620.877	29.69
621.068	29.72
621.259	29.8
621.451	29.83
621.642	29.78
621.833	29.5
622.024	29.67
622.215	29.94
622.406	30.13
622.597	30.24
622.788	30.3
622.98	30.17
623.171	30.47
623.362	30.54
623.553	30.75
623.744	30.66
623.935	30.86
624.126	30.86
624.317	30.58
624.508	30.64
624.698	30.42
624.889	30.84
625.08	31.21
625.271	31.31
625.462	31.19
625.653	30.76
625.844	31.03
626.034	30.83
626.225	30.72
626.416	30.77
626.607	30.82
626.798	31.19
626.988	31.13
627.179	31.16
627.37	30.7
627.56	31.02
627.751	31.32
627.942	31.22
628.132	31.16
628.323	31.4
628.514	31.44
628.704	31.23
628.895	30.97
629.085	30.91
629.276	30.68
629.466	31.01
629.657	30.63
629.847	30.44
630.038	30.55
630.228	30.78
630.419	30.67
630.609	30.94
630.8	31.04
630.99	31.24
631.181	31.08
631.371	31.52
631.561	31.78
631.752	32.28
631.942	32.25
632.132	32.21
632.323	32.26
632.513	32.37
632.703	32.21
632.893	32.11
633.084	31.93
633.274	31.9
633.464	31.77
633.654	31.66
633.844	31.47
634.034	31.29
634.225	31.44
634.415	31.37
634.605	31.36
634.795	31.32
634.985	31.67
635.175	31.71
635.365	31.97
635.555	31.88
635.745	31.85
635.935	31.82
636.125	32.19
636.315	32.23
636.505	32.43
636.695	32.29
636.885	32.38
637.075	32.2
637.265	32.3
637.455	32.04
637.644	31.99
637.834	32.17
638.024	32.1
638.214	32.17
638.404	32.38
638.593	32.36
638.783	32.76
638.973	33.21
639.163	33.19
639.352	33.12
639.542	33.24
639.732	33.58
639.921	33.72
640.111	33.93
640.301	33.95
640.49	33.49
640.68	33.55
640.87	33.42
641.059	32.98
641.249	33.14
641.438	33.25
641.628	33.35
641.817	33
642.007	32.63
642.196	32.43
642.386	32.42
642.575	32.71
642.764	32.65
642.954	32.63
643.143	33.1
643.333	33.42
643.522	33.36
643.711	33.56
643.901	33.64
644.09	34.12
644.279	34.64
644.469	34.54
644.658	34.52
644.847	34.83
645.036	34.97
645.226	34.5
645.415	33.87
645.604	34.04
645.793	34.23
645.982	34.34
646.171	33.92
646.361	33.89
646.55	34.13
646.739	34.34
646.928	34.26
647.117	34.42
647.306	34.51
647.495	34.9
647.684	35.01
647.873	35.27
648.062	35.45
648.251	35.51
648.44	35.35
648.629	35.23
648.818	35.19
649.007	34.93
649.196	34.8
649.384	35.21
649.573	35.19
649.762	35.04
649.951	34.58
650.14	34.57
650.328	35.05
650.517	35.08
650.706	35.43
650.895	35.71
651.083	36.49
651.272	36.13
651.461	36.01
651.65	36.27
651.838	36.01
652.027	36.08
652.216	35.81
652.404	35.91
652.593	36.37
652.781	36.05
652.97	36.2
653.158	35.66
653.347	36.23
653.535	35.99
653.724	35.13
653.912	35.68
654.101	35.71
654.289	35.77
654.478	35.27
654.666	35.02
654.855	34.95
655.043	34.22
655.231	34.01
655.42	34.04
655.608	34.13
655.796	34.69
655.985	34.55
656.173	34.49
656.361	34.62
656.55	34.58
656.738	34.48
656.926	34.89
657.114	35.58
657.302	36.08
657.491	35.78
657.679	35.61
657.867	35.84
658.055	35.71
658.243	35.74
658.431	35.89
658.619	36.15
658.807	36.21
658.996	36.19
659.184	35.94
659.372	35.88
659.56	35.74
659.748	35.86
659.936	36.03
660.124	36.37
660.311	36.48
660.499	36.5
660.687	36.58
660.875	36.75
661.063	36.62
661.251	36.58
661.439	36.36
661.627	36.84
661.814	36.98
662.002	36.62
662.19	36.51
662.378	36.6
662.565	36.71
662.753	36.47
662.941	36.45
663.129	36.97
663.316	37.29
663.504	37.41
663.692	37.54
663.879	37.87
664.067	38.06
664.254	37.85
664.442	37.51
664.63	37.5
664.817	37.61
665.005	37.54
665.192	37.39
665.38	37.34
665.567	37.49
665.755	37.44
665.942	37.28
666.13	37.61
666.317	37.93
666.504	38.5
666.692	38.84
666.879	39.01
667.067	38.73
667.254	38.48
667.441	38.37
667.629	38.08
667.816	37.86
668.003	37.73
668.19	37.42
668.378	37.26
668.565	36.83
668.752	36.49
668.939	36.36
669.127	36.49
669.314	36.54
669.501	36.7
669.688	36.93
669.875	37.09
670.062	37.2
670.249	37.44
670.436	37.72
670.623	37.93
670.81	38.15
670.997	38.14
671.184	38.31
671.371	38.69
671.558	38.4
671.745	38.7
671.932	38.58
672.119	38.55
672.306	38.63
672.493	38.59
672.68	38.65
672.867	39.12
673.054	39.34
673.24	39.21
673.427	38.81
673.614	39.26
673.801	39.58
673.988	40.13
674.174	40.17
674.361	39.84
674.548	39.52
674.734	39.45
674.921	38.73
675.108	39.06
675.294	38.81
675.481	39.07
675.668	39.6
675.854	39.04
676.041	38.57
676.227	38.56
676.414	38.51
676.601	39.23
676.787	39.37
676.974	39.64
677.16	39.53
677.347	40.09
677.533	39.76
677.719	39.46
677.906	38.86
678.092	39.08
678.279	38.88
678.465	39.05
678.651	38.71
678.838	38.72
679.024	38.58
679.21	38.36
679.397	38.39
679.583	38.7
679.769	38.52
679.955	38.93
680.142	39.06
680.328	39.61
680.514	39.7
680.7	39.3
680.886	39.38
681.073	39.55
681.259	39.47
681.445	39.66
681.631	39.64
681.817	39.65
682.003	39.9
682.189	39.5
682.375	39.13
682.561	39.03
682.747	39.89
682.933	39.88
683.119	39.95
683.305	40.3
683.491	39.96
683.677	39.93
683.863	40.02
684.049	40.2
684.235	40.29
684.42	40.12
684.606	40.27
684.792	40.02
684.978	39.8
685.164	39.58
685.349	39.51
685.535	39.47
685.721	39.06
685.907	38.63
686.092	38.46
686.278	38.65
686.464	38.64
686.649	39.41
686.835	39.21
687.021	39.65
687.206	39.89
687.392	39.81
687.577	40.13
687.763	40.26
687.948	40.62
688.134	40.58
688.319	41.31
688.505	41.83
688.69	41.4
688.876	41.41
689.061	41.38
689.247	41.25
689.432	41.56
689.618	41.23
689.803	41.66
689.988	41.78
690.174	42.03
690.359	41.77
690.544	41.31
690.73	41.21
690.915	40.9
691.1	40.92
691.285	41.13
691.471	40.92
691.656	41.27
691.841	41.02
692.026	41.16
692.211	41.77
692.396	41.91
692.582	42.1
692.767	42.19
692.952	42.44
693.137	42.16
693.322	42.2
693.507	42.37
693.692	42.38
693.877	42.46
694.062	42.47
694.247	41.33
694.432	41.56
694.617	42.34
694.802	42.17
694.987	42.82
695.172	43.58
695.357	43.7
695.541	44.25
695.726	44.51
695.911	44.56
696.096	44.15
696.281	44.95
696.466	44.58
696.65	44.25
696.835	44.62
697.02	44.09
697.204	43.33
697.389	42.87
697.574	42.23
697.759	42.15
697.943	42.1
698.128	41.99
698.312	41.34
698.497	41.07
698.682	40.97
698.866	40.54
699.051	40.74
699.235	40.98
699.42	41.12
699.604	41.04
699.789	40.94
699.973	40.99
700.158	41.43
700.342	41.87
700.527	42.13
700.711	42.39
700.895	42.56
701.08	42.3
701.264	42.45
701.448	42.82
701.633	43.06
701.817	42.84
702.001	42.96
702.186	42.6
702.37	42.79
702.554	42.53
702.738	42.63
702.923	42.33
703.107	43.19
703.291	42.97
703.475	42.65
703.659	42.83
703.843	42.69
704.027	42.73
704.212	43.03
704.396	42.81
704.58	42.69
704.764	42.43
704.948	42.19
705.132	41.08
705.316	41.42
705.5	41.37
705.684	41.72
705.868	42.23
706.052	42.04
706.235	42.17
706.419	42.57
706.603	43.09
706.787	43.26
706.971	44.67
707.155	45.03
707.339	44.8
707.522	45.08
707.706	44.63
707.89	44.46
708.074	44.23
708.257	44.08
708.441	43.87
708.625	44.03
708.808	43.69
708.992	43.07
709.176	42.87
709.359	42.99
709.543	43.24
709.727	43.72
709.91	44.07
710.094	44.54
710.277	44.67
710.461	44.43
710.644	43.78
710.828	43.99
711.011	43.98
711.195	44.48
711.378	44.64
711.562	44.28
711.745	43.62
711.928	43.12
712.112	42.97
712.295	43.14
712.478	43.5
712.662	44.28
712.845	44.09
713.028	44.19
713.212	44.18
713.395	43.97
713.578	44.68
713.761	44.71
713.945	44.93
714.128	45.31
714.311	44.93
714.494	44.81
714.677	44.58
714.86	44.54
715.043	44.01
715.227	44.22
715.41	44
715.593	43.54
715.776	43.9
715.959	44.22
716.142	44.14
716.325	44.31
716.508	44.45
716.691	44.41
716.874	44.46
717.057	45.24
717.239	44.68
717.422	44.82
717.605	44.94
717.788	44.78
717.971	44.97
718.154	44.92
718.337	45.24
718.519	45.67
718.702	45.92
718.885	45.75
719.068	45.54
719.25	46.73
719.433	47.42
719.616	47.44
719.798	47.12
719.981	47.34
720.164	47.52
720.346	47.52
720.529	47.4
720.712	47.56
720.894	47.85
721.077	47.54
721.259	46.9
721.442	47.2
721.624	47.5
721.807	47.82
721.989	47.37
722.172	47.76
722.354	47.72
722.537	47.1
722.719	46.09
722.901	46.02
723.084	46.62
723.266	46.06
723.448	45.44
723.631	44.89
723.813	45.3
723.995	45.35
724.178	44.82
724.36	44.37
724.542	44.74
724.724	45.91
724.907	46.79
725.089	46.54
725.271	47.84
725.453	47.77
725.635	48.42
725.817	48.62
725.999	48.53
726.181	48.97
726.364	48.97
726.546	48.81
726.728	48.03
726.91	47.29
727.092	47.77
727.274	47.24
727.456	47.36
727.638	46.79
727.819	46.05
728.001	45.92
728.183	45.42
728.365	45.01
728.547	45.19
728.729	45.57
728.911	45.85
729.093	45.73
729.274	44.95
729.456	44.96
729.638	45.44
729.82	45.82
730.001	46.06
730.183	46.77
730.365	47.67
730.546	47.24
730.728	46.58
730.91	46.6
731.091	46.61
731.273	47.16
731.455	47.3
731.636	47.58
731.818	48.03
731.999	47.82
732.181	47.45
732.362	47.29
732.544	48.38
732.725	48.15
732.907	48.35
733.088	48.47
733.27	48.86
733.451	48.81
733.633	48.55
733.814	48.27
733.995	48.92
734.177	48.98
734.358	48.72
734.539	47.73
734.721	47.83
734.902	47.23
735.083	47.13
735.264	47.56
735.446	47.57
735.627	46.91
735.808	46.31
735.989	45.99
736.17	46.34
736.351	46.9
736.533	46.96
736.714	46.65
736.895	47.5
737.076	47.86
737.257	47.34
737.438	47.22
737.619	48
737.8	48.64
737.981	48.91
738.162	49.15
738.343	49.47
738.524	48.9
738.705	50.71
738.886	50.32
739.067	49.81
739.247	49.18
739.428	50.09
739.609	49.65
739.79	50.19
739.971	48.87
740.151	48.36
740.332	48.03
740.513	47.62
740.694	47.49
740.874	47.9
741.055	48.37
741.236	48.66
741.417	47.89
741.597	47.39
741.778	46.03
741.958	46.41
742.139	46
742.32	46.23
742.5	47.53
742.681	47.49
742.861	46.77
743.042	46.37
743.222	45.52
743.403	44.47
743.583	44.81
743.764	45.45
743.944	46.16
744.124	46.63
744.305	46.04
744.485	46.62
744.666	45.81
744.846	46.28
745.026	46.83
745.207	46.65
745.387	47.38
745.567	48.19
745.747	48.26
745.928	47.29
746.108	47.27
746.288	47.94
746.468	47.86
746.648	47.88
746.829	47.81
747.009	47.72
747.189	48.6
747.369	49.44
747.549	48.33
747.729	49.58
747.909	49.91
748.089	50.2
748.269	49.59
748.449	48.92
748.629	48.97
748.809	49.2
748.989	49.67
749.169	50.06
749.349	48.87
749.529	50.15
749.709	48.61
749.889	49.46
750.068	48.85
750.248	49.71
750.428	49.93
750.608	50.78
750.788	50.1
750.967	49.37
751.147	48.76
751.327	49.49
751.507	48
751.686	48.82
751.866	49.18
752.046	49.56
752.225	49.88
752.405	51.07
752.585	50.75
752.764	50.88
752.944	50.68
753.123	51
753.303	52.01
753.482	53.49
753.662	53.35
753.841	51.63
754.021	51.65
754.2	50.97
754.38	50.28
754.559	49.18
754.739	48.99
754.918	49.65
755.097	50.07
755.277	49.07
755.456	49.41
755.635	49.19
755.815	50.28
755.994	49.95
756.173	49.13
756.352	48.63
756.532	48.56
756.711	48.71
756.89	47.38
757.069	47.8
757.248	48.15
757.427	47.45
757.607	47.22
757.786	47.55
757.965	46.88
758.144	48.06
758.323	49.34
758.502	50.25
758.681	50.59
758.86	51.42
759.039	50.54
759.218	50.52
759.397	50.02
759.576	50.4
759.755	49.42
759.934	49.96
760.113	50.37
760.291	49.16
760.47	49.49
760.649	49.74
760.828	49.52
761.007	49.48
761.186	49.14
761.364	49.18
761.543	48.47
761.722	48.56
761.901	48.88
762.079	48.86
762.258	49.15
762.437	49.6
762.615	48.8
762.794	48.5
762.972	48.3
763.151	47.88
763.33	47.97
763.508	48.2
763.687	48.21
763.865	48.27
764.044	47.46
764.222	46.85
764.401	46.18
764.579	46.3
764.758	46.36
764.936	46.79
765.114	46.93
765.293	47.1
765.471	47.14
765.65	47.51
765.828	47.98
766.006	48.34
766.184	48.46
766.363	48.61
766.541	48.67
766.719	49.67
766.898	49.67
767.076	49.76
767.254	49.51
767.432	50.25
767.61	50.06
767.788	49.37
767.967	48.81
768.145	50.11
768.323	48.94
768.501	49.38
768.679	49.09
768.857	48.67
769.035	49.09
769.213	49.68
769.391	49.75
769.569	50.26
769.747	51.37
769.925	51.31
770.103	50.07
770.281	51.84
770.459	52.37
770.636	52
770.814	53.33
770.992	53.25
771.17	53.65
771.348	53.65
771.525	53.75
771.703	52.83
771.881	53.83
772.059	54
772.236	53.55
772.414	53.17
772.592	53.29
772.769	53.47
772.947	52.51
773.125	51.69
773.302	51.23
773.48	51.7
773.657	51.87
773.835	50.18
774.013	51.78
774.19	53.11
774.368	51.19
774.545	51.29
774.723	51.25
774.9	51.19
775.077	51.22
775.255	51.5
775.432	52.11
775.61	52.25
775.787	53.73
775.964	52.02
776.142	51.8
776.319	53.95
776.496	53.42
776.674	52.17
776.851	54.15
777.028	54.3
777.205	54.42
777.382	52.43
777.56	52.18
777.737	55.02
777.914	53.93
778.091	53.88
778.268	53.98
778.445	55.18
778.622	56.11
778.8	55.39
778.977	55.81
779.154	62.58
779.331	63.24
779.508	62.2
779.685	60.59
779.862	61.69
780.038	61.47
780.215	60.97
780.392	60.48
780.569	59.29
780.746	60.23
780.923	59.71
781.1	53.32
781.277	53.56
781.453	53.74
781.63	52.07
781.807	52.16
781.984	53.07
782.16	53.56
782.337	54.34
782.514	54.86
782.691	57.84
782.867	57.43
783.044	57.23
783.221	58.14
783.397	60.59
783.574	60.76
783.75	62.58
783.927	62.09
784.103	62.79
784.28	62.23
784.456	62
784.633	59.1
784.809	60.16
784.986	58.08
785.162	55.92
785.339	52.41
785.515	52.38
785.692	51.67
785.868	50.11
786.044	50.52
786.221	50.11
786.397	51.57
786.573	52.5
786.749	52.79
786.926	55.53
787.102	56.01
787.278	58.68
787.454	59.31
787.631	61.2
787.807	61.59
787.983	60.65
788.159	61.24
788.335	60.57
788.511	57.89
788.687	58.95
788.863	58.97
789.039	59.93
789.216	58.82
789.392	58.82
789.568	57.41
789.744	57.66
789.919	55.53
790.095	55.41
790.271	55.42
790.447	56.14
790.623	54.71
790.799	54.49
790.975	52.8
791.151	54.1
791.327	54.58
791.502	54.45
791.678	53.46
791.854	55.59
792.03	56.57
792.205	59.23
792.381	60.35
792.557	59.17
792.733	58.76
792.908	62.39
793.084	60.8
793.259	60.2
793.435	59.58
793.611	60.32
793.786	60.42
793.962	59.25
794.137	55.87
794.313	54.8
794.488	54.96
794.664	56.47
794.839	54.1
795.015	55.09
795.19	55.14
795.366	54.67
795.541	54.5
795.716	53.71
795.892	54.46
796.067	53.83
796.242	54.94
796.418	56.21
796.593	55.72
796.768	55.9
796.944	56.78
797.119	56.03
797.294	58.08
797.469	58.74
797.644	59.69
797.82	58.84
797.995	58.43
798.17	56.95
798.345	57.3
798.52	55.38
798.695	57.33
798.87	55.5
799.045	55.47
799.22	55.32
799.395	54.86
799.57	54.76
799.745	54.62
799.92	56.01
800.095	56.35
800.27	56.38
800.445	55.29
800.62	53.77
800.795	54.88
800.97	57.02
801.145	53.39
801.319	54.44
801.494	56.03
801.669	58.45
801.844	59.08
802.018	60.39
802.193	60.42
802.368	63.17
802.543	62.99
802.717	63.52
802.892	62.95
803.067	66.2
803.241	65.85
803.416	64.95
803.59	63.67
803.765	62.76
803.94	63.37
804.114	61.41
804.289	61.54
804.463	60.97
804.638	58.06
804.812	60.02
804.986	59.04
805.161	59.18
805.335	59.19
805.51	59
805.684	57.87
805.858	56.78
806.033	55.38
806.207	54.46
806.381	55.09
806.556	56
806.73	53.86
806.904	54.15
807.078	53.07
807.253	53.62
807.427	52.32
807.601	52.4
807.775	51.55
807.949	54.93
808.123	57.37
808.298	57.47
808.472	60.45
808.646	59.74
808.82	58.23
808.994	59.51
809.168	59.01
809.342	59.7
809.516	62.81
809.69	63.36
809.864	62.94
810.038	63.96
810.212	63.15
810.385	60.77
810.559	62.35
810.733	65.76
810.907	65.33
811.081	63.96
811.255	62.9
811.428	61.99
811.602	61.55
811.776	64.38
811.95	63.83
812.123	65.1
812.297	67.29
812.471	64.71
812.644	62.06
812.818	64.08
812.992	62.7
813.165	66.26
813.339	64.52
813.512	64.44
813.686	61.9
813.86	60.59
814.033	60.63
814.207	58.29
814.38	60.52
814.554	61.43
814.727	59.25
814.9	62.35
815.074	60.71
815.247	62.59
815.421	62.57
815.594	64.58
815.767	61.38
815.941	64.48
816.114	64.23
816.287	66.06
816.46	64.24
816.634	64.25
816.807	66.79
816.98	64.78
817.153	66.66
817.327	67.35
817.5	67.4
817.673	69.14
817.846	65.45
818.019	67.21
818.192	64.87
818.365	64.3
818.538	63.71
818.711	58.8
818.884	60.64
819.057	59.22
819.23	60.77
819.403	58
819.576	57.48
819.749	58.93
819.922	57.75
820.095	58.1
820.268	59.3
820.441	60.25
820.614	59.77
820.786	58.4
820.959	57.26
821.132	56.23
821.305	54.62
821.477	52.6
821.65	52.05
821.823	51.71
821.996	50.37
822.168	49.68
822.341	48.77
822.514	48.81
822.686	48.45
822.859	48.29
823.031	47.44
823.204	47.83
823.376	48.34
823.549	47.84
823.722	47.75
823.894	48.36
824.067	48.44
824.239	48.91
824.411	49.41
824.584	50.02
824.756	50.05
824.929	50.93
825.101	51.48
825.273	51.86
825.446	52.28
825.618	52.58
825.79	52.92
825.963	53.49
826.135	53.32
826.307	52.86
826.479	52.58
826.652	52.43
826.824	51.97
826.996	50.93
827.168	50.49
827.34	50.4
827.512	50.13
827.684	49.29
827.856	48.75
828.029	48.87
828.201	48.92
828.373	49.25
828.545	49.77
828.717	50.15
828.889	50.01
829.061	51.14
829.232	52.53
829.404	52.19
829.576	53.54
829.748	54.47
829.92	55.12
830.092	56.29
830.264	56.48
830.436	56.5
830.607	56.46
830.779	58.06
830.951	57.28
831.123	54.61
831.294	54.52
831.466	54.11
831.638	52.28
831.809	52.16
831.981	51.59
832.153	51.98
832.324	52.71
832.496	54.33
832.667	55.24
832.839	56.87
833.011	57.7
833.182	57.8
833.354	57.52
833.525	61.07
833.697	60.18
833.868	57.48
834.039	56.98
834.211	57.54
834.382	56.46
834.554	57.86
834.725	56.59
834.896	56.76
835.068	58.19
835.239	57.26
835.41	55.51
835.581	56.56
835.753	58.47
835.924	58.18
836.095	56.81
836.266	56.79
836.438	53.46
836.609	54.11
836.78	55.87
836.951	57.53
837.122	58.52
837.293	60.15
837.464	59.05
837.635	60.69
837.806	62
837.977	63.98
838.148	66.73
838.319	69.77
838.49	70.33
838.661	71.81
838.832	72.57
839.003	73.14
839.174	73.15
839.345	76.15
839.516	79.27
839.687	82.53
839.857	85.15
840.028	82.39
840.199	82.28
840.37	84.08
840.54	84.1
840.711	77.99
840.882	77.58
841.053	74.22
841.223	71.96
841.394	68.84
841.564	67.41
841.735	64.35
841.906	65.27
842.076	61.03
842.247	62.74
842.417	60.35
842.588	64.96
842.758	64.18
842.929	66.71
843.099	69.88
843.27	72.08
843.44	69.68
843.611	72.16
843.781	67.11
843.951	73.12
844.122	75.24
844.292	77.52
844.462	76.8
844.633	80.25
844.803	84.09
844.973	84.12
845.144	84.73
845.314	90.46
845.484	89.84
845.654	100.91
845.824	101.51
845.995	95.84
846.165	91.81
846.335	95.16
846.505	96.51
846.675	95.94
846.845	94.82
847.015	93.76
847.185	87.64
847.355	84.23
847.525	81.86
847.695	87.4
847.865	83.97
848.035	85.63
848.205	75.03
848.375	80.49
848.545	68.96
848.715	71.06
848.884	72.04
849.054	80.04
849.224	84.69
849.394	84.83
849.564	77.75
849.733	81.77
849.903	77.55
850.073	88.64
850.243	86.22
850.412	90.38
850.582	89.85
850.752	92.66
850.921	87.82
851.091	90.15
851.26	93.85
851.43	91.67
851.599	90.86
851.769	100.58
851.939	97.07
852.108	100.18
852.278	106.19
852.447	103.99
852.616	99.97
852.786	99.13
852.955	96.79
853.125	103.74
853.294	111.47
853.463	107.87
853.633	104.84
853.802	107.7
853.971	107.64
854.141	107.64
854.31	102.68
854.479	95.64
854.648	98.3
854.818	93.03
854.987	84.99
855.156	83.86
855.325	87.98
855.494	85.81
855.663	87.46
855.832	77.96
856.001	83.37
856.171	94.51
856.34	103.19
856.509	108.73
856.678	118.67
856.847	124.72
857.016	121.49
857.185	107.77
857.353	119.07
857.522	114.29
857.691	123.72
857.86	122.02
858.029	101.94
858.198	111.44
858.367	111.39
858.535	115.3
858.704	110.99
858.873	110.48
859.042	132.89
859.21	123.81
859.379	124.37
859.548	113.15
859.717	112.89
859.885	117.89
860.054	105.45
860.222	91.8
860.391	92.49
860.56	84.57
860.728	83.95
860.897	72.56
861.065	69.16
861.234	77
861.402	84.3
861.571	78.57
861.739	84.74
861.908	86.01
862.076	97.52
862.244	97.82
862.413	94.76
862.581	102.67
862.749	103.88
862.918	96.97
863.086	88.36
863.254	87.8
863.423	95.27
863.591	109.23
863.759	115.05
863.927	113.38
864.096	105.86
864.264	113.46
864.432	98.82
864.6	94.53
864.768	96.82
864.936	102.06
865.104	95.56
865.272	97.18
865.44	88.25
865.608	83.12
865.776	87.38
865.944	91.11
866.112	85.02
866.28	91.84
866.448	98.56
866.616	103.14
866.784	98.81
866.952	101.54
867.12	94.14
867.288	101.7
867.455	95.18
867.623	102.05
867.791	90.08
867.959	93.2
868.127	93.66
868.294	92.33
868.462	88.06
868.63	89.45
868.797	93.25
868.965	98.19
869.133	88.29
869.3	97.74
869.468	87.28
869.636	86.94
869.803	95.31
869.971	96.9
870.138	97.88
870.306	97.69
870.473	98.06
870.641	93.81
870.808	88.42
870.975	93.81
871.143	95.89
871.31	99.22
871.478	115.66
871.645	104.55
871.812	102.14
871.98	99.44
872.147	102.11
872.314	102.37
872.482	103.9
872.649	113.31
872.816	107.9
872.983	102.08
873.15	97.62
873.318	93.65
873.485	103.99
873.652	101.44
873.819	108.22
873.986	116.81
874.153	116.21
874.32	110.28
874.487	112.04
874.654	115.12
874.821	121.56
874.988	114.58
875.155	115.06
875.322	108.3
875.489	117.62
875.656	103.98
875.823	86.01
875.99	80.89
876.157	85.4
876.324	85.31
876.49	76.03
876.657	72.46
876.824	80.4
876.991	83.51
877.157	82.78
877.324	85.07
877.491	98.09
877.658	117.36
877.824	118.72
877.991	116.27
878.157	116.69
878.324	115.57
878.491	119.59
878.657	124.61
878.824	120.09
878.99	113.96
879.157	121.32
879.323	110.14
879.49	97.79
879.656	102.37
879.823	100.15
879.989	94.12
880.156	95.23
880.322	95.91
880.488	91.55
880.655	90.24
880.821	94.34
880.987	87.32
881.154	86.1
881.32	90.26
881.486	81.26
881.652	78.53
881.819	78.93
881.985	79.05
882.151	76.42
882.317	73.44
882.483	70.18
882.649	68.73
882.816	67.51
882.982	63.45
883.148	59.54
883.314	57.32
883.48	60.24
883.646	59.02
883.812	57.14
883.978	56.59
884.144	57.68
884.31	55.16
884.476	55.39
884.642	55.35
884.807	56.62
884.973	58.61
885.139	60.28
885.305	59.76
885.471	59.47
885.637	60.45
885.802	60.41
885.968	60.54
886.134	64.65
886.3	66.14
886.465	65.89
886.631	68.95
886.797	68.99
886.962	67.94
887.128	67.82
887.293	72.8
887.459	76.15
887.625	78.45
887.79	80.19
887.956	76.75
888.121	76.98
888.287	76.28
888.452	75.55
888.618	77.92
888.783	93.04
