Data from LC_194_Reflection_1.txt Node
Date: Tue Nov 17 13:43:29 EST 2015
User: robert
Spectrometer: USB4E03001
Autoset integration time: false
Trigger mode: 4
Integration Time (sec): 1.000000E-1
Scans to average: 15
Electric dark correction enabled: true
Nonlinearity correction enabled: false
Boxcar width: 5
Stray light correction enabled: false
XAxis mode: Wavelengths
Stop averaging: false
Number of Pixels in Spectrum: 3648
>>>>>Begin Spectral Data<<<<<
177.566	209
177.785	289.29
178.005	-1280.97
178.225	461.03
178.445	-619.76
178.665	-229.07
178.885	-107.67
179.105	-364.37
179.324	750.67
179.544	990.8
179.764	275.18
179.984	121.16
180.204	201.35
180.423	412.45
180.643	680.44
180.863	-2387.74
181.083	-3683.67
181.302	731.35
181.522	381.91
181.742	1297.7
181.961	15902.94
182.181	-1030.55
182.401	-248.11
182.621	-551.36
182.84	-663.27
183.06	-1871.25
183.279	2536.91
183.499	-15652.1
183.719	-1731.64
183.938	-514.47
184.158	-728.93
184.377	-963.69
184.597	-841.9
184.816	820.08
185.036	792.44
185.256	830.82
185.475	506.39
185.695	690.94
185.914	450.48
186.134	454.01
186.353	288.58
186.572	357.65
186.792	285.68
187.011	286.71
187.231	902.22
187.45	3562.18
187.67	672.8
187.889	836.84
188.108	547.15
188.328	588.52
188.547	599.01
188.766	-2880.56
188.986	2207.34
189.205	624.72
189.424	728.52
189.644	525.1
189.863	340.84
190.082	354.64
190.302	376.76
190.521	502.91
190.74	10051.95
190.959	1410.27
191.178	388.74
191.398	411.07
191.617	1301.44
191.836	806.64
192.055	550.54
192.274	-1684.72
192.494	-872.53
192.713	-2780.15
192.932	-1329.94
193.151	2419.12
193.37	36126.98
193.589	-1269950
193.808	30889.89
194.027	-4306.17
194.246	-2078.76
194.465	8513.81
194.685	917.3
194.904	699.66
195.123	110216.67
195.342	2572.16
195.561	765.26
195.78	601.55
195.999	683.16
196.218	445.57
196.436	351.98
196.655	242.5
196.874	288
197.093	293.18
197.312	244.18
197.531	211.61
197.75	202.47
197.969	222.2
198.188	233.94
198.407	224.98
198.625	246.44
198.844	242.23
199.063	220.52
199.282	242.76
199.501	234.4
199.719	348.27
199.938	332.29
200.157	404.3
200.376	1266.39
200.594	594.8
200.813	389.14
201.032	611.03
201.251	557.12
201.469	8125.08
201.688	2593.61
201.907	-11737.29
202.125	3693.66
202.344	3231.33
202.563	2791.14
202.781	1949.77
203	-2312.61
203.218	-510.6
203.437	-671.25
203.656	-512.29
203.874	-1216.72
204.093	-1518.43
204.311	-1420.38
204.53	26851.32
204.748	-1258.01
204.967	4880.79
205.185	860.27
205.404	425.11
205.622	400.09
205.841	329.32
206.059	385.26
206.278	262.16
206.496	266.12
206.715	246.85
206.933	294.24
207.151	276.15
207.37	278.21
207.588	339.69
207.806	448.23
208.025	365.51
208.243	355.89
208.461	354.7
208.68	643.23
208.898	-1005.63
209.116	-1755.78
209.335	3338.22
209.553	-2083.46
209.771	909.15
209.989	316.77
210.208	376.86
210.426	412.18
210.644	388.67
210.862	324.05
211.081	235.31
211.299	163.73
211.517	209.39
211.735	227.73
211.953	221.19
212.171	260.09
212.39	722.78
212.608	716.47
212.826	921.2
213.044	891.96
213.262	794.34
213.48	-32476.12
213.698	-1609.48
213.916	701.36
214.134	-1297.75
214.352	-335.98
214.57	-342.42
214.788	3601
215.006	1173.38
215.224	1159.1
215.442	843.29
215.66	966.61
215.878	650.12
216.096	324.73
216.314	369.19
216.532	223.16
216.75	185.28
216.968	217.24
217.185	222.39
217.403	251.54
217.621	233.52
217.839	253.75
218.057	283.9
218.275	276
218.492	300.52
218.71	308.49
218.928	361.46
219.146	391.9
219.363	420.66
219.581	327.12
219.799	324.2
220.017	354.07
220.234	350.68
220.452	252.02
220.67	237.13
220.887	258.83
221.105	264.57
221.323	246.02
221.54	218.61
221.758	174.8
221.976	177.36
222.193	146.15
222.411	139.8
222.629	166.36
222.846	187.99
223.064	186.64
223.281	191.28
223.499	189.17
223.716	196.88
223.934	221.12
224.151	233.73
224.369	222.21
224.586	249.09
224.804	219.97
225.021	193.47
225.239	171.48
225.456	163.19
225.674	138.12
225.891	129.73
226.108	134.18
226.326	121.24
226.543	114.46
226.76	111.26
226.978	100.45
227.195	97.98
227.413	88.48
227.63	82.95
227.847	81.87
228.064	79.1
228.282	72.45
228.499	68.99
228.716	63.08
228.934	60.55
229.151	57.19
229.368	53.33
229.585	49.9
229.802	50.65
230.02	51.05
230.237	50.65
230.454	50.15
230.671	54.34
230.888	54.97
231.105	56.1
231.323	56.04
231.54	58.98
231.757	65.79
231.974	71.29
232.191	70.89
232.408	76.96
232.625	75.22
232.842	75.4
233.059	67.93
233.276	67.44
233.493	69.04
233.71	67.82
233.927	66.12
234.144	64.33
234.361	62.11
234.578	61.94
234.795	49.89
235.012	51.07
235.229	48.89
235.446	50.79
235.663	49.37
235.879	52.66
236.096	55.33
236.313	54.51
236.53	51.55
236.747	53.03
236.964	48.72
237.181	61.76
237.397	61.15
237.614	65.57
237.831	71.65
238.048	73.11
238.264	74.95
238.481	70.48
238.698	65.16
238.915	66.26
239.131	64.99
239.348	67.28
239.565	58.41
239.781	61.14
239.998	59.77
240.215	54.75
240.431	50.47
240.648	43.77
240.865	42.51
241.081	42.65
241.298	38.63
241.514	35.39
241.731	34.1
241.947	32.74
242.164	28.74
242.38	26.3
242.597	25.62
242.814	26.29
243.03	26.89
243.246	27.53
243.463	28.3
243.679	30.13
243.896	32.08
244.112	30.6
244.329	32.88
244.545	34.39
244.762	35.01
244.978	34.61
245.194	34.34
245.411	34.29
245.627	33.96
245.843	31.28
246.06	26.82
246.276	23.54
246.492	20.93
246.709	19.19
246.925	19.23
247.141	20.19
247.357	20.26
247.574	19.99
247.79	19.75
248.006	19.15
248.222	19.66
248.439	20.35
248.655	20.01
248.871	21.6
249.087	22.7
249.303	23.18
249.519	23.26
249.736	25.03
249.952	24.4
250.168	28.2
250.384	29.09
250.6	29.89
250.816	31.05
251.032	34.68
251.248	34.95
251.464	34.95
251.68	32.42
251.896	30.31
252.112	28.2
252.328	30.04
252.544	27.27
252.76	27.39
252.976	27.18
253.192	26.25
253.408	27.49
253.624	27.29
253.84	26.73
254.056	28.78
254.272	29.1
254.487	31.46
254.703	30.59
254.919	30.84
255.135	31.5
255.351	31.47
255.567	31.76
255.782	26.85
255.998	27.35
256.214	28.12
256.43	27.41
256.646	31.48
256.861	30.07
257.077	30.37
257.293	31.13
257.508	31.43
257.724	29.95
257.94	29.2
258.155	30.19
258.371	29.95
258.587	27.01
258.802	24.82
259.018	22.53
259.234	21.73
259.449	21.05
259.665	18.68
259.88	17.79
260.096	17.89
260.312	17.59
260.527	16.37
260.743	16.67
260.958	17.45
261.174	18.51
261.389	17.85
261.605	17.75
261.82	17.31
262.036	18.82
262.251	19.05
262.466	18.93
262.682	20.69
262.897	22.16
263.113	20.52
263.328	20.95
263.543	21.12
263.759	24.9
263.974	26.45
264.189	26.48
264.405	27.77
264.62	28.6
264.835	29.09
265.051	29.69
265.266	30.63
265.481	32.71
265.696	32.8
265.912	32.31
266.127	29.33
266.342	27.65
266.557	25.83
266.773	24.26
266.988	24.15
267.203	23.42
267.418	22.81
267.633	22.35
267.848	21.07
268.064	18.99
268.279	17.38
268.494	16.99
268.709	17.02
268.924	19.72
269.139	19.9
269.354	20.17
269.569	21.39
269.784	20.28
269.999	20.19
270.214	19.44
270.429	20.52
270.644	21.17
270.859	21.56
271.074	21.09
271.289	20.5
271.504	19.27
271.719	18.49
271.934	17.26
272.149	17.3
272.363	18.59
272.578	19.09
272.793	17.9
273.008	18.45
273.223	17.83
273.438	17.64
273.653	18.05
273.867	19.18
274.082	19.95
274.297	19.57
274.512	21.05
274.726	20.16
274.941	18.95
275.156	20.86
275.371	19.4
275.585	21.89
275.8	22.41
276.015	21.81
276.229	20.55
276.444	20.12
276.659	21.57
276.873	19.77
277.088	19.52
277.302	20.95
277.517	19.89
277.732	19.92
277.946	18.27
278.161	19.02
278.375	18.48
278.59	20.65
278.804	18.47
279.019	18.86
279.233	18.63
279.448	18.11
279.662	18.61
279.877	18.63
280.091	18.65
280.306	19.39
280.52	19.43
280.735	20.1
280.949	17.79
281.163	19.61
281.378	18.48
281.592	19.44
281.806	18.8
282.021	18.23
282.235	18.58
282.449	19.78
282.664	18.98
282.878	19.29
283.092	18.79
283.307	19.92
283.521	19.72
283.735	18.85
283.949	19.04
284.164	19.1
284.378	18.42
284.592	17.41
284.806	16.99
285.02	16.6
285.234	14.94
285.449	15.51
285.663	15.21
285.877	14.78
286.091	15.35
286.305	14.69
286.519	15.7
286.733	16.68
286.947	17.29
287.161	17.12
287.375	16.9
287.589	18.06
287.803	17.75
288.017	17.93
288.231	18.56
288.445	18.99
288.659	19.42
288.873	17.61
289.087	17.97
289.301	17.47
289.515	17.82
289.729	19.1
289.943	19.7
290.157	20.09
290.371	20.72
290.584	21.01
290.798	20.78
291.012	21.36
291.226	23.01
291.44	22.05
291.654	22.95
291.867	22.64
292.081	21.77
292.295	22
292.509	21.78
292.722	21.31
292.936	21.4
293.15	21.57
293.364	20.86
293.577	20.6
293.791	19.1
294.005	19.42
294.218	20.49
294.432	20.25
294.645	19.07
294.859	18.22
295.073	17.39
295.286	16.5
295.5	16.15
295.713	16.06
295.927	15
296.14	16.04
296.354	15.81
296.568	14.63
296.781	14.72
296.994	14.47
297.208	14.66
297.421	14.69
297.635	14.85
297.848	14.4
298.062	14.41
298.275	14.62
298.489	14.63
298.702	14.47
298.915	14.89
299.129	15.16
299.342	15.84
299.555	14.94
299.769	15.53
299.982	16.17
300.195	16.48
300.409	16.53
300.622	16.47
300.835	16.79
301.048	16.82
301.262	16.54
301.475	16.16
301.688	16.46
301.901	17.84
302.115	19.16
302.328	19.04
302.541	18.76
302.754	18.58
302.967	19.1
303.18	18.84
303.393	18.35
303.607	18.55
303.82	19.15
304.033	17.77
304.246	17.5
304.459	16.86
304.672	17.08
304.885	18.05
305.098	18.14
305.311	19.12
305.524	18.72
305.737	18.83
305.95	19.91
306.163	18.09
306.376	17.88
306.589	18.22
306.802	17.3
307.015	17.1
307.228	17.85
307.44	18.16
307.653	16.72
307.866	17.89
308.079	17.9
308.292	16.4
308.505	17.28
308.718	18.28
308.93	18.25
309.143	18.96
309.356	18.83
309.569	17.55
309.781	17.25
309.994	16.3
310.207	15.5
310.42	15.45
310.632	14.97
310.845	14.74
311.058	14.38
311.27	13.34
311.483	12.56
311.696	11.92
311.908	12
312.121	11.97
312.333	13.03
312.546	13.17
312.759	12.88
312.971	14.1
313.184	15.34
313.396	15.45
313.609	16.8
313.821	18.33
314.034	19.49
314.246	19.75
314.459	19.67
314.671	20.3
314.884	20.39
315.096	21.37
315.309	20.54
315.521	19.67
315.733	20.06
315.946	20.3
316.158	19.69
316.371	18.86
316.583	19.37
316.795	20.55
317.008	20.27
317.22	20.5
317.432	21.2
317.644	21.46
317.857	21.97
318.069	22.33
318.281	21.48
318.494	20.12
318.706	19.93
318.918	19.73
319.13	20.19
319.342	20.23
319.555	18.15
319.767	18.14
319.979	18.37
320.191	18.66
320.403	19.16
320.615	19.71
320.827	20.41
321.039	21.41
321.252	21.77
321.464	20.84
321.676	20.85
321.888	22.47
322.1	21.85
322.312	21.69
322.524	21.51
322.736	20.59
322.948	20.53
323.16	19.93
323.372	18.46
323.584	18.5
323.796	19.38
324.007	18.5
324.219	18.83
324.431	19.17
324.643	19.44
324.855	19.61
325.067	19.66
325.279	19.34
325.491	20.09
325.702	21.18
325.914	20.24
326.126	19.45
326.338	21.44
326.55	20.26
326.761	19.37
326.973	19.52
327.185	19.21
327.396	19.42
327.608	19.24
327.82	18.22
328.032	17.63
328.243	18.25
328.455	18.26
328.666	17.11
328.878	18.31
329.09	19.69
329.301	20.09
329.513	20.3
329.725	20.79
329.936	21.04
330.148	23.31
330.359	24.03
330.571	24.48
330.782	24.11
330.994	23.32
331.205	22.05
331.417	20.57
331.628	19.15
331.84	19.5
332.051	18.86
332.262	18.99
332.474	17.64
332.685	17.46
332.897	16.5
333.108	16.87
333.319	17.01
333.531	18.01
333.742	18.09
333.953	17.72
334.165	17.18
334.376	17.17
334.587	16.61
334.799	16
335.01	16.65
335.221	16.41
335.432	16.12
335.644	16.23
335.855	16.12
336.066	16.85
336.277	17.93
336.488	17.78
336.7	17.89
336.911	18.5
337.122	18.43
337.333	17.63
337.544	18.61
337.755	18.55
337.966	18.2
338.177	18.45
338.388	17.06
338.599	17.22
338.811	17.42
339.022	16.93
339.233	15.45
339.444	15.63
339.655	16.55
339.866	16.19
340.076	15.68
340.287	16.14
340.498	15.52
340.709	16.6
340.92	15.42
341.131	15.17
341.342	15
341.553	16.48
341.764	16.8
341.975	16.68
342.185	16.92
342.396	16.8
342.607	17.08
342.818	18.27
343.029	18.16
343.239	18.57
343.45	18.28
343.661	18.3
343.872	17.87
344.082	17.96
344.293	17.66
344.504	19.16
344.714	19.36
344.925	19.07
345.136	18.24
345.346	18.01
345.557	17.98
345.768	18.79
345.978	19.41
346.189	20.6
346.399	21.57
346.61	21.69
346.821	20.08
347.031	21.26
347.242	20.69
347.452	21.06
347.663	20.84
347.873	21.84
348.084	21.1
348.294	21.19
348.504	20.27
348.715	19.97
348.925	19.64
349.136	19.16
349.346	18.42
349.557	18.73
349.767	18.65
349.977	18.45
350.188	17.9
350.398	18.56
350.608	17.78
350.819	16.92
351.029	15.74
351.239	16.17
351.449	16.34
351.66	16.83
351.87	17.51
352.08	16.87
352.29	17.91
352.501	17.84
352.711	18.34
352.921	19.47
353.131	20.36
353.341	21.03
353.552	19.83
353.762	20.84
353.972	19.85
354.182	21.1
354.392	21.44
354.602	21.69
354.812	21.21
355.022	20.63
355.232	19.59
355.442	18.96
355.652	18.48
355.862	18.99
356.072	18.11
356.282	18.08
356.492	16.27
356.702	16.31
356.912	16.03
357.122	16.66
357.332	16.36
357.542	16.16
357.752	16.83
357.962	16.94
358.171	16.81
358.381	17
358.591	16.67
358.801	16.8
359.011	16.68
359.221	16.61
359.43	16.21
359.64	15.57
359.85	15.51
360.06	14.84
360.269	14.84
360.479	14.39
360.689	14.05
360.899	14.53
361.108	14.09
361.318	13.76
361.528	13.36
361.737	13.3
361.947	13.78
362.156	13.88
362.366	13.68
362.576	13.49
362.785	14.07
362.995	14.04
363.204	13.98
363.414	14.34
363.623	14.39
363.833	14.85
364.042	14.65
364.252	14.02
364.461	14.03
364.671	14.65
364.88	14.25
365.09	14.45
365.299	14.83
365.509	14.68
365.718	14.94
365.927	15.04
366.137	14.77
366.346	15.2
366.555	15.82
366.765	15.69
366.974	14.78
367.183	15.54
367.393	14.98
367.602	14.54
367.811	14.2
368.021	14.11
368.23	14.51
368.439	14.63
368.648	13.99
368.857	13.95
369.067	14.3
369.276	14.85
369.485	15.34
369.694	15.15
369.903	15.92
370.112	16.08
370.321	15.99
370.531	15.36
370.74	14.94
370.949	14.5
371.158	15.07
371.367	14.89
371.576	15.01
371.785	14.08
371.994	14.4
372.203	13.67
372.412	14.12
372.621	13.9
372.83	14.46
373.039	14.7
373.248	15.39
373.457	14.81
373.666	14.26
373.874	13.7
374.083	13.78
374.292	13.28
374.501	13.4
374.71	13.1
374.919	13.03
375.128	12.3
375.336	12.42
375.545	12.69
375.754	12.14
375.963	12.09
376.171	12.54
376.38	12.82
376.589	13.16
376.798	12.89
377.006	12.67
377.215	13.02
377.424	13.16
377.632	12.43
377.841	12.19
378.05	12.5
378.258	12.56
378.467	12.12
378.675	11.44
378.884	11.66
379.093	11.94
379.301	12.16
379.51	11.82
379.718	11.75
379.927	12.09
380.135	11.82
380.344	12.05
380.552	12.33
380.761	12.65
380.969	13.2
381.177	12.56
381.386	12.45
381.594	12.47
381.803	12.15
382.011	12.4
382.219	12.36
382.428	12.64
382.636	12.49
382.845	12.07
383.053	12.08
383.261	12.13
383.469	12.55
383.678	12.65
383.886	12.37
384.094	12.29
384.302	11.96
384.511	12.26
384.719	11.97
384.927	11.95
385.135	12.73
385.343	12.75
385.552	12.49
385.76	12.25
385.968	12.08
386.176	12.18
386.384	12.46
386.592	12.53
386.8	12.3
387.008	12.15
387.216	12.02
387.424	11.72
387.633	11.45
387.841	11.13
388.049	11.33
388.257	11.41
388.465	11.39
388.672	11.57
388.88	11.85
389.088	11.95
389.296	12.11
389.504	12.36
389.712	12.37
389.92	12.3
390.128	12.3
390.336	11.91
390.544	11.66
390.751	11.57
390.959	11.32
391.167	11.02
391.375	10.76
391.583	10.52
391.79	10.25
391.998	10.25
392.206	10.4
392.414	10.31
392.621	10.49
392.829	10.52
393.037	10.34
393.244	10.37
393.452	10.29
393.66	10.22
393.867	10.42
394.075	10.48
394.283	10.32
394.49	10.22
394.698	10.41
394.905	10.36
395.113	10.41
395.32	10.4
395.528	10.61
395.735	11.04
395.943	10.94
396.15	10.82
396.358	10.64
396.565	10.52
396.773	10.3
396.98	10.52
397.188	10.66
397.395	10.56
397.602	10.84
397.81	10.71
398.017	10.58
398.225	10.9
398.432	11.09
398.639	11.4
398.847	12.03
399.054	12.14
399.261	11.77
399.468	11.53
399.676	11.48
399.883	11.53
400.09	11.31
400.297	11.47
400.505	11.43
400.712	11.52
400.919	11.64
401.126	11.22
401.333	11.3
401.54	11.52
401.748	11.62
401.955	11.78
402.162	11.53
402.369	11.38
402.576	10.94
402.783	10.49
402.99	10.44
403.197	10.22
403.404	10.11
403.611	10
403.818	9.9
404.025	9.73
404.232	9.54
404.439	9.44
404.646	9.44
404.853	9.53
405.06	9.9
405.267	9.74
405.474	9.44
405.681	9.17
405.887	9.42
406.094	9.55
406.301	9.8
406.508	9.65
406.715	9.89
406.922	10.14
407.128	10.3
407.335	9.88
407.542	9.98
407.749	10.27
407.955	10.67
408.162	10.43
408.369	10.43
408.575	10.31
408.782	10.43
408.989	10.13
409.195	10.05
409.402	10
409.609	10.09
409.815	9.82
410.022	9.56
410.228	9.24
410.435	9.46
410.642	9.19
410.848	9.2
411.055	9.22
411.261	9.21
411.468	9.36
411.674	9.1
411.881	9.3
412.087	9.72
412.294	9.91
412.5	10.12
412.706	9.83
412.913	9.79
413.119	10
413.326	9.97
413.532	10.07
413.738	9.85
413.945	9.55
414.151	9.48
414.357	9.3
414.564	9.11
414.77	8.9
414.976	8.89
415.182	9.14
415.389	8.66
415.595	8.7
415.801	8.62
416.007	8.59
416.214	8.9
416.42	8.86
416.626	8.81
416.832	8.9
417.038	8.93
417.244	9
417.45	9.05
417.657	9.11
417.863	9.15
418.069	9.19
418.275	9.05
418.481	9.17
418.687	9.13
418.893	9.14
419.099	9.09
419.305	9.28
419.511	9.16
419.717	8.97
419.923	8.94
420.129	8.72
420.335	8.77
420.541	8.64
420.746	8.44
420.952	8.37
421.158	8.28
421.364	8.25
421.57	8.2
421.776	8.1
421.982	8.02
422.187	7.94
422.393	8.02
422.599	7.89
422.805	7.96
423.01	7.95
423.216	7.96
423.422	8
423.628	8.01
423.833	7.86
424.039	7.71
424.245	7.7
424.45	7.68
424.656	7.69
424.862	7.61
425.067	7.53
425.273	7.63
425.478	7.63
425.684	7.43
425.889	7.44
426.095	7.49
426.301	7.83
426.506	8
426.712	8.03
426.917	8.08
427.123	8.26
427.328	8.45
427.533	8.4
427.739	8.38
427.944	8.5
428.15	8.43
428.355	8.29
428.561	8.19
428.766	7.92
428.971	8.06
429.177	8.15
429.382	8.11
429.587	8.12
429.793	8.22
429.998	8.24
430.203	8.32
430.408	8.33
430.614	8.24
430.819	8.23
431.024	8.24
431.229	8.22
431.434	8.01
431.64	8.15
431.845	8.32
432.05	8.21
432.255	8.14
432.46	8.03
432.665	8.08
432.87	8.21
433.076	8.2
433.281	8.33
433.486	8.33
433.691	8.21
433.896	8.04
434.101	7.86
434.306	7.9
434.511	8.02
434.716	8
434.921	8.07
435.126	8.21
435.331	8.3
435.535	8.27
435.74	8.26
435.945	8.4
436.15	8.34
436.355	8.5
436.56	8.44
436.765	8.49
436.97	8.59
437.174	8.39
437.379	8.38
437.584	8.55
437.789	8.5
437.993	8.51
438.198	8.55
438.403	8.68
438.608	8.54
438.812	8.44
439.017	8.23
439.222	8.26
439.426	8.32
439.631	8.15
439.836	7.97
440.04	7.91
440.245	7.87
440.45	7.81
440.654	7.58
440.859	7.46
441.063	7.6
441.268	7.66
441.472	7.73
441.677	7.84
441.881	7.99
442.086	8.01
442.29	8.04
442.495	8.09
442.699	8.17
442.904	8.45
443.108	8.42
443.312	8.37
443.517	8.34
443.721	8.2
443.925	8.05
444.13	7.84
444.334	7.66
444.538	7.6
444.743	7.36
444.947	7.33
445.151	7.11
445.356	7.3
445.56	7.32
445.764	7.42
445.968	7.53
446.173	7.4
446.377	7.49
446.581	7.59
446.785	7.67
446.989	7.72
447.193	7.76
447.398	7.93
447.602	7.85
447.806	7.9
448.01	7.78
448.214	7.71
448.418	7.88
448.622	7.9
448.826	7.95
449.03	7.9
449.234	8.07
449.438	8.02
449.642	8
449.846	8.05
450.05	7.9
450.254	7.78
450.458	7.61
450.662	7.45
450.866	7.38
451.069	7.32
451.273	7.35
451.477	7.34
451.681	7.27
451.885	7.34
452.089	7.33
452.292	7.36
452.496	7.57
452.7	7.6
452.904	7.73
453.107	7.76
453.311	7.76
453.515	7.69
453.719	7.59
453.922	7.76
454.126	7.58
454.33	7.74
454.533	7.66
454.737	7.63
454.94	7.55
455.144	7.58
455.348	7.62
455.551	7.69
455.755	7.92
455.958	7.98
456.162	7.78
456.365	7.74
456.569	7.63
456.772	7.79
456.976	7.98
457.179	8.22
457.383	8.07
457.586	7.98
457.79	8.02
457.993	7.96
458.196	7.88
458.4	8.02
458.603	8.22
458.807	7.98
459.01	7.91
459.213	7.79
459.417	7.71
459.62	7.84
459.823	7.78
460.026	7.57
460.23	7.39
460.433	7.41
460.636	7.29
460.839	7.16
461.042	7.37
461.246	7.24
461.449	7.26
461.652	7.25
461.855	7.14
462.058	7.15
462.261	7.24
462.464	7.24
462.668	7.13
462.871	7.09
463.074	7.1
463.277	6.99
463.48	7.04
463.683	7.08
463.886	7.02
464.089	7.06
464.292	7.11
464.495	7.19
464.698	7.24
464.901	7.54
465.104	7.64
465.306	7.64
465.509	7.71
465.712	7.63
465.915	7.63
466.118	7.68
466.321	7.69
466.524	7.55
466.726	7.53
466.929	7.76
467.132	7.62
467.335	7.54
467.538	7.61
467.74	7.53
467.943	7.68
468.146	7.44
468.348	7.45
468.551	7.24
468.754	7.33
468.956	7.24
469.159	7.15
469.362	7.13
469.564	7.21
469.767	7.21
469.969	7.3
470.172	7.39
470.375	7.38
470.577	7.43
470.78	7.5
470.982	7.4
471.185	7.42
471.387	7.36
471.59	7.33
471.792	7.34
471.995	7.24
472.197	7.25
472.399	7.29
472.602	7.61
472.804	7.6
473.007	7.56
473.209	7.54
473.411	7.56
473.614	7.54
473.816	7.51
474.018	7.41
474.22	7.41
474.423	7.32
474.625	7.22
474.827	6.87
475.03	6.88
475.232	6.9
475.434	6.96
475.636	6.94
475.838	6.91
476.04	6.88
476.243	7.09
476.445	7.15
476.647	7.18
476.849	7.05
477.051	7.03
477.253	7.12
477.455	7.04
477.657	7.12
477.859	7.12
478.061	7.23
478.263	7.22
478.465	7.02
478.667	7.01
478.869	7.05
479.071	7.1
479.273	7.2
479.475	7.11
479.677	7.34
479.879	7.35
480.081	7.39
480.283	7.36
480.485	7.39
480.686	7.4
480.888	7.41
481.09	7.36
481.292	7.36
481.494	7.22
481.695	7.13
481.897	6.95
482.099	6.79
482.301	6.8
482.502	6.76
482.704	6.77
482.906	6.79
483.107	6.67
483.309	6.58
483.511	6.55
483.712	6.57
483.914	6.54
484.115	6.54
484.317	6.58
484.519	6.52
484.72	6.49
484.922	6.47
485.123	6.44
485.325	6.44
485.526	6.47
485.728	6.45
485.929	6.47
486.131	6.55
486.332	6.58
486.534	6.52
486.735	6.51
486.936	6.51
487.138	6.48
487.339	6.45
487.541	6.51
487.742	6.5
487.943	6.52
488.144	6.52
488.346	6.46
488.547	6.45
488.748	6.51
488.95	6.53
489.151	6.52
489.352	6.53
489.553	6.6
489.755	6.6
489.956	6.56
490.157	6.5
490.358	6.57
490.559	6.55
490.76	6.56
490.961	6.51
491.163	6.59
491.364	6.6
491.565	6.63
491.766	6.56
491.967	6.52
492.168	6.5
492.369	6.58
492.57	6.55
492.771	6.62
492.972	6.62
493.173	6.76
493.374	6.79
493.575	6.84
493.776	6.83
493.976	6.98
494.177	7.1
494.378	7.24
494.579	7.33
494.78	7.35
494.981	7.23
495.182	7.23
495.382	7.1
495.583	7.08
495.784	7.12
495.985	7.18
496.185	7.05
496.386	6.97
496.587	7
496.788	7.07
496.988	7.03
497.189	7.13
497.39	7.24
497.59	7.17
497.791	7.16
497.992	7.17
498.192	7.2
498.393	7.17
498.593	7.18
498.794	7.06
498.994	7.08
499.195	6.94
499.395	7.08
499.596	7
499.796	7.01
499.997	7.01
500.197	6.99
500.398	7.06
500.598	7.22
500.799	7.48
500.999	7.62
501.199	7.38
501.4	7.62
501.6	7.44
501.801	7.65
502.001	7.75
502.201	7.8
502.402	7.96
502.602	7.83
502.802	7.7
503.002	7.57
503.203	7.56
503.403	7.7
503.603	7.69
503.803	7.73
504.003	7.61
504.204	7.59
504.404	7.72
504.604	7.69
504.804	7.94
505.004	7.99
505.204	7.94
505.404	8.06
505.604	8.05
505.804	7.93
506.005	7.95
506.205	7.94
506.405	7.97
506.605	7.84
506.805	7.83
507.005	7.61
507.204	7.64
507.404	7.6
507.604	7.68
507.804	7.72
508.004	7.87
508.204	7.88
508.404	7.97
508.604	7.98
508.804	7.96
509.003	7.99
509.203	7.93
509.403	8.09
509.603	8.18
509.803	8.08
510.002	8.06
510.202	8.14
510.402	8.2
510.602	8.17
510.801	8.21
511.001	8.22
511.201	8.21
511.4	8.11
511.6	8.01
511.8	7.9
511.999	7.94
512.199	7.95
512.398	7.9
512.598	7.9
512.797	8.11
512.997	8.02
513.197	8.09
513.396	8.12
513.596	8.4
513.795	8.45
513.994	8.63
514.194	8.69
514.393	8.86
514.593	8.86
514.792	9.05
514.992	9.04
515.191	9.36
515.39	9.34
515.59	9.16
515.789	9.3
515.988	9.26
516.188	9.33
516.387	9.33
516.586	9.06
516.786	9.09
516.985	8.96
517.184	8.86
517.383	8.84
517.582	8.82
517.782	9.02
517.981	8.88
518.18	8.96
518.379	8.96
518.578	8.96
518.777	9.03
518.976	9.09
519.176	9.15
519.375	9.16
519.574	9.15
519.773	9.17
519.972	9.11
520.171	9.13
520.37	9.17
520.569	9.14
520.768	9.28
520.967	9.38
521.166	9.38
521.365	9.34
521.564	9.5
521.762	9.53
521.961	9.66
522.16	9.78
522.359	9.98
522.558	9.86
522.757	9.96
522.956	9.93
523.154	9.93
523.353	10
523.552	10.05
523.751	9.84
523.949	9.82
524.148	9.86
524.347	9.91
524.546	9.85
524.744	9.9
524.943	9.98
525.142	10.09
525.34	10.13
525.539	10.17
525.737	10.22
525.936	10.42
526.135	10.46
526.333	10.36
526.532	10.32
526.73	10.32
526.929	10.37
527.127	10.37
527.326	10.28
527.524	10.3
527.723	10.33
527.921	10.37
528.12	10.33
528.318	10.35
528.516	10.43
528.715	10.48
528.913	10.47
529.112	10.45
529.31	10.38
529.508	10.45
529.707	10.45
529.905	10.49
530.103	10.47
530.301	10.46
530.5	10.37
530.698	10.41
530.896	10.43
531.094	10.54
531.293	10.65
531.491	10.9
531.689	10.96
531.887	11.04
532.085	11.04
532.283	11.16
532.481	11.21
532.68	11.37
532.878	11.45
533.076	11.47
533.274	11.48
533.472	11.53
533.67	11.38
533.868	11.36
534.066	11.41
534.264	11.44
534.462	11.43
534.66	11.56
534.858	11.61
535.056	11.62
535.253	11.63
535.451	11.67
535.649	11.76
535.847	11.97
536.045	12.11
536.243	12.15
536.441	12.29
536.638	12.32
536.836	12.28
537.034	12.33
537.232	12.4
537.43	12.46
537.627	12.51
537.825	12.56
538.023	12.51
538.22	12.56
538.418	12.69
538.616	12.6
538.813	12.7
539.011	12.84
539.209	12.85
539.406	12.89
539.604	13.08
539.801	13.13
539.999	13.13
540.196	13.28
540.394	13.3
540.591	13.3
540.789	13.35
540.986	13.36
541.184	13.33
541.381	13.4
541.579	13.27
541.776	13.23
541.974	13.2
542.171	13.24
542.368	13.22
542.566	13.23
542.763	13.19
542.96	13.25
543.158	13.26
543.355	13.27
543.552	13.23
543.75	13.5
543.947	13.55
544.144	13.64
544.341	13.69
544.539	13.75
544.736	13.72
544.933	13.77
545.13	13.78
545.327	13.9
545.524	13.99
545.722	14.24
545.919	14.23
546.116	14.37
546.313	14.42
546.51	14.58
546.707	14.86
546.904	14.95
547.101	15.11
547.298	15.19
547.495	15.22
547.692	15.29
547.889	15.28
548.086	15.38
548.283	15.43
548.48	15.62
548.677	15.59
548.874	15.42
549.07	15.52
549.267	15.63
549.464	15.8
549.661	15.94
549.858	15.97
550.055	16.09
550.251	16.07
550.448	16.13
550.645	16.02
550.842	16.15
551.038	16.33
551.235	16.46
551.432	16.45
551.628	16.38
551.825	16.49
552.022	16.7
552.218	16.75
552.415	16.87
552.612	16.98
552.808	17.26
553.005	17.2
553.201	17.21
553.398	17.28
553.594	17.45
553.791	17.7
553.987	17.62
554.184	17.58
554.38	17.75
554.577	17.92
554.773	17.98
554.97	17.97
555.166	18.31
555.362	18.33
555.559	18.57
555.755	18.64
555.952	18.75
556.148	19.05
556.344	19.37
556.541	19.3
556.737	19.35
556.933	19.43
557.129	19.67
557.326	19.53
557.522	19.78
557.718	19.84
557.914	19.88
558.11	19.68
558.307	19.53
558.503	19.61
558.699	19.83
558.895	19.95
559.091	20.18
559.287	20.13
559.483	20.39
559.679	20.56
559.876	20.64
560.072	20.91
560.268	21.26
560.464	21.55
560.66	21.43
560.856	21.46
561.052	21.52
561.247	21.37
561.443	21.52
561.639	21.4
561.835	21.32
562.031	21.36
562.227	21.05
562.423	21.09
562.619	21.2
562.815	21.52
563.01	21.64
563.206	21.84
563.402	22.06
563.598	22.05
563.793	22.17
563.989	22.39
564.185	22.5
564.381	22.88
564.576	23.05
564.772	23.01
564.968	22.82
565.163	22.78
565.359	22.78
565.555	22.82
565.75	23.15
565.946	23.22
566.141	23.17
566.337	23.22
566.532	23.3
566.728	23.27
566.923	23.45
567.119	23.6
567.314	23.89
567.51	24.02
567.705	24
567.901	23.86
568.096	24.02
568.292	24.23
568.487	24.39
568.682	24.43
568.878	24.51
569.073	24.43
569.268	24.51
569.464	24.52
569.659	24.66
569.854	24.88
570.05	24.99
570.245	25.2
570.44	25.17
570.635	25.1
570.831	25.25
571.026	25.42
571.221	25.69
571.416	25.8
571.611	25.56
571.806	25.56
572.002	25.63
572.197	25.64
572.392	25.49
572.587	25.66
572.782	25.91
572.977	25.93
573.172	26.01
573.367	25.98
573.562	26.13
573.757	26.57
573.952	26.49
574.147	26.77
574.342	26.79
574.537	27.01
574.732	27.07
574.927	27.15
575.121	27.16
575.316	27.21
575.511	27.23
575.706	27.33
575.901	27.31
576.096	27.39
576.29	27.34
576.485	27.42
576.68	27.53
576.875	27.46
577.069	27.52
577.264	27.7
577.459	27.76
577.654	27.79
577.848	27.85
578.043	27.96
578.238	28.37
578.432	28.29
578.627	28.57
578.821	28.62
579.016	28.66
579.21	28.57
579.405	28.71
579.6	28.74
579.794	29.01
579.989	29.05
580.183	28.78
580.378	28.66
580.572	28.89
580.766	28.77
580.961	28.8
581.155	28.97
581.35	29.1
581.544	29.18
581.738	29.23
581.933	29.08
582.127	29.14
582.321	29.39
582.516	29.22
582.71	29.27
582.904	29.5
583.099	29.38
583.293	29.64
583.487	29.88
583.681	30.14
583.875	30.21
584.07	30.54
584.264	30.79
584.458	31.08
584.652	31.33
584.846	31.38
585.04	31.36
585.234	31.78
585.428	31.76
585.623	31.78
585.817	31.34
586.011	31.65
586.205	31.78
586.399	31.64
586.593	31.51
586.787	31.76
586.981	31.59
587.174	31.84
587.368	31.88
587.562	32.18
587.756	32.02
587.95	32.52
588.144	32.4
588.338	32.51
588.532	32.56
588.725	32.73
588.919	32.71
589.113	33.02
589.307	32.85
589.501	32.85
589.694	32.82
589.888	32.98
590.082	32.91
590.275	32.88
590.469	32.7
590.663	32.93
590.856	32.78
591.05	32.82
591.244	32.79
591.437	33.08
591.631	32.93
591.824	32.89
592.018	32.86
592.212	32.76
592.405	32.86
592.599	33.06
592.792	33.35
592.986	33.69
593.179	33.57
593.372	33.6
593.566	33.8
593.759	34.19
593.953	34.35
594.146	34.42
594.339	34.49
594.533	34.63
594.726	34.77
594.92	34.53
595.113	34.57
595.306	34.71
595.499	34.81
595.693	34.62
595.886	34.4
596.079	34.22
596.272	34.16
596.466	34.31
596.659	34.46
596.852	34.45
597.045	34.45
597.238	34.27
597.431	34.18
597.624	34.27
597.818	34.27
598.011	34.41
598.204	34.4
598.397	34.5
598.59	34.24
598.783	33.93
598.976	33.85
599.169	33.86
599.362	33.85
599.555	34.25
599.748	34.19
599.941	34.19
600.134	34.19
600.326	34.35
600.519	34.47
600.712	34.77
600.905	34.8
601.098	35.14
601.291	35.13
601.483	35.33
601.676	35.19
601.869	35.18
602.062	35.02
602.255	34.89
602.447	34.77
602.64	34.75
602.833	34.79
603.025	35.13
603.218	34.91
603.411	35.18
603.603	35.29
603.796	35.35
603.989	35.31
604.181	35.57
604.374	35.96
604.566	36.02
604.759	36.09
604.951	35.94
605.144	35.94
605.336	36.13
605.529	35.99
605.721	36.13
605.914	35.95
606.106	36.09
606.299	36.28
606.491	36.23
606.683	36.42
606.876	36.6
607.068	37.07
607.26	37.11
607.453	36.89
607.645	36.85
607.837	36.76
608.03	37.09
608.222	37.21
608.414	37.12
608.606	36.78
608.799	36.59
608.991	36.69
609.183	36.66
609.375	36.78
609.567	37.17
609.759	37.3
609.952	37.23
610.144	37.23
610.336	37.05
610.528	36.96
610.72	37.17
610.912	37.35
611.104	37.26
611.296	37.07
611.488	37.2
611.68	37.01
611.872	37.1
612.064	37.16
612.256	37.31
612.448	37.39
612.64	37.54
612.832	37.77
613.023	38.16
613.215	38.33
613.407	38.52
613.599	38.35
613.791	38.62
613.983	38.64
614.174	38.77
614.366	38.51
614.558	38.6
614.75	38.65
614.941	38.71
615.133	38.5
615.325	38.31
615.516	38.42
615.708	38.24
615.9	37.88
616.091	37.9
616.283	38
616.475	38.12
616.666	38.22
616.858	38.48
617.049	38.27
617.241	38.08
617.432	38.3
617.624	38.25
617.815	38.42
618.007	38.49
618.198	38.56
618.39	38.6
618.581	38.49
618.773	38.76
618.964	38.66
619.155	39.04
619.347	39.25
619.538	39.43
619.729	39.49
619.921	39.31
620.112	39.45
620.303	39.25
620.494	38.82
620.686	38.97
620.877	38.61
621.068	38.62
621.259	38.37
621.451	38.62
621.642	38.71
621.833	38.44
622.024	38.79
622.215	38.7
622.406	39.06
622.597	39.19
622.788	39.47
622.98	39.47
623.171	39.69
623.362	39.9
623.553	39.94
623.744	40.11
623.935	40.26
624.126	40.22
624.317	40.22
624.508	40.27
624.698	40.25
624.889	39.81
625.08	40.41
625.271	40.36
625.462	40.01
625.653	39.86
625.844	39.56
626.034	39.75
626.225	39.77
626.416	39.86
626.607	39.8
626.798	40.03
626.988	40.29
627.179	40.42
627.37	40.17
627.56	40.39
627.751	40.36
627.942	40.35
628.132	40.3
628.323	40.58
628.514	40.67
628.704	40.78
628.895	40.86
629.085	41
629.276	40.54
629.466	40.89
629.657	41
629.847	41.05
630.038	41.05
630.228	41.19
630.419	41.06
630.609	41.12
630.8	40.95
630.99	40.62
631.181	40.76
631.371	40.98
631.561	40.97
631.752	40.9
631.942	41.04
632.132	41.34
632.323	41.37
632.513	41.26
632.703	41.29
632.893	41.78
633.084	42.02
633.274	42.04
633.464	42.01
633.654	42.18
633.844	42.02
634.034	42.13
634.225	42.3
634.415	42.55
634.605	42.8
634.795	42.79
634.985	42.29
635.175	42.6
635.365	42.4
635.555	42.29
635.745	42.02
635.935	42.08
636.125	42.02
636.315	41.82
636.505	41.46
636.695	41.24
636.885	41.21
637.075	41.4
637.265	41.57
637.455	41.76
637.644	41.89
637.834	42.02
638.024	42.22
638.214	42.21
638.404	42.01
638.593	42.19
638.783	42.12
638.973	42.05
639.163	41.8
639.352	41.84
639.542	41.65
639.732	41.98
639.921	41.69
640.111	41.83
640.301	42.2
640.49	42.3
640.68	42.69
640.87	42.81
641.059	42.98
641.249	43.41
641.438	43.16
641.628	43.42
641.817	42.96
642.007	43.17
642.196	42.78
642.386	42.61
642.575	43.06
642.764	42.88
642.954	42.58
643.143	42.93
643.333	43.26
643.522	43.2
643.711	43.06
643.901	42.99
644.09	43.14
644.279	43.78
644.469	43.62
644.658	43.11
644.847	42.99
645.036	43.45
645.226	43.11
645.415	42.56
645.604	42.48
645.793	42.69
645.982	42.97
646.171	42.97
646.361	42.68
646.55	42.99
646.739	43.1
646.928	43.11
647.117	43.32
647.306	43.35
647.495	43.47
647.684	43.38
647.873	43.77
648.062	43.86
648.251	43.93
648.44	43.64
648.629	43.26
648.818	43.53
649.007	43.54
649.196	43.29
649.384	43.26
649.573	43.27
649.762	43.54
649.951	42.99
650.14	43.05
650.328	43.25
650.517	43.94
650.706	44.37
650.895	44.44
651.083	45.14
651.272	45.19
651.461	45.39
651.65	45.35
651.838	45.49
652.027	45.5
652.216	45.52
652.404	45.17
652.593	45.04
652.781	44.99
652.97	44.9
653.158	44.17
653.347	44.45
653.535	44.73
653.724	44.95
653.912	45.2
654.101	45.37
654.289	45.32
654.478	45.67
654.666	45.31
654.855	45.18
655.043	44.95
655.231	45.38
655.42	45.31
655.608	44.97
655.796	45.33
655.985	45.11
656.173	44.89
656.361	45.26
656.55	45.07
656.738	45.46
656.926	45.64
657.114	45.91
657.302	45.46
657.491	45.33
657.679	45.41
657.867	45.05
658.055	45.19
658.243	45.66
658.431	45.63
658.619	45.94
658.807	45.75
658.996	45.66
659.184	45.95
659.372	46.28
659.56	46.41
659.748	46.23
659.936	46.6
660.124	46.36
660.311	45.98
660.499	45.9
660.687	45.91
660.875	46.36
661.063	46.2
661.251	45.88
661.439	45.37
661.627	45.06
661.814	45.12
662.002	44.73
662.19	45.09
662.378	45.36
662.565	45.65
662.753	45.4
662.941	45.1
663.129	45.14
663.316	45.46
663.504	45.93
663.692	46.14
663.879	46.66
664.067	46.93
664.254	46.75
664.442	47.18
664.63	46.89
664.817	47.32
665.005	47.2
665.192	47.68
665.38	47.29
665.567	46.96
665.755	46.66
665.942	46.25
666.13	46.46
666.317	46.52
666.504	45.92
666.692	45.51
666.879	45.41
667.067	45.79
667.254	45.5
667.441	45.98
667.629	45.85
667.816	46.36
668.003	46.31
668.19	45.9
668.378	45.92
668.565	46.1
668.752	46.66
668.939	46.46
669.127	46.52
669.314	46.62
669.501	46.41
669.688	47.18
669.875	47.16
670.062	47.52
670.249	47.68
670.436	47.71
670.623	48.08
670.81	48
670.997	47.94
671.184	47.7
671.371	48.02
671.558	48.42
671.745	48.37
671.932	48.59
672.119	48.48
672.306	48.87
672.493	48.85
672.68	48.41
672.867	48.58
673.054	48.69
673.24	48.76
673.427	48.8
673.614	49.01
673.801	48.88
673.988	48.61
674.174	48.42
674.361	48.22
674.548	48.14
674.734	48.9
674.921	48.86
675.108	49.07
675.294	49.29
675.481	48.79
675.668	48.35
675.854	48.52
676.041	48.92
676.227	49.22
676.414	49.61
676.601	50.03
676.787	49.37
676.974	49.44
677.16	49.56
677.347	49.21
677.533	49.74
677.719	49.55
677.906	49.3
678.092	49.55
678.279	50.07
678.465	49.68
678.651	49.36
678.838	49.94
679.024	49.8
679.21	49.46
679.397	49.43
679.583	49.41
679.769	49.37
679.955	49.61
680.142	49.23
680.328	49.06
680.514	48.91
680.7	49.04
680.886	48.59
681.073	48.91
681.259	48.74
681.445	48.93
681.631	48.82
681.817	48.84
682.003	48.62
682.189	48.3
682.375	48.1
682.561	48.5
682.747	48.61
682.933	48.81
683.119	48.43
683.305	49.03
683.491	48.83
683.677	48.74
683.863	48.66
684.049	48.93
684.235	49.36
684.42	49.19
684.606	48.74
684.792	49.02
684.978	48.87
685.164	48.89
685.349	48.66
685.535	49.09
685.721	48.56
685.907	48.69
686.092	48.68
686.278	48.52
686.464	48.83
686.649	48.95
686.835	48.13
687.021	48.53
687.206	48.38
687.392	48.43
687.577	48.32
687.763	49
687.948	49.48
688.134	49.11
688.319	49.14
688.505	49.1
688.69	49.72
688.876	50.04
689.061	49.61
689.247	50.24
689.432	50.32
689.618	50.25
689.803	49.99
689.988	50.33
690.174	50.79
690.359	51.13
690.544	51.36
690.73	51.33
690.915	51.33
691.1	51.76
691.285	51.69
691.471	51.58
691.656	51.48
691.841	51.89
692.026	51.1
692.211	51.05
692.396	50.2
692.582	49.96
692.767	49.97
692.952	49.98
693.137	49.79
693.322	49.61
693.507	49.9
693.692	50.06
693.877	49.73
694.062	50.05
694.247	50.1
694.432	51.1
694.617	50.55
694.802	50.14
694.987	50.41
695.172	50.83
695.357	51.03
695.541	50.89
695.726	50.79
695.911	51.68
696.096	51.25
696.281	51.24
696.466	50.99
696.65	51.43
696.835	51.13
697.02	51.35
697.204	50.75
697.389	51.02
697.574	51
697.759	50.85
697.943	49.79
698.128	49.78
698.312	49.5
698.497	49.04
698.682	49.14
698.866	49.08
699.051	48.75
699.235	48.87
699.42	48.62
699.604	48.46
699.789	48.52
699.973	48.72
700.158	48.68
700.342	48.84
700.527	48.95
700.711	49.33
700.895	49.7
701.08	50.16
701.264	50.03
701.448	49.87
701.633	49.79
701.817	50.09
702.001	50.58
702.186	50.74
702.37	50.5
702.554	51.25
702.738	51.11
702.923	51.41
703.107	51.55
703.291	51.74
703.475	51.52
703.659	52
703.843	51.96
704.027	52.19
704.212	52.59
704.396	53.42
704.58	53.29
704.764	52.88
704.948	52.73
705.132	51.85
705.316	52.43
705.5	52.74
705.684	52.65
705.868	52.98
706.052	52.72
706.235	52.63
706.419	51.97
706.603	52.22
706.787	52.19
706.971	51.76
707.155	51.49
707.339	51.47
707.522	51.66
707.706	52.2
707.89	52.03
708.074	52.13
708.257	52.3
708.441	52.68
708.625	52.59
708.808	53.03
708.992	53.49
709.176	53.93
709.359	53.05
709.543	52.51
709.727	51.88
709.91	51.82
710.094	51.58
710.277	51.48
710.461	51.81
710.644	52.02
710.828	51.56
711.011	51.7
711.195	52.29
711.378	52.53
711.562	53.18
711.745	53.32
711.928	53.21
712.112	53.15
712.295	52.87
712.478	52.48
712.662	52.22
712.845	52.49
713.028	52.03
713.212	51.65
713.395	51.95
713.578	52.28
713.761	52.39
713.945	52.46
714.128	52.69
714.311	52.99
714.494	52.62
714.677	52.95
714.86	53.07
715.043	53.08
715.227	52.54
715.41	52.81
715.593	52.63
715.776	52.32
715.959	52.29
716.142	52.94
716.325	52.42
716.508	52.81
716.691	52.51
716.874	52.21
717.057	51.77
717.239	52.57
717.422	52.87
717.605	52.18
717.788	52.3
717.971	53.15
718.154	52.82
718.337	53.39
718.519	54.1
718.702	53.87
718.885	53.85
719.068	54.79
719.25	54.84
719.433	55.17
719.616	55.89
719.798	55.58
719.981	55.27
720.164	54.26
720.346	54.26
720.529	53.4
720.712	53.68
720.894	54.29
721.077	54.11
721.259	53.92
721.442	53.15
721.624	54.03
721.807	54.52
721.989	54.13
722.172	55.06
722.354	55.49
722.537	56.48
722.719	57.34
722.901	56.87
723.084	56.97
723.266	57.03
723.448	57.27
723.631	56.8
723.813	57.47
723.995	57.32
724.178	56.89
724.36	57.6
724.542	57.15
724.724	56.28
724.907	57.12
725.089	57.14
725.271	57.62
725.453	56.62
725.635	56.42
725.817	56.12
725.999	57.14
726.181	57.1
726.364	56.43
726.546	54.78
726.728	54.84
726.91	53.96
727.092	54.11
727.274	54.33
727.456	55.53
727.638	55.15
727.819	54.33
728.001	52.95
728.183	53.02
728.365	52.87
728.547	54.13
728.729	55.1
728.911	55.89
729.093	55.93
729.274	55.38
729.456	54.9
729.638	54.6
729.82	55.55
730.001	56.51
730.183	56.27
730.365	56.05
730.546	56.05
730.728	55.17
730.91	55
731.091	54.7
731.273	54.5
731.455	54.71
731.636	55.65
731.818	55.89
731.999	55.4
732.181	55.9
732.362	56.37
732.544	57.15
732.725	56.9
732.907	56.54
733.088	56.81
733.27	57.35
733.451	57.56
733.633	57.4
733.814	57.71
733.995	58.16
734.177	58.11
734.358	57.6
734.539	56.69
734.721	57.42
734.902	56.73
735.083	57.36
735.264	57.46
735.446	57.09
735.627	56.97
735.808	56.26
735.989	55.67
736.17	55.41
736.351	55.75
736.533	55.86
736.714	55.49
736.895	56.13
737.076	55.17
737.257	54.83
737.438	54.62
737.619	54.32
737.8	54.55
737.981	54.89
738.162	55.22
738.343	55.75
738.524	55.89
738.705	55.88
738.886	56.03
739.067	56.81
739.247	56.9
739.428	57.49
739.609	57.64
739.79	56.65
739.971	55.9
740.151	55.48
740.332	54.69
740.513	54.89
740.694	54.74
740.874	54.5
741.055	53.65
741.236	53.79
741.417	54.16
741.597	53.89
741.778	55.06
741.958	55.6
742.139	55.92
742.32	56.23
742.5	56.88
742.681	57.08
742.861	56.83
743.042	57.83
743.222	56.77
743.403	56.51
743.583	57.39
743.764	57.88
743.944	58.03
744.124	59.1
744.305	58.86
744.485	59.41
744.666	59.13
744.846	60.6
745.026	59.1
745.207	59.68
745.387	59.9
745.567	58.85
745.747	57.39
745.928	58.41
746.108	58.24
746.288	59.06
746.468	56.82
746.648	57
746.829	56.23
747.009	58.06
747.189	58.41
747.369	57.59
747.549	58.66
747.729	59.47
747.909	58.53
748.089	57.77
748.269	57.68
748.449	58.8
748.629	58.1
748.809	58.69
748.989	57.57
749.169	57.3
749.349	57.82
749.529	58.26
749.709	57.9
749.889	57.74
750.068	58.68
750.248	57.83
750.428	57.63
750.608	57.78
750.788	57.31
750.967	57.42
751.147	57.64
751.327	57.05
751.507	55.76
751.686	56.59
751.866	56.53
752.046	55.5
752.225	56.51
752.405	56.28
752.585	57.59
752.764	57.47
752.944	56.76
753.123	56.59
753.303	56.4
753.482	57.12
753.662	56.31
753.841	56.4
754.021	56.4
754.2	55.54
754.38	56.7
754.559	56.6
754.739	55.68
754.918	58.01
755.097	57.19
755.277	58.21
755.456	58.61
755.635	58.54
755.815	59.1
755.994	59.57
756.173	60.62
756.352	58.97
756.532	57.72
756.711	58.99
756.89	57.16
757.069	57.54
757.248	56.05
757.427	55.17
757.607	56.6
757.786	57.62
757.965	57.4
758.144	56.91
758.323	56.89
758.502	57.12
758.681	56.58
758.86	55.91
759.039	56.61
759.218	56.61
759.397	56.54
759.576	54.67
759.755	53.63
759.934	53.61
760.113	54.4
760.291	55.12
760.47	55.98
760.649	56.12
760.828	56.84
761.007	57.09
761.186	58.44
761.364	58.51
761.543	59.59
761.722	59.27
761.901	58.65
762.079	58.43
762.258	58.15
762.437	57.37
762.615	57.3
762.794	58.26
762.972	57.81
763.151	57.81
763.33	57.57
763.508	57.05
763.687	56.79
763.865	57.36
764.044	57.22
764.222	56.59
764.401	56.99
764.579	56.87
764.758	56.42
764.936	56.33
765.114	55.98
765.293	57
765.471	57.6
765.65	57.84
765.828	58.51
766.006	57.77
766.184	58.77
766.363	58.69
766.541	58.9
766.719	59.5
766.898	59.76
767.076	59.31
767.254	58.65
767.432	58.17
767.61	58.58
767.788	58.1
767.967	58.93
768.145	60.29
768.323	60.73
768.501	61.4
768.679	60.17
768.857	60.92
769.035	62.13
769.213	61.71
769.391	61.4
769.569	60.52
769.747	60.07
769.925	59.45
770.103	57.72
770.281	56.85
770.459	56.65
770.636	57.53
770.814	56.41
770.992	56.9
771.17	58.06
771.348	57.57
771.525	58.16
771.703	58.55
771.881	59.36
772.059	60.11
772.236	59.43
772.414	59.57
772.592	59.62
772.769	60.94
772.947	60.63
773.125	60.18
773.302	61.37
773.48	61.69
773.657	62.04
773.835	60.81
774.013	62.45
774.19	63.95
774.368	65.5
774.545	66.28
774.723	65.81
774.9	65.51
775.077	66.13
775.255	65.39
775.432	66.27
775.61	64.84
775.787	66.58
775.964	64.38
776.142	63.84
776.319	62.31
776.496	60.59
776.674	60.72
776.851	60.49
777.028	59.64
777.205	58.5
777.382	58.21
777.56	60.14
777.737	61.76
777.914	62.72
778.091	61.96
778.268	62.04
778.445	62.49
778.622	61.46
778.8	62.96
778.977	62.77
779.154	73.19
779.331	71.34
779.508	70.39
779.685	69.82
779.862	70.6
780.038	72.33
780.215	73.29
780.392	74.14
780.569	74.36
780.746	71.92
780.923	72.18
781.1	64.08
781.277	66.01
781.453	65.37
781.63	65.01
781.807	66.11
781.984	66.5
782.16	64.64
782.337	62.39
782.514	64.28
782.691	65.89
782.867	68.16
783.044	67.88
783.221	68.26
783.397	68.5
783.574	67.15
783.75	64.46
783.927	63.61
784.103	66.19
784.28	65.91
784.456	65.34
784.633	65.54
784.809	64
784.986	64.14
785.162	61.54
785.339	62.05
785.515	62.22
785.692	61.26
785.868	60.54
786.044	58.19
786.221	61.68
786.397	60.66
786.573	60.73
786.749	58.27
786.926	58.08
787.102	60.14
787.278	58.98
787.454	59.81
787.631	61.88
787.807	61.28
787.983	62.42
788.159	62.09
788.335	62.28
788.511	61.98
788.687	62.81
788.863	63.28
789.039	62.46
789.216	63.08
789.392	61.98
789.568	61.4
789.744	63.64
789.919	62.39
790.095	61.5
790.271	62.91
790.447	62.94
790.623	64.11
790.799	64.73
790.975	65.38
791.151	65.32
791.327	66.1
791.502	65.11
791.678	64.34
791.854	65.17
792.03	64.57
792.205	65.69
792.381	64.42
792.557	66.67
792.733	66.17
792.908	68.21
793.084	69.19
793.259	70.54
793.435	72.35
793.611	71.68
793.786	73.18
793.962	72.52
794.137	69.7
794.313	72.02
794.488	71.53
794.664	72.58
794.839	70.12
795.015	69.38
795.19	67.07
795.366	64.42
795.541	64.87
795.716	63.05
795.892	64.98
796.067	64.03
796.242	62.52
796.418	61.22
796.593	58.82
796.768	60.14
796.944	60.71
797.119	61.8
797.294	64
797.469	63.33
797.644	63.35
797.82	63.44
797.995	63.67
798.17	65.26
798.345	66.35
798.52	68.03
798.695	65.71
798.87	64.84
799.045	64.67
799.22	65.66
799.395	66.72
799.57	69.65
799.745	69.18
799.92	71.55
800.095	71.73
800.27	69.74
800.445	69.63
800.62	71.22
800.795	71.8
800.97	74.07
801.145	70.96
801.319	70.59
801.494	68.47
801.669	68.46
801.844	68.42
802.018	65.8
802.193	65.69
802.368	66.95
802.543	66.36
802.717	69.42
802.892	66.46
803.067	67.87
803.241	68.26
803.416	66.81
803.59	65.76
803.765	64.58
803.94	66.13
804.114	65.72
804.289	65.34
804.463	66.03
804.638	64.91
804.812	65.05
804.986	66.45
805.161	66.06
805.335	65.6
805.51	65.58
805.684	63.94
805.858	63.07
806.033	63.89
806.207	64.31
806.381	64.64
806.556	62.9
806.73	64.32
806.904	63.47
807.078	63.44
807.253	67.44
807.427	67.1
807.601	70.12
807.775	72.87
807.949	72.98
808.123	70.15
808.298	70.03
808.472	72.97
808.646	72.19
808.82	72.38
808.994	72.88
809.168	71.12
809.342	72.85
809.516	74.49
809.69	75.34
809.864	77.49
810.038	81.4
810.212	81.67
810.385	78.27
810.559	78.94
810.733	79.77
810.907	81.03
811.081	80.51
811.255	80.05
811.428	80.73
811.602	78.45
811.776	78.08
811.95	76.4
812.123	76.16
812.297	78.24
812.471	77.56
812.644	75.54
812.818	74.6
812.992	75.3
813.165	75.73
813.339	74.59
813.512	73.99
813.686	74.41
813.86	72.86
814.033	73.15
814.207	72.25
814.38	74.8
814.554	76.27
814.727	76.65
814.9	75.81
815.074	74.48
815.247	75.7
815.421	72.94
815.594	71.92
815.767	71.29
815.941	73.11
816.114	74.64
816.287	73.68
816.46	72.93
816.634	70.21
816.807	72.46
816.98	73.95
817.153	71.2
817.327	71.75
817.5	73.69
817.673	75.29
817.846	76.41
818.019	75.04
818.192	76.76
818.365	76.87
818.538	79.84
818.711	76.6
818.884	76.47
819.057	76.67
819.23	77.92
819.403	75.75
819.576	75.79
819.749	72.69
819.922	70.94
820.095	67
820.268	68.66
820.441	68.43
820.614	69.18
820.786	68.74
820.959	66.81
821.132	65.78
821.305	63.92
821.477	63.2
821.65	63.42
821.823	62.8
821.996	62.06
822.168	60.85
822.341	59.8
822.514	59.08
822.686	58.5
822.859	58.43
823.031	58.61
823.204	58.2
823.376	57.91
823.549	57.14
823.722	57.21
823.894	57.57
824.067	56.94
824.239	57.23
824.411	57.31
824.584	57.59
824.756	57.35
824.929	56.51
825.101	56.73
825.273	56.61
825.446	56.15
825.618	55.93
825.79	55.53
825.963	56.43
826.135	55.84
826.307	56.07
826.479	55.99
826.652	56
826.824	56.74
826.996	58.08
827.168	58.36
827.34	59.51
827.512	60
827.684	60.09
827.856	60.19
828.029	61.03
828.201	59.96
828.373	59.19
828.545	59.24
828.717	60.02
828.889	58.94
829.061	58.7
829.232	59.33
829.404	59.47
829.576	61.17
829.748	62.16
829.92	63.09
830.092	64.6
830.264	64.61
830.436	65.07
830.607	65.63
830.779	65.67
830.951	66.82
831.123	66.66
831.294	66.67
831.466	66.18
831.638	66.68
831.809	65.33
831.981	65.5
832.153	68.05
832.324	68.93
832.496	66.42
832.667	68.52
832.839	70.4
833.011	70.28
833.182	70.88
833.354	70.48
833.525	69.53
833.697	69.1
833.868	68.63
834.039	68.58
834.211	68.06
834.382	68.23
834.554	67.81
834.725	67.4
834.896	67.65
835.068	66.04
835.239	65.38
835.41	65.13
835.581	65.95
835.753	65.54
835.924	64.24
836.095	64.39
836.266	64.58
836.438	63.24
836.609	61.84
836.78	62.72
836.951	65.02
837.122	65.24
837.293	65.24
837.464	66.24
837.635	68.71
837.806	70.72
837.977	71.14
838.148	72.71
838.319	74.08
838.49	74.88
838.661	72.59
838.832	70.39
839.003	73.64
839.174	78.08
839.345	76.67
839.516	75.86
839.687	78.16
839.857	81.59
840.028	85.39
840.199	88.78
840.37	87.96
840.54	87.97
840.711	88.6
840.882	87.76
841.053	80.82
841.223	81.08
841.394	80.76
841.564	77.59
841.735	78.13
841.906	72.79
842.076	71.15
842.247	74.04
842.417	73.92
842.588	72.64
842.758	70.06
842.929	72.1
843.099	69.24
843.27	70.08
843.44	72.6
843.611	75.71
843.781	77.59
843.951	76.98
844.122	73.53
844.292	75.57
844.462	80.64
844.633	81.83
844.803	85.99
844.973	90.47
845.144	92.64
845.314	97.94
845.484	91.43
845.654	99.24
845.824	101.97
845.995	104.8
846.165	108.11
846.335	111.72
846.505	128.34
846.675	124.12
846.845	120.92
847.015	119.45
847.185	123.12
847.355	129.1
847.525	126.54
847.695	133.44
847.865	142.52
848.035	137.51
848.205	142.41
848.375	128.14
848.545	125.43
848.715	131.19
848.884	132.86
849.054	130.22
849.224	122.36
849.394	118.25
849.564	121.22
849.733	107.86
849.903	104.23
850.073	91.47
850.243	88
850.412	86.48
850.582	80.26
850.752	89.29
850.921	81.56
851.091	82.06
851.26	84.61
851.43	80.36
851.599	85.79
851.769	85.3
851.939	91.72
852.108	98.48
852.278	99.68
852.447	101.05
852.616	91.18
852.786	96.3
852.955	99.34
853.125	94.96
853.294	100.27
853.463	98.8
853.633	104.01
853.802	103.42
853.971	103.21
854.141	106.34
854.31	113.51
854.479	113.11
854.648	111.37
854.818	106.79
854.987	111.89
855.156	117.73
855.325	126.89
855.494	128.58
855.663	130.93
855.832	128.7
856.001	139.47
856.171	134.05
856.34	141.05
856.509	145.95
856.678	145.15
856.847	152.99
857.016	135.52
857.185	129.65
857.353	138.07
857.522	137.53
857.691	136.57
857.86	132.77
858.029	139.46
858.198	138.61
858.367	137.43
858.535	149.3
858.704	140.96
858.873	153.81
859.042	148.47
859.21	152.52
859.379	149.2
859.548	146.23
859.717	148.38
859.885	161.43
860.054	149.74
860.222	143.44
860.391	134.2
860.56	127.71
860.728	127.52
860.897	127.76
861.065	114.9
861.234	110.16
861.402	116.81
861.571	112.85
861.739	104.21
861.908	116.96
862.076	124.75
862.244	128.13
862.413	134.96
862.581	124.2
862.749	114.19
862.918	127.2
863.086	124.02
863.254	108.7
863.423	105.23
863.591	96.71
863.759	88.69
863.927	88.2
864.096	96.96
864.264	99.13
864.432	101.03
864.6	101.92
864.768	104.44
864.936	104.08
865.104	115.02
865.272	117.38
865.44	130.39
865.608	128.25
865.776	128.49
865.944	118.91
866.112	127.11
866.28	130.15
866.448	135.49
866.616	123.51
866.784	128.48
866.952	117.02
867.12	118.75
867.288	107.61
867.455	104.38
867.623	109.34
867.791	124.07
867.959	108.76
868.127	111.1
868.294	113.41
868.462	109.04
868.63	103.67
868.797	110.56
868.965	111.76
869.133	129.53
869.3	153.39
869.468	143.26
869.636	129.77
869.803	127.27
869.971	118.81
870.138	115.78
870.306	123.53
870.473	134.34
870.641	126.58
870.808	127.19
870.975	118.16
871.143	109.26
871.31	111.12
871.478	107.4
871.645	108.38
871.812	112.24
871.98	120.37
872.147	109.08
872.314	104.75
872.482	103.94
872.649	99.71
872.816	103.09
872.983	107.38
873.15	108.69
873.318	118.27
873.485	126.8
873.652	132.84
873.819	135.54
873.986	137.36
874.153	141.14
874.32	133.84
874.487	136.67
874.654	130.5
874.821	130.6
874.988	127.98
875.155	123.79
875.322	116.88
875.489	115.88
875.656	115.93
875.823	128.01
875.99	123.41
876.157	143.73
876.324	147.83
876.49	161.38
876.657	156.19
876.824	146.96
876.991	150.13
877.157	161.54
877.324	159.74
877.491	154.27
877.658	142.32
877.824	144.31
877.991	143.42
878.157	141.96
878.324	141.21
878.491	138.81
878.657	138.54
878.824	122.05
878.99	104.77
879.157	103.87
879.323	98.78
879.49	96.86
879.656	97.29
879.823	99.84
879.989	105.49
880.156	101.8
880.322	98.99
880.488	98.19
880.655	99.67
880.821	111.34
880.987	107.93
881.154	108.8
881.32	109.74
881.486	104.53
881.652	97.19
881.819	91.79
881.985	89.86
882.151	87.78
882.317	83.51
882.483	82.01
882.649	76.77
882.816	74.08
882.982	70.82
883.148	67.91
883.314	66.41
883.48	67.76
883.646	66.13
883.812	64.26
883.978	63.29
884.144	63.38
884.31	63.05
884.476	63.19
884.642	63.12
884.807	65.93
884.973	67.27
885.139	68.87
885.305	67.7
885.471	66.88
885.637	66.44
885.802	66.99
885.968	67.61
886.134	68.54
886.3	71.01
886.465	74.12
886.631	73.06
886.797	77.43
886.962	77.86
887.128	80.4
887.293	82.19
887.459	90.27
887.625	90.97
887.79	94.22
887.956	99.6
888.121	98.37
888.287	95.15
888.452	93.37
888.618	88.26
888.783	86.49
