Data from LC_153_Reflection_1.txt Node
Date: Mon Nov 16 22:11:54 EST 2015
User: robert
Spectrometer: USB4E03001
Autoset integration time: false
Trigger mode: 4
Integration Time (sec): 1.000000E-1
Scans to average: 15
Electric dark correction enabled: true
Nonlinearity correction enabled: false
Boxcar width: 5
Stray light correction enabled: false
XAxis mode: Wavelengths
Stop averaging: false
Number of Pixels in Spectrum: 3648
>>>>>Begin Spectral Data<<<<<
177.566	831.33
177.785	105.49
178.005	-325.21
178.225	94.48
178.445	-164.34
178.665	929.11
178.885	763.59
179.105	1298.13
179.324	2525.23
179.544	-190.17
179.764	-890.19
179.984	-295.92
180.204	-239.27
180.423	-260.79
180.643	-422.14
180.863	-231.89
181.083	-215.51
181.302	-278.41
181.522	-263.89
181.742	-202.62
181.961	-414.25
182.181	-349.65
182.401	-453.53
182.621	-1813.98
182.84	-739.67
183.06	-487.23
183.279	-282.53
183.499	-179.46
183.719	-168.51
183.938	-147.24
184.158	-178.71
184.377	-112.86
184.597	-164.81
184.816	-101.58
185.036	-58.58
185.256	-61.29
185.475	-102.85
185.695	-164.95
185.914	-292.34
186.134	-521
186.353	-673.58
186.572	-849.43
186.792	-1385.8
187.011	-585.82
187.231	-540.84
187.45	-387.32
187.67	-888.02
187.889	-2274.5
188.108	4080.17
188.328	-1034.44
188.547	-390.87
188.766	-673.78
188.986	-909.84
189.205	-555.51
189.424	-397.16
189.644	-1160.62
189.863	-1443.08
190.082	-1036.03
190.302	-1980.05
190.521	-1135.03
190.74	948
190.959	412.88
191.178	632.29
191.398	499.28
191.617	404.06
191.836	363.05
192.055	841.64
192.274	314.16
192.494	371.42
192.713	393.92
192.932	931.33
193.151	893.31
193.37	1610.98
193.589	-1036.57
193.808	-289.08
194.027	-545.98
194.246	-5013.69
194.465	929.65
194.685	2331.71
194.904	1200.11
195.123	-1662.62
195.342	-1095.83
195.561	-470.42
195.78	-735.62
195.999	32805.63
196.218	1276.34
196.436	834.72
196.655	-2967.53
196.874	-973.2
197.093	-1494.69
197.312	-1069.82
197.531	2784.6
197.75	822.6
197.969	-2851.06
198.188	-476.48
198.407	-111.73
198.625	-161.17
198.844	-161.22
199.063	-199.41
199.282	-445.68
199.501	-258.14
199.719	-162.02
199.938	-113.43
200.157	-117.13
200.376	-127.33
200.594	-192.84
200.813	-411.49
201.032	-239.85
201.251	-221.63
201.469	-185.68
201.688	-120.45
201.907	-254.93
202.125	-471.87
202.344	16817.86
202.563	2660.04
202.781	429.03
203	1373.36
203.218	875.36
203.437	888.38
203.656	467.43
203.874	278.11
204.093	274.35
204.311	324.81
204.53	312.53
204.748	500.86
204.967	370.26
205.185	370.98
205.404	373.83
205.622	246.48
205.841	176.92
206.059	211.22
206.278	213.54
206.496	468.95
206.715	314.01
206.933	221.9
207.151	192.26
207.37	188.34
207.588	245.43
207.806	239.66
208.025	528.55
208.243	-830.16
208.461	1314.95
208.68	-14800
208.898	645.4
209.116	603.65
209.335	594.54
209.553	537.62
209.771	4813.75
209.989	828.12
210.208	1892.4
210.426	-2971.33
210.644	2134.44
210.862	-1740.25
211.081	794.03
211.299	-370
211.517	1958.7
211.735	-524.29
211.953	-178414.29
212.171	-3632.53
212.39	-11942.34
212.608	-28421.74
212.826	1084.46
213.044	750.17
213.262	521.14
213.48	2752.74
213.698	295.26
213.916	363.02
214.134	261.75
214.352	510.92
214.57	363.26
214.788	436.75
215.006	355.54
215.224	332.39
215.442	254.58
215.66	281.9
215.878	224.31
216.096	226.03
216.314	250.45
216.532	397
216.75	347.71
216.968	346.18
217.185	796.31
217.403	1300.68
217.621	-3628.61
217.839	-1089.46
218.057	-1192.61
218.275	2167.38
218.492	645.86
218.71	1170.09
218.928	404.62
219.146	374.08
219.363	278.55
219.581	210.57
219.799	177.76
220.017	194.9
220.234	162.22
220.452	159.94
220.67	194.75
220.887	211.12
221.105	209.09
221.323	139.38
221.54	127.6
221.758	163.5
221.976	170.53
222.193	150.97
222.411	81.89
222.629	117.11
222.846	118.46
223.064	119.88
223.281	116.76
223.499	110.66
223.716	129.51
223.934	117.54
224.151	120.58
224.369	107.82
224.586	118.28
224.804	117.9
225.021	106.04
225.239	87.27
225.456	82.36
225.674	83.54
225.891	73.4
226.108	76.54
226.326	63.24
226.543	56.71
226.76	56.13
226.978	48.02
227.195	59.41
227.413	53.68
227.63	50.45
227.847	43.84
228.064	41.46
228.282	38.06
228.499	34.18
228.716	33.75
228.934	29.26
229.151	29.76
229.368	28.72
229.585	25.73
229.802	24.91
230.02	25.19
230.237	27.59
230.454	26.93
230.671	26.37
230.888	26.09
231.105	25.12
231.323	28.22
231.54	28.67
231.757	30.93
231.974	32.36
232.191	32.3
232.408	36.43
232.625	30.44
232.842	27.28
233.059	30.19
233.276	30.05
233.493	30.89
233.71	29.88
233.927	31.68
234.144	32.15
234.361	30.13
234.578	35.91
234.795	34.53
235.012	39.32
235.229	44.04
235.446	42.79
235.663	40.58
235.879	42.13
236.096	43.22
236.313	40.5
236.53	41.83
236.747	42.85
236.964	36.48
237.181	34.24
237.397	31.77
237.614	28.54
237.831	24.48
238.048	27.5
238.264	29.51
238.481	25.36
238.698	28.28
238.915	29.68
239.131	29.28
239.348	29.19
239.565	29.23
239.781	29.9
239.998	30.75
240.215	32.51
240.431	30.37
240.648	29
240.865	29.54
241.081	25.72
241.298	23.87
241.514	25.06
241.731	23.49
241.947	23.28
242.164	22.42
242.38	21.6
242.597	20.28
242.814	20.39
243.03	20.38
243.246	20.84
243.463	21.24
243.679	21.59
243.896	18.96
244.112	21.18
244.329	20.51
244.545	19.95
244.762	18.57
244.978	22.14
245.194	22.32
245.411	20.75
245.627	20.37
245.843	21.28
246.06	20.29
246.276	19.75
246.492	17.26
246.709	17.58
246.925	16.51
247.141	17.08
247.357	15.01
247.574	14.3
247.79	14.43
248.006	13.19
248.222	12.18
248.439	11.48
248.655	12.33
248.871	12.51
249.087	12.48
249.303	12.69
249.519	11.46
249.736	13.59
249.952	14.06
250.168	15.47
250.384	16.67
250.6	17.31
250.816	18.34
251.032	16.7
251.248	17
251.464	14.78
251.68	14.7
251.896	16.35
252.112	15.74
252.328	18.05
252.544	17.91
252.76	18.84
252.976	19.19
253.192	18.59
253.408	18.97
253.624	22.24
253.84	24.32
254.056	27.42
254.272	28.08
254.487	28.63
254.703	25.06
254.919	23.81
255.135	23.67
255.351	25.67
255.567	28
255.782	30.61
255.998	25.04
256.214	24.4
256.43	20.53
256.646	20.73
256.861	21.17
257.077	21.54
257.293	19.05
257.508	16.84
257.724	18.34
257.94	16.42
258.155	15.26
258.371	15.98
258.587	14.76
258.802	14.23
259.018	14.62
259.234	13.05
259.449	13.06
259.665	12.99
259.88	13.45
260.096	12.56
260.312	11.98
260.527	11.7
260.743	12.02
260.958	12.58
261.174	12.72
261.389	12.84
261.605	13.72
261.82	13.73
262.036	14.63
262.251	15.96
262.466	15.64
262.682	18.18
262.897	18.46
263.113	18.68
263.328	19.13
263.543	20.08
263.759	20.32
263.974	20.05
264.189	21.49
264.405	21.83
264.62	21.42
264.835	22.87
265.051	21.52
265.266	22.2
265.481	22.34
265.696	21.32
265.912	20.44
266.127	19.07
266.342	17.65
266.557	16.58
266.773	16.43
266.988	15.89
267.203	14.86
267.418	14.2
267.633	13.97
267.848	14.88
268.064	14.26
268.279	14.47
268.494	14.6
268.709	15.81
268.924	16.28
269.139	17.12
269.354	16.44
269.569	15.55
269.784	16.29
269.999	16.19
270.214	15.86
270.429	16.44
270.644	15.08
270.859	13.62
271.074	13.23
271.289	13.86
271.504	13.59
271.719	13.65
271.934	13.43
272.149	12.26
272.363	12.44
272.578	10.77
272.793	10.41
273.008	9.82
273.223	10.03
273.438	9.47
273.653	9.26
273.867	7.44
274.082	7.4
274.297	7.85
274.512	9.31
274.726	8.1
274.941	9.19
275.156	10.64
275.371	13.65
275.585	14.33
275.8	15.53
276.015	15.12
276.229	16.26
276.444	16.02
276.659	16.45
276.873	14.99
277.088	15.36
277.302	15.55
277.517	15.71
277.732	15.59
277.946	15.23
278.161	14.6
278.375	14.14
278.59	13.35
278.804	12.78
279.019	13.32
279.233	14.51
279.448	15.49
279.662	13.8
279.877	11.87
280.091	10.43
280.306	10.36
280.52	11.09
280.735	10.93
280.949	12.4
281.163	13.43
281.378	12.39
281.592	11.41
281.806	12.26
282.021	12.33
282.235	12.77
282.449	13.8
282.664	14.45
282.878	13.39
283.092	13.81
283.307	12.65
283.521	13.48
283.735	14.11
283.949	14.69
284.164	12.89
284.378	13.4
284.592	12.78
284.806	12.26
285.02	11.45
285.234	11.46
285.449	11.39
285.663	11.12
285.877	10.09
286.091	9.63
286.305	9.38
286.519	9.43
286.733	8.84
286.947	9.51
287.161	9.73
287.375	10.92
287.589	11.61
287.803	11.07
288.017	12.38
288.231	11.97
288.445	12.58
288.659	13.01
288.873	12.94
289.087	14.4
289.301	14.02
289.515	13.47
289.729	12.22
289.943	11.91
290.157	12.54
290.371	13.38
290.584	13.75
290.798	14.16
291.012	14.84
291.226	14.94
291.44	15.21
291.654	16.11
291.867	16.52
292.081	16.77
292.295	16.87
292.509	17.13
292.722	15.66
292.936	15.77
293.15	15.3
293.364	13.71
293.577	14.38
293.791	12.99
294.005	13.25
294.218	12.96
294.432	13.45
294.645	13.85
294.859	12.62
295.073	13.04
295.286	13.33
295.5	12.05
295.713	13.13
295.927	11.87
296.14	12.06
296.354	11.18
296.568	10.66
296.781	10.38
296.994	10.06
297.208	10.47
297.421	10.23
297.635	9
297.848	9.73
298.062	9.19
298.275	10.58
298.489	10.5
298.702	10.21
298.915	11.18
299.129	11.39
299.342	11.54
299.555	11.88
299.769	12.54
299.982	13.83
300.195	14.26
300.409	14.63
300.622	14.09
300.835	15.57
301.048	16.25
301.262	15.12
301.475	14.4
301.688	14.65
301.901	15.62
302.115	15.41
302.328	15.85
302.541	15.7
302.754	15.78
302.967	16.23
303.18	14.68
303.393	14.91
303.607	14.93
303.82	15.15
304.033	14.4
304.246	13.77
304.459	13.63
304.672	13.21
304.885	13.26
305.098	12.5
305.311	11.33
305.524	12.87
305.737	12
305.95	12.94
306.163	12.72
306.376	12.86
306.589	12.07
306.802	12.09
307.015	11.8
307.228	10.74
307.44	10.47
307.653	9.85
307.866	6.87
308.079	8.93
308.292	9.85
308.505	10.62
308.718	11.74
308.93	11.78
309.143	11.5
309.356	10.86
309.569	11.59
309.781	12.59
309.994	13.16
310.207	14.28
310.42	12.34
310.632	11.14
310.845	11.09
311.058	9.52
311.27	10.37
311.483	10.94
311.696	11.81
311.908	11.55
312.121	10.83
312.333	11.73
312.546	12.1
312.759	13.2
312.971	13.35
313.184	13.47
313.396	14.33
313.609	14.15
313.821	13.1
314.034	13.89
314.246	13.98
314.459	14.12
314.671	13.98
314.884	12.73
315.096	11.25
315.309	11.37
315.521	11.42
315.733	10.72
315.946	9.18
316.158	9.54
316.371	8.92
316.583	9.11
316.795	9.01
317.008	8.53
317.22	10.8
317.432	10.47
317.644	10.24
317.857	10.04
318.069	9.6
318.281	10.58
318.494	11.09
318.706	11.77
318.918	11.47
319.13	12.64
319.342	13.61
319.555	12.79
319.767	15.33
319.979	15.27
320.191	15.34
320.403	15.69
320.615	15.68
320.827	15.4
321.039	14.24
321.252	14.32
321.464	12
321.676	11.28
321.888	11.75
322.1	10.88
322.312	10.18
322.524	9.86
322.736	10.61
322.948	9.6
323.16	9.38
323.372	10.24
323.584	10.4
323.796	11.12
324.007	11.52
324.219	10.33
324.431	10.68
324.643	11.45
324.855	10.93
325.067	10.64
325.279	11.06
325.491	12.1
325.702	11.09
325.914	10.75
326.126	11.5
326.338	10.4
326.55	10.7
326.761	10.61
326.973	10.9
327.185	11.47
327.396	11.83
327.608	11.86
327.82	10.72
328.032	10.96
328.243	11.45
328.455	12.19
328.666	12.99
328.878	13.1
329.09	11.88
329.301	11.35
329.513	10.56
329.725	11.4
329.936	11.65
330.148	11.81
330.359	10.58
330.571	10.6
330.782	9.95
330.994	9.91
331.205	10.46
331.417	10.92
331.628	11.06
331.84	12.41
332.051	11.85
332.262	11.91
332.474	11.86
332.685	13.6
332.897	12.8
333.108	12.86
333.319	12.71
333.531	11.75
333.742	12.23
333.953	11.43
334.165	10.47
334.376	10.51
334.587	10.66
334.799	11.19
335.01	10.59
335.221	10.97
335.432	10.86
335.644	9.85
335.855	10.49
336.066	10.37
336.277	11.19
336.488	11.18
336.7	10.96
336.911	10.84
337.122	10.26
337.333	10.91
337.544	11.72
337.755	11.59
337.966	11.83
338.177	11.83
338.388	11.89
338.599	12.2
338.811	12.41
339.022	12.29
339.233	13.35
339.444	14.1
339.655	12.14
339.866	11.08
340.076	11.32
340.287	12.75
340.498	12.8
340.709	12.69
340.92	11.99
341.131	12.11
341.342	12.14
341.553	10.63
341.764	10.43
341.975	12.12
342.185	13.06
342.396	12.71
342.607	12.21
342.818	11.95
343.029	11.62
343.239	11.91
343.45	12.22
343.661	11.57
343.872	11.15
344.082	10.79
344.293	10.66
344.504	10.5
344.714	9.67
344.925	8.63
345.136	8.56
345.346	8.5
345.557	8.94
345.768	8.38
345.978	7.9
346.189	8.43
346.399	8.37
346.61	8.69
346.821	9.01
347.031	9.82
347.242	10.16
347.452	10.5
347.663	10.4
347.873	10.31
348.084	10.16
348.294	11.5
348.504	11.91
348.715	12.11
348.925	11.42
349.136	9.59
349.346	8.79
349.557	9.68
349.767	9.53
349.977	9.75
350.188	10.12
350.398	10.81
350.608	11.01
350.819	10.05
351.029	9.68
351.239	9.92
351.449	10.72
351.66	11.7
351.87	11.44
352.08	10.87
352.29	10.59
352.501	9.22
352.711	9.3
352.921	9.04
353.131	9.78
353.341	10.15
353.552	10.01
353.762	9.89
353.972	9.92
354.182	10.33
354.392	10.53
354.602	10.41
354.812	11
355.022	10.55
355.232	10.26
355.442	10.2
355.652	9.71
355.862	8.96
356.072	9.4
356.282	8.67
356.492	8.4
356.702	8.42
356.912	9.12
357.122	8.63
357.332	9.1
357.542	9.07
357.752	8.69
357.962	8.73
358.171	9.09
358.381	9
358.591	9.15
358.801	8.04
359.011	8.4
359.221	8.01
359.43	8.63
359.64	8.41
359.85	8.14
360.06	8.08
360.269	8.56
360.479	8.45
360.689	8.09
360.899	8.29
361.108	8.79
361.318	8.68
361.528	8.58
361.737	8.06
361.947	7.55
362.156	7.68
362.366	7.99
362.576	7.85
362.785	7.92
362.995	7.9
363.204	7.87
363.414	8.08
363.623	8.01
363.833	7.99
364.042	7.7
364.252	7.98
364.461	7.92
364.671	7.55
364.88	8.09
365.09	8.13
365.299	8.68
365.509	8.18
365.718	7.7
365.927	7.61
366.137	7.64
366.346	8.49
366.555	8.82
366.765	8.86
366.974	9.27
367.183	8.56
367.393	7.92
367.602	7.49
367.811	8.08
368.021	8.09
368.23	7.91
368.439	7.71
368.648	7.74
368.857	7.76
369.067	7.55
369.276	7.49
369.485	7.71
369.694	7.97
369.903	7.95
370.112	7.48
370.321	7.67
370.531	7.62
370.74	7.81
370.949	7.26
371.158	7.15
371.367	7.51
371.576	7.41
371.785	7.01
371.994	7.19
372.203	7.12
372.412	7.16
372.621	7.11
372.83	7.21
373.039	7.27
373.248	7.49
373.457	7.3
373.666	6.92
373.874	7.05
374.083	7.55
374.292	7.78
374.501	7.7
374.71	7.65
374.919	7.97
375.128	8.1
375.336	8.11
375.545	8.05
375.754	7.84
375.963	7.82
376.171	7.74
376.38	7.68
376.589	7.77
376.798	7.5
377.006	7.56
377.215	7.33
377.424	6.95
377.632	6.64
377.841	6.78
378.05	6.99
378.258	7.2
378.467	7.31
378.675	7.25
378.884	6.86
379.093	7.19
379.301	7.23
379.51	7.13
379.718	7.31
379.927	7.59
380.135	7.46
380.344	7.43
380.552	6.71
380.761	6.38
380.969	5.81
381.177	6.09
381.386	6.05
381.594	5.82
381.803	5.83
382.011	5.71
382.219	5.29
382.428	4.31
382.636	4.11
382.845	5.23
383.053	5.16
383.261	5.34
383.469	5.53
383.678	5.53
383.886	5.55
384.094	5.25
384.302	5.39
384.511	5.63
384.719	6.59
384.927	6.3
385.135	6.12
385.343	6.26
385.552	6.15
385.76	5.6
385.968	5.37
386.176	5.39
386.384	5.49
386.592	5.21
386.8	5.15
387.008	5.09
387.216	5.57
387.424	5.23
387.633	5.39
387.841	5.6
388.049	5.88
388.257	5.96
388.465	6.01
388.672	6.22
388.88	6.35
389.088	6.2
389.296	6.01
389.504	5.88
389.712	6.08
389.92	5.86
390.128	5.74
390.336	5.81
390.544	6.18
390.751	6
390.959	5.87
391.167	5.59
391.375	5.53
391.583	5.33
391.79	5.27
391.998	5.28
392.206	5.21
392.414	5.09
392.621	4.98
392.829	5
393.037	5.12
393.244	5.03
393.452	5.25
393.66	5.49
393.867	5.83
394.075	5.78
394.283	5.53
394.49	5.64
394.698	5.58
394.905	5.54
395.113	5.21
395.32	5.21
395.528	5.21
395.735	5.25
395.943	4.93
396.15	4.55
396.358	4.76
396.565	4.7
396.773	4.87
396.98	4.94
397.188	4.7
397.395	4.66
397.602	4.49
397.81	4.34
398.017	4.35
398.225	4.39
398.432	4.68
398.639	4.52
398.847	4.57
399.054	4.25
399.261	4.23
399.468	4.48
399.676	4.45
399.883	4.53
400.09	4.63
400.297	4.54
400.505	4.61
400.712	4.4
400.919	4.39
401.126	4.68
401.333	4.62
401.54	4.67
401.748	4.76
401.955	4.93
402.162	5.02
402.369	5.09
402.576	5.3
402.783	5.53
402.99	5.63
403.197	5.62
403.404	5.19
403.611	5.36
403.818	5.39
404.025	5.25
404.232	5.07
404.439	4.95
404.646	4.82
404.853	4.64
405.06	4.51
405.267	4.28
405.474	4.28
405.681	4.35
405.887	4.03
406.094	3.93
406.301	4.03
406.508	3.93
406.715	4.15
406.922	4.18
407.128	4.13
407.335	4.14
407.542	4.32
407.749	4.15
407.955	4.46
408.162	4.58
408.369	4.68
408.575	4.47
408.782	4.49
408.989	4.33
409.195	4.37
409.402	4.43
409.609	4.55
409.815	4.58
410.022	4.74
410.228	4.47
410.435	4.6
410.642	4.44
410.848	4.82
411.055	4.69
411.261	4.8
411.468	5.1
411.674	5.01
411.881	4.89
412.087	5.1
412.294	4.94
412.5	4.78
412.706	4.87
412.913	4.88
413.119	4.62
413.326	4.76
413.532	4.89
413.738	4.47
413.945	4.59
414.151	4.48
414.357	4.51
414.564	4.49
414.77	4.67
414.976	4.35
415.182	4.63
415.389	4.65
415.595	4.64
415.801	4.14
416.007	4.2
416.214	4.15
416.42	4.2
416.626	3.87
416.832	3.98
417.038	3.71
417.244	3.99
417.45	3.81
417.657	3.75
417.863	3.89
418.069	4.1
418.275	4.2
418.481	4.08
418.687	4
418.893	4.04
419.099	3.94
419.305	4.17
419.511	4.09
419.717	4.16
419.923	4.03
420.129	3.92
420.335	3.97
420.541	3.89
420.746	3.93
420.952	4
421.158	4.04
421.364	4.03
421.57	4.1
421.776	4.05
421.982	3.97
422.187	3.92
422.393	3.96
422.599	3.79
422.805	3.86
423.01	3.89
423.216	3.73
423.422	3.58
423.628	3.6
423.833	3.48
424.039	3.39
424.245	3.42
424.45	3.62
424.656	3.63
424.862	3.74
425.067	3.77
425.273	3.71
425.478	3.89
425.684	4.07
425.889	4.25
426.095	4.33
426.301	4.45
426.506	4.44
426.712	4.48
426.917	4.38
427.123	4.47
427.328	4.41
427.533	4.57
427.739	4.56
427.944	4.55
428.15	4.33
428.355	4.26
428.561	4.1
428.766	4.06
428.971	3.9
429.177	4.17
429.382	4.22
429.587	4.28
429.793	4.25
429.998	4.29
430.203	4.26
430.408	4.42
430.614	4.55
430.819	4.69
431.024	4.87
431.229	4.93
431.434	4.92
431.64	4.71
431.845	4.66
432.05	4.61
432.255	4.64
432.46	4.48
432.665	4.28
432.87	4.19
433.076	4.23
433.281	4.26
433.486	4.19
433.691	3.99
433.896	3.77
434.101	3.75
434.306	3.75
434.511	3.51
434.716	3.71
434.921	3.85
435.126	3.68
435.331	3.66
435.535	3.53
435.74	3.57
435.945	3.8
436.15	3.94
436.355	4.03
436.56	4.2
436.765	4.34
436.97	4.18
437.174	4.15
437.379	4.32
437.584	4.44
437.789	4.38
437.993	4.32
438.198	4.17
438.403	4.35
438.608	4.42
438.812	4.11
439.017	4.18
439.222	4.2
439.426	4.18
439.631	4.29
439.836	4.13
440.04	4.19
440.245	4.22
440.45	4.23
440.654	4.13
440.859	3.93
441.063	4.13
441.268	4.07
441.472	4.09
441.677	4.03
441.881	3.87
442.086	3.88
442.29	3.83
442.495	3.83
442.699	3.92
442.904	3.86
443.108	3.91
443.312	3.76
443.517	3.74
443.721	3.63
443.925	3.73
444.13	3.82
444.334	3.79
444.538	3.73
444.743	3.65
444.947	3.52
445.151	3.57
445.356	3.52
445.56	3.54
445.764	3.53
445.968	3.53
446.173	3.5
446.377	3.45
446.581	3.46
446.785	3.47
446.989	3.58
447.193	3.59
447.398	3.55
447.602	3.69
447.806	3.8
448.01	3.89
448.214	4.03
448.418	4.05
448.622	4.14
448.826	4.2
449.03	4.32
449.234	4.46
449.438	4.41
449.642	4.54
449.846	4.45
450.05	4.39
450.254	4.21
450.458	4.24
450.662	4.21
450.866	4.08
451.069	4.05
451.273	4.02
451.477	3.81
451.681	3.94
451.885	3.81
452.089	3.85
452.292	3.76
452.496	3.95
452.7	3.88
452.904	3.96
453.107	4
453.311	4.07
453.515	4.14
453.719	4.09
453.922	4.03
454.126	4.08
454.33	3.97
454.533	3.97
454.737	3.83
454.94	3.86
455.144	3.9
455.348	3.9
455.551	3.86
455.755	3.6
455.958	3.63
456.162	3.64
456.365	3.65
456.569	3.67
456.772	3.75
456.976	3.71
457.179	3.7
457.383	3.64
457.586	3.73
457.79	3.73
457.993	3.86
458.196	3.83
458.4	3.9
458.603	3.9
458.807	4
459.01	4.05
459.213	4.1
459.417	3.99
459.62	4
459.823	3.9
460.026	3.92
460.23	3.93
460.433	3.98
460.636	3.9
460.839	3.95
461.042	3.88
461.246	3.87
461.449	3.82
461.652	3.96
461.855	3.83
462.058	3.83
462.261	3.75
462.464	3.66
462.668	3.75
462.871	3.82
463.074	3.87
463.277	3.6
463.48	3.57
463.683	3.56
463.886	3.51
464.089	3.46
464.292	3.64
464.495	3.8
464.698	3.86
464.901	3.7
465.104	3.59
465.306	3.49
465.509	3.84
465.712	3.87
465.915	3.91
466.118	3.94
466.321	3.97
466.524	3.91
466.726	3.93
466.929	3.95
467.132	4.08
467.335	4.05
467.538	4
467.74	3.92
467.943	3.84
468.146	3.93
468.348	3.91
468.551	3.98
468.754	3.93
468.956	3.71
469.159	3.77
469.362	3.74
469.564	3.83
469.767	3.92
469.969	3.93
470.172	3.78
470.375	3.68
470.577	3.67
470.78	3.76
470.982	3.78
471.185	3.87
471.387	3.9
471.59	3.87
471.792	3.87
471.995	3.87
472.197	3.72
472.399	3.74
472.602	3.7
472.804	3.71
473.007	3.65
473.209	3.59
473.411	3.67
473.614	3.58
473.816	3.53
474.018	3.51
474.22	3.54
474.423	3.81
474.625	3.94
474.827	4.18
475.03	4.21
475.232	4.27
475.434	4.44
475.636	4.38
475.838	4.3
476.04	4.32
476.243	4.18
476.445	4.21
476.647	4.13
476.849	4.1
477.051	3.96
477.253	3.9
477.455	3.87
477.657	3.66
477.859	3.66
478.061	3.75
478.263	3.63
478.465	3.73
478.667	3.56
478.869	3.42
479.071	3.34
479.273	3.33
479.475	3.27
479.677	3.33
479.879	3.28
480.081	3.28
480.283	3.22
480.485	3.21
480.686	3.21
480.888	3.23
481.09	3.35
481.292	3.34
481.494	3.34
481.695	3.4
481.897	3.16
482.099	3.19
482.301	3.17
482.502	3.13
482.704	3.2
482.906	3.2
483.107	3.22
483.309	3.13
483.511	3.21
483.712	3.21
483.914	3.15
484.115	3.2
484.317	3.18
484.519	3.13
484.72	3.12
484.922	3.07
485.123	3.1
485.325	3.05
485.526	3.08
485.728	3
485.929	2.97
486.131	3.03
486.332	3.01
486.534	3.01
486.735	3.09
486.936	3.02
487.138	3.07
487.339	3.02
487.541	3.04
487.742	3.06
487.943	3.08
488.144	3.05
488.346	3.03
488.547	3.03
488.748	3.11
488.95	3.04
489.151	3.17
489.352	3.16
489.553	3.19
489.755	3.26
489.956	3.22
490.157	3.26
490.358	3.29
490.559	3.35
490.76	3.32
490.961	3.24
491.163	3.29
491.364	3.36
491.565	3.32
491.766	3.32
491.967	3.33
492.168	3.4
492.369	3.42
492.57	3.36
492.771	3.34
492.972	3.4
493.173	3.48
493.374	3.46
493.575	3.39
493.776	3.37
493.976	3.45
494.177	3.41
494.378	3.47
494.579	3.52
494.78	3.84
494.981	3.8
495.182	3.73
495.382	3.79
495.583	3.75
495.784	3.67
495.985	3.73
496.185	3.68
496.386	3.56
496.587	3.58
496.788	3.48
496.988	3.36
497.189	3.43
497.39	3.46
497.59	3.42
497.791	3.5
497.992	3.55
498.192	3.6
498.393	3.61
498.593	3.71
498.794	3.59
498.994	3.66
499.195	3.57
499.395	3.55
499.596	3.62
499.796	3.63
499.997	3.68
500.197	3.77
500.398	3.83
500.598	3.85
500.799	3.82
500.999	3.84
501.199	3.72
501.4	3.81
501.6	3.88
501.801	3.91
502.001	3.88
502.201	3.96
502.402	3.91
502.602	3.83
502.802	3.91
503.002	4.03
503.203	4.09
503.403	4.14
503.603	4.12
503.803	4.02
504.003	4.01
504.204	4.13
504.404	3.97
504.604	3.87
504.804	4.03
505.004	3.88
505.204	3.94
505.404	3.89
505.604	4.11
505.804	4.1
506.005	4.09
506.205	3.97
506.405	3.95
506.605	4.16
506.805	4.3
507.005	4.26
507.204	4.34
507.404	4.25
507.604	4.3
507.804	4.13
508.004	4.16
508.204	4.19
508.404	4.27
508.604	4.19
508.804	4.14
509.003	4.1
509.203	4.13
509.403	4.06
509.603	4.11
509.803	4.25
510.002	4.24
510.202	4.25
510.402	4.23
510.602	4.27
510.801	4.37
511.001	4.33
511.201	4.43
511.4	4.3
511.6	4.47
511.8	4.4
511.999	4.35
512.199	4.3
512.398	4.29
512.598	4.43
512.797	4.45
512.997	4.47
513.197	4.51
513.396	4.48
513.596	4.63
513.795	4.54
513.994	4.54
514.194	4.53
514.393	4.6
514.593	4.61
514.792	4.58
514.992	4.58
515.191	4.49
515.39	4.38
515.59	4.26
515.789	4.15
515.988	4.16
516.188	4.25
516.387	4.19
516.586	4.23
516.786	4.27
516.985	4.3
517.184	4.34
517.383	4.52
517.582	4.6
517.782	4.76
517.981	4.71
518.18	4.69
518.379	4.73
518.578	4.64
518.777	4.69
518.976	4.63
519.176	4.69
519.375	4.72
519.574	4.62
519.773	4.68
519.972	4.59
520.171	4.65
520.37	4.65
520.569	4.61
520.768	4.67
520.967	4.68
521.166	4.74
521.365	4.63
521.564	4.57
521.762	4.66
521.961	4.52
522.16	4.46
522.359	4.56
522.558	4.65
522.757	4.72
522.956	4.75
523.154	4.69
523.353	4.76
523.552	4.73
523.751	4.88
523.949	4.82
524.148	4.93
524.347	4.98
524.546	4.83
524.744	4.75
524.943	4.7
525.142	4.78
525.34	4.87
525.539	4.83
525.737	4.93
525.936	4.87
526.135	4.88
526.333	4.76
526.532	4.7
526.73	4.82
526.929	4.75
527.127	4.76
527.326	4.67
527.524	4.65
527.723	4.63
527.921	4.62
528.12	4.59
528.318	4.58
528.516	4.63
528.715	4.65
528.913	4.56
529.112	4.58
529.31	4.55
529.508	4.61
529.707	4.59
529.905	4.6
530.103	4.59
530.301	4.61
530.5	4.63
530.698	4.65
530.896	4.75
531.094	4.91
531.293	4.94
531.491	5
531.689	4.96
531.887	5.04
532.085	5.06
532.283	5.11
532.481	5.18
532.68	5.14
532.878	5.13
533.076	5.09
533.274	5.06
533.472	5.17
533.67	5.17
533.868	5.23
534.066	5.21
534.264	5.16
534.462	5.19
534.66	5.13
534.858	5.18
535.056	5.18
535.253	5.14
535.451	5.15
535.649	5.09
535.847	5.22
536.045	5.13
536.243	5.28
536.441	5.39
536.638	5.35
536.836	5.44
537.034	5.43
537.232	5.51
537.43	5.61
537.627	5.69
537.825	5.69
538.023	5.63
538.22	5.91
538.418	5.78
538.616	5.9
538.813	6.07
539.011	6.1
539.209	6.15
539.406	6.19
539.604	6.26
539.801	6.3
539.999	6.37
540.196	6.44
540.394	6.36
540.591	6.38
540.789	6.38
540.986	6.23
541.184	6.26
541.381	6.26
541.579	6.29
541.776	6.26
541.974	6.21
542.171	6.25
542.368	6.23
542.566	6.19
542.763	6.27
542.96	6.22
543.158	6.35
543.355	6.42
543.552	6.54
543.75	6.65
543.947	6.62
544.144	6.66
544.341	6.65
544.539	6.75
544.736	6.91
544.933	6.78
545.13	6.86
545.327	6.86
545.524	6.81
545.722	6.83
545.919	6.74
546.116	6.95
546.313	6.93
546.51	7.07
546.707	7.01
546.904	7.01
547.101	7.08
547.298	7.14
547.495	7.16
547.692	7.1
547.889	7.03
548.086	7.17
548.283	7.21
548.48	7.43
548.677	7.35
548.874	7.33
549.07	7.32
549.267	7.43
549.464	7.36
549.661	7.36
549.858	7.54
550.055	7.86
550.251	7.7
550.448	7.7
550.645	7.75
550.842	7.91
551.038	8.14
551.235	8.1
551.432	8.1
551.628	8.18
551.825	8.37
552.022	8.36
552.218	8.33
552.415	8.53
552.612	8.5
552.808	8.3
553.005	8.26
553.201	8.4
553.398	8.45
553.594	8.38
553.791	8.54
553.987	8.54
554.184	8.56
554.38	8.36
554.577	8.35
554.773	8.41
554.97	8.6
555.166	8.79
555.362	8.73
555.559	8.95
555.755	9.17
555.952	9.04
556.148	9.21
556.344	9.28
556.541	9.45
556.737	9.5
556.933	9.67
557.129	9.46
557.326	9.43
557.522	9.58
557.718	9.71
557.914	9.86
558.11	10.02
558.307	9.85
558.503	9.96
558.699	10.08
558.895	10.29
559.091	10.26
559.287	10.45
559.483	10.44
559.679	10.43
559.876	10.35
560.072	10.54
560.268	10.59
560.464	10.55
560.66	10.55
560.856	10.57
561.052	10.63
561.247	10.82
561.443	10.96
561.639	10.94
561.835	10.98
562.031	10.9
562.227	10.8
562.423	11.03
562.619	11.29
562.815	11.41
563.01	11.61
563.206	11.47
563.402	11.23
563.598	11.25
563.793	11.26
563.989	11.22
564.185	11.28
564.381	11.38
564.576	11.35
564.772	11.43
564.968	11.46
565.163	11.29
565.359	11.26
565.555	11.37
565.75	11.55
565.946	11.56
566.141	11.63
566.337	11.72
566.532	11.91
566.728	11.98
566.923	11.91
567.119	11.77
567.314	11.77
567.51	11.89
567.705	11.97
567.901	11.88
568.096	12.05
568.292	12
568.487	11.97
568.682	11.75
568.878	11.78
569.073	11.92
569.268	12.11
569.464	12.28
569.659	12.39
569.854	12.58
570.05	12.76
570.245	12.81
570.44	12.88
570.635	13.03
570.831	13
571.026	13.07
571.221	13.14
571.416	13.13
571.611	13.07
571.806	13.06
572.002	13.07
572.197	13.02
572.392	12.97
572.587	13
572.782	12.96
572.977	13.2
573.172	13.25
573.367	13.2
573.562	13.26
573.757	13.28
573.952	13.4
574.147	13.5
574.342	13.63
574.537	13.87
574.732	14
574.927	14.01
575.121	13.99
575.316	13.87
575.511	13.97
575.706	14.01
575.901	14.22
576.096	14.31
576.29	14.33
576.485	14.42
576.68	14.59
576.875	14.52
577.069	14.68
577.264	14.67
577.459	14.95
577.654	15.03
577.848	15.17
578.043	15.2
578.238	15.15
578.432	14.9
578.627	14.82
578.821	14.67
579.016	14.96
579.21	15.2
579.405	15.28
579.6	15.24
579.794	15.12
579.989	15.17
580.183	15.45
580.378	15.51
580.572	15.86
580.766	15.97
580.961	16
581.155	15.91
581.35	15.72
581.544	15.62
581.738	15.62
581.933	16.02
582.127	16.33
582.321	16.07
582.516	15.94
582.71	16.09
582.904	16.11
583.099	16.26
583.293	16.4
583.487	16.69
583.681	17.07
583.875	17.26
584.07	17.08
584.264	16.72
584.458	16.75
584.652	17
584.846	16.77
585.04	16.86
585.234	16.72
585.428	16.72
585.623	16.47
585.817	16.22
586.011	16.16
586.205	16.38
586.399	16.5
586.593	16.7
586.787	16.7
586.981	16.78
587.174	16.78
587.368	16.91
587.562	17.02
587.756	17.18
587.95	17.29
588.144	17.37
588.338	17.49
588.532	17.68
588.725	17.81
588.919	17.95
589.113	17.84
589.307	17.9
589.501	17.73
589.694	17.83
589.888	17.77
590.082	17.94
590.275	18.12
590.469	17.99
590.663	17.65
590.856	17.62
591.05	17.48
591.244	17.57
591.437	17.62
591.631	17.83
591.824	17.75
592.018	17.97
592.212	18.05
592.405	17.8
592.599	17.78
592.792	18.16
592.986	18.26
593.179	18.56
593.372	18.46
593.566	18.72
593.759	18.78
593.953	18.67
594.146	18.46
594.339	18.44
594.533	18.72
594.726	18.82
594.92	18.66
595.113	18.52
595.306	18.29
595.499	18.47
595.693	18.3
595.886	18.3
596.079	18.51
596.272	18.69
596.466	18.7
596.659	18.65
596.852	18.68
597.045	18.87
597.238	18.89
597.431	19.1
597.624	19.14
597.818	19.13
598.011	19.15
598.204	19.15
598.397	19.23
598.59	19.2
598.783	19.28
598.976	19.28
599.169	19.42
599.362	19.5
599.555	19.5
599.748	19.79
599.941	19.86
600.134	19.88
600.326	20.12
600.519	20.19
600.712	20.24
600.905	20.07
601.098	20.24
601.291	20.16
601.483	20.01
601.676	20.02
601.869	20.01
602.062	20.12
602.255	20.13
602.447	20.07
602.64	19.86
602.833	20.17
603.025	20.26
603.218	20.16
603.411	20.26
603.603	20.43
603.796	20.41
603.989	20.56
604.181	20.5
604.374	20.74
604.566	20.68
604.759	20.8
604.951	20.52
605.144	20.51
605.336	20.56
605.529	20.4
605.721	20.29
605.914	20.31
606.106	20.16
606.299	20.21
606.491	20.18
606.683	20.26
606.876	20.19
607.068	20.46
607.26	20.58
607.453	20.76
607.645	21.07
607.837	21.22
608.03	21.48
608.222	21.39
608.414	21.5
608.606	21.42
608.799	21.6
608.991	21.58
609.183	21.51
609.375	21.54
609.567	21.35
609.759	21.34
609.952	21.54
610.144	21.53
610.336	21.53
610.528	21.46
610.72	21.35
610.912	21.31
611.104	21.62
611.296	21.73
611.488	21.72
611.68	21.91
611.872	21.82
612.064	21.78
612.256	21.66
612.448	21.93
612.64	21.8
612.832	22
613.023	21.93
613.215	21.9
613.407	21.84
613.599	22.07
613.791	22.02
613.983	22.06
614.174	22.01
614.366	22.16
614.558	22.06
614.75	22.06
614.941	22.08
615.133	22.18
615.325	22.13
615.516	22.22
615.708	21.87
615.9	21.85
616.091	21.83
616.283	21.77
616.475	21.75
616.666	21.93
616.858	22.12
617.049	21.95
617.241	21.73
617.432	21.95
617.624	21.98
617.815	22.21
618.007	22.5
618.198	22.6
618.39	22.79
618.581	22.76
618.773	22.79
618.964	23.1
619.155	23.42
619.347	23.69
619.538	23.64
619.729	23.57
619.921	23.56
620.112	23.28
620.303	23.31
620.494	23.47
620.686	23.42
620.877	23.27
621.068	22.99
621.259	23.02
621.451	23.05
621.642	22.89
621.833	22.99
622.024	23.14
622.215	23.49
622.406	23.87
622.597	23.98
622.788	23.98
622.98	23.99
623.171	24.25
623.362	24.09
623.553	24.3
623.744	24.17
623.935	24.43
624.126	24.3
624.317	24.07
624.508	23.85
624.698	23.67
624.889	23.95
625.08	24.15
625.271	24.22
625.462	24.5
625.653	24.26
625.844	24.42
626.034	24.14
626.225	24.14
626.416	24.17
626.607	23.98
626.798	24.06
626.988	24
627.179	24.08
627.37	23.97
627.56	23.72
627.751	23.92
627.942	24.06
628.132	24.08
628.323	24.16
628.514	24.2
628.704	24.39
628.895	24.27
629.085	24.16
629.276	24.16
629.466	24.25
629.657	24.71
629.847	24.53
630.038	24.53
630.228	24.7
630.419	24.79
630.609	24.72
630.8	24.61
630.99	24.78
631.181	25.03
631.371	25.1
631.561	25.15
631.752	25.3
631.942	25.37
632.132	25.37
632.323	25.43
632.513	25.36
632.703	25.85
632.893	25.96
633.084	25.9
633.274	25.8
633.464	25.43
633.654	25.52
633.844	25
634.034	25.01
634.225	24.94
634.415	24.97
634.605	25.2
634.795	24.87
634.985	25.06
635.175	24.99
635.365	24.92
635.555	25.19
635.745	24.94
635.935	24.95
636.125	25.02
636.315	25.31
636.505	25.42
636.695	25.18
636.885	25.18
637.075	25.21
637.265	25.56
637.455	25.45
637.644	25.47
637.834	25.82
638.024	26.03
638.214	26
638.404	25.73
638.593	25.55
638.783	25.89
638.973	26.31
639.163	25.9
639.352	25.63
639.542	26.3
639.732	26.31
639.921	26.36
640.111	26.56
640.301	26.49
640.49	26.52
640.68	26.65
640.87	26.59
641.059	26.34
641.249	26.99
641.438	27.14
641.628	26.68
641.817	26.53
642.007	26.43
642.196	26.53
642.386	26.79
642.575	27.25
642.764	26.81
642.954	26.35
643.143	26.71
643.333	26.45
643.522	26.57
643.711	26.58
643.901	26.82
644.09	26.91
644.279	26.96
644.469	27.07
644.658	26.99
644.847	27.51
645.036	28.01
645.226	27.53
645.415	27.86
645.604	27.84
645.793	28.08
645.982	27.9
646.171	27.84
646.361	27.86
646.55	28.02
646.739	27.97
646.928	28.12
647.117	28.26
647.306	28.28
647.495	28.16
647.684	28.02
647.873	28.24
648.062	28.61
648.251	28.72
648.44	28.48
648.629	28.07
648.818	28.22
649.007	27.85
649.196	27.78
649.384	28.02
649.573	27.55
649.762	27.72
649.951	27.86
650.14	27.67
650.328	27.67
650.517	27.9
650.706	28.14
650.895	28.29
651.083	28.64
651.272	28.27
651.461	28.38
651.65	29.08
651.838	29.29
652.027	28.89
652.216	28.68
652.404	28.89
652.593	28.61
652.781	28.36
652.97	27.97
653.158	27.99
653.347	28.6
653.535	28.32
653.724	27.71
653.912	27.41
654.101	27.74
654.289	28.07
654.478	27.78
654.666	28.25
654.855	28.47
655.043	28.26
655.231	28.08
655.42	28.34
655.608	28.74
655.796	28.66
655.985	28.88
656.173	28.86
656.361	29.08
656.55	29.08
656.738	28.87
656.926	29.24
657.114	29.95
657.302	30.22
657.491	29.56
657.679	29.04
657.867	29.23
658.055	28.92
658.243	28.73
658.431	28.57
658.619	28.67
658.807	28.68
658.996	28.35
659.184	28.06
659.372	28.04
659.56	28.19
659.748	28.14
659.936	28.25
660.124	28.52
660.311	28.76
660.499	29.02
660.687	29.03
660.875	29.17
661.063	29.36
661.251	29.49
661.439	29.15
661.627	29.32
661.814	29.82
662.002	29.96
662.19	29.87
662.378	29.48
662.565	29.52
662.753	29.79
662.941	29.66
663.129	29.87
663.316	30.2
663.504	30.2
663.692	30.37
663.879	30.04
664.067	29.97
664.254	30.09
664.442	30.03
664.63	29.6
664.817	29.5
665.005	29.5
665.192	29.05
665.38	28.73
665.567	29.11
665.755	28.95
665.942	29.38
666.13	29.83
666.317	29.91
666.504	30.18
666.692	30.51
666.879	30.55
667.067	30.45
667.254	30.64
667.441	30.37
667.629	30.28
667.816	30.12
668.003	30.17
668.19	29.98
668.378	29.92
668.565	30.03
668.752	29.64
668.939	29.49
669.127	29.83
669.314	30.04
669.501	30.45
669.688	30.38
669.875	30.57
670.062	30.59
670.249	30.82
670.436	30.79
670.623	31.03
670.81	31.65
670.997	31.87
671.184	31.9
671.371	32.08
671.558	32.01
671.745	32.32
671.932	32.57
672.119	32.5
672.306	31.99
672.493	32.13
672.68	32.19
672.867	32.22
673.054	32.04
673.24	32.16
673.427	32.1
673.614	31.88
673.801	32.41
673.988	32.43
674.174	32.71
674.361	32.84
674.548	32.77
674.734	32.56
674.921	32.22
675.108	32.64
675.294	32
675.481	31.85
675.668	31.97
675.854	30.77
676.041	30.5
676.227	30.36
676.414	30.61
676.601	30.79
676.787	30.97
676.974	31.38
677.16	31.32
677.347	31.75
677.533	31.54
677.719	31.58
677.906	32.13
678.092	32.19
678.279	31.72
678.465	31.47
678.651	31.22
678.838	31.23
679.024	30.81
679.21	30.51
679.397	30.6
679.583	30.94
679.769	31.44
679.955	31.4
680.142	31.68
680.328	32.17
680.514	32.38
680.7	32.11
680.886	32.26
681.073	32.44
681.259	32.41
681.445	32.52
681.631	32.31
681.817	31.82
682.003	31.94
682.189	31.88
682.375	31.75
682.561	31.44
682.747	32.2
682.933	32.2
683.119	32.44
683.305	32.58
683.491	32.12
683.677	32.09
683.863	32.31
684.049	32.19
684.235	32.07
684.42	32.18
684.606	32.2
684.792	32.08
684.978	31.73
685.164	31.56
685.349	31.49
685.535	32.26
685.721	32.51
685.907	32.44
686.092	32.77
686.278	32.74
686.464	32.33
686.649	32.65
686.835	32.38
687.021	33.08
687.206	33.2
687.392	33.33
687.577	33.15
687.763	33.15
687.948	32.92
688.134	32.67
688.319	32.75
688.505	33.31
688.69	33.16
688.876	33.27
689.061	33.08
689.247	32.56
689.432	33.09
689.618	33.4
689.803	33.61
689.988	33.73
690.174	34.15
690.359	34.35
690.544	33.96
690.73	34.27
690.915	34.71
691.1	34.48
691.285	34.89
691.471	34.67
691.656	34.16
691.841	33.91
692.026	34.18
692.211	34.46
692.396	34.58
692.582	34.64
692.767	34.72
692.952	34.25
693.137	34.17
693.322	34.24
693.507	34.18
693.692	34.45
693.877	34.39
694.062	34.51
694.247	34.02
694.432	34.07
694.617	34.69
694.802	34.81
694.987	35.37
695.172	35.62
695.357	35.6
695.541	35.86
695.726	35.94
695.911	36.33
696.096	36.18
696.281	36.52
696.466	36.14
696.65	35.69
696.835	35.44
697.02	35.01
697.204	35.06
697.389	35.26
697.574	34.68
697.759	34.64
697.943	34.4
698.128	34.52
698.312	34.25
698.497	33.9
698.682	33.88
698.866	33.85
699.051	33.92
699.235	33.65
699.42	33.54
699.604	33.91
699.789	33.53
699.973	33.46
700.158	33.38
700.342	33.64
700.527	34.13
700.711	34.47
700.895	34.3
701.08	34.61
701.264	34.95
701.448	34.73
701.633	34.5
701.817	34.71
702.001	35.16
702.186	35.07
702.37	34.61
702.554	34.49
702.738	34.58
702.923	34.95
703.107	35.18
703.291	35.29
703.475	35.4
703.659	35.36
703.843	35.44
704.027	35.64
704.212	36.22
704.396	36.58
704.58	36.55
704.764	36.75
704.948	36.49
705.132	36.04
705.316	36.21
705.5	36.65
705.684	37.17
705.868	37.6
706.052	36.98
706.235	36.36
706.419	36.2
706.603	36.5
706.787	35.71
706.971	36.2
707.155	35.83
707.339	35.85
707.522	36.02
707.706	35.94
707.89	35.61
708.074	35.57
708.257	35.68
708.441	36.07
708.625	35.99
708.808	36.64
708.992	36.6
709.176	36.91
709.359	36.74
709.543	36.39
709.727	36.91
709.91	36.85
710.094	37.32
710.277	37.83
710.461	37.44
710.644	37.52
710.828	37.1
711.011	36.81
711.195	36.51
711.378	36.27
711.562	36.51
711.745	36.25
711.928	36.7
712.112	36.04
712.295	35.79
712.478	35.85
712.662	35.97
712.845	35.93
713.028	36.64
713.212	36.85
713.395	37.08
713.578	37.2
713.761	36.92
713.945	36.43
714.128	37.07
714.311	37.48
714.494	38.14
714.677	38.01
714.86	38.24
715.043	37.86
715.227	37.93
715.41	37.89
715.593	37.4
715.776	37.65
715.959	38.01
716.142	37.47
716.325	37.18
716.508	36.57
716.691	36.77
716.874	36.35
717.057	36.56
717.239	36.59
717.422	36.92
717.605	37.54
717.788	37.51
717.971	37.98
718.154	38.31
718.337	38.69
718.519	38.53
718.702	38.2
718.885	38.55
719.068	38.01
719.25	38.13
719.433	37.56
719.616	36.99
719.798	36.38
719.981	36.72
720.164	36.8
720.346	36.91
720.529	37.45
720.712	37.96
720.894	38.37
721.077	38.85
721.259	39.13
721.442	39.93
721.624	40.4
721.807	40.66
721.989	40.04
722.172	40.78
722.354	40.18
722.537	40.14
722.719	39.15
722.901	39.06
723.084	39.11
723.266	38.56
723.448	38.67
723.631	38.89
723.813	38.44
723.995	38.26
724.178	37.43
724.36	37.73
724.542	37.48
724.724	38.57
724.907	38.96
725.089	38.55
725.271	39.29
725.453	38.45
725.635	38.26
725.817	40.34
725.999	40.51
726.181	41.1
726.364	40.6
726.546	40.99
726.728	41.12
726.91	40.42
727.092	40.71
727.274	40.65
727.456	41.04
727.638	41.55
727.819	40.17
728.001	40.46
728.183	40.33
728.365	40.31
728.547	39.98
728.729	39.75
728.911	40.18
729.093	40.33
729.274	38.86
729.456	38.78
729.638	38.36
729.82	38.12
730.001	37.84
730.183	38.43
730.365	38.53
730.546	38.97
730.728	38.99
730.91	38.63
731.091	38.74
731.273	39.62
731.455	39.36
731.636	39.43
731.818	39.65
731.999	39.46
732.181	38.31
732.362	38.27
732.544	38.5
732.725	38.35
732.907	38.44
733.088	38.26
733.27	38.55
733.451	38.48
733.633	39.18
733.814	39.45
733.995	39.94
734.177	40.8
734.358	40.57
734.539	40.63
734.721	39.92
734.902	39.06
735.083	38.9
735.264	39.1
735.446	39.84
735.627	38.47
735.808	38.18
735.989	37.83
736.17	37.59
736.351	38.28
736.533	37.76
736.714	38.2
736.895	39.88
737.076	40.29
737.257	40.46
737.438	40.24
737.619	41.78
737.8	42.25
737.981	42.48
738.162	42.33
738.343	42.12
738.524	41.91
738.705	42.2
738.886	41.42
739.067	41.43
739.247	40.81
739.428	40.93
739.609	40.12
739.79	39.89
739.971	39.35
740.151	40.2
740.332	41.25
740.513	41.3
740.694	42.09
740.874	41.79
741.055	41.57
741.236	41.38
741.417	41.37
741.597	41.46
741.778	41.38
741.958	41.94
742.139	41.86
742.32	41.22
742.5	41.05
742.681	40.96
742.861	41.74
743.042	42.16
743.222	43.37
743.403	42.5
743.583	42.13
743.764	42.27
743.944	41.9
744.124	40.92
744.305	39.83
744.485	40.32
744.666	39.66
744.846	39.36
745.026	39.87
745.207	38.95
745.387	39.89
745.567	41.08
745.747	41.33
745.928	41.23
746.108	41.76
746.288	42.66
746.468	42.61
746.648	42.92
746.829	43.44
747.009	42.99
747.189	43.81
747.369	43.82
747.549	42.95
747.729	43.18
747.909	43.47
748.089	43.52
748.269	43.45
748.449	43.46
748.629	43.05
748.809	43.45
748.989	42.89
749.169	42.56
749.349	42.61
749.529	42.72
749.709	41.64
749.889	42.2
750.068	41.37
750.248	42.27
750.428	41.77
750.608	42.43
750.788	40.72
750.967	40.07
751.147	40.21
751.327	40.49
751.507	39.6
751.686	40.52
751.866	40.71
752.046	41.5
752.225	41.41
752.405	41.74
752.585	41.47
752.764	41.72
752.944	42.68
753.123	42.16
753.303	42.2
753.482	42.86
753.662	42.49
753.841	41.65
754.021	42.49
754.2	41.71
754.38	41.9
754.559	41.66
754.739	41.99
754.918	41.53
755.097	41.41
755.277	41.78
755.456	42.32
755.635	42.72
755.815	42.98
755.994	42.02
756.173	42.09
756.352	41.89
756.532	41.63
756.711	41.63
756.89	41.78
757.069	42.31
757.248	41.2
757.427	40.47
757.607	40.89
757.786	40.73
757.965	40.47
758.144	40.92
758.323	42.82
758.502	43.14
758.681	43.36
758.86	43.67
759.039	43.36
759.218	44.51
759.397	44.78
759.576	43.9
759.755	43.69
759.934	44.1
760.113	43.68
760.291	41.96
760.47	41.7
760.649	42.46
760.828	42.99
761.007	43.57
761.186	42.79
761.364	42.1
761.543	41.84
761.722	41.66
761.901	40.87
762.079	40.29
762.258	40.11
762.437	40.16
762.615	39.59
762.794	38.76
762.972	38.6
763.151	38.37
763.33	39.08
763.508	39.24
763.687	39.3
763.865	39.79
764.044	39.49
764.222	39.6
764.401	39.58
764.579	39.35
764.758	39.48
764.936	39.68
765.114	39.5
765.293	38.75
765.471	39.46
765.65	39.7
765.828	40.17
766.006	41.32
766.184	41.56
766.363	41.5
766.541	41.32
766.719	42.23
766.898	42.03
767.076	42.7
767.254	43.81
767.432	43.76
767.61	44.13
767.788	43.18
767.967	42.87
768.145	43.04
768.323	43.93
768.501	44.71
768.679	43.98
768.857	43.47
769.035	43.02
769.213	43.22
769.391	42.95
769.569	42.28
769.747	42.79
769.925	43.31
770.103	42
770.281	42.14
770.459	42.09
770.636	42.67
770.814	43.61
770.992	44.2
771.17	43.62
771.348	43.76
771.525	45.13
771.703	45.27
771.881	45.96
772.059	47.01
772.236	46.49
772.414	47.09
772.592	46.12
772.769	45.44
772.947	45.32
773.125	44.1
773.302	43.03
773.48	43.21
773.657	43.32
773.835	41.71
774.013	42.77
774.19	44.26
774.368	42.95
774.545	44.12
774.723	44.32
774.9	44.36
775.077	45.96
775.255	46.87
775.432	47.44
775.61	47.93
775.787	48.07
775.964	48.33
776.142	47.61
776.319	49.57
776.496	49.21
776.674	49.09
776.851	48.65
777.028	47.58
777.205	47.98
777.382	47.03
777.56	46.75
777.737	48.66
777.914	46.54
778.091	46.49
778.268	45.48
778.445	47.14
778.622	47.34
778.8	48.98
778.977	50.56
779.154	55.34
779.331	54.89
779.508	54.32
779.685	53.54
779.862	55.04
780.038	54.5
780.215	55.5
780.392	53.31
780.569	53.16
780.746	52.8
780.923	51.96
781.1	48.68
781.277	50.17
781.453	49.45
781.63	48.73
781.807	48.49
781.984	47.61
782.16	46.83
782.337	47.31
782.514	47.05
782.691	48.48
782.867	48.78
783.044	46.94
783.221	46.59
783.397	48.41
783.574	48.01
783.75	49.29
783.927	51.55
784.103	52.64
784.28	53.56
784.456	54.58
784.633	53.06
784.809	52.47
784.986	50.93
785.162	50.75
785.339	48.35
785.515	48.94
785.692	47.05
785.868	44.76
786.044	45.21
786.221	44.53
786.397	42.93
786.573	42.29
786.749	42.8
786.926	45.12
787.102	42.58
787.278	45.3
787.454	45.34
787.631	46.1
787.807	46.13
787.983	46.16
788.159	45.48
788.335	46.81
788.511	46.31
788.687	46.41
788.863	46.09
789.039	46.96
789.216	47.49
789.392	47.72
789.568	48.33
789.744	49.6
789.919	48.48
790.095	48.74
790.271	49.66
790.447	50.24
790.623	50.36
790.799	50.21
790.975	50.12
791.151	49.62
791.327	50.78
791.502	50.92
791.678	49.47
791.854	49.55
792.03	49.76
792.205	50.31
792.381	53.09
792.557	53.81
792.733	53.42
792.908	54.37
793.084	53.77
793.259	53.69
793.435	53.14
793.611	55.9
793.786	56.31
793.962	56.44
794.137	55.66
794.313	51.69
794.488	51.75
794.664	52.96
794.839	52.42
795.015	51.24
795.19	50.81
795.366	51.23
795.541	50.05
795.716	48.62
795.892	49.44
796.067	48.28
796.242	49.5
796.418	49.58
796.593	49.64
796.768	50.38
796.944	52.28
797.119	50.49
797.294	48.85
797.469	49.27
797.644	50.85
797.82	50.94
797.995	49.02
798.17	48.21
798.345	47.69
798.52	46.68
798.695	46.59
798.87	45.57
799.045	45.81
799.22	47.66
799.395	47.85
799.57	47.63
799.745	46.38
799.92	49.03
800.095	50.84
800.27	49.82
800.445	50.97
800.62	49.32
800.795	50.56
800.97	54.44
801.145	51.71
801.319	52.56
801.494	53.18
801.669	53.09
801.844	52.52
802.018	50.35
802.193	51.62
802.368	50.67
802.543	51.47
802.717	51.4
802.892	48.85
803.067	52.16
803.241	50.73
803.416	51.41
803.59	52.28
803.765	53.09
803.94	56.22
804.114	55.37
804.289	56.26
804.463	57.12
804.638	55.51
804.812	56.5
804.986	52.85
805.161	52.87
805.335	50.58
805.51	50.12
805.684	47.84
805.858	45.35
806.033	44.29
806.207	42.51
806.381	42.94
806.556	42.94
806.73	40.8
806.904	42.1
807.078	40.47
807.253	39.33
807.427	39.36
807.601	39.81
807.775	42.09
807.949	43.98
808.123	46.51
808.298	46.63
808.472	48.14
808.646	47.97
808.82	48.06
808.994	50.14
809.168	52.12
809.342	52.74
809.516	54.57
809.69	52.58
809.864	51.75
810.038	51.12
810.212	50.93
810.385	51.4
810.559	55.33
810.733	57.04
810.907	56.88
811.081	55.82
811.255	56.26
811.428	55.53
811.602	56.5
811.776	57.97
811.95	57.58
812.123	58.26
812.297	57.67
812.471	55.67
812.644	54.99
812.818	54.85
812.992	55.37
813.165	57.15
813.339	56.2
813.512	54.27
813.686	52.62
813.86	54.54
814.033	55.38
814.207	54.85
814.38	53.09
814.554	54.4
814.727	55.49
814.9	56.72
815.074	56.41
815.247	59.44
815.421	59.51
815.594	61.06
815.767	57.79
815.941	55.65
816.114	57.08
816.287	60.38
816.46	57.57
816.634	56.88
816.807	58.13
816.98	55.2
817.153	54.99
817.327	56.24
817.5	56.13
817.673	59.47
817.846	60.83
818.019	61.09
818.192	59.79
818.365	57.08
818.538	57.09
818.711	51.98
818.884	55.02
819.057	53.38
819.23	51.86
819.403	50.9
819.576	48.59
819.749	46.99
819.922	46.02
820.095	44.28
820.268	45.79
820.441	45.51
820.614	45.06
820.786	43.87
820.959	43.23
821.132	42.97
821.305	41.77
821.477	41.32
821.65	41.65
821.823	41.18
821.996	39.82
822.168	39.12
822.341	38.73
822.514	39.1
822.686	38.46
822.859	38.47
823.031	38.55
823.204	38.81
823.376	38.87
823.549	38.78
823.722	38.57
823.894	39.22
824.067	39.57
824.239	40.01
824.411	40.61
824.584	41.05
824.756	41.35
824.929	41.92
825.101	42.08
825.273	42.34
825.446	42.2
825.618	42.06
825.79	42.73
825.963	42.72
826.135	41.88
826.307	41.36
826.479	41.74
826.652	41.98
826.824	41.35
826.996	41.3
827.168	40.61
827.34	40.59
827.512	41.28
827.684	40.72
827.856	41.22
828.029	43.2
828.201	43.02
828.373	42.13
828.545	42.22
828.717	41.86
828.889	42.4
829.061	43.67
829.232	44.69
829.404	44.96
829.576	45.44
829.748	44.97
829.92	44.29
830.092	45.74
830.264	47.14
830.436	47.13
830.607	48.36
830.779	49.57
830.951	50.25
831.123	48.07
831.294	47.82
831.466	47.14
831.638	47.56
831.809	47.29
831.981	47.05
832.153	46.16
832.324	45.7
832.496	47.55
832.667	46.8
832.839	45.61
833.011	46.15
833.182	46.69
833.354	48.96
833.525	51.31
833.697	49.57
833.868	47.88
834.039	48.66
834.211	49.19
834.382	46.26
834.554	46.02
834.725	45.71
834.896	47.36
835.068	46.69
835.239	46.01
835.41	45.43
835.581	46.59
835.753	47.55
835.924	46.76
836.095	46.88
836.266	48.44
836.438	48.54
836.609	50.02
836.78	48.39
836.951	50.61
837.122	49.63
837.293	50.37
837.464	48.51
837.635	48.86
837.806	50.24
837.977	52.16
838.148	54.77
838.319	55.69
838.49	55.51
838.661	58.02
838.832	56.02
839.003	57.29
839.174	57.06
839.345	58.01
839.516	60.63
839.687	66.35
839.857	63.61
840.028	61.41
840.199	59.42
840.37	58.43
840.54	59.03
840.711	57.42
840.882	59.81
841.053	59.23
841.223	60.42
841.394	57.46
841.564	52.04
841.735	52.04
841.906	52.73
842.076	48.52
842.247	50.68
842.417	50.75
842.588	54.98
842.758	50.28
842.929	50.88
843.099	55.81
843.27	59.61
843.44	61.94
843.611	62.99
843.781	60.61
843.951	65.16
844.122	63.84
844.292	65.87
844.462	65.78
844.633	74.16
844.803	72.61
844.973	73.65
845.144	68.28
845.314	65.5
845.484	59.04
845.654	61.84
845.824	65.44
845.995	69.95
846.165	63.68
846.335	64.83
846.505	65.62
846.675	67.8
846.845	70.74
847.015	75.55
847.185	74.98
847.355	83.69
847.525	90.25
847.695	98.16
847.865	95.33
848.035	107.04
848.205	96.02
848.375	94.22
848.545	78.47
848.715	73.95
848.884	73.06
849.054	77.89
849.224	76.53
849.394	75.79
849.564	68.14
849.733	72.7
849.903	73.19
850.073	75.82
850.243	71.35
850.412	76.58
850.582	77.17
850.752	79.58
850.921	78.26
851.091	82.11
851.26	80.66
851.43	78.39
851.599	67.15
851.769	67.22
851.939	68.84
852.108	79.13
852.278	88.55
852.447	82.54
852.616	79.51
852.786	77.37
852.955	75.54
853.125	81.73
853.294	83.6
853.463	85.04
853.633	80.71
853.802	77.98
853.971	70.15
854.141	71.13
854.31	67.71
854.479	69.65
854.648	70.95
854.818	67.41
854.987	55.8
855.156	59.72
855.325	67.09
855.494	73.51
855.663	82.16
855.832	82.28
856.001	88.55
856.171	97.1
856.34	90.9
856.509	87.88
856.678	91.36
856.847	103.66
857.016	97.74
857.185	95.61
857.353	97.86
857.522	107.98
857.691	107.88
857.86	100.13
858.029	92.29
858.198	108.65
858.367	115.95
858.535	112.26
858.704	109.99
858.873	110.88
859.042	117.93
859.21	113.34
859.379	108.58
859.548	104.41
859.717	105.45
859.885	115.16
860.054	101.13
860.222	89.52
860.391	103.92
860.56	92.46
860.728	94.66
860.897	82.24
861.065	87.38
861.234	80.89
861.402	83.49
861.571	82.79
861.739	84.98
861.908	93.69
862.076	104.32
862.244	98.52
862.413	96.55
862.581	97.91
862.749	98.27
862.918	84.19
863.086	86.08
863.254	92.89
863.423	92.64
863.591	89.58
863.759	83.82
863.927	81.75
864.096	78.71
864.264	84.23
864.432	79.43
864.6	83
864.768	93.72
864.936	96.46
865.104	87.3
865.272	87.14
865.44	89.37
865.608	84.94
865.776	89.79
865.944	104.22
866.112	102.69
866.28	108.4
866.448	108.78
866.616	94.74
866.784	97.17
866.952	102.34
867.12	102.59
867.288	105.78
867.455	112.22
867.623	115.64
867.791	94.53
867.959	92.32
868.127	85.05
868.294	90.81
868.462	89.94
868.63	86.73
868.797	86.24
868.965	88.26
869.133	85.59
869.3	89.75
869.468	84.39
869.636	80.27
869.803	93.7
869.971	106.3
870.138	103.58
870.306	104.87
870.473	103.18
870.641	101.55
870.808	92.7
870.975	98.09
871.143	92.24
871.31	89.09
871.478	106.5
871.645	91.76
871.812	81.99
871.98	76.44
872.147	80.54
872.314	74.36
872.482	73.88
872.649	77.05
872.816	70.06
872.983	67.74
873.15	72.46
873.318	66.09
873.485	76.3
873.652	84.91
873.819	101.91
873.986	114.41
874.153	112.63
874.32	110.54
874.487	115.07
874.654	108.12
874.821	114.81
874.988	110.89
875.155	117.31
875.322	117.4
875.489	120.91
875.656	111.61
875.823	100.98
875.99	99.96
876.157	103.76
876.324	102.5
876.49	107.22
876.657	103.02
876.824	105.49
876.991	102.83
877.157	93.88
877.324	95.12
877.491	91.63
877.658	95.08
877.824	95.75
877.991	91.51
878.157	84.31
878.324	77.81
878.491	82.9
878.657	81.41
878.824	83.12
878.99	82.37
879.157	87.76
879.323	82.35
879.49	79.71
879.656	84.96
879.823	84.85
879.989	89.27
880.156	89.92
880.322	80.93
880.488	76.34
880.655	73.6
880.821	74.22
880.987	67.77
881.154	68.73
881.32	64.66
881.486	62.59
881.652	58.05
881.819	54.66
881.985	53.39
882.151	53.26
882.317	52.4
882.483	48.74
882.649	47.88
882.816	47.7
882.982	48.1
883.148	47.48
883.314	45.98
883.48	46.7
883.646	47.11
883.812	46.03
883.978	45.47
884.144	45.75
884.31	45.58
884.476	46.73
884.642	46.33
884.807	47.15
884.973	47.26
885.139	47.14
885.305	47.59
885.471	47.42
885.637	46.9
885.802	48.31
885.968	47.67
886.134	49.47
886.3	46.79
886.465	45.46
886.631	42.62
886.797	44.25
886.962	43.91
887.128	44.06
887.293	45.35
887.459	49.68
887.625	49.16
887.79	51.06
887.956	48.29
888.121	52.55
888.287	56
888.452	60.9
888.618	60.24
888.783	67.23
