Data from LC_167_Reflection_1.txt Node
Date: Mon Nov 16 23:04:03 EST 2015
User: robert
Spectrometer: USB4E03001
Autoset integration time: false
Trigger mode: 4
Integration Time (sec): 1.000000E-1
Scans to average: 15
Electric dark correction enabled: true
Nonlinearity correction enabled: false
Boxcar width: 5
Stray light correction enabled: false
XAxis mode: Wavelengths
Stop averaging: false
Number of Pixels in Spectrum: 3648
>>>>>Begin Spectral Data<<<<<
177.566	3345.78
177.785	246.74
178.005	-3606.72
178.225	202.37
178.445	432.79
178.665	73.63
178.885	133.05
179.105	884.11
179.324	744.39
179.544	-126.83
179.764	-1076.43
179.984	-165.54
180.204	-124.31
180.423	-164.71
180.643	-220.92
180.863	-177.47
181.083	-112.98
181.302	-187.2
181.522	-120.69
181.742	-149.22
181.961	-307.33
182.181	-239.9
182.401	-416.79
182.621	-1960.54
182.84	-970.48
183.06	-603.1
183.279	-366.64
183.499	-280.84
183.719	-211.41
183.938	-230.45
184.158	-231.44
184.377	-118.13
184.597	-198.52
184.816	-123.27
185.036	-61.06
185.256	-46.44
185.475	-61.62
185.695	-134.79
185.914	-203.14
186.134	-425.11
186.353	-628.13
186.572	-897.21
186.792	-1476.53
187.011	-654.16
187.231	-579.31
187.45	-425.49
187.67	-1058.17
187.889	-2834.88
188.108	4524.05
188.328	-1108.07
188.547	-412.52
188.766	-670.35
188.986	-858.4
189.205	-684.01
189.424	-438.62
189.644	-1294.73
189.863	-1397.91
190.082	-983
190.302	-2156.54
190.521	-1303.78
190.74	1171.68
190.959	496.76
191.178	676.6
191.398	575.84
191.617	414.72
191.836	342.74
192.055	677.97
192.274	297.33
192.494	313.48
192.713	334.26
192.932	632.6
193.151	684.13
193.37	1382.73
193.589	-812.67
193.808	-234.31
194.027	-340.74
194.246	-3473.46
194.465	635.06
194.685	1734.14
194.904	978.1
195.123	-1288.25
195.342	-822.89
195.561	-342.19
195.78	-480.52
195.999	23080.28
196.218	709.32
196.436	599.32
196.655	-1882.73
196.874	-760.04
197.093	-1114.07
197.312	-700.82
197.531	2275.1
197.75	733.74
197.969	-2558.63
198.188	-560.09
198.407	-137.66
198.625	-194.33
198.844	-149.26
199.063	-159.82
199.282	-252.89
199.501	-101.94
199.719	-93.29
199.938	-38.16
200.157	-55.74
200.376	-47.34
200.594	-116.58
200.813	-225.3
201.032	-176.1
201.251	-217.82
201.469	-168.93
201.688	-155.6
201.907	-307
202.125	-406.76
202.344	15236.9
202.563	3032.16
202.781	505.47
203	1260.85
203.218	1135.4
203.437	965.39
203.656	452.22
203.874	290.19
204.093	307.52
204.311	392.07
204.53	413.52
204.748	640.86
204.967	371.8
205.185	384.19
205.404	455.94
205.622	277.91
205.841	231.71
206.059	256.06
206.278	372.97
206.496	693.1
206.715	388.19
206.933	310.39
207.151	236.01
207.37	300.04
207.588	284.03
207.806	247.9
208.025	563.03
208.243	-867.36
208.461	1279.67
208.68	-9720
208.898	487.38
209.116	556.77
209.335	489.28
209.553	570.97
209.771	6465
209.989	1456.32
210.208	2833.65
210.426	-5304.44
210.644	2962.75
210.862	-2662.92
211.081	1350.31
211.299	-709.19
211.517	3032.25
211.735	-861.81
211.953	-271057.14
212.171	-4646.08
212.39	-12818.92
212.608	-32656.52
212.826	1130.78
213.044	755.26
213.262	620.34
213.48	3256.96
213.698	385.73
213.916	552.74
214.134	369.67
214.352	695.67
214.57	430.85
214.788	524.64
215.006	429.62
215.224	339.35
215.442	285.33
215.66	253.24
215.878	228.06
216.096	198.18
216.314	170.41
216.532	359.73
216.75	330.64
216.968	309.1
217.185	819.6
217.403	1421.76
217.621	-4165.96
217.839	-1231.99
218.057	-1534.37
218.275	2242.38
218.492	701.87
218.71	1091.04
218.928	265.63
219.146	233.53
219.363	200.32
219.581	157.85
219.799	156.75
220.017	154.43
220.234	153.54
220.452	142.78
220.67	189.82
220.887	202.03
221.105	214.68
221.323	193.54
221.54	177.54
221.758	222.64
221.976	208.04
222.193	138.64
222.411	101.43
222.629	93.1
222.846	108.14
223.064	111.76
223.281	107.39
223.499	108.62
223.716	114.98
223.934	97.44
224.151	97.01
224.369	78.76
224.586	90.47
224.804	89.55
225.021	89.76
225.239	72.33
225.456	76.54
225.674	84.24
225.891	70.59
226.108	77.55
226.326	84.62
226.543	75.49
226.76	74.92
226.978	65.82
227.195	68.23
227.413	60.3
227.63	59.56
227.847	48.18
228.064	42.62
228.282	36.1
228.499	30.57
228.716	25.99
228.934	21.08
229.151	22.55
229.368	23.1
229.585	21.36
229.802	23.32
230.02	21.94
230.237	24.18
230.454	23.18
230.671	25.97
230.888	24.17
231.105	26.04
231.323	28.88
231.54	28.84
231.757	26.97
231.974	27.36
232.191	22.78
232.408	27.18
232.625	21.51
232.842	23.29
233.059	23.3
233.276	30.31
233.493	33.82
233.71	32.51
233.927	31.83
234.144	33.29
234.361	35.7
234.578	39.4
234.795	36.8
235.012	37.76
235.229	38.68
235.446	41.96
235.663	39.47
235.879	38.97
236.096	40.19
236.313	38.64
236.53	38.53
236.747	38.66
236.964	33.15
237.181	32.6
237.397	33.59
237.614	37.42
237.831	28.68
238.048	32.72
238.264	29.9
238.481	29.77
238.698	36.27
238.915	35.85
239.131	32.45
239.348	36.46
239.565	33.67
239.781	34.26
239.998	25.99
240.215	26.01
240.431	23.7
240.648	24.48
240.865	23.93
241.081	17.87
241.298	18.07
241.514	19.55
241.731	17.9
241.947	18.28
242.164	17.41
242.38	17.84
242.597	18.05
242.814	17.55
243.03	15.66
243.246	16.13
243.463	17.04
243.679	16.81
243.896	14.2
244.112	14.59
244.329	14.68
244.545	14.62
244.762	14.36
244.978	14.87
245.194	16
245.411	16.68
245.627	16.68
245.843	16.44
246.06	14.67
246.276	15.69
246.492	14.9
246.709	14.92
246.925	14.68
247.141	14.74
247.357	14.79
247.574	14.48
247.79	14.41
248.006	13.38
248.222	13.5
248.439	14.16
248.655	15.09
248.871	15.53
249.087	15.98
249.303	16.2
249.519	16.91
249.736	17.32
249.952	16.01
250.168	18.05
250.384	18.96
250.6	18.82
250.816	19.88
251.032	15.42
251.248	15.04
251.464	13.33
251.68	12.95
251.896	14.22
252.112	15.33
252.328	18.12
252.544	17.29
252.76	17.61
252.976	17.73
253.192	16.5
253.408	17.96
253.624	21.87
253.84	22.21
254.056	24.19
254.272	22.27
254.487	22.06
254.703	20.23
254.919	18.86
255.135	16.87
255.351	18.56
255.567	21.96
255.782	23.93
255.998	19.46
256.214	20.8
256.43	17.22
256.646	19.05
256.861	17.35
257.077	17.53
257.293	17.24
257.508	18.52
257.724	18.3
257.94	15.7
258.155	13.56
258.371	12.66
258.587	10.36
258.802	11.78
259.018	11.99
259.234	11.05
259.449	10.75
259.665	10.14
259.88	11.03
260.096	10.76
260.312	10.4
260.527	10.63
260.743	10.9
260.958	12.21
261.174	11.49
261.389	11.3
261.605	11.68
261.82	12.86
262.036	14.48
262.251	14.87
262.466	14.43
262.682	16.34
262.897	17.76
263.113	17.44
263.328	15.62
263.543	16.57
263.759	16.9
263.974	17.5
264.189	16.49
264.405	15.08
264.62	13.45
264.835	14.98
265.051	14.04
265.266	14.29
265.481	16.23
265.696	19.27
265.912	18.25
266.127	17.63
266.342	16.63
266.557	16.85
266.773	16.56
266.988	15.97
267.203	15.47
267.418	14.38
267.633	12.58
267.848	11.73
268.064	9.92
268.279	10.88
268.494	9.63
268.709	10.76
268.924	10.8
269.139	11.62
269.354	11.69
269.569	9.01
269.784	9.73
269.999	11.48
270.214	11.56
270.429	14.38
270.644	14
270.859	13.72
271.074	13.51
271.289	12.55
271.504	11.96
271.719	12.64
271.934	14.89
272.149	14.35
272.363	14.17
272.578	13.7
272.793	11.74
273.008	11.16
273.223	11.73
273.438	11.06
273.653	12.16
273.867	12.03
274.082	11.17
274.297	10.58
274.512	12.07
274.726	11.62
274.941	12.23
275.156	12.6
275.371	13.34
275.585	14.65
275.8	15.45
276.015	13.34
276.229	14.34
276.444	15.63
276.659	16.43
276.873	16.15
277.088	15.38
277.302	14.69
277.517	15.49
277.732	15.76
277.946	14.52
278.161	15.47
278.375	16.06
278.59	15.7
278.804	15.15
279.019	14.44
279.233	12.73
279.448	13.5
279.662	13.03
279.877	12.21
280.091	11.81
280.306	11.13
280.52	10.22
280.735	9.49
280.949	10.04
281.163	10.07
281.378	8.99
281.592	8.93
281.806	8.57
282.021	8.79
282.235	9.35
282.449	9.39
282.664	10.31
282.878	9.33
283.092	10.32
283.307	10.14
283.521	10.46
283.735	11.53
283.949	13.21
284.164	13.82
284.378	13.7
284.592	12.71
284.806	12.94
285.02	12.95
285.234	12.79
285.449	12.75
285.663	12.25
285.877	11.79
286.091	11.56
286.305	10.8
286.519	9.88
286.733	9.56
286.947	10.21
287.161	10.37
287.375	11.07
287.589	12.1
287.803	12.7
288.017	12.49
288.231	12.27
288.445	12.16
288.659	12.94
288.873	12.85
289.087	13.86
289.301	13.35
289.515	12.42
289.729	11.4
289.943	11.26
290.157	10.42
290.371	11.42
290.584	11.18
290.798	11.98
291.012	11.62
291.226	12.06
291.44	12.07
291.654	12.23
291.867	12.25
292.081	12.42
292.295	12.36
292.509	13.56
292.722	13.55
292.936	14.21
293.15	14.5
293.364	14.06
293.577	15.07
293.791	13.41
294.005	14.51
294.218	14.45
294.432	14.04
294.645	14.21
294.859	12.98
295.073	12.52
295.286	12.28
295.5	10.62
295.713	10.37
295.927	9.68
296.14	11.43
296.354	11.06
296.568	11.11
296.781	11.77
296.994	11.67
297.208	12.15
297.421	11.69
297.635	11.57
297.848	12.19
298.062	12.26
298.275	13.01
298.489	12.71
298.702	12.06
298.915	12.12
299.129	11.9
299.342	12.2
299.555	12.02
299.769	12.96
299.982	12.89
300.195	12.3
300.409	13.07
300.622	12.24
300.835	12.35
301.048	12.5
301.262	12.3
301.475	11.22
301.688	11.82
301.901	11.83
302.115	12.01
302.328	12.72
302.541	12.93
302.754	13.63
302.967	14.48
303.18	14.03
303.393	14.14
303.607	14.4
303.82	16.38
304.033	15.42
304.246	15.54
304.459	14.91
304.672	15.2
304.885	16.22
305.098	15.17
305.311	13.11
305.524	14.63
305.737	15.5
305.95	16.33
306.163	14.59
306.376	14.18
306.589	13.94
306.802	14.08
307.015	14.29
307.228	14.2
307.44	14.3
307.653	15.56
307.866	13.43
308.079	13.7
308.292	13.4
308.505	14.4
308.718	14.55
308.93	14.49
309.143	14.31
309.356	14.32
309.569	14.54
309.781	14.77
309.994	15.08
310.207	15.61
310.42	13.95
310.632	13.38
310.845	13.73
311.058	13.4
311.27	14.19
311.483	14.01
311.696	12.3
311.908	11.39
312.121	11.88
312.333	11.94
312.546	11.67
312.759	12.41
312.971	12.35
313.184	11.8
313.396	11.43
313.609	11.37
313.821	11.19
314.034	13.22
314.246	14.37
314.459	12.65
314.671	12.91
314.884	13.14
315.096	12.54
315.309	12.53
315.521	13.63
315.733	13.95
315.946	12.22
316.158	12.79
316.371	11.77
316.583	11.29
316.795	11.28
317.008	11.02
317.22	12.08
317.432	12.86
317.644	13.71
317.857	12.09
318.069	12.57
318.281	12.83
318.494	12.8
318.706	13.01
318.918	12.73
319.13	14.21
319.342	14.31
319.555	13.49
319.767	14.3
319.979	13.58
320.191	14.18
320.403	14.49
320.615	14.48
320.827	15.04
321.039	15.24
321.252	14.93
321.464	13.29
321.676	13.77
321.888	13.08
322.1	12.52
322.312	11.68
322.524	11.02
322.736	11.63
322.948	11.85
323.16	10.75
323.372	11
323.584	10.99
323.796	10.42
324.007	8.91
324.219	8.42
324.431	8.63
324.643	8.85
324.855	9.12
325.067	8.19
325.279	8.55
325.491	8.67
325.702	7.59
325.914	8
326.126	9.57
326.338	10.46
326.55	10.82
326.761	10.46
326.973	10.89
327.185	11.4
327.396	11.6
327.608	11.39
327.82	11.77
328.032	12.4
328.243	12.25
328.455	12.53
328.666	11.76
328.878	11.87
329.09	12.26
329.301	12.37
329.513	12.42
329.725	12.48
329.936	12.54
330.148	12.51
330.359	12.22
330.571	13.31
330.782	12.41
330.994	14.19
331.205	15.16
331.417	14.72
331.628	15.25
331.84	15.02
332.051	15.39
332.262	15.5
332.474	14.7
332.685	14.65
332.897	12.68
333.108	13.18
333.319	11.14
333.531	10.41
333.742	10.41
333.953	9.66
334.165	9.49
334.376	9.62
334.587	9.6
334.799	9.75
335.01	9.32
335.221	9.75
335.432	9.47
335.644	9.28
335.855	9.56
336.066	9.9
336.277	10.88
336.488	10.84
336.7	9.97
336.911	10.21
337.122	10.51
337.333	11.39
337.544	12.44
337.755	12.51
337.966	13.18
338.177	13.41
338.388	13.12
338.599	12.79
338.811	12.43
339.022	12.95
339.233	12.94
339.444	13.72
339.655	12.04
339.866	11.89
340.076	12.58
340.287	12.2
340.498	12.52
340.709	11.97
340.92	11.67
341.131	12.07
341.342	12.08
341.553	12.16
341.764	11.22
341.975	12.59
342.185	11.33
342.396	10.24
342.607	10.24
342.818	10.52
343.029	10.67
343.239	10.85
343.45	10.12
343.661	9.39
343.872	8.83
344.082	9.1
344.293	9.2
344.504	11.78
344.714	11.51
344.925	11.51
345.136	10.84
345.346	9.67
345.557	9.78
345.768	9.9
345.978	10.55
346.189	11.32
346.399	10.98
346.61	11.25
346.821	9.16
347.031	9.85
347.242	9.45
347.452	9.37
347.663	10.23
347.873	11.02
348.084	10.58
348.294	10.35
348.504	9.48
348.715	9.55
348.925	8.15
349.136	7.77
349.346	6.41
349.557	7.3
349.767	7.65
349.977	7.93
350.188	7.08
350.398	8.47
350.608	8.28
350.819	8.08
351.029	8.3
351.239	9.25
351.449	9.27
351.66	10.13
351.87	10.56
352.08	9.7
352.29	10.14
352.501	10.54
352.711	9.68
352.921	9.93
353.131	10.28
353.341	10.38
353.552	10.21
353.762	10.68
353.972	10.67
354.182	10.4
354.392	10.42
354.602	10.06
354.812	9.59
355.022	10.06
355.232	10.47
355.442	11.1
355.652	11.1
355.862	10.7
356.072	10.61
356.282	10.6
356.492	10.23
356.702	10.42
356.912	11.03
357.122	11.24
357.332	10.92
357.542	10.24
357.752	9.55
357.962	9.07
358.171	9.11
358.381	9.17
358.591	8.96
358.801	9.18
359.011	9.87
359.221	9.26
359.43	8.97
359.64	9.6
359.85	9.89
360.06	10.34
360.269	10.61
360.479	10.27
360.689	9.78
360.899	10
361.108	9.79
361.318	9.71
361.528	9.29
361.737	9.2
361.947	8.42
362.156	8.39
362.366	7.92
362.576	7.87
362.785	8.02
362.995	8.27
363.204	8.39
363.414	8.31
363.623	7.6
363.833	8.38
364.042	8.02
364.252	8.43
364.461	8.33
364.671	8.5
364.88	8.92
365.09	9.33
365.299	9.72
365.509	8.82
365.718	8.74
365.927	8.61
366.137	8.47
366.346	8.95
366.555	8.67
366.765	8.69
366.974	8.39
367.183	8.14
367.393	7.7
367.602	7.24
367.811	7.58
368.021	7.07
368.23	7.4
368.439	6.85
368.648	7.09
368.857	7.32
369.067	7.1
369.276	7.07
369.485	7.31
369.694	7.49
369.903	7.75
370.112	7.6
370.321	8.07
370.531	7.57
370.74	7.61
370.949	7.13
371.158	6.9
371.367	7.12
371.576	7.06
371.785	6.5
371.994	6.2
372.203	6.36
372.412	6.87
372.621	7.15
372.83	7.72
373.039	7.86
373.248	7.59
373.457	7.77
373.666	7.05
373.874	7.04
374.083	7.37
374.292	7.44
374.501	6.9
374.71	6.62
374.919	6.55
375.128	6.3
375.336	6.28
375.545	6.39
375.754	5.76
375.963	6.13
376.171	6.32
376.38	6.34
376.589	6.51
376.798	6.03
377.006	6.43
377.215	6.26
377.424	6.01
377.632	5.92
377.841	5.93
378.05	6.37
378.258	6.14
378.467	6.2
378.675	6.01
378.884	6.02
379.093	6.38
379.301	5.91
379.51	5.88
379.718	6.26
379.927	6.54
380.135	5.85
380.344	5.99
380.552	5.64
380.761	5.41
380.969	5.16
381.177	5.02
381.386	4.68
381.594	4.64
381.803	4.73
382.011	4.4
382.219	4.07
382.428	3.96
382.636	3.36
382.845	4.23
383.053	4.52
383.261	5.03
383.469	5.27
383.678	5.95
383.886	6.02
384.094	5.68
384.302	5.74
384.511	5.93
384.719	6.62
384.927	6.92
385.135	6.67
385.343	6.49
385.552	5.94
385.76	5.55
385.968	5.21
386.176	5.07
386.384	5.18
386.592	5.11
386.8	4.73
387.008	4.92
387.216	5.12
387.424	5.19
387.633	5.28
387.841	5.19
388.049	5.19
388.257	5.14
388.465	4.91
388.672	5.09
388.88	5.32
389.088	5.36
389.296	5
389.504	5.11
389.712	4.81
389.92	4.55
390.128	4.77
390.336	4.89
390.544	5.32
390.751	5.02
390.959	4.98
391.167	4.79
391.375	5.07
391.583	5.13
391.79	4.67
391.998	4.95
392.206	5.06
392.414	4.81
392.621	4.87
392.829	4.77
393.037	5.1
393.244	5.1
393.452	5.18
393.66	4.97
393.867	5.24
394.075	5.08
394.283	4.93
394.49	5.05
394.698	5.42
394.905	5.22
395.113	5.02
395.32	5.09
395.528	4.94
395.735	5.01
395.943	5
396.15	4.64
396.358	5.03
396.565	4.89
396.773	5.04
396.98	4.75
397.188	4.79
397.395	4.76
397.602	4.88
397.81	4.89
398.017	4.96
398.225	4.96
398.432	5.17
398.639	5.23
398.847	5.4
399.054	4.83
399.261	4.9
399.468	5
399.676	4.99
399.883	4.75
400.09	4.72
400.297	4.51
400.505	4.64
400.712	4.34
400.919	4.46
401.126	4.41
401.333	4.92
401.54	4.83
401.748	4.91
401.955	4.86
402.162	5.13
402.369	5.34
402.576	5.17
402.783	5.01
402.99	5.12
403.197	4.83
403.404	4.68
403.611	4.45
403.818	4.69
404.025	4.61
404.232	4.47
404.439	4.34
404.646	4.07
404.853	3.9
405.06	4.05
405.267	3.89
405.474	3.66
405.681	3.51
405.887	3.53
406.094	3.28
406.301	3.37
406.508	3.52
406.715	3.41
406.922	3.56
407.128	3.76
407.335	3.6
407.542	3.86
407.749	4.26
407.955	4.82
408.162	4.65
408.369	4.88
408.575	4.74
408.782	4.45
408.989	4.45
409.195	4.31
409.402	4.49
409.609	4.69
409.815	4.67
410.022	4.72
410.228	4.37
410.435	4.46
410.642	4.19
410.848	4.29
411.055	4.51
411.261	4.59
411.468	4.69
411.674	4.37
411.881	4.18
412.087	4.23
412.294	4.02
412.5	3.81
412.706	4.04
412.913	4.17
413.119	3.93
413.326	3.85
413.532	3.97
413.738	3.71
413.945	4.03
414.151	4.03
414.357	3.92
414.564	4
414.77	4.24
414.976	3.92
415.182	4.08
415.389	4.31
415.595	4.14
415.801	4.06
416.007	4.36
416.214	4.19
416.42	4.16
416.626	4.04
416.832	3.99
417.038	3.93
417.244	3.89
417.45	3.58
417.657	3.56
417.863	3.83
418.069	3.98
418.275	4
418.481	4.04
418.687	4.02
418.893	4.05
419.099	4.02
419.305	4.11
419.511	4.22
419.717	4.22
419.923	4.11
420.129	3.97
420.335	3.84
420.541	3.74
420.746	3.64
420.952	3.73
421.158	3.64
421.364	3.58
421.57	3.57
421.776	3.52
421.982	3.52
422.187	3.37
422.393	3.44
422.599	3.37
422.805	3.36
423.01	3.46
423.216	3.26
423.422	3.35
423.628	3.36
423.833	3.34
424.039	3.44
424.245	3.52
424.45	3.74
424.656	3.62
424.862	3.64
425.067	3.7
425.273	3.56
425.478	3.67
425.684	3.58
425.889	3.82
426.095	3.82
426.301	3.76
426.506	3.73
426.712	3.66
426.917	3.73
427.123	3.86
427.328	3.74
427.533	3.94
427.739	3.99
427.944	4.14
428.15	3.81
428.355	3.79
428.561	3.64
428.766	3.45
428.971	3.55
429.177	3.62
429.382	3.73
429.587	3.91
429.793	3.82
429.998	3.74
430.203	3.72
430.408	3.92
430.614	4.03
430.819	4.15
431.024	4.56
431.229	4.35
431.434	4.33
431.64	4.18
431.845	4.14
432.05	4.22
432.255	4.1
432.46	3.78
432.665	3.49
432.87	3.4
433.076	3.44
433.281	3.31
433.486	3.4
433.691	3.27
433.896	3.12
434.101	3.18
434.306	3.26
434.511	3.39
434.716	3.63
434.921	3.82
435.126	3.79
435.331	3.79
435.535	3.69
435.74	3.71
435.945	3.94
436.15	3.96
436.355	3.91
436.56	3.87
436.765	3.88
436.97	3.87
437.174	3.79
437.379	3.82
437.584	3.86
437.789	3.88
437.993	3.91
438.198	3.88
438.403	4.12
438.608	4.04
438.812	3.8
439.017	3.78
439.222	3.75
439.426	3.81
439.631	3.86
439.836	3.73
440.04	3.77
440.245	3.78
440.45	3.64
440.654	3.38
440.859	3.3
441.063	3.35
441.268	3.29
441.472	3.31
441.677	3.27
441.881	3.14
442.086	3.12
442.29	3.03
442.495	2.95
442.699	3.09
442.904	3.15
443.108	3.21
443.312	3.24
443.517	3.15
443.721	3.03
443.925	2.96
444.13	2.98
444.334	3.01
444.538	2.96
444.743	2.92
444.947	2.92
445.151	2.86
445.356	2.86
445.56	2.98
445.764	3.09
445.968	3.1
446.173	3.05
446.377	3.08
446.581	3.07
446.785	3.17
446.989	3.15
447.193	3.04
447.398	3.04
447.602	3.02
447.806	3.01
448.01	3.15
448.214	3.28
448.418	3.44
448.622	3.48
448.826	3.56
449.03	3.6
449.234	3.65
449.438	3.64
449.642	3.72
449.846	3.82
450.05	3.84
450.254	3.57
450.458	3.76
450.662	3.65
450.866	3.59
451.069	3.48
451.273	3.3
451.477	3.25
451.681	3.34
451.885	3.29
452.089	3.29
452.292	3.26
452.496	3.28
452.7	3.02
452.904	3.01
453.107	3
453.311	3.13
453.515	3.28
453.719	3.15
453.922	3.14
454.126	3.06
454.33	3.03
454.533	2.85
454.737	2.77
454.94	2.81
455.144	2.93
455.348	2.82
455.551	2.68
455.755	2.48
455.958	2.65
456.162	2.55
456.365	2.64
456.569	2.43
456.772	2.41
456.976	2.57
457.179	2.6
457.383	2.45
457.586	2.62
457.79	2.67
457.993	2.85
458.196	2.72
458.4	2.82
458.603	2.88
458.807	3.03
459.01	3.17
459.213	3.05
459.417	2.91
459.62	3
459.823	2.85
460.026	2.91
460.23	2.9
460.433	3
460.636	3.02
460.839	3.06
461.042	3.07
461.246	3.05
461.449	3.05
461.652	3.12
461.855	3.06
462.058	3.24
462.261	2.99
462.464	2.91
462.668	3.06
462.871	3.06
463.074	3.06
463.277	2.84
463.48	2.93
463.683	3.12
463.886	3.25
464.089	3.23
464.292	3.23
464.495	3.48
464.698	3.41
464.901	3.34
465.104	3.33
465.306	3.4
465.509	3.56
465.712	3.54
465.915	3.46
466.118	3.38
466.321	3.35
466.524	3.36
466.726	3.41
466.929	3.61
467.132	3.55
467.335	3.44
467.538	3.22
467.74	3.18
467.943	3.21
468.146	3.34
468.348	3.38
468.551	3.32
468.754	3.27
468.956	3.1
469.159	3.1
469.362	3.15
469.564	3.11
469.767	3.16
469.969	3.14
470.172	2.93
470.375	2.78
470.577	2.82
470.78	2.93
470.982	2.96
471.185	3.06
471.387	3.09
471.59	2.92
471.792	2.98
471.995	3.03
472.197	3.07
472.399	2.9
472.602	2.84
472.804	2.74
473.007	2.76
473.209	2.77
473.411	2.78
473.614	2.8
473.816	2.95
474.018	3.07
474.22	3.11
474.423	3.27
474.625	3.45
474.827	3.59
475.03	3.59
475.232	3.67
475.434	3.65
475.636	3.68
475.838	3.43
476.04	3.36
476.243	3.24
476.445	3.17
476.647	2.97
476.849	2.99
477.051	2.83
477.253	2.94
477.455	2.9
477.657	2.69
477.859	2.57
478.061	2.55
478.263	2.52
478.465	2.62
478.667	2.58
478.869	2.55
479.071	2.4
479.273	2.51
479.475	2.24
479.677	2.12
479.879	2.04
480.081	2.07
480.283	2.15
480.485	2.15
480.686	2.19
480.888	2.26
481.09	2.26
481.292	2.4
481.494	2.33
481.695	2.57
481.897	2.57
482.099	2.68
482.301	2.65
482.502	2.62
482.704	2.62
482.906	2.5
483.107	2.45
483.309	2.45
483.511	2.49
483.712	2.46
483.914	2.36
484.115	2.37
484.317	2.39
484.519	2.38
484.72	2.4
484.922	2.4
485.123	2.46
485.325	2.45
485.526	2.49
485.728	2.41
485.929	2.43
486.131	2.48
486.332	2.47
486.534	2.42
486.735	2.45
486.936	2.41
487.138	2.35
487.339	2.34
487.541	2.35
487.742	2.3
487.943	2.35
488.144	2.35
488.346	2.32
488.547	2.36
488.748	2.44
488.95	2.36
489.151	2.37
489.352	2.41
489.553	2.33
489.755	2.36
489.956	2.35
490.157	2.35
490.358	2.36
490.559	2.49
490.76	2.41
490.961	2.4
491.163	2.47
491.364	2.51
491.565	2.44
491.766	2.51
491.967	2.5
492.168	2.55
492.369	2.58
492.57	2.55
492.771	2.55
492.972	2.61
493.173	2.54
493.374	2.53
493.575	2.57
493.776	2.68
493.976	2.73
494.177	2.79
494.378	2.86
494.579	2.77
494.78	2.95
494.981	2.79
495.182	2.83
495.382	2.95
495.583	2.96
495.784	2.9
495.985	2.92
496.185	2.9
496.386	2.86
496.587	2.93
496.788	2.98
496.988	2.89
497.189	2.98
497.39	2.9
497.59	2.96
497.791	2.96
497.992	2.89
498.192	2.92
498.393	2.89
498.593	2.95
498.794	2.74
498.994	2.8
499.195	2.84
499.395	2.89
499.596	2.97
499.796	2.87
499.997	2.83
500.197	2.97
500.398	2.83
500.598	2.82
500.799	2.72
500.999	2.88
501.199	2.79
501.4	2.82
501.6	2.74
501.801	2.78
502.001	2.9
502.201	3.1
502.402	3.12
502.602	3.22
502.802	3.19
503.002	3.41
503.203	3.4
503.403	3.34
503.603	3.28
503.803	3.26
504.003	3.22
504.204	3.28
504.404	3.03
504.604	2.92
504.804	3.07
505.004	3.18
505.204	3.07
505.404	3.21
505.604	3.41
505.804	3.3
506.005	3.27
506.205	3.21
506.405	3.24
506.605	3.46
506.805	3.55
507.005	3.48
507.204	3.44
507.404	3.47
507.604	3.35
507.804	3.26
508.004	3.44
508.204	3.52
508.404	3.61
508.604	3.39
508.804	3.47
509.003	3.57
509.203	3.54
509.403	3.66
509.603	3.7
509.803	3.81
510.002	3.91
510.202	3.83
510.402	3.75
510.602	3.74
510.801	3.89
511.001	3.78
511.201	3.64
511.4	3.7
511.6	3.62
511.8	3.52
511.999	3.51
512.199	3.33
512.398	3.3
512.598	3.46
512.797	3.53
512.997	3.6
513.197	3.65
513.396	3.71
513.596	3.77
513.795	3.91
513.994	4.04
514.194	3.91
514.393	4.11
514.593	4.27
514.792	4.4
514.992	4.33
515.191	4.22
515.39	4.18
515.59	4.17
515.789	4.06
515.988	4.08
516.188	4.05
516.387	4.08
516.586	4.04
516.786	4.06
516.985	3.87
517.184	4.05
517.383	4.21
517.582	4.2
517.782	4.3
517.981	4.25
518.18	4.16
518.379	4.2
518.578	4.15
518.777	4.18
518.976	4.11
519.176	4.25
519.375	4.16
519.574	4.07
519.773	4.13
519.972	4.04
520.171	4.09
520.37	4.18
520.569	4.15
520.768	4.24
520.967	4.4
521.166	4.43
521.365	4.36
521.564	4.45
521.762	4.62
521.961	4.69
522.16	4.77
522.359	4.79
522.558	4.68
522.757	4.78
522.956	4.87
523.154	4.7
523.353	4.77
523.552	4.79
523.751	4.74
523.949	4.57
524.148	4.55
524.347	4.63
524.546	4.67
524.744	4.72
524.943	4.72
525.142	4.67
525.34	4.78
525.539	4.79
525.737	4.87
525.936	4.86
526.135	4.89
526.333	4.82
526.532	4.77
526.73	4.89
526.929	4.83
527.127	4.82
527.326	4.85
527.524	4.81
527.723	4.82
527.921	4.79
528.12	4.74
528.318	4.84
528.516	4.9
528.715	4.94
528.913	4.88
529.112	4.92
529.31	4.88
529.508	4.91
529.707	4.9
529.905	4.94
530.103	4.97
530.301	5.06
530.5	5.01
530.698	4.97
530.896	5.02
531.094	5.13
531.293	5.15
531.491	5.3
531.689	5.33
531.887	5.48
532.085	5.52
532.283	5.59
532.481	5.64
532.68	5.64
532.878	5.7
533.076	5.66
533.274	5.59
533.472	5.67
533.67	5.62
533.868	5.64
534.066	5.62
534.264	5.54
534.462	5.55
534.66	5.53
534.858	5.57
535.056	5.61
535.253	5.62
535.451	5.77
535.649	5.82
535.847	6
536.045	5.97
536.243	5.97
536.441	6.14
536.638	6.13
536.836	6.22
537.034	6.29
537.232	6.3
537.43	6.43
537.627	6.47
537.825	6.47
538.023	6.45
538.22	6.67
538.418	6.75
538.616	6.76
538.813	6.9
539.011	7.04
539.209	7.05
539.406	7.07
539.604	7.12
539.801	7.17
539.999	7.19
540.196	7.22
540.394	7.16
540.591	7.25
540.789	7.25
540.986	7.14
541.184	7.06
541.381	7.03
541.579	7.04
541.776	6.98
541.974	6.86
542.171	6.88
542.368	6.88
542.566	6.89
542.763	6.83
542.96	6.81
543.158	6.94
543.355	6.98
543.552	7.13
543.75	7.3
543.947	7.28
544.144	7.36
544.341	7.39
544.539	7.42
544.736	7.48
544.933	7.44
545.13	7.52
545.327	7.38
545.524	7.38
545.722	7.39
545.919	7.36
546.116	7.51
546.313	7.57
546.51	7.67
546.707	7.77
546.904	7.79
547.101	7.87
547.298	8
547.495	8.2
547.692	8.25
547.889	8.21
548.086	8.37
548.283	8.52
548.48	8.68
548.677	8.65
548.874	8.68
549.07	8.8
549.267	8.98
549.464	8.82
549.661	8.87
549.858	9.01
550.055	9.1
550.251	8.99
550.448	8.94
550.645	8.95
550.842	9.06
551.038	9.05
551.235	8.86
551.432	8.81
551.628	9.03
551.825	9.1
552.022	9.08
552.218	9.12
552.415	9.23
552.612	9.21
552.808	9.16
553.005	9.2
553.201	9.4
553.398	9.53
553.594	9.68
553.791	9.85
553.987	9.86
554.184	9.93
554.38	9.94
554.577	9.82
554.773	9.95
554.97	10.11
555.166	10.32
555.362	10.18
555.559	10.31
555.755	10.28
555.952	10.11
556.148	10.14
556.344	10.28
556.541	10.52
556.737	10.69
556.933	10.76
557.129	10.58
557.326	10.44
557.522	10.54
557.718	10.65
557.914	10.73
558.11	10.89
558.307	10.74
558.503	10.74
558.699	10.78
558.895	10.95
559.091	10.96
559.287	11.11
559.483	11.28
559.679	11.51
559.876	11.47
560.072	11.55
560.268	11.67
560.464	11.69
560.66	11.67
560.856	11.75
561.052	11.75
561.247	11.79
561.443	11.83
561.639	11.76
561.835	11.73
562.031	11.69
562.227	11.77
562.423	11.76
562.619	12.02
562.815	12.03
563.01	12.05
563.206	12
563.402	12.14
563.598	12.22
563.793	12.29
563.989	12.21
564.185	12.27
564.381	12.37
564.576	12.44
564.772	12.47
564.968	12.71
565.163	12.63
565.359	12.43
565.555	12.38
565.75	12.54
565.946	12.59
566.141	12.64
566.337	12.7
566.532	12.76
566.728	12.71
566.923	12.77
567.119	12.65
567.314	12.66
567.51	12.99
567.705	13.13
567.901	13.06
568.096	13.14
568.292	13.28
568.487	13.22
568.682	13.21
568.878	13.22
569.073	13.22
569.268	13.28
569.464	13.43
569.659	13.54
569.854	13.61
570.05	13.6
570.245	13.67
570.44	13.64
570.635	13.85
570.831	13.62
571.026	13.72
571.221	13.89
571.416	13.92
571.611	13.87
571.806	13.88
572.002	13.89
572.197	13.98
572.392	13.99
572.587	14.08
572.782	14.12
572.977	14.47
573.172	14.54
573.367	14.41
573.562	14.5
573.757	14.6
573.952	14.64
574.147	14.75
574.342	14.85
574.537	14.85
574.732	14.98
574.927	15
575.121	15.07
575.316	15.03
575.511	15.02
575.706	15.17
575.901	15.21
576.096	15.29
576.29	15.33
576.485	15.46
576.68	15.63
576.875	15.5
577.069	15.64
577.264	15.49
577.459	15.84
577.654	16.08
577.848	16.07
578.043	16.24
578.238	16.03
578.432	15.86
578.627	15.9
578.821	15.91
579.016	15.97
579.21	16.09
579.405	16.25
579.6	16.23
579.794	16.18
579.989	15.96
580.183	15.74
580.378	15.92
580.572	16.27
580.766	16.19
580.961	16.19
581.155	16.28
581.35	16.08
581.544	15.89
581.738	15.88
581.933	16.07
582.127	16.56
582.321	16.84
582.516	16.87
582.71	16.83
582.904	16.83
583.099	16.86
583.293	16.83
583.487	17
583.681	17.45
583.875	17.43
584.07	17.57
584.264	17.21
584.458	17.12
584.652	17.05
584.846	16.9
585.04	16.92
585.234	16.91
585.428	17.17
585.623	17.01
585.817	16.6
586.011	16.49
586.205	16.6
586.399	16.73
586.593	16.87
586.787	17.07
586.981	17.11
587.174	17.31
587.368	17.39
587.562	17.31
587.756	17.29
587.95	17.47
588.144	17.74
588.338	17.65
588.532	17.9
588.725	18.05
588.919	18.26
589.113	18.31
589.307	18.29
589.501	18.28
589.694	18.31
589.888	18.56
590.082	18.57
590.275	18.46
590.469	18.6
590.663	18.43
590.856	18.46
591.05	18.3
591.244	18.23
591.437	18.46
591.631	18.4
591.824	18.29
592.018	18.31
592.212	18.5
592.405	18.5
592.599	18.44
592.792	18.39
592.986	18.5
593.179	18.52
593.372	18.68
593.566	18.6
593.759	18.69
593.953	18.85
594.146	18.71
594.339	18.73
594.533	18.99
594.726	19.04
594.92	19.21
595.113	19.01
595.306	19.04
595.499	19
595.693	19.09
595.886	19.19
596.079	19.23
596.272	19.28
596.466	19.34
596.659	19.29
596.852	19.2
597.045	19.16
597.238	19.22
597.431	19.35
597.624	19.32
597.818	19.1
598.011	19.03
598.204	19.01
598.397	19.23
598.59	19.2
598.783	19.18
598.976	19.22
599.169	19.29
599.362	19.37
599.555	19.5
599.748	19.88
599.941	19.97
600.134	20
600.326	20.26
600.519	20.29
600.712	20.31
600.905	20.23
601.098	20.32
601.291	20.45
601.483	20.64
601.676	20.48
601.869	20.28
602.062	20.51
602.255	20.48
602.447	20.44
602.64	20.4
602.833	20.54
603.025	20.31
603.218	20.23
603.411	20.04
603.603	19.79
603.796	19.84
603.989	19.86
604.181	19.94
604.374	20.23
604.566	20.11
604.759	19.96
604.951	19.74
605.144	20.03
605.336	20.29
605.529	20.48
605.721	20.49
605.914	20.53
606.106	20.62
606.299	20.66
606.491	20.49
606.683	20.53
606.876	20.58
607.068	20.82
607.26	21.07
607.453	20.99
607.645	21.13
607.837	21.19
608.03	21.38
608.222	21.29
608.414	21.27
608.606	21.28
608.799	21.5
608.991	21.63
609.183	21.49
609.375	21.14
609.567	21.1
609.759	20.98
609.952	21.17
610.144	21.21
610.336	21.33
610.528	21.19
610.72	21.24
610.912	21.07
611.104	21.12
611.296	21.22
611.488	21.44
611.68	21.46
611.872	21.45
612.064	21.65
612.256	21.47
612.448	21.5
612.64	21.51
612.832	21.59
613.023	21.68
613.215	21.95
613.407	22.2
613.599	22.19
613.791	22.28
613.983	22.4
614.174	22.24
614.366	22.21
614.558	22.28
614.75	22.27
614.941	22.18
615.133	22.4
615.325	22.37
615.516	22.24
615.708	22.29
615.9	22.05
616.091	22.09
616.283	22.21
616.475	21.91
616.666	21.96
616.858	22.3
617.049	22.35
617.241	22.24
617.432	21.94
617.624	22.08
617.815	22.14
618.007	22.33
618.198	22.37
618.39	22.04
618.581	22.26
618.773	22.22
618.964	21.91
619.155	21.96
619.347	21.88
619.538	22.15
619.729	22.24
619.921	22.23
620.112	22.38
620.303	22.53
620.494	22.7
620.686	22.89
620.877	23.01
621.068	22.93
621.259	22.89
621.451	23.13
621.642	23.12
621.833	23.1
622.024	23.4
622.215	23.5
622.406	23.28
622.597	23.42
622.788	23.32
622.98	23.03
623.171	23.36
623.362	23.46
623.553	23.64
623.744	23.53
623.935	23.51
624.126	23.44
624.317	23.26
624.508	23.15
624.698	23.34
624.889	23.44
625.08	23.96
625.271	24.16
625.462	24.06
625.653	23.74
625.844	23.89
626.034	23.45
626.225	23.23
626.416	23.25
626.607	23.34
626.798	23.16
626.988	23.37
627.179	23.08
627.37	22.95
627.56	23.01
627.751	23.01
627.942	23.08
628.132	23.12
628.323	23.22
628.514	23.27
628.704	23.29
628.895	23.32
629.085	23.03
629.276	23.25
629.466	23.18
629.657	23.35
629.847	23.24
630.038	23.16
630.228	23.69
630.419	23.86
630.609	24.1
630.8	24.04
630.99	23.98
631.181	24.15
631.371	24.08
631.561	24.33
631.752	24.39
631.942	24.46
632.132	24.57
632.323	24.36
632.513	24.31
632.703	24.05
632.893	24.15
633.084	24.13
633.274	24.12
633.464	24.12
633.654	24.12
633.844	24.06
634.034	24.14
634.225	24.02
634.415	24.13
634.605	24.18
634.795	24.23
634.985	24.35
635.175	24.48
635.365	24.42
635.555	24.64
635.745	24.49
635.935	24.58
636.125	24.54
636.315	24.65
636.505	24.38
636.695	24.15
636.885	23.98
637.075	23.85
637.265	23.87
637.455	23.87
637.644	23.59
637.834	23.92
638.024	23.63
638.214	23.97
638.404	23.98
638.593	24.45
638.783	24.76
638.973	25.32
639.163	25.18
639.352	25.41
639.542	25.36
639.732	25.68
639.921	25.51
640.111	26.03
640.301	25.76
640.49	25.76
640.68	25.5
640.87	25.49
641.059	25.21
641.249	25.65
641.438	25.49
641.628	25.58
641.817	25.21
642.007	25.31
642.196	24.79
642.386	25.28
642.575	25.52
642.764	25.43
642.954	25.21
643.143	25.59
643.333	25.41
643.522	25.65
643.711	25.69
643.901	25.83
644.09	25.6
644.279	26.1
644.469	25.64
644.658	25.65
644.847	26.16
645.036	26.29
645.226	25.69
645.415	26.15
645.604	26.01
645.793	26.13
645.982	26.01
646.171	26.08
646.361	26.15
646.55	26.55
646.739	26.33
646.928	26.05
647.117	26
647.306	26.35
647.495	26.14
647.684	26.11
647.873	26.43
648.062	26.75
648.251	27.04
648.44	26.7
648.629	26.07
648.818	26.35
649.007	26.21
649.196	26.66
649.384	26.79
649.573	26.58
649.762	26.42
649.951	26.26
650.14	26.22
650.328	26.17
650.517	26.41
650.706	26.75
650.895	26.93
651.083	27.15
651.272	26.83
651.461	26.74
651.65	26.99
651.838	26.94
652.027	26.77
652.216	26.57
652.404	26.5
652.593	26.42
652.781	26.56
652.97	26.45
653.158	26.43
653.347	26.62
653.535	26.33
653.724	25.75
653.912	26.44
654.101	26.81
654.289	26.69
654.478	26.55
654.666	26.77
654.855	27.02
655.043	26.76
655.231	26.63
655.42	26.42
655.608	26.69
655.796	27.02
655.985	26.62
656.173	26.64
656.361	26.9
656.55	27.23
656.738	26.95
656.926	27.16
657.114	27.46
657.302	27.7
657.491	27.62
657.679	27.67
657.867	27.87
658.055	27.87
658.243	27.68
658.431	27.87
658.619	27.94
658.807	28.21
658.996	27.98
659.184	27.53
659.372	27.5
659.56	27.68
659.748	27.35
659.936	27.43
660.124	27.58
660.311	27.77
660.499	27.97
660.687	27.75
660.875	27.87
661.063	27.77
661.251	28.11
661.439	28.34
661.627	28.65
661.814	28.98
662.002	28.83
662.19	28.54
662.378	28.33
662.565	28.35
662.753	28.52
662.941	28.45
663.129	28.55
663.316	28.64
663.504	28.41
663.692	28.22
663.879	28.53
664.067	28.33
664.254	28.57
664.442	28.45
664.63	27.76
664.817	28.04
665.005	27.59
665.192	27.65
665.38	27.58
665.567	27.39
665.755	27.54
665.942	27.4
666.13	27.94
666.317	28.01
666.504	28.28
666.692	28.89
666.879	28.81
667.067	28.73
667.254	28.69
667.441	28.7
667.629	28.75
667.816	28.33
668.003	28.13
668.19	27.82
668.378	27.74
668.565	27.72
668.752	27.43
668.939	27.21
669.127	27.36
669.314	27.56
669.501	27.39
669.688	27.8
669.875	28.17
670.062	28.34
670.249	29.02
670.436	28.91
670.623	28.94
670.81	29
670.997	29.21
671.184	29.41
671.371	29.65
671.558	29.81
671.745	29.8
671.932	29.75
672.119	29.73
672.306	29.22
672.493	29.48
672.68	29.77
672.867	30.4
673.054	30.21
673.24	30.37
673.427	30.18
673.614	30.35
673.801	30.85
673.988	31.11
674.174	31.38
674.361	31.29
674.548	31.31
674.734	30.98
674.921	30.46
675.108	31.18
675.294	30.78
675.481	30.57
675.668	30.8
675.854	29.99
676.041	29.45
676.227	29.71
676.414	30.09
676.601	30.33
676.787	30.65
676.974	31.02
677.16	30.35
677.347	30.51
677.533	30.75
677.719	30.52
677.906	30.3
678.092	30.58
678.279	29.92
678.465	29.98
678.651	29.51
678.838	29.47
679.024	28.99
679.21	29.1
679.397	29.14
679.583	29.06
679.769	29.1
679.955	29.22
680.142	29.32
680.328	29.98
680.514	29.58
680.7	29.49
680.886	29.65
681.073	29.95
681.259	29.88
681.445	30.04
681.631	30.13
681.817	30.27
682.003	30.47
682.189	30.27
682.375	29.76
682.561	29.79
682.747	30.35
682.933	30.18
683.119	30.18
683.305	30.43
683.491	30.45
683.677	30.11
683.863	30.09
684.049	30.17
684.235	30.01
684.42	30.54
684.606	31.03
684.792	31.11
684.978	30.98
685.164	31.06
685.349	31.14
685.535	31.19
685.721	31.07
685.907	30.73
686.092	30.9
686.278	31.64
686.464	30.97
686.649	30.92
686.835	30.69
687.021	30.88
687.206	31.13
687.392	30.57
687.577	30.68
687.763	31.25
687.948	31.21
688.134	30.78
688.319	30.37
688.505	30.8
688.69	30.84
688.876	31.17
689.061	31.27
689.247	30.74
689.432	31.08
689.618	30.59
689.803	30.33
689.988	30.77
690.174	31.24
690.359	31.5
690.544	31.22
690.73	31.44
690.915	31.23
691.1	31.08
691.285	31.38
691.471	31.61
691.656	32.21
691.841	31.93
692.026	31.94
692.211	32.45
692.396	32.45
692.582	32.68
692.767	32.51
692.952	32.37
693.137	32.41
693.322	32.09
693.507	31.95
693.692	31.84
693.877	32.28
694.062	32.11
694.247	31.7
694.432	32.08
694.617	32.15
694.802	32.06
694.987	32.64
695.172	32.49
695.357	32.95
695.541	33.14
695.726	32.94
695.911	33.49
696.096	33.73
696.281	33.49
696.466	33.08
696.65	33.15
696.835	33.32
697.02	32.95
697.204	33.34
697.389	33.25
697.574	32.75
697.759	33
697.943	32.49
698.128	32.25
698.312	32.19
698.497	31.86
698.682	31.71
698.866	31.34
699.051	31.47
699.235	31.03
699.42	30.96
699.604	31.04
699.789	30.92
699.973	30.99
700.158	31.31
700.342	31.28
700.527	31.71
700.711	32.22
700.895	32.52
701.08	32.67
701.264	33.13
701.448	33.35
701.633	33.4
701.817	33.42
702.001	33.49
702.186	33.23
702.37	33.82
702.554	33.67
702.738	33.38
702.923	33.33
703.107	33.62
703.291	33.56
703.475	33.57
703.659	33.89
703.843	33.98
704.027	34.27
704.212	33.76
704.396	33.56
704.58	33.2
704.764	32.98
704.948	32.73
705.132	32.07
705.316	32.34
705.5	32.6
705.684	32.67
705.868	32.56
706.052	31.77
706.235	32.16
706.419	31.76
706.603	31.69
706.787	31.99
706.971	32.82
707.155	32.55
707.339	32.07
707.522	32.26
707.706	32.17
707.89	32.16
708.074	32.42
708.257	32.4
708.441	32.9
708.625	33.64
708.808	33.5
708.992	32.88
709.176	33.42
709.359	33.91
709.543	33.22
709.727	33.19
709.91	33.35
710.094	33.36
710.277	33.86
710.461	33.32
710.644	32.96
710.828	33.11
711.011	33.5
711.195	33.17
711.378	32.92
711.562	33.33
711.745	33.42
711.928	33.08
712.112	33.04
712.295	32.81
712.478	33.31
712.662	34.18
712.845	34.13
713.028	33.89
713.212	34.17
713.395	33.89
713.578	33.88
713.761	33.93
713.945	33.99
714.128	34.27
714.311	34.41
714.494	34.41
714.677	33.92
714.86	34.23
715.043	34.35
715.227	34.39
715.41	34.85
715.593	35.12
715.776	34.9
715.959	35.16
716.142	35.55
716.325	35.66
716.508	35.43
716.691	35.47
716.874	35.18
717.057	35.17
717.239	35.04
717.422	34.94
717.605	34.53
717.788	35.18
717.971	35.59
718.154	35.57
718.337	35.92
718.519	35.77
718.702	36.06
718.885	35.31
719.068	35.54
719.25	35.83
719.433	36.18
719.616	36.17
719.798	34.64
719.981	34.74
720.164	34.5
720.346	33.69
720.529	34.54
720.712	34.14
720.894	35.18
721.077	34.8
721.259	34.5
721.442	34.98
721.624	35.52
721.807	37.57
721.989	36.49
722.172	36.63
722.354	37.06
722.537	37.18
722.719	36.76
722.901	37.05
723.084	37.56
723.266	37.07
723.448	36.34
723.631	35.89
723.813	35.13
723.995	35.79
724.178	35.9
724.36	36.02
724.542	35.3
724.724	36.3
724.907	35.98
725.089	35.16
725.271	36.2
725.453	36.4
725.635	37.17
725.817	37.62
725.999	37.92
726.181	38.17
726.364	38.29
726.546	38.4
726.728	38.46
726.91	38.26
727.092	38.63
727.274	38.56
727.456	38.44
727.638	37.71
727.819	37.15
728.001	36.82
728.183	37.16
728.365	36.95
728.547	37.19
728.729	37.08
728.911	37.87
729.093	37.8
729.274	37.27
729.456	37.28
729.638	37.81
729.82	38.13
730.001	38.2
730.183	38.15
730.365	37.99
730.546	38.11
730.728	37.52
730.91	36.54
731.091	36.59
731.273	36.59
731.455	36.66
731.636	36.32
731.818	36.63
731.999	37.01
732.181	36.38
732.362	36.34
732.544	37.13
732.725	37.11
732.907	37.4
733.088	38.39
733.27	39.03
733.451	39.14
733.633	40.66
733.814	39.96
733.995	40.39
734.177	40.61
734.358	40.71
734.539	39.99
734.721	40.24
734.902	40.54
735.083	40.39
735.264	41.45
735.446	41.47
735.627	39.86
735.808	39.94
735.989	39.43
736.17	39.71
736.351	39.78
736.533	38.97
736.714	39.02
736.895	38.88
737.076	38.52
737.257	37.32
737.438	36.72
737.619	37.73
737.8	38.51
737.981	38.57
738.162	38.51
738.343	38.87
738.524	39.78
738.705	40.16
738.886	40.88
739.067	40.72
739.247	40.9
739.428	41.96
739.609	41.04
739.79	41.16
739.971	40.6
740.151	41.46
740.332	42.15
740.513	41.18
740.694	41.76
740.874	40.98
741.055	40.64
741.236	40.08
741.417	40.07
741.597	39.34
741.778	39.44
741.958	39.88
742.139	38.72
742.32	38.47
742.5	39.8
742.681	39.65
742.861	38.83
743.042	38.88
743.222	39.29
743.403	38.91
743.583	39.72
743.764	39.35
743.944	39.38
744.124	39.86
744.305	39.05
744.485	38.86
744.666	37.83
744.846	39.41
745.026	40.41
745.207	39.62
745.387	39.77
745.567	40.3
745.747	40.73
745.928	40.38
746.108	40.13
746.288	39.87
746.468	39.71
746.648	39.91
746.829	38.97
747.009	38.97
747.189	39.78
747.369	40.53
747.549	40
747.729	40.1
747.909	40.04
748.089	40.85
748.269	40.69
748.449	41.17
748.629	41.38
748.809	41.26
748.989	40.63
749.169	40.94
749.349	40.01
749.529	40.54
749.709	39.28
749.889	39.76
750.068	38.45
750.248	38.83
750.428	39.37
750.608	38.93
750.788	38.44
750.967	38.48
751.147	37.57
751.327	37.63
751.507	36.8
751.686	37.95
751.866	38.94
752.046	39.89
752.225	40.09
752.405	40.6
752.585	41.57
752.764	42.39
752.944	42.81
753.123	43.03
753.303	42.55
753.482	43.45
753.662	42.37
753.841	41.1
754.021	41.07
754.2	41.21
754.38	40.03
754.559	39.64
754.739	39.01
754.918	38.61
755.097	39.65
755.277	40.66
755.456	40.85
755.635	41.07
755.815	41.19
755.994	40.25
756.173	39.85
756.352	38.59
756.532	38.35
756.711	39.18
756.89	38.91
757.069	38.7
757.248	37.13
757.427	35.95
757.607	36.46
757.786	36.75
757.965	36.55
758.144	37.33
758.323	39.18
758.502	39.5
758.681	39.42
758.86	39.74
759.039	39.44
759.218	40.39
759.397	41.43
759.576	41.03
759.755	40.76
759.934	41.02
760.113	41.06
760.291	39.53
760.47	39.52
760.649	39.49
760.828	39.45
761.007	39.64
761.186	39.59
761.364	38.83
761.543	38.85
761.722	38.69
761.901	38.19
762.079	37.39
762.258	38.36
762.437	38.31
762.615	37.85
762.794	37.73
762.972	36.96
763.151	36.78
763.33	37.19
763.508	37.24
763.687	37.35
763.865	38.29
764.044	39.11
764.222	38.84
764.401	38.92
764.579	39.56
764.758	39.38
764.936	39.98
765.114	39.9
765.293	39.29
765.471	39.86
765.65	40.19
765.828	40.09
766.006	39.75
766.184	40.11
766.363	40.42
766.541	39.86
766.719	40.19
766.898	40.21
767.076	40.69
767.254	41.2
767.432	41.37
767.61	41.13
767.788	40.27
767.967	40.25
768.145	39.7
768.323	39.52
768.501	39.72
768.679	40.14
768.857	39.41
769.035	39.4
769.213	39.42
769.391	39.33
769.569	38.95
769.747	41.27
769.925	41.4
770.103	41.27
770.281	39.58
770.459	40.74
770.636	41.27
770.814	42.03
770.992	42.58
771.17	42.96
771.348	43.43
771.525	45.03
771.703	43.34
771.881	43.63
772.059	44.55
772.236	45.77
772.414	43.95
772.592	42.19
772.769	41.66
772.947	40.04
773.125	40.33
773.302	39.06
773.48	37.7
773.657	38.13
773.835	37.14
774.013	36.97
774.19	37.56
774.368	38.14
774.545	39.95
774.723	40.71
774.9	42.62
775.077	42
775.255	42.69
775.432	44.03
775.61	45.41
775.787	46.05
775.964	45.44
776.142	45.88
776.319	45.97
776.496	46.94
776.674	47.03
776.851	47.94
777.028	48.95
777.205	48.65
777.382	47.46
777.56	45
777.737	48.05
777.914	48.56
778.091	47.52
778.268	48.54
778.445	48.62
778.622	47.65
778.8	46.15
778.977	45.42
779.154	51.25
779.331	52.39
779.508	53.51
779.685	50.61
779.862	50.59
780.038	51.26
780.215	51.45
780.392	49.76
780.569	50.4
780.746	50.45
780.923	50.18
781.1	46
781.277	44.8
781.453	45.04
781.63	43.76
781.807	43.16
781.984	43.47
782.16	42.59
782.337	43.4
782.514	43.5
782.691	45
782.867	45.22
783.044	42.63
783.221	43.26
783.397	42.94
783.574	43.52
783.75	45.3
783.927	45.52
784.103	46.04
784.28	45.95
784.456	45.79
784.633	44.51
784.809	45.14
784.986	45.04
785.162	45.37
785.339	43.46
785.515	43.61
785.692	39.75
785.868	38.42
786.044	39.71
786.221	39.06
786.397	40.43
786.573	39.27
786.749	38.36
786.926	41.65
787.102	41.88
787.278	43.99
787.454	45.47
787.631	49
787.807	49.23
787.983	48.63
788.159	47.93
788.335	47.42
788.511	48.3
788.687	48.29
788.863	46.92
789.039	46.84
789.216	46.15
789.392	46.14
789.568	46.06
789.744	46.54
789.919	46.19
790.095	46.26
790.271	46.76
790.447	47.2
790.623	47.87
790.799	48.63
790.975	47.17
791.151	48.56
791.327	47.15
791.502	45.99
791.678	44.98
791.854	44.48
792.03	45.59
792.205	46.3
792.381	46.74
792.557	47.19
792.733	47.15
792.908	49.02
793.084	46.92
793.259	49.37
793.435	48.35
793.611	47.46
793.786	47.66
793.962	47.21
794.137	46.19
794.313	44.56
794.488	43.4
794.664	43.63
794.839	42.25
795.015	45.16
795.19	43.67
795.366	45.38
795.541	46.75
795.716	47.17
795.892	48.27
796.067	47.79
796.242	49.45
796.418	49.26
796.593	48.59
796.768	50.41
796.944	48.96
797.119	48.96
797.294	49.25
797.469	49.76
797.644	50.39
797.82	49.58
797.995	48.19
798.17	46.06
798.345	47.16
798.52	45.73
798.695	45.81
798.87	46.14
799.045	46.39
799.22	45.96
799.395	46.7
799.57	45.42
799.745	45.45
799.92	47.55
800.095	51.17
800.27	51.17
800.445	52.19
800.62	49.37
800.795	50.24
800.97	50.99
801.145	49.72
801.319	49.88
801.494	50.04
801.669	51.82
801.844	51.4
802.018	49.16
802.193	49.1
802.368	49.77
802.543	51.63
802.717	51.47
802.892	52.95
803.067	53.06
803.241	50.98
803.416	54.51
803.59	53.02
803.765	54.82
803.94	55.97
804.114	55.44
804.289	55.16
804.463	54.16
804.638	52.18
804.812	49.92
804.986	50.47
805.161	51.76
805.335	49.37
805.51	47.79
805.684	45.8
805.858	43.77
806.033	43.88
806.207	42.24
806.381	44.31
806.556	45.55
806.73	45.31
806.904	47.1
807.078	46.87
807.253	47.75
807.427	48.21
807.601	47.1
807.775	49.21
807.949	49.42
808.123	52.09
808.298	51.75
808.472	51.98
808.646	52.17
808.82	50.93
808.994	50.03
809.168	49.93
809.342	52.44
809.516	54.76
809.69	54.72
809.864	55.25
810.038	58.04
810.212	56.38
810.385	57.22
810.559	57.48
810.733	57.5
810.907	58.81
811.081	56.21
811.255	54.23
811.428	52.89
811.602	54.39
811.776	54.5
811.95	51.4
812.123	53.18
812.297	52.67
812.471	51.13
812.644	52.35
812.818	53.79
812.992	54.22
813.165	56.64
813.339	54.41
813.512	51.96
813.686	51.03
813.86	51.66
814.033	50.53
814.207	51.2
814.38	52.88
814.554	51.43
814.727	51.71
814.9	52.71
815.074	50.74
815.247	52.98
815.421	49.86
815.594	51.2
815.767	49.91
815.941	51.43
816.114	50.86
816.287	52.47
816.46	50.68
816.634	49.25
816.807	50.4
816.98	50.08
817.153	50.67
817.327	51.47
817.5	52.87
817.673	55.6
817.846	55.26
818.019	57.94
818.192	56.47
818.365	57.4
818.538	55.87
818.711	51.53
818.884	50.64
819.057	50.45
819.23	53
819.403	50.29
819.576	46.49
819.749	45.5
819.922	40.9
820.095	41.74
820.268	41.75
820.441	43.49
820.614	43.7
820.786	43.67
820.959	43.28
821.132	42.36
821.305	41.82
821.477	42.48
821.65	42.65
821.823	42.82
821.996	41.16
822.168	40.46
822.341	39.7
822.514	40.24
822.686	40.36
822.859	40.38
823.031	40.42
823.204	40.86
823.376	40.62
823.549	40.54
823.722	40.77
823.894	41.25
824.067	41.85
824.239	42.29
824.411	42.68
824.584	42.81
824.756	43.23
824.929	43.11
825.101	43.1
825.273	43.81
825.446	44
825.618	43.8
825.79	44.18
825.963	43.62
826.135	43.51
826.307	43.6
826.479	43.83
826.652	43.41
826.824	43.41
826.996	43.12
827.168	42.41
827.34	42.7
827.512	42.65
827.684	41.84
827.856	42.47
828.029	43.52
828.201	42.91
828.373	42.28
828.545	42.99
828.717	43.73
828.889	43.7
829.061	44.68
829.232	44.65
829.404	45.06
829.576	46.3
829.748	46.39
829.92	46.26
830.092	47.46
830.264	47.36
830.436	47.52
830.607	47.54
830.779	49.96
830.951	49.9
831.123	49.34
831.294	48.86
831.466	48.4
831.638	48.53
831.809	47.42
831.981	48.74
832.153	49.7
832.324	49.13
832.496	49.03
832.667	48.4
832.839	48.8
833.011	48.16
833.182	48.35
833.354	49.5
833.525	51.37
833.697	52.17
833.868	49.2
834.039	50.83
834.211	49.45
834.382	49.38
834.554	47.3
834.725	46.45
834.896	47.07
835.068	47.93
835.239	47.05
835.41	47.11
835.581	46.61
835.753	47.43
835.924	46.81
836.095	47.65
836.266	46.69
836.438	46.81
836.609	47.87
836.78	47.68
836.951	48.61
837.122	49.67
837.293	48.46
837.464	48.46
837.635	48.67
837.806	48.78
837.977	49.14
838.148	51
838.319	52.84
838.49	53.22
838.661	54.58
838.832	53.49
839.003	52.07
839.174	54.63
839.345	54.48
839.516	56.66
839.687	57.59
839.857	57.16
840.028	59.79
840.199	58.48
840.37	58.39
840.54	58.41
840.711	56.9
840.882	59.2
841.053	58.47
841.223	57.82
841.394	56.01
841.564	57.45
841.735	57.57
841.906	54.31
842.076	50.77
842.247	52.32
842.417	53.08
842.588	57.28
842.758	58.44
842.929	59.38
843.099	61.66
843.27	62.31
843.44	59.34
843.611	56.63
843.781	55.26
843.951	60.39
844.122	59.39
844.292	59.37
844.462	58.34
844.633	58.16
844.803	56.66
844.973	57.33
845.144	60.72
845.314	63.73
845.484	64.72
845.654	71.38
845.824	77.42
845.995	77.58
846.165	73.85
846.335	75.59
846.505	73.83
846.675	75.33
846.845	74.34
847.015	75.45
847.185	75.27
847.355	80.6
847.525	79.66
847.695	81.1
847.865	82.33
848.035	93.26
848.205	86.38
848.375	90.01
848.545	75.81
848.715	72.69
848.884	63.35
849.054	56.48
849.224	52.39
849.394	59.3
849.564	58.27
849.733	60.47
849.903	59.15
850.073	61.85
850.243	62.33
850.412	66.59
850.582	67.76
850.752	73.37
850.921	81.73
851.091	88.54
851.26	89.43
851.43	79.35
851.599	72.11
851.769	71.32
851.939	68.12
852.108	72.47
852.278	73.42
852.447	70.93
852.616	69.93
852.786	68.11
852.955	70.43
853.125	77.71
853.294	90.64
853.463	88.46
853.633	88.14
853.802	93.21
853.971	94.17
854.141	104.25
854.31	104.5
854.479	96.76
854.648	93.53
854.818	84.17
854.987	80.06
855.156	81.46
855.325	92.69
855.494	99.9
855.663	94.81
855.832	83.4
856.001	76.29
856.171	82
856.34	90.47
856.509	97.71
856.678	108.79
856.847	102.5
857.016	98.9
857.185	88.66
857.353	90.87
857.522	100.67
857.691	113.91
857.86	117.38
858.029	110.52
858.198	116.39
858.367	115.62
858.535	110.05
858.704	109.43
858.873	110.47
859.042	112.08
859.21	118.22
859.379	106.76
859.548	92.69
859.717	94.35
859.885	96.93
860.054	95.42
860.222	96.01
860.391	103.97
860.56	95.71
860.728	96.36
860.897	98.83
861.065	86.43
861.234	95.57
861.402	98.27
861.571	88.68
861.739	86.11
861.908	87.77
862.076	84.69
862.244	86.22
862.413	84.94
862.581	81.24
862.749	76.77
862.918	70.98
863.086	64.53
863.254	63.79
863.423	71.5
863.591	89.63
863.759	73.97
863.927	75.85
864.096	69.04
864.264	74.45
864.432	73.73
864.6	83.62
864.768	93.19
864.936	95.05
865.104	93.16
865.272	90.25
865.44	84.23
865.608	89.64
865.776	90.61
865.944	97.45
866.112	98.06
866.28	98.06
866.448	95.17
866.616	84.89
866.784	82.46
866.952	82.73
867.12	77.54
867.288	74.05
867.455	71.34
867.623	74.88
867.791	63.49
867.959	57.24
868.127	52.73
868.294	50.61
868.462	44.94
868.63	49.38
868.797	50.09
868.965	57.79
869.133	59.9
869.3	62.59
869.468	62.85
869.636	64.73
869.803	70.38
869.971	72.37
870.138	71.19
870.306	78.71
870.473	73.85
870.641	75.86
870.808	69.74
870.975	72.97
871.143	76.87
871.31	73.5
871.478	81.21
871.645	71.28
871.812	68.59
871.98	69.46
872.147	76.72
872.314	72.03
872.482	66.53
872.649	72.26
872.816	72.35
872.983	70.35
873.15	70.02
873.318	79.82
873.485	89.05
873.652	92.79
873.819	105.32
873.986	107.09
874.153	111.45
874.32	123.63
874.487	117.7
874.654	104.87
874.821	102.15
874.988	92.43
875.155	85.94
875.322	82.29
875.489	85.64
875.656	72.27
875.823	71.24
875.99	70.72
876.157	67.7
876.324	70.85
876.49	66.56
876.657	68.83
876.824	81.11
876.991	82.24
877.157	83.55
877.324	90.66
877.491	96.89
877.658	95.79
877.824	89.53
877.991	85.88
878.157	89.23
878.324	93.14
878.491	95.04
878.657	102.53
878.824	95.15
878.99	95.01
879.157	88.65
879.323	81.38
879.49	85.28
879.656	88.39
879.823	81.28
879.989	82.31
880.156	84.87
880.322	79.37
880.488	73.07
880.655	77.06
880.821	81.16
880.987	76.27
881.154	77.84
881.32	72.41
881.486	72.45
881.652	72.69
881.819	68.45
881.985	62.65
882.151	60.48
882.317	57.63
882.483	53.26
882.649	52.81
882.816	53.83
882.982	50.32
883.148	50.05
883.314	48.67
883.48	52.8
883.646	53.04
883.812	51.72
883.978	53.62
884.144	52.89
884.31	51.56
884.476	50.99
884.642	51.18
884.807	55.64
884.973	56.2
885.139	55.66
885.305	53.53
885.471	53.62
885.637	54.39
885.802	51.85
885.968	52.28
886.134	55.77
886.3	54.33
886.465	55.61
886.631	52.56
886.797	52.77
886.962	54.77
887.128	54.08
887.293	53.77
887.459	59.43
887.625	63.02
887.79	65.87
887.956	61.97
888.121	67.38
888.287	64.05
888.452	64.3
888.618	64.42
888.783	65
