Data from LC_154_Reflection_3.txt Node
Date: Mon Nov 16 22:15:12 EST 2015
User: robert
Spectrometer: USB4E03001
Autoset integration time: false
Trigger mode: 4
Integration Time (sec): 1.000000E-1
Scans to average: 15
Electric dark correction enabled: true
Nonlinearity correction enabled: false
Boxcar width: 5
Stray light correction enabled: false
XAxis mode: Wavelengths
Stop averaging: false
Number of Pixels in Spectrum: 3648
>>>>>Begin Spectral Data<<<<<
177.566	833.73
177.785	139.49
178.005	-1663.87
178.225	177.53
178.445	30.87
178.665	436.64
178.885	3.92
179.105	-114.95
179.324	-831.78
179.544	150.07
179.764	-219.03
179.984	54.69
180.204	7.25
180.423	-82.78
180.643	-188.79
180.863	-55.2
181.083	-25.98
181.302	-89.02
181.522	-91.6
181.742	-122.54
181.961	-254.39
182.181	-217.41
182.401	-318.96
182.621	-1459.46
182.84	-627.5
183.06	-345.43
183.279	-246.75
183.499	-192.3
183.719	-148.49
183.938	-127.92
184.158	-131.45
184.377	-70.67
184.597	-122.77
184.816	-90
185.036	-33.22
185.256	-17.75
185.475	-48.49
185.695	-74.43
185.914	-116.06
186.134	-255.57
186.353	-348.78
186.572	-380.54
186.792	-745.25
187.011	-194.34
187.231	-151.45
187.45	-140.59
187.67	-440.86
187.889	-1275.75
188.108	1974.89
188.328	-487.37
188.547	-104.51
188.766	-170.48
188.986	-354.74
189.205	-204.53
189.424	-186.29
189.644	-667.46
189.863	-635.43
190.082	-315.14
190.302	-685.64
190.521	-300.49
190.74	330.78
190.959	238.51
191.178	341.48
191.398	293.63
191.617	168.72
191.836	173.65
192.055	305.78
192.274	141.18
192.494	229.84
192.713	182.98
192.932	502.84
193.151	480.06
193.37	757.16
193.589	-571.87
193.808	-150.92
194.027	-343.14
194.246	-3315.64
194.465	596.07
194.685	1655.21
194.904	714.23
195.123	-948.42
195.342	-601.23
195.561	-248.38
195.78	-394.55
195.999	16901.41
196.218	636.69
196.436	439.25
196.655	-1670.64
196.874	-616.45
197.093	-873.63
197.312	-740.95
197.531	2135.55
197.75	715.78
197.969	-2664.78
198.188	-574.29
198.407	-122.58
198.625	-150.99
198.844	-100.8
199.063	-71.21
199.282	-247.08
199.501	-190.29
199.719	-126.96
199.938	-95.82
200.157	-88.53
200.376	-83.13
200.594	-142.98
200.813	-330.76
201.032	-241.97
201.251	-228.8
201.469	-191.13
201.688	-94.08
201.907	-121.24
202.125	-178.47
202.344	3978.57
202.563	854.19
202.781	185.69
203	421.33
203.218	368.81
203.437	157.54
203.656	144.62
203.874	123.01
204.093	156.79
204.311	176.22
204.53	179.87
204.748	307.79
204.967	205.03
205.185	157.21
205.404	163.76
205.622	92.49
205.841	83.78
206.059	77.41
206.278	24.79
206.496	-54.76
206.715	89.62
206.933	84.36
207.151	92.22
207.37	80.09
207.588	130.91
207.806	114.77
208.025	259.02
208.243	-300.6
208.461	876.53
208.68	-11120
208.898	477.15
209.116	315.81
209.335	312.84
209.553	300.96
209.771	3212.5
209.989	709.57
210.208	1525.1
210.426	-2351.88
210.644	1442.22
210.862	-949.92
211.081	394.26
211.299	-123.63
211.517	1425
211.735	-398.71
211.953	-101042.86
212.171	-1926.81
212.39	-4556.76
212.608	-14160.87
212.826	540.55
213.044	374.14
213.262	335.26
213.48	1538.82
213.698	202.72
213.916	255.79
214.134	156.75
214.352	359.56
214.57	214.72
214.788	277.78
215.006	196.71
215.224	161.54
215.442	137.46
215.66	111.38
215.878	99.49
216.096	69.31
216.314	8.54
216.532	33.18
216.75	45.34
216.968	22.79
217.185	99.76
217.403	362.77
217.621	-1284.87
217.839	-317.33
218.057	-418.49
218.275	848.32
218.492	330.99
218.71	474.42
218.928	146.48
219.146	138.12
219.363	129.64
219.581	87.25
219.799	56.07
220.017	71.84
220.234	63.75
220.452	64.03
220.67	59.3
220.887	52.85
221.105	87.99
221.323	45.29
221.54	72.53
221.758	76.74
221.976	87.62
222.193	67.55
222.411	30.2
222.629	55.13
222.846	70.65
223.064	83.07
223.281	87.43
223.499	75.15
223.716	85.63
223.934	60.5
224.151	61.63
224.369	51.91
224.586	49.06
224.804	53.08
225.021	46.27
225.239	27.43
225.456	29.73
225.674	29.33
225.891	35.56
226.108	46.26
226.326	55.2
226.543	51.35
226.76	45.8
226.978	44.35
227.195	47.63
227.413	43.31
227.63	40.18
227.847	34.88
228.064	32.67
228.282	29.04
228.499	25.97
228.716	20.27
228.934	17.48
229.151	19.84
229.368	19.23
229.585	15.48
229.802	15.77
230.02	15.23
230.237	18.49
230.454	17.25
230.671	18.37
230.888	18.68
231.105	18.36
231.323	20.04
231.54	17.98
231.757	16.98
231.974	19.82
232.191	14.87
232.408	20.42
232.625	12.82
232.842	11.92
233.059	13.86
233.276	11.1
233.493	10.42
233.71	9.02
233.927	11.91
234.144	14.34
234.361	13.72
234.578	20.19
234.795	14.47
235.012	14.39
235.229	11.57
235.446	11.19
235.663	15.5
235.879	18.42
236.096	18.41
236.313	17.7
236.53	16.22
236.747	16.69
236.964	14.52
237.181	16.11
237.397	17.78
237.614	23.9
237.831	16.87
238.048	16.68
238.264	16.25
238.481	18.83
238.698	20.46
238.915	23
239.131	23.26
239.348	24.45
239.565	24.85
239.781	27.01
239.998	25.8
240.215	29.24
240.431	23.14
240.648	23.68
240.865	21.21
241.081	17.68
241.298	15.43
241.514	14.89
241.731	13.48
241.947	13.21
242.164	11.49
242.38	10.57
242.597	9.17
242.814	11.7
243.03	11.36
243.246	12.66
243.463	12.8
243.679	13.73
243.896	12.27
244.112	14.38
244.329	14.32
244.545	14.1
244.762	11.75
244.978	11.84
245.194	10.97
245.411	10.18
245.627	9.22
245.843	10.36
246.06	9.98
246.276	10.76
246.492	9.71
246.709	10.12
246.925	9.59
247.141	10.96
247.357	10.67
247.574	11.03
247.79	11.33
248.006	10.85
248.222	10.49
248.439	10.48
248.655	11.06
248.871	10.7
249.087	10.51
249.303	10.94
249.519	11.12
249.736	12.38
249.952	11.26
250.168	11.91
250.384	11.39
250.6	11.52
250.816	11.48
251.032	10.68
251.248	11.67
251.464	11.15
251.68	11.74
251.896	11.75
252.112	11.86
252.328	12.5
252.544	12.3
252.76	15.32
252.976	15.15
253.192	15.22
253.408	15.45
253.624	16.93
253.84	16.28
254.056	17.45
254.272	16.39
254.487	15.44
254.703	15.91
254.919	13.63
255.135	10.95
255.351	10.66
255.567	12.49
255.782	14.13
255.998	10.8
256.214	13.88
256.43	11.4
256.646	12.54
256.861	13.35
257.077	13.07
257.293	14.26
257.508	11.8
257.724	13.89
257.94	12.82
258.155	9.66
258.371	9.34
258.587	8.19
258.802	9.1
259.018	9.98
259.234	8.92
259.449	9.39
259.665	9.64
259.88	11.04
260.096	10.19
260.312	9.2
260.527	9.58
260.743	9.84
260.958	10.15
261.174	10.17
261.389	9.82
261.605	10.85
261.82	10.36
262.036	10.49
262.251	10.85
262.466	11.59
262.682	13.77
262.897	13.73
263.113	14.26
263.328	14.15
263.543	15.14
263.759	15.42
263.974	14.44
264.189	13.74
264.405	13.52
264.62	12.22
264.835	11.59
265.051	11.03
265.266	13.03
265.481	12.97
265.696	14.12
265.912	12.06
266.127	11.06
266.342	10.9
266.557	11.99
266.773	11.02
266.988	9.74
267.203	11.26
267.418	10.25
267.633	9.26
267.848	9.69
268.064	8.89
268.279	10.08
268.494	10.87
268.709	11.67
268.924	11.72
269.139	12.9
269.354	13.1
269.569	11.52
269.784	12.44
269.999	12.93
270.214	13.59
270.429	13.36
270.644	12.92
270.859	11.23
271.074	11.18
271.289	10.23
271.504	9.46
271.719	10.96
271.934	10.8
272.149	10.88
272.363	10.94
272.578	9.29
272.793	9.4
273.008	9.08
273.223	9.46
273.438	9
273.653	9.76
273.867	9.83
274.082	8.91
274.297	9.64
274.512	9.49
274.726	9.11
274.941	10
275.156	10.65
275.371	11.5
275.585	12.24
275.8	13.76
276.015	14.32
276.229	15
276.444	15.59
276.659	15.82
276.873	16.1
277.088	15.92
277.302	15.89
277.517	15.54
277.732	16.39
277.946	15.31
278.161	15.26
278.375	14.12
278.59	13.32
278.804	12.96
279.019	12.97
279.233	12.68
279.448	13.43
279.662	13.8
279.877	14.23
280.091	11.15
280.306	11.3
280.52	9.65
280.735	8.67
280.949	9.06
281.163	8.9
281.378	7.06
281.592	7.02
281.806	7.58
282.021	6.48
282.235	6.95
282.449	8.26
282.664	9.56
282.878	9.59
283.092	10.34
283.307	9.67
283.521	9.89
283.735	11.49
283.949	12.08
284.164	10.73
284.378	11.5
284.592	10.26
284.806	10.03
285.02	9.53
285.234	9.55
285.449	8.83
285.663	9.49
285.877	9.46
286.091	8.67
286.305	8.1
286.519	9.02
286.733	8.11
286.947	8.3
287.161	8.32
287.375	8.77
287.589	9.11
287.803	10.38
288.017	10.14
288.231	9.62
288.445	9.96
288.659	10.39
288.873	8.76
289.087	9.88
289.301	10.18
289.515	10.48
289.729	9.91
289.943	9.55
290.157	9.07
290.371	10.47
290.584	10.36
290.798	11.49
291.012	11.39
291.226	11.96
291.44	12.14
291.654	12.86
291.867	13.09
292.081	12.18
292.295	13.75
292.509	14.05
292.722	13.04
292.936	13.62
293.15	13.46
293.364	13.18
293.577	13.37
293.791	12.38
294.005	12.64
294.218	12.55
294.432	14.03
294.645	12.98
294.859	12.48
295.073	13.02
295.286	12.82
295.5	11.42
295.713	12.42
295.927	13.1
296.14	13.53
296.354	12.63
296.568	12.56
296.781	12.26
296.994	12.28
297.208	11.81
297.421	11.16
297.635	11.2
297.848	11.05
298.062	10.19
298.275	10.12
298.489	10.6
298.702	11.09
298.915	11.32
299.129	12.43
299.342	12.17
299.555	13.55
299.769	14.18
299.982	14.57
300.195	15.42
300.409	16.3
300.622	16.74
300.835	16.97
301.048	16.58
301.262	16.1
301.475	14.72
301.688	16.12
301.901	16.06
302.115	16.29
302.328	16.69
302.541	16.56
302.754	16.7
302.967	16.66
303.18	16.35
303.393	16.55
303.607	17.1
303.82	18.28
304.033	17.05
304.246	18.19
304.459	18.64
304.672	18.9
304.885	19.42
305.098	19.13
305.311	17.92
305.524	17.89
305.737	17.83
305.95	17.34
306.163	15.59
306.376	14.5
306.589	13.45
306.802	12.18
307.015	11.69
307.228	11.8
307.44	12.84
307.653	12.96
307.866	12.66
308.079	14.06
308.292	14.68
308.505	16.31
308.718	17.8
308.93	16.86
309.143	16.86
309.356	16.65
309.569	16.2
309.781	16.16
309.994	16.69
310.207	16.98
310.42	15.08
310.632	14.06
310.845	13.95
311.058	13.35
311.27	14.19
311.483	14.71
311.696	14.31
311.908	14.39
312.121	13.54
312.333	13.78
312.546	12.84
312.759	13.79
312.971	14.94
313.184	14.73
313.396	14.99
313.609	15.06
313.821	14.66
314.034	15.61
314.246	15.9
314.459	16.05
314.671	15.36
314.884	15.1
315.096	13.98
315.309	12.64
315.521	12.85
315.733	12.64
315.946	10.65
316.158	10.41
316.371	9.17
316.583	9.18
316.795	8.8
317.008	9.47
317.22	12.32
317.432	13.09
317.644	13.51
317.857	13.29
318.069	13.07
318.281	14.3
318.494	15.01
318.706	15.93
318.918	15.32
319.13	16.37
319.342	16.6
319.555	15.91
319.767	16.62
319.979	16.35
320.191	16.81
320.403	16.88
320.615	17.09
320.827	16.57
321.039	15.87
321.252	16.96
321.464	15.92
321.676	15.33
321.888	14.51
322.1	14.88
322.312	14.19
322.524	12.5
322.736	12.88
322.948	12.49
323.16	11.8
323.372	13.22
323.584	12.2
323.796	12.58
324.007	11.89
324.219	11.17
324.431	11.15
324.643	11.93
324.855	11.9
325.067	12.32
325.279	12.25
325.491	12.37
325.702	11.64
325.914	11.87
326.126	12.71
326.338	14.09
326.55	14.47
326.761	14.57
326.973	14.82
327.185	15.87
327.396	15.82
327.608	16.9
327.82	17.71
328.032	17.68
328.243	17.49
328.455	17.3
328.666	16.84
328.878	17.49
329.09	16.54
329.301	16.02
329.513	15.91
329.725	15.46
329.936	14.66
330.148	14.1
330.359	14.41
330.571	14.8
330.782	14.87
330.994	15.53
331.205	15.4
331.417	15.51
331.628	16.41
331.84	16.66
332.051	16.99
332.262	18.38
332.474	18.15
332.685	18.24
332.897	18.2
333.108	17.7
333.319	17.12
333.531	17.07
333.742	18.25
333.953	16.85
334.165	16.91
334.376	16.73
334.587	15.59
334.799	15.94
335.01	15.59
335.221	15.2
335.432	15.22
335.644	14.34
335.855	14.15
336.066	13.99
336.277	15.62
336.488	15.59
336.7	14.35
336.911	14.5
337.122	14.08
337.333	14.85
337.544	15.78
337.755	16.19
337.966	17.19
338.177	17.36
338.388	16.93
338.599	16.87
338.811	16.58
339.022	18.45
339.233	17.95
339.444	18.38
339.655	16.89
339.866	16.42
340.076	16.27
340.287	15.73
340.498	15.94
340.709	15.41
340.92	14.83
341.131	15.31
341.342	15.15
341.553	15.49
341.764	15.57
341.975	16.37
342.185	16.41
342.396	16.46
342.607	16.46
342.818	16.64
343.029	17.33
343.239	16.93
343.45	16.79
343.661	16.56
343.872	16.26
344.082	15.75
344.293	15.87
344.504	15.69
344.714	14.61
344.925	14.14
345.136	13.61
345.346	14.02
345.557	14.45
345.768	13.94
345.978	13.23
346.189	13.98
346.399	14.73
346.61	14.97
346.821	15.24
347.031	15.88
347.242	16.1
347.452	15.7
347.663	14.81
347.873	15.19
348.084	16.06
348.294	16.8
348.504	16.41
348.715	15.53
348.925	14.74
349.136	14.07
349.346	13.21
349.557	13.41
349.767	14.43
349.977	14.72
350.188	14.67
350.398	14.04
350.608	13.46
350.819	12.96
351.029	13.4
351.239	13.59
351.449	13.82
351.66	14.72
351.87	15.44
352.08	14.35
352.29	13.77
352.501	12.71
352.711	12.39
352.921	13.2
353.131	13.53
353.341	13.21
353.552	12.85
353.762	12.63
353.972	12.64
354.182	12.57
354.392	12.38
354.602	12.88
354.812	13.84
355.022	14.1
355.232	13.28
355.442	13.6
355.652	14.59
355.862	14.26
356.072	14.75
356.282	14.36
356.492	14.31
356.702	15
356.912	15.2
357.122	15.1
357.332	15.12
357.542	14.99
357.752	14.48
357.962	13.75
358.171	14.45
358.381	14.72
358.591	14.72
358.801	14
359.011	14.54
359.221	13.94
359.43	14.15
359.64	14.64
359.85	15.25
360.06	15.15
360.269	15.24
360.479	14.61
360.689	14.36
360.899	14.33
361.108	14.49
361.318	13.68
361.528	13.56
361.737	12.75
361.947	11.93
362.156	11.72
362.366	11.9
362.576	11.77
362.785	11.65
362.995	11.29
363.204	11.04
363.414	10.86
363.623	10.96
363.833	11.04
364.042	11.37
364.252	11.83
364.461	11.43
364.671	11.31
364.88	11.87
365.09	12.54
365.299	12.75
365.509	12.59
365.718	12.67
365.927	12.6
366.137	13.5
366.346	13.52
366.555	13.35
366.765	12.94
366.974	13.38
367.183	12.83
367.393	12.18
367.602	11.93
367.811	12.22
368.021	11.66
368.23	11.66
368.439	10.53
368.648	10.81
368.857	11.15
369.067	11.81
369.276	11.34
369.485	11.49
369.694	11.96
369.903	12.49
370.112	12.45
370.321	12.39
370.531	12.39
370.74	12.71
370.949	12.37
371.158	12.35
371.367	12.53
371.576	12.13
371.785	11.9
371.994	11.3
372.203	11.15
372.412	11.7
372.621	12.49
372.83	12.61
373.039	12.49
373.248	12.32
373.457	12.13
373.666	12.12
373.874	12.5
374.083	12.54
374.292	13.07
374.501	12.7
374.71	11.91
374.919	11.41
375.128	11.09
375.336	11.01
375.545	11.4
375.754	10.84
375.963	10.4
376.171	10.21
376.38	10.59
376.589	10.64
376.798	10.19
377.006	10.46
377.215	10.77
377.424	10.96
377.632	11.1
377.841	11.17
378.05	11.36
378.258	11.57
378.467	11.44
378.675	11.03
378.884	10.74
379.093	10.93
379.301	10.73
379.51	10.49
379.718	10.2
379.927	9.98
380.135	9.35
380.344	9.65
380.552	9.43
380.761	9.55
380.969	9.46
381.177	9.39
381.386	9.62
381.594	9.78
381.803	9.69
382.011	9.89
382.219	9.75
382.428	9.72
382.636	9.3
382.845	9.64
383.053	9.72
383.261	9.58
383.469	9.91
383.678	9.81
383.886	9.61
384.094	9.53
384.302	9.74
384.511	10.03
384.719	10.37
384.927	10.21
385.135	10.25
385.343	10.48
385.552	10.38
385.76	9.93
385.968	9.73
386.176	9.66
386.384	9.67
386.592	8.99
386.8	8.47
387.008	8.42
387.216	8.72
387.424	8.46
387.633	8.41
387.841	8.28
388.049	8.63
388.257	8.83
388.465	8.59
388.672	8.63
388.88	9
389.088	9.3
389.296	9.12
389.504	9.25
389.712	9.24
389.92	9.2
390.128	9.28
390.336	9.05
390.544	9.24
390.751	8.93
390.959	8.96
391.167	8.86
391.375	9
391.583	8.86
391.79	8.53
391.998	8.43
392.206	8.41
392.414	8.35
392.621	8.3
392.829	8.24
393.037	8.67
393.244	8.44
393.452	8.51
393.66	8.36
393.867	8.79
394.075	8.73
394.283	8.54
394.49	8.04
394.698	8.22
394.905	8.14
395.113	7.94
395.32	7.93
395.528	7.97
395.735	7.74
395.943	7.64
396.15	7.17
396.358	7.38
396.565	7.5
396.773	8.19
396.98	8.2
397.188	7.99
397.395	7.93
397.602	7.94
397.81	7.98
398.017	8.39
398.225	8.23
398.432	8.42
398.639	8.47
398.847	8.42
399.054	7.84
399.261	7.7
399.468	7.91
399.676	7.72
399.883	7.77
400.09	7.93
400.297	7.64
400.505	7.84
400.712	7.47
400.919	7.42
401.126	7.55
401.333	7.82
401.54	7.84
401.748	7.94
401.955	8.04
402.162	7.79
402.369	7.68
402.576	7.69
402.783	7.78
402.99	7.95
403.197	7.83
403.404	7.62
403.611	7.46
403.818	7.41
404.025	7.51
404.232	7.48
404.439	7.58
404.646	7.45
404.853	7.34
405.06	7.14
405.267	6.85
405.474	6.8
405.681	6.75
405.887	6.65
406.094	6.61
406.301	6.39
406.508	6.44
406.715	6.55
406.922	6.58
407.128	6.5
407.335	6.58
407.542	6.87
407.749	6.86
407.955	7.2
408.162	7.3
408.369	7.66
408.575	7.58
408.782	7.47
408.989	7.32
409.195	7.35
409.402	7.59
409.609	7.68
409.815	7.88
410.022	8
410.228	7.53
410.435	7.47
410.642	7.07
410.848	7.35
411.055	7.15
411.261	7.31
411.468	7.22
411.674	6.92
411.881	6.83
412.087	7
412.294	6.97
412.5	7.11
412.706	7.17
412.913	7.4
413.119	7.03
413.326	7.09
413.532	7.02
413.738	6.96
413.945	7.29
414.151	7.08
414.357	6.87
414.564	6.75
414.77	6.91
414.976	6.78
415.182	6.79
415.389	6.99
415.595	7.06
415.801	6.92
416.007	7.07
416.214	6.83
416.42	6.91
416.626	6.82
416.832	6.72
417.038	6.57
417.244	6.57
417.45	6.43
417.657	6.46
417.863	6.7
418.069	6.82
418.275	6.85
418.481	7
418.687	6.89
418.893	6.85
419.099	6.97
419.305	7.1
419.511	7.17
419.717	7.12
419.923	7
420.129	6.87
420.335	6.77
420.541	6.72
420.746	6.67
420.952	6.79
421.158	6.8
421.364	6.71
421.57	6.71
421.776	6.69
421.982	6.71
422.187	6.53
422.393	6.54
422.599	6.44
422.805	6.33
423.01	6.24
423.216	6.02
423.422	5.92
423.628	6
423.833	5.83
424.039	5.95
424.245	5.94
424.45	6.2
424.656	6.17
424.862	6.35
425.067	6.5
425.273	6.55
425.478	6.67
425.684	6.73
425.889	6.77
426.095	6.83
426.301	6.75
426.506	6.75
426.712	6.72
426.917	6.56
427.123	6.6
427.328	6.52
427.533	6.55
427.739	6.72
427.944	6.9
428.15	6.73
428.355	6.73
428.561	6.69
428.766	6.77
428.971	6.82
429.177	7.1
429.382	7.09
429.587	7.2
429.793	7.13
429.998	6.93
430.203	6.58
430.408	6.67
430.614	6.74
430.819	6.67
431.024	6.72
431.229	6.54
431.434	6.53
431.64	6.23
431.845	6.26
432.05	6.33
432.255	6.29
432.46	6.28
432.665	6.15
432.87	6.09
433.076	6.16
433.281	6.06
433.486	6.05
433.691	5.77
433.896	5.78
434.101	5.63
434.306	5.63
434.511	5.75
434.716	5.87
434.921	5.81
435.126	5.7
435.331	5.55
435.535	5.47
435.74	5.54
435.945	5.84
436.15	5.86
436.355	5.99
436.56	6.07
436.765	6.08
436.97	5.98
437.174	6.16
437.379	6.31
437.584	6.5
437.789	6.65
437.993	6.67
438.198	6.56
438.403	6.71
438.608	6.75
438.812	6.59
439.017	6.58
439.222	6.65
439.426	6.58
439.631	6.57
439.836	6.26
440.04	6.35
440.245	6.36
440.45	6.41
440.654	6.28
440.859	6.1
441.063	6.06
441.268	6.08
441.472	6.14
441.677	6.25
441.881	6.22
442.086	6.43
442.29	6.22
442.495	6.08
442.699	6.17
442.904	6.17
443.108	6.13
443.312	6.17
443.517	6.21
443.721	6.11
443.925	6.03
444.13	6.04
444.334	5.87
444.538	5.87
444.743	5.99
444.947	5.77
445.151	5.84
445.356	5.92
445.56	5.79
445.764	5.7
445.968	5.75
446.173	5.78
446.377	5.84
446.581	5.87
446.785	5.89
446.989	5.86
447.193	5.94
447.398	5.97
447.602	5.99
447.806	6.12
448.01	6.27
448.214	6.28
448.418	6.22
448.622	6.19
448.826	6.24
449.03	6.34
449.234	6.44
449.438	6.46
449.642	6.46
449.846	6.39
450.05	6.43
450.254	6.26
450.458	6.43
450.662	6.44
450.866	6.52
451.069	6.5
451.273	6.5
451.477	6.4
451.681	6.3
451.885	6.21
452.089	6.21
452.292	6.27
452.496	6.38
452.7	6.12
452.904	6.11
453.107	6.04
453.311	6.09
453.515	6.04
453.719	5.82
453.922	5.83
454.126	5.88
454.33	6
454.533	5.9
454.737	5.75
454.94	5.78
455.144	5.88
455.348	5.86
455.551	5.89
455.755	5.7
455.958	6.09
456.162	6.08
456.365	6.12
456.569	5.9
456.772	5.83
456.976	5.86
457.179	5.98
457.383	5.87
457.586	6.01
457.79	6.02
457.993	6.13
458.196	5.94
458.4	5.96
458.603	5.83
458.807	5.94
459.01	6.13
459.213	6.02
459.417	5.78
459.62	5.87
459.823	5.8
460.026	5.72
460.23	5.77
460.433	5.79
460.636	5.82
460.839	5.92
461.042	5.9
461.246	5.81
461.449	5.91
461.652	6.07
461.855	5.94
462.058	5.92
462.261	5.93
462.464	5.88
462.668	6.06
462.871	6.22
463.074	6.34
463.277	6.25
463.48	6.33
463.683	6.32
463.886	6.4
464.089	6.53
464.292	6.54
464.495	6.66
464.698	6.68
464.901	6.49
465.104	6.34
465.306	6.18
465.509	6.29
465.712	6.19
465.915	6.09
466.118	5.94
466.321	5.79
466.524	5.88
466.726	5.89
466.929	5.91
467.132	6
467.335	5.91
467.538	5.86
467.74	5.77
467.943	6.05
468.146	6.24
468.348	6.34
468.551	6.4
468.754	6.24
468.956	6.12
469.159	6.17
469.362	6.12
469.564	5.99
469.767	6.03
469.969	6.04
470.172	5.64
470.375	5.48
470.577	5.42
470.78	5.37
470.982	5.32
471.185	5.38
471.387	5.3
471.59	5.22
471.792	5.35
471.995	5.28
472.197	5.36
472.399	5.37
472.602	5.3
472.804	5.36
473.007	5.43
473.209	5.53
473.411	5.49
473.614	5.4
473.816	5.55
474.018	5.65
474.22	5.8
474.423	5.78
474.625	5.79
474.827	5.96
475.03	6.04
475.232	6.06
475.434	6.04
475.636	6.16
475.838	6.21
476.04	5.93
476.243	5.92
476.445	5.93
476.647	5.88
476.849	5.85
477.051	5.8
477.253	5.72
477.455	5.87
477.657	5.8
477.859	5.72
478.061	5.63
478.263	5.81
478.465	5.73
478.667	5.63
478.869	5.54
479.071	5.47
479.273	5.46
479.475	5.41
479.677	5.25
479.879	5.19
480.081	5.26
480.283	5.46
480.485	5.28
480.686	5.23
480.888	5.32
481.09	5.54
481.292	5.62
481.494	5.63
481.695	5.68
481.897	5.65
482.099	5.67
482.301	5.7
482.502	5.5
482.704	5.64
482.906	5.69
483.107	5.65
483.309	5.6
483.511	5.61
483.712	5.59
483.914	5.53
484.115	5.51
484.317	5.48
484.519	5.46
484.72	5.54
484.922	5.47
485.123	5.46
485.325	5.44
485.526	5.44
485.728	5.4
485.929	5.34
486.131	5.39
486.332	5.46
486.534	5.49
486.735	5.48
486.936	5.36
487.138	5.36
487.339	5.37
487.541	5.4
487.742	5.42
487.943	5.43
488.144	5.44
488.346	5.42
488.547	5.4
488.748	5.4
488.95	5.31
489.151	5.42
489.352	5.5
489.553	5.49
489.755	5.52
489.956	5.44
490.157	5.46
490.358	5.47
490.559	5.58
490.76	5.57
490.961	5.49
491.163	5.63
491.364	5.63
491.565	5.51
491.766	5.52
491.967	5.47
492.168	5.46
492.369	5.51
492.57	5.5
492.771	5.48
492.972	5.47
493.173	5.62
493.374	5.59
493.575	5.52
493.776	5.64
493.976	5.69
494.177	5.76
494.378	5.89
494.579	5.9
494.78	6.11
494.981	6.07
495.182	6.06
495.382	6.02
495.583	5.96
495.784	5.98
495.985	5.91
496.185	5.8
496.386	5.68
496.587	5.68
496.788	5.64
496.988	5.54
497.189	5.54
497.39	5.6
497.59	5.56
497.791	5.68
497.992	5.68
498.192	5.76
498.393	5.8
498.593	5.91
498.794	5.77
498.994	5.88
499.195	5.93
499.395	5.94
499.596	6
499.796	5.99
499.997	5.94
500.197	6.1
500.398	6.24
500.598	6.29
500.799	6.28
500.999	6.36
501.199	6.18
501.4	6.09
501.6	6.02
501.801	6.04
502.001	6.05
502.201	6.2
502.402	6.18
502.602	6.13
502.802	6.15
503.002	6.25
503.203	6.34
503.403	6.4
503.603	6.45
503.803	6.35
504.003	6.33
504.204	6.41
504.404	6.2
504.604	6.1
504.804	6.04
505.004	6.06
505.204	5.97
505.404	5.94
505.604	6.04
505.804	6.02
506.005	6.13
506.205	6.05
506.405	6.03
506.605	6.14
506.805	6.18
507.005	6.27
507.204	6.28
507.404	6.2
507.604	6.26
507.804	6.19
508.004	6.27
508.204	6.32
508.404	6.38
508.604	6.41
508.804	6.43
509.003	6.45
509.203	6.37
509.403	6.37
509.603	6.49
509.803	6.57
510.002	6.62
510.202	6.56
510.402	6.49
510.602	6.53
510.801	6.49
511.001	6.43
511.201	6.39
511.4	6.31
511.6	6.37
511.8	6.38
511.999	6.38
512.199	6.33
512.398	6.41
512.598	6.58
512.797	6.66
512.997	6.81
513.197	6.83
513.396	6.9
513.596	7.04
513.795	7.17
513.994	7.11
514.194	7.06
514.393	7.19
514.593	7.14
514.792	7.12
514.992	6.99
515.191	6.79
515.39	6.84
515.59	6.83
515.789	6.78
515.988	6.6
516.188	6.72
516.387	6.71
516.586	6.6
516.786	6.72
516.985	6.72
517.184	6.84
517.383	6.96
517.582	7.08
517.782	7.06
517.981	7
518.18	6.93
518.379	6.97
518.578	7.01
518.777	7.06
518.976	6.96
519.176	6.97
519.375	6.93
519.574	6.91
519.773	6.88
519.972	6.86
520.171	6.99
520.37	7.04
520.569	7.02
520.768	7.04
520.967	7.25
521.166	7.32
521.365	7.33
521.564	7.37
521.762	7.42
521.961	7.4
522.16	7.41
522.359	7.31
522.558	7.36
522.757	7.33
522.956	7.32
523.154	7.03
523.353	7.14
523.552	7.12
523.751	7.33
523.949	7.3
524.148	7.28
524.347	7.45
524.546	7.57
524.744	7.52
524.943	7.59
525.142	7.62
525.34	7.82
525.539	7.86
525.737	7.91
525.936	7.75
526.135	7.8
526.333	7.79
526.532	7.74
526.73	7.78
526.929	7.74
527.127	7.76
527.326	7.77
527.524	7.75
527.723	7.75
527.921	7.79
528.12	7.8
528.318	7.84
528.516	7.88
528.715	7.91
528.913	7.88
529.112	7.94
529.31	7.91
529.508	7.9
529.707	7.87
529.905	7.89
530.103	7.86
530.301	7.89
530.5	7.88
530.698	7.94
530.896	7.95
531.094	8.04
531.293	8.13
531.491	8.32
531.689	8.41
531.887	8.59
532.085	8.67
532.283	8.72
532.481	8.82
532.68	8.8
532.878	8.77
533.076	8.82
533.274	8.7
533.472	8.74
533.67	8.64
533.868	8.67
534.066	8.64
534.264	8.56
534.462	8.59
534.66	8.61
534.858	8.74
535.056	8.74
535.253	8.71
535.451	8.93
535.649	8.89
535.847	9.07
536.045	9.12
536.243	9.14
536.441	9.33
536.638	9.4
536.836	9.39
537.034	9.38
537.232	9.48
537.43	9.6
537.627	9.65
537.825	9.76
538.023	9.73
538.22	9.8
538.418	9.8
538.616	9.77
538.813	9.89
539.011	9.99
539.209	10.04
539.406	10.11
539.604	10.23
539.801	10.25
539.999	10.27
540.196	10.41
540.394	10.54
540.591	10.64
540.789	10.65
540.986	10.56
541.184	10.59
541.381	10.6
541.579	10.63
541.776	10.63
541.974	10.62
542.171	10.65
542.368	10.54
542.566	10.49
542.763	10.49
542.96	10.52
543.158	10.6
543.355	10.69
543.552	10.83
543.75	10.94
543.947	10.84
544.144	10.89
544.341	11
544.539	11.21
544.736	11.33
544.933	11.35
545.13	11.38
545.327	11.43
545.524	11.45
545.722	11.57
545.919	11.52
546.116	11.81
546.313	11.92
546.51	11.95
546.707	11.99
546.904	12.02
547.101	12.14
547.298	12.34
547.495	12.47
547.692	12.34
547.889	12.12
548.086	12.3
548.283	12.31
548.48	12.41
548.677	12.54
548.874	12.59
549.07	12.73
549.267	12.87
549.464	12.79
549.661	12.89
549.858	13.29
550.055	13.63
550.251	13.64
550.448	13.68
550.645	13.83
550.842	13.8
551.038	13.92
551.235	13.78
551.432	13.84
551.628	13.84
551.825	13.92
552.022	13.9
552.218	14.04
552.415	14.22
552.612	14.3
552.808	14.23
553.005	14.29
553.201	14.48
553.398	14.75
553.594	14.85
553.791	15.1
553.987	15.16
554.184	15.21
554.38	15.26
554.577	15.12
554.773	15.44
554.97	15.76
555.166	16.04
555.362	15.99
555.559	16.19
555.755	16.35
555.952	16.43
556.148	16.54
556.344	16.62
556.541	16.53
556.737	16.94
556.933	16.91
557.129	16.68
557.326	16.75
557.522	17.07
557.718	17.18
557.914	17.14
558.11	17.13
558.307	17.12
558.503	17.53
558.699	17.74
558.895	17.87
559.091	17.92
559.287	18.13
559.483	18.18
559.679	18.18
559.876	18.18
560.072	18.27
560.268	18.41
560.464	18.53
560.66	18.56
560.856	18.87
561.052	18.91
561.247	19.05
561.443	19.18
561.639	19.39
561.835	19.54
562.031	19.5
562.227	19.6
562.423	19.79
562.619	20.02
562.815	20.1
563.01	20.07
563.206	20.13
563.402	19.97
563.598	20.12
563.793	20.12
563.989	20.02
564.185	20.32
564.381	20.6
564.576	20.77
564.772	20.68
564.968	20.74
565.163	20.75
565.359	20.56
565.555	20.98
565.75	21.05
565.946	21.07
566.141	21.09
566.337	21.21
566.532	21.35
566.728	21.44
566.923	21.72
567.119	21.61
567.314	21.71
567.51	22.1
567.705	22
567.901	22.12
568.096	22.27
568.292	22.48
568.487	22.47
568.682	22.57
568.878	22.58
569.073	22.53
569.268	22.82
569.464	22.97
569.659	22.98
569.854	23.24
570.05	23.31
570.245	23.34
570.44	23.47
570.635	23.66
570.831	23.56
571.026	23.81
571.221	23.83
571.416	23.76
571.611	23.77
571.806	23.83
572.002	23.84
572.197	23.99
572.392	24.07
572.587	24.08
572.782	24.18
572.977	24.41
573.172	24.44
573.367	24.53
573.562	24.83
573.757	24.93
573.952	25.08
574.147	25.18
574.342	25.36
574.537	25.51
574.732	25.69
574.927	25.5
575.121	25.48
575.316	25.48
575.511	25.67
575.706	25.49
575.901	25.59
576.096	25.67
576.29	25.59
576.485	25.59
576.68	25.69
576.875	25.64
577.069	25.75
577.264	25.71
577.459	25.89
577.654	26
577.848	26.26
578.043	26.41
578.238	26.29
578.432	26.33
578.627	26.44
578.821	26.55
579.016	26.73
579.21	26.94
579.405	27.13
579.6	27.2
579.794	27.25
579.989	27.04
580.183	27.27
580.378	27.55
580.572	27.81
580.766	27.73
580.961	27.59
581.155	27.77
581.35	27.81
581.544	27.68
581.738	27.47
581.933	27.67
582.127	27.97
582.321	27.61
582.516	27.58
582.71	27.59
582.904	27.47
583.099	27.45
583.293	27.41
583.487	27.65
583.681	27.97
583.875	28
584.07	27.94
584.264	28.05
584.458	28.31
584.652	28.22
584.846	28.32
585.04	28.72
585.234	29.07
585.428	29.03
585.623	28.82
585.817	28.67
586.011	28.83
586.205	28.88
586.399	28.9
586.593	28.91
586.787	29.11
586.981	28.94
587.174	28.83
587.368	28.63
587.562	28.75
587.756	28.91
587.95	28.98
588.144	28.83
588.338	28.99
588.532	29.08
588.725	29.24
588.919	29.23
589.113	29.25
589.307	29.17
589.501	29.18
589.694	29.36
589.888	29.29
590.082	29.45
590.275	29.46
590.469	29.53
590.663	29.32
590.856	29.47
591.05	29.53
591.244	29.66
591.437	29.94
591.631	30.09
591.824	29.75
592.018	29.96
592.212	29.88
592.405	30.01
592.599	30.04
592.792	30.11
592.986	30.05
593.179	30.11
593.372	30.22
593.566	30.33
593.759	30.38
593.953	30.6
594.146	30.55
594.339	30.75
594.533	31.06
594.726	31.14
594.92	31.22
595.113	31.18
595.306	31.12
595.499	30.97
595.693	30.82
595.886	30.79
596.079	30.77
596.272	30.76
596.466	30.87
596.659	30.83
596.852	30.67
597.045	30.75
597.238	30.67
597.431	30.74
597.624	30.8
597.818	30.72
598.011	30.74
598.204	30.84
598.397	30.88
598.59	30.64
598.783	30.67
598.976	30.62
599.169	30.56
599.362	30.51
599.555	30.54
599.748	30.66
599.941	30.7
600.134	30.76
600.326	30.76
600.519	30.87
600.712	31.08
600.905	31.05
601.098	31.45
601.291	31.64
601.483	32.03
601.676	32.11
601.869	32.29
602.062	32.51
602.255	32.32
602.447	32.46
602.64	32.45
602.833	32.48
603.025	32.26
603.218	31.93
603.411	31.89
603.603	31.64
603.796	31.57
603.989	31.63
604.181	31.63
604.374	31.82
604.566	31.64
604.759	31.63
604.951	31.6
605.144	31.57
605.336	31.75
605.529	31.83
605.721	32.07
605.914	32.11
606.106	32.15
606.299	32.08
606.491	32.16
606.683	32.32
606.876	32.22
607.068	32.3
607.26	32.69
607.453	32.88
607.645	32.91
607.837	32.75
608.03	32.89
608.222	32.72
608.414	32.98
608.606	33.05
608.799	33.18
608.991	33.32
609.183	33.32
609.375	33
609.567	32.83
609.759	32.96
609.952	33.17
610.144	33.21
610.336	33.3
610.528	33.25
610.72	33.2
610.912	33.35
611.104	33.3
611.296	33.36
611.488	33.62
611.68	33.68
611.872	33.59
612.064	33.76
612.256	33.95
612.448	33.91
612.64	33.72
612.832	33.82
613.023	33.57
613.215	33.71
613.407	33.79
613.599	33.9
613.791	33.75
613.983	33.81
614.174	33.62
614.366	33.42
614.558	33.53
614.75	33.41
614.941	33.38
615.133	33.43
615.325	33.43
615.516	33.39
615.708	33.24
615.9	33.37
616.091	33.16
616.283	33.31
616.475	33.15
616.666	33.16
616.858	33.66
617.049	33.65
617.241	33.81
617.432	33.82
617.624	33.81
617.815	34.03
618.007	34.21
618.198	34.68
618.39	34.57
618.581	34.65
618.773	34.78
618.964	34.61
619.155	34.64
619.347	34.42
619.538	34.85
619.729	34.8
619.921	34.79
620.112	34.62
620.303	34.38
620.494	34.54
620.686	34.71
620.877	34.6
621.068	34.7
621.259	34.78
621.451	34.91
621.642	34.48
621.833	34.54
622.024	34.67
622.215	34.86
622.406	34.96
622.597	34.81
622.788	34.64
622.98	34.66
623.171	34.7
623.362	34.79
623.553	34.96
623.744	35.03
623.935	35.1
624.126	34.92
624.317	34.87
624.508	34.84
624.698	34.7
624.889	34.91
625.08	35.06
625.271	34.99
625.462	34.85
625.653	34.71
625.844	34.81
626.034	34.51
626.225	34.55
626.416	34.6
626.607	34.71
626.798	34.98
626.988	35.05
627.179	34.74
627.37	34.4
627.56	34.48
627.751	34.43
627.942	34.4
628.132	34.61
628.323	34.65
628.514	34.74
628.704	34.55
628.895	34.26
629.085	34.14
629.276	34.43
629.466	34.64
629.657	34.59
629.847	34.73
630.038	34.74
630.228	34.87
630.419	34.98
630.609	34.84
630.8	34.84
630.99	34.94
631.181	35.03
631.371	34.85
631.561	35.24
631.752	35.38
631.942	35.45
632.132	35.57
632.323	35.51
632.513	35.28
632.703	35.25
632.893	35.27
633.084	35.3
633.274	35.16
633.464	35.26
633.654	35.28
633.844	35.2
634.034	35.09
634.225	34.94
634.415	34.88
634.605	35.19
634.795	35.22
634.985	35.43
635.175	35.4
635.365	35.48
635.555	35.58
635.745	35.48
635.935	35.39
636.125	35.35
636.315	35.51
636.505	35.53
636.695	35.2
636.885	35.08
637.075	34.92
637.265	35.13
637.455	35.06
637.644	35.08
637.834	35.26
638.024	35.38
638.214	35.54
638.404	35.56
638.593	35.92
638.783	36.1
638.973	36.47
639.163	36.3
639.352	36.17
639.542	36.73
639.732	36.68
639.921	36.41
640.111	36.38
640.301	36.22
640.49	36.05
640.68	35.51
640.87	35.64
641.059	35.49
641.249	35.97
641.438	35.93
641.628	35.56
641.817	35.49
642.007	35.63
642.196	35.45
642.386	35.84
642.575	36.07
642.764	36.11
642.954	35.98
643.143	36.2
643.333	36.1
643.522	36.41
643.711	36.14
643.901	36.06
644.09	36.47
644.279	36.83
644.469	36.51
644.658	36.58
644.847	36.95
645.036	37.04
645.226	36.76
645.415	36.63
645.604	36.68
645.793	36.73
645.982	36.71
646.171	36.25
646.361	36.76
646.55	37.06
646.739	36.73
646.928	36.67
647.117	36.54
647.306	36.89
647.495	36.79
647.684	36.5
647.873	36.97
648.062	37.16
648.251	37.46
648.44	36.81
648.629	36.67
648.818	36.95
649.007	36.83
649.196	36.62
649.384	36.41
649.573	36.37
649.762	36.53
649.951	36.36
650.14	36.55
650.328	36.27
650.517	36.52
650.706	36.53
650.895	36.77
651.083	37.24
651.272	37.34
651.461	37.45
651.65	38.18
651.838	38.18
652.027	38.29
652.216	38.11
652.404	38.33
652.593	38.37
652.781	38.39
652.97	38.15
653.158	37.96
653.347	38.3
653.535	38.33
653.724	37.48
653.912	37.71
654.101	37.81
654.289	37.83
654.478	37.97
654.666	37.87
654.855	37.81
655.043	37.6
655.231	37.6
655.42	37.46
655.608	37.56
655.796	37.69
655.985	37.62
656.173	37.5
656.361	37.67
656.55	37.37
656.738	37.18
656.926	37.53
657.114	38.19
657.302	38.46
657.491	38.17
657.679	37.59
657.867	37.6
658.055	37.48
658.243	37.21
658.431	37.23
658.619	37.49
658.807	37.74
658.996	37.56
659.184	37.05
659.372	37.01
659.56	37.28
659.748	37.47
659.936	37.75
660.124	37.75
660.311	37.77
660.499	37.6
660.687	37.28
660.875	37.15
661.063	37.07
661.251	37.32
661.439	36.86
661.627	36.89
661.814	36.9
662.002	36.75
662.19	36.36
662.378	36.13
662.565	36.5
662.753	36.74
662.941	36.81
663.129	37.24
663.316	37.24
663.504	37.46
663.692	37.5
663.879	37.82
664.067	37.92
664.254	38.46
664.442	38.56
664.63	38.3
664.817	37.91
665.005	37.83
665.192	37.72
665.38	37.89
665.567	37.65
665.755	37.93
665.942	37.93
666.13	38.05
666.317	38.21
666.504	38.29
666.692	38.7
666.879	39.17
667.067	38.98
667.254	38.59
667.441	38.43
667.629	38.54
667.816	38.1
668.003	37.93
668.19	37.88
668.378	37.62
668.565	38.11
668.752	37.78
668.939	37.75
669.127	37.92
669.314	37.82
669.501	37.66
669.688	38.09
669.875	38.11
670.062	38.26
670.249	38.21
670.436	38.4
670.623	38.41
670.81	38.57
670.997	38.56
671.184	38.57
671.371	39.22
671.558	39.35
671.745	39.01
671.932	38.91
672.119	38.91
672.306	38.98
672.493	38.83
672.68	38.41
672.867	38.58
673.054	38.32
673.24	38.33
673.427	38.15
673.614	37.71
673.801	38.23
673.988	38.6
674.174	38.45
674.361	38.63
674.548	38.37
674.734	38.96
674.921	38.39
675.108	38.96
675.294	38.8
675.481	38.7
675.668	39.1
675.854	38.57
676.041	38.44
676.227	38.55
676.414	38.5
676.601	39.26
676.787	39.15
676.974	39.15
677.16	38.63
677.347	38.71
677.533	38.59
677.719	38.77
677.906	38.84
678.092	38.88
678.279	38.65
678.465	38.02
678.651	37.72
678.838	37.47
679.024	37.73
679.21	37.71
679.397	37.9
679.583	38.02
679.769	37.87
679.955	37.77
680.142	37.87
680.328	38.41
680.514	38.5
680.7	38.23
680.886	38.66
681.073	38.69
681.259	38.54
681.445	38.83
681.631	38.66
681.817	39
682.003	39.1
682.189	38.79
682.375	38.48
682.561	39.11
682.747	39.51
682.933	39.3
683.119	38.93
683.305	39.34
683.491	38.93
683.677	39.2
683.863	38.86
684.049	39.01
684.235	39.21
684.42	39.41
684.606	39.02
684.792	38.92
684.978	38.5
685.164	39.19
685.349	39.17
685.535	39.28
685.721	39.13
685.907	39.19
686.092	39.47
686.278	39.47
686.464	39.21
686.649	39.75
686.835	39.75
687.021	40.16
687.206	40.02
687.392	39.76
687.577	40.08
687.763	39.93
687.948	39.78
688.134	39.04
688.319	39.08
688.505	39.06
688.69	38.7
688.876	38.8
689.061	38.53
689.247	38.36
689.432	38.76
689.618	38.36
689.803	38.92
689.988	39.05
690.174	39.85
690.359	40.12
690.544	40.11
690.73	40.15
690.915	40.22
691.1	40.55
691.285	40.73
691.471	41.04
691.656	41.2
691.841	40.61
692.026	40.43
692.211	40.18
692.396	39.91
692.582	40.33
692.767	40.51
692.952	40.1
693.137	39.68
693.322	39.67
693.507	39.13
693.692	39.33
693.877	39.38
694.062	40.32
694.247	40.29
694.432	40.88
694.617	40.6
694.802	40.41
694.987	40.51
695.172	40.77
695.357	41.31
695.541	41.58
695.726	42.06
695.911	42.25
696.096	41.01
696.281	41.09
696.466	40.63
696.65	40.47
696.835	40.75
697.02	40.56
697.204	40.57
697.389	40.05
697.574	39.83
697.759	39.44
697.943	39.08
698.128	39.61
698.312	39.32
698.497	39.02
698.682	38.97
698.866	38.76
699.051	38.74
699.235	38.67
699.42	38.9
699.604	38.83
699.789	38.84
699.973	38.81
700.158	38.98
700.342	39.17
700.527	39.59
700.711	39.87
700.895	39.59
701.08	39.93
701.264	40.1
701.448	39.99
701.633	40.29
701.817	39.99
702.001	40.15
702.186	39.59
702.37	39.9
702.554	39.79
702.738	40.02
702.923	40.28
703.107	40.7
703.291	40.61
703.475	40.63
703.659	40.6
703.843	40.78
704.027	41.51
704.212	42
704.396	41.78
704.58	41.45
704.764	41.5
704.948	41.36
705.132	40.45
705.316	40.34
705.5	40.85
705.684	41.38
705.868	41.63
706.052	41.2
706.235	41.2
706.419	41.28
706.603	41.88
706.787	41.51
706.971	42.3
707.155	42.29
707.339	43.1
707.522	42.99
707.706	42.24
707.89	42.18
708.074	42.48
708.257	42.26
708.441	42.83
708.625	42.77
708.808	42.79
708.992	42.56
709.176	43
709.359	42.19
709.543	41.77
709.727	42.33
709.91	42.2
710.094	42.23
710.277	42.47
710.461	41.22
710.644	41.19
710.828	41.17
711.011	41.12
711.195	40.84
711.378	41.04
711.562	41.1
711.745	40.72
711.928	40.33
712.112	39.78
712.295	39.44
712.478	40.43
712.662	40.84
712.845	40.74
713.028	40.59
713.212	40.87
713.395	40.77
713.578	40.79
713.761	40.8
713.945	40.82
714.128	41.44
714.311	41.63
714.494	41.23
714.677	40.45
714.86	40.77
715.043	40.96
715.227	40.93
715.41	40.59
715.593	40.58
715.776	40.61
715.959	40.9
716.142	40.68
716.325	41.11
716.508	41.17
716.691	41.35
716.874	41.22
717.057	41.21
717.239	41.16
717.422	41.88
717.605	41.91
717.788	42.25
717.971	42.76
718.154	42.86
718.337	42.51
718.519	42.75
718.702	43.37
718.885	43.51
719.068	43.24
719.25	43.47
719.433	43.2
719.616	42.92
719.798	42.28
719.981	42.3
720.164	41.97
720.346	41.91
720.529	41.91
720.712	41.94
720.894	42
721.077	42.05
721.259	42.22
721.442	42.67
721.624	42.83
721.807	43.17
721.989	42.69
722.172	43.31
722.354	42.83
722.537	42.45
722.719	41.65
722.901	41.88
723.084	42.35
723.266	41.86
723.448	41.88
723.631	42.71
723.813	43.3
723.995	43.1
724.178	42.84
724.36	43.53
724.542	43.75
724.724	44.79
724.907	44.73
725.089	44.61
725.271	44.53
725.453	43.79
725.635	43.27
725.817	43.28
725.999	43.51
726.181	43.65
726.364	43.25
726.546	43.16
726.728	42.64
726.91	42.48
727.092	42.16
727.274	43.01
727.456	43.13
727.638	42.97
727.819	42.38
728.001	42.12
728.183	42.47
728.365	42.48
728.547	42.42
728.729	42.9
728.911	43.36
729.093	43.41
729.274	42.52
729.456	42.97
729.638	43.18
729.82	43.46
730.001	43.71
730.183	43
730.365	42.94
730.546	42.79
730.728	41.33
730.91	40.72
731.091	40.8
731.273	40.75
731.455	40.54
731.636	40.23
731.818	40.16
731.999	40.01
732.181	40.26
732.362	40.15
732.544	41.24
732.725	42.32
732.907	42.83
733.088	43.27
733.27	44.19
733.451	44.53
733.633	45.45
733.814	45.21
733.995	45.55
734.177	45.23
734.358	45.29
734.539	44.4
734.721	44.38
734.902	43.95
735.083	43.22
735.264	43
735.446	42.76
735.627	42.01
735.808	41.38
735.989	40.74
736.17	41.61
736.351	42.14
736.533	41.99
736.714	41.78
736.895	42.08
737.076	42.16
737.257	41.96
737.438	41.84
737.619	42.26
737.8	43.18
737.981	43.38
738.162	43.79
738.343	44.19
738.524	44.17
738.705	44.32
738.886	44.4
739.067	44.74
739.247	44.87
739.428	44.83
739.609	44.92
739.79	45.53
739.971	44.79
740.151	43.73
740.332	43.14
740.513	43
740.694	43.4
740.874	43.3
741.055	42.9
741.236	43.42
741.417	43.67
741.597	42.93
741.778	42.62
741.958	43.5
742.139	43.95
742.32	44.12
742.5	45
742.681	44.96
742.861	44.56
743.042	44.79
743.222	44.44
743.403	44.04
743.583	44.54
743.764	44.53
743.944	44.58
744.124	44.67
744.305	43.6
744.485	43.53
744.666	42.7
744.846	43.26
745.026	44.37
745.207	43.52
745.387	43.97
745.567	44.52
745.747	44.25
745.928	44.71
746.108	44.43
746.288	45.02
746.468	43.99
746.648	43.57
746.829	43.3
747.009	42.37
747.189	43.58
747.369	43.35
747.549	43.13
747.729	43.2
747.909	42.56
748.089	42.54
748.269	42.87
748.449	44.74
748.629	45.26
748.809	45.09
748.989	44.82
749.169	44.45
749.349	44.24
749.529	44.28
749.709	42.99
749.889	43.92
750.068	43.07
750.248	43.42
750.428	42.72
750.608	43.18
750.788	42.32
750.967	42.15
751.147	41.93
751.327	42.87
751.507	43.2
751.686	44.73
751.866	44.46
752.046	45.58
752.225	45.37
752.405	45.68
752.585	45.41
752.764	46.5
752.944	47.37
753.123	47.94
753.303	47.58
753.482	47.58
753.662	47.13
753.841	46.81
754.021	47.01
754.2	47.62
754.38	46.29
754.559	46.15
754.739	45.47
754.918	45.39
755.097	44.76
755.277	44.82
755.456	43.91
755.635	43.64
755.815	44.2
755.994	44.05
756.173	42.64
756.352	43.06
756.532	42.79
756.711	43.1
756.89	40.99
757.069	42.03
757.248	41.43
757.427	40.99
757.607	41.65
757.786	41.33
757.965	40.48
758.144	41.38
758.323	42.08
758.502	41.66
758.681	41.11
758.86	42.68
759.039	42.48
759.218	43.66
759.397	44.27
759.576	43.67
759.755	43.21
759.934	43.51
760.113	43.58
760.291	42.43
760.47	43.46
760.649	44.43
760.828	44.57
761.007	44.48
761.186	43.05
761.364	42.26
761.543	42.17
761.722	43.25
761.901	43.49
762.079	43.43
762.258	44.19
762.437	43.51
762.615	42.87
762.794	42.78
762.972	41.96
763.151	42.1
763.33	42.52
763.508	43.2
763.687	42.34
763.865	42.55
764.044	42.43
764.222	42.13
764.401	42.39
764.579	42.06
764.758	42.15
764.936	42.74
765.114	42.76
765.293	42.82
765.471	42.2
765.65	42.25
765.828	41.28
766.006	41.5
766.184	41.59
766.363	41.17
766.541	41.37
766.719	42.07
766.898	41.26
767.076	40.5
767.254	40.89
767.432	41.55
767.61	41.68
767.788	43.2
767.967	43.58
768.145	43.62
768.323	44.15
768.501	45.28
768.679	45.19
768.857	45.47
769.035	46.4
769.213	46.71
769.391	46.66
769.569	45.98
769.747	46.41
769.925	45.65
770.103	45.64
770.281	46.54
770.459	47.87
770.636	46.94
770.814	47.89
770.992	47.63
771.17	47.9
771.348	48.49
771.525	49.89
771.703	48.36
771.881	48.68
772.059	49.26
772.236	48.17
772.414	46.96
772.592	46.38
772.769	45
772.947	45.07
773.125	43.3
773.302	42.64
773.48	43.07
773.657	43.79
773.835	43.23
774.013	43.13
774.19	44.49
774.368	43.73
774.545	44.87
774.723	46.48
774.9	46.53
775.077	47.61
775.255	47.39
775.432	46.33
775.61	46.26
775.787	47.35
775.964	47.99
776.142	47.63
776.319	47.45
776.496	47.38
776.674	47.93
776.851	48.54
777.028	46.99
777.205	47.2
777.382	46.52
777.56	46.23
777.737	46.71
777.914	45.32
778.091	44.83
778.268	45.04
778.445	45.69
778.622	43.39
778.8	42.9
778.977	44.37
779.154	47.89
779.331	48.9
779.508	49.03
779.685	47.49
779.862	48.54
780.038	48.47
780.215	49.2
780.392	47.67
780.569	48.45
780.746	49.42
780.923	50.42
781.1	47.71
781.277	47.91
781.453	48.06
781.63	48.61
781.807	47.23
781.984	48.41
782.16	48.07
782.337	49.75
782.514	50.1
782.691	52.33
782.867	50.85
783.044	49.68
783.221	49.9
783.397	50.98
783.574	49.52
783.75	51.83
783.927	52.25
784.103	52.87
784.28	52.06
784.456	52.86
784.633	51.18
784.809	51.85
784.986	50.37
785.162	49.83
785.339	47.42
785.515	48.85
785.692	48.2
785.868	46.37
786.044	46.54
786.221	46.06
786.397	45
786.573	43.69
786.749	45.1
786.926	48.32
787.102	46.73
787.278	48.92
787.454	48.14
787.631	47.21
787.807	46.87
787.983	45.66
788.159	46.09
788.335	45.66
788.511	45.59
788.687	45.21
788.863	44.04
789.039	45.29
789.216	44.18
789.392	46.64
789.568	46.45
789.744	47.68
789.919	46.22
790.095	45.19
790.271	46.85
790.447	46.84
790.623	46.84
790.799	47.21
790.975	46.96
791.151	47.91
791.327	46.97
791.502	48.01
791.678	46.37
791.854	48.14
792.03	49.27
792.205	49.48
792.381	50.71
792.557	50.95
792.733	51.78
792.908	52.29
793.084	50.12
793.259	49.7
793.435	49.01
793.611	51.16
793.786	50.78
793.962	50.75
794.137	49.77
794.313	48.11
794.488	47.75
794.664	47.44
794.839	46.65
795.015	49.67
795.19	49.06
795.366	47.92
795.541	46.1
795.716	45.25
795.892	45.95
796.067	45.06
796.242	44.73
796.418	43.58
796.593	43.53
796.768	45.02
796.944	43.34
797.119	43.18
797.294	43.96
797.469	45.51
797.644	47.1
797.82	45.08
797.995	44.01
798.17	45.2
798.345	45.55
798.52	45.06
798.695	44.83
798.87	43.99
799.045	44.72
799.22	45.55
799.395	44.02
799.57	44.53
799.745	45.03
799.92	46.21
800.095	47.57
800.27	47.34
800.445	47.92
800.62	47.03
800.795	48.91
800.97	51.02
801.145	50.47
801.319	53.71
801.494	52.63
801.669	53.93
801.844	57.2
802.018	52.29
802.193	54.17
802.368	53.31
802.543	51.74
802.717	52.42
802.892	49.73
803.067	49.53
803.241	46.42
803.416	49.07
803.59	48.59
803.765	45.74
803.94	51.13
804.114	48.79
804.289	48.2
804.463	51.77
804.638	47.25
804.812	48.5
804.986	46.11
805.161	47.12
805.335	44.81
805.51	43.89
805.684	42.67
805.858	42.09
806.033	41.67
806.207	41.59
806.381	41
806.556	43.7
806.73	42.72
806.904	44.08
807.078	43.13
807.253	43.74
807.427	43.52
807.601	43.95
807.775	44.37
807.949	45.23
808.123	45.74
808.298	47.43
808.472	49.12
808.646	48.44
808.82	49.89
808.994	49.37
809.168	49.03
809.342	51.71
809.516	53.93
809.69	52.35
809.864	51.97
810.038	53.03
810.212	50.67
810.385	49.02
810.559	49.43
810.733	48.62
810.907	49.65
811.081	49.69
811.255	47.87
811.428	46.71
811.602	45.7
811.776	45.45
811.95	43.48
812.123	43.68
812.297	45.95
812.471	48.6
812.644	48.94
812.818	48.14
812.992	47.55
813.165	48.89
813.339	48.72
813.512	47.09
813.686	48.23
813.86	49.87
814.033	47.31
814.207	44.59
814.38	41.46
814.554	41.65
814.727	43.71
814.9	43.94
815.074	44.9
815.247	44.35
815.421	45.87
815.594	45.58
815.767	45.7
815.941	46.75
816.114	47.56
816.287	48.77
816.46	45.84
816.634	47.34
816.807	49.61
816.98	45.78
817.153	47.65
817.327	47.03
817.5	46.2
817.673	46.07
817.846	47.36
818.019	48.84
818.192	46.75
818.365	47.12
818.538	47.08
818.711	44.61
818.884	46.06
819.057	46.11
819.23	46.46
819.403	46.37
819.576	44.68
819.749	44.47
819.922	42.7
820.095	42.87
820.268	44.89
820.441	42.8
820.614	42.02
820.786	41.51
820.959	40.68
821.132	41.62
821.305	41.76
821.477	42.23
821.65	42.38
821.823	41.81
821.996	40.82
822.168	40.05
822.341	40.13
822.514	40.27
822.686	39.8
822.859	39.42
823.031	38.98
823.204	38.6
823.376	38.68
823.549	38.35
823.722	38.38
823.894	39.34
824.067	39.45
824.239	39.53
824.411	39.76
824.584	40.25
824.756	40.35
824.929	40.41
825.101	41.36
825.273	41.42
825.446	41.48
825.618	41.56
825.79	41.17
825.963	41.47
826.135	41.69
826.307	41.07
826.479	41.45
826.652	41.24
826.824	40.75
826.996	39.79
827.168	39.36
827.34	40.31
827.512	40.48
827.684	40.53
827.856	40.47
828.029	40.4
828.201	40.24
828.373	39.82
828.545	41.24
828.717	42.69
828.889	42.9
829.061	42.87
829.232	42.5
829.404	42.77
829.576	42.54
829.748	41.09
829.92	41.3
830.092	42.71
830.264	42.05
830.436	40.23
830.607	39.65
830.779	41.63
830.951	41.89
831.123	40.89
831.294	39.74
831.466	39.61
831.638	41.44
831.809	40.42
831.981	41.05
832.153	44.24
832.324	44.44
832.496	45.24
832.667	45.49
832.839	47.24
833.011	46.81
833.182	46.82
833.354	47.35
833.525	48.61
833.697	48.84
833.868	47.35
834.039	45.63
834.211	47.06
834.382	45.7
834.554	44.69
834.725	43.29
834.896	42.76
835.068	42.16
835.239	40.74
835.41	39.93
835.581	40.19
835.753	39.57
835.924	39.97
836.095	39.82
836.266	38.93
836.438	38.09
836.609	39.03
836.78	40.92
836.951	42.97
837.122	44.41
837.293	45.18
837.464	44.48
837.635	46.54
837.806	46.49
837.977	46.32
838.148	49.54
838.319	49.74
838.49	49.95
838.661	49.19
838.832	48.36
839.003	47.76
839.174	48.5
839.345	51.22
839.516	53.37
839.687	54.73
839.857	54.23
840.028	53.28
840.199	51.56
840.37	49.25
840.54	51.39
840.711	47.15
840.882	52.38
841.053	50.68
841.223	45.29
841.394	43.08
841.564	43.33
841.735	42.09
841.906	42.44
842.076	41.82
842.247	46.05
842.417	44.47
842.588	51.34
842.758	49.93
842.929	51.14
843.099	55.93
843.27	58.86
843.44	54.02
843.611	54.51
843.781	52.1
843.951	52.5
844.122	51.54
844.292	51.65
844.462	51.77
844.633	49.9
844.803	47.21
844.973	48.25
845.144	45.46
845.314	55.22
845.484	53.92
845.654	62.46
845.824	67.78
845.995	67.77
846.165	65.56
846.335	66.63
846.505	65.67
846.675	66.77
846.845	63.49
847.015	65.94
847.185	59.32
847.355	62.08
847.525	54.1
847.695	56.06
847.865	56.82
848.035	60.39
848.205	54.44
848.375	63.42
848.545	52.89
848.715	61.47
848.884	58.82
849.054	60.08
849.224	61.18
849.394	65.25
849.564	63.74
849.733	62.53
849.903	60.8
850.073	67.05
850.243	63.19
850.412	70.86
850.582	68.57
850.752	64.53
850.921	63.47
851.091	64.4
851.26	68.04
851.43	67.02
851.599	64.55
851.769	69.96
851.939	69.18
852.108	67.06
852.278	70.15
852.447	63.12
852.616	64
852.786	63.75
852.955	68.4
853.125	73.08
853.294	69.42
853.463	72.64
853.633	62.99
853.802	59.85
853.971	64.29
854.141	65.25
854.31	63.11
854.479	67
854.648	69.77
854.818	65.6
854.987	58.13
855.156	58.7
855.325	57.12
855.494	57.48
855.663	60.85
855.832	58.36
856.001	68.65
856.171	76.89
856.34	79.35
856.509	88.61
856.678	91.32
856.847	81.61
857.016	89.5
857.185	88.46
857.353	98.09
857.522	104.18
857.691	110.29
857.86	102.99
858.029	95.1
858.198	99.61
858.367	91.5
858.535	94.68
858.704	100.14
858.873	96.3
859.042	106.22
859.21	97.47
859.379	96.72
859.548	78.76
859.717	78.76
859.885	78.06
860.054	66
860.222	62.79
860.391	66.58
860.56	63.88
860.728	66.57
860.897	57.27
861.065	60.93
861.234	50.95
861.402	63.97
861.571	60.66
861.739	66.88
861.908	73.17
862.076	77.92
862.244	73.96
862.413	74.16
862.581	75.84
862.749	71.19
862.918	69.92
863.086	73.39
863.254	68.02
863.423	67.53
863.591	68
863.759	66.62
863.927	68.95
864.096	68.84
864.264	77.61
864.432	64.65
864.6	69.93
864.768	67.85
864.936	64.24
865.104	59
865.272	55.75
865.44	55.16
865.608	51.21
865.776	50.01
865.944	49.3
866.112	42.15
866.28	55.82
866.448	51.08
866.616	46.08
866.784	54.4
866.952	57.91
867.12	57.58
867.288	62.46
867.455	59.52
867.623	65.31
867.791	59.74
867.959	52.94
868.127	48.99
868.294	57.07
868.462	60.52
868.63	59.52
868.797	57.07
868.965	58.29
869.133	49.67
869.3	58.35
869.468	57.38
869.636	44.83
869.803	52.34
869.971	51.06
870.138	44.37
870.306	49.37
870.473	43.48
870.641	44.39
870.808	41.01
870.975	43.33
871.143	42.9
871.31	40.92
871.478	58.38
871.645	53.83
871.812	57.59
871.98	61.23
872.147	61.39
872.314	59.4
872.482	67.12
872.649	72.52
872.816	61.96
872.983	57.25
873.15	50.98
873.318	49.29
873.485	57.22
873.652	61.95
873.819	61.72
873.986	61.37
874.153	76.99
874.32	74.91
874.487	76.44
874.654	83.61
874.821	85.39
874.988	81.15
875.155	78.89
875.322	79.63
875.489	72.99
875.656	75.86
875.823	74.78
875.99	60.54
876.157	48.76
876.324	48.14
876.49	49.33
876.657	50.09
876.824	50.06
876.991	55.05
877.157	49.41
877.324	54.47
877.491	48.73
877.658	45.73
877.824	47.32
877.991	58.82
878.157	65.79
878.324	62.12
878.491	67.05
878.657	75.26
878.824	77.56
878.99	79.3
879.157	73.21
879.323	71.99
879.49	73.62
879.656	80.37
879.823	72.64
879.989	70.66
880.156	78.14
880.322	69.25
880.488	65.45
880.655	58.78
880.821	60.88
880.987	63.6
881.154	60.24
881.32	61.6
881.486	59.45
881.652	57.29
881.819	53
881.985	46.92
882.151	51.58
882.317	51.01
882.483	49.94
882.649	47.94
882.816	48.05
882.982	46.22
883.148	44.39
883.314	43.49
883.48	44.22
883.646	44.27
883.812	44.87
883.978	43.97
884.144	43.7
884.31	43.82
884.476	43.69
884.642	42.99
884.807	44.93
884.973	45.54
885.139	44.99
885.305	46.57
885.471	48.1
885.637	45.95
885.802	45.41
885.968	45.23
886.134	45.49
886.3	45.34
886.465	44.73
886.631	43.92
886.797	44.41
886.962	45.95
887.128	44.12
887.293	43.29
887.459	47.85
887.625	47.44
887.79	50.45
887.956	47.86
888.121	49.9
888.287	51.41
888.452	53.53
888.618	51.79
888.783	52.2
