Data from LC_164_Reflection_2.txt Node
Date: Mon Nov 16 22:51:03 EST 2015
User: robert
Spectrometer: USB4E03001
Autoset integration time: false
Trigger mode: 4
Integration Time (sec): 1.000000E-1
Scans to average: 15
Electric dark correction enabled: true
Nonlinearity correction enabled: false
Boxcar width: 5
Stray light correction enabled: false
XAxis mode: Wavelengths
Stop averaging: false
Number of Pixels in Spectrum: 3648
>>>>>Begin Spectral Data<<<<<
177.566	6169.88
177.785	421.34
178.005	-3159.66
178.225	232.65
178.445	276.23
178.665	268.49
178.885	449.02
179.105	1071.03
179.324	1696.73
179.544	-176.51
179.764	-1279.65
179.984	-395.15
180.204	-279.76
180.423	-219.75
180.643	-293.92
180.863	-198.07
181.083	-85.28
181.302	-138.83
181.522	-97.45
181.742	-74.2
181.961	-203.27
182.181	-157.4
182.401	-180.49
182.621	-1110.32
182.84	-569.76
183.06	-376.49
183.279	-234.15
183.499	-207.97
183.719	-179.95
183.938	-188.68
184.158	-195.81
184.377	-112.45
184.597	-201.18
184.816	-138.75
185.036	-75.28
185.256	-29.48
185.475	-45.56
185.695	-50.47
185.914	-60.43
186.134	-149.34
186.353	-196.43
186.572	-386.51
186.792	-622.08
187.011	-149.56
187.231	-156.55
187.45	-136.47
187.67	-551.88
187.889	-1490.63
188.108	3253.59
188.328	-844.09
188.547	-287.81
188.766	-571.08
188.986	-747.91
189.205	-482.79
189.424	-363.49
189.644	-1220.13
189.863	-1424.88
190.082	-898.8
190.302	-1905.08
190.521	-1031.99
190.74	952.21
190.959	413.11
191.178	617.83
191.398	588.66
191.617	554.03
191.836	495.3
192.055	1056.56
192.274	447.75
192.494	497.06
192.713	585.93
192.932	1173.09
193.151	1156.73
193.37	2254.22
193.589	-1253.71
193.808	-335.05
194.027	-387.05
194.246	-3803.07
194.465	688.9
194.685	1259.84
194.904	596.95
195.123	-674.92
195.342	-446.24
195.561	-142.14
195.78	-237.57
195.999	13976.06
196.218	447.87
196.436	506.06
196.655	-1716.06
196.874	-622.77
197.093	-967.19
197.312	-725.16
197.531	1871.67
197.75	600.45
197.969	-2078.49
198.188	-319.16
198.407	-28.37
198.625	-66.48
198.844	-33.59
199.063	-13.18
199.282	-62.89
199.501	-54.17
199.719	-35.2
199.938	-11.62
200.157	-5.34
200.376	1.75
200.594	-35.85
200.813	-129.06
201.032	-103.73
201.251	-97.35
201.469	-112.54
201.688	-84.1
201.907	-199.77
202.125	-346.01
202.344	13515.48
202.563	2996.1
202.781	478.81
203	1375.25
203.218	1060.73
203.437	865.57
203.656	458.34
203.874	253.44
204.093	233.43
204.311	265.07
204.53	244.26
204.748	368.2
204.967	210.35
205.185	231.86
205.404	316.53
205.622	204.27
205.841	177
206.059	168.43
206.278	200.92
206.496	634.56
206.715	382.25
206.933	315.16
207.151	233.39
207.37	275.08
207.588	315.48
207.806	261.24
208.025	585.57
208.243	-1019.25
208.461	1586.25
208.68	-14212.94
208.898	537.68
209.116	477.23
209.335	552.59
209.553	526.07
209.771	4540.83
209.989	754.16
210.208	1330.42
210.426	-2397.27
210.644	1307.12
210.862	-1251.19
211.081	650.31
211.299	-132.51
211.517	711.96
211.735	-117.3
211.953	-71557.14
212.171	-1144.58
212.39	-5121.62
212.608	-15495.65
212.826	514.22
213.044	321.51
213.262	310.94
213.48	1520.25
213.698	207.33
213.916	354.34
214.134	223.83
214.352	494.93
214.57	353.89
214.788	399.37
215.006	319.34
215.224	299.98
215.442	251.12
215.66	204.81
215.878	175.72
216.096	202.87
216.314	188.28
216.532	375.86
216.75	268.52
216.968	234.95
217.185	509.85
217.403	1173.16
217.621	-3234.04
217.839	-925.78
218.057	-1179.08
218.275	2158.69
218.492	663.21
218.71	953.68
218.928	275.66
219.146	277.49
219.363	254.62
219.581	198.62
219.799	152.11
220.017	160.71
220.234	160.88
220.452	163.45
220.67	195.48
220.887	189.08
221.105	225.53
221.323	189.6
221.54	199.91
221.758	260.83
221.976	259.36
222.193	202.89
222.411	129.46
222.629	117.67
222.846	123.22
223.064	118.35
223.281	117.19
223.499	113.41
223.716	123.99
223.934	87.53
224.151	65.34
224.369	59.65
224.586	71.22
224.804	60.71
225.021	69.71
225.239	57.55
225.456	61.06
225.674	57.89
225.891	44.99
226.108	56.35
226.326	62.28
226.543	61.73
226.76	54.47
226.978	45.55
227.195	56.49
227.413	48.68
227.63	44
227.847	41.16
228.064	34.67
228.282	31.2
228.499	26.4
228.716	25.19
228.934	26.06
229.151	28.34
229.368	26.69
229.585	24.56
229.802	25.37
230.02	26.8
230.237	27.17
230.454	28.14
230.671	30.75
230.888	31.81
231.105	32.91
231.323	31.95
231.54	30.18
231.757	29.54
231.974	23.29
232.191	14.18
232.408	15.45
232.625	10.67
232.842	13.63
233.059	13.47
233.276	12.34
233.493	12.96
233.71	15.46
233.927	21.01
234.144	23.79
234.361	25.71
234.578	30.81
234.795	23.89
235.012	25.01
235.229	24.4
235.446	21.89
235.663	23.85
235.879	23.29
236.096	20.38
236.313	16.04
236.53	15.1
236.747	15.98
236.964	17.44
237.181	22.45
237.397	20.82
237.614	17.71
237.831	16.13
238.048	19.06
238.264	18.07
238.481	16.71
238.698	19.66
238.915	19.74
239.131	24.58
239.348	23.93
239.565	25.95
239.781	30.03
239.998	31.52
240.215	32.42
240.431	29.14
240.648	28.77
240.865	30.34
241.081	28.48
241.298	28.19
241.514	29.01
241.731	26.13
241.947	24.26
242.164	21.34
242.38	21.4
242.597	20.99
242.814	20.76
243.03	19.7
243.246	18.73
243.463	19.18
243.679	18.9
243.896	16.15
244.112	20.24
244.329	20.18
244.545	20.42
244.762	20.3
244.978	21.09
245.194	20.21
245.411	21.83
245.627	22.06
245.843	20.51
246.06	20.57
246.276	21.27
246.492	18.39
246.709	18.22
246.925	18.51
247.141	17.7
247.357	17.1
247.574	17.58
247.79	16.42
248.006	16.52
248.222	15.95
248.439	15.88
248.655	15.93
248.871	15.95
249.087	15.2
249.303	13.19
249.519	14.74
249.736	15.43
249.952	14.76
250.168	17.95
250.384	18.53
250.6	20.92
250.816	19.68
251.032	16.83
251.248	16.85
251.464	15.66
251.68	18.49
251.896	16.02
252.112	16.09
252.328	18.03
252.544	17.22
252.76	16.63
252.976	15.27
253.192	15.47
253.408	16.91
253.624	19.96
253.84	20.27
254.056	21.09
254.272	21.92
254.487	21.76
254.703	19.36
254.919	18.11
255.135	16.58
255.351	16.82
255.567	19.76
255.782	19.46
255.998	14.83
256.214	17.9
256.43	15.86
256.646	15.43
256.861	15.9
257.077	16.59
257.293	15.41
257.508	16.48
257.724	18.07
257.94	17.04
258.155	16.4
258.371	16.69
258.587	15.5
258.802	15.46
259.018	16.23
259.234	15.37
259.449	15.84
259.665	15.93
259.88	16.15
260.096	15.91
260.312	15.37
260.527	15.94
260.743	15.94
260.958	16.22
261.174	16.17
261.389	16.33
261.605	16.78
261.82	16.83
262.036	16.72
262.251	17.03
262.466	16.44
262.682	16.71
262.897	16.78
263.113	17.6
263.328	18.58
263.543	19.82
263.759	20.03
263.974	20.3
264.189	20.21
264.405	21.02
264.62	19.79
264.835	20.83
265.051	20.98
265.266	20.3
265.481	18.67
265.696	19.83
265.912	19.73
266.127	18.2
266.342	16.17
266.557	15.48
266.773	14.95
266.988	16.01
267.203	15.85
267.418	14.68
267.633	13.64
267.848	15.31
268.064	13.37
268.279	12.76
268.494	11.79
268.709	13.37
268.924	13.34
269.139	14.14
269.354	13.58
269.569	12.42
269.784	12.71
269.999	13.29
270.214	11.52
270.429	12.75
270.644	12.17
270.859	11.96
271.074	12.02
271.289	11.42
271.504	10.76
271.719	10.83
271.934	11.1
272.149	11.31
272.363	11.67
272.578	10.92
272.793	10.13
273.008	9.85
273.223	11.06
273.438	10.31
273.653	11.25
273.867	11.4
274.082	10.56
274.297	11
274.512	11.83
274.726	11.45
274.941	13.3
275.156	13.49
275.371	15.15
275.585	14.92
275.8	15.08
276.015	14.38
276.229	14.47
276.444	15.61
276.659	16.64
276.873	16.65
277.088	16.69
277.302	15.68
277.517	15.97
277.732	16.58
277.946	16.3
278.161	18.22
278.375	18.88
278.59	18.86
278.804	18.35
279.019	17.39
279.233	16.52
279.448	17.13
279.662	16.72
279.877	17.01
280.091	15.47
280.306	15.2
280.52	13.75
280.735	12.45
280.949	11.45
281.163	11.95
281.378	10.72
281.592	10.73
281.806	10.51
282.021	10.59
282.235	11.18
282.449	11.5
282.664	11.9
282.878	11.47
283.092	12.62
283.307	13.12
283.521	13.06
283.735	13.8
283.949	15.21
284.164	14.66
284.378	15.21
284.592	14.22
284.806	13.88
285.02	13.73
285.234	14.05
285.449	12.3
285.663	12.95
285.877	12.25
286.091	11.8
286.305	10.46
286.519	10.78
286.733	9.36
286.947	10.04
287.161	9.98
287.375	11.26
287.589	11.18
287.803	13.09
288.017	12.18
288.231	12.56
288.445	13.66
288.659	14.45
288.873	14.38
289.087	16.25
289.301	15.64
289.515	16.39
289.729	14.46
289.943	14.05
290.157	13.87
290.371	15.28
290.584	15.43
290.798	15.61
291.012	15.85
291.226	15.56
291.44	16.01
291.654	16.15
291.867	15.66
292.081	15.17
292.295	16.13
292.509	16.65
292.722	16.28
292.936	15.67
293.15	15.35
293.364	15.44
293.577	16.25
293.791	14.68
294.005	15.54
294.218	15.72
294.432	17.51
294.645	16.56
294.859	15.68
295.073	16.18
295.286	17.03
295.5	16.07
295.713	15.69
295.927	14.88
296.14	15.72
296.354	15.68
296.568	15.01
296.781	14.93
296.994	15.17
297.208	14.95
297.421	14.89
297.635	14.28
297.848	15.05
298.062	14.72
298.275	15.27
298.489	15.18
298.702	14.47
298.915	15.34
299.129	15.46
299.342	15.14
299.555	15.49
299.769	15.3
299.982	15.84
300.195	16.16
300.409	16.9
300.622	17.05
300.835	17.54
301.048	17.02
301.262	15.77
301.475	14.9
301.688	15.82
301.901	16.76
302.115	17.01
302.328	18.02
302.541	16.87
302.754	16.98
302.967	16.67
303.18	16.6
303.393	17.52
303.607	18.44
303.82	19.2
304.033	18.6
304.246	18.23
304.459	18.54
304.672	17.87
304.885	19.17
305.098	18.59
305.311	17.74
305.524	17.94
305.737	17.63
305.95	18.69
306.163	16.92
306.376	16.89
306.589	17.24
306.802	15.5
307.015	15.81
307.228	14.87
307.44	14.9
307.653	15.76
307.866	14.1
308.079	15.32
308.292	14.71
308.505	16.82
308.718	17.31
308.93	15.54
309.143	15.92
309.356	15.89
309.569	16.16
309.781	16.11
309.994	15.97
310.207	17.16
310.42	15.93
310.632	15.25
310.845	15.07
311.058	14.39
311.27	14.63
311.483	14.23
311.696	13.56
311.908	13.38
312.121	13.87
312.333	14.53
312.546	13.78
312.759	14.27
312.971	14.53
313.184	14.52
313.396	14.68
313.609	16.14
313.821	16.4
314.034	17.14
314.246	17.26
314.459	16.59
314.671	16.56
314.884	16.03
315.096	16.56
315.309	16.34
315.521	17.31
315.733	16.47
315.946	15.43
316.158	15.74
316.371	15.44
316.583	16.08
316.795	16.75
317.008	17.63
317.22	19.65
317.432	18.46
317.644	18.48
317.857	17.26
318.069	17.96
318.281	17.85
318.494	18.24
318.706	18.82
318.918	18.4
319.13	18.1
319.342	16.92
319.555	16.05
319.767	16.5
319.979	17.32
320.191	17.26
320.403	18.17
320.615	18.64
320.827	18.9
321.039	18.15
321.252	18.44
321.464	18.17
321.676	18.24
321.888	17.37
322.1	17.9
322.312	15.71
322.524	15.24
322.736	14.73
322.948	14.24
323.16	13.87
323.372	15.08
323.584	14.25
323.796	14.36
324.007	14.25
324.219	15.15
324.431	14.85
324.643	16.08
324.855	16.28
325.067	16.59
325.279	16.51
325.491	16.78
325.702	15.15
325.914	16.28
326.126	17.23
326.338	17.55
326.55	17.42
326.761	17.49
326.973	16.61
327.185	17.32
327.396	17.16
327.608	17.66
327.82	17.65
328.032	17.65
328.243	16.4
328.455	15.77
328.666	15.31
328.878	14.93
329.09	14.57
329.301	15.69
329.513	14.88
329.725	14.78
329.936	14.67
330.148	14.95
330.359	15.57
330.571	14.65
330.782	14.19
330.994	14.11
331.205	14.72
331.417	14.91
331.628	14.81
331.84	15.62
332.051	15.14
332.262	16.35
332.474	15.34
332.685	15.9
332.897	17.23
333.108	18.19
333.319	18.06
333.531	17.8
333.742	18.54
333.953	17.94
334.165	17.08
334.376	17.02
334.587	15.38
334.799	15.41
335.01	14.29
335.221	13.55
335.432	12.68
335.644	12.18
335.855	11.72
336.066	12.16
336.277	12.93
336.488	13.37
336.7	13.61
336.911	13.93
337.122	14.09
337.333	15.06
337.544	16.7
337.755	16.91
337.966	17.15
338.177	18.21
338.388	17.22
338.599	17.95
338.811	17.29
339.022	17
339.233	16.8
339.444	17.11
339.655	15.22
339.866	14.68
340.076	14.82
340.287	15.85
340.498	15.07
340.709	14.94
340.92	13.09
341.131	13.65
341.342	13.81
341.553	13.77
341.764	13.34
341.975	15.37
342.185	14.37
342.396	14.48
342.607	13.92
342.818	13.76
343.029	13.86
343.239	14.33
343.45	14.22
343.661	13.91
343.872	14.01
344.082	13.76
344.293	13.17
344.504	13.57
344.714	12.46
344.925	11.67
345.136	12.01
345.346	11.18
345.557	11.35
345.768	10.57
345.978	10.5
346.189	11.09
346.399	10.7
346.61	10.87
346.821	10.59
347.031	12.28
347.242	12.57
347.452	12.47
347.663	12.91
347.873	13.21
348.084	13.65
348.294	14.61
348.504	14.23
348.715	14.68
348.925	13.74
349.136	13.29
349.346	11.34
349.557	11.74
349.767	11.92
349.977	11.7
350.188	11.68
350.398	12.46
350.608	11.63
350.819	11.45
351.029	11.49
351.239	11.79
351.449	11.78
351.66	12.19
351.87	12.34
352.08	11.61
352.29	11.46
352.501	10.98
352.711	9.99
352.921	10.52
353.131	10.55
353.341	10.58
353.552	10.63
353.762	10.65
353.972	11.32
354.182	11.85
354.392	11.89
354.602	11.8
354.812	12.02
355.022	12.49
355.232	12.18
355.442	12.25
355.652	12.56
355.862	11.91
356.072	12.25
356.282	11.56
356.492	10.77
356.702	10.76
356.912	11.75
357.122	11.79
357.332	11.76
357.542	11.97
357.752	11.44
357.962	10.62
358.171	11
358.381	11.54
358.591	11.78
358.801	11.83
359.011	12.65
359.221	11.62
359.43	12.39
359.64	12.46
359.85	12.19
360.06	12.57
360.269	13.23
360.479	13.25
360.689	12.66
360.899	12.79
361.108	12.97
361.318	12.43
361.528	12.48
361.737	11.49
361.947	10.86
362.156	10.92
362.366	10.59
362.576	10.43
362.785	10.56
362.995	9.98
363.204	9.72
363.414	9.37
363.623	9.15
363.833	9.74
364.042	10.04
364.252	10.83
364.461	10.72
364.671	10.79
364.88	10.94
365.09	11.35
365.299	12.28
365.509	11.82
365.718	11.07
365.927	11.29
366.137	11
366.346	10.44
366.555	10.16
366.765	10.28
366.974	10.45
367.183	10.16
367.393	9.77
367.602	9.05
367.811	9.26
368.021	9.24
368.23	9.25
368.439	8.88
368.648	9.48
368.857	9.58
369.067	9.27
369.276	8.92
369.485	8.71
369.694	8.35
369.903	9.06
370.112	9.03
370.321	9.81
370.531	9.13
370.74	9.08
370.949	8.75
371.158	8.26
371.367	8.85
371.576	8.74
371.785	8.53
371.994	8.59
372.203	8.36
372.412	8.54
372.621	8.65
372.83	9.42
373.039	9.82
373.248	9.46
373.457	9.86
373.666	9.41
373.874	9.26
374.083	9.84
374.292	9.62
374.501	9.23
374.71	9
374.919	8.83
375.128	8.38
375.336	8.3
375.545	8.91
375.754	8.09
375.963	7.88
376.171	8.11
376.38	7.86
376.589	8.25
376.798	8.28
377.006	8.61
377.215	8.81
377.424	8.75
377.632	8.68
377.841	8.83
378.05	9.06
378.258	8.78
378.467	8.83
378.675	9.08
378.884	8.95
379.093	9.06
379.301	8.7
379.51	8.29
379.718	8.09
379.927	8.09
380.135	7.35
380.344	7.25
380.552	7.53
380.761	7.51
380.969	7.24
381.177	7.2
381.386	6.8
381.594	6.66
381.803	6.48
382.011	6.72
382.219	6.01
382.428	5.58
382.636	5.76
382.845	6.26
383.053	6.26
383.261	6.42
383.469	6.43
383.678	6.95
383.886	7.04
384.094	6.97
384.302	7.01
384.511	8
384.719	8.72
384.927	8.78
385.135	8.6
385.343	8.75
385.552	8.42
385.76	8.24
385.968	7.94
386.176	7.8
386.384	7.77
386.592	7.33
386.8	6.82
387.008	7.17
387.216	7.26
387.424	7.08
387.633	6.9
387.841	6.95
388.049	7.24
388.257	7.39
388.465	7.54
388.672	7.72
388.88	8.01
389.088	7.88
389.296	7.36
389.504	7.35
389.712	7
389.92	6.84
390.128	7.01
390.336	6.64
390.544	6.88
390.751	6.6
390.959	6.45
391.167	6.46
391.375	6.89
391.583	6.8
391.79	6.69
391.998	6.96
392.206	7.19
392.414	6.94
392.621	7.08
392.829	6.93
393.037	6.84
393.244	7.01
393.452	7.09
393.66	6.87
393.867	7.03
394.075	7.07
394.283	6.87
394.49	6.64
394.698	6.67
394.905	6.76
395.113	6.52
395.32	6.71
395.528	6.73
395.735	6.53
395.943	6.17
396.15	5.91
396.358	5.99
396.565	5.98
396.773	6.42
396.98	6.26
397.188	6.04
397.395	6.18
397.602	6.26
397.81	6.15
398.017	6.39
398.225	6.6
398.432	6.7
398.639	6.76
398.847	6.91
399.054	6.6
399.261	6.63
399.468	6.86
399.676	6.68
399.883	6.66
400.09	6.94
400.297	7.07
400.505	7.18
400.712	7.43
400.919	7.19
401.126	7.21
401.333	7.18
401.54	7.2
401.748	6.96
401.955	6.99
402.162	7.07
402.369	6.77
402.576	6.56
402.783	6.53
402.99	6.37
403.197	6.42
403.404	6.17
403.611	6.08
403.818	6.08
404.025	6.15
404.232	6.23
404.439	6.05
404.646	6
404.853	5.91
405.06	5.97
405.267	5.68
405.474	5.59
405.681	5.37
405.887	5.41
406.094	5.63
406.301	5.71
406.508	5.58
406.715	5.69
406.922	5.73
407.128	5.81
407.335	5.63
407.542	5.81
407.749	6.02
407.955	6.47
408.162	6.43
408.369	6.26
408.575	6.21
408.782	6.4
408.989	6.25
409.195	6.08
409.402	6.22
409.609	6.6
409.815	6.55
410.022	6.45
410.228	6.35
410.435	6.4
410.642	6.08
410.848	6.3
411.055	6.11
411.261	6.16
411.468	6.35
411.674	6.11
411.881	5.87
412.087	6.19
412.294	6.15
412.5	5.93
412.706	5.97
412.913	6.22
413.119	5.89
413.326	5.67
413.532	5.83
413.738	5.65
413.945	5.88
414.151	5.63
414.357	5.39
414.564	5.31
414.77	5.61
414.976	5.24
415.182	5.55
415.389	5.51
415.595	5.78
415.801	5.74
416.007	6.01
416.214	5.84
416.42	6.25
416.626	6.26
416.832	6.28
417.038	6.13
417.244	6.48
417.45	6.1
417.657	6.29
417.863	6.43
418.069	6.55
418.275	6.58
418.481	6.59
418.687	6.32
418.893	6.23
419.099	6.2
419.305	6.3
419.511	6.25
419.717	6.42
419.923	6.16
420.129	6.02
420.335	5.94
420.541	5.91
420.746	5.85
420.952	5.94
421.158	5.94
421.364	5.94
421.57	5.95
421.776	5.94
421.982	5.86
422.187	5.84
422.393	5.86
422.599	5.7
422.805	5.67
423.01	5.69
423.216	5.42
423.422	5.41
423.628	5.39
423.833	5.31
424.039	5.32
424.245	5.35
424.45	5.53
424.656	5.5
424.862	5.5
425.067	5.46
425.273	5.4
425.478	5.61
425.684	5.55
425.889	5.7
426.095	5.8
426.301	5.84
426.506	5.88
426.712	5.86
426.917	5.89
427.123	6.16
427.328	6.16
427.533	6.29
427.739	6.34
427.944	6.5
428.15	6.23
428.355	6.02
428.561	5.84
428.766	5.67
428.971	5.58
429.177	5.69
429.382	5.71
429.587	5.84
429.793	5.68
429.998	5.61
430.203	5.54
430.408	5.69
430.614	5.86
430.819	5.87
431.024	5.98
431.229	5.88
431.434	5.91
431.64	5.57
431.845	5.43
432.05	5.59
432.255	5.57
432.46	5.47
432.665	5.42
432.87	5.44
433.076	5.51
433.281	5.53
433.486	5.66
433.691	5.37
433.896	5.4
434.101	5.42
434.306	5.46
434.511	5.46
434.716	5.6
434.921	5.63
435.126	5.5
435.331	5.37
435.535	5.34
435.74	5.39
435.945	5.65
436.15	5.76
436.355	5.8
436.56	5.74
436.765	5.91
436.97	5.82
437.174	5.68
437.379	5.69
437.584	5.88
437.789	5.94
437.993	5.78
438.198	5.66
438.403	5.76
438.608	5.77
438.812	5.62
439.017	5.55
439.222	5.6
439.426	5.63
439.631	5.6
439.836	5.51
440.04	5.48
440.245	5.52
440.45	5.61
440.654	5.47
440.859	5.31
441.063	5.35
441.268	5.29
441.472	5.38
441.677	5.45
441.881	5.39
442.086	5.35
442.29	5.26
442.495	5.24
442.699	5.22
442.904	5.21
443.108	5.27
443.312	5.25
443.517	5.16
443.721	4.98
443.925	5.18
444.13	5.31
444.334	5.32
444.538	5.37
444.743	5.35
444.947	5.29
445.151	5.25
445.356	5.24
445.56	5.37
445.764	5.44
445.968	5.35
446.173	5.17
446.377	5.14
446.581	5.11
446.785	5.04
446.989	5.05
447.193	5.04
447.398	5.09
447.602	5.03
447.806	4.98
448.01	5.15
448.214	5.31
448.418	5.21
448.622	5.25
448.826	5.27
449.03	5.38
449.234	5.48
449.438	5.39
449.642	5.29
449.846	5.46
450.05	5.42
450.254	5.05
450.458	5.1
450.662	5.21
450.866	5.11
451.069	5.1
451.273	5.03
451.477	4.93
451.681	4.93
451.885	4.91
452.089	4.89
452.292	4.77
452.496	4.99
452.7	4.89
452.904	4.87
453.107	5.07
453.311	5.13
453.515	5.1
453.719	5.07
453.922	5.13
454.126	5.18
454.33	5.17
454.533	5.21
454.737	5.1
454.94	5.2
455.144	5.24
455.348	5.07
455.551	5.03
455.755	4.92
455.958	5.02
456.162	5.05
456.365	5.14
456.569	4.98
456.772	4.8
456.976	4.77
457.179	4.68
457.383	4.68
457.586	4.78
457.79	4.69
457.993	4.82
458.196	4.59
458.4	4.67
458.603	4.59
458.807	4.68
459.01	4.89
459.213	4.83
459.417	4.71
459.62	4.74
459.823	4.6
460.026	4.69
460.23	4.78
460.433	4.83
460.636	4.8
460.839	4.89
461.042	4.91
461.246	4.86
461.449	4.87
461.652	5.04
461.855	4.93
462.058	5.09
462.261	4.9
462.464	4.64
462.668	4.96
462.871	4.92
463.074	4.88
463.277	4.66
463.48	4.97
463.683	4.96
463.886	4.87
464.089	4.84
464.292	4.78
464.495	4.97
464.698	5.1
464.901	4.8
465.104	4.79
465.306	4.74
465.509	4.95
465.712	4.75
465.915	4.76
466.118	4.62
466.321	4.59
466.524	4.63
466.726	4.72
466.929	4.71
467.132	4.67
467.335	4.62
467.538	4.58
467.74	4.61
467.943	4.6
468.146	4.82
468.348	4.97
468.551	5.09
468.754	5.03
468.956	4.83
469.159	4.95
469.362	5.07
469.564	5.03
469.767	5.19
469.969	5.17
470.172	5.04
470.375	4.91
470.577	4.79
470.78	4.87
470.982	4.76
471.185	4.9
471.387	4.88
471.59	4.71
471.792	4.9
471.995	4.78
472.197	4.72
472.399	4.62
472.602	4.47
472.804	4.53
473.007	4.46
473.209	4.52
473.411	4.41
473.614	4.4
473.816	4.43
474.018	4.36
474.22	4.4
474.423	4.51
474.625	4.65
474.827	4.93
475.03	4.91
475.232	5.05
475.434	5.09
475.636	5.19
475.838	5.1
476.04	5.21
476.243	5.18
476.445	5.35
476.647	5.19
476.849	5.17
477.051	4.97
477.253	5.09
477.455	5.03
477.657	4.9
477.859	4.89
478.061	4.88
478.263	4.75
478.465	4.8
478.667	4.62
478.869	4.78
479.071	4.72
479.273	4.67
479.475	4.46
479.677	4.38
479.879	4.41
480.081	4.43
480.283	4.45
480.485	4.54
480.686	4.52
480.888	4.64
481.09	4.51
481.292	4.48
481.494	4.53
481.695	4.73
481.897	4.57
482.099	4.54
482.301	4.54
482.502	4.47
482.704	4.43
482.906	4.39
483.107	4.34
483.309	4.38
483.511	4.46
483.712	4.44
483.914	4.33
484.115	4.36
484.317	4.37
484.519	4.35
484.72	4.39
484.922	4.37
485.123	4.43
485.325	4.41
485.526	4.37
485.728	4.3
485.929	4.26
486.131	4.34
486.332	4.36
486.534	4.35
486.735	4.35
486.936	4.3
487.138	4.3
487.339	4.24
487.541	4.28
487.742	4.29
487.943	4.34
488.144	4.37
488.346	4.32
488.547	4.36
488.748	4.4
488.95	4.34
489.151	4.35
489.352	4.42
489.553	4.38
489.755	4.4
489.956	4.42
490.157	4.43
490.358	4.47
490.559	4.57
490.76	4.53
490.961	4.47
491.163	4.57
491.364	4.61
491.565	4.54
491.766	4.54
491.967	4.52
492.168	4.47
492.369	4.46
492.57	4.36
492.771	4.33
492.972	4.32
493.173	4.37
493.374	4.4
493.575	4.35
493.776	4.36
493.976	4.52
494.177	4.6
494.378	4.74
494.579	4.75
494.78	5.02
494.981	4.99
495.182	5.03
495.382	5.01
495.583	4.92
495.784	5.12
495.985	5.13
496.185	4.96
496.386	4.82
496.587	4.9
496.788	4.88
496.988	4.8
497.189	4.92
497.39	4.92
497.59	5.02
497.791	5
497.992	4.9
498.192	4.99
498.393	5.03
498.593	5.02
498.794	4.87
498.994	4.97
499.195	5.05
499.395	5.07
499.596	5.13
499.796	5
499.997	5.08
500.197	5.22
500.398	5.24
500.598	5.18
500.799	5.29
500.999	5.42
501.199	5.36
501.4	5.15
501.6	5.09
501.801	5.04
502.001	5.18
502.201	5.19
502.402	5.1
502.602	5.06
502.802	5.23
503.002	5.2
503.203	5.25
503.403	5.08
503.603	5.2
503.803	5.24
504.003	5.26
504.204	5.25
504.404	5.23
504.604	5.14
504.804	5.21
505.004	5.17
505.204	5.22
505.404	5.16
505.604	5.44
505.804	5.39
506.005	5.27
506.205	5.3
506.405	5.37
506.605	5.38
506.805	5.58
507.005	5.59
507.204	5.48
507.404	5.41
507.604	5.43
507.804	5.29
508.004	5.47
508.204	5.49
508.404	5.48
508.604	5.41
508.804	5.46
509.003	5.44
509.203	5.41
509.403	5.48
509.603	5.52
509.803	5.55
510.002	5.57
510.202	5.46
510.402	5.42
510.602	5.54
510.801	5.63
511.001	5.58
511.201	5.53
511.4	5.41
511.6	5.39
511.8	5.44
511.999	5.54
512.199	5.52
512.398	5.54
512.598	5.71
512.797	5.77
512.997	5.77
513.197	5.85
513.396	5.91
513.596	6.14
513.795	6.25
513.994	6.27
514.194	6.18
514.393	6.29
514.593	6.33
514.792	6.35
514.992	6.2
515.191	6.11
515.39	6.04
515.59	5.95
515.789	5.99
515.988	6.01
516.188	6.01
516.387	6.01
516.586	5.85
516.786	6.04
516.985	6.01
517.184	6.12
517.383	6.28
517.582	6.3
517.782	6.37
517.981	6.27
518.18	6.27
518.379	6.32
518.578	6.32
518.777	6.41
518.976	6.27
519.176	6.4
519.375	6.46
519.574	6.37
519.773	6.42
519.972	6.42
520.171	6.48
520.37	6.58
520.569	6.53
520.768	6.65
520.967	6.79
521.166	6.87
521.365	6.73
521.564	6.7
521.762	6.76
521.961	6.67
522.16	6.63
522.359	6.51
522.558	6.42
522.757	6.5
522.956	6.43
523.154	6.28
523.353	6.26
523.552	6.28
523.751	6.35
523.949	6.27
524.148	6.4
524.347	6.57
524.546	6.74
524.744	6.67
524.943	6.7
525.142	6.73
525.34	6.86
525.539	6.89
525.737	7.01
525.936	6.94
526.135	7.03
526.333	6.94
526.532	6.88
526.73	6.83
526.929	6.83
527.127	6.87
527.326	6.87
527.524	6.86
527.723	6.91
527.921	6.87
528.12	6.88
528.318	6.93
528.516	7.01
528.715	7.04
528.913	7.05
529.112	7.09
529.31	7.08
529.508	7.09
529.707	7.09
529.905	7.08
530.103	7.09
530.301	7.11
530.5	7.09
530.698	7.11
530.896	7.14
531.094	7.23
531.293	7.26
531.491	7.36
531.689	7.43
531.887	7.55
532.085	7.64
532.283	7.71
532.481	7.77
532.68	7.81
532.878	7.79
533.076	7.83
533.274	7.77
533.472	7.8
533.67	7.7
533.868	7.69
534.066	7.62
534.264	7.54
534.462	7.53
534.66	7.55
534.858	7.57
535.056	7.67
535.253	7.57
535.451	7.58
535.649	7.68
535.847	7.9
536.045	7.88
536.243	7.96
536.441	8.15
536.638	8.2
536.836	8.2
537.034	8.2
537.232	8.19
537.43	8.34
537.627	8.49
537.825	8.41
538.023	8.34
538.22	8.55
538.418	8.47
538.616	8.46
538.813	8.62
539.011	8.76
539.209	8.82
539.406	8.9
539.604	8.99
539.801	8.98
539.999	9.14
540.196	9.2
540.394	9.26
540.591	9.41
540.789	9.43
540.986	9.32
541.184	9.34
541.381	9.34
541.579	9.3
541.776	9.23
541.974	9.21
542.171	9.19
542.368	9.19
542.566	9.14
542.763	9.16
542.96	9.16
543.158	9.27
543.355	9.31
543.552	9.45
543.75	9.61
543.947	9.62
544.144	9.73
544.341	9.8
544.539	9.92
544.736	10.03
544.933	10.11
545.13	10.14
545.327	10.08
545.524	9.97
545.722	9.94
545.919	9.88
546.116	10.12
546.313	10.16
546.51	10.42
546.707	10.47
546.904	10.53
547.101	10.62
547.298	10.75
547.495	10.89
547.692	11.1
547.889	11.19
548.086	11.46
548.283	11.48
548.48	11.55
548.677	11.36
548.874	11.27
549.07	11.44
549.267	11.39
549.464	11.33
549.661	11.35
549.858	11.45
550.055	11.66
550.251	11.5
550.448	11.58
550.645	11.72
550.842	11.86
551.038	11.99
551.235	11.89
551.432	11.99
551.628	12.02
551.825	12.32
552.022	12.3
552.218	12.3
552.415	12.43
552.612	12.38
552.808	12.35
553.005	12.28
553.201	12.46
553.398	12.51
553.594	12.64
553.791	12.88
553.987	12.82
554.184	12.91
554.38	12.81
554.577	12.8
554.773	13.02
554.97	13.27
555.166	13.48
555.362	13.43
555.559	13.6
555.755	13.62
555.952	13.52
556.148	13.63
556.344	13.59
556.541	13.69
556.737	13.71
556.933	13.87
557.129	13.73
557.326	13.63
557.522	13.83
557.718	14
557.914	14.1
558.11	14.18
558.307	13.94
558.503	14.1
558.699	14.19
558.895	14.35
559.091	14.31
559.287	14.31
559.483	14.63
559.679	14.71
559.876	14.57
560.072	14.52
560.268	14.64
560.464	14.71
560.66	14.77
560.856	14.85
561.052	14.89
561.247	14.96
561.443	15.2
561.639	15.22
561.835	15.16
562.031	15.14
562.227	15.23
562.423	15.4
562.619	15.66
562.815	15.86
563.01	16.06
563.206	16.15
563.402	16.13
563.598	16.1
563.793	16.16
563.989	16.23
564.185	16.32
564.381	16.41
564.576	16.39
564.772	16.42
564.968	16.49
565.163	16.35
565.359	16.23
565.555	16.39
565.75	16.49
565.946	16.56
566.141	16.66
566.337	16.91
566.532	17.11
566.728	17.26
566.923	17.4
567.119	17.17
567.314	17.24
567.51	17.45
567.705	17.45
567.901	17.49
568.096	17.64
568.292	17.75
568.487	17.68
568.682	17.58
568.878	17.56
569.073	17.55
569.268	17.84
569.464	18.07
569.659	18.11
569.854	18.27
570.05	18.3
570.245	18.27
570.44	18.4
570.635	18.5
570.831	18.56
571.026	18.69
571.221	18.81
571.416	18.77
571.611	18.82
571.806	18.91
572.002	18.97
572.197	19.01
572.392	19.06
572.587	19.01
572.782	19.09
572.977	19.2
573.172	19.17
573.367	19.08
573.562	19.25
573.757	19.08
573.952	19.16
574.147	19.23
574.342	19.55
574.537	19.62
574.732	19.56
574.927	19.5
575.121	19.69
575.316	19.8
575.511	19.89
575.706	19.95
575.901	20.25
576.096	20.41
576.29	20.46
576.485	20.39
576.68	20.57
576.875	20.63
577.069	20.88
577.264	20.89
577.459	21.15
577.654	21.33
577.848	21.36
578.043	21.33
578.238	21.3
578.432	21.24
578.627	21.26
578.821	21.14
579.016	21.15
579.21	21.34
579.405	21.28
579.6	21.11
579.794	21.2
579.989	21.19
580.183	21.34
580.378	21.29
580.572	21.5
580.766	21.58
580.961	21.81
581.155	22.13
581.35	21.87
581.544	21.81
581.738	21.6
581.933	21.76
582.127	22.09
582.321	22.2
582.516	22.36
582.71	22.4
582.904	22.6
583.099	22.28
583.293	22.12
583.487	22.54
583.681	22.87
583.875	23.29
584.07	23.16
584.264	23.01
584.458	22.95
584.652	22.91
584.846	22.82
585.04	22.74
585.234	22.9
585.428	23.04
585.623	22.63
585.817	22.38
586.011	22.39
586.205	22.65
586.399	22.77
586.593	22.89
586.787	23.01
586.981	23
587.174	23.07
587.368	23.32
587.562	23.44
587.756	23.67
587.95	23.73
588.144	23.57
588.338	23.71
588.532	23.8
588.725	24
588.919	23.96
589.113	24.02
589.307	23.93
589.501	23.81
589.694	24.02
589.888	24.17
590.082	24.29
590.275	24.51
590.469	24.64
590.663	24.26
590.856	24.27
591.05	24.38
591.244	24.48
591.437	24.83
591.631	24.93
591.824	24.86
592.018	24.85
592.212	24.91
592.405	24.78
592.599	24.55
592.792	24.75
592.986	24.7
593.179	24.91
593.372	24.89
593.566	24.89
593.759	25.02
593.953	25
594.146	24.83
594.339	24.99
594.533	25.4
594.726	25.63
594.92	25.82
595.113	25.84
595.306	25.66
595.499	25.6
595.693	25.41
595.886	25.43
596.079	25.58
596.272	25.76
596.466	25.82
596.659	25.61
596.852	25.46
597.045	25.45
597.238	25.52
597.431	25.83
597.624	25.94
597.818	26.06
598.011	25.97
598.204	25.88
598.397	25.96
598.59	25.83
598.783	25.87
598.976	26.03
599.169	26.16
599.362	26
599.555	25.99
599.748	26.37
599.941	26.39
600.134	26.59
600.326	26.83
600.519	26.98
600.712	27.05
600.905	26.96
601.098	27.01
601.291	27.03
601.483	27.25
601.676	27.17
601.869	27.05
602.062	27.12
602.255	26.87
602.447	26.86
602.64	26.71
602.833	27
603.025	27.12
603.218	27.05
603.411	27.04
603.603	27.05
603.796	26.9
603.989	26.94
604.181	26.88
604.374	27.25
604.566	27.18
604.759	27.15
604.951	26.98
605.144	27.09
605.336	27.27
605.529	27.17
605.721	27.27
605.914	27.47
606.106	27.43
606.299	27.56
606.491	27.28
606.683	27.36
606.876	27.43
607.068	27.61
607.26	27.56
607.453	27.46
607.645	27.67
607.837	27.55
608.03	27.38
608.222	27.27
608.414	27.33
608.606	27.53
608.799	27.56
608.991	27.67
609.183	27.68
609.375	27.79
609.567	27.77
609.759	27.67
609.952	27.84
610.144	27.89
610.336	28.08
610.528	28.02
610.72	28.07
610.912	28.21
611.104	28.43
611.296	28.33
611.488	28.36
611.68	28.58
611.872	28.64
612.064	28.81
612.256	28.99
612.448	28.89
612.64	28.95
612.832	28.98
613.023	28.78
613.215	28.77
613.407	28.96
613.599	29.24
613.791	29.04
613.983	29.05
614.174	28.78
614.366	28.87
614.558	28.9
614.75	29.05
614.941	29.09
615.133	29.42
615.325	29.37
615.516	29.4
615.708	29.13
615.9	29.13
616.091	29.1
616.283	29.33
616.475	29.05
616.666	29.14
616.858	29.53
617.049	29.48
617.241	29.49
617.432	29.47
617.624	29.82
617.815	29.81
618.007	29.9
618.198	30.25
618.39	30.04
618.581	30.32
618.773	30.32
618.964	30.14
619.155	30.3
619.347	30.24
619.538	30.34
619.729	30.15
619.921	30.35
620.112	30.29
620.303	30.44
620.494	30.47
620.686	30.29
620.877	30.32
621.068	30.08
621.259	30.14
621.451	30.26
621.642	30.22
621.833	30.24
622.024	30.33
622.215	30.65
622.406	30.58
622.597	30.74
622.788	31.04
622.98	31.02
623.171	31.16
623.362	31.15
623.553	31.36
623.744	31.31
623.935	31.28
624.126	31.07
624.317	30.89
624.508	30.88
624.698	31.02
624.889	31.05
625.08	31.39
625.271	31.52
625.462	31.5
625.653	30.96
625.844	30.76
626.034	30.47
626.225	30.53
626.416	30.61
626.607	30.69
626.798	30.57
626.988	30.58
627.179	30.36
627.37	30.19
627.56	30.31
627.751	30.74
627.942	31
628.132	31.29
628.323	31.37
628.514	31.49
628.704	31.29
628.895	31.44
629.085	31.49
629.276	31.56
629.466	31.72
629.657	31.63
629.847	31.43
630.038	31.44
630.228	31.58
630.419	31.62
630.609	31.44
630.8	31.46
630.99	31.47
631.181	31.8
631.371	31.84
631.561	31.77
631.752	31.87
631.942	31.89
632.132	32
632.323	31.87
632.513	31.91
632.703	32.15
632.893	32.57
633.084	32.43
633.274	32.08
633.464	32.17
633.654	32.25
633.844	32
634.034	31.91
634.225	31.64
634.415	31.66
634.605	31.65
634.795	31.45
634.985	31.29
635.175	31.39
635.365	31.31
635.555	31.4
635.745	31.31
635.935	31.65
636.125	31.7
636.315	32.04
636.505	32
636.695	31.75
636.885	31.78
637.075	31.43
637.265	31.41
637.455	31.46
637.644	31.56
637.834	31.77
638.024	31.65
638.214	32.01
638.404	31.97
638.593	32.25
638.783	32.87
638.973	33.1
639.163	33.3
639.352	33.19
639.542	33.36
639.732	33.09
639.921	33.17
640.111	33.32
640.301	33.27
640.49	33.39
640.68	33.11
640.87	32.8
641.059	33.02
641.249	33.05
641.438	33.34
641.628	33.19
641.817	33.25
642.007	33.09
642.196	33
642.386	33.17
642.575	33.27
642.764	33.29
642.954	33.09
643.143	33.11
643.333	33.47
643.522	33.61
643.711	33.76
643.901	33.99
644.09	34.28
644.279	34.43
644.469	34.06
644.658	33.99
644.847	34.19
645.036	34.57
645.226	34.47
645.415	34.41
645.604	34.3
645.793	34.05
645.982	33.8
646.171	33.45
646.361	33.81
646.55	34.3
646.739	34.17
646.928	34.24
647.117	34.26
647.306	34.01
647.495	34.25
647.684	34.24
647.873	34.69
648.062	35.06
648.251	35.3
648.44	34.95
648.629	34.77
648.818	34.79
649.007	34.57
649.196	34.43
649.384	34.71
649.573	34.29
649.762	34.14
649.951	33.96
650.14	34.07
650.328	34.09
650.517	34.28
650.706	34.07
650.895	34.41
651.083	34.77
651.272	34.73
651.461	34.95
651.65	35.27
651.838	35.15
652.027	35.36
652.216	35.05
652.404	35.11
652.593	35.05
652.781	35.33
652.97	35.48
653.158	35.24
653.347	35.64
653.535	35.5
653.724	34.98
653.912	35.38
654.101	35.51
654.289	35.45
654.478	35.76
654.666	36.19
654.855	35.73
655.043	35.36
655.231	35.33
655.42	35.49
655.608	35.44
655.796	35.66
655.985	35.64
656.173	35.31
656.361	35.62
656.55	35.27
656.738	34.78
656.926	35.44
657.114	36.01
657.302	36.15
657.491	35.66
657.679	35.33
657.867	35.57
658.055	35.66
658.243	35.7
658.431	35.7
658.619	35.75
658.807	36
658.996	36.01
659.184	35.53
659.372	35.46
659.56	35.64
659.748	35.71
659.936	35.89
660.124	35.87
660.311	36.04
660.499	35.91
660.687	35.96
660.875	35.88
661.063	35.55
661.251	35.64
661.439	35.83
661.627	35.75
661.814	35.83
662.002	35.51
662.19	35.83
662.378	35.87
662.565	36.13
662.753	36.07
662.941	36
663.129	36.51
663.316	36.75
663.504	36.45
663.692	36.48
663.879	36.62
664.067	36.51
664.254	36.14
664.442	35.61
664.63	35.47
664.817	35.74
665.005	35.5
665.192	35.19
665.38	34.99
665.567	34.94
665.755	35.07
665.942	35.36
666.13	35.58
666.317	35.96
666.504	36.13
666.692	36.6
666.879	36.58
667.067	36.93
667.254	36.82
667.441	36.74
667.629	36.97
667.816	37.14
668.003	37.03
668.19	37.38
668.378	37.24
668.565	37.61
668.752	37.08
668.939	36.86
669.127	36.79
669.314	36.81
669.501	36.97
669.688	37.13
669.875	36.76
670.062	36.68
670.249	36.79
670.436	36.82
670.623	36.62
670.81	36.67
670.997	36.79
671.184	36.83
671.371	37.5
671.558	37.59
671.745	37.76
671.932	38.14
672.119	38
672.306	37.95
672.493	37.95
672.68	38.26
672.867	38.72
673.054	38.51
673.24	38.94
673.427	38.62
673.614	38.53
673.801	38.65
673.988	38.76
674.174	38.76
674.361	38.67
674.548	38.66
674.734	38.57
674.921	38.11
675.108	39.07
675.294	38.14
675.481	38.11
675.668	38.29
675.854	37.98
676.041	37.68
676.227	37.78
676.414	38.14
676.601	38.53
676.787	38.53
676.974	39.06
677.16	38.3
677.347	38.94
677.533	38.81
677.719	38.79
677.906	38.49
678.092	38.72
678.279	38.44
678.465	37.99
678.651	37.83
678.838	37.89
679.024	37.49
679.21	37.27
679.397	37.46
679.583	37.72
679.769	37.35
679.955	37.41
680.142	37.31
680.328	38.23
680.514	38.27
680.7	37.93
680.886	37.96
681.073	38.31
681.259	38.27
681.445	38.32
681.631	37.89
681.817	38.15
682.003	38.54
682.189	38.45
682.375	37.91
682.561	37.94
682.747	38.47
682.933	38.53
683.119	38.43
683.305	39.3
683.491	39.19
683.677	39.54
683.863	40.01
684.049	40.03
684.235	40
684.42	40.12
684.606	40.18
684.792	39.66
684.978	39.21
685.164	39.1
685.349	38.76
685.535	39.03
685.721	38.88
685.907	38.22
686.092	38.11
686.278	38.61
686.464	38.37
686.649	38.65
686.835	38.55
687.021	39.23
687.206	39.47
687.392	39.2
687.577	39.26
687.763	39.15
687.948	39.18
688.134	39.21
688.319	39.26
688.505	39.94
688.69	39.67
688.876	40.11
689.061	39.83
689.247	39.53
689.432	39.91
689.618	39.36
689.803	39.43
689.988	39.78
690.174	40.07
690.359	39.73
690.544	39.18
690.73	39.25
690.915	39.27
691.1	39.18
691.285	39.4
691.471	39.39
691.656	39.95
691.841	40.06
692.026	39.95
692.211	40.02
692.396	40.32
692.582	40.59
692.767	40.41
692.952	40.07
693.137	40.22
693.322	40.32
693.507	40.76
693.692	40.26
693.877	40.27
694.062	40.63
694.247	40.43
694.432	40.66
694.617	40.83
694.802	41.47
694.987	41.91
695.172	41.89
695.357	41.91
695.541	41.5
695.726	41.79
695.911	42.54
696.096	42.2
696.281	42.19
696.466	42.01
696.65	41.72
696.835	41.46
697.02	41.61
697.204	41.59
697.389	41.61
697.574	41.43
697.759	41.25
697.943	40.65
698.128	40.93
698.312	40.97
698.497	40.4
698.682	40.22
698.866	40.05
699.051	39.76
699.235	39.8
699.42	39.75
699.604	39.75
699.789	39.66
699.973	39.6
700.158	39.43
700.342	39.1
700.527	39.73
700.711	39.95
700.895	39.64
701.08	40.16
701.264	40.2
701.448	40.2
701.633	40.28
701.817	40.11
702.001	40.66
702.186	40.69
702.37	40.91
702.554	40.55
702.738	40.99
702.923	41.47
703.107	41.47
703.291	41.67
703.475	41.78
703.659	42.25
703.843	42.81
704.027	42.83
704.212	42.5
704.396	42.64
704.58	42.71
704.764	42.31
704.948	42.19
705.132	41.58
705.316	41.54
705.5	41.69
705.684	40.95
705.868	40.62
706.052	40.08
706.235	40.38
706.419	40.25
706.603	40.89
706.787	40.27
706.971	40.61
707.155	40.44
707.339	40.57
707.522	40.16
707.706	40.79
707.89	40.99
708.074	41.18
708.257	40.97
708.441	40.81
708.625	40.72
708.808	41.58
708.992	41.36
709.176	41.51
709.359	41.31
709.543	41.6
709.727	41.72
709.91	41.78
710.094	41.66
710.277	42.1
710.461	42.51
710.644	42.15
710.828	41.91
711.011	42.54
711.195	42.68
711.378	42.66
711.562	42.96
711.745	42.63
711.928	42.36
712.112	42.21
712.295	42.25
712.478	41.89
712.662	42.6
712.845	42.66
713.028	42.34
713.212	42.7
713.395	42.18
713.578	42.08
713.761	41.91
713.945	41.61
714.128	42.06
714.311	42.01
714.494	42.11
714.677	41.52
714.86	41.26
715.043	41.3
715.227	41.19
715.41	41.64
715.593	41.59
715.776	41.73
715.959	42.57
716.142	42.39
716.325	41.59
716.508	41.76
716.691	42.11
716.874	42.95
717.057	43.09
717.239	42.83
717.422	42.78
717.605	42.33
717.788	42.33
717.971	42.47
718.154	42.71
718.337	43.59
718.519	43.59
718.702	43.75
718.885	42.84
719.068	42.46
719.25	43.01
719.433	43.27
719.616	44.33
719.798	43.68
719.981	44.11
720.164	43.97
720.346	44.35
720.529	45.27
720.712	44.48
720.894	44.37
721.077	44.61
721.259	43.98
721.442	44.59
721.624	43.66
721.807	44.57
721.989	44.21
722.172	44.06
722.354	44.07
722.537	43.57
722.719	42.85
722.901	43.56
723.084	43.33
723.266	43.13
723.448	42.72
723.631	42.86
723.813	42.62
723.995	41.76
724.178	41.85
724.36	40.99
724.542	40.28
724.724	41.13
724.907	41.08
725.089	40.73
725.271	41.52
725.453	40.89
725.635	41.25
725.817	41.89
725.999	42.88
726.181	43.44
726.364	43.75
726.546	44.26
726.728	44.49
726.91	43.45
727.092	44.73
727.274	44.36
727.456	45.28
727.638	45.08
727.819	44.27
728.001	43.58
728.183	43.5
728.365	43.16
728.547	43.62
728.729	43.94
728.911	44.92
729.093	44.06
729.274	43.54
729.456	43.18
729.638	42.84
729.82	43.31
730.001	43.72
730.183	44.06
730.365	44.78
730.546	44.09
730.728	42.98
730.91	42.67
731.091	42.98
731.273	43.26
731.455	43.18
731.636	43.46
731.818	43.09
731.999	42.67
732.181	42.07
732.362	41.92
732.544	42.44
732.725	42.78
732.907	43.01
733.088	43.15
733.27	44.04
733.451	43.83
733.633	44.7
733.814	45.84
733.995	46.66
734.177	46.97
734.358	46.89
734.539	46.74
734.721	46.42
734.902	46.07
735.083	45.39
735.264	44.97
735.446	45.31
735.627	44.34
735.808	42.84
735.989	42.57
736.17	42.04
736.351	42.4
736.533	41.8
736.714	41.67
736.895	42.26
737.076	43.47
737.257	43.05
737.438	42.99
737.619	43.2
737.8	44.2
737.981	43.73
738.162	44.84
738.343	45.18
738.524	45.44
738.705	46.65
738.886	46.42
739.067	45.69
739.247	45.11
739.428	45.38
739.609	45.11
739.79	45.47
739.971	44.97
740.151	43.67
740.332	43.81
740.513	43.91
740.694	44.08
740.874	43.13
741.055	42.95
741.236	44.38
741.417	44.09
741.597	44.22
741.778	44.24
741.958	44.72
742.139	45.74
742.32	45.68
742.5	46.03
742.681	46.04
742.861	46.76
743.042	46.66
743.222	46.31
743.403	46.49
743.583	45.86
743.764	45.5
743.944	45.23
744.124	45.17
744.305	43.78
744.485	43.43
744.666	42.42
744.846	42.82
745.026	43.38
745.207	42.77
745.387	43.35
745.567	44.62
745.747	44.13
745.928	44.15
746.108	43.76
746.288	44.23
746.468	44.67
746.648	46.12
746.829	46.52
747.009	46.83
747.189	47.02
747.369	46.39
747.549	45.31
747.729	46.03
747.909	45.96
748.089	46
748.269	46.64
748.449	45.72
748.629	44.03
748.809	43.59
748.989	43.76
749.169	44.59
749.349	44.27
749.529	44.95
749.709	43.3
749.889	43.94
750.068	43.3
750.248	43.84
750.428	44.34
750.608	45.42
750.788	45.24
750.967	44.08
751.147	43.7
751.327	44.15
751.507	43.57
751.686	44.53
751.866	45.27
752.046	45.66
752.225	45.09
752.405	45.99
752.585	45.51
752.764	45.08
752.944	45.52
753.123	45.53
753.303	45.61
753.482	46.07
753.662	46.27
753.841	45.34
754.021	46.5
754.2	46.61
754.38	46.04
754.559	45.99
754.739	46.16
754.918	46.52
755.097	46.13
755.277	45.89
755.456	45.72
755.635	46.1
755.815	46.61
755.994	45.42
756.173	45.02
756.352	44.84
756.532	45.6
756.711	45.31
756.89	45.23
757.069	45.96
757.248	45.27
757.427	44.84
757.607	45.04
757.786	44.24
757.965	44.02
758.144	43.46
758.323	43.9
758.502	44.25
758.681	43.93
758.86	43.55
759.039	43.17
759.218	43.95
759.397	44.13
759.576	43.21
759.755	43.55
759.934	43.8
760.113	45.2
760.291	45.13
760.47	45.1
760.649	45.42
760.828	46.3
761.007	46.5
761.186	45.77
761.364	46.21
761.543	46.3
761.722	46.22
761.901	46.52
762.079	45.72
762.258	45.62
762.437	44.66
762.615	44.97
762.794	45
762.972	44.28
763.151	44.65
763.33	44.43
763.508	44.68
763.687	44.57
763.865	44.85
764.044	45.03
764.222	45.04
764.401	45.4
764.579	45.49
764.758	44.95
764.936	45.05
765.114	44.9
765.293	44.83
765.471	45.04
765.65	46.17
765.828	46.31
766.006	46.54
766.184	46.21
766.363	46.05
766.541	45.74
766.719	46.12
766.898	45.99
767.076	46.37
767.254	46.87
767.432	47.31
767.61	46.41
767.788	44.86
767.967	43.95
768.145	44.22
768.323	45.09
768.501	45.77
768.679	45.48
768.857	45.85
769.035	46.06
769.213	46.91
769.391	47.02
769.569	47.33
769.747	48.99
769.925	50.14
770.103	48.72
770.281	47.7
770.459	48.11
770.636	48
770.814	49.29
770.992	49.38
771.17	48.67
771.348	47.37
771.525	47.28
771.703	46.7
771.881	45.99
772.059	47.72
772.236	47.27
772.414	46.97
772.592	47.04
772.769	45.64
772.947	44.39
773.125	44.62
773.302	44.78
773.48	43.82
773.657	43.59
773.835	42.66
774.013	42.59
774.19	43.9
774.368	42.07
774.545	41.48
774.723	42.57
774.9	42.93
775.077	42.96
775.255	41.78
775.432	43.71
775.61	43.48
775.787	45.38
775.964	44.46
776.142	44.73
776.319	47.02
776.496	48.09
776.674	47.13
776.851	48.16
777.028	47.72
777.205	50.18
777.382	49.42
777.56	50.7
777.737	51.84
777.914	52.85
778.091	52.57
778.268	51.58
778.445	50.33
778.622	50.9
778.8	50.65
778.977	50.69
779.154	54.86
779.331	54.66
779.508	54.54
779.685	51.61
779.862	51.97
780.038	51.34
780.215	53.27
780.392	54.15
780.569	53.66
780.746	54.94
780.923	54.86
781.1	50.22
781.277	50.38
781.453	48.77
781.63	48.73
781.807	48.99
781.984	48.51
782.16	48.29
782.337	48.24
782.514	48.33
782.691	48.93
782.867	47.72
783.044	47.89
783.221	47.76
783.397	49.32
783.574	50.34
783.75	50.19
783.927	52.17
784.103	52.28
784.28	51.65
784.456	52.87
784.633	50.8
784.809	51.03
784.986	48.32
785.162	49.23
785.339	48.81
785.515	48.65
785.692	44.98
785.868	43.4
786.044	43.29
786.221	43.92
786.397	42.91
786.573	43.1
786.749	44.71
786.926	48.01
787.102	46.44
787.278	46.65
787.454	47.14
787.631	51.31
787.807	51.11
787.983	50.01
788.159	49.46
788.335	49.47
788.511	48.59
788.687	47.89
788.863	47.03
789.039	46.63
789.216	45.11
789.392	44.88
789.568	45.23
789.744	47.09
789.919	47.15
790.095	47.17
790.271	47.42
790.447	48.59
790.623	50.34
790.799	50.38
790.975	50.46
791.151	52.3
791.327	52.85
791.502	51.19
791.678	47.96
791.854	47.9
792.03	49.19
792.205	50.53
792.381	50.36
792.557	49.66
792.733	49.03
792.908	49.49
793.084	47.6
793.259	46.68
793.435	47.16
793.611	50.13
793.786	50.42
793.962	49.8
794.137	47.15
794.313	46.44
794.488	44.53
794.664	44.96
794.839	43.69
795.015	45.7
795.19	45.49
795.366	44.89
795.541	43.39
795.716	43.31
795.892	44.7
796.067	47.62
796.242	47.23
796.418	48.97
796.593	50.38
796.768	51.23
796.944	51.79
797.119	51.29
797.294	52.78
797.469	54.77
797.644	54.45
797.82	54.54
797.995	50.89
798.17	51.09
798.345	51.52
798.52	47.03
798.695	48.64
798.87	46.89
799.045	48
799.22	48.67
799.395	46.66
799.57	48.02
799.745	46.7
799.92	48.7
800.095	50.59
800.27	49.56
800.445	52.85
800.62	51.36
800.795	54.53
800.97	53.84
801.145	53.34
801.319	56.05
801.494	54.27
801.669	53.95
801.844	55.73
802.018	54.53
802.193	53.68
802.368	53.7
802.543	53.11
802.717	49.99
802.892	53.76
803.067	53.07
803.241	50.65
803.416	53.62
803.59	54.19
803.765	52.29
803.94	53.85
804.114	52.22
804.289	53.9
804.463	54.96
804.638	55.23
804.812	52.87
804.986	51.71
805.161	48.96
805.335	47.36
805.51	46.88
805.684	46.97
805.858	44.76
806.033	44.69
806.207	41.52
806.381	42.82
806.556	44.52
806.73	43
806.904	42.88
807.078	42.87
807.253	42.77
807.427	42.45
807.601	42.73
807.775	44.69
807.949	49.56
808.123	51.32
808.298	50.92
808.472	51.34
808.646	49.78
808.82	49.82
808.994	52.97
809.168	54.71
809.342	58.01
809.516	57.5
809.69	55.2
809.864	51.7
810.038	53.73
810.212	50.59
810.385	48.66
810.559	49.09
810.733	52.16
810.907	51.54
811.081	50.45
811.255	48.05
811.428	48.2
811.602	50.34
811.776	52.04
811.95	51.28
812.123	53.35
812.297	54.6
812.471	56.97
812.644	54.62
812.818	56.01
812.992	53.89
813.165	55.57
813.339	53.34
813.512	51.59
813.686	51.09
813.86	49.68
814.033	48.6
814.207	47.94
814.38	46.57
814.554	47.04
814.727	46.08
814.9	47.52
815.074	46.49
815.247	47.25
815.421	46.51
815.594	46.67
815.767	45.52
815.941	47.8
816.114	48.12
816.287	49.82
816.46	47.64
816.634	47.51
816.807	48.97
816.98	47.18
817.153	49.99
817.327	48.88
817.5	49.41
817.673	52.14
817.846	50.75
818.019	50.48
818.192	49.11
818.365	48.42
818.538	47.18
818.711	44.61
818.884	45.7
819.057	44.35
819.23	47.54
819.403	44.42
819.576	42.7
819.749	43.75
819.922	44.37
820.095	44.88
820.268	45.85
820.441	47.7
820.614	47.47
820.786	47.15
820.959	48.26
821.132	47.82
821.305	48
821.477	47.98
821.65	47.1
821.823	46.74
821.996	46.07
822.168	46.3
822.341	45.96
822.514	46.08
822.686	46.01
822.859	45.46
823.031	45.24
823.204	46.04
823.376	45.95
823.549	46.48
823.722	46.3
823.894	47.5
824.067	46.97
824.239	47.13
824.411	47.5
824.584	47.61
824.756	47.59
824.929	47.69
825.101	47.52
825.273	47.52
825.446	47.1
825.618	47.48
825.79	46.44
825.963	47.5
826.135	47.35
826.307	47.1
826.479	47.84
826.652	47.47
826.824	47.51
826.996	47.43
827.168	48
827.34	48.48
827.512	48.3
827.684	48.64
827.856	47.71
828.029	48.41
828.201	47.89
828.373	47.38
828.545	48.22
828.717	48.44
828.889	48.07
829.061	47.4
829.232	47.75
829.404	47.1
829.576	47.26
829.748	47.32
829.92	47.08
830.092	48.14
830.264	48.4
830.436	48.51
830.607	48.38
830.779	48.35
830.951	48.99
831.123	46.81
831.294	47.54
831.466	45.67
831.638	46.49
831.809	44.07
831.981	43.78
832.153	44.35
832.324	45.4
832.496	46.89
832.667	48.04
832.839	50.26
833.011	51.66
833.182	51.33
833.354	53.19
833.525	54.77
833.697	55.35
833.868	53.49
834.039	53.48
834.211	51.77
834.382	50.35
834.554	49.91
834.725	47.63
834.896	46.47
835.068	47.15
835.239	45.76
835.41	44.11
835.581	44.42
835.753	46.53
835.924	44.98
836.095	46.31
836.266	46.6
836.438	46.2
836.609	48.12
836.78	49.53
836.951	49.98
837.122	50.14
837.293	50.72
837.464	50.19
837.635	48.71
837.806	50.15
837.977	51.27
838.148	52.58
838.319	54.98
838.49	53.36
838.661	53.68
838.832	53.47
839.003	54.87
839.174	56.17
839.345	59.2
839.516	62.53
839.687	64.18
839.857	62.36
840.028	61.02
840.199	58.13
840.37	60.03
840.54	58.38
840.711	54.23
840.882	56.77
841.053	55.74
841.223	54.18
841.394	51.79
841.564	52.43
841.735	53.4
841.906	53.82
842.076	49.81
842.247	50.1
842.417	50.78
842.588	55.63
842.758	55.2
842.929	55.03
843.099	59.3
843.27	62.93
843.44	60.79
843.611	63.21
843.781	56.01
843.951	58.83
844.122	59.12
844.292	58.82
844.462	59.05
844.633	56.95
844.803	56.88
844.973	51.19
845.144	43.23
845.314	44.33
845.484	36.23
845.654	44.94
845.824	49.84
845.995	51.46
846.165	52.02
846.335	55.84
846.505	59.04
846.675	57.45
846.845	62.04
847.015	70.18
847.185	64.18
847.355	67.58
847.525	68.68
847.695	69.65
847.865	67.32
848.035	73.93
848.205	69.72
848.375	65.76
848.545	58.81
848.715	56.06
848.884	57.25
849.054	55.63
849.224	49.43
849.394	53.49
849.564	52.21
849.733	50.76
849.903	50.58
850.073	48.91
850.243	51.58
850.412	56.02
850.582	54.38
850.752	50.35
850.921	52.9
851.091	55.35
851.26	61.33
851.43	59.45
851.599	58.6
851.769	57.88
851.939	56.94
852.108	56.67
852.278	59.55
852.447	60.26
852.616	60.89
852.786	63.13
852.955	65.68
853.125	62.79
853.294	60.97
853.463	62.47
853.633	62.31
853.802	61.51
853.971	64.43
854.141	66.31
854.31	62.78
854.479	60.89
854.648	67.42
854.818	60.25
854.987	54.33
855.156	59.07
855.325	57.45
855.494	53.44
855.663	59.54
855.832	54.28
856.001	54.81
856.171	51.38
856.34	58.19
856.509	53.6
856.678	56.98
856.847	60.31
857.016	63.27
857.185	60.4
857.353	63.03
857.522	64.42
857.691	77.31
857.86	83.14
858.029	81.92
858.198	81.13
858.367	88.45
858.535	95.36
858.704	81.96
858.873	80.92
859.042	87.91
859.21	99.93
859.379	92.3
859.548	76.03
859.717	75.7
859.885	73.57
860.054	66.17
860.222	48.14
860.391	50.85
860.56	61.12
860.728	67.76
860.897	53.76
861.065	48.59
861.234	56.63
861.402	66.89
861.571	57.26
861.739	68.6
861.908	80.03
862.076	85.77
862.244	83.37
862.413	82.25
862.581	82.72
862.749	91.42
862.918	85.27
863.086	69.08
863.254	62.22
863.423	78.97
863.591	70.63
863.759	67.61
863.927	65.99
864.096	65.69
864.264	73.77
864.432	67.89
864.6	71.11
864.768	73.63
864.936	90.73
865.104	91.74
865.272	86.06
865.44	88.4
865.608	84.59
865.776	89.94
865.944	92.79
866.112	88.15
866.28	83.39
866.448	82.95
866.616	78.46
866.784	82.89
866.952	81.91
867.12	75.84
867.288	81.33
867.455	74.15
867.623	77.29
867.791	73.67
867.959	73.21
868.127	72.66
868.294	71.84
868.462	72.2
868.63	63.53
868.797	61.41
868.965	61.33
869.133	46.11
869.3	51.35
869.468	47.98
869.636	39.72
869.803	44.08
869.971	54.03
870.138	56.05
870.306	54.97
870.473	57.79
870.641	57.46
870.808	55.86
870.975	62.77
871.143	64.97
871.31	68.08
871.478	84.7
871.645	71.66
871.812	65.89
871.98	67.95
872.147	76.05
872.314	66.81
872.482	63.72
872.649	72.16
872.816	78.67
872.983	75.76
873.15	70.24
873.318	60.98
873.485	68.77
873.652	71.27
873.819	76.73
873.986	66.41
874.153	74.81
874.32	77.27
874.487	72.79
874.654	61.92
874.821	63.85
874.988	64.24
875.155	64.56
875.322	68.52
875.489	67.91
875.656	54.74
875.823	51.33
875.99	47.6
876.157	50.43
876.324	57.05
876.49	68.38
876.657	70.06
876.824	77.98
876.991	83.17
877.157	76.15
877.324	74.44
877.491	72.79
877.658	86.63
877.824	84.66
877.991	79.73
878.157	75.08
878.324	66.19
878.491	65.6
878.657	67.38
878.824	63.02
878.99	57.75
879.157	61.16
879.323	59.47
879.49	55.62
879.656	58.94
879.823	59.45
879.989	56.88
880.156	59.64
880.322	57.99
880.488	54.55
880.655	56.24
880.821	63.93
880.987	59.61
881.154	61.39
881.32	61.19
881.486	58.64
881.652	58.9
881.819	59.89
881.985	57.46
882.151	57.23
882.317	58.03
882.483	55.26
882.649	52.95
882.816	51.98
882.982	53.28
883.148	52.32
883.314	51.88
883.48	53.71
883.646	53.15
883.812	52.15
883.978	52.74
884.144	51.98
884.31	51.7
884.476	52.48
884.642	53.03
884.807	53.23
884.973	52.15
885.139	52.81
885.305	51.35
885.471	51.21
885.637	51.12
885.802	50.14
885.968	51.5
886.134	53.57
886.3	52.02
886.465	53.16
886.631	50.67
886.797	54.79
886.962	54.1
887.128	55.82
887.293	57.13
887.459	59.24
887.625	59.67
887.79	57.62
887.956	53.8
888.121	55.35
888.287	53.7
888.452	56.24
888.618	52.09
888.783	51.57
