Data from LC_170_Reflection_1.txt Node
Date: Mon Nov 16 23:12:58 EST 2015
User: robert
Spectrometer: USB4E03001
Autoset integration time: false
Trigger mode: 4
Integration Time (sec): 1.000000E-1
Scans to average: 15
Electric dark correction enabled: true
Nonlinearity correction enabled: false
Boxcar width: 5
Stray light correction enabled: false
XAxis mode: Wavelengths
Stop averaging: false
Number of Pixels in Spectrum: 3648
>>>>>Begin Spectral Data<<<<<
177.566	6309.64
177.785	373.81
178.005	-2386.55
178.225	208.21
178.445	165.3
178.665	216.44
178.885	315.41
179.105	671.96
179.324	-69.16
179.544	-137.1
179.764	-1116.54
179.984	-377.98
180.204	-315.8
180.423	-258.1
180.643	-365.47
180.863	-302.84
181.083	-275.04
181.302	-352.25
181.522	-278.21
181.742	-266.36
181.961	-507.33
182.181	-385.91
182.401	-502.95
182.621	-2033.33
182.84	-835.89
183.06	-577.59
183.279	-316.29
183.499	-204.3
183.719	-154.65
183.938	-159.76
184.158	-201.78
184.377	-110.45
184.597	-232.51
184.816	-171.38
185.036	-105.6
185.256	-106.39
185.475	-143.64
185.695	-192.66
185.914	-296.43
186.134	-559.04
186.353	-694.64
186.572	-825.44
186.792	-1287.2
187.011	-496.92
187.231	-457.2
187.45	-365.54
187.67	-949.34
187.889	-2363.75
188.108	4052.53
188.328	-1029.82
188.547	-391.15
188.766	-713.28
188.986	-1033.88
189.205	-703.88
189.424	-531.97
189.644	-1411.66
189.863	-1554.99
190.082	-1063.2
190.302	-2272.3
190.521	-1583.96
190.74	1552.71
190.959	647.64
191.178	901.35
191.398	735.81
191.617	610.25
191.836	499.39
192.055	1081.25
192.274	414.73
192.494	441.42
192.713	460.87
192.932	1022.57
193.151	810.7
193.37	1261.04
193.589	-886.29
193.808	-275.13
194.027	-394.99
194.246	-3560.89
194.465	680.28
194.685	1895.25
194.904	836.82
195.123	-1222.71
195.342	-700.57
195.561	-336.67
195.78	-586.18
195.999	23814.08
196.218	730.88
196.436	653.37
196.655	-2105.18
196.874	-881.46
197.093	-1197.76
197.312	-1063.32
197.531	2670.72
197.75	800.77
197.969	-2546.57
198.188	-497.18
198.407	-139.55
198.625	-211.47
198.844	-186.4
199.063	-230.29
199.282	-461.75
199.501	-278.37
199.719	-200.9
199.938	-115.09
200.157	-127.84
200.376	-149.97
200.594	-232.46
200.813	-575.74
201.032	-395.57
201.251	-359.26
201.469	-334.47
201.688	-257.34
201.907	-505.54
202.125	-788.27
202.344	29754.76
202.563	5513.26
202.781	815.41
203	2413.5
203.218	1598.41
203.437	1449.94
203.656	742.82
203.874	411.12
204.093	382.77
204.311	439.72
204.53	431.21
204.748	666.02
204.967	397.57
205.185	456.64
205.404	506.77
205.622	322.35
205.841	240.3
206.059	271.98
206.278	351.77
206.496	790.69
206.715	486.58
206.933	373.43
207.151	347.18
207.37	391.73
207.588	371.73
207.806	350.24
208.025	871.93
208.243	-1745.73
208.461	2537.07
208.68	-21222.35
208.898	932.95
209.116	982.15
209.335	927.9
209.553	852.09
209.771	8453.33
209.989	1721.38
210.208	3656.84
210.426	-6249.83
210.644	3253.48
210.862	-2733.12
211.081	1337.44
211.299	-685.92
211.517	2931.16
211.735	-889.89
211.953	-294842.86
212.171	-5253.31
212.39	-14670.27
212.608	-34184.78
212.826	1183.01
213.044	888.44
213.262	664.77
213.48	3739.87
213.698	394.05
213.916	505.92
214.134	293.8
214.352	690.64
214.57	453.52
214.788	613.03
215.006	543.85
215.224	453.24
215.442	362.41
215.66	377.84
215.878	318.18
216.096	328.39
216.314	354.92
216.532	666.25
216.75	488.54
216.968	467.43
217.185	977.84
217.403	1919.56
217.621	-5552.25
217.839	-1402.89
218.057	-1614.2
218.275	2902.44
218.492	913.86
218.71	1557.01
218.928	445.22
219.146	423.4
219.363	348.92
219.581	282.85
219.799	178.7
220.017	181.59
220.234	191.56
220.452	202.84
220.67	234.89
220.887	250.69
221.105	280.37
221.323	212.29
221.54	212.34
221.758	315.35
221.976	306.64
222.193	296.17
222.411	197.12
222.629	198.02
222.846	186.8
223.064	174.52
223.281	160.33
223.499	136.99
223.716	157.25
223.934	125.86
224.151	118.9
224.369	118.75
224.586	127.73
224.804	142.05
225.021	138.85
225.239	122.91
225.456	121.51
225.674	122.95
225.891	105.33
226.108	116.15
226.326	119.05
226.543	91.53
226.76	80.76
226.978	69.39
227.195	74.01
227.413	64.58
227.63	58.15
227.847	51.34
228.064	44.58
228.282	40.92
228.499	35.88
228.716	30.15
228.934	29.09
229.151	30.37
229.368	30.62
229.585	27.13
229.802	28.58
230.02	28.56
230.237	29.66
230.454	31.41
230.671	34.37
230.888	32.81
231.105	34.19
231.323	36.52
231.54	36.71
231.757	39.72
231.974	37.44
232.191	36.54
232.408	43.33
232.625	43.84
232.842	46.21
233.059	45.95
233.276	46.91
233.493	48.89
233.71	47.89
233.927	50.73
234.144	48.37
234.361	51.62
234.578	53.02
234.795	50.93
235.012	50.06
235.229	49.85
235.446	50.78
235.663	51.28
235.879	52.98
236.096	51.66
236.313	49.62
236.53	50.31
236.747	52.94
236.964	51.84
237.181	48.73
237.397	45.49
237.614	46.06
237.831	40.45
238.048	37.56
238.264	38.19
238.481	36.14
238.698	36.32
238.915	37.35
239.131	35.78
239.348	35.62
239.565	37.79
239.781	39.48
239.998	34.54
240.215	34.09
240.431	33.88
240.648	30.08
240.865	29.51
241.081	26.79
241.298	25.28
241.514	26.94
241.731	25.7
241.947	24.57
242.164	24.08
242.38	22.37
242.597	21.01
242.814	22.42
243.03	22.25
243.246	23.95
243.463	25.22
243.679	25.7
243.896	23.09
244.112	24.24
244.329	24.27
244.545	25.05
244.762	27.74
244.978	30.47
245.194	27.31
245.411	27.11
245.627	24.65
245.843	23.71
246.06	21.51
246.276	21.58
246.492	19.71
246.709	18.62
246.925	17.49
247.141	16.88
247.357	16.03
247.574	15.89
247.79	15.74
248.006	15.32
248.222	14.11
248.439	14.67
248.655	14.95
248.871	15.54
249.087	15.73
249.303	14.83
249.519	14.62
249.736	15.28
249.952	15.34
250.168	19
250.384	20.87
250.6	22.72
250.816	22.64
251.032	20.79
251.248	19.76
251.464	20.85
251.68	21.07
251.896	22.44
252.112	22.7
252.328	23.11
252.544	20.34
252.76	19.29
252.976	17.33
253.192	16.87
253.408	18.29
253.624	20.25
253.84	18.58
254.056	21.98
254.272	19.52
254.487	21.75
254.703	22.48
254.919	23.21
255.135	22.14
255.351	26.13
255.567	29.8
255.782	29.35
255.998	27.03
256.214	28.08
256.43	23.62
256.646	30.44
256.861	27.8
257.077	26.17
257.293	24.91
257.508	25.61
257.724	25.6
257.94	23.44
258.155	21.55
258.371	20.96
258.587	19.04
258.802	18.97
259.018	16.43
259.234	15.08
259.449	15.39
259.665	14.59
259.88	14.18
260.096	13.57
260.312	12.31
260.527	12.25
260.743	12.72
260.958	13.19
261.174	13.13
261.389	13.58
261.605	14.49
261.82	15.07
262.036	15.3
262.251	16.7
262.466	16.71
262.682	19.79
262.897	20.62
263.113	20.27
263.328	20.55
263.543	20.88
263.759	21.31
263.974	20.83
264.189	20.68
264.405	22.77
264.62	22.12
264.835	22.85
265.051	20.22
265.266	22.05
265.481	23.1
265.696	23.88
265.912	24.32
266.127	20.7
266.342	19.52
266.557	18.66
266.773	16.96
266.988	17.06
267.203	17.89
267.418	16.76
267.633	15.15
267.848	15.3
268.064	14.45
268.279	14.69
268.494	15.05
268.709	16.85
268.924	16.77
269.139	18.16
269.354	18.88
269.569	17.94
269.784	19.3
269.999	20.35
270.214	19.43
270.429	22.06
270.644	21.1
270.859	20.67
271.074	19.97
271.289	19.04
271.504	18.92
271.719	17.73
271.934	17.13
272.149	16.81
272.363	16.04
272.578	14.48
272.793	12.09
273.008	11.39
273.223	11.75
273.438	10.9
273.653	12.37
273.867	11.39
274.082	10.67
274.297	10.7
274.512	10.89
274.726	10.11
274.941	11.02
275.156	11.36
275.371	13.15
275.585	13.81
275.8	15.17
276.015	14.51
276.229	14.39
276.444	15.94
276.659	15.72
276.873	16.09
277.088	17.99
277.302	17.85
277.517	17.77
277.732	18.48
277.946	18.36
278.161	19.07
278.375	18.85
278.59	18.62
278.804	17.5
279.019	18.86
279.233	17.88
279.448	17.63
279.662	16.7
279.877	17.71
280.091	15.35
280.306	15.23
280.52	13.77
280.735	12.2
280.949	12.65
281.163	13.55
281.378	11.6
281.592	11.13
281.806	10.69
282.021	11.05
282.235	11.49
282.449	12.35
282.664	12.67
282.878	12.8
283.092	13.82
283.307	13.63
283.521	14.06
283.735	14.71
283.949	15.15
284.164	15.13
284.378	15.37
284.592	14.01
284.806	14.1
285.02	13.77
285.234	12.46
285.449	12.54
285.663	12.44
285.877	11.22
286.091	10.73
286.305	11.06
286.519	10.89
286.733	10.47
286.947	10.63
287.161	9.89
287.375	9.85
287.589	11.47
287.803	11.82
288.017	12.49
288.231	13.36
288.445	13.02
288.659	12.95
288.873	12.81
289.087	13.3
289.301	13.35
289.515	14.13
289.729	13.49
289.943	13.5
290.157	12.98
290.371	13.29
290.584	12.5
290.798	13.87
291.012	14.65
291.226	14.68
291.44	14.8
291.654	15.16
291.867	14.61
292.081	14.11
292.295	14.53
292.509	15.43
292.722	15.33
292.936	15.55
293.15	16.09
293.364	15.31
293.577	16.02
293.791	15.92
294.005	15.88
294.218	16.36
294.432	17.81
294.645	17.35
294.859	15.89
295.073	15.46
295.286	15.95
295.5	15.38
295.713	15.77
295.927	15.66
296.14	15.52
296.354	15.07
296.568	14.51
296.781	14.28
296.994	14.24
297.208	14.08
297.421	14.07
297.635	13.23
297.848	12.72
298.062	12
298.275	11.87
298.489	11.75
298.702	12.67
298.915	12.97
299.129	13.3
299.342	13.48
299.555	14.31
299.769	14.6
299.982	15.3
300.195	15.99
300.409	16.69
300.622	16.88
300.835	18.42
301.048	17.59
301.262	17.68
301.475	17.73
301.688	17.54
301.901	18.5
302.115	18.6
302.328	19.24
302.541	18.59
302.754	18.99
302.967	19.64
303.18	18.69
303.393	18.95
303.607	18.42
303.82	18.59
304.033	17.69
304.246	16.98
304.459	17.89
304.672	17.17
304.885	17.76
305.098	16.47
305.311	14.98
305.524	15.65
305.737	15.21
305.95	16.89
306.163	16.07
306.376	15.82
306.589	15.54
306.802	14.8
307.015	15.92
307.228	15.82
307.44	16.63
307.653	17.88
307.866	16.35
308.079	17.38
308.292	17.26
308.505	18.03
308.718	19.07
308.93	18.13
309.143	17.76
309.356	17.53
309.569	17.27
309.781	17.58
309.994	16.44
310.207	17.1
310.42	15.73
310.632	14.79
310.845	14.57
311.058	13.27
311.27	14.76
311.483	13.96
311.696	13.04
311.908	12.87
312.121	12.83
312.333	13.7
312.546	14.04
312.759	14.36
312.971	14.25
313.184	15.12
313.396	15.75
313.609	15.47
313.821	16.26
314.034	17.35
314.246	18.07
314.459	18.26
314.671	17.92
314.884	17.23
315.096	16.62
315.309	16.29
315.521	15.58
315.733	15.6
315.946	13.77
316.158	13.69
316.371	13.95
316.583	14.42
316.795	13.47
317.008	14
317.22	15.66
317.432	16.85
317.644	18.2
317.857	17.65
318.069	17.56
318.281	18.3
318.494	18.06
318.706	18.53
318.918	17.65
319.13	18.36
319.342	18.74
319.555	17.22
319.767	17.42
319.979	16.24
320.191	17.23
320.403	17.8
320.615	18.19
320.827	18.74
321.039	17.17
321.252	17.06
321.464	16.71
321.676	15.82
321.888	15.42
322.1	15.89
322.312	14.5
322.524	13.07
322.736	12.81
322.948	12.78
323.16	11.71
323.372	12.84
323.584	12.83
323.796	12.16
324.007	12.24
324.219	13.05
324.431	13.07
324.643	13.99
324.855	13.63
325.067	14.36
325.279	14.59
325.491	14.86
325.702	13.68
325.914	13.82
326.126	15.46
326.338	16.08
326.55	15.43
326.761	14.81
326.973	15.79
327.185	16.68
327.396	16.26
327.608	16.73
327.82	17.01
328.032	17.78
328.243	17.47
328.455	17.14
328.666	16.69
328.878	16.91
329.09	16.2
329.301	15.05
329.513	14.54
329.725	13.98
329.936	13.4
330.148	14.88
330.359	14.08
330.571	13.43
330.782	13.29
330.994	14.21
331.205	15.58
331.417	16.23
331.628	17.06
331.84	17.21
332.051	17.46
332.262	17.14
332.474	15.1
332.685	16.19
332.897	16.51
333.108	16.47
333.319	15.19
333.531	14.26
333.742	14.98
333.953	14.11
334.165	13.7
334.376	14.14
334.587	14.6
334.799	14.74
335.01	14.14
335.221	14.67
335.432	14.07
335.644	13.79
335.855	13.76
336.066	14.22
336.277	14.74
336.488	15.01
336.7	13.98
336.911	13.9
337.122	14.12
337.333	14.56
337.544	15.25
337.755	15.38
337.966	14.92
338.177	15.09
338.388	14.03
338.599	14
338.811	14.24
339.022	14.52
339.233	14.41
339.444	15.2
339.655	13.88
339.866	13.29
340.076	14.01
340.287	15.33
340.498	15.09
340.709	14.25
340.92	14.71
341.131	13.66
341.342	14.31
341.553	14.73
341.764	14.4
341.975	14.73
342.185	14.24
342.396	13.33
342.607	13.07
342.818	13.63
343.029	14.65
343.239	13.95
343.45	14.9
343.661	13.76
343.872	13.38
344.082	13.23
344.293	14.18
344.504	16.26
344.714	15.69
344.925	14.97
345.136	14.19
345.346	12.7
345.557	13.23
345.768	12.87
345.978	13.9
346.189	14.25
346.399	13.9
346.61	13.68
346.821	11.91
347.031	12.62
347.242	13.09
347.452	13.57
347.663	14.06
347.873	14.23
348.084	13.65
348.294	13.66
348.504	12.96
348.715	13.16
348.925	12.56
349.136	12.42
349.346	11.56
349.557	11.11
349.767	10.87
349.977	11.29
350.188	10.71
350.398	12.34
350.608	11.64
350.819	11.62
351.029	11.02
351.239	11.19
351.449	11.58
351.66	12.65
351.87	13.82
352.08	13.62
352.29	13.86
352.501	13.74
352.711	13.52
352.921	14.39
353.131	14.67
353.341	15.21
353.552	14.7
353.762	14.38
353.972	13.97
354.182	13.93
354.392	14.11
354.602	13.99
354.812	14.65
355.022	13.66
355.232	13.01
355.442	13.19
355.652	13.32
355.862	13.38
356.072	13.57
356.282	13.56
356.492	13.15
356.702	12.64
356.912	13.05
357.122	12.8
357.332	12.9
357.542	12.68
357.752	12.72
357.962	12.13
358.171	12.12
358.381	12.26
358.591	12.28
358.801	12.01
359.011	12.88
359.221	12.44
359.43	12.07
359.64	12.03
359.85	11.82
360.06	11.67
360.269	11.7
360.479	11.9
360.689	11.15
360.899	11.28
361.108	11.78
361.318	11.28
361.528	10.93
361.737	10.89
361.947	10.64
362.156	10.87
362.366	10.35
362.576	10.34
362.785	10.43
362.995	9.96
363.204	9.58
363.414	8.91
363.623	8.54
363.833	9.1
364.042	9.3
364.252	9.7
364.461	9.41
364.671	9.48
364.88	9.59
365.09	9.64
365.299	10.48
365.509	10.35
365.718	10.08
365.927	10.16
366.137	10.28
366.346	10.49
366.555	10.09
366.765	10.51
366.974	10.7
367.183	11.1
367.393	10.45
367.602	10.26
367.811	10.21
368.021	10.27
368.23	10.38
368.439	10.09
368.648	9.72
368.857	10.25
369.067	10.15
369.276	10.27
369.485	10.01
369.694	10.29
369.903	10.78
370.112	11.11
370.321	11.21
370.531	11
370.74	10.82
370.949	10.81
371.158	10.32
371.367	10.54
371.576	10.18
371.785	9.99
371.994	10.16
372.203	10.27
372.412	10.38
372.621	10.85
372.83	11.02
373.039	11.34
373.248	11.39
373.457	11.81
373.666	11.28
373.874	11.3
374.083	11.91
374.292	11.72
374.501	11.05
374.71	10.81
374.919	10.62
375.128	10.66
375.336	10.38
375.545	10.18
375.754	9.78
375.963	9.83
376.171	9.55
376.38	9.23
376.589	9.33
376.798	9.5
377.006	9.65
377.215	9.7
377.424	9.63
377.632	9.7
377.841	9.98
378.05	9.85
378.258	9.76
378.467	9.82
378.675	9.41
378.884	9.12
379.093	8.98
379.301	8.56
379.51	8.11
379.718	7.94
379.927	7.57
380.135	7.18
380.344	7.32
380.552	7.14
380.761	7.17
380.969	7.21
381.177	7.34
381.386	7.17
381.594	7.52
381.803	7.75
382.011	7.78
382.219	7.55
382.428	7.18
382.636	7.34
382.845	7.92
383.053	8.27
383.261	8.39
383.469	8.41
383.678	8.41
383.886	8.15
384.094	7.57
384.302	7.82
384.511	8.31
384.719	8.63
384.927	8.33
385.135	8.16
385.343	7.87
385.552	7.61
385.76	7.17
385.968	7.07
386.176	6.92
386.384	6.91
386.592	6.56
386.8	6.4
387.008	6.46
387.216	6.55
387.424	6.33
387.633	6.68
387.841	6.38
388.049	6.51
388.257	6.44
388.465	6.49
388.672	6.84
388.88	7.02
389.088	6.93
389.296	6.57
389.504	6.62
389.712	6.85
389.92	6.43
390.128	6.47
390.336	6.4
390.544	6.95
390.751	6.54
390.959	6.42
391.167	6.46
391.375	6.56
391.583	6.53
391.79	6.43
391.998	6.3
392.206	6.45
392.414	6.29
392.621	6.47
392.829	6.28
393.037	6.73
393.244	6.63
393.452	6.82
393.66	6.85
393.867	7.12
394.075	6.78
394.283	6.8
394.49	6.59
394.698	6.99
394.905	6.92
395.113	6.78
395.32	6.77
395.528	6.99
395.735	6.75
395.943	6.45
396.15	6.28
396.358	6.83
396.565	6.8
396.773	7.22
396.98	7.08
397.188	7.02
397.395	7.08
397.602	6.75
397.81	6.61
398.017	6.88
398.225	6.9
398.432	7.13
398.639	7
398.847	7.07
399.054	6.59
399.261	6.62
399.468	6.74
399.676	6.32
399.883	6.62
400.09	6.79
400.297	6.67
400.505	6.93
400.712	6.8
400.919	6.75
401.126	6.61
401.333	6.78
401.54	6.69
401.748	6.49
401.955	6.89
402.162	6.82
402.369	6.43
402.576	6.08
402.783	5.82
402.99	5.8
403.197	5.78
403.404	5.56
403.611	5.52
403.818	5.6
404.025	5.6
404.232	5.57
404.439	5.43
404.646	5.33
404.853	5.15
405.06	5.13
405.267	4.96
405.474	4.99
405.681	4.96
405.887	4.89
406.094	4.91
406.301	5.04
406.508	4.97
406.715	5.12
406.922	5.15
407.128	5.04
407.335	5.17
407.542	4.92
407.749	4.81
407.955	5.31
408.162	5.4
408.369	5.73
408.575	5.51
408.782	5.22
408.989	4.87
409.195	5.03
409.402	5.22
409.609	5.17
409.815	5.52
410.022	5.65
410.228	5.27
410.435	4.95
410.642	4.64
410.848	4.86
411.055	4.86
411.261	5.21
411.468	5.29
411.674	5.13
411.881	5.14
412.087	5.3
412.294	5.18
412.5	5
412.706	5.3
412.913	5.04
413.119	4.7
413.326	4.67
413.532	4.55
413.738	4.45
413.945	4.74
414.151	4.66
414.357	4.54
414.564	4.34
414.77	4.46
414.976	4.07
415.182	4.33
415.389	4.46
415.595	4.57
415.801	4.46
416.007	4.51
416.214	4.54
416.42	4.65
416.626	4.4
416.832	4.55
417.038	4.41
417.244	4.69
417.45	4.35
417.657	4.48
417.863	4.56
418.069	4.68
418.275	4.55
418.481	4.24
418.687	4.18
418.893	4.18
419.099	4.08
419.305	4.24
419.511	4.25
419.717	4.31
419.923	4.12
420.129	3.99
420.335	3.88
420.541	3.88
420.746	4.03
420.952	3.96
421.158	3.96
421.364	3.81
421.57	3.79
421.776	3.7
421.982	3.66
422.187	3.58
422.393	3.6
422.599	3.58
422.805	3.6
423.01	3.44
423.216	3.23
423.422	3.22
423.628	3.39
423.833	3.36
424.039	3.47
424.245	3.54
424.45	3.69
424.656	3.66
424.862	3.65
425.067	3.74
425.273	3.82
425.478	4.12
425.684	4.19
425.889	4.32
426.095	4.27
426.301	4.05
426.506	4.04
426.712	4.04
426.917	3.97
427.123	4.08
427.328	4
427.533	4.04
427.739	4.09
427.944	3.99
428.15	3.77
428.355	3.78
428.561	3.97
428.766	4.02
428.971	3.84
429.177	4.06
429.382	4.03
429.587	3.99
429.793	3.96
429.998	3.91
430.203	3.97
430.408	3.96
430.614	4.17
430.819	4.06
431.024	4.22
431.229	4.37
431.434	4.42
431.64	4.29
431.845	4.36
432.05	4.33
432.255	4.11
432.46	3.94
432.665	3.93
432.87	3.71
433.076	3.65
433.281	3.65
433.486	3.42
433.691	3.25
433.896	3.07
434.101	3.02
434.306	3.1
434.511	3.03
434.716	3.19
434.921	3.24
435.126	3.12
435.331	3.23
435.535	3.15
435.74	3.45
435.945	3.61
436.15	3.88
436.355	3.89
436.56	3.95
436.765	4.17
436.97	4.09
437.174	4
437.379	4.19
437.584	4.37
437.789	4.26
437.993	4.22
438.198	4.05
438.403	4
438.608	4.05
438.812	3.92
439.017	3.82
439.222	3.83
439.426	3.83
439.631	3.78
439.836	3.47
440.04	3.55
440.245	3.48
440.45	3.48
440.654	3.53
440.859	3.33
441.063	3.27
441.268	3.3
441.472	3.36
441.677	3.36
441.881	3.26
442.086	3.38
442.29	3.35
442.495	3.31
442.699	3.34
442.904	3.28
443.108	3.41
443.312	3.54
443.517	3.44
443.721	3.31
443.925	3.33
444.13	3.39
444.334	3.31
444.538	3.24
444.743	3.19
444.947	3.11
445.151	2.97
445.356	2.87
445.56	2.79
445.764	2.91
445.968	2.98
446.173	2.92
446.377	2.98
446.581	2.99
446.785	3.04
446.989	3.11
447.193	3.18
447.398	3.21
447.602	3.25
447.806	3.4
448.01	3.46
448.214	3.49
448.418	3.51
448.622	3.64
448.826	3.75
449.03	3.77
449.234	3.84
449.438	3.78
449.642	3.83
449.846	3.96
450.05	3.81
450.254	3.69
450.458	3.82
450.662	3.93
450.866	3.72
451.069	3.7
451.273	3.51
451.477	3.33
451.681	3.36
451.885	3.2
452.089	3.07
452.292	3.07
452.496	3.01
452.7	2.85
452.904	2.81
453.107	2.77
453.311	2.88
453.515	2.97
453.719	2.91
453.922	2.94
454.126	3.06
454.33	3.1
454.533	3.05
454.737	3.01
454.94	3.08
455.144	3.26
455.348	3.28
455.551	3.05
455.755	2.97
455.958	3.14
456.162	3.13
456.365	3.31
456.569	3.18
456.772	3.09
456.976	3.24
457.179	3.22
457.383	3.03
457.586	3.21
457.79	3.26
457.993	3.36
458.196	3.16
458.4	3.19
458.603	3.03
458.807	3.17
459.01	3.39
459.213	3.18
459.417	3.12
459.62	3.13
459.823	2.96
460.026	2.92
460.23	2.91
460.433	3.02
460.636	3.09
460.839	3.18
461.042	3.13
461.246	3.11
461.449	3.17
461.652	3.17
461.855	3.07
462.058	3.11
462.261	2.98
462.464	2.93
462.668	3.09
462.871	3.01
463.074	2.97
463.277	2.84
463.48	2.92
463.683	3.05
463.886	3.1
464.089	3.17
464.292	3.38
464.495	3.63
464.698	3.53
464.901	3.44
465.104	3.33
465.306	3.38
465.509	3.46
465.712	3.31
465.915	3.28
466.118	3.23
466.321	3.18
466.524	2.98
466.726	3.03
466.929	3.26
467.132	3.19
467.335	3.2
467.538	3.07
467.74	3.16
467.943	3.19
468.146	3.32
468.348	3.31
468.551	3.37
468.754	3.47
468.956	3.26
469.159	3.28
469.362	3.37
469.564	3.29
469.767	3.41
469.969	3.42
470.172	3.35
470.375	3.2
470.577	3.24
470.78	3.22
470.982	3.11
471.185	3.16
471.387	3.25
471.59	3.22
471.792	3.34
471.995	3.17
472.197	3.2
472.399	3.21
472.602	3.18
472.804	3.16
473.007	3.06
473.209	3.11
473.411	3.18
473.614	2.95
473.816	2.87
474.018	2.98
474.22	3.18
474.423	3.11
474.625	3.07
474.827	3.18
475.03	3.24
475.232	3.49
475.434	3.49
475.636	3.55
475.838	3.67
476.04	3.78
476.243	3.61
476.445	3.57
476.647	3.53
476.849	3.51
477.051	3.37
477.253	3.37
477.455	3.29
477.657	3.24
477.859	3.15
478.061	3.04
478.263	2.87
478.465	2.81
478.667	2.84
478.869	2.85
479.071	2.77
479.273	2.73
479.475	2.58
479.677	2.62
479.879	2.55
480.081	2.61
480.283	2.61
480.485	2.5
480.686	2.66
480.888	2.61
481.09	2.66
481.292	2.72
481.494	2.75
481.695	2.81
481.897	2.64
482.099	2.68
482.301	2.64
482.502	2.59
482.704	2.65
482.906	2.61
483.107	2.58
483.309	2.5
483.511	2.51
483.712	2.47
483.914	2.42
484.115	2.44
484.317	2.42
484.519	2.42
484.72	2.45
484.922	2.44
485.123	2.45
485.325	2.45
485.526	2.51
485.728	2.5
485.929	2.53
486.131	2.6
486.332	2.6
486.534	2.59
486.735	2.57
486.936	2.49
487.138	2.47
487.339	2.38
487.541	2.37
487.742	2.33
487.943	2.3
488.144	2.31
488.346	2.26
488.547	2.27
488.748	2.32
488.95	2.28
489.151	2.33
489.352	2.34
489.553	2.41
489.755	2.45
489.956	2.44
490.157	2.44
490.358	2.44
490.559	2.53
490.76	2.55
490.961	2.44
491.163	2.46
491.364	2.58
491.565	2.54
491.766	2.55
491.967	2.56
492.168	2.53
492.369	2.61
492.57	2.58
492.771	2.59
492.972	2.59
493.173	2.74
493.374	2.75
493.575	2.65
493.776	2.74
493.976	2.77
494.177	2.77
494.378	2.85
494.579	2.81
494.78	3.01
494.981	2.91
495.182	3
495.382	2.95
495.583	2.96
495.784	3.01
495.985	3.09
496.185	3.06
496.386	2.93
496.587	2.96
496.788	2.99
496.988	2.95
497.189	3
497.39	2.94
497.59	2.93
497.791	2.88
497.992	2.83
498.192	2.83
498.393	2.89
498.593	2.96
498.794	2.87
498.994	3.01
499.195	2.95
499.395	3.03
499.596	3.11
499.796	3.14
499.997	3.26
500.197	3.37
500.398	3.31
500.598	3.3
500.799	3.32
500.999	3.4
501.199	3.19
501.4	3.25
501.6	3.03
501.801	3.08
502.001	2.99
502.201	3.05
502.402	3.07
502.602	3.02
502.802	3.02
503.002	3.12
503.203	3.33
503.403	3.34
503.603	3.27
503.803	3.38
504.003	3.36
504.204	3.48
504.404	3.47
504.604	3.49
504.804	3.64
505.004	3.55
505.204	3.51
505.404	3.55
505.604	3.74
505.804	3.73
506.005	3.77
506.205	3.72
506.405	3.75
506.605	3.79
506.805	3.84
507.005	3.85
507.204	3.9
507.404	3.87
507.604	3.7
507.804	3.56
508.004	3.71
508.204	3.76
508.404	3.78
508.604	3.76
508.804	3.75
509.003	3.66
509.203	3.65
509.403	3.64
509.603	3.73
509.803	3.89
510.002	3.88
510.202	3.73
510.402	3.62
510.602	3.66
510.801	3.67
511.001	3.63
511.201	3.65
511.4	3.56
511.6	3.67
511.8	3.63
511.999	3.69
512.199	3.68
512.398	3.67
512.598	3.89
512.797	3.91
512.997	3.91
513.197	4.07
513.396	4.14
513.596	4.22
513.795	4.4
513.994	4.44
514.194	4.34
514.393	4.44
514.593	4.67
514.792	4.65
514.992	4.59
515.191	4.57
515.39	4.49
515.59	4.44
515.789	4.46
515.988	4.27
516.188	4.23
516.387	4.18
516.586	4.18
516.786	4.16
516.985	4.08
517.184	4.17
517.383	4.35
517.582	4.42
517.782	4.47
517.981	4.44
518.18	4.38
518.379	4.55
518.578	4.52
518.777	4.57
518.976	4.51
519.176	4.6
519.375	4.61
519.574	4.57
519.773	4.55
519.972	4.52
520.171	4.52
520.37	4.61
520.569	4.54
520.768	4.56
520.967	4.63
521.166	4.71
521.365	4.67
521.564	4.79
521.762	4.78
521.961	4.84
522.16	4.81
522.359	4.83
522.558	4.88
522.757	4.85
522.956	4.97
523.154	4.89
523.353	4.88
523.552	4.91
523.751	4.84
523.949	4.82
524.148	4.83
524.347	4.96
524.546	5.02
524.744	4.97
524.943	5.09
525.142	5.14
525.34	5.3
525.539	5.29
525.737	5.32
525.936	5.3
526.135	5.23
526.333	5.19
526.532	5.2
526.73	5.2
526.929	5.17
527.127	5.15
527.326	5.08
527.524	5
527.723	5.08
527.921	5.1
528.12	5.08
528.318	5.13
528.516	5.14
528.715	5.14
528.913	5.13
529.112	5.21
529.31	5.16
529.508	5.19
529.707	5.18
529.905	5.16
530.103	5.19
530.301	5.24
530.5	5.27
530.698	5.34
530.896	5.46
531.094	5.61
531.293	5.61
531.491	5.79
531.689	5.8
531.887	5.91
532.085	5.91
532.283	5.82
532.481	5.87
532.68	5.87
532.878	5.84
533.076	5.77
533.274	5.67
533.472	5.74
533.67	5.66
533.868	5.7
534.066	5.64
534.264	5.62
534.462	5.76
534.66	5.75
534.858	5.83
535.056	5.83
535.253	5.78
535.451	5.9
535.649	5.97
535.847	6.14
536.045	6.11
536.243	6.18
536.441	6.28
536.638	6.31
536.836	6.32
537.034	6.33
537.232	6.41
537.43	6.55
537.627	6.58
537.825	6.59
538.023	6.51
538.22	6.8
538.418	6.85
538.616	6.92
538.813	6.98
539.011	7.08
539.209	7.09
539.406	7.12
539.604	7.28
539.801	7.43
539.999	7.4
540.196	7.48
540.394	7.43
540.591	7.48
540.789	7.47
540.986	7.34
541.184	7.36
541.381	7.43
541.579	7.45
541.776	7.36
541.974	7.26
542.171	7.31
542.368	7.35
542.566	7.36
542.763	7.42
542.96	7.44
543.158	7.58
543.355	7.66
543.552	7.78
543.75	7.9
543.947	7.91
544.144	7.89
544.341	7.95
544.539	8.02
544.736	8.05
544.933	7.94
545.13	8.01
545.327	8.05
545.524	8.04
545.722	8.06
545.919	8.1
546.116	8.3
546.313	8.54
546.51	8.53
546.707	8.49
546.904	8.5
547.101	8.67
547.298	8.84
547.495	8.83
547.692	8.75
547.889	8.75
548.086	8.9
548.283	8.96
548.48	9.03
548.677	9.03
548.874	9.09
549.07	9.3
549.267	9.4
549.464	9.27
549.661	9.34
549.858	9.65
550.055	9.76
550.251	9.69
550.448	9.7
550.645	9.77
550.842	9.94
551.038	10.04
551.235	9.94
551.432	9.82
551.628	10.03
551.825	10.23
552.022	10.24
552.218	10.22
552.415	10.23
552.612	10.21
552.808	10.06
553.005	9.93
553.201	10.06
553.398	10.02
553.594	10.19
553.791	10.32
553.987	10.37
554.184	10.44
554.38	10.62
554.577	10.58
554.773	10.81
554.97	11.14
555.166	11.54
555.362	11.56
555.559	11.86
555.755	11.95
555.952	11.91
556.148	11.88
556.344	11.87
556.541	11.71
556.737	11.89
556.933	11.9
557.129	11.74
557.326	11.78
557.522	11.91
557.718	12.01
557.914	12.07
558.11	12.08
558.307	12.2
558.503	12.32
558.699	12.4
558.895	12.47
559.091	12.39
559.287	12.35
559.483	12.25
559.679	12.21
559.876	12.18
560.072	12.21
560.268	12.33
560.464	12.3
560.66	12.25
560.856	12.43
561.052	12.44
561.247	12.47
561.443	12.9
561.639	12.96
561.835	13.05
562.031	13.05
562.227	13.09
562.423	13.09
562.619	13.13
562.815	13.23
563.01	13.42
563.206	13.58
563.402	13.59
563.598	13.35
563.793	13.5
563.989	13.49
564.185	13.57
564.381	13.83
564.576	13.97
564.772	14.03
564.968	14.17
565.163	13.98
565.359	13.7
565.555	13.87
565.75	14.08
565.946	14.13
566.141	14.21
566.337	14.26
566.532	14.27
566.728	14.57
566.923	14.67
567.119	14.62
567.314	14.71
567.51	14.92
567.705	15.06
567.901	14.97
568.096	15.19
568.292	15.25
568.487	15.21
568.682	15.21
568.878	14.85
569.073	14.87
569.268	15.05
569.464	15.11
569.659	15.22
569.854	15.23
570.05	15.32
570.245	15.31
570.44	15.44
570.635	15.65
570.831	15.66
571.026	16.1
571.221	16.17
571.416	16.08
571.611	16.07
571.806	16.22
572.002	16.34
572.197	16.38
572.392	16.28
572.587	16.2
572.782	16.34
572.977	16.43
573.172	16.22
573.367	16.19
573.562	16.44
573.757	16.54
573.952	16.59
574.147	16.72
574.342	16.98
574.537	17.18
574.732	17.29
574.927	17.29
575.121	17.37
575.316	17.44
575.511	17.55
575.706	17.47
575.901	17.68
576.096	17.9
576.29	18
576.485	17.99
576.68	18.1
576.875	18.19
577.069	18.17
577.264	18.09
577.459	18.33
577.654	18.34
577.848	18.49
578.043	18.61
578.238	18.48
578.432	18.19
578.627	18.11
578.821	18.02
579.016	18.14
579.21	18.27
579.405	18.37
579.6	18.41
579.794	18.68
579.989	18.51
580.183	18.72
580.378	18.71
580.572	19.04
580.766	19.1
580.961	19.01
581.155	19.12
581.35	19.1
581.544	19.16
581.738	19.16
581.933	19.14
582.127	19.55
582.321	19.42
582.516	19.63
582.71	19.7
582.904	19.74
583.099	19.8
583.293	19.64
583.487	20.07
583.681	20.49
583.875	20.29
584.07	20.49
584.264	20.35
584.458	20.02
584.652	19.83
584.846	19.68
585.04	19.76
585.234	20.12
585.428	20.05
585.623	19.6
585.817	19.32
586.011	19.53
586.205	19.5
586.399	19.55
586.593	19.99
586.787	20.19
586.981	20.22
587.174	20.47
587.368	20.28
587.562	20.57
587.756	20.81
587.95	20.93
588.144	20.9
588.338	21.01
588.532	21.09
588.725	21.09
588.919	21.1
589.113	21.09
589.307	20.85
589.501	20.86
589.694	20.89
589.888	20.95
590.082	20.86
590.275	21.01
590.469	20.98
590.663	20.65
590.856	20.68
591.05	20.9
591.244	20.94
591.437	21.14
591.631	21.28
591.824	21.15
592.018	21.08
592.212	21.1
592.405	21.05
592.599	21.14
592.792	21.36
592.986	21.54
593.179	21.19
593.372	21.39
593.566	21.48
593.759	21.63
593.953	21.88
594.146	21.86
594.339	22.05
594.533	22.19
594.726	22.18
594.92	22.22
595.113	22.19
595.306	22.24
595.499	22.01
595.693	21.96
595.886	21.83
596.079	21.79
596.272	21.75
596.466	21.72
596.659	21.77
596.852	21.79
597.045	22.01
597.238	22.04
597.431	22.19
597.624	22.26
597.818	22.09
598.011	22.1
598.204	22.09
598.397	22.37
598.59	22.25
598.783	22.27
598.976	22.08
599.169	21.9
599.362	21.76
599.555	21.9
599.748	22.17
599.941	22.39
600.134	22.51
600.326	22.65
600.519	22.71
600.712	22.87
600.905	22.95
601.098	23.37
601.291	23.5
601.483	23.42
601.676	23.2
601.869	22.89
602.062	23
602.255	22.98
602.447	23.13
602.64	23.01
602.833	23.26
603.025	23.02
603.218	22.93
603.411	22.86
603.603	22.87
603.796	22.96
603.989	23.2
604.181	23.29
604.374	23.38
604.566	23.08
604.759	23.09
604.951	23.05
605.144	23.2
605.336	23.2
605.529	23.39
605.721	23.49
605.914	23.44
606.106	23.43
606.299	23.33
606.491	23.3
606.683	23.58
606.876	23.54
607.068	23.46
607.26	23.48
607.453	23.66
607.645	23.65
607.837	23.68
608.03	23.92
608.222	23.81
608.414	24
608.606	24.04
608.799	24.11
608.991	24.1
609.183	24.24
609.375	24.09
609.567	23.97
609.759	23.84
609.952	23.8
610.144	23.9
610.336	24.1
610.528	23.95
610.72	23.82
610.912	23.94
611.104	24.21
611.296	24.12
611.488	24.33
611.68	24.54
611.872	24.73
612.064	25.07
612.256	24.94
612.448	24.96
612.64	24.97
612.832	25.43
613.023	25.33
613.215	25.31
613.407	25.35
613.599	25.29
613.791	25.23
613.983	25.25
614.174	25.16
614.366	25.26
614.558	25.25
614.75	25.17
614.941	25.09
615.133	25.03
615.325	25.02
615.516	25
615.708	24.95
615.9	24.94
616.091	24.89
616.283	24.85
616.475	24.64
616.666	24.71
616.858	25.15
617.049	24.79
617.241	24.91
617.432	24.91
617.624	25.23
617.815	25.31
618.007	25.25
618.198	25.52
618.39	25.41
618.581	25.58
618.773	25.47
618.964	25.21
619.155	25.4
619.347	25.24
619.538	25.56
619.729	25.41
619.921	25.45
620.112	25.59
620.303	25.55
620.494	25.88
620.686	25.79
620.877	25.99
621.068	25.93
621.259	26.14
621.451	26.04
621.642	25.67
621.833	25.74
622.024	25.77
622.215	25.66
622.406	25.76
622.597	25.58
622.788	25.62
622.98	25.72
623.171	25.89
623.362	25.85
623.553	26.42
623.744	26.42
623.935	26.5
624.126	26.65
624.317	26.65
624.508	26.61
624.698	26.71
624.889	26.78
625.08	26.78
625.271	27.13
625.462	26.92
625.653	26.59
625.844	26.68
626.034	26.46
626.225	26.35
626.416	26.25
626.607	26.38
626.798	26.36
626.988	26.48
627.179	26.47
627.37	26.17
627.56	26.51
627.751	26.73
627.942	26.77
628.132	26.85
628.323	26.94
628.514	27.1
628.704	27.1
628.895	27.03
629.085	27
629.276	26.91
629.466	27.03
629.657	26.75
629.847	26.57
630.038	26.59
630.228	26.65
630.419	26.88
630.609	27.05
630.8	26.81
630.99	26.85
631.181	26.97
631.371	27.12
631.561	27.2
631.752	27.66
631.942	27.62
632.132	27.67
632.323	27.88
632.513	27.71
632.703	27.73
632.893	27.95
633.084	27.96
633.274	27.87
633.464	27.6
633.654	27.51
633.844	27.16
634.034	27.09
634.225	27.19
634.415	26.88
634.605	27.22
634.795	27.19
634.985	27.44
635.175	27.62
635.365	27.52
635.555	27.97
635.745	27.96
635.935	28.2
636.125	28.39
636.315	28.4
636.505	28.71
636.695	28.29
636.885	27.84
637.075	27.4
637.265	27.37
637.455	27.12
637.644	26.84
637.834	27.31
638.024	27.07
638.214	27.37
638.404	27.35
638.593	27.4
638.783	27.74
638.973	28.47
639.163	28.41
639.352	28.43
639.542	29.25
639.732	29.4
639.921	29.25
640.111	29.43
640.301	29.07
640.49	29.14
640.68	28.99
640.87	28.89
641.059	28.87
641.249	29.37
641.438	29.23
641.628	28.78
641.817	28.6
642.007	28.74
642.196	28.4
642.386	28.78
642.575	28.69
642.764	28.55
642.954	28.32
643.143	28.3
643.333	28.17
643.522	28.43
643.711	28.65
643.901	28.79
644.09	28.9
644.279	29.48
644.469	29.28
644.658	29.32
644.847	29.39
645.036	29.61
645.226	29.44
645.415	29.39
645.604	29.21
645.793	29.16
645.982	29.09
646.171	28.7
646.361	29
646.55	29.32
646.739	29.13
646.928	29.09
647.117	29.21
647.306	29.15
647.495	29.1
647.684	29.34
647.873	29.69
648.062	30.01
648.251	30.08
648.44	29.63
648.629	29.55
648.818	29.63
649.007	29.58
649.196	29.36
649.384	29.77
649.573	29.74
649.762	29.7
649.951	29.32
650.14	29.07
650.328	29.34
650.517	29.47
650.706	29.43
650.895	29.64
651.083	30.45
651.272	30.2
651.461	30.2
651.65	30.67
651.838	30.13
652.027	30.48
652.216	30.46
652.404	30.24
652.593	30.14
652.781	30.04
652.97	30.01
653.158	29.59
653.347	30.12
653.535	29.99
653.724	29.57
653.912	30.14
654.101	29.89
654.289	30.09
654.478	29.97
654.666	30.11
654.855	30.1
655.043	30.17
655.231	29.95
655.42	30.2
655.608	30.24
655.796	30.36
655.985	30.69
656.173	30.78
656.361	30.55
656.55	30.56
656.738	30.35
656.926	30.59
657.114	30.9
657.302	30.74
657.491	30.3
657.679	30.16
657.867	30.13
658.055	29.58
658.243	29.78
658.431	30.03
658.619	30.27
658.807	30.64
658.996	30.76
659.184	30.43
659.372	30.94
659.56	31.05
659.748	30.79
659.936	30.95
660.124	31.31
660.311	31.12
660.499	31.24
660.687	31.69
660.875	31.67
661.063	31.47
661.251	31.96
661.439	31.82
661.627	31.89
661.814	32.26
662.002	32.02
662.19	32.12
662.378	32.18
662.565	32.26
662.753	31.7
662.941	31.51
663.129	31.88
663.316	31.61
663.504	31.29
663.692	31.39
663.879	31.57
664.067	31.99
664.254	32.11
664.442	31.98
664.63	31.5
664.817	31.48
665.005	31.78
665.192	31.66
665.38	31.86
665.567	32.12
665.755	32.28
665.942	32.04
666.13	32.2
666.317	31.94
666.504	32.03
666.692	32.51
666.879	32.47
667.067	32.28
667.254	31.99
667.441	31.43
667.629	31.39
667.816	31.1
668.003	31.16
668.19	30.85
668.378	30.94
668.565	30.95
668.752	30.85
668.939	30.96
669.127	31.21
669.314	31.44
669.501	31.51
669.688	31.86
669.875	32.17
670.062	32.3
670.249	32.44
670.436	32.01
670.623	32.33
670.81	32.51
670.997	32.5
671.184	32.65
671.371	33.06
671.558	33.3
671.745	33.37
671.932	33.35
672.119	33.02
672.306	32.69
672.493	33.12
672.68	33.13
672.867	33.16
673.054	33.14
673.24	32.92
673.427	32.55
673.614	32.73
673.801	32.94
673.988	33.13
674.174	33.41
674.361	33.62
674.548	33.87
674.734	33.88
674.921	33.69
675.108	34
675.294	33.29
675.481	33.08
675.668	33.25
675.854	32.95
676.041	32.61
676.227	32.75
676.414	32.79
676.601	32.91
676.787	32.86
676.974	33.19
677.16	33.09
677.347	33.59
677.533	33.96
677.719	33.58
677.906	33.39
678.092	33.5
678.279	33.44
678.465	33.54
678.651	33.18
678.838	33.46
679.024	32.86
679.21	32.5
679.397	32.55
679.583	32.53
679.769	32.57
679.955	32.6
680.142	32.55
680.328	32.84
680.514	32.83
680.7	32.55
680.886	32.66
681.073	33.2
681.259	33.43
681.445	33.73
681.631	33.57
681.817	33.72
682.003	33.46
682.189	33.29
682.375	33.08
682.561	33.28
682.747	34.15
682.933	33.99
683.119	33.87
683.305	33.81
683.491	33.69
683.677	33.74
683.863	33.8
684.049	34.57
684.235	34.6
684.42	34.58
684.606	34.35
684.792	34.25
684.978	33.85
685.164	33.96
685.349	33.66
685.535	33.95
685.721	33.93
685.907	33.72
686.092	33.39
686.278	33.41
686.464	33.45
686.649	33.41
686.835	32.96
687.021	33.47
687.206	33.31
687.392	33.6
687.577	33.03
687.763	33.1
687.948	32.91
688.134	32.47
688.319	32.88
688.505	33.08
688.69	33.27
688.876	32.89
689.061	32.57
689.247	32.58
689.432	32.77
689.618	32.92
689.803	33.04
689.988	33.69
690.174	34.01
690.359	33.73
690.544	33.23
690.73	33.45
690.915	33.97
691.1	34.03
691.285	34.01
691.471	34.18
691.656	34.45
691.841	34.35
692.026	34.33
692.211	34.95
692.396	35.35
692.582	35.87
692.767	35.94
692.952	36.2
693.137	35.93
693.322	36.03
693.507	35.95
693.692	35.96
693.877	35.66
694.062	35.45
694.247	35.13
694.432	35.27
694.617	35.42
694.802	35.38
694.987	35.57
695.172	35.66
695.357	35.89
695.541	36.46
695.726	36.48
695.911	37.69
696.096	37.32
696.281	37.34
696.466	37.14
696.65	36.79
696.835	36.53
697.02	36.4
697.204	36.66
697.389	36.54
697.574	36.04
697.759	36.11
697.943	35.5
698.128	35.81
698.312	35.59
698.497	35.21
698.682	35.21
698.866	35.36
699.051	35.23
699.235	35.07
699.42	35.11
699.604	35.2
699.789	34.95
699.973	34.76
700.158	34.96
700.342	35.19
700.527	35.61
700.711	35.97
700.895	35.88
701.08	35.98
701.264	36.27
701.448	36.33
701.633	36.34
701.817	36.31
702.001	36.65
702.186	36.35
702.37	36.71
702.554	36.56
702.738	36.61
702.923	36.91
703.107	37.36
703.291	37.7
703.475	37.57
703.659	37.62
703.843	38.14
704.027	38.04
704.212	37.54
704.396	37.27
704.58	37
704.764	36.54
704.948	35.93
705.132	35.06
705.316	34.99
705.5	35.04
705.684	35.19
705.868	34.8
706.052	34.77
706.235	35.62
706.419	35.61
706.603	35.63
706.787	35.74
706.971	36.42
707.155	36.37
707.339	36.23
707.522	36.04
707.706	35.83
707.89	36.12
708.074	36.3
708.257	35.74
708.441	36.04
708.625	36.41
708.808	36.89
708.992	36.2
709.176	36.99
709.359	36.5
709.543	36.72
709.727	37.35
709.91	37.4
710.094	37.05
710.277	37.32
710.461	36.79
710.644	37.03
710.828	36.93
711.011	37.65
711.195	37.56
711.378	38.01
711.562	38.02
711.745	37.71
711.928	37.41
712.112	37.49
712.295	37.64
712.478	37.69
712.662	38.09
712.845	37.91
713.028	37.18
713.212	36.87
713.395	36.77
713.578	36.46
713.761	35.87
713.945	36.22
714.128	36.49
714.311	36.62
714.494	36.62
714.677	36.35
714.86	36.33
715.043	36.97
715.227	36.88
715.41	36.9
715.593	37.36
715.776	37.91
715.959	37.9
716.142	38.07
716.325	37.7
716.508	37.78
716.691	37.31
716.874	37.39
717.057	37.08
717.239	37.33
717.422	37.37
717.605	37.12
717.788	36.97
717.971	37.42
718.154	37.14
718.337	37.54
718.519	37.49
718.702	38.11
718.885	37.73
719.068	38.35
719.25	38.79
719.433	38.63
719.616	38.65
719.798	37.99
719.981	38.08
720.164	38.07
720.346	37.79
720.529	38.53
720.712	38.34
720.894	38.88
721.077	38.51
721.259	38.24
721.442	39.12
721.624	39.74
721.807	40.65
721.989	39.8
722.172	39.94
722.354	40.62
722.537	40.74
722.719	40.66
722.901	41.09
723.084	40.72
723.266	40.23
723.448	39.92
723.631	40.27
723.813	39.84
723.995	39.66
724.178	39.71
724.36	39.52
724.542	38.51
724.724	39.13
724.907	39.59
725.089	39.16
725.271	39.86
725.453	39.5
725.635	38.77
725.817	39.84
725.999	40.85
726.181	40.75
726.364	40.25
726.546	41.26
726.728	41.39
726.91	40.4
727.092	41.26
727.274	40.64
727.456	40.9
727.638	40.8
727.819	40.29
728.001	39.68
728.183	39.94
728.365	40.12
728.547	39.45
728.729	39.52
728.911	39.61
729.093	39.33
729.274	38.84
729.456	38.67
729.638	39.09
729.82	38.99
730.001	38.82
730.183	38.84
730.365	39.09
730.546	39.43
730.728	38.26
730.91	38.23
731.091	38.48
731.273	39.14
731.455	38.94
731.636	38.51
731.818	39.25
731.999	39.49
732.181	39.52
732.362	39.59
732.544	40.07
732.725	40.83
732.907	41.18
733.088	41.28
733.27	41.8
733.451	42.46
733.633	43.11
733.814	42.18
733.995	42.74
734.177	42.68
734.358	42.17
734.539	41.42
734.721	41.18
734.902	40.77
735.083	41.04
735.264	40.63
735.446	40.37
735.627	39.78
735.808	39.19
735.989	38.61
736.17	39.26
736.351	40.07
736.533	39.98
736.714	39.98
736.895	40.94
737.076	39.83
737.257	40.63
737.438	40.57
737.619	41.44
737.8	42.49
737.981	42.31
738.162	42.24
738.343	41.9
738.524	41.62
738.705	41.22
738.886	40.37
739.067	40.96
739.247	40.16
739.428	40.19
739.609	39.74
739.79	40.57
739.971	40.63
740.151	40.17
740.332	40.12
740.513	40.88
740.694	41.46
740.874	41.4
741.055	41.28
741.236	40.47
741.417	40.83
741.597	40.7
741.778	40.4
741.958	40.7
742.139	40.7
742.32	41.18
742.5	41
742.681	41.58
742.861	41.65
743.042	41.39
743.222	42.24
743.403	41.97
743.583	41.57
743.764	41.13
743.944	40.65
744.124	41.22
744.305	40.83
744.485	41.56
744.666	40.97
744.846	41.07
745.026	41.81
745.207	42
745.387	42.41
745.567	43.32
745.747	43.05
745.928	42.91
746.108	42.91
746.288	43.21
746.468	42.61
746.648	42.59
746.829	43.34
747.009	43.79
747.189	43.87
747.369	43.76
747.549	42.26
747.729	42.93
747.909	43.38
748.089	42.95
748.269	42.49
748.449	42.97
748.629	42.51
748.809	42.27
748.989	41.38
749.169	41.96
749.349	41.19
749.529	43.21
749.709	42.31
749.889	42.14
750.068	41.34
750.248	41.41
750.428	40.84
750.608	40.11
750.788	39.9
750.967	39.28
751.147	38.79
751.327	39.13
751.507	37.86
751.686	38.33
751.866	38.86
752.046	39.18
752.225	39.36
752.405	39.85
752.585	41.27
752.764	40.86
752.944	42.43
753.123	42.54
753.303	43.29
753.482	43.65
753.662	44.55
753.841	43.5
754.021	43.92
754.2	43.8
754.38	43.8
754.559	42.95
754.739	42.33
754.918	41.66
755.097	41.8
755.277	40.68
755.456	40.78
755.635	40.2
755.815	41.24
755.994	41.12
756.173	41.24
756.352	40.72
756.532	41.48
756.711	42.33
756.89	41.48
757.069	41.5
757.248	41.44
757.427	40.48
757.607	39.69
757.786	39.12
757.965	39.14
758.144	39.96
758.323	41.1
758.502	41.71
758.681	42.21
758.86	43.52
759.039	42.85
759.218	43.84
759.397	45.07
759.576	45.02
759.755	45.07
759.934	45.7
760.113	44.73
760.291	43.52
760.47	42.78
760.649	43.03
760.828	42.71
761.007	43.05
761.186	42.75
761.364	42.55
761.543	42.89
761.722	42.03
761.901	40.49
762.079	40.95
762.258	40.84
762.437	40.77
762.615	39.93
762.794	40.06
762.972	39.54
763.151	38.71
763.33	38.86
763.508	38.46
763.687	38.77
763.865	39.64
764.044	39.44
764.222	39.09
764.401	39.12
764.579	39.11
764.758	38.77
764.936	39.43
765.114	39.66
765.293	39.06
765.471	39.5
765.65	40.1
765.828	39.81
766.006	40.11
766.184	40.54
766.363	40.47
766.541	40.62
766.719	41.87
766.898	42.02
767.076	42.17
767.254	42.76
767.432	42.94
767.61	42.77
767.788	43.26
767.967	43.65
768.145	44.14
768.323	43.68
768.501	44.41
768.679	43.13
768.857	42.33
769.035	44.03
769.213	44.99
769.391	45.9
769.569	46.87
769.747	47.34
769.925	46.45
770.103	45.74
770.281	46.45
770.459	46.64
770.636	47.56
770.814	48.18
770.992	46.23
771.17	45.4
771.348	45.58
771.525	45.43
771.703	43.73
771.881	44.1
772.059	45.88
772.236	45.56
772.414	45.64
772.592	44.27
772.769	43.52
772.947	43.95
773.125	43.36
773.302	42.26
773.48	41.56
773.657	42.8
773.835	42.07
774.013	42.43
774.19	44.23
774.368	42.87
774.545	43.31
774.723	45.14
774.9	45.09
775.077	45.14
775.255	45.54
775.432	48.08
775.61	49.07
775.787	49.21
775.964	48.22
776.142	48.63
776.319	49.05
776.496	49.4
776.674	48.6
776.851	50.17
777.028	50.53
777.205	50.77
777.382	49.23
777.56	48.61
777.737	50.7
777.914	50.18
778.091	49.18
778.268	48.78
778.445	49.67
778.622	50.38
778.8	49.96
778.977	50.61
779.154	55.41
779.331	54.82
779.508	54.44
779.685	52.89
779.862	53.01
780.038	52.29
780.215	53.6
780.392	53.51
780.569	51.63
780.746	51.36
780.923	50.49
781.1	45.16
781.277	45.3
781.453	45.76
781.63	45.34
781.807	45.38
781.984	44.56
782.16	45.1
782.337	46.17
782.514	46.81
782.691	49.3
782.867	49.03
783.044	48.3
783.221	49.11
783.397	50.18
783.574	50.75
783.75	50.99
783.927	53.35
784.103	52.67
784.28	51.67
784.456	50.78
784.633	48.68
784.809	51.32
784.986	51.67
785.162	50.81
785.339	48.86
785.515	48.97
785.692	47.9
785.868	48.02
786.044	48.56
786.221	47.37
786.397	49.01
786.573	49.88
786.749	47.63
786.926	49.65
787.102	50.21
787.278	51.58
787.454	50.84
787.631	52.6
787.807	49.91
787.983	46.85
788.159	47.15
788.335	45.69
788.511	44.92
788.687	46.1
788.863	44.91
789.039	44.02
789.216	41.66
789.392	42.7
789.568	42.96
789.744	44.86
789.919	45.21
790.095	42.84
790.271	43.69
790.447	42.62
790.623	42.9
790.799	44.05
790.975	43.94
791.151	46.24
791.327	46.17
791.502	45.2
791.678	43.71
791.854	46.47
792.03	48.3
792.205	50.22
792.381	50.88
792.557	50.6
792.733	49.05
792.908	49.71
793.084	47.21
793.259	47.06
793.435	46.79
793.611	49.29
793.786	47.94
793.962	49.33
794.137	48.44
794.313	47.78
794.488	45.49
794.664	47.19
794.839	47.95
795.015	51.7
795.19	50.47
795.366	51.52
795.541	50.38
795.716	49.47
795.892	49.79
796.067	48.98
796.242	50.73
796.418	50.78
796.593	49.56
796.768	49.41
796.944	47.15
797.119	47.89
797.294	46.86
797.469	47.27
797.644	49.47
797.82	48.65
797.995	48.26
798.17	46.97
798.345	47.81
798.52	47.01
798.695	47.31
798.87	47.19
799.045	47.31
799.22	49.45
799.395	50.02
799.57	48.92
799.745	49.85
799.92	50.84
800.095	52.81
800.27	52.53
800.445	52.73
800.62	50.76
800.795	51.76
800.97	52.44
801.145	50.1
801.319	50.42
801.494	49.38
801.669	49.2
801.844	49.04
802.018	48.54
802.193	48.56
802.368	49.63
802.543	50.58
802.717	50.71
802.892	50.7
803.067	50.89
803.241	49.35
803.416	51.67
803.59	52.85
803.765	53.36
803.94	53.13
804.114	52.38
804.289	53.57
804.463	54.03
804.638	50.21
804.812	53.06
804.986	51.34
805.161	50
805.335	47.64
805.51	45.11
805.684	44.37
805.858	46.2
806.033	45.31
806.207	43.27
806.381	43.4
806.556	47.32
806.73	44.33
806.904	46.67
807.078	46.54
807.253	47.69
807.427	47.94
807.601	47.11
807.775	46.83
807.949	50.51
808.123	50.62
808.298	49.87
808.472	49.73
808.646	50.63
808.82	48.95
808.994	50.45
809.168	51.96
809.342	53.38
809.516	55.57
809.69	55.63
809.864	55.33
810.038	58.62
810.212	58.41
810.385	55.83
810.559	55.31
810.733	59.02
810.907	57.79
811.081	55.81
811.255	54.4
811.428	53.23
811.602	49.79
811.776	50.17
811.95	47.27
812.123	48.07
812.297	51.67
812.471	50.6
812.644	49.21
812.818	53.42
812.992	53.18
813.165	54.25
813.339	55.5
813.512	55.24
813.686	53.9
813.86	57.49
814.033	57.81
814.207	54.49
814.38	52.4
814.554	52.23
814.727	50.59
814.9	52.09
815.074	53.5
815.247	52.64
815.421	51.62
815.594	53.8
815.767	49.49
815.941	50.9
816.114	53.14
816.287	56.29
816.46	53.99
816.634	55.25
816.807	56.9
816.98	55.98
817.153	56.82
817.327	60.24
817.5	57.44
817.673	61.99
817.846	62.84
818.019	63.2
818.192	62.35
818.365	61.63
818.538	58.28
818.711	54.6
818.884	52.3
819.057	51.52
819.23	49.48
819.403	48.75
819.576	44.65
819.749	42.74
819.922	42.12
820.095	43.44
820.268	44.92
820.441	44.94
820.614	43.87
820.786	44.73
820.959	44.56
821.132	43.81
821.305	44.3
821.477	43.64
821.65	43.85
821.823	42.8
821.996	41.61
822.168	41.34
822.341	41.1
822.514	41.63
822.686	40.92
822.859	40.53
823.031	40.34
823.204	40.43
823.376	40.56
823.549	40.3
823.722	40.37
823.894	40.99
824.067	40.7
824.239	41.47
824.411	41.79
824.584	42.69
824.756	42.66
824.929	43.18
825.101	43.38
825.273	43.31
825.446	43.39
825.618	43.33
825.79	43.2
825.963	43.11
826.135	42.68
826.307	41.96
826.479	41.96
826.652	42.49
826.824	42.6
826.996	41.91
827.168	42.29
827.34	42.33
827.512	42.99
827.684	42.93
827.856	44.48
828.029	45.28
828.201	45.43
828.373	44.84
828.545	45.51
828.717	45.88
828.889	45.99
829.061	46.92
829.232	47.22
829.404	47.78
829.576	48.61
829.748	47.13
829.92	47.53
830.092	48.06
830.264	48.25
830.436	48.16
830.607	48.85
830.779	49.97
830.951	50.92
831.123	51.46
831.294	50.92
831.466	50.79
831.638	51.93
831.809	50.2
831.981	53.43
832.153	54.28
832.324	52.31
832.496	52.47
832.667	53.79
832.839	53.37
833.011	53.14
833.182	52.97
833.354	51.92
833.525	52.62
833.697	51.2
833.868	47.67
834.039	48.62
834.211	49.52
834.382	47.73
834.554	47.48
834.725	46.99
834.896	46.19
835.068	45.46
835.239	45.95
835.41	45.57
835.581	48.18
835.753	49.34
835.924	47.85
836.095	48.5
836.266	51.09
836.438	49.99
836.609	51.78
836.78	53.42
836.951	55.92
837.122	56.87
837.293	58.07
837.464	56.86
837.635	56.91
837.806	58.93
837.977	58.85
838.148	59.16
838.319	60.21
838.49	57.53
838.661	57.03
838.832	54.78
839.003	54.51
839.174	55.73
839.345	56.34
839.516	59.2
839.687	60.7
839.857	62.18
840.028	60.92
840.199	61.24
840.37	63.12
840.54	67.34
840.711	63.37
840.882	64.14
841.053	62.75
841.223	61
841.394	55.93
841.564	58.46
841.735	58.65
841.906	54.95
842.076	50.26
842.247	50.83
842.417	46.03
842.588	50.48
842.758	47.57
842.929	45.67
843.099	50.96
843.27	56.95
843.44	55.04
843.611	55.57
843.781	55.44
843.951	60.31
844.122	61.15
844.292	64.97
844.462	66.04
844.633	68.41
844.803	68.88
844.973	65.71
845.144	65.4
845.314	64.59
845.484	58.41
845.654	62.09
845.824	68.56
845.995	71.11
846.165	66.97
846.335	69.41
846.505	70.09
846.675	73.09
846.845	74.63
847.015	75.58
847.185	72.19
847.355	77.78
847.525	84.87
847.695	85.18
847.865	75.48
848.035	82.49
848.205	76.93
848.375	77.13
848.545	63.25
848.715	61.37
848.884	58.44
849.054	63.65
849.224	61.58
849.394	63.41
849.564	57.81
849.733	65.08
849.903	63.26
850.073	70.76
850.243	76.18
850.412	82.78
850.582	84.87
850.752	85.34
850.921	83
851.091	90.07
851.26	95.95
851.43	103.9
851.599	101.71
851.769	101.42
851.939	93.76
852.108	93.88
852.278	97.98
852.447	89.6
852.616	90.6
852.786	88.18
852.955	82.16
853.125	82.69
853.294	83.55
853.463	80.78
853.633	87.62
853.802	90.31
853.971	96.85
854.141	101.18
854.31	102.38
854.479	99.51
854.648	104.59
854.818	98.06
854.987	89.52
855.156	86.02
855.325	91.38
855.494	88.57
855.663	89.96
855.832	79.32
856.001	86.21
856.171	89.84
856.34	86.7
856.509	87.82
856.678	98.53
856.847	106.03
857.016	103.73
857.185	96.07
857.353	96.39
857.522	99.57
857.691	102.74
857.86	101.05
858.029	91.16
858.198	107.17
858.367	105.7
858.535	103.65
858.704	91.96
858.873	88.24
859.042	96.95
859.21	99.89
859.379	97.85
859.548	87.09
859.717	87.89
859.885	95.45
860.054	81.98
860.222	75.75
860.391	80.6
860.56	83.64
860.728	81
860.897	69.44
861.065	65.17
861.234	73.35
861.402	78.84
861.571	74.5
861.739	75.34
861.908	84.92
862.076	98.14
862.244	94.02
862.413	91.4
862.581	96.41
862.749	96.73
862.918	93.17
863.086	87.58
863.254	83.38
863.423	78.81
863.591	89.45
863.759	85.19
863.927	72.66
864.096	80
864.264	83.33
864.432	80.22
864.6	80.74
864.768	83.89
864.936	90.85
865.104	90.3
865.272	97.08
865.44	95.65
865.608	85.22
865.776	90.89
865.944	92.58
866.112	95.57
866.28	98.46
866.448	101.27
866.616	95.81
866.784	91.99
866.952	95.09
867.12	92.71
867.288	90.49
867.455	94.95
867.623	96.54
867.791	84.47
867.959	82.68
868.127	76.56
868.294	82.21
868.462	80.15
868.63	73.84
868.797	78.21
868.965	77.65
869.133	72.04
869.3	74.71
869.468	72.43
869.636	70.85
869.803	74.01
869.971	91.59
870.138	88.29
870.306	86.62
870.473	94.74
870.641	91.61
870.808	85.83
870.975	92.12
871.143	90.03
871.31	88.53
871.478	107.63
871.645	98.66
871.812	89.35
871.98	87.81
872.147	92.99
872.314	89.89
872.482	83.23
872.649	84.88
872.816	86.43
872.983	82.66
873.15	87.97
873.318	86.87
873.485	98.46
873.652	95.11
873.819	106.75
873.986	109.33
874.153	112.47
874.32	116.74
874.487	124.52
874.654	120.29
874.821	131.75
874.988	121.14
875.155	110.6
875.322	104.62
875.489	113.14
875.656	93.92
875.823	88.2
875.99	79.47
876.157	85.03
876.324	84.03
876.49	76.03
876.657	75.08
876.824	88.91
876.991	92.49
877.157	90.55
877.324	98
877.491	104.45
877.658	110.45
877.824	113.52
877.991	108.1
878.157	111.11
878.324	109.91
878.491	113
878.657	121.35
878.824	117.83
878.99	115.06
879.157	109.19
879.323	100.11
879.49	92.84
879.656	91.32
879.823	90.41
879.989	82.88
880.156	82.2
880.322	75.95
880.488	67.97
880.655	72.69
880.821	76.87
880.987	77.36
881.154	77.78
881.32	85.84
881.486	86.27
881.652	83.57
881.819	82.05
881.985	78.64
882.151	78.28
882.317	70.68
882.483	64.03
882.649	63.97
882.816	61.23
882.982	58.57
883.148	55.28
883.314	52.26
883.48	54.29
883.646	52.22
883.812	51.55
883.978	50.67
884.144	52.48
884.31	51.41
884.476	50.26
884.642	51.22
884.807	52.71
884.973	52.28
885.139	51.53
885.305	50.83
885.471	52.02
885.637	52.24
885.802	51.41
885.968	50.39
886.134	52.82
886.3	51.26
886.465	50.71
886.631	50.5
886.797	51
886.962	53.13
887.128	53.31
887.293	54.36
887.459	60.23
887.625	60.06
887.79	62.33
887.956	59.15
888.121	63.46
888.287	60.76
888.452	61.38
888.618	64.16
888.783	68.38
