Data from LC_189_Reflection_3.txt Node
Date: Tue Nov 17 13:28:03 EST 2015
User: robert
Spectrometer: USB4E03001
Autoset integration time: false
Trigger mode: 4
Integration Time (sec): 1.000000E-1
Scans to average: 15
Electric dark correction enabled: true
Nonlinearity correction enabled: false
Boxcar width: 5
Stray light correction enabled: false
XAxis mode: Wavelengths
Stop averaging: false
Number of Pixels in Spectrum: 3648
>>>>>Begin Spectral Data<<<<<
177.566	55.87
177.785	38.13
178.005	21.64
178.225	138.79
178.445	-164.04
178.665	-17.78
178.885	60.87
179.105	-29.92
179.324	415.91
179.544	500.25
179.764	197.06
179.984	121.76
180.204	157.35
180.423	360.52
180.643	541.88
180.863	-2202.49
181.083	-2876.53
181.302	628.82
181.522	296.85
181.742	758.3
181.961	10634.31
182.181	-469.33
182.401	-71.11
182.621	-227.59
182.84	-193.34
183.06	-402.8
183.279	451.93
183.499	-3073.95
183.719	-280.38
183.938	-97.77
184.158	-165.97
184.377	-223.78
184.597	-199.06
184.816	264.16
185.036	258.55
185.256	311.74
185.475	216.94
185.695	266.82
185.914	174.12
186.134	203.47
186.353	129.5
186.572	130.89
186.792	114.28
187.011	114.94
187.231	338.67
187.45	811.88
187.67	196.31
187.889	232.61
188.108	184.44
188.328	190.74
188.547	183.18
188.766	-604.09
188.986	584.86
189.205	143.65
189.424	117.22
189.644	105.15
189.863	103.31
190.082	119.61
190.302	192.74
190.521	281.91
190.74	6781.82
190.959	891.67
191.178	229.01
191.398	221.82
191.617	621.42
191.836	469.12
192.055	333.52
192.274	-856.77
192.494	-464.45
192.713	-1145.43
192.932	-364.15
193.151	690.68
193.37	11480.95
193.589	-401950
193.808	12377.53
194.027	-1683.91
194.246	-834
194.465	3258.56
194.685	377.52
194.904	243.21
195.123	34850
195.342	996.15
195.561	333.92
195.78	267.61
195.999	411.75
196.218	307.25
196.436	247.3
196.655	197.68
196.874	219.25
197.093	209.94
197.312	187.04
197.531	163.25
197.75	159.06
197.969	178.24
198.188	203.24
198.407	180.88
198.625	170.06
198.844	163.18
199.063	100.87
199.282	133.65
199.501	144.03
199.719	185.77
199.938	214.36
200.157	224.34
200.376	573.79
200.594	235.76
200.813	192.49
201.032	256.08
201.251	271.89
201.469	4392.57
201.688	1232.05
201.907	-5505.08
202.125	1936.36
202.344	1798.65
202.563	1623.71
202.781	923.34
203	-1058.96
203.218	-193.97
203.437	-361.47
203.656	-244.85
203.874	-514.19
204.093	-660.37
204.311	-449.2
204.53	8627.63
204.748	-325.49
204.967	1527.81
205.185	437.6
205.404	219.98
205.622	181.08
205.841	140.11
206.059	163.09
206.278	160.6
206.496	146.97
206.715	177.04
206.933	182.37
207.151	150.69
207.37	178.42
207.588	170.65
207.806	230.16
208.025	246.04
208.243	241.48
208.461	266.36
208.68	336.21
208.898	-514.79
209.116	-869.68
209.335	2371.88
209.553	-1644.81
209.771	611.74
209.989	262.29
210.208	287.84
210.426	224.02
210.644	229.54
210.862	202.14
211.081	165.33
211.299	117.9
211.517	137.48
211.735	133.15
211.953	144.45
212.171	158.56
212.39	384.56
212.608	378.58
212.826	557
213.044	545.15
213.262	451.77
213.48	-19507.46
213.698	-1204.62
213.916	554.18
214.134	-1034.13
214.352	-276.91
214.57	-289.56
214.788	3129.68
215.006	1062.52
215.224	1037.21
215.442	647.55
215.66	696.82
215.878	441.21
216.096	198.46
216.314	228.94
216.532	152.82
216.75	121.41
216.968	141.44
217.185	153.98
217.403	154.54
217.621	144.79
217.839	151.91
218.057	167.29
218.275	159.15
218.492	155.63
218.71	162.3
218.928	185.91
219.146	190.59
219.363	183.21
219.581	154.94
219.799	161.22
220.017	164.46
220.234	168.32
220.452	113.28
220.67	110.4
220.887	145.11
221.105	140.99
221.323	116.44
221.54	127.53
221.758	118.16
221.976	119.6
222.193	107.31
222.411	101.73
222.629	100.52
222.846	124.6
223.064	101.92
223.281	102.05
223.499	117.87
223.716	124.01
223.934	121.47
224.151	127.77
224.369	114.49
224.586	117.23
224.804	114.19
225.021	126.13
225.239	102.18
225.456	111.14
225.674	92.57
225.891	80.44
226.108	92.18
226.326	82.88
226.543	68.08
226.76	81.47
226.978	84.51
227.195	78.31
227.413	65.79
227.63	67.54
227.847	66.12
228.064	62
228.282	53.33
228.499	48.67
228.716	44.26
228.934	45.65
229.151	39.25
229.368	33.79
229.585	32.6
229.802	33.76
230.02	33.74
230.237	32.55
230.454	33.54
230.671	38.11
230.888	34.34
231.105	34.66
231.323	29.93
231.54	32.9
231.757	35.02
231.974	33.74
232.191	27.97
232.408	26.77
232.625	24.51
232.842	26.46
233.059	25.68
233.276	32.75
233.493	33.87
233.71	37.01
233.927	35.27
234.144	39.05
234.361	40.39
234.578	42.76
234.795	45.69
235.012	48.27
235.229	44.64
235.446	44.18
235.663	47.68
235.879	50.82
236.096	51.73
236.313	49.85
236.53	49.19
236.747	48.08
236.964	48.9
237.181	49.08
237.397	44.47
237.614	45.47
237.831	41.02
238.048	33.88
238.264	29.18
238.481	26.49
238.698	26.89
238.915	31.52
239.131	35.56
239.348	34.83
239.565	32.56
239.781	32.92
239.998	31.54
240.215	30.79
240.431	29.92
240.648	24.73
240.865	25.32
241.081	24.97
241.298	21.71
241.514	20.77
241.731	18.78
241.947	15.7
242.164	15.7
242.38	13.52
242.597	13.83
242.814	13.51
243.03	14.87
243.246	14.54
243.463	14.26
243.679	13.02
243.896	10.84
244.112	10.55
244.329	12.1
244.545	12.84
244.762	13.11
244.978	13.12
245.194	13.36
245.411	13.29
245.627	14.14
245.843	11.71
246.06	10.5
246.276	9.39
246.492	10.09
246.709	9.97
246.925	9.71
247.141	9.75
247.357	8.7
247.574	9.25
247.79	9.17
248.006	8.21
248.222	9.58
248.439	9.5
248.655	9.72
248.871	9.94
249.087	10.13
249.303	9.93
249.519	10.4
249.736	11.97
249.952	11.46
250.168	12.21
250.384	12.71
250.6	12.5
250.816	12.16
251.032	13.4
251.248	13.25
251.464	12.77
251.68	13.46
251.896	14.61
252.112	13.48
252.328	15.37
252.544	15.34
252.76	15.09
252.976	14.15
253.192	17.5
253.408	18.65
253.624	18.24
253.84	20.27
254.056	21.38
254.272	20.41
254.487	21.8
254.703	20.41
254.919	22.46
255.135	22.75
255.351	20.7
255.567	17.18
255.782	12.9
255.998	12.4
256.214	10.61
256.43	11
256.646	12.95
256.861	11.15
257.077	12.74
257.293	12.84
257.508	14.18
257.724	16.26
257.94	14.42
258.155	17.28
258.371	17.35
258.587	15.67
258.802	13.98
259.018	12.39
259.234	11.65
259.449	10.84
259.665	9.7
259.88	9.13
260.096	9.33
260.312	9.58
260.527	8.46
260.743	8.21
260.958	8.07
261.174	9.03
261.389	8.39
261.605	9.28
261.82	9.57
262.036	10.87
262.251	11.67
262.466	10.27
262.682	12.45
262.897	13.3
263.113	13.97
263.328	14.95
263.543	14.48
263.759	17.2
263.974	16.34
264.189	15.31
264.405	15.4
264.62	16.46
264.835	17.53
265.051	16.23
265.266	16.52
265.481	16.57
265.696	18.98
265.912	18.78
266.127	17.46
266.342	16.23
266.557	15.9
266.773	16.1
266.988	14.55
267.203	14.65
267.418	14.85
267.633	15.77
267.848	15.1
268.064	11.72
268.279	10.67
268.494	10.1
268.709	10.88
268.924	11.67
269.139	9.93
269.354	11.36
269.569	12.09
269.784	10.38
269.999	9.05
270.214	9.52
270.429	11.87
270.644	12.5
270.859	13.27
271.074	13.74
271.289	14.37
271.504	13.39
271.719	12.31
271.934	11.15
272.149	11.95
272.363	13.56
272.578	12.93
272.793	12.09
273.008	11.63
273.223	11.86
273.438	11.8
273.653	11.69
273.867	13.13
274.082	13.41
274.297	13.05
274.512	13.76
274.726	12.37
274.941	11.76
275.156	13.38
275.371	12.93
275.585	13.47
275.8	15.79
276.015	15.62
276.229	15.39
276.444	12.66
276.659	15.61
276.873	13.75
277.088	13.69
277.302	14.74
277.517	13.61
277.732	13.29
277.946	12.31
278.161	11.57
278.375	10.35
278.59	10.22
278.804	11.8
279.019	9.22
279.233	9.69
279.448	9.01
279.662	8.93
279.877	8.79
280.091	8.7
280.306	8.76
280.52	7.68
280.735	8.89
280.949	8.31
281.163	8.75
281.378	9.99
281.592	10.38
281.806	10.4
282.021	10.53
282.235	10.86
282.449	12.57
282.664	13.61
282.878	13.91
283.092	13.46
283.307	14.71
283.521	14.91
283.735	12.49
283.949	11.65
284.164	12.2
284.378	12.4
284.592	11.89
284.806	11.27
285.02	10.58
285.234	9.53
285.449	9.22
285.663	8.22
285.877	8.79
286.091	9.94
286.305	10.07
286.519	9.88
286.733	10.11
286.947	10.36
287.161	9.45
287.375	9.27
287.589	10.3
287.803	10.02
288.017	10.23
288.231	9.52
288.445	9.92
288.659	10.27
288.873	9.31
289.087	9.24
289.301	9.13
289.515	9.94
289.729	10.81
289.943	9.87
290.157	10.57
290.371	9.45
290.584	9.71
290.798	9.98
291.012	11.28
291.226	11.85
291.44	12
291.654	12.81
291.867	12.74
292.081	11.38
292.295	11.04
292.509	9.87
292.722	11.18
292.936	10.93
293.15	10.61
293.364	9.71
293.577	10.33
293.791	9.58
294.005	8.65
294.218	8.79
294.432	9.3
294.645	10.23
294.859	11.12
295.073	10.67
295.286	11.32
295.5	11.21
295.713	10.56
295.927	10.45
296.14	11.4
296.354	10.92
296.568	11.06
296.781	11.58
296.994	11.57
297.208	11.56
297.421	11.86
297.635	11.78
297.848	11.22
298.062	12.02
298.275	11.83
298.489	10.96
298.702	12.45
298.915	12.47
299.129	12.31
299.342	12.86
299.555	12.53
299.769	12.7
299.982	13.17
300.195	13.95
300.409	12.47
300.622	12.51
300.835	13.45
301.048	11.52
301.262	11.18
301.475	11.37
301.688	11.58
301.901	12.22
302.115	13.2
302.328	12.64
302.541	12.79
302.754	13.35
302.967	14.12
303.18	14.31
303.393	14.65
303.607	14.9
303.82	15.19
304.033	13.79
304.246	14.41
304.459	13.36
304.672	13.01
304.885	13.43
305.098	13.55
305.311	13.62
305.524	13.34
305.737	13.83
305.95	14.86
306.163	12.87
306.376	13.81
306.589	13.43
306.802	13.01
307.015	13.39
307.228	14.04
307.44	13.64
307.653	13.19
307.866	14.03
308.079	14.2
308.292	13.21
308.505	14.53
308.718	13.77
308.93	13.1
309.143	13.22
309.356	12.43
309.569	11.89
309.781	12.63
309.994	11.51
310.207	10.66
310.42	9.68
310.632	9.11
310.845	9.26
311.058	9.08
311.27	8.17
311.483	8.75
311.696	9.4
311.908	9.05
312.121	8.8
312.333	9.74
312.546	9.81
312.759	10.58
312.971	11.85
313.184	11.75
313.396	12.2
313.609	13.69
313.821	14.41
314.034	15.1
314.246	15.72
314.459	15.75
314.671	16.69
314.884	17.07
315.096	18
315.309	17.95
315.521	18.03
315.733	18.03
315.946	17.75
316.158	17.64
316.371	16.55
316.583	16.64
316.795	17.74
317.008	17.6
317.22	16.86
317.432	16.4
317.644	15.42
317.857	16.71
318.069	18.33
318.281	19.63
318.494	19.22
318.706	19.19
318.918	19.52
319.13	20.46
319.342	20.45
319.555	20.99
319.767	21.01
319.979	21.58
320.191	21.68
320.403	21.7
320.615	21.24
320.827	20.88
321.039	22.43
321.252	21.77
321.464	20.66
321.676	21.18
321.888	21.41
322.1	22.22
322.312	22.27
322.524	22.11
322.736	21.77
322.948	22.58
323.16	22.17
323.372	20.98
323.584	21.85
323.796	23.51
324.007	22.69
324.219	24.11
324.431	24.12
324.643	24.49
324.855	24.21
325.067	24.35
325.279	23.25
325.491	24.44
325.702	24.69
325.914	24.13
326.126	22.67
326.338	23.05
326.55	21.82
326.761	21.43
326.973	22.07
327.185	21.85
327.396	21.96
327.608	22.9
327.82	22.58
328.032	24.21
328.243	24.44
328.455	25.23
328.666	25.69
328.878	26.96
329.09	27.65
329.301	27.07
329.513	28.39
329.725	29.23
329.936	28.86
330.148	30.43
330.359	30.53
330.571	31.39
330.782	31.95
330.994	33.14
331.205	32.41
331.417	32.93
331.628	34.26
331.84	34.51
332.051	33.86
332.262	35
332.474	34.48
332.685	34
332.897	34
333.108	33.96
333.319	32.62
333.531	33.59
333.742	33.09
333.953	31.9
334.165	31.02
334.376	31.11
334.587	31.04
334.799	31.04
335.01	32.16
335.221	31.93
335.432	30.71
335.644	31.69
335.855	31.03
336.066	31.13
336.277	32.39
336.488	33.74
336.7	33.83
336.911	33.37
337.122	33.11
337.333	32.43
337.544	33.6
337.755	34.22
337.966	33.9
338.177	34.57
338.388	34.11
338.599	33.8
338.811	33.48
339.022	33.52
339.233	32.84
339.444	32.46
339.655	32.68
339.866	31.81
340.076	31.92
340.287	32.27
340.498	31.99
340.709	32.8
340.92	32.43
341.131	32.28
341.342	32.63
341.553	33.91
341.764	34.83
341.975	35.15
342.185	34.58
342.396	34.84
342.607	35.1
342.818	36.03
343.029	36.14
343.239	36.41
343.45	36.42
343.661	36.26
343.872	36.41
344.082	36.69
344.293	36.05
344.504	37.45
344.714	37.17
344.925	36.24
345.136	34.59
345.346	34.51
345.557	34.64
345.768	34.73
345.978	35.23
346.189	34.62
346.399	33.77
346.61	33.58
346.821	32.63
347.031	32.99
347.242	33.74
347.452	34.97
347.663	34.62
347.873	34.45
348.084	33.87
348.294	34.05
348.504	34.2
348.715	34.75
348.925	34.53
349.136	33.97
349.346	33.61
349.557	32.98
349.767	32.68
349.977	32.57
350.188	32.96
350.398	33.42
350.608	32.59
350.819	32.56
351.029	32.03
351.239	33.79
351.449	34.69
351.66	35.13
351.87	36.06
352.08	35.22
352.29	35.7
352.501	35.03
352.711	35.38
352.921	35.71
353.131	35.97
353.341	36.14
353.552	34.84
353.762	34.37
353.972	33.59
354.182	33.85
354.392	34.56
354.602	34.62
354.812	34.91
355.022	34.3
355.232	33.32
355.442	32.84
355.652	32.54
355.862	32.51
356.072	32.81
356.282	33.35
356.492	31.89
356.702	31.92
356.912	31.53
357.122	31.68
357.332	31.79
357.542	32.6
357.752	32.75
357.962	33.56
358.171	33.31
358.381	33.02
358.591	32.51
358.801	33.14
359.011	32.74
359.221	33.24
359.43	32.92
359.64	32.69
359.85	32.35
360.06	32.21
360.269	31.86
360.479	31.95
360.689	32
360.899	32.17
361.108	32.2
361.318	32.08
361.528	31.82
361.737	31.58
361.947	31.87
362.156	31.83
362.366	31.71
362.576	31.25
362.785	31.42
362.995	31.13
363.204	31.06
363.414	31.21
363.623	31.59
363.833	30.96
364.042	30.89
364.252	30.32
364.461	30.35
364.671	30.3
364.88	30.34
365.09	30
365.299	30.41
365.509	30.57
365.718	30.4
365.927	29.95
366.137	30.91
366.346	31.51
366.555	31.64
366.765	31.42
366.974	31.38
367.183	31.47
367.393	31.38
367.602	31.21
367.811	30.99
368.021	30.26
368.23	30.4
368.439	29.72
368.648	29.19
368.857	28.97
369.067	29.08
369.276	29.11
369.485	29.47
369.694	29.3
369.903	29.25
370.112	29.06
370.321	29.64
370.531	29.35
370.74	29.53
370.949	28.86
371.158	29.37
371.367	28.97
371.576	29.5
371.785	29.11
371.994	29.28
372.203	28.94
372.412	29
372.621	29
372.83	28.94
373.039	28.87
373.248	29.27
373.457	28.95
373.666	28.74
373.874	27.81
374.083	27.51
374.292	27.32
374.501	28.05
374.71	28.64
374.919	28.71
375.128	28.88
375.336	28.89
375.545	29.14
375.754	28.39
375.963	28.4
376.171	28.74
376.38	29.3
376.589	29.57
376.798	28.79
377.006	28.35
377.215	28.47
377.424	28.14
377.632	27.61
377.841	27.39
378.05	28.11
378.258	28.13
378.467	27.92
378.675	27.35
378.884	27.16
379.093	27.43
379.301	27.39
379.51	27.27
379.718	27.58
379.927	27.68
380.135	27.69
380.344	27.34
380.552	27.21
380.761	27.54
380.969	27.85
381.177	27.87
381.386	27.32
381.594	27.25
381.803	26.64
382.011	26.31
382.219	26.07
382.428	26.22
382.636	26.29
382.845	26.19
383.053	25.92
383.261	25.3
383.469	25.25
383.678	25.9
383.886	25.25
384.094	25.09
384.302	25.15
384.511	25.48
384.719	25.46
384.927	25.46
385.135	25.83
385.343	25.65
385.552	26
385.76	25.7
385.968	25.06
386.176	25.43
386.384	25.57
386.592	25.45
386.8	25.28
387.008	24.66
387.216	24.51
387.424	24.32
387.633	24.36
387.841	24.22
388.049	24.5
388.257	24.89
388.465	24.66
388.672	24.69
388.88	24.62
389.088	24.79
389.296	25.07
389.504	25.26
389.712	25.36
389.92	25.18
390.128	25.17
390.336	24.87
390.544	24.72
390.751	24.74
390.959	24.62
391.167	24.4
391.375	24.37
391.583	24.18
391.79	23.79
391.998	23.82
392.206	23.86
392.414	23.48
392.621	23.35
392.829	23.2
393.037	23.39
393.244	23.25
393.452	23.22
393.66	22.92
393.867	22.89
394.075	23.09
394.283	22.68
394.49	22.53
394.698	22.81
394.905	22.97
395.113	22.99
395.32	22.3
395.528	22.56
395.735	22.71
395.943	22.55
396.15	22.47
396.358	22.56
396.565	22.46
396.773	22.41
396.98	22.29
397.188	22.19
397.395	22.25
397.602	22.59
397.81	22.4
398.017	22.11
398.225	22.26
398.432	22.39
398.639	22.21
398.847	22.43
399.054	22.37
399.261	22.27
399.468	22.05
399.676	21.86
399.883	21.89
400.09	21.89
400.297	22.49
400.505	22.15
400.712	22.03
400.919	21.82
401.126	21.88
401.333	21.99
401.54	22.12
401.748	22.04
401.955	22.17
402.162	22.14
402.369	21.95
402.576	21.57
402.783	21.51
402.99	21.21
403.197	21.43
403.404	21.12
403.611	20.94
403.818	20.61
404.025	20.58
404.232	19.98
404.439	19.78
404.646	19.81
404.853	19.65
405.06	20.02
405.267	20.4
405.474	19.82
405.681	19.78
405.887	20.03
406.094	20.29
406.301	20.35
406.508	20.65
406.715	21.06
406.922	21.08
407.128	21.3
407.335	21.15
407.542	20.77
407.749	21.21
407.955	21.64
408.162	21.34
408.369	21.32
408.575	21.37
408.782	21.4
408.989	21.16
409.195	20.96
409.402	20.74
409.609	20.68
409.815	20.76
410.022	20.57
410.228	20.28
410.435	20.26
410.642	20.18
410.848	20.14
411.055	20.02
411.261	19.83
411.468	19.85
411.674	19.71
411.881	19.61
412.087	19.68
412.294	19.7
412.5	19.61
412.706	19.75
412.913	19.55
413.119	19.8
413.326	19.86
413.532	19.97
413.738	19.92
413.945	19.84
414.151	19.87
414.357	19.76
414.564	19.78
414.77	19.67
414.976	19.67
415.182	19.63
415.389	19.3
415.595	19.13
415.801	18.9
416.007	19.12
416.214	19.14
416.42	19.11
416.626	19.15
416.832	19.15
417.038	19.13
417.244	18.72
417.45	18.86
417.657	18.74
417.863	18.72
418.069	18.66
418.275	18.22
418.481	18.24
418.687	18.07
418.893	17.92
419.099	17.91
419.305	18.01
419.511	18.16
419.717	17.99
419.923	18.03
420.129	18.01
420.335	18.09
420.541	18.13
420.746	17.96
420.952	18.05
421.158	18.1
421.364	18.05
421.57	18
421.776	17.95
421.982	17.85
422.187	17.75
422.393	17.64
422.599	17.49
422.805	17.43
423.01	17.49
423.216	17.47
423.422	17.48
423.628	17.37
423.833	17.28
424.039	17.05
424.245	17.01
424.45	16.98
424.656	17.12
424.862	17.15
425.067	17.17
425.273	17.17
425.478	17.15
425.684	16.87
425.889	17.1
426.095	17.17
426.301	17.32
426.506	17.52
426.712	17.5
426.917	17.4
427.123	17.4
427.328	17.53
427.533	17.56
427.739	17.34
427.944	17.49
428.15	17.14
428.355	17.14
428.561	17.24
428.766	17.05
428.971	17.18
429.177	17.28
429.382	17.43
429.587	17.46
429.793	17.53
429.998	17.65
430.203	17.7
430.408	17.84
430.614	17.68
430.819	17.6
431.024	17.51
431.229	17.62
431.434	17.56
431.64	17.63
431.845	17.61
432.05	17.66
432.255	17.71
432.46	17.76
432.665	17.73
432.87	17.76
433.076	17.82
433.281	17.96
433.486	17.79
433.691	17.68
433.896	17.49
434.101	17.49
434.306	17.32
434.511	17.35
434.716	17.21
434.921	17.21
435.126	17.24
435.331	17.2
435.535	17.22
435.74	17.51
435.945	17.68
436.15	17.67
436.355	17.68
436.56	17.67
436.765	17.89
436.97	18.05
437.174	17.84
437.379	17.85
437.584	17.99
437.789	18.02
437.993	17.86
438.198	17.77
438.403	17.69
438.608	17.62
438.812	17.56
439.017	17.42
439.222	17.43
439.426	17.45
439.631	17.32
439.836	17.19
440.04	16.98
440.245	16.8
440.45	16.76
440.654	16.82
440.859	16.74
441.063	16.69
441.268	16.58
441.472	16.57
441.677	16.8
441.881	16.88
442.086	16.96
442.29	17.09
442.495	17.24
442.699	17.26
442.904	17.31
443.108	17.38
443.312	17.5
443.517	17.64
443.721	17.7
443.925	17.47
444.13	17.39
444.334	17.29
444.538	17.38
444.743	17.33
444.947	17.35
445.151	17.18
445.356	17.18
445.56	17.2
445.764	17.08
445.968	16.99
446.173	17.01
446.377	16.9
446.581	16.95
446.785	16.88
446.989	16.85
447.193	16.91
447.398	17.06
447.602	17.06
447.806	17.06
448.01	17
448.214	17.05
448.418	17
448.622	17.03
448.826	17.02
449.03	17.03
449.234	17.15
449.438	16.92
449.642	16.98
449.846	16.87
450.05	16.79
450.254	16.71
450.458	16.63
450.662	16.64
450.866	16.72
451.069	16.69
451.273	16.48
451.477	16.29
451.681	16.46
451.885	16.3
452.089	16.33
452.292	16.29
452.496	16.3
452.7	16.32
452.904	16.31
453.107	16.3
453.311	16.35
453.515	16.49
453.719	16.68
453.922	16.56
454.126	16.47
454.33	16.57
454.533	16.56
454.737	16.59
454.94	16.41
455.144	16.33
455.348	16.42
455.551	16.27
455.755	16.29
455.958	16.08
456.162	16
456.365	16.08
456.569	16
456.772	16.21
456.976	16.39
457.179	16.67
457.383	16.75
457.586	16.86
457.79	16.94
457.993	16.91
458.196	16.98
458.4	17.26
458.603	17.35
458.807	17.27
459.01	17.21
459.213	17.27
459.417	17.17
459.62	17.17
459.823	16.96
460.026	16.82
460.23	16.85
460.433	16.82
460.636	16.67
460.839	16.68
461.042	16.79
461.246	16.73
461.449	16.59
461.652	16.7
461.855	16.73
462.058	16.86
462.261	16.92
462.464	16.9
462.668	16.81
462.871	16.72
463.074	16.6
463.277	16.39
463.48	16.58
463.683	16.68
463.886	16.65
464.089	16.69
464.292	16.62
464.495	16.72
464.698	16.69
464.901	16.92
465.104	17.06
465.306	17.17
465.509	17.27
465.712	16.96
465.915	16.99
466.118	16.94
466.321	16.88
466.524	16.79
466.726	16.85
466.929	17.04
467.132	16.96
467.335	16.99
467.538	16.85
467.74	16.83
467.943	17.05
468.146	16.99
468.348	16.84
468.551	16.85
468.754	17.22
468.956	17.15
469.159	16.9
469.362	16.88
469.564	16.88
469.767	17.1
469.969	17.21
470.172	17.29
470.375	17.21
470.577	17.25
470.78	17.27
470.982	17.03
471.185	17.07
471.387	17.34
471.59	17.41
471.792	17.26
471.995	17.22
472.197	17.08
472.399	16.86
472.602	17.1
472.804	17.29
473.007	17.21
473.209	17.17
473.411	17.06
473.614	16.87
473.816	16.92
474.018	17.17
474.22	17.12
474.423	17.29
474.625	17.47
474.827	17.1
475.03	17.12
475.232	17.22
475.434	17.23
475.636	17.47
475.838	17.64
476.04	17.55
476.243	17.53
476.445	17.43
476.647	17.52
476.849	17.42
477.051	17.52
477.253	17.43
477.455	17.44
477.657	17.43
477.859	17.32
478.061	17.18
478.263	17.27
478.465	17.13
478.667	17.26
478.869	17.12
479.071	17.21
479.273	17.3
479.475	17.26
479.677	17.32
479.879	17.22
480.081	17.18
480.283	17.17
480.485	17.08
480.686	17.11
480.888	17.04
481.09	17.07
481.292	16.74
481.494	16.63
481.695	16.63
481.897	16.46
482.099	16.47
482.301	16.46
482.502	16.47
482.704	16.44
482.906	16.46
483.107	16.41
483.309	16.36
483.511	16.41
483.712	16.38
483.914	16.32
484.115	16.32
484.317	16.31
484.519	16.27
484.72	16.28
484.922	16.25
485.123	16.17
485.325	16.14
485.526	16.16
485.728	16.17
485.929	16.21
486.131	16.26
486.332	16.29
486.534	16.31
486.735	16.32
486.936	16.3
487.138	16.32
487.339	16.39
487.541	16.43
487.742	16.45
487.943	16.46
488.144	16.41
488.346	16.43
488.547	16.49
488.748	16.54
488.95	16.58
489.151	16.64
489.352	16.69
489.553	16.72
489.755	16.75
489.956	16.67
490.157	16.63
490.358	16.78
490.559	16.81
490.76	16.72
490.961	16.67
491.163	16.71
491.364	16.64
491.565	16.61
491.766	16.57
491.967	16.6
492.168	16.68
492.369	16.76
492.57	16.76
492.771	16.79
492.972	16.96
493.173	17.05
493.374	17.05
493.575	17.15
493.776	17.25
493.976	17.28
494.177	17.3
494.378	17.35
494.579	17.39
494.78	17.4
494.981	17.34
495.182	17.15
495.382	17.22
495.583	17.3
495.784	17.39
495.985	17.41
496.185	17.53
496.386	17.55
496.587	17.61
496.788	17.77
496.988	17.69
497.189	17.7
497.39	17.89
497.59	17.81
497.791	17.85
497.992	17.87
498.192	17.78
498.393	17.76
498.593	17.78
498.794	17.72
498.994	17.6
499.195	17.6
499.395	17.81
499.596	17.86
499.796	17.87
499.997	17.88
500.197	17.75
500.398	17.92
500.598	18.07
500.799	18.23
500.999	18.38
501.199	18.34
501.4	18.59
501.6	18.46
501.801	18.49
502.001	18.56
502.201	18.8
502.402	18.99
502.602	18.97
502.802	18.99
503.002	19.04
503.203	19.22
503.403	19.37
503.603	19.44
503.803	19.55
504.003	19.42
504.204	19.51
504.404	19.62
504.604	19.6
504.804	19.89
505.004	20.06
505.204	20.05
505.404	20.08
505.604	20.14
505.804	20.18
506.005	20.3
506.205	20.45
506.405	20.53
506.605	20.45
506.805	20.67
507.005	20.72
507.204	20.65
507.404	20.7
507.604	20.78
507.804	20.98
508.004	21.23
508.204	21.29
508.404	21.46
508.604	21.65
508.804	21.86
509.003	21.99
509.203	22.15
509.403	22.34
509.603	22.56
509.803	22.67
510.002	22.76
510.202	22.73
510.402	22.89
510.602	22.94
510.801	23.02
511.001	23
511.201	23
511.4	22.93
511.6	23.08
511.8	23.12
511.999	23.34
512.199	23.39
512.398	23.54
512.598	23.74
512.797	23.87
512.997	23.86
513.197	24.01
513.396	24.3
513.596	24.47
513.795	24.7
513.994	24.85
514.194	24.91
514.393	25.21
514.593	25.33
514.792	25.51
514.992	25.82
515.191	26.26
515.39	26.38
515.59	26.3
515.789	26.54
515.988	26.56
516.188	26.85
516.387	26.96
516.586	26.91
516.786	27.16
516.985	27.2
517.184	27.25
517.383	27.44
517.582	27.61
517.782	27.83
517.981	27.85
518.18	27.96
518.379	27.97
518.578	28.08
518.777	28.2
518.976	28.27
519.176	28.48
519.375	28.59
519.574	28.54
519.773	28.66
519.972	28.72
520.171	28.88
520.37	28.99
520.569	29.18
520.768	29.34
520.967	29.51
521.166	29.64
521.365	29.54
521.564	29.62
521.762	29.84
521.961	29.92
522.16	30.17
522.359	30.38
522.558	30.45
522.757	30.58
522.956	30.79
523.154	30.98
523.353	30.96
523.552	31.2
523.751	31.42
523.949	31.45
524.148	31.63
524.347	31.7
524.546	31.76
524.744	32.01
524.943	32.13
525.142	32.1
525.34	32.16
525.539	32.33
525.737	32.36
525.936	32.51
526.135	32.61
526.333	32.67
526.532	32.81
526.73	32.96
526.929	33.04
527.127	33.2
527.326	33.26
527.524	33.32
527.723	33.33
527.921	33.46
528.12	33.48
528.318	33.52
528.516	33.56
528.715	33.57
528.913	33.6
529.112	33.6
529.31	33.61
529.508	33.72
529.707	33.79
529.905	33.98
530.103	34.01
530.301	34.04
530.5	34.1
530.698	34.28
530.896	34.42
531.094	34.55
531.293	34.74
531.491	34.91
531.689	34.98
531.887	35.1
532.085	35.18
532.283	35.4
532.481	35.6
532.68	35.69
532.878	35.75
533.076	35.78
533.274	35.93
533.472	36.01
533.67	35.96
533.868	36.16
534.066	36.3
534.264	36.33
534.462	36.32
534.66	36.38
534.858	36.51
535.056	36.49
535.253	36.66
535.451	36.63
535.649	36.72
535.847	36.96
536.045	36.91
536.243	37.01
536.441	37.15
536.638	37.29
536.836	37.32
537.034	37.45
537.232	37.66
537.43	37.76
537.627	37.93
537.825	37.91
538.023	37.87
538.22	38.01
538.418	37.93
538.616	37.89
538.813	37.94
539.011	38.23
539.209	38.24
539.406	38.27
539.604	38.21
539.801	38.1
539.999	38.23
540.196	38.31
540.394	38.28
540.591	38.3
540.789	38.37
540.986	38.43
541.184	38.27
541.381	38.32
541.579	38.27
541.776	38.32
541.974	38.39
542.171	38.4
542.368	38.33
542.566	38.37
542.763	38.42
542.96	38.41
543.158	38.26
543.355	38.31
543.552	38.31
543.75	38.4
543.947	38.49
544.144	38.58
544.341	38.66
544.539	38.85
544.736	38.93
544.933	39.01
545.13	39
545.327	39.37
545.524	39.48
545.722	39.6
545.919	39.64
546.116	39.71
546.313	39.69
546.51	39.66
546.707	39.81
546.904	39.86
547.101	39.98
547.298	40.03
547.495	39.88
547.692	39.94
547.889	39.86
548.086	40.05
548.283	40.01
548.48	40.11
548.677	40.16
548.874	40.09
549.07	40.04
549.267	40.16
549.464	40.42
549.661	40.57
549.858	40.68
550.055	40.78
550.251	40.71
550.448	40.79
550.645	40.89
550.842	41.11
551.038	41.35
551.235	41.54
551.432	41.5
551.628	41.52
551.825	41.72
552.022	41.64
552.218	41.7
552.415	41.75
552.612	41.86
552.808	41.71
553.005	41.66
553.201	41.41
553.398	41.37
553.594	41.49
553.791	41.56
553.987	41.3
554.184	41.36
554.38	41.48
554.577	41.5
554.773	41.61
554.97	41.89
555.166	42.1
555.362	42.33
555.559	42.46
555.755	42.47
555.952	42.44
556.148	42.89
556.344	43.11
556.541	43.07
556.737	43.25
556.933	43.27
557.129	43.49
557.326	43.43
557.522	43.61
557.718	43.68
557.914	43.6
558.11	43.58
558.307	43.37
558.503	43.38
558.699	43.7
558.895	43.69
559.091	43.79
559.287	43.49
559.483	43.45
559.679	43.35
559.876	43.25
560.072	43.41
560.268	43.53
560.464	43.74
560.66	43.57
560.856	43.51
561.052	43.58
561.247	43.59
561.443	43.63
561.639	43.7
561.835	43.62
562.031	43.79
562.227	43.78
562.423	43.94
562.619	43.77
562.815	44.04
563.01	44.12
563.206	44.05
563.402	43.81
563.598	43.79
563.793	43.86
563.989	44.08
564.185	44.14
564.381	44.04
564.576	44.1
564.772	44.06
564.968	44.01
565.163	43.86
565.359	43.77
565.555	43.84
565.75	44.1
565.946	44.09
566.141	43.91
566.337	43.95
566.532	44.11
566.728	44.03
566.923	44.33
567.119	44.41
567.314	44.5
567.51	44.78
567.705	44.89
567.901	44.8
568.096	44.78
568.292	44.96
568.487	44.84
568.682	44.99
568.878	45.16
569.073	44.98
569.268	44.91
569.464	45
569.659	44.97
569.854	45
570.05	44.78
570.245	44.79
570.44	44.88
570.635	45.04
570.831	45.1
571.026	45.05
571.221	45.06
571.416	45.17
571.611	45.13
571.806	45.08
572.002	45.19
572.197	45.34
572.392	45.38
572.587	45.42
572.782	45.39
572.977	45.32
573.172	45.21
573.367	45.34
573.562	45.29
573.757	45.41
573.952	45.39
574.147	45.5
574.342	45.52
574.537	45.72
574.732	45.47
574.927	45.62
575.121	45.6
575.316	45.74
575.511	45.69
575.706	45.77
575.901	45.82
576.096	45.78
576.29	45.56
576.485	45.69
576.68	45.69
576.875	45.89
577.069	45.78
577.264	45.74
577.459	45.83
577.654	46.05
577.848	46
578.043	45.98
578.238	46.08
578.432	46.19
578.627	46.12
578.821	46.08
579.016	46.22
579.21	46.38
579.405	46.53
579.6	46.52
579.794	46.49
579.989	46.58
580.183	46.67
580.378	46.88
580.572	46.95
580.766	47.07
580.961	46.96
581.155	47.05
581.35	47.17
581.544	47.36
581.738	47.32
581.933	47.25
582.127	47.35
582.321	47.21
582.516	47.17
582.71	47.11
582.904	47.41
583.099	47.6
583.293	47.48
583.487	47.41
583.681	47.09
583.875	47.38
584.07	47.63
584.264	47.78
584.458	48.09
584.652	48.18
584.846	48.36
585.04	48.26
585.234	48.43
585.428	48.7
585.623	48.72
585.817	48.93
586.011	48.79
586.205	48.68
586.399	48.66
586.593	48.37
586.787	48.65
586.981	48.63
587.174	48.78
587.368	48.92
587.562	48.86
587.756	48.81
587.95	48.91
588.144	48.77
588.338	48.86
588.532	48.6
588.725	48.99
588.919	48.75
589.113	48.67
589.307	48.38
589.501	48.36
589.694	48.45
589.888	48.45
590.082	48.53
590.275	48.71
590.469	48.66
590.663	48.72
590.856	48.39
591.05	48.52
591.244	48.77
591.437	48.87
591.631	48.71
591.824	48.8
592.018	48.83
592.212	48.75
592.405	48.72
592.599	48.77
592.792	49.09
592.986	49.37
593.179	49.53
593.372	49.33
593.566	49.51
593.759	49.84
593.953	49.87
594.146	49.88
594.339	50.04
594.533	50.17
594.726	50.2
594.92	50.12
595.113	49.97
595.306	49.64
595.499	49.81
595.693	49.69
595.886	49.54
596.079	49.23
596.272	49.12
596.466	48.98
596.659	48.94
596.852	48.76
597.045	48.75
597.238	48.79
597.431	48.85
597.624	49.03
597.818	49.04
598.011	49.06
598.204	49.24
598.397	49.46
598.59	49.48
598.783	49.54
598.976	49.85
599.169	49.81
599.362	50.04
599.555	50.2
599.748	50.15
599.941	50.26
600.134	50.34
600.326	50.41
600.519	50.38
600.712	50.38
600.905	50.27
601.098	50.43
601.291	50.43
601.483	50.26
601.676	50.17
601.869	50.19
602.062	50.08
602.255	49.82
602.447	49.88
602.64	49.83
602.833	49.78
603.025	49.86
603.218	49.72
603.411	49.77
603.603	49.75
603.796	49.73
603.989	49.52
604.181	49.55
604.374	49.69
604.566	49.49
604.759	49.6
604.951	49.78
605.144	49.8
605.336	49.8
605.529	49.77
605.721	49.96
605.914	49.99
606.106	50.1
606.299	50.2
606.491	50.25
606.683	50.67
606.876	50.89
607.068	50.97
607.26	51.24
607.453	51.31
607.645	51.51
607.837	51.33
608.03	51.54
608.222	51.56
608.414	51.56
608.606	51.43
608.799	51.25
608.991	50.97
609.183	50.77
609.375	50.63
609.567	50.81
609.759	50.78
609.952	50.74
610.144	50.4
610.336	50.19
610.528	50.2
610.72	50.39
610.912	50.31
611.104	50.33
611.296	50.48
611.488	50.71
611.68	50.55
611.872	50.6
612.064	50.81
612.256	51.18
612.448	51.45
612.64	51.41
612.832	51.4
613.023	51.7
613.215	51.86
613.407	52.01
613.599	51.65
613.791	51.81
613.983	51.76
614.174	51.83
614.366	51.74
614.558	52.05
614.75	52.1
614.941	52.41
615.133	52.05
615.325	51.78
615.516	51.68
615.708	51.87
615.9	52.06
616.091	52.09
616.283	51.92
616.475	52.04
616.666	51.49
616.858	51.89
617.049	51.72
617.241	51.82
617.432	52.07
617.624	52.03
617.815	51.77
618.007	51.46
618.198	51.74
618.39	51.79
618.581	51.7
618.773	51.96
618.964	51.7
619.155	51.62
619.347	51.74
619.538	51.62
619.729	51.65
619.921	51.76
620.112	51.44
620.303	50.96
620.494	51.01
620.686	51.23
620.877	51.2
621.068	51.45
621.259	51.25
621.451	51.35
621.642	51.96
621.833	51.85
622.024	52.22
622.215	52.52
622.406	52.71
622.597	52.68
622.788	52.6
622.98	52.61
623.171	52.69
623.362	52.92
623.553	52.97
623.744	52.81
623.935	53.15
624.126	52.91
624.317	52.79
624.508	52.79
624.698	52.5
624.889	52.36
625.08	52.47
625.271	52.12
625.462	51.98
625.653	51.93
625.844	51.56
626.034	51.26
626.225	51.13
626.416	51.18
626.607	51.33
626.798	51.46
626.988	51.38
627.179	51.38
627.37	51.12
627.56	51.1
627.751	50.97
627.942	51.02
628.132	51.18
628.323	51.45
628.514	51.63
628.704	51.59
628.895	51.68
629.085	52.02
629.276	51.76
629.466	52.29
629.657	52.31
629.847	52.23
630.038	52.11
630.228	52.17
630.419	51.97
630.609	51.64
630.8	51.69
630.99	51.6
631.181	51.41
631.371	51.57
631.561	51.49
631.752	51.72
631.942	52.17
632.132	52.36
632.323	52.31
632.513	52.37
632.703	52.63
632.893	52.55
633.084	52.75
633.274	52.89
633.464	53.01
633.654	52.91
633.844	52.63
634.034	52.35
634.225	52.54
634.415	52.43
634.605	52.57
634.795	52.66
634.985	52.9
635.175	52.83
635.365	52.71
635.555	52.81
635.745	52.88
635.935	53.11
636.125	53.32
636.315	53.36
636.505	53.43
636.695	53.25
636.885	53.02
637.075	52.81
637.265	53.05
637.455	53.46
637.644	53.43
637.834	53.45
638.024	53.28
638.214	53
638.404	52.66
638.593	52.54
638.783	52.68
638.973	52.81
639.163	52.77
639.352	52.76
639.542	52.24
639.732	52.32
639.921	52.09
640.111	52.18
640.301	52.6
640.49	52.99
640.68	53.56
640.87	53.29
641.059	53.29
641.249	53.16
641.438	52.86
641.628	52.98
641.817	52.85
642.007	52.99
642.196	53.05
642.386	52.68
642.575	52.58
642.764	52.28
642.954	52.69
643.143	52.78
643.333	53.29
643.522	53.32
643.711	53.43
643.901	53.52
644.09	53.45
644.279	53.64
644.469	54.03
644.658	54.14
644.847	53.65
645.036	53.67
645.226	53.63
645.415	53.27
645.604	53.33
645.793	53.06
645.982	52.87
646.171	52.86
646.361	52.72
646.55	52.18
646.739	52.22
646.928	52.62
647.117	52.4
647.306	52.53
647.495	52.84
647.684	52.84
647.873	53.16
648.062	53.31
648.251	53.43
648.44	52.96
648.629	53.16
648.818	52.89
649.007	52.77
649.196	52.59
649.384	52.32
649.573	52.05
649.762	52.05
649.951	51.69
650.14	51.87
650.328	51.99
650.517	52.31
650.706	52.3
650.895	52.38
651.083	52.7
651.272	53.09
651.461	53.24
651.65	53.35
651.838	53.52
652.027	53.69
652.216	53.45
652.404	53.41
652.593	53.73
652.781	53.89
652.97	54.03
653.158	53.73
653.347	53.84
653.535	54.04
653.724	54.22
653.912	54.12
654.101	54.29
654.289	54.25
654.478	54.27
654.666	54.25
654.855	54.12
655.043	53.71
655.231	53.88
655.42	53.58
655.608	53.29
655.796	53.24
655.985	53.3
656.173	53.23
656.361	53.58
656.55	53.23
656.738	53.28
656.926	53.41
657.114	53.41
657.302	53.67
657.491	53.76
657.679	53.62
657.867	53.4
658.055	53.5
658.243	53.56
658.431	53.18
658.619	53.63
658.807	53.39
658.996	53.5
659.184	53.69
659.372	53.4
659.56	53.34
659.748	53.37
659.936	53.44
660.124	53.14
660.311	53.05
660.499	53.3
660.687	53.37
660.875	53.58
661.063	53.58
661.251	53.9
661.439	53.99
661.627	54.09
661.814	54.05
662.002	54.08
662.19	54.39
662.378	54.25
662.565	54.33
662.753	54.19
662.941	54.29
663.129	53.97
663.316	53.72
663.504	54.1
663.692	54.08
663.879	54.52
664.067	54.72
664.254	54.63
664.442	55.21
664.63	55.16
664.817	55.13
665.005	54.37
665.192	54.62
665.38	54.75
665.567	54.46
665.755	54.29
665.942	54.12
666.13	54.04
666.317	54.33
666.504	54.29
666.692	54.52
666.879	54.39
667.067	55.06
667.254	55.09
667.441	55.17
667.629	55.04
667.816	55.03
668.003	55.41
668.19	55.37
668.378	54.92
668.565	54.6
668.752	54.21
668.939	54.09
669.127	53.89
669.314	53.54
669.501	52.74
669.688	52.84
669.875	53.06
670.062	52.74
670.249	52.92
670.436	53.32
670.623	53.56
670.81	53.83
670.997	53.73
671.184	53.84
671.371	54.31
671.558	55.28
671.745	55.2
671.932	55.55
672.119	55.81
672.306	55.69
672.493	55.35
672.68	55.16
672.867	55.07
673.054	54.96
673.24	54.88
673.427	54.81
673.614	54.59
673.801	54.71
673.988	54.44
674.174	54.18
674.361	53.9
674.548	54.19
674.734	54.43
674.921	54.6
675.108	55.08
675.294	55.63
675.481	55.86
675.668	55.52
675.854	55.71
676.041	55.76
676.227	55.63
676.414	56.07
676.601	56.38
676.787	56.18
676.974	55.84
677.16	55.71
677.347	54.69
677.533	54.32
677.719	54.4
677.906	54.3
678.092	54.53
678.279	54.94
678.465	54.78
678.651	54.24
678.838	54.28
679.024	54.46
679.21	54.41
679.397	54.82
679.583	54.72
679.769	54.92
679.955	54.79
680.142	54.71
680.328	54.47
680.514	54.18
680.7	54.34
680.886	54.34
681.073	54.23
681.259	54.02
681.445	54.01
681.631	54.2
681.817	54.14
682.003	54.18
682.189	53.83
682.375	53.64
682.561	53.93
682.747	53.95
682.933	54.04
683.119	53.97
683.305	54.52
683.491	54.77
683.677	54.37
683.863	54.52
684.049	54.67
684.235	54.59
684.42	54.59
684.606	54.4
684.792	54.43
684.978	54.3
685.164	54.47
685.349	54.21
685.535	54.15
685.721	54.39
685.907	54.47
686.092	54.39
686.278	54.64
686.464	55
686.649	55.07
686.835	54.6
687.021	54.5
687.206	54.49
687.392	54.64
687.577	54.77
687.763	55.11
687.948	54.95
688.134	54.42
688.319	54.72
688.505	54.68
688.69	54.52
688.876	54.77
689.061	54.77
689.247	54.98
689.432	54.97
689.618	54.55
689.803	54.53
689.988	54.73
690.174	55.45
690.359	54.96
690.544	55.2
690.73	55.01
690.915	55.24
691.1	55.35
691.285	55.29
691.471	55.72
691.656	55.89
691.841	55.42
692.026	55.22
692.211	54.37
692.396	54.22
692.582	53.93
692.767	54.85
692.952	54.72
693.137	54.75
693.322	54.61
693.507	53.8
693.692	54.03
693.877	54.23
694.062	54.15
694.247	54.94
694.432	55
694.617	54.73
694.802	53.65
694.987	53.54
695.172	53.52
695.357	53.82
695.541	53.97
695.726	53.17
695.911	53.75
696.096	53.43
696.281	53.06
696.466	53.39
696.65	53.25
696.835	53.54
697.02	53.65
697.204	53.44
697.389	53.31
697.574	53.45
697.759	53.42
697.943	52.86
698.128	52.75
698.312	52.95
698.497	52.59
698.682	52.76
698.866	52.65
699.051	52.52
699.235	52.72
699.42	52.63
699.604	52.53
699.789	53.03
699.973	53.28
700.158	53.49
700.342	53.5
700.527	53.65
700.711	53.75
700.895	54.12
701.08	54.18
701.264	54.28
701.448	54.39
701.633	54.21
701.817	54.22
702.001	54.25
702.186	54.45
702.37	54.59
702.554	55.06
702.738	55.62
702.923	55.72
703.107	56.32
703.291	56.47
703.475	56.27
703.659	57.03
703.843	56.92
704.027	57.48
704.212	57.48
704.396	57.46
704.58	57.38
704.764	56.65
704.948	55.95
705.132	55.85
705.316	55.69
705.5	55.86
705.684	55.73
705.868	55.68
706.052	55.01
706.235	55.19
706.419	55.16
706.603	55.03
706.787	55.77
706.971	56.81
707.155	56.55
707.339	55.84
707.522	56.04
707.706	55.94
707.89	56.45
708.074	56.87
708.257	56.72
708.441	56.9
708.625	57.17
708.808	56.77
708.992	56.39
709.176	56.06
709.359	56.45
709.543	55.98
709.727	55.67
709.91	55.7
710.094	55.4
710.277	55.59
710.461	55.97
710.644	55.68
710.828	55.49
711.011	55.82
711.195	56.37
711.378	56.36
711.562	56.67
711.745	56.66
711.928	56.48
712.112	56.4
712.295	55.68
712.478	55.38
712.662	55.94
712.845	56.05
713.028	55.65
713.212	55.3
713.395	54.96
713.578	55.08
713.761	55.04
713.945	54.91
714.128	54.93
714.311	55.66
714.494	54.69
714.677	54.47
714.86	54.34
715.043	54.26
715.227	54.15
715.41	54.85
715.593	54.91
715.776	54.62
715.959	54.19
716.142	54.14
716.325	54.02
716.508	54.08
716.691	53.17
716.874	53.12
717.057	53.09
717.239	53.66
717.422	53.68
717.605	53.72
717.788	54.33
717.971	54.63
718.154	54.48
718.337	54.27
718.519	54.95
718.702	55.72
718.885	55.72
719.068	56.06
719.25	55.57
719.433	55.35
719.616	54.56
719.798	54.71
719.981	55.28
720.164	55.47
720.346	55.87
720.529	56.02
720.712	55.97
720.894	56.65
721.077	56.49
721.259	56.48
721.442	56.05
721.624	56.99
721.807	56.68
721.989	56.38
722.172	56.81
722.354	56.73
722.537	56.81
722.719	57.02
722.901	56.7
723.084	57.15
723.266	56.87
723.448	58.01
723.631	57.8
723.813	57.93
723.995	57.53
724.178	57.44
724.36	57.57
724.542	57.48
724.724	57.5
724.907	57.6
725.089	57.27
725.271	57.52
725.453	56.31
725.635	56.73
725.817	57.41
725.999	58.33
726.181	58.58
726.364	57.7
726.546	57.52
726.728	57.43
726.91	57.16
727.092	57.1
727.274	56.68
727.456	56.98
727.638	56.12
727.819	55.57
728.001	54.39
728.183	53.63
728.365	53.64
728.547	53.45
728.729	53.78
728.911	54.1
729.093	53.93
729.274	54.64
729.456	54.28
729.638	54.63
729.82	54.63
730.001	55.22
730.183	55.01
730.365	55.02
730.546	55.33
730.728	55.27
730.91	55.99
731.091	56.16
731.273	55.88
731.455	56.5
731.636	56.71
731.818	57.2
731.999	56.05
732.181	56.94
732.362	57.32
732.544	57.68
732.725	57.24
732.907	56.33
733.088	57.12
733.27	58.25
733.451	58.25
733.633	57.66
733.814	57.65
733.995	59.46
734.177	58.85
734.358	59.31
734.539	59.34
734.721	59.98
734.902	59.6
735.083	58.94
735.264	58.63
735.446	58.47
735.627	58.82
735.808	58.44
735.989	57.73
736.17	57.94
736.351	57.84
736.533	57.1
736.714	56.75
736.895	56.64
737.076	56.97
737.257	56.52
737.438	56.65
737.619	57
737.8	56.27
737.981	56.34
738.162	55.88
738.343	55.84
738.524	55.99
738.705	56.81
738.886	57.49
739.067	57.09
739.247	57.19
739.428	58.02
739.609	58.38
739.79	59.17
739.971	59.04
740.151	59.92
740.332	59.41
740.513	59.74
740.694	58.27
740.874	57.73
741.055	57.52
741.236	57.23
741.417	57.52
741.597	58.34
741.778	58.73
741.958	58.93
742.139	58.27
742.32	58.85
742.5	59.16
742.681	60.58
742.861	61.77
743.042	62.36
743.222	62.41
743.403	62.05
743.583	60.39
743.764	59.55
743.944	60.06
744.124	60.6
744.305	60.26
744.485	60.9
744.666	59.97
744.846	59.38
745.026	59.77
745.207	58.85
745.387	58.84
745.567	59.16
745.747	60.09
745.928	60.26
746.108	60.53
746.288	61
746.468	58.82
746.648	60.35
746.829	60.37
747.009	60.83
747.189	62.12
747.369	61.25
747.549	61.54
747.729	60.42
747.909	59.87
748.089	59.36
748.269	58.88
748.449	60.07
748.629	59.37
748.809	59.65
748.989	58.28
749.169	57.76
749.349	58.37
749.529	57.89
749.709	58.77
749.889	59.1
750.068	59.94
750.248	59.8
750.428	59.61
750.608	58.75
750.788	58.31
750.967	58.99
751.147	60.09
751.327	60.15
751.507	60.37
751.686	60.19
751.866	59.93
752.046	59.79
752.225	61.04
752.405	62
752.585	63.63
752.764	63.94
752.944	63.33
753.123	63.02
753.303	61.88
753.482	62.11
753.662	62.24
753.841	62.03
754.021	61.26
754.2	60.04
754.38	58.77
754.559	57.51
754.739	57.01
754.918	57.36
755.097	56.49
755.277	57.43
755.456	57.44
755.635	57.62
755.815	58.05
755.994	58.12
756.173	58.71
756.352	59.34
756.532	59.65
756.711	60.51
756.89	60.33
757.069	59.87
757.248	58.9
757.427	59.29
757.607	59.3
757.786	60.41
757.965	60.31
758.144	60.67
758.323	60.09
758.502	59.57
758.681	58.48
758.86	58.16
759.039	59.44
759.218	60.35
759.397	59.71
759.576	59.1
759.755	58.04
759.934	58.82
760.113	58.1
760.291	58.57
760.47	58.73
760.649	59.05
760.828	59.01
761.007	58.97
761.186	58.36
761.364	57.85
761.543	58.4
761.722	56.61
761.901	55.81
762.079	56.46
762.258	56
762.437	55.16
762.615	55.47
762.794	55.92
762.972	54.58
763.151	54.58
763.33	54.89
763.508	54.28
763.687	55.09
763.865	54.48
764.044	54.3
764.222	54.26
764.401	54.91
764.579	55.14
764.758	54.93
764.936	55.79
765.114	55.98
765.293	55.7
765.471	56.93
765.65	56.74
765.828	57.95
766.006	58.17
766.184	60.14
766.363	60.08
766.541	60.38
766.719	60.82
766.898	60.52
767.076	61.34
767.254	62.44
767.432	61.53
767.61	62.91
767.788	63.14
767.967	62.96
768.145	62.58
768.323	63.12
768.501	62.48
768.679	62.46
768.857	63.16
769.035	63.18
769.213	62.84
769.391	63.34
769.569	62.49
769.747	62.52
769.925	62.09
770.103	61.56
770.281	61.53
770.459	61.73
770.636	62.13
770.814	61.36
770.992	61.78
771.17	61.69
771.348	61.78
771.525	61.68
771.703	61.05
771.881	61.53
772.059	60.58
772.236	60.15
772.414	60.54
772.592	60.75
772.769	62.93
772.947	62.84
773.125	63.94
773.302	64.49
773.48	66.39
773.657	68.47
773.835	68.43
774.013	69.3
774.19	70.2
774.368	71.11
774.545	71.12
774.723	69.37
774.9	68.35
775.077	68.13
775.255	66.86
775.432	66.67
775.61	64.89
775.787	66.25
775.964	65.68
776.142	65.73
776.319	65.14
776.496	65.05
776.674	64.95
776.851	65.53
777.028	64.76
777.205	64.85
777.382	64.57
777.56	65.45
777.737	66.08
777.914	67.16
778.091	66.16
778.268	64.78
778.445	63.61
778.622	63.65
778.8	63.41
778.977	64.42
779.154	69.51
779.331	67.43
779.508	66.74
779.685	66.75
779.862	66.84
780.038	68.82
780.215	70.72
780.392	72.41
780.569	72.97
780.746	72.54
780.923	72.86
781.1	69.53
781.277	70.35
781.453	69.42
781.63	69.18
781.807	70.11
781.984	69.87
782.16	69.89
782.337	67.73
782.514	67.81
782.691	69.58
782.867	69.67
783.044	68.83
783.221	67.88
783.397	69.07
783.574	66.54
783.75	64.39
783.927	64.42
784.103	63.55
784.28	64.86
784.456	64.69
784.633	63.09
784.809	62.15
784.986	61.34
785.162	62.84
785.339	63.69
785.515	65.67
785.692	65.13
785.868	65.04
786.044	66.67
786.221	66.66
786.397	65.58
786.573	65.36
786.749	64.7
786.926	63.88
787.102	64.26
787.278	62.45
787.454	61.95
787.631	62.14
787.807	60.79
787.983	59.62
788.159	60.13
788.335	61.47
788.511	62.81
788.687	62.74
788.863	62.56
789.039	62.84
789.216	62.96
789.392	63.53
789.568	64.82
789.744	66.27
789.919	64.77
790.095	63.25
790.271	63.01
790.447	60.47
790.623	61.93
790.799	62.24
790.975	61.49
791.151	60.84
791.327	60.96
791.502	60.59
791.678	60.42
791.854	60.38
792.03	61.43
792.205	61.97
792.381	63.19
792.557	61.92
792.733	62.63
792.908	63.81
793.084	65.84
793.259	65.56
793.435	66.38
793.611	65.22
793.786	67.58
793.962	67.11
794.137	66.97
794.313	65.25
794.488	66.52
794.664	67.7
794.839	64.6
795.015	62.3
795.19	59.34
795.366	58.89
795.541	59.85
795.716	59
795.892	60.36
796.067	60.41
796.242	62.87
796.418	61.93
796.593	60.54
796.768	60.67
796.944	61.49
797.119	64.91
797.294	64.74
797.469	64.31
797.644	63.89
797.82	64.71
797.995	62.67
798.17	61.42
798.345	60.23
798.52	61.8
798.695	63.63
798.87	63.86
799.045	62.86
799.22	62.23
799.395	61.7
799.57	62.8
799.745	61.46
799.92	62.7
800.095	65.41
800.27	65.89
800.445	65.3
800.62	66.81
800.795	66.98
800.97	68.06
801.145	68.11
801.319	69.44
801.494	68.72
801.669	68.65
801.844	69.95
802.018	67.1
802.193	68.45
802.368	67.58
802.543	66.45
802.717	68.07
802.892	68.02
803.067	69.13
803.241	69.66
803.416	69.2
803.59	68.82
803.765	67.47
803.94	68.39
804.114	67.22
804.289	68.73
804.463	68.22
804.638	69.17
804.812	68
804.986	66.38
805.161	65.72
805.335	65.14
805.51	66.56
805.684	65.86
805.858	66.26
806.033	67.91
806.207	68.08
806.381	68.61
806.556	67.31
806.73	69.04
806.904	70.82
807.078	71.26
807.253	73.14
807.427	71.28
807.601	73.57
807.775	72.6
807.949	71.09
808.123	70.2
808.298	68.77
808.472	70.54
808.646	70.6
808.82	69.92
808.994	66.84
809.168	66.98
809.342	70.37
809.516	70.33
809.69	69.73
809.864	72.17
810.038	72.88
810.212	73.93
810.385	72.61
810.559	72.27
810.733	72.11
810.907	73.22
811.081	72.74
811.255	70.69
811.428	71.22
811.602	73.89
811.776	72.51
811.95	70.02
812.123	69.73
812.297	69.13
812.471	68.31
812.644	68.58
812.818	71.63
812.992	70.61
813.165	70.57
813.339	69.97
813.512	70.09
813.686	69.31
813.86	72.3
814.033	74.79
814.207	73.98
814.38	73.68
814.554	74.97
814.727	75.32
814.9	76.79
815.074	76.4
815.247	78.32
815.421	74.57
815.594	75.95
815.767	75.13
815.941	73.66
816.114	76.34
816.287	77.53
816.46	74.2
816.634	73.31
816.807	74.32
816.98	74.59
817.153	70.52
817.327	70.13
817.5	69.38
817.673	67.75
817.846	69.57
818.019	66.71
818.192	68.32
818.365	69.93
818.538	69.25
818.711	64.28
818.884	64.37
819.057	66.6
819.23	68.54
819.403	67.78
819.576	67.38
819.749	65.93
819.922	66.2
820.095	63.49
820.268	64.86
820.441	65.5
820.614	66.8
820.786	64.13
820.959	61.84
821.132	60.76
821.305	58.96
821.477	57.87
821.65	56.9
821.823	55.91
821.996	56.01
822.168	55.02
822.341	53.72
822.514	53.25
822.686	53.04
822.859	52.89
823.031	52.78
823.204	53.24
823.376	53.6
823.549	53.64
823.722	53.89
823.894	53.8
824.067	53.68
824.239	53.67
824.411	53.99
824.584	54.26
824.756	54.61
824.929	54.47
825.101	54.13
825.273	54.06
825.446	53.19
825.618	53.13
825.79	52.94
825.963	53.65
826.135	54.27
826.307	54.33
826.479	54.65
826.652	53.9
826.824	54.66
826.996	55.18
827.168	55.03
827.34	56.43
827.512	56.14
827.684	55.97
827.856	55.9
828.029	56.69
828.201	55.79
828.373	55.4
828.545	56.31
828.717	56.59
828.889	55.76
829.061	56.82
829.232	56.69
829.404	58.03
829.576	59.59
829.748	59.74
829.92	59.86
830.092	62.17
830.264	62.83
830.436	62.49
830.607	61.8
830.779	61.97
830.951	62.27
831.123	63.53
831.294	64.39
831.466	64.17
831.638	64.28
831.809	64.15
831.981	62.61
832.153	62.71
832.324	63.61
832.496	62.85
832.667	65.19
832.839	64.73
833.011	63.16
833.182	61.83
833.354	61.41
833.525	61.21
833.697	59.39
833.868	57.89
834.039	57.54
834.211	56.76
834.382	57.47
834.554	57
834.725	57.28
834.896	57.92
835.068	57.23
835.239	56.93
835.41	57.96
835.581	59.31
835.753	61.29
835.924	61.55
836.095	62.84
836.266	64.05
836.438	65.05
836.609	64.69
836.78	63.45
836.951	65.8
837.122	65.35
837.293	65.12
837.464	64.71
837.635	65.57
837.806	66.76
837.977	67.75
838.148	68.56
838.319	67.19
838.49	69.7
838.661	68.33
838.832	66.07
839.003	68.1
839.174	70.43
839.345	70.8
839.516	70.92
839.687	74.16
839.857	77.03
840.028	75.88
840.199	79.72
840.37	73
840.54	76.85
840.711	77.07
840.882	74.55
841.053	69.29
841.223	66.87
841.394	68.21
841.564	63.26
841.735	63.95
841.906	64
842.076	62.81
842.247	61.33
842.417	62.61
842.588	63.94
842.758	66
842.929	68.7
843.099	74.08
843.27	69.45
843.44	72.77
843.611	71.68
843.781	67.92
843.951	66.17
844.122	69.31
844.292	68.88
844.462	65.59
844.633	66.38
844.803	71.61
844.973	65.78
845.144	71.1
845.314	74.3
845.484	68.73
845.654	77.21
845.824	87.42
845.995	95.72
846.165	97.97
846.335	105.31
846.505	115.66
846.675	117.1
846.845	126
847.015	122.87
847.185	117.23
847.355	120
847.525	117.43
847.695	97.54
847.865	91.49
848.035	85.46
848.205	86.97
848.375	84.9
848.545	75.64
848.715	75.9
848.884	75.39
849.054	79.47
849.224	88.91
849.394	92.37
849.564	105.1
849.733	107.23
849.903	114.27
850.073	104.39
850.243	93.19
850.412	92.03
850.582	88.81
850.752	92.14
850.921	95.26
851.091	93.51
851.26	89.91
851.43	89.97
851.599	86.49
851.769	81.48
851.939	88.46
852.108	95.83
852.278	103.54
852.447	99.44
852.616	102.23
852.786	98.3
852.955	100.18
853.125	98.52
853.294	90.81
853.463	89.24
853.633	93.47
853.802	90.16
853.971	92.9
854.141	89.2
854.31	92.51
854.479	85.18
854.648	77.88
854.818	72.15
854.987	70.63
855.156	75.9
855.325	83.38
855.494	85.78
855.663	87.32
855.832	93.23
856.001	102.55
856.171	107.11
856.34	114.47
856.509	119.83
856.678	128.53
856.847	126.25
857.016	109.99
857.185	111.33
857.353	121.78
857.522	126.75
857.691	114.18
857.86	108.64
858.029	111.57
858.198	113.43
858.367	111.13
858.535	112.76
858.704	126.98
858.873	143.38
859.042	130.14
859.21	130.89
859.379	121.93
859.548	130.12
859.717	128.16
859.885	130.46
860.054	123.04
860.222	120.32
860.391	116.13
860.56	107.55
860.728	103.11
860.897	99.13
861.065	88.59
861.234	83.33
861.402	77.65
861.571	82.72
861.739	80.82
861.908	86.66
862.076	86.44
862.244	92.47
862.413	97.59
862.581	100.89
862.749	116.19
862.918	122.16
863.086	114.72
863.254	112.08
863.423	107.47
863.591	104.77
863.759	99.73
863.927	108.74
864.096	111.94
864.264	109.1
864.432	107.64
864.6	99.92
864.768	104.54
864.936	110.43
865.104	117.63
865.272	114.38
865.44	112.57
865.608	108.27
865.776	102.72
865.944	93.21
866.112	99.23
866.28	108.59
866.448	111.04
866.616	98.62
866.784	104.04
866.952	95.96
867.12	96.89
867.288	94.94
867.455	96.03
867.623	94.34
867.791	94.95
867.959	88.87
868.127	92.53
868.294	99.27
868.462	87.16
868.63	75.45
868.797	71.31
868.965	75.32
869.133	85.47
869.3	96.42
869.468	101.95
869.636	105.38
869.803	101.06
869.971	90.61
870.138	92.92
870.306	98.68
870.473	103.82
870.641	111.39
870.808	114.44
870.975	105.34
871.143	95.01
871.31	91.14
871.478	85.28
871.645	87.63
871.812	90.26
871.98	88.63
872.147	89.57
872.314	87.82
872.482	77.5
872.649	71.49
872.816	75.78
872.983	80.26
873.15	83.3
873.318	92.97
873.485	94.35
873.652	98.73
873.819	103.9
873.986	99.85
874.153	109.79
874.32	111.2
874.487	110.62
874.654	109.27
874.821	107.55
874.988	104.59
875.155	94.43
875.322	100.66
875.489	97.45
875.656	90.31
875.823	98.1
875.99	89.42
876.157	100.14
876.324	114.43
876.49	105.95
876.657	112.25
876.824	100.56
876.991	100.03
877.157	99.18
877.324	102
877.491	105.5
877.658	97.73
877.824	89.24
877.991	83.22
878.157	65.58
878.324	77.95
878.491	72.1
878.657	82.65
878.824	78.96
878.99	66.94
879.157	66.56
879.323	59.92
879.49	58.07
879.656	65.84
879.823	71.29
879.989	78
880.156	73.67
880.322	75.65
880.488	71.03
880.655	74.54
880.821	84.23
880.987	80.35
881.154	84.96
881.32	96.47
881.486	90.34
881.652	86.45
881.819	85.14
881.985	83.76
882.151	79.51
882.317	78.42
882.483	77.66
882.649	74.11
882.816	71.29
882.982	67.12
883.148	62.67
883.314	62.49
883.48	60.69
883.646	60.18
883.812	58.92
883.978	59.05
884.144	57.93
884.31	56.88
884.476	57.56
884.642	58.07
884.807	61.6
884.973	61.28
885.139	60.94
885.305	61.08
885.471	60.64
885.637	61.69
885.802	59.77
885.968	61.9
886.134	61.89
886.3	61.92
886.465	62.9
886.631	60.71
886.797	64.73
886.962	65.74
887.128	70.99
887.293	71.37
887.459	71.03
887.625	79.36
887.79	77.37
887.956	85.98
888.121	87.15
888.287	88.45
888.452	89.96
888.618	91.4
888.783	93.31
