Data from LC_168_Reflection_2.txt Node
Date: Mon Nov 16 23:07:07 EST 2015
User: robert
Spectrometer: USB4E03001
Autoset integration time: false
Trigger mode: 4
Integration Time (sec): 1.000000E-1
Scans to average: 15
Electric dark correction enabled: true
Nonlinearity correction enabled: false
Boxcar width: 5
Stray light correction enabled: false
XAxis mode: Wavelengths
Stop averaging: false
Number of Pixels in Spectrum: 3648
>>>>>Begin Spectral Data<<<<<
177.566	4546.99
177.785	406.45
178.005	-2502.52
178.225	205.39
178.445	134.7
178.665	-156.85
178.885	359.66
179.105	1438.32
179.324	2714.02
179.544	-208.75
179.764	-953.15
179.984	-346.59
180.204	-420.43
180.423	-272.5
180.643	-407.44
180.863	-275.32
181.083	-216.53
181.302	-234.48
181.522	-162.68
181.742	-145.53
181.961	-308.05
182.181	-284.66
182.401	-374.25
182.621	-1528.92
182.84	-856.19
183.06	-535.9
183.279	-291.6
183.499	-232.71
183.719	-228.43
183.938	-224.82
184.158	-216.18
184.377	-157.69
184.597	-272.86
184.816	-181.33
185.036	-124.43
185.256	-100.14
185.475	-134.78
185.695	-226.17
185.914	-331.04
186.134	-499.16
186.353	-718.47
186.572	-942.01
186.792	-1275.86
187.011	-452.55
187.231	-482.31
187.45	-348.85
187.67	-873.55
187.889	-2316.88
188.108	3748.52
188.328	-993.45
188.547	-383.76
188.766	-650.43
188.986	-1020.21
189.205	-693.77
189.424	-440.23
189.644	-1217.68
189.863	-1310.23
190.082	-864.15
190.302	-1833.16
190.521	-1025
190.74	972.73
190.959	435.84
191.178	754.55
191.398	612.03
191.617	616.5
191.836	562.02
192.055	1165.7
192.274	477.56
192.494	456.58
192.713	490.05
192.932	1181.77
193.151	1079.09
193.37	1934.81
193.589	-926.85
193.808	-260.92
194.027	-320.02
194.246	-3260.06
194.465	635.79
194.685	1642.71
194.904	827.36
195.123	-1135.73
195.342	-638.48
195.561	-284.95
195.78	-488.75
195.999	20338.03
196.218	578.5
196.436	531.11
196.655	-1822.63
196.874	-694.76
197.093	-868.41
197.312	-708.55
197.531	1984.03
197.75	732.26
197.969	-2525.53
198.188	-564.4
198.407	-166.71
198.625	-286.08
198.844	-218.83
199.063	-227.86
199.282	-428.81
199.501	-263.43
199.719	-173.29
199.938	-101.56
200.157	-108.04
200.376	-119.24
200.594	-165.16
200.813	-398.04
201.032	-211.8
201.251	-187.41
201.469	-165.88
201.688	-135.59
201.907	-301.51
202.125	-491.24
202.344	19728.57
202.563	3273.49
202.781	493.7
203	1455.36
203.218	1038.72
203.437	914.96
203.656	498.78
203.874	282.66
204.093	247.47
204.311	297.31
204.53	324.1
204.748	453.48
204.967	312.98
205.185	324.47
205.404	334.66
205.622	232.19
205.841	197.59
206.059	221.96
206.278	292.48
206.496	817.85
206.715	409.11
206.933	296.89
207.151	294.98
207.37	336.61
207.588	344.57
207.806	324.46
208.025	653.27
208.243	-1257.14
208.461	1717.34
208.68	-17064.71
208.898	704.73
209.116	894.84
209.335	950.75
209.553	974.02
209.771	9364.17
209.989	1744.26
210.208	3822.81
210.426	-6135.15
210.644	3223.68
210.862	-3137.24
211.081	1533.69
211.299	-708.16
211.517	2896.2
211.735	-705.61
211.953	-209628.57
212.171	-3930.42
212.39	-12364.86
212.608	-33002.17
212.826	1446.75
213.044	1109.44
213.262	892.82
213.48	4785.23
213.698	521.54
213.916	689.93
214.134	485.26
214.352	984.87
214.57	574.8
214.788	726.81
215.006	607.35
215.224	467.55
215.442	354.3
215.66	275
215.878	232.63
216.096	225.87
216.314	221.61
216.532	359.82
216.75	306.17
216.968	302.03
217.185	825.28
217.403	1539.27
217.621	-4701.42
217.839	-1349.53
218.057	-1807.73
218.275	2964.18
218.492	958.15
218.71	1649.21
218.928	473.21
219.146	443.76
219.363	361.47
219.581	255.08
219.799	177.09
220.017	162.69
220.234	155.76
220.452	176.54
220.67	193.18
220.887	199.28
221.105	202.78
221.323	163.28
221.54	165.19
221.758	223.14
221.976	242.12
222.193	245.28
222.411	152.07
222.629	151.89
222.846	143.54
223.064	148.3
223.281	144.91
223.499	126.11
223.716	131.52
223.934	97.38
224.151	96.12
224.369	82.61
224.586	84.51
224.804	100.7
225.021	108.59
225.239	86.19
225.456	85.09
225.674	68.65
225.891	70.27
226.108	81.9
226.326	88.17
226.543	77.2
226.76	76.66
226.978	67.4
227.195	71.7
227.413	60.31
227.63	57.07
227.847	52.45
228.064	48.86
228.282	42.66
228.499	37.4
228.716	33.22
228.934	30.54
229.151	29.46
229.368	28.24
229.585	26.02
229.802	26.14
230.02	24.88
230.237	25.93
230.454	26.5
230.671	28.74
230.888	29.92
231.105	30.74
231.323	30.78
231.54	31.21
231.757	31.19
231.974	31.6
232.191	33.37
232.408	39.68
232.625	37.44
232.842	40.82
233.059	37.86
233.276	38.58
233.493	41.28
233.71	43.54
233.927	46.36
234.144	47.17
234.361	42.53
234.578	44.3
234.795	39.27
235.012	39.02
235.229	36.4
235.446	37.85
235.663	37.91
235.879	38.64
236.096	36.59
236.313	33.59
236.53	35
236.747	39.48
236.964	38.43
237.181	42.92
237.397	45.47
237.614	47.77
237.831	50.74
238.048	45.83
238.264	45.31
238.481	42.16
238.698	43.5
238.915	37.49
239.131	36.75
239.348	35.62
239.565	34.26
239.781	35.61
239.998	33.62
240.215	30.09
240.431	31.3
240.648	32.26
240.865	33.28
241.081	31.41
241.298	32.25
241.514	31.96
241.731	30.21
241.947	28.89
242.164	25.8
242.38	24.76
242.597	23.91
242.814	23.04
243.03	20.45
243.246	19.85
243.463	19.64
243.679	19.5
243.896	17.58
244.112	18.5
244.329	18.38
244.545	19.95
244.762	20.32
244.978	21.87
245.194	21.28
245.411	22.13
245.627	20.46
245.843	19.86
246.06	19.03
246.276	19.63
246.492	18.28
246.709	17.74
246.925	16.17
247.141	16.14
247.357	15.84
247.574	15.79
247.79	15.58
248.006	15.78
248.222	16.64
248.439	16.73
248.655	16.75
248.871	16.91
249.087	17.16
249.303	17.54
249.519	17.81
249.736	18.87
249.952	19.57
250.168	22.71
250.384	24.22
250.6	22.34
250.816	21.93
251.032	20.11
251.248	19.71
251.464	18.75
251.68	18.92
251.896	18.33
252.112	18.11
252.328	20.25
252.544	17.68
252.76	18.06
252.976	16.7
253.192	16.63
253.408	18.18
253.624	21.5
253.84	21.47
254.056	24.3
254.272	24.8
254.487	23.71
254.703	20.83
254.919	20.26
255.135	18.15
255.351	24.34
255.567	27.69
255.782	28.91
255.998	24.93
256.214	24.74
256.43	21.57
256.646	22.81
256.861	22.24
257.077	24.9
257.293	25.87
257.508	26.05
257.724	25.07
257.94	22.76
258.155	21.42
258.371	19.79
258.587	18.4
258.802	17.64
259.018	17.42
259.234	15.39
259.449	14.55
259.665	13.7
259.88	14.39
260.096	13.69
260.312	13.01
260.527	12.8
260.743	13.26
260.958	14.05
261.174	14.29
261.389	14.31
261.605	16.11
261.82	16.31
262.036	17.4
262.251	17.55
262.466	17.4
262.682	19.09
262.897	19.44
263.113	18.83
263.328	19.37
263.543	20.08
263.759	20.1
263.974	20.01
264.189	20.25
264.405	20.33
264.62	18.52
264.835	20.38
265.051	20.2
265.266	21.07
265.481	23.07
265.696	23.68
265.912	23.12
266.127	20.31
266.342	17.93
266.557	17.72
266.773	17.44
266.988	17.02
267.203	16.9
267.418	15.37
267.633	13.84
267.848	14.59
268.064	13
268.279	12.53
268.494	13.54
268.709	15.69
268.924	15.54
269.139	16.07
269.354	15.59
269.569	14.8
269.784	16.32
269.999	17.87
270.214	16.41
270.429	18.85
270.644	17.99
270.859	16.51
271.074	15.69
271.289	15.35
271.504	14.77
271.719	15.41
271.934	15.66
272.149	15.98
272.363	15.46
272.578	14.56
272.793	12.35
273.008	12.86
273.223	14.66
273.438	14.36
273.653	14.25
273.867	13.57
274.082	13.91
274.297	13.27
274.512	13.03
274.726	12.57
274.941	14.45
275.156	14.81
275.371	15.28
275.585	15.34
275.8	16.51
276.015	16.08
276.229	17.1
276.444	17.33
276.659	17.27
276.873	17.53
277.088	17.62
277.302	17.44
277.517	18.73
277.732	20.34
277.946	20
278.161	19.67
278.375	20.55
278.59	20.98
278.804	20.62
279.019	21.48
279.233	21.13
279.448	20.85
279.662	18.76
279.877	18.5
280.091	17.23
280.306	16.18
280.52	16.88
280.735	15.6
280.949	14.82
281.163	16.33
281.378	14.67
281.592	13.94
281.806	14.1
282.021	14.14
282.235	15.05
282.449	15.96
282.664	16.97
282.878	15.85
283.092	17.28
283.307	17.29
283.521	15.92
283.735	16.73
283.949	17.64
284.164	17.79
284.378	18.46
284.592	16.06
284.806	14.38
285.02	13.75
285.234	13.53
285.449	12.28
285.663	12.72
285.877	12.75
286.091	12.23
286.305	11.5
286.519	11.32
286.733	10.48
286.947	11.37
287.161	11.45
287.375	11.88
287.589	11.87
287.803	12.63
288.017	12.34
288.231	11.36
288.445	11.6
288.659	12.36
288.873	11.76
289.087	12.16
289.301	12.15
289.515	13.12
289.729	11.92
289.943	12.52
290.157	12.56
290.371	13.66
290.584	14.58
290.798	15.16
291.012	15.2
291.226	15.14
291.44	16.37
291.654	16.48
291.867	15.84
292.081	15.63
292.295	16.14
292.509	16.53
292.722	15.02
292.936	14.11
293.15	14.59
293.364	13.86
293.577	15.04
293.791	13.6
294.005	15.25
294.218	15.24
294.432	16.7
294.645	14.9
294.859	13.84
295.073	14.61
295.286	15.54
295.5	14.42
295.713	15.03
295.927	14.81
296.14	15.71
296.354	13.81
296.568	13.93
296.781	13.41
296.994	13.85
297.208	14.06
297.421	13.6
297.635	13.76
297.848	14.12
298.062	13.8
298.275	14.57
298.489	13.98
298.702	14.7
298.915	14.89
299.129	15.29
299.342	15.8
299.555	16
299.769	16.67
299.982	16.95
300.195	16.11
300.409	16.05
300.622	15.47
300.835	16.95
301.048	16.17
301.262	16.41
301.475	16.83
301.688	17.01
301.901	17.36
302.115	17.03
302.328	17.4
302.541	17.93
302.754	17.85
302.967	18.45
303.18	18.33
303.393	18.95
303.607	18.78
303.82	19.11
304.033	18.18
304.246	18.23
304.459	17.89
304.672	17.41
304.885	18.54
305.098	18.03
305.311	16.82
305.524	16.8
305.737	16.98
305.95	17.61
306.163	16.45
306.376	17.06
306.589	17.04
306.802	17.54
307.015	17.78
307.228	17.49
307.44	18.22
307.653	17.92
307.866	15.42
308.079	16.65
308.292	16.27
308.505	16.52
308.718	16.98
308.93	16.95
309.143	17.33
309.356	17
309.569	16.1
309.781	16.83
309.994	17.34
310.207	18.6
310.42	17.61
310.632	16.97
310.845	16.52
311.058	15.89
311.27	14.88
311.483	13.9
311.696	13.74
311.908	14.01
312.121	13.36
312.333	14.02
312.546	13.62
312.759	12.91
312.971	12.72
313.184	13.78
313.396	14.28
313.609	15.18
313.821	15.47
314.034	15.9
314.246	16.04
314.459	16.44
314.671	15.68
314.884	15.32
315.096	15.17
315.309	15.34
315.521	14.73
315.733	13.62
315.946	13.11
316.158	13.39
316.371	13.54
316.583	14.03
316.795	13.93
317.008	14.9
317.22	16.1
317.432	16.68
317.644	16.57
317.857	16.21
318.069	16.74
318.281	17.34
318.494	15.77
318.706	16.14
318.918	15.04
319.13	14.95
319.342	14.08
319.555	13.67
319.767	14.23
319.979	14.95
320.191	15.04
320.403	15.9
320.615	16.08
320.827	18.07
321.039	16.22
321.252	16.66
321.464	16.32
321.676	15.79
321.888	14.73
322.1	15.56
322.312	13.29
322.524	13.33
322.736	12.35
322.948	12.01
323.16	11.82
323.372	12.5
323.584	11.33
323.796	10.86
324.007	10.96
324.219	12.3
324.431	11.91
324.643	13.03
324.855	12.54
325.067	13.1
325.279	13.28
325.491	12.62
325.702	12.51
325.914	13.94
326.126	15.09
326.338	15.72
326.55	14.96
326.761	14.78
326.973	15.18
327.185	16.69
327.396	17.07
327.608	17.95
327.82	18.35
328.032	18.17
328.243	17.55
328.455	17.62
328.666	16.52
328.878	16.79
329.09	15.75
329.301	15.09
329.513	14.33
329.725	13.3
329.936	12.1
330.148	12.51
330.359	12.05
330.571	12.03
330.782	11.21
330.994	12.59
331.205	12.8
331.417	14.04
331.628	15.54
331.84	15.9
332.051	15.92
332.262	17.18
332.474	16.43
332.685	17.96
332.897	17.32
333.108	18.17
333.319	16.83
333.531	16.26
333.742	16.3
333.953	15.33
334.165	14.35
334.376	14.12
334.587	13.08
334.799	14.27
335.01	13.41
335.221	14.32
335.432	13.58
335.644	13.71
335.855	13.62
336.066	14.18
336.277	14.24
336.488	14.72
336.7	15.04
336.911	15.42
337.122	14.74
337.333	15.21
337.544	15.58
337.755	16.39
337.966	16.87
338.177	17.29
338.388	17.12
338.599	18.39
338.811	18.27
339.022	17.94
339.233	17.64
339.444	17.86
339.655	16.7
339.866	17.25
340.076	17.37
340.287	17.7
340.498	17.34
340.709	16.49
340.92	15.02
341.131	15.69
341.342	16.04
341.553	16.45
341.764	16.05
341.975	17.34
342.185	16.72
342.396	15.72
342.607	15.09
342.818	15.32
343.029	15.37
343.239	15.86
343.45	15.47
343.661	14.88
343.872	14.32
344.082	14.55
344.293	14.13
344.504	15.86
344.714	15.2
344.925	15.49
345.136	15.79
345.346	14.86
345.557	15.15
345.768	15.1
345.978	15.26
346.189	15.81
346.399	15.14
346.61	15.53
346.821	13.44
347.031	14.64
347.242	13.85
347.452	13.3
347.663	14.21
347.873	13.96
348.084	13.41
348.294	14.04
348.504	13.27
348.715	13.77
348.925	13.15
349.136	12.76
349.346	11.64
349.557	12
349.767	12.81
349.977	13.35
350.188	13.7
350.398	14.16
350.608	14
350.819	13.74
351.029	13.91
351.239	13.55
351.449	14.27
351.66	14.69
351.87	15.28
352.08	14.75
352.29	13.55
352.501	12.31
352.711	12.18
352.921	12.4
353.131	13.3
353.341	12.61
353.552	12.69
353.762	12.44
353.972	12.23
354.182	13.23
354.392	12.91
354.602	13.76
354.812	14.23
355.022	14.41
355.232	14.06
355.442	13.76
355.652	14.19
355.862	13.76
356.072	14.19
356.282	13.55
356.492	12.33
356.702	12.69
356.912	13.19
357.122	13.56
357.332	13.31
357.542	13.17
357.752	13.15
357.962	12.98
358.171	13.12
358.381	13.39
358.591	13.7
358.801	14.06
359.011	13.99
359.221	13.56
359.43	13.23
359.64	13.71
359.85	13.47
360.06	13.53
360.269	13.58
360.479	13.68
360.689	12.66
360.899	12.7
361.108	12.27
361.318	12.03
361.528	11.48
361.737	11.37
361.947	10.57
362.156	10.8
362.366	10.57
362.576	10.42
362.785	10.38
362.995	10.47
363.204	10.97
363.414	11.19
363.623	10.82
363.833	11.3
364.042	11.07
364.252	11.65
364.461	11.44
364.671	11.25
364.88	11.46
365.09	11.84
365.299	12.26
365.509	11.67
365.718	11.18
365.927	11.54
366.137	11.47
366.346	12.54
366.555	12.04
366.765	12.22
366.974	12.51
367.183	12.4
367.393	11.76
367.602	11.17
367.811	11.29
368.021	11.09
368.23	11.04
368.439	10.46
368.648	9.35
368.857	9.95
369.067	9.8
369.276	9.27
369.485	9.5
369.694	10.08
369.903	10.77
370.112	10.93
370.321	11.13
370.531	10.95
370.74	10.92
370.949	10.83
371.158	10.57
371.367	10.83
371.576	10.83
371.785	10.14
371.994	9.88
372.203	9.65
372.412	10.2
372.621	10.6
372.83	10.27
373.039	10.71
373.248	10.89
373.457	10.9
373.666	10.79
373.874	10.92
374.083	11.57
374.292	11.32
374.501	11.09
374.71	10.56
374.919	10.78
375.128	11.08
375.336	11.21
375.545	11.5
375.754	11.07
375.963	10.78
376.171	10.77
376.38	10.57
376.589	10.73
376.798	10.9
377.006	10.77
377.215	10.79
377.424	10.9
377.632	10.49
377.841	10.3
378.05	10.33
378.258	10.55
378.467	10.53
378.675	10.63
378.884	10.78
379.093	10.4
379.301	10.22
379.51	9.4
379.718	9.28
379.927	9.58
380.135	8.89
380.344	9.18
380.552	9.21
380.761	9.36
380.969	8.99
381.177	9.01
381.386	8.75
381.594	8.64
381.803	9.1
382.011	8.9
382.219	8.45
382.428	8.6
382.636	8.06
382.845	7.88
383.053	7.64
383.261	7.52
383.469	7.73
383.678	8.35
383.886	8.17
384.094	7.55
384.302	7.92
384.511	8.44
384.719	8.95
384.927	9.19
385.135	9.48
385.343	9.81
385.552	9.98
385.76	9.62
385.968	9.17
386.176	9.29
386.384	9.58
386.592	9.21
386.8	8.65
387.008	8.57
387.216	8.73
387.424	8.57
387.633	8.65
387.841	8.45
388.049	8.44
388.257	8.4
388.465	8.37
388.672	8.64
388.88	8.75
389.088	9.02
389.296	8.58
389.504	8.62
389.712	8.4
389.92	7.85
390.128	7.74
390.336	7.71
390.544	8.21
390.751	8.18
390.959	8.17
391.167	8.1
391.375	8.18
391.583	8.31
391.79	7.98
391.998	7.82
392.206	8.11
392.414	8.14
392.621	8.16
392.829	7.97
393.037	7.85
393.244	7.96
393.452	8.13
393.66	8.2
393.867	8.46
394.075	8.52
394.283	8.61
394.49	8.18
394.698	8.27
394.905	7.99
395.113	7.87
395.32	7.98
395.528	7.68
395.735	7.51
395.943	7.28
396.15	6.96
396.358	7.01
396.565	7.06
396.773	7.66
396.98	7.95
397.188	8.12
397.395	8.04
397.602	8.08
397.81	8.02
398.017	8.36
398.225	8.37
398.432	8.47
398.639	8.61
398.847	8.57
399.054	8.02
399.261	7.46
399.468	7.45
399.676	7.33
399.883	7.28
400.09	7.5
400.297	7.23
400.505	7.22
400.712	7.12
400.919	7.19
401.126	7.29
401.333	7.51
401.54	7.84
401.748	7.8
401.955	8.03
402.162	8.16
402.369	7.8
402.576	7.91
402.783	7.84
402.99	7.72
403.197	7.28
403.404	6.93
403.611	7.16
403.818	7.26
404.025	7.15
404.232	7.02
404.439	6.81
404.646	6.68
404.853	6.41
405.06	6.37
405.267	6.39
405.474	6.5
405.681	6.62
405.887	6.39
406.094	6.2
406.301	6.42
406.508	6.36
406.715	6.46
406.922	6.68
407.128	6.84
407.335	6.79
407.542	6.79
407.749	6.84
407.955	7.25
408.162	7.22
408.369	7.59
408.575	7.22
408.782	7.2
408.989	6.96
409.195	6.96
409.402	7.03
409.609	7.19
409.815	7.17
410.022	7.31
410.228	7.17
410.435	7.25
410.642	6.84
410.848	7.21
411.055	7.23
411.261	7.37
411.468	7.38
411.674	7.28
411.881	7.32
412.087	7.45
412.294	7.21
412.5	6.79
412.706	6.86
412.913	6.84
413.119	6.72
413.326	6.66
413.532	6.96
413.738	6.68
413.945	6.69
414.151	6.43
414.357	6.56
414.564	6.83
414.77	6.94
414.976	6.78
415.182	6.98
415.389	6.99
415.595	7.01
415.801	6.82
416.007	7.18
416.214	7.2
416.42	7.33
416.626	6.92
416.832	6.85
417.038	6.88
417.244	6.95
417.45	6.68
417.657	6.58
417.863	6.66
418.069	6.75
418.275	6.68
418.481	6.56
418.687	6.52
418.893	6.65
419.099	6.47
419.305	6.58
419.511	6.45
419.717	6.62
419.923	6.57
420.129	6.47
420.335	6.33
420.541	6.24
420.746	6.2
420.952	6.26
421.158	6.19
421.364	6.11
421.57	6.09
421.776	6.18
421.982	6.08
422.187	5.93
422.393	5.95
422.599	5.88
422.805	5.85
423.01	5.84
423.216	5.66
423.422	5.65
423.628	5.8
423.833	5.68
424.039	5.62
424.245	5.72
424.45	6.03
424.656	5.97
424.862	6.04
425.067	6.09
425.273	6.11
425.478	6.24
425.684	6.36
425.889	6.54
426.095	6.53
426.301	6.59
426.506	6.53
426.712	6.44
426.917	6.43
427.123	6.48
427.328	6.5
427.533	6.65
427.739	6.47
427.944	6.45
428.15	6.04
428.355	6.14
428.561	6.09
428.766	6
428.971	5.95
429.177	6.12
429.382	6.2
429.587	6.24
429.793	6.08
429.998	6.33
430.203	6.24
430.408	6.44
430.614	6.52
430.819	6.4
431.024	6.53
431.229	6.63
431.434	6.56
431.64	6.3
431.845	6.44
432.05	6.58
432.255	6.56
432.46	6.52
432.665	6.46
432.87	6.42
433.076	6.56
433.281	6.65
433.486	6.46
433.691	6.29
433.896	6.3
434.101	6.14
434.306	6.22
434.511	5.96
434.716	6.17
434.921	6.12
435.126	5.98
435.331	5.79
435.535	5.58
435.74	5.58
435.945	5.85
436.15	5.97
436.355	6.14
436.56	6.15
436.765	6.5
436.97	6.35
437.174	6.36
437.379	6.51
437.584	6.71
437.789	6.78
437.993	6.88
438.198	6.85
438.403	6.83
438.608	6.8
438.812	6.33
439.017	6.12
439.222	6.01
439.426	6.1
439.631	6.1
439.836	5.88
440.04	5.84
440.245	5.84
440.45	5.87
440.654	5.9
440.859	5.66
441.063	5.85
441.268	5.92
441.472	5.94
441.677	5.91
441.881	5.81
442.086	5.86
442.29	5.84
442.495	5.66
442.699	5.53
442.904	5.42
443.108	5.52
443.312	5.51
443.517	5.54
443.721	5.58
443.925	5.51
444.13	5.48
444.334	5.56
444.538	5.61
444.743	5.77
444.947	5.85
445.151	5.85
445.356	5.77
445.56	5.79
445.764	5.79
445.968	5.84
446.173	5.84
446.377	5.9
446.581	5.92
446.785	5.88
446.989	5.81
447.193	5.73
447.398	5.7
447.602	5.83
447.806	5.91
448.01	6.02
448.214	5.96
448.418	6.03
448.622	6.11
448.826	6.13
449.03	6.23
449.234	6.25
449.438	6.26
449.642	6.37
449.846	6.33
450.05	6.32
450.254	6.05
450.458	6.34
450.662	6.24
450.866	6.09
451.069	6.07
451.273	5.98
451.477	6.03
451.681	5.98
451.885	5.91
452.089	5.98
452.292	5.93
452.496	6.11
452.7	5.88
452.904	5.89
453.107	5.94
453.311	5.88
453.515	5.92
453.719	5.89
453.922	6.08
454.126	6
454.33	5.9
454.533	5.77
454.737	5.67
454.94	5.65
455.144	5.71
455.348	5.66
455.551	5.69
455.755	5.49
455.958	5.52
456.162	5.31
456.365	5.56
456.569	5.39
456.772	5.52
456.976	5.56
457.179	5.45
457.383	5.41
457.586	5.66
457.79	5.6
457.993	5.77
458.196	5.69
458.4	5.78
458.603	5.56
458.807	5.71
459.01	5.77
459.213	5.65
459.417	5.67
459.62	5.69
459.823	5.51
460.026	5.6
460.23	5.59
460.433	5.69
460.636	5.73
460.839	5.82
461.042	5.84
461.246	5.83
461.449	5.83
461.652	5.84
461.855	5.72
462.058	5.74
462.261	5.66
462.464	5.51
462.668	5.55
462.871	5.62
463.074	5.76
463.277	5.55
463.48	5.62
463.683	5.69
463.886	5.75
464.089	5.85
464.292	5.98
464.495	5.97
464.698	6.11
464.901	6.03
465.104	5.91
465.306	5.83
465.509	6.02
465.712	5.93
465.915	6.05
466.118	6.04
466.321	6.05
466.524	5.95
466.726	6.17
466.929	6.26
467.132	6.21
467.335	6.12
467.538	5.93
467.74	5.91
467.943	6.12
468.146	6.18
468.348	6.13
468.551	6.29
468.754	6.22
468.956	5.94
469.159	5.94
469.362	6
469.564	5.88
469.767	6.03
469.969	5.96
470.172	5.67
470.375	5.52
470.577	5.61
470.78	5.39
470.982	5.39
471.185	5.52
471.387	5.6
471.59	5.47
471.792	5.69
471.995	5.69
472.197	5.59
472.399	5.56
472.602	5.52
472.804	5.45
473.007	5.52
473.209	5.56
473.411	5.53
473.614	5.35
473.816	5.49
474.018	5.46
474.22	5.37
474.423	5.56
474.625	5.63
474.827	5.68
475.03	5.68
475.232	5.73
475.434	5.76
475.636	5.89
475.838	5.87
476.04	5.74
476.243	5.62
476.445	5.72
476.647	5.65
476.849	5.57
477.051	5.45
477.253	5.51
477.455	5.48
477.657	5.48
477.859	5.33
478.061	5.36
478.263	5.36
478.465	5.56
478.667	5.41
478.869	5.37
479.071	5.39
479.273	5.48
479.475	5.25
479.677	5.19
479.879	5.19
480.081	5.2
480.283	5.14
480.485	5.15
480.686	5.16
480.888	5.25
481.09	5.31
481.292	5.26
481.494	5.29
481.695	5.52
481.897	5.48
482.099	5.46
482.301	5.48
482.502	5.49
482.704	5.46
482.906	5.36
483.107	5.31
483.309	5.24
483.511	5.26
483.712	5.21
483.914	5.14
484.115	5.12
484.317	5.1
484.519	5.09
484.72	5.07
484.922	5.08
485.123	5.12
485.325	5.12
485.526	5.15
485.728	5.16
485.929	5.14
486.131	5.17
486.332	5.23
486.534	5.22
486.735	5.22
486.936	5.14
487.138	5.11
487.339	5.02
487.541	5.07
487.742	5.02
487.943	4.98
488.144	5
488.346	4.94
488.547	4.96
488.748	4.99
488.95	4.88
489.151	4.99
489.352	5
489.553	5.03
489.755	5.01
489.956	5.06
490.157	5.12
490.358	5.16
490.559	5.31
490.76	5.23
490.961	5.19
491.163	5.32
491.364	5.31
491.565	5.26
491.766	5.23
491.967	5.21
492.168	5.17
492.369	5.17
492.57	5.19
492.771	5.13
492.972	5.2
493.173	5.29
493.374	5.22
493.575	5.3
493.776	5.44
493.976	5.56
494.177	5.6
494.378	5.72
494.579	5.71
494.78	5.89
494.981	5.86
495.182	5.75
495.382	5.75
495.583	5.78
495.784	5.65
495.985	5.57
496.185	5.51
496.386	5.45
496.587	5.49
496.788	5.41
496.988	5.35
497.189	5.37
497.39	5.42
497.59	5.44
497.791	5.55
497.992	5.53
498.192	5.53
498.393	5.57
498.593	5.69
498.794	5.57
498.994	5.68
499.195	5.63
499.395	5.75
499.596	5.91
499.796	5.86
499.997	5.83
500.197	6.02
500.398	6.17
500.598	6.17
500.799	6.08
500.999	6.15
501.199	6.18
501.4	6.15
501.6	6.05
501.801	6.03
502.001	6.14
502.201	6.16
502.402	6.08
502.602	6.03
502.802	6.06
503.002	6.08
503.203	6.22
503.403	6.16
503.603	6.14
503.803	6.12
504.003	5.99
504.204	5.94
504.404	5.96
504.604	5.91
504.804	5.98
505.004	6.05
505.204	6.14
505.404	6.18
505.604	6.44
505.804	6.41
506.005	6.42
506.205	6.51
506.405	6.56
506.605	6.62
506.805	6.73
507.005	6.69
507.204	6.63
507.404	6.69
507.604	6.63
507.804	6.45
508.004	6.55
508.204	6.62
508.404	6.65
508.604	6.54
508.804	6.44
509.003	6.44
509.203	6.44
509.403	6.39
509.603	6.3
509.803	6.38
510.002	6.47
510.202	6.46
510.402	6.38
510.602	6.32
510.801	6.4
511.001	6.36
511.201	6.3
511.4	6.2
511.6	6.28
511.8	6.29
511.999	6.37
512.199	6.2
512.398	6.27
512.598	6.4
512.797	6.54
512.997	6.54
513.197	6.72
513.396	6.85
513.596	7.08
513.795	7.27
513.994	7.31
514.194	7.11
514.393	7.25
514.593	7.21
514.792	7.12
514.992	7.04
515.191	7.11
515.39	7.09
515.59	6.85
515.789	6.73
515.988	6.58
516.188	6.57
516.387	6.58
516.586	6.57
516.786	6.66
516.985	6.74
517.184	6.72
517.383	6.75
517.582	6.75
517.782	6.87
517.981	6.79
518.18	6.76
518.379	6.82
518.578	6.8
518.777	6.86
518.976	6.75
519.176	6.79
519.375	6.88
519.574	6.86
519.773	6.78
519.972	6.68
520.171	6.71
520.37	6.73
520.569	6.75
520.768	6.89
520.967	7.02
521.166	7.16
521.365	7.08
521.564	7
521.762	7.11
521.961	7.17
522.16	7.42
522.359	7.47
522.558	7.5
522.757	7.43
522.956	7.49
523.154	7.26
523.353	7.26
523.552	7.33
523.751	7.48
523.949	7.37
524.148	7.46
524.347	7.46
524.546	7.39
524.744	7.33
524.943	7.44
525.142	7.4
525.34	7.52
525.539	7.49
525.737	7.48
525.936	7.4
526.135	7.36
526.333	7.28
526.532	7.2
526.73	7.22
526.929	7.22
527.127	7.11
527.326	7.05
527.524	7.06
527.723	7.03
527.921	7.09
528.12	7.11
528.318	7.16
528.516	7.22
528.715	7.22
528.913	7.18
529.112	7.26
529.31	7.31
529.508	7.33
529.707	7.33
529.905	7.35
530.103	7.33
530.301	7.33
530.5	7.33
530.698	7.3
530.896	7.38
531.094	7.58
531.293	7.55
531.491	7.6
531.689	7.61
531.887	7.69
532.085	7.75
532.283	7.84
532.481	7.93
532.68	7.92
532.878	8.04
533.076	8.01
533.274	7.95
533.472	8.04
533.67	8.06
533.868	8.15
534.066	8.14
534.264	8.05
534.462	7.99
534.66	8.03
534.858	8.17
535.056	8.15
535.253	8.26
535.451	8.29
535.649	8.3
535.847	8.4
536.045	8.36
536.243	8.46
536.441	8.65
536.638	8.84
536.836	8.9
537.034	8.89
537.232	8.87
537.43	8.96
537.627	9.12
537.825	9.21
538.023	9.18
538.22	9.29
538.418	9.32
538.616	9.36
538.813	9.41
539.011	9.48
539.209	9.48
539.406	9.52
539.604	9.59
539.801	9.61
539.999	9.63
540.196	9.69
540.394	9.75
540.591	9.75
540.789	9.68
540.986	9.56
541.184	9.54
541.381	9.53
541.579	9.61
541.776	9.53
541.974	9.51
542.171	9.53
542.368	9.51
542.566	9.55
542.763	9.61
542.96	9.71
543.158	9.89
543.355	10.01
543.552	10.15
543.75	10.26
543.947	10.32
544.144	10.37
544.341	10.5
544.539	10.64
544.736	10.65
544.933	10.59
545.13	10.72
545.327	10.64
545.524	10.59
545.722	10.61
545.919	10.59
546.116	10.74
546.313	10.84
546.51	10.94
546.707	11.01
546.904	11.18
547.101	11.38
547.298	11.43
547.495	11.6
547.692	11.72
547.889	11.78
548.086	12
548.283	12.14
548.48	12.3
548.677	12.24
548.874	12.3
549.07	12.39
549.267	12.38
549.464	12.39
549.661	12.45
549.858	12.48
550.055	12.67
550.251	12.7
550.448	12.82
550.645	12.86
550.842	13.01
551.038	13.12
551.235	13.01
551.432	13.1
551.628	13.19
551.825	13.48
552.022	13.5
552.218	13.58
552.415	13.67
552.612	13.55
552.808	13.61
553.005	13.58
553.201	13.82
553.398	13.91
553.594	13.99
553.791	14.21
553.987	14.17
554.184	14.5
554.38	14.68
554.577	14.71
554.773	14.93
554.97	15.15
555.166	15.44
555.362	15.37
555.559	15.74
555.755	15.86
555.952	16.02
556.148	16.06
556.344	15.82
556.541	15.6
556.737	15.71
556.933	15.82
557.129	15.53
557.326	15.52
557.522	15.66
557.718	15.67
557.914	15.68
558.11	15.84
558.307	15.98
558.503	16.32
558.699	16.45
558.895	16.69
559.091	16.68
559.287	17.05
559.483	17.2
559.679	17.32
559.876	17.34
560.072	17.61
560.268	17.49
560.464	17.32
560.66	17.34
560.856	17.66
561.052	17.56
561.247	17.86
561.443	17.97
561.639	18.06
561.835	18.31
562.031	18.45
562.227	18.39
562.423	18.49
562.619	18.71
562.815	18.93
563.01	19.14
563.206	19.44
563.402	19.51
563.598	19.56
563.793	19.67
563.989	19.48
564.185	19.58
564.381	19.85
564.576	20.07
564.772	20.38
564.968	20.4
565.163	20.27
565.359	20.09
565.555	20.11
565.75	20.37
565.946	20.49
566.141	20.54
566.337	20.67
566.532	20.83
566.728	20.92
566.923	20.91
567.119	20.91
567.314	20.96
567.51	21.24
567.705	21.34
567.901	21.38
568.096	21.53
568.292	21.82
568.487	21.8
568.682	21.78
568.878	21.7
569.073	21.84
569.268	22.05
569.464	22.3
569.659	22.42
569.854	22.41
570.05	22.41
570.245	22.29
570.44	22.38
570.635	22.6
570.831	22.7
571.026	22.93
571.221	22.95
571.416	22.82
571.611	22.7
571.806	22.82
572.002	23.03
572.197	23.19
572.392	23.31
572.587	23.36
572.782	23.33
572.977	23.44
573.172	23.69
573.367	23.71
573.562	24.06
573.757	24.13
573.952	24.22
574.147	24.36
574.342	24.5
574.537	24.65
574.732	24.61
574.927	24.66
575.121	24.75
575.316	24.7
575.511	24.82
575.706	24.68
575.901	25.13
576.096	25.26
576.29	25.15
576.485	25.16
576.68	25.27
576.875	25.5
577.069	25.7
577.264	25.85
577.459	26.18
577.654	26.32
577.848	26.62
578.043	26.73
578.238	26.78
578.432	27.08
578.627	27.3
578.821	27.57
579.016	27.86
579.21	28.23
579.405	28.32
579.6	28.24
579.794	28.45
579.989	28.54
580.183	28.44
580.378	28.52
580.572	28.62
580.766	28.57
580.961	28.54
581.155	28.55
581.35	28.37
581.544	28.27
581.738	28.29
581.933	28.46
582.127	28.73
582.321	28.83
582.516	28.86
582.71	28.8
582.904	29.18
583.099	29.21
583.293	29.27
583.487	29.46
583.681	29.93
583.875	30.06
584.07	30.16
584.264	30.16
584.458	30.21
584.652	30.21
584.846	30.44
585.04	30.16
585.234	30.38
585.428	30.42
585.623	30.36
585.817	30.24
586.011	30.2
586.205	30.44
586.399	30.68
586.593	30.72
586.787	30.9
586.981	30.81
587.174	30.98
587.368	30.88
587.562	31.09
587.756	31.28
587.95	31.29
588.144	31.46
588.338	31.36
588.532	31.09
588.725	31.24
588.919	31.37
589.113	31.33
589.307	31.35
589.501	31.38
589.694	31.37
589.888	31.33
590.082	31.27
590.275	31.3
590.469	31.26
590.663	31.26
590.856	31.38
591.05	31.5
591.244	31.77
591.437	32.02
591.631	32.15
591.824	32.13
592.018	32.4
592.212	32.64
592.405	32.36
592.599	32.37
592.792	32.6
592.986	32.63
593.179	32.73
593.372	32.64
593.566	32.42
593.759	32.44
593.953	32.31
594.146	32.03
594.339	32.01
594.533	32.42
594.726	32.57
594.92	32.51
595.113	32.55
595.306	32.18
595.499	32.2
595.693	32.25
595.886	32.26
596.079	32.43
596.272	32.51
596.466	32.59
596.659	32.56
596.852	32.43
597.045	32.62
597.238	32.48
597.431	32.7
597.624	32.68
597.818	32.81
598.011	32.98
598.204	33.08
598.397	33.3
598.59	33.13
598.783	33.27
598.976	33.5
599.169	33.56
599.362	33.78
599.555	34.04
599.748	34.5
599.941	34.42
600.134	34.4
600.326	34.5
600.519	34.67
600.712	34.98
600.905	34.95
601.098	35.14
601.291	35.23
601.483	35.47
601.676	35.27
601.869	34.85
602.062	35.05
602.255	34.96
602.447	34.8
602.64	34.59
602.833	34.53
603.025	34.3
603.218	34.1
603.411	33.94
603.603	33.51
603.796	33.58
603.989	33.64
604.181	33.71
604.374	33.75
604.566	33.77
604.759	33.68
604.951	33.6
605.144	33.76
605.336	33.88
605.529	33.9
605.721	34.23
605.914	34.32
606.106	34.63
606.299	34.62
606.491	34.82
606.683	35.07
606.876	35.31
607.068	35.62
607.26	35.81
607.453	35.77
607.645	35.88
607.837	35.72
608.03	35.97
608.222	35.77
608.414	35.78
608.606	35.81
608.799	35.89
608.991	35.92
609.183	35.87
609.375	35.72
609.567	35.87
609.759	35.95
609.952	36.09
610.144	35.95
610.336	35.99
610.528	35.99
610.72	35.96
610.912	35.95
611.104	36.21
611.296	36.34
611.488	36.56
611.68	36.65
611.872	36.72
612.064	37.02
612.256	37.09
612.448	37.41
612.64	37.5
612.832	37.73
613.023	37.85
613.215	37.79
613.407	37.97
613.599	38.07
613.791	38.04
613.983	38.02
614.174	37.94
614.366	38.1
614.558	38.17
614.75	38.17
614.941	38.01
615.133	38.25
615.325	38.56
615.516	38.63
615.708	38.51
615.9	38.73
616.091	38.78
616.283	38.81
616.475	38.68
616.666	38.55
616.858	38.73
617.049	38.71
617.241	38.55
617.432	38.13
617.624	38.14
617.815	38.29
618.007	38.27
618.198	38.64
618.39	38.61
618.581	38.86
618.773	38.93
618.964	39.03
619.155	39.31
619.347	39.31
619.538	39.56
619.729	39.49
619.921	39.5
620.112	39.24
620.303	38.97
620.494	39
620.686	38.9
620.877	38.86
621.068	38.68
621.259	38.63
621.451	38.72
621.642	38.66
621.833	38.82
622.024	39.04
622.215	39.38
622.406	39.47
622.597	39.71
622.788	39.49
622.98	39.48
623.171	39.82
623.362	39.81
623.553	40.09
623.744	39.93
623.935	40.12
624.126	40.01
624.317	39.77
624.508	39.9
624.698	39.75
624.889	40.14
625.08	40.52
625.271	40.52
625.462	40.35
625.653	39.96
625.844	40.14
626.034	39.79
626.225	39.78
626.416	39.64
626.607	39.64
626.798	39.64
626.988	39.43
627.179	39.11
627.37	38.68
627.56	38.89
627.751	39.12
627.942	39.05
628.132	39.1
628.323	39.31
628.514	39.58
628.704	39.48
628.895	39.42
629.085	39.5
629.276	39.84
629.466	40.32
629.657	40.3
629.847	40.17
630.038	40.39
630.228	40.64
630.419	40.68
630.609	40.94
630.8	40.78
630.99	40.95
631.181	41.45
631.371	41.24
631.561	41.3
631.752	41.69
631.942	41.7
632.132	41.74
632.323	41.58
632.513	41.34
632.703	41.37
632.893	41.58
633.084	41.55
633.274	41.05
633.464	41.15
633.654	41.15
633.844	40.89
634.034	40.67
634.225	40.49
634.415	40.51
634.605	40.65
634.795	40.31
634.985	40.66
635.175	40.79
635.365	40.95
635.555	41.03
635.745	40.82
635.935	40.77
636.125	40.96
636.315	40.99
636.505	41.19
636.695	41.12
636.885	40.96
637.075	40.69
637.265	40.68
637.455	40.4
637.644	40.28
637.834	40.8
638.024	41.06
638.214	41.4
638.404	41.84
638.593	41.89
638.783	41.91
638.973	42.79
639.163	42.59
639.352	42.88
639.542	43.64
639.732	43.86
639.921	43.68
640.111	44.1
640.301	44.17
640.49	44.14
640.68	43.97
640.87	44.25
641.059	44.19
641.249	44.63
641.438	44.33
641.628	43.92
641.817	44.17
642.007	44.25
642.196	43.86
642.386	43.76
642.575	43.94
642.764	43.73
642.954	43.34
643.143	43.44
643.333	43.49
643.522	43.68
643.711	43.92
643.901	43.75
644.09	43.77
644.279	43.91
644.469	43.82
644.658	43.48
644.847	43.96
645.036	44.3
645.226	44.1
645.415	44.08
645.604	44.05
645.793	44.2
645.982	44.27
646.171	44.12
646.361	44.54
646.55	44.8
646.739	44.87
646.928	45.07
647.117	45.14
647.306	44.92
647.495	45.07
647.684	45.13
647.873	45.12
648.062	45.08
648.251	45.34
648.44	44.68
648.629	44.47
648.818	44.6
649.007	44.04
649.196	43.96
649.384	44.09
649.573	43.83
649.762	43.96
649.951	43.64
650.14	43.61
650.328	43.44
650.517	43.9
650.706	44.21
650.895	44.59
651.083	44.97
651.272	44.69
651.461	44.94
651.65	45.4
651.838	45.07
652.027	45.44
652.216	45.56
652.404	45.94
652.593	45.76
652.781	45.74
652.97	45.51
653.158	45.41
653.347	46.04
653.535	45.78
653.724	45.21
653.912	45.68
654.101	45.61
654.289	45.34
654.478	45.2
654.666	45.15
654.855	45.12
655.043	44.79
655.231	44.58
655.42	44.75
655.608	44.88
655.796	45.06
655.985	44.56
656.173	44.51
656.361	44.65
656.55	44.41
656.738	44.17
656.926	44.06
657.114	44.48
657.302	44.71
657.491	44.17
657.679	43.69
657.867	43.74
658.055	43.86
658.243	43.51
658.431	43.3
658.619	43.19
658.807	43.55
658.996	43.48
659.184	43.02
659.372	43.03
659.56	43.04
659.748	43.2
659.936	43.24
660.124	43.22
660.311	43.4
660.499	43.51
660.687	43.69
660.875	43.58
661.063	43.52
661.251	43.7
661.439	43.6
661.627	44.08
661.814	44.22
662.002	44.06
662.19	44.49
662.378	44.6
662.565	44.92
662.753	45.24
662.941	45.85
663.129	46.17
663.316	46.64
663.504	46.97
663.692	46.94
663.879	47.37
664.067	47.89
664.254	47.75
664.442	47.7
664.63	47.9
664.817	47.85
665.005	47.25
665.192	47.5
665.38	47.48
665.567	47.78
665.755	47.8
665.942	47.69
666.13	47.97
666.317	48.08
666.504	48.15
666.692	47.81
666.879	48.09
667.067	48.37
667.254	48.03
667.441	47.92
667.629	47.36
667.816	47.33
668.003	46.98
668.19	46.62
668.378	46.42
668.565	46.54
668.752	46.6
668.939	46
669.127	45.88
669.314	45.92
669.501	45.69
669.688	46.37
669.875	46.47
670.062	46.87
670.249	46.93
670.436	46.92
670.623	47.25
670.81	47.41
670.997	47.91
671.184	47.96
671.371	48.6
671.558	48.78
671.745	48.58
671.932	48.21
672.119	48.19
672.306	48.28
672.493	48.54
672.68	48.53
672.867	48.83
673.054	48.54
673.24	48.4
673.427	48.31
673.614	48.49
673.801	48.69
673.988	48.91
674.174	48.86
674.361	48.83
674.548	48.65
674.734	48.59
674.921	48.21
675.108	48.86
675.294	48.21
675.481	47.5
675.668	47.64
675.854	47.19
676.041	47.12
676.227	47.22
676.414	47.31
676.601	48.06
676.787	47.85
676.974	48.23
677.16	47.54
677.347	47.76
677.533	47.97
677.719	47.71
677.906	47.3
678.092	47.54
678.279	46.99
678.465	46.28
678.651	46.02
678.838	46.09
679.024	46.04
679.21	45.66
679.397	45.87
679.583	45.9
679.769	46.14
679.955	46.23
680.142	46.2
680.328	46.55
680.514	46.74
680.7	46.08
680.886	46.48
681.073	46.17
681.259	46.46
681.445	46.65
681.631	46.59
681.817	46.56
682.003	47.01
682.189	46.88
682.375	46.72
682.561	47.06
682.747	47.52
682.933	47.26
683.119	47.57
683.305	47.89
683.491	48
683.677	48.12
683.863	47.8
684.049	47.85
684.235	47.51
684.42	47.95
684.606	48.04
684.792	48.44
684.978	48.3
685.164	48.51
685.349	48.52
685.535	48.76
685.721	48.5
685.907	48.74
686.092	48.5
686.278	48.83
686.464	48.39
686.649	48.69
686.835	48.48
687.021	48.93
687.206	48.57
687.392	48.31
687.577	48.07
687.763	48.41
687.948	48.42
688.134	47.99
688.319	47.95
688.505	48.47
688.69	48.7
688.876	48.55
689.061	48.25
689.247	48.23
689.432	48.06
689.618	48.38
689.803	48.31
689.988	48.44
690.174	49.2
690.359	49.93
690.544	49.5
690.73	49.27
690.915	49.17
691.1	49.08
691.285	49.4
691.471	50.01
691.656	50.12
691.841	50.17
692.026	50.4
692.211	50.52
692.396	50.39
692.582	50.7
692.767	50.56
692.952	50.51
693.137	50.9
693.322	50.95
693.507	51.15
693.692	50.89
693.877	51.14
694.062	51.03
694.247	51.5
694.432	51.38
694.617	51.68
694.802	52.18
694.987	52.54
695.172	53.07
695.357	52.81
695.541	52.91
695.726	53.05
695.911	53.31
696.096	52.79
696.281	52.36
696.466	51.82
696.65	51.2
696.835	50.94
697.02	50.96
697.204	49.68
697.389	49.88
697.574	48.97
697.759	48.54
697.943	47.61
698.128	47.64
698.312	47.15
698.497	46.83
698.682	46.71
698.866	46.31
699.051	46.15
699.235	46.01
699.42	46.12
699.604	46.55
699.789	46.57
699.973	47.01
700.158	47.35
700.342	47.37
700.527	48.19
700.711	49.02
700.895	48.87
701.08	49.42
701.264	50.26
701.448	50.15
701.633	50.28
701.817	50.72
702.001	51.11
702.186	50.68
702.37	51.45
702.554	51.05
702.738	50.6
702.923	50.97
703.107	50.63
703.291	50.92
703.475	50.76
703.659	50.35
703.843	50.21
704.027	50.32
704.212	50.43
704.396	49.87
704.58	50.25
704.764	50.22
704.948	50.45
705.132	49.81
705.316	49.97
705.5	50.56
705.684	51.7
705.868	51.67
706.052	50.99
706.235	51.36
706.419	51.55
706.603	51.65
706.787	51.27
706.971	51.94
707.155	52.44
707.339	52.15
707.522	51.74
707.706	51.03
707.89	50.9
708.074	51.82
708.257	51.96
708.441	51.85
708.625	51.78
708.808	52.41
708.992	51.89
709.176	52.17
709.359	51.74
709.543	51.62
709.727	51.86
709.91	51.85
710.094	51.08
710.277	51.07
710.461	51.18
710.644	51.23
710.828	51.23
711.011	50.82
711.195	50.64
711.378	50.91
711.562	51.27
711.745	51.33
711.928	51.33
712.112	51.57
712.295	51.5
712.478	51.28
712.662	51.5
712.845	51.69
713.028	51.82
713.212	51.36
713.395	51.37
713.578	51.45
713.761	51.17
713.945	51.45
714.128	51.65
714.311	51.81
714.494	51.59
714.677	51.2
714.86	51.24
715.043	52.25
715.227	52.76
715.41	52.44
715.593	52.48
715.776	52.53
715.959	52.61
716.142	52.54
716.325	51.74
716.508	52.57
716.691	52.92
716.874	53.02
717.057	52.05
717.239	52.05
717.422	51.93
717.605	51.45
717.788	51.44
717.971	51.74
718.154	51.61
718.337	52.45
718.519	52.11
718.702	52.14
718.885	51.73
719.068	51.58
719.25	51.94
719.433	52.58
719.616	52.77
719.798	52.04
719.981	52.58
720.164	52.9
720.346	53.24
720.529	53.9
720.712	54.11
720.894	54.78
721.077	55.38
721.259	54.95
721.442	55.6
721.624	55.46
721.807	56.16
721.989	54.95
722.172	54.63
722.354	54.78
722.537	54.38
722.719	53.65
722.901	52.99
723.084	53.25
723.266	53.64
723.448	53.26
723.631	53.17
723.813	53.29
723.995	53.19
724.178	53.16
724.36	53.27
724.542	52.9
724.724	53.34
724.907	53.61
725.089	52.67
725.271	53.65
725.453	53.08
725.635	53.42
725.817	53.85
725.999	54.72
726.181	55.42
726.364	54
726.546	54.7
726.728	55
726.91	54.43
727.092	54.65
727.274	53.57
727.456	54.15
727.638	54.4
727.819	53.95
728.001	53.55
728.183	53.36
728.365	54.56
728.547	54.31
728.729	54.3
728.911	54.69
729.093	54.92
729.274	53.84
729.456	53.78
729.638	53.43
729.82	53.38
730.001	53.01
730.183	53.76
730.365	53.91
730.546	53.59
730.728	52.64
730.91	52.56
731.091	52.83
731.273	53.34
731.455	53.2
731.636	53.37
731.818	53.58
731.999	53.37
732.181	52.68
732.362	52.14
732.544	53.32
732.725	53.98
732.907	53.76
733.088	53.84
733.27	54.89
733.451	54.53
733.633	55.68
733.814	55.51
733.995	56.55
734.177	56.38
734.358	56.23
734.539	56.09
734.721	55.76
734.902	55.37
735.083	55.59
735.264	55.35
735.446	55.85
735.627	54.78
735.808	54.56
735.989	54.29
736.17	55.19
736.351	55.13
736.533	54.46
736.714	53.83
736.895	54.35
737.076	54.03
737.257	53.69
737.438	52.65
737.619	52.79
737.8	54.01
737.981	55.01
738.162	54.45
738.343	54.81
738.524	53.65
738.705	54.74
738.886	55.57
739.067	55.24
739.247	54.98
739.428	55.49
739.609	54.26
739.79	52.92
739.971	51.3
740.151	50.24
740.332	50.26
740.513	50.58
740.694	50.22
740.874	49.42
741.055	49.64
741.236	50
741.417	50.17
741.597	51.09
741.778	52.21
741.958	52.25
742.139	53.61
742.32	53.7
742.5	54.6
742.681	54.53
742.861	54.36
743.042	54.23
743.222	54.64
743.403	54.61
743.583	54.93
743.764	54.42
743.944	54.7
744.124	54.7
744.305	54.53
744.485	54.92
744.666	54.88
744.846	55.24
745.026	55.89
745.207	54.52
745.387	55.12
745.567	55.4
745.747	55.19
745.928	55.75
746.108	56.4
746.288	55.77
746.468	54.52
746.648	55.23
746.829	55.11
747.009	55.6
747.189	56.72
747.369	56.94
747.549	56.11
747.729	56.99
747.909	56.24
748.089	55.18
748.269	55.8
748.449	57.4
748.629	56.52
748.809	56.57
748.989	55.68
749.169	55.84
749.349	55.04
749.529	56.01
749.709	54.66
749.889	55.12
750.068	54.44
750.248	54.84
750.428	54.99
750.608	55.86
750.788	55.13
750.967	55.04
751.147	54
751.327	55.07
751.507	54.26
751.686	54.64
751.866	54.85
752.046	56.41
752.225	55.82
752.405	55.37
752.585	54.27
752.764	55.07
752.944	55.82
753.123	56.17
753.303	56.06
753.482	56.24
753.662	55.69
753.841	55.2
754.021	55.14
754.2	55.87
754.38	55.71
754.559	56.58
754.739	55.82
754.918	54.72
755.097	55.41
755.277	54.38
755.456	53.85
755.635	54.65
755.815	54.83
755.994	53.31
756.173	52.59
756.352	51.1
756.532	51.13
756.711	51.45
756.89	50.4
757.069	50.97
757.248	51.13
757.427	49.9
757.607	49.4
757.786	50.01
757.965	50.83
758.144	51.04
758.323	52.16
758.502	52.04
758.681	52.9
758.86	54.72
759.039	53.97
759.218	54.17
759.397	56.3
759.576	55.79
759.755	54.81
759.934	55.17
760.113	55.82
760.291	55.28
760.47	55.8
760.649	55.43
760.828	55.45
761.007	55.56
761.186	56.01
761.364	55.68
761.543	56.55
761.722	56.76
761.901	55.3
762.079	54.65
762.258	54.39
762.437	53.64
762.615	52.88
762.794	52.23
762.972	51.64
763.151	50.45
763.33	50.31
763.508	49.37
763.687	49.07
763.865	49.73
764.044	49.63
764.222	49.97
764.401	50.11
764.579	50.07
764.758	49.77
764.936	49.82
765.114	50.31
765.293	49.7
765.471	50.55
765.65	51.92
765.828	51.76
766.006	51.58
766.184	51.59
766.363	51.55
766.541	52.14
766.719	53.67
766.898	54.19
767.076	54.96
767.254	55.6
767.432	56.46
767.61	55.12
767.788	55.57
767.967	56.53
768.145	57.09
768.323	56.71
768.501	57.01
768.679	56.91
768.857	56.56
769.035	56.65
769.213	57.29
769.391	57.3
769.569	57.45
769.747	58.57
769.925	57.57
770.103	56.89
770.281	57.01
770.459	57.02
770.636	55.59
770.814	56.25
770.992	56.62
771.17	55.99
771.348	55.13
771.525	55.2
771.703	54.45
771.881	55.21
772.059	56.38
772.236	57.44
772.414	57.42
772.592	58.47
772.769	58.63
772.947	57.66
773.125	57.7
773.302	58.32
773.48	60.19
773.657	59.87
773.835	58.48
774.013	58.71
774.19	59.36
774.368	59.21
774.545	59.32
774.723	59.02
774.9	58.95
775.077	61.07
775.255	60.86
775.432	59.32
775.61	60.03
775.787	61.86
775.964	60.96
776.142	61.01
776.319	62.52
776.496	62.41
776.674	62.24
776.851	64.11
777.028	61.8
777.205	61.91
777.382	61.21
777.56	60.01
777.737	61.08
777.914	60.13
778.091	60.25
778.268	59.68
778.445	60.24
778.622	59.02
778.8	58.49
778.977	59.08
779.154	64.03
779.331	64.53
779.508	65.1
779.685	63.67
779.862	63.7
780.038	62.38
780.215	62.23
780.392	61.41
780.569	61.51
780.746	61.56
780.923	62.85
781.1	57.62
781.277	58.69
781.453	58.08
781.63	58.59
781.807	59.07
781.984	58.63
782.16	58.39
782.337	59.15
782.514	60.34
782.691	63.22
782.867	60.58
783.044	60.4
783.221	59.64
783.397	62.12
783.574	59.47
783.75	62.26
783.927	65.04
784.103	65.99
784.28	66.97
784.456	67.6
784.633	63.53
784.809	65.34
784.986	65.26
785.162	64.07
785.339	61.18
785.515	63.69
785.692	58.51
785.868	57.5
786.044	57.2
786.221	54.46
786.397	53.94
786.573	55.04
786.749	53.88
786.926	56.67
787.102	56.63
787.278	57.46
787.454	59.55
787.631	64.39
787.807	63.16
787.983	61.32
788.159	62.74
788.335	60.96
788.511	59.93
788.687	60.77
788.863	58.06
789.039	59.42
789.216	58.49
789.392	56.09
789.568	55.41
789.744	56.32
789.919	56.32
790.095	54.48
790.271	56.93
790.447	56.44
790.623	56.65
790.799	55.63
790.975	55.33
791.151	57.85
791.327	58.3
791.502	57.75
791.678	56.04
791.854	56.81
792.03	58.19
792.205	59.3
792.381	60.63
792.557	60.39
792.733	60.63
792.908	60.47
793.084	57.69
793.259	58.7
793.435	57.78
793.611	58.61
793.786	58.93
793.962	58.06
794.137	57.82
794.313	56.69
794.488	54.66
794.664	57.44
794.839	57.29
795.015	59.33
795.19	59.02
795.366	60.17
795.541	59.01
795.716	58.13
795.892	60.51
796.067	57.52
796.242	57.43
796.418	58.87
796.593	58.5
796.768	58
796.944	57.35
797.119	56.25
797.294	55.63
797.469	57.86
797.644	59.07
797.82	58.12
797.995	57.2
798.17	55.82
798.345	55.85
798.52	54.88
798.695	55.9
798.87	54.99
799.045	55.13
799.22	55.87
799.395	56.8
799.57	57.46
799.745	57.91
799.92	60.43
800.095	64.74
800.27	63.51
800.445	65.51
800.62	64.82
800.795	68.62
800.97	69.98
801.145	69.27
801.319	68.72
801.494	67.47
801.669	66.06
801.844	66.84
802.018	61.56
802.193	63.31
802.368	61.85
802.543	61.37
802.717	59.72
802.892	57.33
803.067	58.17
803.241	56.07
803.416	56.39
803.59	57.14
803.765	56.17
803.94	60.55
804.114	58.16
804.289	58.94
804.463	60.09
804.638	57.41
804.812	60.32
804.986	56.42
805.161	57.51
805.335	58.6
805.51	60.1
805.684	58.62
805.858	56.44
806.033	55.97
806.207	54.35
806.381	54.02
806.556	55.92
806.73	55.31
806.904	57.27
807.078	56.65
807.253	56.36
807.427	53.68
807.601	55.36
807.775	56.99
807.949	62.17
808.123	64.85
808.298	66.36
808.472	66.9
808.646	65.91
808.82	65.39
808.994	65.24
809.168	66.35
809.342	69.14
809.516	70.25
809.69	69.19
809.864	67.19
810.038	66.55
810.212	65.42
810.385	62.36
810.559	64.4
810.733	66.67
810.907	67.06
811.081	63
811.255	60.51
811.428	58.87
811.602	60.12
811.776	59.82
811.95	58.62
812.123	59.54
812.297	62.1
812.471	61.12
812.644	60.19
812.818	61.46
812.992	64.43
813.165	68.81
813.339	65.76
813.512	64.54
813.686	63.37
813.86	63.7
814.033	61.75
814.207	60.54
814.38	58.87
814.554	57.91
814.727	56.72
814.9	55.8
815.074	54.68
815.247	58.83
815.421	58.94
815.594	62.31
815.767	60.94
815.941	61.19
816.114	62.36
816.287	64.97
816.46	64.33
816.634	63.66
816.807	66.58
816.98	63.05
817.153	64.04
817.327	62.54
817.5	59.54
817.673	62.58
817.846	62.95
818.019	62.72
818.192	62.82
818.365	59.66
818.538	58.81
818.711	53.69
818.884	54.74
819.057	53.36
819.23	53.3
819.403	52.34
819.576	49.56
819.749	49.83
819.922	49.89
820.095	47.97
820.268	49.05
820.441	50.57
820.614	51.74
820.786	50.36
820.959	48.12
821.132	47.39
821.305	46.82
821.477	45.79
821.65	46.12
821.823	45.05
821.996	44.34
822.168	43.7
822.341	43.16
822.514	43
822.686	42.88
822.859	43.32
823.031	42.99
823.204	43.36
823.376	44.12
823.549	43.63
823.722	43.77
823.894	44.44
824.067	45.08
824.239	45.71
824.411	46.02
824.584	46.4
824.756	46.54
824.929	47.33
825.101	47.77
825.273	47.46
825.446	47.57
825.618	47.65
825.79	47.74
825.963	47.66
826.135	47
826.307	46.4
826.479	46.72
826.652	46.5
826.824	45.86
826.996	45.07
827.168	45.43
827.34	45.81
827.512	46.02
827.684	45.86
827.856	46.07
828.029	46.88
828.201	46.97
828.373	46.17
828.545	46.82
828.717	47.61
828.889	48.21
829.061	48.47
829.232	48.77
829.404	49.66
829.576	49.3
829.748	48.86
829.92	49
830.092	50.88
830.264	51.43
830.436	52.4
830.607	54.08
830.779	55.64
830.951	56.11
831.123	56.02
831.294	54.28
831.466	52.37
831.638	53.25
831.809	54.39
831.981	55.08
832.153	57.64
832.324	56.32
832.496	54.64
832.667	54.27
832.839	54.18
833.011	54.7
833.182	55.03
833.354	57.33
833.525	60.67
833.697	58.81
833.868	55.31
834.039	56.02
834.211	56.86
834.382	55.51
834.554	55.92
834.725	54.53
834.896	53.12
835.068	53.27
835.239	53.4
835.41	52.19
835.581	51.78
835.753	52.94
835.924	50.04
836.095	48.69
836.266	50.79
836.438	47.43
836.609	49.01
836.78	50.19
836.951	52.31
837.122	50.09
837.293	49.72
837.464	51.63
837.635	52.13
837.806	54.26
837.977	54.56
838.148	55
838.319	58.3
838.49	59.17
838.661	60.95
838.832	59.74
839.003	64.52
839.174	64.91
839.345	65.42
839.516	69.74
839.687	71.43
839.857	71.64
840.028	70.48
840.199	72.39
840.37	72.32
840.54	72.61
840.711	67.74
840.882	64.27
841.053	64.38
841.223	60.4
841.394	54.46
841.564	56.74
841.735	58.86
841.906	59.54
842.076	54.2
842.247	55.98
842.417	56.23
842.588	63.49
842.758	69.75
842.929	67.5
843.099	72.13
843.27	77.44
843.44	75.91
843.611	76.02
843.781	68.89
843.951	73.79
844.122	73.7
844.292	77.21
844.462	75.86
844.633	73.69
844.803	76.56
844.973	74.79
845.144	75.69
845.314	79.12
845.484	74.52
845.654	84.48
845.824	85.36
845.995	83.63
846.165	78.65
846.335	82.53
846.505	85.22
846.675	87.09
846.845	97.61
847.015	96.76
847.185	94.54
847.355	104.2
847.525	109.45
847.695	120.56
847.865	123.87
848.035	127.03
848.205	119.14
848.375	128.64
848.545	114.4
848.715	109.4
848.884	105.29
849.054	104.69
849.224	102.18
849.394	99.89
849.564	85.81
849.733	82.1
849.903	84.9
850.073	85.07
850.243	79.72
850.412	85.13
850.582	77.13
850.752	79.33
850.921	78.33
851.091	76.22
851.26	79.55
851.43	79.48
851.599	83.2
851.769	86.97
851.939	89.64
852.108	93.15
852.278	97.35
852.447	94.7
852.616	98.78
852.786	95.59
852.955	94.99
853.125	92.03
853.294	95.23
853.463	87.9
853.633	91.49
853.802	95.54
853.971	97.21
854.141	96.46
854.31	94.38
854.479	86.15
854.648	88.7
854.818	83.29
854.987	85.16
855.156	89.23
855.325	99.2
855.494	101.45
855.663	90.7
855.832	73.68
856.001	73.27
856.171	85.93
856.34	85.87
856.509	94.48
856.678	104.99
856.847	107.25
857.016	99.61
857.185	96.72
857.353	103.11
857.522	107.87
857.691	119.11
857.86	123.24
858.029	110.42
858.198	119.82
858.367	117.4
858.535	123.41
858.704	111.05
858.873	113.2
859.042	114.75
859.21	107.59
859.379	105.09
859.548	99.58
859.717	97.05
859.885	99.9
860.054	98.63
860.222	88.97
860.391	95.41
860.56	101.54
860.728	107.94
860.897	103.89
861.065	102.12
861.234	98.14
861.402	108.38
861.571	105.77
861.739	112.44
861.908	111.37
862.076	119.43
862.244	113.48
862.413	105.84
862.581	111.81
862.749	112.88
862.918	96.45
863.086	98.56
863.254	99.29
863.423	95.85
863.591	99.53
863.759	99.2
863.927	106.23
864.096	100.29
864.264	107.37
864.432	97.1
864.6	92.87
864.768	104.69
864.936	114.88
865.104	109.07
865.272	113.35
865.44	113.37
865.608	109.1
865.776	99.85
865.944	103.37
866.112	97.98
866.28	100.81
866.448	109.19
866.616	103.61
866.784	98.57
866.952	99.37
867.12	98.62
867.288	92.35
867.455	92.64
867.623	100.11
867.791	94.83
867.959	98.67
868.127	91.15
868.294	89.13
868.462	80.6
868.63	79.16
868.797	84.45
868.965	85.91
869.133	88.48
869.3	86.46
869.468	86.78
869.636	78.72
869.803	80.28
869.971	90.3
870.138	91.71
870.306	99.24
870.473	92.4
870.641	81.06
870.808	71
870.975	72.6
871.143	74.63
871.31	66.14
871.478	85.29
871.645	76.36
871.812	73.37
871.98	68.41
872.147	73.31
872.314	73.4
872.482	80.96
872.649	86.94
872.816	82.77
872.983	87.8
873.15	95.05
873.318	89.33
873.485	107.82
873.652	104.73
873.819	117.72
873.986	126.57
874.153	128.41
874.32	126.37
874.487	133.34
874.654	115.68
874.821	114.25
874.988	105.43
875.155	98.51
875.322	91.02
875.489	91.8
875.656	80.15
875.823	76.5
875.99	70.46
876.157	74.72
876.324	70.46
876.49	81.08
876.657	84.4
876.824	93.4
876.991	103.54
877.157	99.11
877.324	108.57
877.491	123.05
877.658	125.26
877.824	123.1
877.991	117.13
878.157	118.7
878.324	117.66
878.491	118.34
878.657	118.06
878.824	108.42
878.99	104.13
879.157	100.48
879.323	87.06
879.49	84.09
879.656	87.18
879.823	82.04
879.989	81.61
880.156	80.17
880.322	76.83
880.488	72.55
880.655	72.04
880.821	72.3
880.987	72.77
881.154	72.08
881.32	68.14
881.486	67.86
881.652	66.28
881.819	65.83
881.985	63.02
882.151	57.86
882.317	57.39
882.483	53.49
882.649	55.34
882.816	51.96
882.982	50.13
883.148	48.74
883.314	46.9
883.48	48.99
883.646	48.01
883.812	47.41
883.978	48.73
884.144	48.58
884.31	48.26
884.476	47.63
884.642	47.97
884.807	50.59
884.973	52.6
885.139	52.18
885.305	51.73
885.471	52.84
885.637	52.96
885.802	53.45
885.968	54.11
886.134	56.93
886.3	56.14
886.465	57.19
886.631	52.99
886.797	50.73
886.962	51.94
887.128	51.99
887.293	52.41
887.459	56.53
887.625	57.29
887.79	57.73
887.956	55.02
888.121	57.7
888.287	57.05
888.452	63.84
888.618	68.98
888.783	77
