Data from LC_164_Reflection_4.txt Node
Date: Mon Nov 16 22:58:52 EST 2015
User: robert
Spectrometer: USB4E03001
Autoset integration time: false
Trigger mode: 4
Integration Time (sec): 1.000000E-1
Scans to average: 15
Electric dark correction enabled: true
Nonlinearity correction enabled: false
Boxcar width: 5
Stray light correction enabled: false
XAxis mode: Wavelengths
Stop averaging: false
Number of Pixels in Spectrum: 3648
>>>>>Begin Spectral Data<<<<<
177.566	3877.11
177.785	315.13
178.005	-2942.86
178.225	263.34
178.445	273.91
178.665	524.66
178.885	869.75
179.105	1857.94
179.324	2362.15
179.544	-277.79
179.764	-1139.82
179.984	-323.42
180.204	-312.9
180.423	-323.99
180.643	-444.65
180.863	-281.44
181.083	-188.28
181.302	-260.45
181.522	-239.38
181.742	-214.07
181.961	-382.3
182.181	-365.66
182.401	-470.65
182.621	-2060.22
182.84	-939.72
183.06	-667.12
183.279	-381.51
183.499	-286.41
183.719	-251.85
183.938	-251.08
184.158	-271.79
184.377	-174.64
184.597	-253.17
184.816	-172.81
185.036	-89.47
185.256	-78.82
185.475	-110.28
185.695	-194.93
185.914	-300.61
186.134	-570.08
186.353	-672.08
186.572	-971.83
186.792	-1560.04
187.011	-633.81
187.231	-593.3
187.45	-462.67
187.67	-1162.64
187.889	-3017.38
188.108	5136.5
188.328	-1243.63
188.547	-415.1
188.766	-770.78
188.986	-1086.92
189.205	-783.88
189.424	-527.86
189.644	-1587.67
189.863	-1722.71
190.082	-1256.31
190.302	-2591.49
190.521	-1553.21
190.74	1538.3
190.959	675.82
191.178	1066.44
191.398	907.88
191.617	769.13
191.836	727.35
192.055	1560.86
192.274	627.71
192.494	691.45
192.713	693.82
192.932	1680.51
193.151	1532.23
193.37	2806.83
193.589	-1640.64
193.808	-427.09
194.027	-582.05
194.246	-5337.43
194.465	1011.87
194.685	2709.61
194.904	1195.43
195.123	-1827.84
195.342	-1095.94
195.561	-439.35
195.78	-654.44
195.999	26711.27
196.218	975.39
196.436	881.64
196.655	-3219.34
196.874	-1278.04
197.093	-1556.66
197.312	-1215.38
197.531	3158.17
197.75	1138.31
197.969	-4160.76
198.188	-983.71
198.407	-293.74
198.625	-349.07
198.844	-274.63
199.063	-270.39
199.282	-449.77
199.501	-334.46
199.719	-248.91
199.938	-153.97
200.157	-131.4
200.376	-154.96
200.594	-206.63
200.813	-508.8
201.032	-360.99
201.251	-311.15
201.469	-263.72
201.688	-214
201.907	-393.76
202.125	-646.86
202.344	24434.52
202.563	4135.28
202.781	663.23
203	2091.99
203.218	1477.5
203.437	1397.9
203.656	714.33
203.874	436.71
204.093	402.04
204.311	535.5
204.53	499.22
204.748	730.03
204.967	534.84
205.185	533.14
205.404	548.35
205.622	350.81
205.841	254.38
206.059	313.67
206.278	407.89
206.496	1129.03
206.715	556.15
206.933	455.9
207.151	402.56
207.37	431.69
207.588	450.32
207.806	398.54
208.025	854.49
208.243	-1673.81
208.461	2298.51
208.68	-21011.76
208.898	810.06
209.116	902.89
209.335	837.49
209.553	825.59
209.771	7864.17
209.989	1400.42
210.208	3551.14
210.426	-6707.85
210.644	3693.05
210.862	-3458.8
211.081	1614.4
211.299	-812.56
211.517	3494.57
211.735	-962.29
211.953	-320514.29
212.171	-6522.89
212.39	-20236.04
212.608	-44054.35
212.826	1554.92
213.044	1049.26
213.262	776.63
213.48	3981.86
213.698	406.43
213.916	540.53
214.134	349.41
214.352	693.02
214.57	441.15
214.788	604.94
215.006	504.52
215.224	417.77
215.442	339.02
215.66	333.85
215.878	271.19
216.096	300.96
216.314	343.38
216.532	662.28
216.75	564.52
216.968	525.94
217.185	1166.34
217.403	2210.54
217.621	-6462.65
217.839	-1920.29
218.057	-2204.37
218.275	4087.96
218.492	1240.98
218.71	1858.74
218.928	539.47
219.146	460.95
219.363	363.44
219.581	285.62
219.799	208.52
220.017	209.45
220.234	204.9
220.452	212.05
220.67	245.05
220.887	246.02
221.105	266.36
221.323	215.6
221.54	226.52
221.758	313.6
221.976	305.37
222.193	277.66
222.411	206.37
222.629	193.45
222.846	216.36
223.064	219.62
223.281	191.02
223.499	180.07
223.716	189.68
223.934	157.41
224.151	153.57
224.369	135.69
224.586	141.97
224.804	135.8
225.021	139.34
225.239	115.38
225.456	115.42
225.674	127.23
225.891	120.84
226.108	120.69
226.326	121.54
226.543	97.45
226.76	102.57
226.978	101.17
227.195	101.57
227.413	88.37
227.63	78.05
227.847	68.19
228.064	52.98
228.282	47.48
228.499	41.73
228.716	36
228.934	33.85
229.151	32.86
229.368	28.66
229.585	27.49
229.802	29.32
230.02	28.19
230.237	29.09
230.454	31.55
230.671	30.75
230.888	33.68
231.105	36.49
231.323	38.79
231.54	36.84
231.757	38.63
231.974	41.04
232.191	41.53
232.408	48.85
232.625	49.53
232.842	52.32
233.059	56.39
233.276	55.55
233.493	59.28
233.71	57.46
233.927	63.23
234.144	61.86
234.361	59.68
234.578	60.71
234.795	57.94
235.012	54.83
235.229	56.36
235.446	52.24
235.663	49.84
235.879	50
236.096	52.17
236.313	48.65
236.53	49.04
236.747	51.19
236.964	45.77
237.181	46.77
237.397	48
237.614	52.79
237.831	52.61
238.048	48.71
238.264	46.31
238.481	42.68
238.698	43.46
238.915	43.97
239.131	39.23
239.348	43.62
239.565	41.66
239.781	43.57
239.998	38.34
240.215	38.84
240.431	37.15
240.648	36.99
240.865	35.79
241.081	33.2
241.298	31.12
241.514	29.99
241.731	26.89
241.947	25.98
242.164	23.45
242.38	22.19
242.597	22.2
242.814	22.04
243.03	21.25
243.246	22.39
243.463	22.29
243.679	22.68
243.896	21.64
244.112	24.23
244.329	25
244.545	26.66
244.762	27.33
244.978	27.08
245.194	28.68
245.411	27.62
245.627	25.91
245.843	25.99
246.06	24.44
246.276	24.17
246.492	21.11
246.709	20.38
246.925	18.38
247.141	17.77
247.357	17.16
247.574	17.16
247.79	16.36
248.006	15.5
248.222	15.25
248.439	16.14
248.655	16.37
248.871	17.13
249.087	17.2
249.303	17.57
249.519	18.95
249.736	20.85
249.952	20.22
250.168	24.22
250.384	25.9
250.6	26.43
250.816	24.83
251.032	24.47
251.248	23.1
251.464	21.51
251.68	22.67
251.896	22.52
252.112	21.94
252.328	23.08
252.544	20.69
252.76	21.18
252.976	19.98
253.192	20.02
253.408	20.2
253.624	23.91
253.84	24.7
254.056	26.98
254.272	28.69
254.487	29.4
254.703	29.08
254.919	32.53
255.135	31.22
255.351	34.5
255.567	36.58
255.782	37.52
255.998	32.62
256.214	31.75
256.43	28.33
256.646	27.43
256.861	26.82
257.077	26.45
257.293	23.11
257.508	22.22
257.724	22.61
257.94	21.08
258.155	19.39
258.371	18.81
258.587	18.11
258.802	17.76
259.018	17.09
259.234	15.33
259.449	15.5
259.665	15.22
259.88	15.57
260.096	14.92
260.312	13.95
260.527	14.17
260.743	14.87
260.958	15.71
261.174	15.49
261.389	16.1
261.605	17.94
261.82	18.13
262.036	18.38
262.251	19.38
262.466	19.03
262.682	20.97
262.897	21.4
263.113	21.61
263.328	21.95
263.543	23.85
263.759	22.76
263.974	21.94
264.189	22.31
264.405	24.28
264.62	24.13
264.835	26.25
265.051	26.69
265.266	27.84
265.481	28.52
265.696	28.63
265.912	26.82
266.127	24.58
266.342	23.59
266.557	22.96
266.773	22.31
266.988	22.09
267.203	20.91
267.418	19.48
267.633	17.5
267.848	16.66
268.064	14.86
268.279	15.2
268.494	14.62
268.709	14.73
268.924	14.4
269.139	14.47
269.354	13.53
269.569	12.83
269.784	13.5
269.999	15.95
270.214	15.34
270.429	17.44
270.644	17.31
270.859	18.23
271.074	18.5
271.289	17.97
271.504	18.02
271.719	18.31
271.934	17.48
272.149	17.14
272.363	15.53
272.578	14.52
272.793	13.68
273.008	13.7
273.223	14.25
273.438	12.26
273.653	13.52
273.867	13.36
274.082	13.01
274.297	14.09
274.512	14.52
274.726	14.73
274.941	16.05
275.156	15.87
275.371	17.77
275.585	18.12
275.8	20.62
276.015	19.65
276.229	18.8
276.444	19.16
276.659	20.43
276.873	20.81
277.088	20.97
277.302	21.52
277.517	21.68
277.732	21.11
277.946	20.6
278.161	20.87
278.375	21.05
278.59	20.86
278.804	19.6
279.019	18.66
279.233	18.42
279.448	18.26
279.662	17.06
279.877	17.45
280.091	15.91
280.306	13.72
280.52	13.32
280.735	12.26
280.949	13.25
281.163	14.63
281.378	13.93
281.592	12.92
281.806	13.49
282.021	13.58
282.235	13.79
282.449	13.94
282.664	16.74
282.878	16.3
283.092	17.52
283.307	17.62
283.521	18.22
283.735	19.18
283.949	20.09
284.164	20.02
284.378	20.53
284.592	19.08
284.806	18.68
285.02	17.39
285.234	16.97
285.449	15.67
285.663	15.52
285.877	14.33
286.091	14.29
286.305	13.8
286.519	13.5
286.733	12.45
286.947	12.99
287.161	13.76
287.375	14.52
287.589	14.62
287.803	15.26
288.017	15.18
288.231	14.84
288.445	14.17
288.659	15.29
288.873	15.1
289.087	15.5
289.301	15.53
289.515	15.22
289.729	13.02
289.943	13.57
290.157	13.87
290.371	14.78
290.584	15.56
290.798	16.22
291.012	16.25
291.226	15.89
291.44	16.61
291.654	17.27
291.867	17.45
292.081	18.66
292.295	19.81
292.509	20.07
292.722	19.84
292.936	19.25
293.15	19.7
293.364	19.76
293.577	20.59
293.791	20.3
294.005	19.79
294.218	18.65
294.432	18.58
294.645	17.61
294.859	17.05
295.073	16.82
295.286	16.92
295.5	15.49
295.713	14.85
295.927	14.19
296.14	14.74
296.354	14.36
296.568	14.53
296.781	14.89
296.994	14.1
297.208	13.66
297.421	13.42
297.635	13.2
297.848	13.71
298.062	13.36
298.275	13.68
298.489	12.44
298.702	12.75
298.915	13.43
299.129	13.55
299.342	13.7
299.555	14.37
299.769	14.98
299.982	15.88
300.195	15.98
300.409	16.57
300.622	17.38
300.835	19.06
301.048	18.62
301.262	17.92
301.475	17.14
301.688	18.22
301.901	18.64
302.115	18.26
302.328	18.41
302.541	17.56
302.754	18.25
302.967	18.04
303.18	18.07
303.393	18.07
303.607	18.57
303.82	19.48
304.033	18.43
304.246	18.84
304.459	18.54
304.672	18.43
304.885	18.67
305.098	18.07
305.311	17.51
305.524	17.18
305.737	17.8
305.95	18.6
306.163	16.91
306.376	17.43
306.589	16.23
306.802	15.56
307.015	15.62
307.228	16.71
307.44	16.06
307.653	16
307.866	15.81
308.079	16.65
308.292	15.39
308.505	16.57
308.718	15.47
308.93	15.37
309.143	15.63
309.356	15.35
309.569	14.83
309.781	15.84
309.994	16.42
310.207	16.02
310.42	14.53
310.632	14.38
310.845	14.49
311.058	13.9
311.27	14.94
311.483	15.01
311.696	14.81
311.908	14.53
312.121	14.22
312.333	14.98
312.546	14.75
312.759	15.17
312.971	15.11
313.184	15.35
313.396	16.16
313.609	15.69
313.821	16.14
314.034	17.2
314.246	17.31
314.459	16.61
314.671	15.15
314.884	14.72
315.096	13.85
315.309	14.58
315.521	15.92
315.733	16.49
315.946	15.35
316.158	15.01
316.371	14.41
316.583	14.98
316.795	15.72
317.008	16.12
317.22	19.36
317.432	19.97
317.644	19.43
317.857	17.08
318.069	16.77
318.281	17.63
318.494	17.34
318.706	17.97
318.918	18.17
319.13	18.36
319.342	19.45
319.555	17.61
319.767	18.49
319.979	18.51
320.191	19.75
320.403	20.47
320.615	20.62
320.827	20.66
321.039	20.03
321.252	19.43
321.464	19.81
321.676	18.16
321.888	16.73
322.1	16.14
322.312	14.94
322.524	14.05
322.736	13.64
322.948	13.02
323.16	12.76
323.372	13.15
323.584	13.34
323.796	12.33
324.007	11.88
324.219	12.83
324.431	13.6
324.643	14.8
324.855	14.87
325.067	14.8
325.279	14.79
325.491	15.22
325.702	14.02
325.914	14.32
326.126	15.09
326.338	15.55
326.55	15.54
326.761	15.28
326.973	14.86
327.185	15.22
327.396	15.41
327.608	16.55
327.82	16.63
328.032	16.55
328.243	15.78
328.455	15.78
328.666	15.43
328.878	15.02
329.09	14.03
329.301	14.58
329.513	14.34
329.725	14
329.936	12.62
330.148	12.65
330.359	13.63
330.571	14.83
330.782	14
330.994	15.9
331.205	16.27
331.417	17.25
331.628	17.8
331.84	18.76
332.051	19.63
332.262	20.91
332.474	20.21
332.685	20.66
332.897	19.29
333.108	20.21
333.319	18.39
333.531	18.22
333.742	18.71
333.953	17.21
334.165	16.44
334.376	16.03
334.587	15.41
334.799	15.77
335.01	14.41
335.221	14.14
335.432	13.15
335.644	12.9
335.855	13.11
336.066	12.4
336.277	12.31
336.488	12.15
336.7	11.47
336.911	12.3
337.122	11.52
337.333	12.89
337.544	14.37
337.755	14.58
337.966	14.57
338.177	14.51
338.388	14.68
338.599	15.99
338.811	15.4
339.022	15.87
339.233	15.25
339.444	16.31
339.655	13.97
339.866	13.17
340.076	13.5
340.287	14.54
340.498	15.06
340.709	14.64
340.92	13.15
341.131	14.1
341.342	13.97
341.553	13.64
341.764	12.81
341.975	14.13
342.185	13.84
342.396	13.12
342.607	13.02
342.818	12.83
343.029	12.74
343.239	13.55
343.45	13.65
343.661	12.8
343.872	12.54
344.082	12.6
344.293	12.33
344.504	14
344.714	13.78
344.925	12.19
345.136	12.3
345.346	10.95
345.557	11.11
345.768	10.72
345.978	11.06
346.189	11.34
346.399	11.66
346.61	12.18
346.821	10.84
347.031	11.68
347.242	12.59
347.452	11.98
347.663	13.73
347.873	14.36
348.084	13.94
348.294	14.53
348.504	14.49
348.715	14.14
348.925	14.02
349.136	13.83
349.346	12.35
349.557	12.4
349.767	13.12
349.977	12.58
350.188	12.06
350.398	12.67
350.608	12.89
350.819	12.23
351.029	12.1
351.239	11.57
351.449	11.58
351.66	12.71
351.87	13.32
352.08	12.49
352.29	12.48
352.501	11.17
352.711	10.91
352.921	10.99
353.131	11.77
353.341	12.31
353.552	12.28
353.762	11.85
353.972	11.96
354.182	11.94
354.392	11.74
354.602	11.73
354.812	12.11
355.022	12.33
355.232	11.94
355.442	11.64
355.652	11.22
355.862	10.61
356.072	11.38
356.282	10.43
356.492	10.19
356.702	9.98
356.912	9.94
357.122	10
357.332	9.55
357.542	9.08
357.752	9.23
357.962	9.09
358.171	9.48
358.381	9.33
358.591	10
358.801	9.31
359.011	9.93
359.221	10.09
359.43	9.96
359.64	10.37
359.85	10.64
360.06	10.3
360.269	10.41
360.479	10.75
360.689	10.54
360.899	10.11
361.108	10.38
361.318	10.39
361.528	9.96
361.737	10.22
361.947	9.67
362.156	9.86
362.366	9.9
362.576	10.05
362.785	9.8
362.995	9.48
363.204	9.85
363.414	9.7
363.623	9.44
363.833	10.26
364.042	10.14
364.252	10.77
364.461	10.78
364.671	10.48
364.88	10.44
365.09	11.25
365.299	11.6
365.509	10.69
365.718	10.3
365.927	10.59
366.137	10.48
366.346	10.5
366.555	9.78
366.765	9.33
366.974	9.82
367.183	10.05
367.393	8.97
367.602	8.65
367.811	9.27
368.021	9.27
368.23	8.88
368.439	8.09
368.648	8.41
368.857	8.61
369.067	8.78
369.276	8.36
369.485	8.12
369.694	8.68
369.903	9.03
370.112	9.11
370.321	9.29
370.531	8.84
370.74	8.63
370.949	8.33
371.158	8.24
371.367	8.29
371.576	8.08
371.785	7.53
371.994	7.18
372.203	7.18
372.412	7.21
372.621	7.53
372.83	7.91
373.039	8.53
373.248	8.11
373.457	8.63
373.666	8.25
373.874	8.3
374.083	8.85
374.292	9.08
374.501	8.84
374.71	8.35
374.919	8.31
375.128	8.56
375.336	8.15
375.545	8.59
375.754	8.04
375.963	8.23
376.171	8.45
376.38	8.54
376.589	8.67
376.798	8.49
377.006	8.62
377.215	9.02
377.424	8.88
377.632	9.02
377.841	8.99
378.05	8.97
378.258	8.47
378.467	8.63
378.675	8.59
378.884	8.43
379.093	8.64
379.301	8.59
379.51	8.21
379.718	7.76
379.927	7.56
380.135	6.75
380.344	6.97
380.552	6.88
380.761	6.68
380.969	6.23
381.177	6.12
381.386	5.18
381.594	5.31
381.803	4.7
382.011	4.73
382.219	4.47
382.428	4.24
382.636	3.89
382.845	4.35
383.053	4.41
383.261	4.39
383.469	4.84
383.678	5.62
383.886	5.54
384.094	5.84
384.302	5.89
384.511	6.25
384.719	6.7
384.927	6.58
385.135	7.12
385.343	7.3
385.552	7.08
385.76	6.71
385.968	6.42
386.176	6.36
386.384	6.1
386.592	6.06
386.8	5.86
387.008	6.27
387.216	6.8
387.424	6.56
387.633	6.23
387.841	6.4
388.049	6.49
388.257	6.75
388.465	6.66
388.672	6.92
388.88	6.98
389.088	6.95
389.296	6.58
389.504	6.55
389.712	6.27
389.92	6.16
390.128	5.98
390.336	5.55
390.544	5.9
390.751	5.6
390.959	5.7
391.167	5.75
391.375	5.96
391.583	6.09
391.79	5.53
391.998	5.66
392.206	5.71
392.414	5.79
392.621	6.01
392.829	5.79
393.037	6.02
393.244	6.01
393.452	5.97
393.66	6.05
393.867	6.17
394.075	6.44
394.283	6.37
394.49	6.2
394.698	6.33
394.905	6.01
395.113	5.77
395.32	5.73
395.528	5.59
395.735	5.74
395.943	5.4
396.15	5.1
396.358	4.9
396.565	4.7
396.773	5.21
396.98	5.13
397.188	5.12
397.395	5.3
397.602	5.16
397.81	5.15
398.017	5.09
398.225	5.06
398.432	5.31
398.639	5.7
398.847	5.76
399.054	5.41
399.261	5.52
399.468	5.97
399.676	5.83
399.883	6.32
400.09	6.53
400.297	6.65
400.505	7.06
400.712	6.92
400.919	7.06
401.126	7.17
401.333	7.43
401.54	7.36
401.748	7.38
401.955	7.45
402.162	7.14
402.369	6.96
402.576	6.69
402.783	6.62
402.99	6.61
403.197	6.15
403.404	6.04
403.611	6.1
403.818	5.96
404.025	5.52
404.232	5.47
404.439	5.46
404.646	5.33
404.853	5.21
405.06	4.95
405.267	4.79
405.474	4.75
405.681	4.51
405.887	4.09
406.094	4.1
406.301	4.39
406.508	4.36
406.715	4.39
406.922	4.37
407.128	4.27
407.335	4.4
407.542	4.54
407.749	4.83
407.955	5.36
408.162	5.41
408.369	5.76
408.575	5.51
408.782	5.32
408.989	5.07
409.195	5.16
409.402	5.42
409.609	5.59
409.815	5.64
410.022	5.46
410.228	5.26
410.435	5.28
410.642	4.85
410.848	4.98
411.055	5.08
411.261	5.42
411.468	5.52
411.674	5.22
411.881	5.02
412.087	5.11
412.294	5.1
412.5	4.89
412.706	5.11
412.913	5.15
413.119	4.9
413.326	4.82
413.532	4.63
413.738	4.45
413.945	4.84
414.151	4.76
414.357	4.64
414.564	4.53
414.77	4.45
414.976	4.3
415.182	4.51
415.389	4.79
415.595	5.03
415.801	4.99
416.007	5.09
416.214	4.94
416.42	5.02
416.626	4.89
416.832	4.97
417.038	4.92
417.244	4.93
417.45	4.57
417.657	4.63
417.863	4.55
418.069	4.61
418.275	4.46
418.481	4.36
418.687	4.23
418.893	4.11
419.099	3.99
419.305	4.1
419.511	3.98
419.717	4.2
419.923	3.86
420.129	3.72
420.335	3.66
420.541	3.76
420.746	3.71
420.952	3.75
421.158	3.8
421.364	3.84
421.57	3.89
421.776	3.94
421.982	3.8
422.187	3.79
422.393	3.75
422.599	3.6
422.805	3.58
423.01	3.6
423.216	3.39
423.422	3.41
423.628	3.36
423.833	3.2
424.039	3.27
424.245	3.35
424.45	3.52
424.656	3.53
424.862	3.65
425.067	3.7
425.273	3.77
425.478	3.95
425.684	3.88
425.889	4.08
426.095	4.2
426.301	4.07
426.506	4.05
426.712	4.14
426.917	4.2
427.123	4.26
427.328	4.24
427.533	4.2
427.739	4.2
427.944	4.38
428.15	4.08
428.355	4.15
428.561	4.04
428.766	4.1
428.971	4.07
429.177	4.17
429.382	4.25
429.587	4.18
429.793	4.26
429.998	4.44
430.203	4.24
430.408	4.43
430.614	4.56
430.819	4.68
431.024	4.63
431.229	4.53
431.434	4.54
431.64	4.33
431.845	4.46
432.05	4.49
432.255	4.26
432.46	4.22
432.665	4.18
432.87	3.99
433.076	4.01
433.281	4.11
433.486	3.98
433.691	3.81
433.896	3.67
434.101	3.45
434.306	3.38
434.511	3.41
434.716	3.67
434.921	3.63
435.126	3.53
435.331	3.39
435.535	3.3
435.74	3.48
435.945	3.84
436.15	3.97
436.355	4.17
436.56	4.23
436.765	4.33
436.97	4.09
437.174	4.05
437.379	4.09
437.584	4.28
437.789	4.23
437.993	4.18
438.198	3.94
438.403	3.99
438.608	3.97
438.812	3.73
439.017	3.57
439.222	3.54
439.426	3.57
439.631	3.79
439.836	3.67
440.04	3.62
440.245	3.57
440.45	3.64
440.654	3.67
440.859	3.52
441.063	3.57
441.268	3.52
441.472	3.62
441.677	3.49
441.881	3.21
442.086	3.14
442.29	3.13
442.495	3.08
442.699	3.08
442.904	2.96
443.108	3
443.312	3.1
443.517	3.11
443.721	3.02
443.925	3.19
444.13	3.26
444.334	3.36
444.538	3.43
444.743	3.4
444.947	3.28
445.151	3.32
445.356	3.27
445.56	3.24
445.764	3.35
445.968	3.38
446.173	3.28
446.377	3.39
446.581	3.32
446.785	3.28
446.989	3.28
447.193	3.27
447.398	3.18
447.602	3.29
447.806	3.42
448.01	3.46
448.214	3.6
448.418	3.61
448.622	3.54
448.826	3.54
449.03	3.61
449.234	3.71
449.438	3.77
449.642	4.05
449.846	4
450.05	3.91
450.254	3.78
450.458	3.84
450.662	3.81
450.866	3.7
451.069	3.73
451.273	3.72
451.477	3.54
451.681	3.56
451.885	3.32
452.089	3.38
452.292	3.19
452.496	3.14
452.7	2.94
452.904	3.01
453.107	3.1
453.311	3.26
453.515	3.24
453.719	3.35
453.922	3.39
454.126	3.47
454.33	3.48
454.533	3.49
454.737	3.5
454.94	3.53
455.144	3.69
455.348	3.58
455.551	3.36
455.755	3.15
455.958	3.21
456.162	3.06
456.365	2.96
456.569	2.85
456.772	2.82
456.976	2.97
457.179	2.96
457.383	2.9
457.586	3.21
457.79	3.23
457.993	3.36
458.196	3.28
458.4	3.39
458.603	3.35
458.807	3.37
459.01	3.54
459.213	3.47
459.417	3.3
459.62	3.33
459.823	3.16
460.026	3.08
460.23	3.12
460.433	3.16
460.636	3.08
460.839	3.14
461.042	3.15
461.246	3.12
461.449	3.03
461.652	3.19
461.855	3.05
462.058	3.09
462.261	3.15
462.464	3.03
462.668	3.19
462.871	3.45
463.074	3.5
463.277	3.3
463.48	3.32
463.683	3.51
463.886	3.61
464.089	3.61
464.292	3.86
464.495	4.05
464.698	4.15
464.901	4.09
465.104	3.8
465.306	3.8
465.509	3.83
465.712	3.76
465.915	3.81
466.118	3.78
466.321	3.74
466.524	3.59
466.726	3.68
466.929	3.66
467.132	3.51
467.335	3.54
467.538	3.37
467.74	3.42
467.943	3.6
468.146	3.63
468.348	3.57
468.551	3.57
468.754	3.49
468.956	3.34
469.159	3.45
469.362	3.38
469.564	3.28
469.767	3.41
469.969	3.5
470.172	3.24
470.375	3.08
470.577	3.03
470.78	3.13
470.982	2.99
471.185	3.02
471.387	3.06
471.59	3.2
471.792	3.4
471.995	3.32
472.197	3.32
472.399	3.15
472.602	3.1
472.804	3.06
473.007	3.03
473.209	3.17
473.411	3.13
473.614	2.96
473.816	2.94
474.018	2.94
474.22	3.02
474.423	3.04
474.625	3.3
474.827	3.53
475.03	3.69
475.232	3.7
475.434	3.62
475.636	3.63
475.838	3.7
476.04	3.61
476.243	3.53
476.445	3.65
476.647	3.65
476.849	3.58
477.051	3.39
477.253	3.43
477.455	3.36
477.657	3.35
477.859	3.29
478.061	3.21
478.263	3.19
478.465	3.21
478.667	3.04
478.869	2.94
479.071	2.98
479.273	2.95
479.475	2.7
479.677	2.84
479.879	2.85
480.081	2.86
480.283	2.83
480.485	2.89
480.686	2.84
480.888	2.82
481.09	2.77
481.292	2.67
481.494	2.73
481.695	2.81
481.897	2.64
482.099	2.6
482.301	2.58
482.502	2.53
482.704	2.55
482.906	2.54
483.107	2.54
483.309	2.49
483.511	2.55
483.712	2.48
483.914	2.43
484.115	2.47
484.317	2.48
484.519	2.48
484.72	2.48
484.922	2.43
485.123	2.45
485.325	2.43
485.526	2.5
485.728	2.47
485.929	2.5
486.131	2.59
486.332	2.56
486.534	2.47
486.735	2.45
486.936	2.43
487.138	2.4
487.339	2.33
487.541	2.36
487.742	2.36
487.943	2.35
488.144	2.36
488.346	2.23
488.547	2.27
488.748	2.35
488.95	2.32
489.151	2.39
489.352	2.48
489.553	2.52
489.755	2.53
489.956	2.47
490.157	2.5
490.358	2.44
490.559	2.6
490.76	2.51
490.961	2.45
491.163	2.53
491.364	2.53
491.565	2.52
491.766	2.54
491.967	2.58
492.168	2.57
492.369	2.57
492.57	2.64
492.771	2.66
492.972	2.81
493.173	2.95
493.374	2.88
493.575	2.97
493.776	3.01
493.976	3.04
494.177	3.17
494.378	3.38
494.579	3.42
494.78	3.58
494.981	3.46
495.182	3.31
495.382	3.31
495.583	3.24
495.784	3.14
495.985	3.1
496.185	3.15
496.386	2.95
496.587	2.88
496.788	2.82
496.988	2.73
497.189	2.73
497.39	2.78
497.59	2.74
497.791	2.79
497.992	2.72
498.192	2.77
498.393	2.74
498.593	2.72
498.794	2.68
498.994	2.77
499.195	2.75
499.395	2.92
499.596	3.04
499.796	3.04
499.997	3.25
500.197	3.34
500.398	3.31
500.598	3.43
500.799	3.36
500.999	3.41
501.199	3.29
501.4	3.25
501.6	3.08
501.801	2.99
502.001	2.98
502.201	2.96
502.402	2.97
502.602	2.97
502.802	2.87
503.002	3.15
503.203	3.24
503.403	3.23
503.603	3.19
503.803	3.31
504.003	3.36
504.204	3.46
504.404	3.41
504.604	3.32
504.804	3.46
505.004	3.44
505.204	3.44
505.404	3.45
505.604	3.7
505.804	3.76
506.005	3.71
506.205	3.67
506.405	3.76
506.605	3.85
506.805	3.87
507.005	3.84
507.204	3.82
507.404	3.71
507.604	3.57
507.804	3.45
508.004	3.51
508.204	3.55
508.404	3.54
508.604	3.37
508.804	3.32
509.003	3.38
509.203	3.31
509.403	3.31
509.603	3.31
509.803	3.38
510.002	3.49
510.202	3.43
510.402	3.4
510.602	3.45
510.801	3.54
511.001	3.56
511.201	3.57
511.4	3.59
511.6	3.63
511.8	3.62
511.999	3.78
512.199	3.6
512.398	3.66
512.598	3.67
512.797	3.72
512.997	3.73
513.197	3.72
513.396	3.76
513.596	3.9
513.795	4.06
513.994	4.05
514.194	3.88
514.393	3.93
514.593	3.96
514.792	4.08
514.992	3.95
515.191	3.85
515.39	3.89
515.59	3.8
515.789	3.72
515.988	3.54
516.188	3.54
516.387	3.63
516.586	3.61
516.786	3.69
516.985	3.49
517.184	3.45
517.383	3.65
517.582	3.62
517.782	3.68
517.981	3.57
518.18	3.54
518.379	3.65
518.578	3.53
518.777	3.59
518.976	3.51
519.176	3.74
519.375	3.84
519.574	3.76
519.773	3.71
519.972	3.66
520.171	3.68
520.37	3.75
520.569	3.68
520.768	3.78
520.967	3.91
521.166	3.93
521.365	3.81
521.564	3.86
521.762	4.01
521.961	4.16
522.16	4.21
522.359	4.26
522.558	4.24
522.757	4.35
522.956	4.45
523.154	4.24
523.353	4.26
523.552	4.25
523.751	4.22
523.949	4.06
524.148	4.1
524.347	4.14
524.546	4.11
524.744	4.05
524.943	4.04
525.142	3.97
525.34	4.16
525.539	4.17
525.737	4.23
525.936	4.19
526.135	4.07
526.333	3.92
526.532	3.85
526.73	3.92
526.929	3.91
527.127	3.91
527.326	3.89
527.524	3.82
527.723	3.79
527.921	3.75
528.12	3.74
528.318	3.82
528.516	3.89
528.715	3.91
528.913	3.91
529.112	3.97
529.31	3.94
529.508	3.93
529.707	3.94
529.905	3.99
530.103	4
530.301	4.03
530.5	4.09
530.698	4.08
530.896	4.15
531.094	4.22
531.293	4.26
531.491	4.34
531.689	4.42
531.887	4.49
532.085	4.49
532.283	4.57
532.481	4.65
532.68	4.6
532.878	4.65
533.076	4.63
533.274	4.56
533.472	4.55
533.67	4.49
533.868	4.46
534.066	4.47
534.264	4.37
534.462	4.33
534.66	4.32
534.858	4.38
535.056	4.39
535.253	4.39
535.451	4.49
535.649	4.56
535.847	4.8
536.045	4.92
536.243	4.97
536.441	5.22
536.638	5.27
536.836	5.29
537.034	5.34
537.232	5.36
537.43	5.37
537.627	5.42
537.825	5.41
538.023	5.33
538.22	5.38
538.418	5.37
538.616	5.41
538.813	5.49
539.011	5.6
539.209	5.69
539.406	5.68
539.604	5.95
539.801	6.1
539.999	6.13
540.196	6.12
540.394	6.15
540.591	6.15
540.789	6.06
540.986	5.99
541.184	5.98
541.381	5.95
541.579	5.96
541.776	5.88
541.974	5.76
542.171	5.8
542.368	5.8
542.566	5.81
542.763	5.9
542.96	5.95
543.158	6.06
543.355	6.06
543.552	6.18
543.75	6.32
543.947	6.21
544.144	6.28
544.341	6.32
544.539	6.5
544.736	6.56
544.933	6.55
545.13	6.62
545.327	6.62
545.524	6.83
545.722	6.9
545.919	6.87
546.116	7.19
546.313	7.24
546.51	7.33
546.707	7.25
546.904	7.29
547.101	7.37
547.298	7.41
547.495	7.5
547.692	7.32
547.889	7.19
548.086	7.35
548.283	7.39
548.48	7.54
548.677	7.51
548.874	7.66
549.07	7.59
549.267	7.62
549.464	7.61
549.661	7.72
549.858	8
550.055	8.34
550.251	8.29
550.448	8.22
550.645	8.35
550.842	8.52
551.038	8.63
551.235	8.69
551.432	8.76
551.628	8.95
551.825	9.06
552.022	9.03
552.218	8.99
552.415	9.26
552.612	9.28
552.808	9.14
553.005	9.13
553.201	9.16
553.398	9.33
553.594	9.57
553.791	9.69
553.987	9.78
554.184	10
554.38	9.98
554.577	9.87
554.773	10.11
554.97	10.31
555.166	10.42
555.362	10.41
555.559	10.52
555.755	10.32
555.952	10.31
556.148	10.25
556.344	10.11
556.541	10.12
556.737	10.29
556.933	10.33
557.129	10.27
557.326	10.25
557.522	10.51
557.718	10.78
557.914	10.96
558.11	11.15
558.307	11.15
558.503	11.44
558.699	11.75
558.895	12.01
559.091	11.99
559.287	12.26
559.483	12.54
559.679	12.65
559.876	12.59
560.072	12.71
560.268	12.72
560.464	12.8
560.66	12.83
560.856	12.86
561.052	12.73
561.247	12.89
561.443	12.91
561.639	12.81
561.835	12.86
562.031	12.86
562.227	13.04
562.423	12.94
562.619	13.09
562.815	13.1
563.01	13.33
563.206	13.39
563.402	13.4
563.598	13.48
563.793	13.58
563.989	13.61
564.185	13.71
564.381	13.84
564.576	14.1
564.772	14.25
564.968	14.42
565.163	14.22
565.359	14.03
565.555	14.1
565.75	14.13
565.946	14.23
566.141	14.21
566.337	14.23
566.532	14.21
566.728	14.27
566.923	14.28
567.119	14.25
567.314	14.34
567.51	14.6
567.705	14.69
567.901	14.75
568.096	14.88
568.292	15.12
568.487	15.37
568.682	15.4
568.878	15.52
569.073	15.6
569.268	15.78
569.464	15.91
569.659	16.09
569.854	16.26
570.05	16.43
570.245	16.57
570.44	16.48
570.635	16.35
570.831	16.2
571.026	16.25
571.221	16.42
571.416	16.24
571.611	16.16
571.806	16.13
572.002	16.08
572.197	16.17
572.392	16.1
572.587	16.28
572.782	16.43
572.977	16.59
573.172	16.65
573.367	16.55
573.562	16.73
573.757	16.88
573.952	17.04
574.147	17.28
574.342	17.3
574.537	17.41
574.732	17.31
574.927	17.26
575.121	17.61
575.316	17.51
575.511	17.67
575.706	17.71
575.901	17.84
576.096	17.89
576.29	17.89
576.485	17.93
576.68	18.16
576.875	18.27
577.069	18.53
577.264	18.54
577.459	18.88
577.654	18.94
577.848	19.12
578.043	19.29
578.238	19.38
578.432	19.22
578.627	19.32
578.821	19.35
579.016	19.37
579.21	19.46
579.405	19.35
579.6	19.34
579.794	19.25
579.989	19.31
580.183	19.3
580.378	19.57
580.572	19.9
580.766	19.84
580.961	19.79
581.155	20.05
581.35	19.86
581.544	19.73
581.738	19.81
581.933	20.1
582.127	20.34
582.321	20.37
582.516	20.17
582.71	20.06
582.904	20.35
583.099	20.33
583.293	20.42
583.487	20.61
583.681	20.89
583.875	20.94
584.07	21.07
584.264	20.86
584.458	20.88
584.652	20.92
584.846	20.99
585.04	20.85
585.234	20.95
585.428	20.94
585.623	20.95
585.817	20.89
586.011	20.97
586.205	21.15
586.399	21.3
586.593	21.35
586.787	21.46
586.981	21.32
587.174	21.53
587.368	21.48
587.562	21.52
587.756	21.6
587.95	21.73
588.144	21.79
588.338	21.82
588.532	21.89
588.725	22.03
588.919	22.03
589.113	22.34
589.307	22.38
589.501	22.62
589.694	22.79
589.888	22.96
590.082	22.9
590.275	23.01
590.469	22.95
590.663	22.88
590.856	22.88
591.05	23.02
591.244	23
591.437	23.06
591.631	22.84
591.824	22.74
592.018	22.68
592.212	22.85
592.405	22.59
592.599	22.56
592.792	22.44
592.986	22.44
593.179	22.36
593.372	22.48
593.566	22.4
593.759	22.28
593.953	22.27
594.146	22.22
594.339	22.36
594.533	22.63
594.726	22.67
594.92	22.77
595.113	22.83
595.306	22.89
595.499	22.87
595.693	22.99
595.886	23.32
596.079	23.38
596.272	23.49
596.466	23.37
596.659	23.36
596.852	23.29
597.045	23.41
597.238	23.43
597.431	23.46
597.624	23.44
597.818	23.41
598.011	23.4
598.204	23.38
598.397	23.47
598.59	23.5
598.783	23.48
598.976	23.5
599.169	23.7
599.362	23.83
599.555	24.14
599.748	24.41
599.941	24.31
600.134	24.44
600.326	24.64
600.519	24.83
600.712	24.79
600.905	24.65
601.098	24.96
601.291	24.97
601.483	24.83
601.676	24.69
601.869	24.49
602.062	24.76
602.255	24.71
602.447	24.75
602.64	24.59
602.833	24.8
603.025	25.01
603.218	24.71
603.411	24.69
603.603	24.64
603.796	24.56
603.989	24.63
604.181	24.53
604.374	24.5
604.566	24.33
604.759	24.26
604.951	24.26
605.144	24.12
605.336	24.28
605.529	24.18
605.721	24.36
605.914	24.45
606.106	24.68
606.299	24.65
606.491	24.89
606.683	24.97
606.876	24.95
607.068	25.01
607.26	25.31
607.453	25.45
607.645	25.51
607.837	25.39
608.03	25.38
608.222	25.18
608.414	25.51
608.606	25.4
608.799	25.47
608.991	25.67
609.183	25.76
609.375	25.41
609.567	25.28
609.759	25.33
609.952	25.37
610.144	25.42
610.336	25.44
610.528	25.23
610.72	25.12
610.912	25.24
611.104	25.38
611.296	25.22
611.488	25.49
611.68	25.65
611.872	25.73
612.064	25.93
612.256	25.9
612.448	25.84
612.64	25.68
612.832	25.83
613.023	25.73
613.215	25.73
613.407	26.02
613.599	26.2
613.791	26.1
613.983	26.15
614.174	26.14
614.366	26.45
614.558	26.56
614.75	26.7
614.941	26.75
615.133	27.13
615.325	27.13
615.516	26.94
615.708	26.75
615.9	26.87
616.091	26.69
616.283	26.61
616.475	26.4
616.666	26.62
616.858	27.23
617.049	27.14
617.241	26.94
617.432	26.97
617.624	27.21
617.815	27.46
618.007	27.46
618.198	27.82
618.39	27.86
618.581	27.96
618.773	28.05
618.964	27.59
619.155	28.07
619.347	28.12
619.538	28.25
619.729	28.38
619.921	28.04
620.112	28.14
620.303	28.16
620.494	28.29
620.686	28.22
620.877	28.14
621.068	28.15
621.259	27.86
621.451	27.83
621.642	27.8
621.833	27.47
622.024	27.84
622.215	28.07
622.406	28.05
622.597	28.03
622.788	28.06
622.98	28.11
623.171	28.33
623.362	28.09
623.553	28.26
623.744	27.99
623.935	28.22
624.126	28.11
624.317	27.74
624.508	27.62
624.698	27.39
624.889	27.4
625.08	27.45
625.271	27.59
625.462	28.02
625.653	27.93
625.844	28.05
626.034	27.89
626.225	27.84
626.416	27.74
626.607	27.84
626.798	28.16
626.988	28.16
627.179	28.06
627.37	27.93
627.56	28.01
627.751	28.07
627.942	28.08
628.132	28.06
628.323	28.16
628.514	28.56
628.704	28.55
628.895	28.32
629.085	28.49
629.276	28.58
629.466	28.6
629.657	28.36
629.847	28.31
630.038	28.38
630.228	28.54
630.419	28.56
630.609	28.38
630.8	28.3
630.99	28.36
631.181	28.34
631.371	28.35
631.561	28.62
631.752	28.57
631.942	28.51
632.132	28.63
632.323	28.65
632.513	28.62
632.703	28.82
632.893	28.91
633.084	28.83
633.274	28.66
633.464	28.35
633.654	28.06
633.844	28.16
634.034	28.19
634.225	28.16
634.415	28.08
634.605	28.36
634.795	28.35
634.985	28.46
635.175	28.76
635.365	28.97
635.555	29.29
635.745	29.37
635.935	29.27
636.125	29.28
636.315	29.37
636.505	29.39
636.695	29.12
636.885	28.9
637.075	28.78
637.265	28.75
637.455	28.67
637.644	28.55
637.834	28.7
638.024	28.7
638.214	28.86
638.404	28.58
638.593	28.96
638.783	29.21
638.973	29.77
639.163	29.73
639.352	29.81
639.542	30.27
639.732	30.59
639.921	30.69
640.111	31.04
640.301	30.96
640.49	31.3
640.68	31.18
640.87	30.99
641.059	30.58
641.249	30.86
641.438	30.73
641.628	30.35
641.817	30.02
642.007	29.97
642.196	29.56
642.386	29.95
642.575	30.14
642.764	29.76
642.954	29.84
643.143	30.02
643.333	29.93
643.522	30.03
643.711	30.21
643.901	30.36
644.09	30.67
644.279	30.98
644.469	30.67
644.658	30.49
644.847	30.95
645.036	31
645.226	30.58
645.415	30.75
645.604	31.12
645.793	31.24
645.982	31.3
646.171	31.17
646.361	31.32
646.55	31.51
646.739	31.27
646.928	31.4
647.117	31.68
647.306	31.75
647.495	31.53
647.684	31.28
647.873	31.41
648.062	31.44
648.251	31.26
648.44	31.03
648.629	31.24
648.818	31.72
649.007	31.29
649.196	31.17
649.384	31.45
649.573	31.52
649.762	31.55
649.951	31.45
650.14	31.74
650.328	31.87
650.517	32.3
650.706	32.15
650.895	32.17
651.083	32.42
651.272	32.38
651.461	32.78
651.65	33.19
651.838	33.01
652.027	32.8
652.216	32.15
652.404	32.25
652.593	32.31
652.781	32.08
652.97	32.12
653.158	32.32
653.347	32.36
653.535	32.11
653.724	31.46
653.912	32.13
654.101	32.47
654.289	32.8
654.478	32.57
654.666	32.25
654.855	32.2
655.043	31.68
655.231	31.08
655.42	31.23
655.608	31.2
655.796	31.49
655.985	31.37
656.173	31.28
656.361	31.34
656.55	31.29
656.738	31.4
656.926	31.87
657.114	32.38
657.302	32.67
657.491	32.31
657.679	32.1
657.867	32.25
658.055	31.96
658.243	31.95
658.431	32.24
658.619	32.53
658.807	32.58
658.996	32.6
659.184	32.29
659.372	32.5
659.56	32.45
659.748	32.27
659.936	32.06
660.124	32.11
660.311	32.16
660.499	31.87
660.687	31.74
660.875	31.67
661.063	31.36
661.251	31.35
661.439	31
661.627	31.29
661.814	31.49
662.002	31.44
662.19	31.19
662.378	30.87
662.565	31.05
662.753	31.12
662.941	31.16
663.129	31.41
663.316	31.66
663.504	31.88
663.692	32.04
663.879	32.28
664.067	32.47
664.254	32.68
664.442	32.57
664.63	32.46
664.817	32.49
665.005	32.5
665.192	32.5
665.38	32.29
665.567	32.18
665.755	32.24
665.942	32.13
666.13	32.65
666.317	32.49
666.504	32.83
666.692	33.03
666.879	33.09
667.067	32.81
667.254	32.64
667.441	32.73
667.629	32.59
667.816	32.07
668.003	31.98
668.19	31.61
668.378	31.57
668.565	31.5
668.752	31.42
668.939	31.22
669.127	31.57
669.314	31.74
669.501	31.68
669.688	32.29
669.875	32.73
670.062	32.93
670.249	33.14
670.436	33.5
670.623	33.78
670.81	33.7
670.997	33.93
671.184	33.78
671.371	34.14
671.558	34.37
671.745	34.21
671.932	34.26
672.119	34.06
672.306	33.73
672.493	33.76
672.68	33.6
672.867	34.22
673.054	34.42
673.24	34.5
673.427	34.56
673.614	34.6
673.801	34.65
673.988	34.96
674.174	35.07
674.361	35.41
674.548	35.13
674.734	35.15
674.921	34.67
675.108	34.98
675.294	34.53
675.481	34.21
675.668	34.35
675.854	34.08
676.041	33.64
676.227	33.83
676.414	34.05
676.601	34.71
676.787	34.67
676.974	34.93
677.16	34.24
677.347	34.9
677.533	34.67
677.719	34.3
677.906	33.93
678.092	34.14
678.279	33.85
678.465	33.41
678.651	33.21
678.838	33.38
679.024	32.95
679.21	33.22
679.397	33.04
679.583	33.26
679.769	33.55
679.955	33.7
680.142	33.78
680.328	34.3
680.514	34.21
680.7	33.72
680.886	33.78
681.073	34.12
681.259	33.74
681.445	33.8
681.631	33.49
681.817	33.38
682.003	33.56
682.189	33.54
682.375	33.23
682.561	33.69
682.747	34.28
682.933	34.13
683.119	34.28
683.305	34.79
683.491	34.91
683.677	35.01
683.863	35.31
684.049	35.41
684.235	35.55
684.42	35.62
684.606	35.4
684.792	35.17
684.978	35.16
685.164	35.04
685.349	34.84
685.535	35.15
685.721	35.32
685.907	34.6
686.092	34.71
686.278	34.38
686.464	34.59
686.649	34.68
686.835	34.75
687.021	34.68
687.206	35.05
687.392	34.54
687.577	34
687.763	33.72
687.948	34.21
688.134	33.94
688.319	34.11
688.505	34.43
688.69	34.49
688.876	34.52
689.061	34.9
689.247	34.53
689.432	34.94
689.618	34.98
689.803	35.53
689.988	35.76
690.174	36.25
690.359	36.07
690.544	35.36
690.73	35.56
690.915	35.55
691.1	35.62
691.285	35.82
691.471	36.34
691.656	36.75
691.841	36.65
692.026	36.75
692.211	36.91
692.396	37.24
692.582	37.52
692.767	37.48
692.952	37.35
693.137	37.02
693.322	37.19
693.507	37.27
693.692	37.21
693.877	37.06
694.062	37
694.247	36.5
694.432	37.05
694.617	37.1
694.802	37.39
694.987	37.49
695.172	37.84
695.357	37.31
695.541	36.95
695.726	36.99
695.911	37.54
696.096	37.03
696.281	37.1
696.466	36.3
696.65	36.39
696.835	36.11
697.02	36.28
697.204	36.52
697.389	36.83
697.574	36.36
697.759	36.22
697.943	35.95
698.128	36.32
698.312	36.14
698.497	35.57
698.682	35.34
698.866	35.29
699.051	35.17
699.235	35.02
699.42	35.17
699.604	35.31
699.789	35.21
699.973	34.99
700.158	35.13
700.342	35.14
700.527	35.78
700.711	36.48
700.895	36.18
701.08	36.28
701.264	36.06
701.448	35.91
701.633	35.97
701.817	36.03
702.001	36.56
702.186	35.93
702.37	36.64
702.554	36.61
702.738	36.25
702.923	36.66
703.107	36.68
703.291	37.11
703.475	36.7
703.659	36.8
703.843	37.23
704.027	37.21
704.212	37.18
704.396	36.74
704.58	36.92
704.764	36.88
704.948	36.62
705.132	36.69
705.316	36.62
705.5	37.56
705.684	38.28
705.868	38.13
706.052	37.88
706.235	37.95
706.419	38.36
706.603	38.17
706.787	37.44
706.971	38.04
707.155	37.72
707.339	37.78
707.522	37.24
707.706	36.86
707.89	36.88
708.074	37.02
708.257	36.56
708.441	36.57
708.625	37.01
708.808	37.79
708.992	37.58
709.176	37.93
709.359	37.29
709.543	37.48
709.727	37.55
709.91	37.33
710.094	37.37
710.277	38.29
710.461	37.4
710.644	37.56
710.828	37.41
711.011	37.29
711.195	37.34
711.378	37.77
711.562	37.29
711.745	37.27
711.928	37.09
712.112	36.48
712.295	36.24
712.478	37.02
712.662	37.15
712.845	37.07
713.028	37.45
713.212	37.12
713.395	36.9
713.578	37.32
713.761	37.04
713.945	37.29
714.128	37.73
714.311	38.29
714.494	37.94
714.677	37.56
714.86	37.41
715.043	37.3
715.227	37.74
715.41	37.9
715.593	37.86
715.776	38.43
715.959	38.41
716.142	39.31
716.325	38.79
716.508	39.02
716.691	39.34
716.874	39.96
717.057	40.01
717.239	39.76
717.422	39.54
717.605	39.55
717.788	39.36
717.971	39.93
718.154	39.24
718.337	39.55
718.519	39.62
718.702	39.29
718.885	38.77
719.068	39.02
719.25	40.04
719.433	39.96
719.616	40.22
719.798	40.35
719.981	41.05
720.164	41.61
720.346	41.45
720.529	42
720.712	41.94
720.894	41.86
721.077	41.13
721.259	40.59
721.442	41.88
721.624	41.35
721.807	41.39
721.989	39.66
722.172	38.69
722.354	37.83
722.537	37.12
722.719	36.33
722.901	36.07
723.084	36.59
723.266	36.2
723.448	35.4
723.631	36.04
723.813	35.13
723.995	35.25
724.178	35.55
724.36	36.82
724.542	36.8
724.724	38.17
724.907	38.89
725.089	38.24
725.271	38.31
725.453	37.83
725.635	37.36
725.817	38.38
725.999	39.37
726.181	39.51
726.364	38.77
726.546	39.22
726.728	38.63
726.91	38.48
727.092	39
727.274	39.13
727.456	39.5
727.638	40.02
727.819	39.69
728.001	39.05
728.183	38.98
728.365	39.02
728.547	38.59
728.729	38.45
728.911	38.83
729.093	38.96
729.274	38.32
729.456	38.79
729.638	38.61
729.82	38.86
730.001	39.29
730.183	39.35
730.365	39.99
730.546	40.21
730.728	39.75
730.91	39.37
731.091	39.78
731.273	39.45
731.455	39.04
731.636	39.06
731.818	39.16
731.999	39.1
732.181	39.06
732.362	38.9
732.544	39.15
732.725	39.66
732.907	39.77
733.088	39.69
733.27	41.01
733.451	40.77
733.633	41.29
733.814	40.49
733.995	40.24
734.177	40.58
734.358	40.45
734.539	40.36
734.721	40.1
734.902	40.01
735.083	39.68
735.264	39.9
735.446	40.86
735.627	40.25
735.808	40.11
735.989	40.57
736.17	40.71
736.351	40
736.533	40.12
736.714	40.2
736.895	40.14
737.076	39.92
737.257	39.63
737.438	38.55
737.619	39.27
737.8	40.21
737.981	39.98
738.162	39.76
738.343	40.97
738.524	40.62
738.705	40.59
738.886	40.86
739.067	41.12
739.247	40.81
739.428	41.42
739.609	40.05
739.79	41.18
739.971	40.94
740.151	39.91
740.332	38.86
740.513	38.49
740.694	39.08
740.874	39.03
741.055	38.87
741.236	38.8
741.417	38.76
741.597	39.32
741.778	38.64
741.958	39.41
742.139	41.4
742.32	42.6
742.5	42.81
742.681	43.25
742.861	42.18
743.042	41.94
743.222	42.28
743.403	41.72
743.583	42.05
743.764	41.1
743.944	40.5
744.124	40.24
744.305	40.09
744.485	40.79
744.666	39.73
744.846	40.64
745.026	41.89
745.207	41.03
745.387	42.11
745.567	42.95
745.747	43.35
745.928	43.53
746.108	42.67
746.288	41.75
746.468	41.27
746.648	41.33
746.829	41.14
747.009	40.13
747.189	42.01
747.369	42.37
747.549	40.76
747.729	41.41
747.909	40.85
748.089	41.23
748.269	41.79
748.449	42.72
748.629	43.18
748.809	44.05
748.989	44.86
749.169	43.17
749.349	42.62
749.529	44.05
749.709	43.49
749.889	44.22
750.068	43.79
750.248	44.02
750.428	44.14
750.608	44.41
750.788	43.44
750.967	43.1
751.147	43.7
751.327	43.03
751.507	42.05
751.686	42.12
751.866	42.74
752.046	42.51
752.225	42.3
752.405	41.82
752.585	42.44
752.764	43.12
752.944	43.29
753.123	42.94
753.303	43.48
753.482	44.43
753.662	44.33
753.841	42.7
754.021	43.29
754.2	43.43
754.38	42.59
754.559	41.93
754.739	40.51
754.918	40.57
755.097	40.91
755.277	41.16
755.456	40.57
755.635	41.58
755.815	42.65
755.994	42.25
756.173	42
756.352	42.14
756.532	41.78
756.711	42.54
756.89	42.03
757.069	42.91
757.248	42.57
757.427	41.77
757.607	41.52
757.786	41.05
757.965	41.03
758.144	41.07
758.323	41.41
758.502	41.28
758.681	41.42
758.86	41.84
759.039	40.99
759.218	40.99
759.397	42.14
759.576	40.84
759.755	40.33
759.934	40.88
760.113	40.89
760.291	40.35
760.47	40.94
760.649	41.59
760.828	40.69
761.007	40.39
761.186	40.17
761.364	39.55
761.543	40.34
761.722	40.53
761.901	39.8
762.079	40.04
762.258	40.62
762.437	40.98
762.615	39.79
762.794	39.83
762.972	39.8
763.151	40.17
763.33	39.96
763.508	39.43
763.687	39.25
763.865	40.05
764.044	39.56
764.222	39.39
764.401	38.63
764.579	39.3
764.758	39.3
764.936	40
765.114	38.86
765.293	39.02
765.471	39.55
765.65	40.56
765.828	40.2
766.006	40.89
766.184	41.06
766.363	41.48
766.541	41.17
766.719	42.07
766.898	41.48
767.076	42.2
767.254	42.65
767.432	42.73
767.61	42.3
767.788	42.16
767.967	41.6
768.145	41.11
768.323	40.46
768.501	41.24
768.679	41.17
768.857	40.99
769.035	41.32
769.213	41.8
769.391	41.54
769.569	41.15
769.747	42.22
769.925	41.8
770.103	42.59
770.281	43.28
770.459	43.86
770.636	43.64
770.814	44.55
770.992	44.58
771.17	43.61
771.348	44.71
771.525	46.4
771.703	45.49
771.881	47.17
772.059	48.18
772.236	48.12
772.414	47.67
772.592	47.34
772.769	47.13
772.947	46.78
773.125	46.78
773.302	45.11
773.48	44.07
773.657	43.65
773.835	41.92
774.013	41.28
774.19	42.72
774.368	41.69
774.545	43.02
774.723	42.77
774.9	43.61
775.077	43.88
775.255	44.96
775.432	45.7
775.61	45.6
775.787	46.35
775.964	45.76
776.142	45.7
776.319	45.75
776.496	44.58
776.674	44.72
776.851	45.34
777.028	45.62
777.205	45.08
777.382	45.14
777.56	45.86
777.737	49.66
777.914	49.02
778.091	49.04
778.268	50.51
778.445	50.19
778.622	50.1
778.8	49.93
778.977	48.98
779.154	55.08
779.331	55.08
779.508	56.17
779.685	53.31
779.862	54.15
780.038	54.08
780.215	52.96
780.392	52.59
780.569	51.59
780.746	52.1
780.923	52.45
781.1	48.01
781.277	47.87
781.453	45.6
781.63	43.4
781.807	43.67
781.984	43.72
782.16	45.56
782.337	46.78
782.514	47.41
782.691	48.45
782.867	47.36
783.044	45.78
783.221	45.28
783.397	46.3
783.574	47.71
783.75	49.03
783.927	49.55
784.103	49.09
784.28	48.68
784.456	49.3
784.633	47.54
784.809	49.18
784.986	49.8
785.162	49.17
785.339	48.73
785.515	49.28
785.692	46.65
785.868	46.68
786.044	46.73
786.221	46.3
786.397	46.68
786.573	48.58
786.749	47.72
786.926	48.54
787.102	48.09
787.278	48.13
787.454	47.57
787.631	48.38
787.807	47.11
787.983	43.78
788.159	43.47
788.335	43.12
788.511	40.24
788.687	41.68
788.863	41.67
789.039	43.78
789.216	43.99
789.392	44.72
789.568	44.91
789.744	46.82
789.919	48.96
790.095	49.86
790.271	50.88
790.447	52.21
790.623	52.2
790.799	52.58
790.975	50.16
791.151	50.66
791.327	51.79
791.502	51.73
791.678	49.05
791.854	49.4
792.03	50.38
792.205	50.65
792.381	51.53
792.557	53.02
792.733	52.35
792.908	53.48
793.084	52.41
793.259	52.12
793.435	51.14
793.611	52.3
793.786	52.68
793.962	52.62
794.137	50.17
794.313	48.02
794.488	46.8
794.664	47.67
794.839	46.91
795.015	49.75
795.19	48.06
795.366	49.41
795.541	49.7
795.716	48.62
795.892	48.55
796.067	49.7
796.242	49.89
796.418	49.22
796.593	48.92
796.768	49.78
796.944	49.58
797.119	50.02
797.294	48.43
797.469	49.32
797.644	50.72
797.82	50.14
797.995	49.58
798.17	49.27
798.345	50.24
798.52	49.43
798.695	50.62
798.87	49.72
799.045	49.58
799.22	51.63
799.395	50.54
799.57	50.45
799.745	50.96
799.92	50.05
800.095	53.85
800.27	53.76
800.445	53.94
800.62	52.28
800.795	53.22
800.97	54.97
801.145	53.54
801.319	54.75
801.494	53.43
801.669	53.17
801.844	56
802.018	53.74
802.193	54.3
802.368	52.92
802.543	52.95
802.717	51.92
802.892	49.78
803.067	51.58
803.241	49.82
803.416	52.33
803.59	52.22
803.765	50.45
803.94	50.51
804.114	49.64
804.289	51.95
804.463	52.12
804.638	49.86
804.812	53.97
804.986	51.5
805.161	51.05
805.335	50.15
805.51	48.51
805.684	49.47
805.858	48.59
806.033	45.72
806.207	43.68
806.381	43.49
806.556	45.74
806.73	42.35
806.904	41.92
807.078	41.48
807.253	39.75
807.427	39.75
807.601	39.37
807.775	40.59
807.949	44.75
808.123	45.46
808.298	47.48
808.472	46.86
808.646	46.97
808.82	48.96
808.994	49.4
809.168	52.69
809.342	57.35
809.516	57.22
809.69	56.97
809.864	55.46
810.038	59.98
810.212	59.01
810.385	57.63
810.559	60.27
810.733	62.63
810.907	64.16
811.081	60.8
811.255	56.41
811.428	56.43
811.602	55.43
811.776	56.81
811.95	53.02
812.123	54.13
812.297	56.32
812.471	54.15
812.644	51.11
812.818	51.46
812.992	49.75
813.165	53.08
813.339	52.46
813.512	51.69
813.686	50.35
813.86	50.83
814.033	50.49
814.207	50.48
814.38	50.31
814.554	51.45
814.727	51.02
814.9	55.73
815.074	54.41
815.247	54.18
815.421	53.2
815.594	56.31
815.767	53.58
815.941	51.32
816.114	48.74
816.287	50.6
816.46	48.84
816.634	51.06
816.807	52.26
816.98	51.79
817.153	55.33
817.327	57.21
817.5	57.01
817.673	61.7
817.846	63.61
818.019	66.31
818.192	66.2
818.365	63.16
818.538	62.14
818.711	57.22
818.884	56.72
819.057	55.08
819.23	55.2
819.403	50.7
819.576	47.9
819.749	46.32
819.922	45.2
820.095	44.55
820.268	46.87
820.441	46.95
820.614	46.47
820.786	45.12
820.959	43.32
821.132	41.45
821.305	40.89
821.477	40.76
821.65	40.36
821.823	40.08
821.996	38.68
822.168	38.34
822.341	37.7
822.514	37.71
822.686	37.29
822.859	37.43
823.031	37.37
823.204	37.68
823.376	37.35
823.549	37.77
823.722	37.42
823.894	38.29
824.067	38.4
824.239	38.69
824.411	39.08
824.584	39.46
824.756	39.65
824.929	39.77
825.101	39.83
825.273	39.96
825.446	39.69
825.618	39.71
825.79	38.93
825.963	38.78
826.135	38.24
826.307	38.23
826.479	39.05
826.652	38.47
826.824	38.37
826.996	38.18
827.168	38.03
827.34	38.21
827.512	38.63
827.684	39.23
827.856	39.99
828.029	40.73
828.201	39.98
828.373	39.44
828.545	40.38
828.717	41.68
828.889	41.88
829.061	42.79
829.232	43.1
829.404	43.06
829.576	43.79
829.748	43.68
829.92	45.85
830.092	47.72
830.264	48.41
830.436	48.07
830.607	48
830.779	50.11
830.951	51.36
831.123	50.15
831.294	50.45
831.466	48.59
831.638	47.42
831.809	44.7
831.981	46.19
832.153	45.64
832.324	47
832.496	48.35
832.667	48.58
832.839	47.17
833.011	48.21
833.182	50.14
833.354	50.87
833.525	53.62
833.697	53.17
833.868	49.86
834.039	51.22
834.211	50.38
834.382	49.45
834.554	49.39
834.725	48.91
834.896	49.23
835.068	47.73
835.239	47.63
835.41	46.69
835.581	46.65
835.753	48.57
835.924	47.82
836.095	47.58
836.266	46.33
836.438	44.95
836.609	45.53
836.78	45.01
836.951	46.08
837.122	46.32
837.293	44.33
837.464	44.37
837.635	44.46
837.806	44.58
837.977	45.84
838.148	49.17
838.319	49.53
838.49	50.75
838.661	50.59
838.832	51.28
839.003	50.48
839.174	56.13
839.345	56.77
839.516	57.63
839.687	58.78
839.857	58.11
840.028	55.47
840.199	56.47
840.37	57.38
840.54	62.19
840.711	58.7
840.882	61.21
841.053	59.88
841.223	58.01
841.394	55.81
841.564	54.6
841.735	55.92
841.906	56.74
842.076	53.47
842.247	54.8
842.417	50.05
842.588	56.03
842.758	54.92
842.929	56.62
843.099	62.12
843.27	66.01
843.44	68.13
843.611	66.5
843.781	64.42
843.951	67.58
844.122	69.18
844.292	74.37
844.462	74.25
844.633	74.94
844.803	75.25
844.973	76.22
845.144	74.6
845.314	77.48
845.484	79.84
845.654	82.87
845.824	88.06
845.995	87.09
846.165	82.32
846.335	81.64
846.505	84.86
846.675	82.52
846.845	77.2
847.015	74.97
847.185	71.81
847.355	74.39
847.525	74.65
847.695	75.88
847.865	72.98
848.035	76.47
848.205	70.78
848.375	73.03
848.545	65.32
848.715	69.91
848.884	78.38
849.054	79.33
849.224	87.15
849.394	87.36
849.564	84.35
849.733	86.68
849.903	85.17
850.073	93.27
850.243	89.27
850.412	98
850.582	94.79
850.752	89.82
850.921	89.96
851.091	86.81
851.26	95.64
851.43	85.94
851.599	82.07
851.769	85.06
851.939	84.03
852.108	89.7
852.278	94.92
852.447	93.98
852.616	98.13
852.786	94.8
852.955	93.51
853.125	94.12
853.294	103.44
853.463	99.01
853.633	101.8
853.802	97.07
853.971	95.89
854.141	88.27
854.31	90.9
854.479	82.49
854.648	85.7
854.818	80.9
854.987	78.45
855.156	84.81
855.325	95.84
855.494	93
855.663	96
855.832	94.85
856.001	106.3
856.171	107.86
856.34	116.1
856.509	125.34
856.678	139.61
856.847	132.35
857.016	117.77
857.185	108.36
857.353	113.41
857.522	118.61
857.691	122.02
857.86	125.8
858.029	114.93
858.198	114.87
858.367	119.12
858.535	116.9
858.704	110.94
858.873	115.35
859.042	126.2
859.21	122.62
859.379	125.66
859.548	109.2
859.717	95.33
859.885	95.75
860.054	98.85
860.222	73.15
860.391	72.92
860.56	72.57
860.728	71.8
860.897	51.74
861.065	44.86
861.234	45.42
861.402	52.68
861.571	57.47
861.739	62.03
861.908	56.57
862.076	76.45
862.244	85.65
862.413	88.21
862.581	95.15
862.749	104.62
862.918	109.9
863.086	108.32
863.254	108.8
863.423	111.85
863.591	114.12
863.759	112.71
863.927	104.37
864.096	94.73
864.264	98.72
864.432	90.08
864.6	89.82
864.768	73.84
864.936	74.94
865.104	78.77
865.272	86.64
865.44	97.52
865.608	91.88
865.776	101.2
865.944	100.24
866.112	91.74
866.28	91.05
866.448	90.71
866.616	98.73
866.784	92.97
866.952	90.35
867.12	85.35
867.288	84.32
867.455	88.3
867.623	90.19
867.791	91.57
867.959	92.45
868.127	89.9
868.294	94.54
868.462	94.36
868.63	103.84
868.797	104.3
868.965	108.94
869.133	100.98
869.3	101.6
869.468	90.01
869.636	79
869.803	94.09
869.971	112.9
870.138	109.34
870.306	108.39
870.473	109.44
870.641	106.92
870.808	97.65
870.975	98.61
871.143	99.92
871.31	100.9
871.478	123.91
871.645	112.81
871.812	100.71
871.98	101.51
872.147	100.59
872.314	95.42
872.482	93.72
872.649	103.34
872.816	102.95
872.983	104.93
873.15	109.11
873.318	102.25
873.485	96.72
873.652	99.39
873.819	104.72
873.986	116.81
874.153	118.36
874.32	123.01
874.487	115.94
874.654	109.65
874.821	108.26
874.988	100.11
875.155	101.52
875.322	111.89
875.489	113.71
875.656	109.67
875.823	97.12
875.99	91.06
876.157	104.26
876.324	101.14
876.49	99.39
876.657	104.17
876.824	107.13
876.991	112.29
877.157	108.91
877.324	110.41
877.491	110.55
877.658	115.26
877.824	121.64
877.991	107.54
878.157	111.81
878.324	112.65
878.491	113.21
878.657	116.99
878.824	109.27
878.99	104.33
879.157	105.87
879.323	101.69
879.49	100.08
879.656	99.26
879.823	97.52
879.989	90.55
880.156	89.92
880.322	87.74
880.488	82.67
880.655	79.54
880.821	83.95
880.987	80.4
881.154	78.96
881.32	74.41
881.486	69.79
881.652	69.47
881.819	71.9
881.985	71.89
882.151	67.13
882.317	62.7
882.483	60.17
882.649	57.49
882.816	57.11
882.982	55.53
883.148	53.55
883.314	51.53
883.48	51.65
883.646	48.53
883.812	47.06
883.978	48.55
884.144	48.87
884.31	47.59
884.476	47.33
884.642	48.16
884.807	48.77
884.973	49.73
885.139	50.22
885.305	51.17
885.471	52.17
885.637	51.02
885.802	48.4
885.968	49.9
886.134	51.56
886.3	50.86
886.465	48.55
886.631	47.62
886.797	47.66
886.962	48.65
887.128	48.79
887.293	50.63
887.459	56.9
887.625	60.75
887.79	62.04
887.956	62.56
888.121	67
888.287	68.57
888.452	73.66
888.618	79.34
888.783	86.16
