Data from LC_237_Reflection_3.txt Node
Date: Thu Nov 19 22:11:48 EST 2015
User: robert
Spectrometer: USB4E03001
Autoset integration time: false
Trigger mode: 4
Integration Time (sec): 1.000000E-1
Scans to average: 15
Electric dark correction enabled: true
Nonlinearity correction enabled: false
Boxcar width: 5
Stray light correction enabled: false
XAxis mode: Wavelengths
Stop averaging: false
Number of Pixels in Spectrum: 3648
>>>>>Begin Spectral Data<<<<<
177.566	-66.37
177.785	-3.14
178.005	10.39
178.225	-13.41
178.445	11.72
178.665	25.62
178.885	25.98
179.105	233.33
179.324	4.95
179.544	83.43
179.764	63.13
179.984	103.74
180.204	143
180.423	245.52
180.643	208.08
180.863	145
181.083	227.59
181.302	165.72
181.522	126.02
181.742	146.08
181.961	145.51
182.181	194.99
182.401	280.98
182.621	277.61
182.84	373.95
183.06	345.34
183.279	322.83
183.499	210.1
183.719	709.44
183.938	2001.68
184.158	-846.17
184.377	-1167.88
184.597	476.3
184.816	-4566.04
185.036	-178.25
185.256	3324.44
185.475	233.03
185.695	154.98
185.914	165.86
186.134	250.5
186.353	178.2
186.572	151.85
186.792	264.76
187.011	-1813.25
187.231	-306.3
187.45	-498.88
187.67	18.41
187.889	0.14
188.108	25.9
188.328	14.7
188.547	-59.78
188.766	-26.47
188.986	48.02
189.205	628.43
189.424	58.84
189.644	56.85
189.863	48.37
190.082	62.04
190.302	92.95
190.521	125.11
190.74	99.21
190.959	98.46
191.178	108.26
191.398	150.89
191.617	109.56
191.836	498.01
192.055	161.7
192.274	186.93
192.494	151.46
192.713	48.52
192.932	32.43
193.151	59.66
193.37	48.53
193.589	47.87
193.808	60.55
194.027	81.11
194.246	57.88
194.465	99.18
194.685	95.33
194.904	81.39
195.123	87.26
195.342	119.98
195.561	89.7
195.78	99.67
195.999	86.54
196.218	81.91
196.436	90.36
196.655	97.09
196.874	79.74
197.093	105.93
197.312	140.13
197.531	154.76
197.75	220.81
197.969	241.75
198.188	-431.59
198.407	-129.39
198.625	-189.1
198.844	-52.62
199.063	-1266.73
199.282	-87.09
199.501	-88.02
199.719	-135.44
199.938	-46.23
200.157	-102.56
200.376	-56.49
200.594	802.08
200.813	569.09
201.032	465.61
201.251	440.65
201.469	-54.81
201.688	62.79
201.907	149.34
202.125	674.34
202.344	177.79
202.563	177.67
202.781	193.86
203	101.33
203.218	132.78
203.437	179.54
203.656	243.08
203.874	345.71
204.093	434.49
204.311	117.56
204.53	103.23
204.748	93.37
204.967	78.22
205.185	66.04
205.404	81.91
205.622	80.21
205.841	73.88
206.059	29.86
206.278	64.83
206.496	88.02
206.715	190.81
206.933	155.88
207.151	151.33
207.37	320
207.588	253.11
207.806	222.29
208.025	236.2
208.243	301.14
208.461	490.63
208.68	266.7
208.898	225.18
209.116	128.97
209.335	160.4
209.553	113.6
209.771	641.18
209.989	166
210.208	262.86
210.426	709.03
210.644	-112.23
210.862	-50.08
211.081	22.61
211.299	37.93
211.517	67.5
211.735	80.04
211.953	70.43
212.171	68.46
212.39	68.21
212.608	77.07
212.826	87.74
213.044	103.23
213.262	97.89
213.48	78.29
213.698	57.6
213.916	24.78
214.134	-4.82
214.352	17.47
214.57	44.24
214.788	47.57
215.006	248.82
215.224	152.71
215.442	250.91
215.66	149.19
215.878	233.06
216.096	277.44
216.314	351.31
216.532	388.91
216.75	615.77
216.968	-76.15
217.185	-426.35
217.403	-289.39
217.621	-2183.94
217.839	160.14
218.057	94.31
218.275	73.2
218.492	74.76
218.71	72.56
218.928	53.95
219.146	47.94
219.363	49.49
219.581	51.04
219.799	53.83
220.017	36.77
220.234	58.54
220.452	62.71
220.67	72.95
220.887	76.03
221.105	75.32
221.323	63.17
221.54	66.44
221.758	66
221.976	54.93
222.193	52.07
222.411	48.88
222.629	40.07
222.846	31.04
223.064	45.72
223.281	33.26
223.499	17.81
223.716	42.41
223.934	37.78
224.151	30.98
224.369	25.75
224.586	28.3
224.804	41.34
225.021	54.43
225.239	49.86
225.456	38.47
225.674	39
225.891	48.87
226.108	37.42
226.326	36.51
226.543	39.34
226.76	50.65
226.978	40.92
227.195	30.64
227.413	14.52
227.63	14.5
227.847	14.21
228.064	14.14
228.282	9.32
228.499	11.38
228.716	11.53
228.934	10.55
229.151	11.86
229.368	9.9
229.585	8.83
229.802	9.13
230.02	9.22
230.237	8.07
230.454	7.73
230.671	8.08
230.888	8.59
231.105	5.98
231.323	6.92
231.54	4.09
231.757	5.45
231.974	6.95
232.191	10.64
232.408	11.02
232.625	12.08
232.842	16.91
233.059	17.53
233.276	20.34
233.493	21.93
233.71	24.01
233.927	23.64
234.144	23.89
234.361	20.9
234.578	18.71
234.795	16.9
235.012	18.15
235.229	9.89
235.446	14.08
235.663	5.86
235.879	4.02
236.096	-0.88
236.313	-2.22
236.53	-2.79
236.747	0.84
236.964	3.58
237.181	3.86
237.397	1.22
237.614	5.61
237.831	7.18
238.048	16.93
238.264	18.66
238.481	21.48
238.698	21.26
238.915	28.38
239.131	26.56
239.348	25.54
239.565	29.28
239.781	29.41
239.998	28.8
240.215	27.65
240.431	22.09
240.648	20.96
240.865	19.81
241.081	19.33
241.298	16.97
241.514	14.89
241.731	13.22
241.947	13.35
242.164	12.36
242.38	12.25
242.597	11.5
242.814	12.11
243.03	11.99
243.246	11.66
243.463	10.18
243.679	8.95
243.896	10.25
244.112	10.48
244.329	9.09
244.545	10.32
244.762	11.11
244.978	10.38
245.194	11.08
245.411	11.59
245.627	11.61
245.843	12.17
246.06	13.57
246.276	13.44
246.492	13.21
246.709	13.23
246.925	11.94
247.141	11.22
247.357	10.95
247.574	10.56
247.79	10.3
248.006	10.71
248.222	11.7
248.439	11.19
248.655	10.92
248.871	11.35
249.087	11.05
249.303	11.42
249.519	10.94
249.736	11.38
249.952	11.34
250.168	12.37
250.384	11.84
250.6	11.93
250.816	13.12
251.032	12.6
251.248	13.26
251.464	12.24
251.68	11.82
251.896	12.72
252.112	13.56
252.328	13.39
252.544	12.4
252.76	14
252.976	12.42
253.192	11.8
253.408	11.32
253.624	12.4
253.84	13.5
254.056	13.68
254.272	14.29
254.487	13.37
254.703	14.38
254.919	13.65
255.135	11.55
255.351	12.29
255.567	12.01
255.782	12.23
255.998	9.86
256.214	8.09
256.43	8.09
256.646	9.71
256.861	10.83
257.077	10.31
257.293	10.76
257.508	12.62
257.724	13.86
257.94	13.32
258.155	14.12
258.371	13.35
258.587	13.22
258.802	12.25
259.018	11.2
259.234	11.08
259.449	11.15
259.665	10.89
259.88	9.92
260.096	9.26
260.312	8.71
260.527	8.76
260.743	8.66
260.958	8.89
261.174	9.02
261.389	8.54
261.605	8.76
261.82	7.75
262.036	7.9
262.251	8.17
262.466	8.63
262.682	8.54
262.897	8.06
263.113	6.9
263.328	7.64
263.543	7.95
263.759	8.48
263.974	7.5
264.189	9.86
264.405	10.02
264.62	9.24
264.835	9.21
265.051	7.69
265.266	8.27
265.481	8.61
265.696	6.9
265.912	6.85
266.127	7.04
266.342	7.61
266.557	7.9
266.773	7.89
266.988	7.09
267.203	7.15
267.418	9.13
267.633	7.02
267.848	7.25
268.064	8.22
268.279	7.95
268.494	7.9
268.709	7.17
268.924	4.71
269.139	4.6
269.354	5.2
269.569	5.05
269.784	5.03
269.999	5.63
270.214	7.16
270.429	6.56
270.644	6.65
270.859	5.67
271.074	5.53
271.289	7.85
271.504	7.62
271.719	9.05
271.934	8.89
272.149	9.33
272.363	9.79
272.578	9.41
272.793	9.91
273.008	9.18
273.223	10.45
273.438	11.61
273.653	10.15
273.867	10.4
274.082	9.09
274.297	9.71
274.512	8.46
274.726	8.79
274.941	8.08
275.156	6.59
275.371	7.14
275.585	6.76
275.8	5.21
276.015	6.82
276.229	7.73
276.444	8.98
276.659	8.16
276.873	8.26
277.088	8.29
277.302	8.55
277.517	9.67
277.732	10.71
277.946	10.88
278.161	12.24
278.375	11.67
278.59	9.76
278.804	9.37
279.019	9.2
279.233	9.58
279.448	10.62
279.662	11.69
279.877	10.89
280.091	10.37
280.306	9.53
280.52	8.62
280.735	8.89
280.949	9.7
281.163	8.96
281.378	9.05
281.592	9.89
281.806	9.04
282.021	8.57
282.235	8.62
282.449	9.05
282.664	10.03
282.878	10.19
283.092	9.68
283.307	10.46
283.521	11.15
283.735	11.39
283.949	10.5
284.164	10.66
284.378	9.29
284.592	8.77
284.806	8.63
285.02	8.59
285.234	8.24
285.449	8.08
285.663	7.37
285.877	7.27
286.091	7.24
286.305	7.49
286.519	8.07
286.733	8.73
286.947	9.08
287.161	7.94
287.375	7.67
287.589	7.31
287.803	7.39
288.017	7.62
288.231	7.31
288.445	6.98
288.659	7.16
288.873	6.12
289.087	5.84
289.301	6.9
289.515	7.83
289.729	6.99
289.943	7.73
290.157	8.12
290.371	8.39
290.584	7.29
290.798	7.41
291.012	7.67
291.226	7.34
291.44	8.27
291.654	7.01
291.867	6.81
292.081	6.9
292.295	6.48
292.509	6.04
292.722	6.31
292.936	7.71
293.15	7.46
293.364	7.9
293.577	9.17
293.791	8.26
294.005	8.65
294.218	9.12
294.432	9.29
294.645	8.67
294.859	8.34
295.073	7.39
295.286	8.08
295.5	7.86
295.713	7.05
295.927	6.71
296.14	6.4
296.354	6.39
296.568	6.71
296.781	7.29
296.994	8.42
297.208	7.93
297.421	8.93
297.635	9.23
297.848	9.92
298.062	10.44
298.275	10.46
298.489	11.26
298.702	12.27
298.915	12.22
299.129	12.01
299.342	11.44
299.555	12.42
299.769	11.79
299.982	10.43
300.195	9.97
300.409	9.74
300.622	8.18
300.835	7.82
301.048	7.39
301.262	6.86
301.475	6.26
301.688	5.54
301.901	5.88
302.115	5.87
302.328	6.59
302.541	5.84
302.754	5.99
302.967	7.39
303.18	7.44
303.393	6.33
303.607	6.91
303.82	7.32
304.033	8.72
304.246	8.78
304.459	8.54
304.672	8.27
304.885	9.09
305.098	7.92
305.311	8.24
305.524	7.78
305.737	8.74
305.95	8.28
306.163	8.3
306.376	8.66
306.589	9
306.802	8.37
307.015	7.52
307.228	8.25
307.44	8.61
307.653	8.1
307.866	8.81
308.079	8.43
308.292	8.57
308.505	8.7
308.718	6.91
308.93	6.03
309.143	6.42
309.356	6.63
309.569	6.38
309.781	7.49
309.994	7.2
310.207	6.62
310.42	7.06
310.632	7.34
310.845	7.6
311.058	9
311.27	9.44
311.483	9.14
311.696	9.47
311.908	9.81
312.121	8.64
312.333	9.06
312.546	9.02
312.759	9.08
312.971	9.26
313.184	8.93
313.396	8.47
313.609	8.22
313.821	9.04
314.034	9.02
314.246	8.49
314.459	8.98
314.671	9.96
314.884	10.29
315.096	9.06
315.309	8.56
315.521	8.72
315.733	8.56
315.946	9.11
316.158	9.37
316.371	9.29
316.583	9.29
316.795	8.12
317.008	5.73
317.22	5.9
317.432	6.48
317.644	7.12
317.857	5.87
318.069	5.65
318.281	4.94
318.494	5.61
318.706	5.49
318.918	5.07
319.13	6.24
319.342	6.49
319.555	6.24
319.767	6.54
319.979	5.22
320.191	6.75
320.403	7.78
320.615	7.41
320.827	6.07
321.039	5.42
321.252	5.17
321.464	5.14
321.676	6.42
321.888	6.26
322.1	6.27
322.312	6.96
322.524	6.85
322.736	6.05
322.948	7.71
323.16	8.1
323.372	7.81
323.584	7.95
323.796	8.18
324.007	8.04
324.219	8.36
324.431	7.52
324.643	7.41
324.855	7.72
325.067	7.92
325.279	6.56
325.491	6.57
325.702	7.97
325.914	7
326.126	7.65
326.338	8.06
326.55	8.51
326.761	9.26
326.973	9.36
327.185	9.08
327.396	9.4
327.608	9.85
327.82	9.76
328.032	8.92
328.243	11.23
328.455	10.8
328.666	11.01
328.878	10.33
329.09	11.24
329.301	11.8
329.513	11.48
329.725	10.19
329.936	9.65
330.148	9.62
330.359	10.29
330.571	9.73
330.782	9.58
330.994	9.95
331.205	10.35
331.417	10.09
331.628	9.35
331.84	9.44
332.051	10.18
332.262	11.85
332.474	12.55
332.685	13.37
332.897	13.45
333.108	13.01
333.319	12.64
333.531	13.07
333.742	12.23
333.953	12.64
334.165	14.21
334.376	14.06
334.587	12.5
334.799	11.6
335.01	9.76
335.221	9.99
335.432	10.5
335.644	9.8
335.855	9.02
336.066	9.56
336.277	8.81
336.488	7.37
336.7	7.17
336.911	7.64
337.122	7.74
337.333	9.02
337.544	7.5
337.755	7.34
337.966	6.85
338.177	6.72
338.388	6.83
338.599	7.06
338.811	7.71
339.022	7
339.233	7.13
339.444	7.9
339.655	7.82
339.866	9.21
340.076	8.89
340.287	9.71
340.498	10.04
340.709	9.83
340.92	10.03
341.131	8.87
341.342	10.29
341.553	10.55
341.764	9.77
341.975	9.72
342.185	9.11
342.396	9.15
342.607	9.14
342.818	8.81
343.029	9.16
343.239	8.98
343.45	9.61
343.661	9.45
343.872	9.68
344.082	9.66
344.293	10
344.504	10.36
344.714	10.81
344.925	10.62
345.136	10.52
345.346	10.5
345.557	10.69
345.768	10.74
345.978	10.16
346.189	9.38
346.399	9.72
346.61	9.3
346.821	8.87
347.031	8.68
347.242	9.14
347.452	9.58
347.663	9.67
347.873	9.32
348.084	9.61
348.294	9.86
348.504	9.88
348.715	10.13
348.925	10.6
349.136	10.73
349.346	10.71
349.557	10.73
349.767	10.68
349.977	10.58
350.188	10.91
350.398	10.43
350.608	10.71
350.819	11.18
351.029	10.47
351.239	10.63
351.449	10.33
351.66	9.78
351.87	9.56
352.08	9.31
352.29	9.73
352.501	9.54
352.711	10.02
352.921	9.77
353.131	8.81
353.341	8.65
353.552	8.56
353.762	8.27
353.972	9.35
354.182	9.15
354.392	9.12
354.602	7.96
354.812	8
355.022	7.2
355.232	7.23
355.442	8.27
355.652	8.5
355.862	7.99
356.072	8.29
356.282	7.96
356.492	7.78
356.702	7.91
356.912	8.37
357.122	8.2
357.332	8.58
357.542	8.56
357.752	8.16
357.962	8.21
358.171	8.35
358.381	8.61
358.591	8.46
358.801	8.41
359.011	8.14
359.221	7.98
359.43	8.01
359.64	7.96
359.85	7.87
360.06	7.85
360.269	7.82
360.479	7.54
360.689	7.31
360.899	6.88
361.108	7.3
361.318	7.36
361.528	7.38
361.737	7.61
361.947	7.45
362.156	7.79
362.366	7.82
362.576	7.74
362.785	7.58
362.995	7.77
363.204	8.24
363.414	7.85
363.623	7.86
363.833	7.85
364.042	7.77
364.252	8.05
364.461	7.46
364.671	7.41
364.88	7.88
365.09	8.34
365.299	8.09
365.509	8.12
365.718	8.54
365.927	8.72
366.137	8.7
366.346	8.9
366.555	8.89
366.765	9.12
366.974	9.28
367.183	8.65
367.393	8.01
367.602	8.7
367.811	8.91
368.021	8.84
368.23	8.38
368.439	8.14
368.648	7.63
368.857	8.08
369.067	7.96
369.276	8.27
369.485	8.14
369.694	8.1
369.903	7.65
370.112	7.48
370.321	7.01
370.531	7.53
370.74	7.79
370.949	7.99
371.158	7.68
371.367	7.62
371.576	7.08
371.785	7.35
371.994	7.86
372.203	7.83
372.412	7.42
372.621	7.54
372.83	7.59
373.039	7.69
373.248	7.96
373.457	7.72
373.666	8.11
373.874	8.06
374.083	7.9
374.292	7.96
374.501	8.06
374.71	8.42
374.919	8.11
375.128	7.82
375.336	7.37
375.545	7.03
375.754	6.78
375.963	6.69
376.171	6.35
376.38	6.26
376.589	6.08
376.798	5.7
377.006	5.63
377.215	5.85
377.424	5.81
377.632	6.3
377.841	6.44
378.05	6.63
378.258	6.59
378.467	6.74
378.675	6.91
378.884	6.62
379.093	6.74
379.301	6.97
379.51	7.23
379.718	7.3
379.927	6.9
380.135	6.97
380.344	6.8
380.552	6.88
380.761	6.71
380.969	6.7
381.177	6.86
381.386	6.67
381.594	6.35
381.803	6.13
382.011	6.16
382.219	6.23
382.428	5.87
382.636	5.93
382.845	5.78
383.053	6.23
383.261	6.22
383.469	6.63
383.678	6.79
383.886	6.92
384.094	7.26
384.302	7.41
384.511	6.98
384.719	6.97
384.927	7
385.135	7.3
385.343	7.17
385.552	7.01
385.76	6.41
385.968	6.26
386.176	6.35
386.384	6.05
386.592	5.79
386.8	6.15
387.008	6.06
387.216	5.92
387.424	5.92
387.633	6.13
387.841	6.41
388.049	6.75
388.257	6.65
388.465	6.48
388.672	6.34
388.88	6.48
389.088	6.5
389.296	6.64
389.504	6.78
389.712	6.2
389.92	6.02
390.128	5.71
390.336	5.39
390.544	5.59
390.751	5.57
390.959	5.41
391.167	5.5
391.375	5.23
391.583	5.02
391.79	4.82
391.998	5.14
392.206	5.05
392.414	5.29
392.621	5.31
392.829	5.08
393.037	5.17
393.244	5.33
393.452	5.04
393.66	5.42
393.867	5.72
394.075	5.79
394.283	5.44
394.49	5.55
394.698	5.62
394.905	5.67
395.113	5.93
395.32	6.05
395.528	6.27
395.735	6.51
395.943	6.32
396.15	6.13
396.358	6.23
396.565	6.35
396.773	6.08
396.98	5.87
397.188	6.23
397.395	5.97
397.602	5.77
397.81	5.57
398.017	5.3
398.225	5.41
398.432	5.35
398.639	5.31
398.847	5.41
399.054	5.3
399.261	5.3
399.468	5.03
399.676	5.43
399.883	5.33
400.09	5.22
400.297	5.68
400.505	5.48
400.712	5.79
400.919	5.73
401.126	6.01
401.333	6.26
401.54	6.21
401.748	6.37
401.955	6.13
402.162	6.06
402.369	6.55
402.576	6.27
402.783	6.04
402.99	5.9
403.197	5.88
403.404	5.31
403.611	5.42
403.818	5.46
404.025	5.44
404.232	5.15
404.439	5.32
404.646	5
404.853	5.12
405.06	5.23
405.267	5.48
405.474	5.63
405.681	5.88
405.887	5.87
406.094	5.74
406.301	5.62
406.508	5.96
406.715	5.68
406.922	5.34
407.128	4.96
407.335	5.04
407.542	4.68
407.749	4.54
407.955	4.75
408.162	4.84
408.369	5.08
408.575	5.2
408.782	4.98
408.989	5.19
409.195	5.57
409.402	5.77
409.609	5.81
409.815	5.79
410.022	5.73
410.228	5.59
410.435	5.43
410.642	5.35
410.848	5.24
411.055	4.97
411.261	5.16
411.468	5.13
411.674	5.23
411.881	5.47
412.087	5.5
412.294	5.74
412.5	5.34
412.706	5.22
412.913	5.28
413.119	5.22
413.326	5.52
413.532	5.45
413.738	5.25
413.945	5.07
414.151	5
414.357	5.32
414.564	5.12
414.77	5.55
414.976	5.54
415.182	5.42
415.389	5.47
415.595	5.44
415.801	5.28
416.007	5.49
416.214	5.53
416.42	5.38
416.626	5.16
416.832	5.27
417.038	5.13
417.244	5
417.45	5.03
417.657	4.99
417.863	5.22
418.069	5.23
418.275	5.24
418.481	5.33
418.687	5.19
418.893	5.24
419.099	5.15
419.305	5.16
419.511	5.23
419.717	5.05
419.923	4.95
420.129	4.71
420.335	4.62
420.541	4.51
420.746	4.32
420.952	4.44
421.158	4.37
421.364	4.37
421.57	4.38
421.776	4.51
421.982	4.63
422.187	4.91
422.393	4.89
422.599	4.94
422.805	4.89
423.01	4.96
423.216	4.9
423.422	4.83
423.628	4.79
423.833	4.65
424.039	4.6
424.245	4.52
424.45	4.39
424.656	4.48
424.862	4.48
425.067	4.41
425.273	4.45
425.478	4.53
425.684	4.65
425.889	4.74
426.095	4.92
426.301	4.89
426.506	5.06
426.712	5.09
426.917	5.19
427.123	5.31
427.328	5.31
427.533	5.27
427.739	5.4
427.944	5.36
428.15	5.12
428.355	4.82
428.561	4.69
428.766	4.63
428.971	4.51
429.177	4.37
429.382	4.27
429.587	4.4
429.793	4.43
429.998	4.28
430.203	4.23
430.408	4.34
430.614	4.69
430.819	4.57
431.024	4.62
431.229	4.51
431.434	4.5
431.64	4.47
431.845	4.61
432.05	4.6
432.255	4.44
432.46	4.46
432.665	4.67
432.87	4.55
433.076	4.73
433.281	4.58
433.486	4.7
433.691	4.72
433.896	4.64
434.101	4.53
434.306	4.49
434.511	4.62
434.716	4.69
434.921	4.55
435.126	4.63
435.331	4.49
435.535	4.62
435.74	4.58
435.945	4.69
436.15	4.66
436.355	4.84
436.56	4.79
436.765	4.82
436.97	4.64
437.174	4.52
437.379	4.37
437.584	4.24
437.789	4.2
437.993	4.12
438.198	4.09
438.403	4.01
438.608	4.12
438.812	4.14
439.017	4.09
439.222	4.27
439.426	4.38
439.631	4.39
439.836	4.58
440.04	4.53
440.245	4.71
440.45	4.61
440.654	4.82
440.859	4.66
441.063	4.83
441.268	4.79
441.472	4.7
441.677	4.58
441.881	4.62
442.086	4.46
442.29	4.51
442.495	4.32
442.699	4.4
442.904	4.32
443.108	4.35
443.312	4.17
443.517	4.1
443.721	4.18
443.925	4.39
444.13	4.51
444.334	4.72
444.538	4.79
444.743	4.94
444.947	4.96
445.151	4.92
445.356	4.94
445.56	5.04
445.764	5.1
445.968	4.98
446.173	4.94
446.377	4.82
446.581	4.75
446.785	4.65
446.989	4.59
447.193	4.47
447.398	4.41
447.602	4.31
447.806	4.21
448.01	4.14
448.214	4.11
448.418	3.95
448.622	4.05
448.826	4.18
449.03	4.13
449.234	3.98
449.438	3.98
449.642	4.03
449.846	4.06
450.05	4.06
450.254	4.12
450.458	4.15
450.662	4.21
450.866	4.03
451.069	3.87
451.273	3.95
451.477	3.97
451.681	3.96
451.885	3.94
452.089	4.05
452.292	4.09
452.496	4.07
452.7	4
452.904	4.04
453.107	4.05
453.311	4.27
453.515	4.19
453.719	4.32
453.922	4.45
454.126	4.36
454.33	4.34
454.533	4.19
454.737	4.13
454.94	4.26
455.144	4.28
455.348	4.39
455.551	4.36
455.755	4.33
455.958	4.43
456.162	4.31
456.365	4.48
456.569	4.45
456.772	4.53
456.976	4.69
457.179	4.77
457.383	4.79
457.586	4.74
457.79	4.71
457.993	4.8
458.196	4.62
458.4	4.71
458.603	4.59
458.807	4.58
459.01	4.56
459.213	4.57
459.417	4.44
459.62	4.41
459.823	4.34
460.026	4.24
460.23	4.22
460.433	4.2
460.636	4.23
460.839	4.13
461.042	4.18
461.246	4.18
461.449	4.14
461.652	4.23
461.855	4.26
462.058	4.36
462.261	4.4
462.464	4.45
462.668	4.55
462.871	4.43
463.074	4.44
463.277	4.24
463.48	4.3
463.683	4.24
463.886	4.33
464.089	4.32
464.292	4.34
464.495	4.51
464.698	4.41
464.901	4.35
465.104	4.38
465.306	4.67
465.509	4.89
465.712	4.7
465.915	4.71
466.118	4.59
466.321	4.54
466.524	4.44
466.726	4.23
466.929	4.33
467.132	4.34
467.335	4.41
467.538	4.3
467.74	4.18
467.943	4.33
468.146	4.27
468.348	4.17
468.551	4.08
468.754	4.07
468.956	4.23
469.159	4.23
469.362	4.27
469.564	4.33
469.767	4.54
469.969	4.48
470.172	4.62
470.375	4.66
470.577	4.8
470.78	5.06
470.982	5.13
471.185	5.04
471.387	4.94
471.59	4.88
471.792	4.78
471.995	4.66
472.197	4.6
472.399	4.55
472.602	4.73
472.804	4.58
473.007	4.53
473.209	4.43
473.411	4.39
473.614	4.5
473.816	4.75
474.018	4.73
474.22	4.65
474.423	4.86
474.625	4.83
474.827	4.71
475.03	4.79
475.232	4.66
475.434	4.87
475.636	4.78
475.838	4.86
476.04	4.68
476.243	4.7
476.445	4.7
476.647	4.57
476.849	4.46
477.051	4.46
477.253	4.51
477.455	4.61
477.657	4.44
477.859	4.53
478.061	4.38
478.263	4.32
478.465	4.26
478.667	4.18
478.869	4.24
479.071	4.16
479.273	4.05
479.475	4
479.677	3.92
479.879	3.99
480.081	3.9
480.283	3.84
480.485	3.82
480.686	3.84
480.888	3.93
481.09	3.96
481.292	4.2
481.494	4.25
481.695	4.26
481.897	4.32
482.099	4.25
482.301	4.31
482.502	4.37
482.704	4.31
482.906	4.31
483.107	4.29
483.309	4.28
483.511	4.2
483.712	4.18
483.914	4.18
484.115	4.14
484.317	4.21
484.519	4.22
484.72	4.24
484.922	4.24
485.123	4.25
485.325	4.24
485.526	4.22
485.728	4.26
485.929	4.3
486.131	4.25
486.332	4.26
486.534	4.17
486.735	4.11
486.936	4.08
487.138	4.14
487.339	4.07
487.541	4.16
487.742	4.11
487.943	4.09
488.144	4.12
488.346	4.15
488.547	4.15
488.748	4.19
488.95	4.24
489.151	4.23
489.352	4.2
489.553	4.36
489.755	4.25
489.956	4.33
490.157	4.33
490.358	4.33
490.559	4.38
490.76	4.42
490.961	4.49
491.163	4.45
491.364	4.44
491.565	4.46
491.766	4.35
491.967	4.48
492.168	4.44
492.369	4.42
492.57	4.39
492.771	4.44
492.972	4.39
493.173	4.33
493.374	4.37
493.575	4.42
493.776	4.44
493.976	4.41
494.177	4.33
494.378	4.45
494.579	4.38
494.78	4.27
494.981	4.17
495.182	4.26
495.382	4.18
495.583	4.16
495.784	4.03
495.985	4.06
496.185	4.04
496.386	4.02
496.587	4.04
496.788	4.16
496.988	4.29
497.189	4.23
497.39	4.35
497.59	4.41
497.791	4.39
497.992	4.41
498.192	4.39
498.393	4.53
498.593	4.57
498.794	4.57
498.994	4.47
499.195	4.47
499.395	4.47
499.596	4.3
499.796	4.29
499.997	4.4
500.197	4.4
500.398	4.42
500.598	4.29
500.799	4.31
500.999	4.26
501.199	4.45
501.4	4.43
501.6	4.48
501.801	4.44
502.001	4.47
502.201	4.42
502.402	4.58
502.602	4.58
502.802	4.72
503.002	4.74
503.203	4.64
503.403	4.51
503.603	4.46
503.803	4.41
504.003	4.54
504.204	4.55
504.404	4.42
504.604	4.39
504.804	4.49
505.004	4.48
505.204	4.49
505.404	4.65
505.604	4.78
505.804	4.96
506.005	5.08
506.205	5.05
506.405	5.07
506.605	5.31
506.805	5.28
507.005	5.2
507.204	5.18
507.404	4.99
507.604	4.88
507.804	4.87
508.004	4.88
508.204	4.98
508.404	5.03
508.604	5.07
508.804	4.95
509.003	4.98
509.203	4.89
509.403	4.83
509.603	4.91
509.803	4.96
510.002	4.9
510.202	4.7
510.402	4.64
510.602	4.59
510.801	4.61
511.001	4.57
511.201	4.5
511.4	4.56
511.6	4.73
511.8	4.84
511.999	4.87
512.199	4.98
512.398	5.05
512.598	5.12
512.797	5.26
512.997	5.24
513.197	5.38
513.396	5.52
513.596	5.55
513.795	5.35
513.994	5.37
514.194	5.45
514.393	5.39
514.593	5.4
514.792	5.37
514.992	5.17
515.191	5.32
515.39	5.25
515.59	5.23
515.789	5.2
515.988	5.39
516.188	5.3
516.387	5.16
516.586	5.2
516.786	5.18
516.985	5.07
517.184	5.12
517.383	4.87
517.582	4.77
517.782	4.78
517.981	4.9
518.18	4.79
518.379	4.75
518.578	4.83
518.777	4.73
518.976	4.78
519.176	4.8
519.375	4.85
519.574	5.01
519.773	5.09
519.972	5.17
520.171	5.13
520.37	5.16
520.569	5.22
520.768	5.25
520.967	5.38
521.166	5.34
521.365	5.52
521.564	5.52
521.762	5.43
521.961	5.47
522.16	5.33
522.359	5.29
522.558	5.43
522.757	5.46
522.956	5.52
523.154	5.38
523.353	5.54
523.552	5.41
523.751	5.4
523.949	5.4
524.148	5.41
524.347	5.59
524.546	5.58
524.744	5.5
524.943	5.64
525.142	5.52
525.34	5.62
525.539	5.58
525.737	5.67
525.936	5.74
526.135	5.86
526.333	5.84
526.532	5.72
526.73	5.79
526.929	5.79
527.127	5.72
527.326	5.74
527.524	5.79
527.723	5.79
527.921	5.72
528.12	5.7
528.318	5.68
528.516	5.7
528.715	5.74
528.913	5.78
529.112	5.8
529.31	5.8
529.508	5.83
529.707	5.79
529.905	5.86
530.103	5.92
530.301	5.94
530.5	5.95
530.698	6.03
530.896	6.09
531.094	6.1
531.293	6.16
531.491	6.22
531.689	6.24
531.887	6.34
532.085	6.25
532.283	6.19
532.481	6.18
532.68	6.23
532.878	6.22
533.076	6.19
533.274	6.13
533.472	6.07
533.67	6.12
533.868	6.07
534.066	6.08
534.264	6.11
534.462	6.2
534.66	6.31
534.858	6.27
535.056	6.23
535.253	6.27
535.451	6.39
535.649	6.55
535.847	6.52
536.045	6.58
536.243	6.68
536.441	6.8
536.638	6.79
536.836	6.79
537.034	6.9
537.232	7.09
537.43	7.14
537.627	7.02
537.825	6.95
538.023	6.95
538.22	7.03
538.418	6.89
538.616	6.8
538.813	6.84
539.011	6.85
539.209	6.9
539.406	6.77
539.604	6.85
539.801	7.13
539.999	7.13
540.196	7.12
540.394	7.14
540.591	7.17
540.789	7.24
540.986	7.18
541.184	7.2
541.381	7.2
541.579	7.18
541.776	7.19
541.974	7.17
542.171	7.23
542.368	7.34
542.566	7.4
542.763	7.44
542.96	7.48
543.158	7.61
543.355	7.66
543.552	7.69
543.75	7.83
543.947	7.91
544.144	7.87
544.341	7.95
544.539	7.95
544.736	8
544.933	8.06
545.13	8.19
545.327	8.23
545.524	8.32
545.722	8.39
545.919	8.43
546.116	8.4
546.313	8.48
546.51	8.45
546.707	8.44
546.904	8.46
547.101	8.53
547.298	8.58
547.495	8.6
547.692	8.64
547.889	8.63
548.086	8.73
548.283	8.82
548.48	8.96
548.677	9.03
548.874	9.22
549.07	9.49
549.267	9.47
549.464	9.57
549.661	9.56
549.858	9.67
550.055	9.73
550.251	9.74
550.448	9.83
550.645	9.99
550.842	10.06
551.038	10
551.235	9.96
551.432	10.06
551.628	9.97
551.825	10.11
552.022	10.05
552.218	10.05
552.415	10.17
552.612	10.05
552.808	9.96
553.005	10.03
553.201	10.21
553.398	10.23
553.594	10.17
553.791	10.14
553.987	10.19
554.184	10.24
554.38	10.22
554.577	10.22
554.773	10.4
554.97	10.36
555.166	10.55
555.362	10.43
555.559	10.5
555.755	10.68
555.952	10.82
556.148	10.89
556.344	10.86
556.541	11.04
556.737	10.88
556.933	10.95
557.129	11.03
557.326	10.9
557.522	10.99
557.718	10.88
557.914	11.08
558.11	11.01
558.307	11.14
558.503	11.35
558.699	11.46
558.895	11.49
559.091	11.57
559.287	11.66
559.483	11.83
559.679	12.03
559.876	12.08
560.072	12.08
560.268	12.28
560.464	12.09
560.66	12.16
560.856	12.27
561.052	12.52
561.247	12.81
561.443	12.93
561.639	12.79
561.835	12.94
562.031	13.19
562.227	13.25
562.423	13.42
562.619	13.68
562.815	13.72
563.01	13.81
563.206	13.89
563.402	13.69
563.598	13.72
563.793	14.02
563.989	14.02
564.185	14.11
564.381	14.27
564.576	14.39
564.772	14.61
564.968	14.72
565.163	14.73
565.359	14.76
565.555	14.85
565.75	15.01
565.946	15.04
566.141	15.11
566.337	15
566.532	15.01
566.728	15.04
566.923	15.03
567.119	15.16
567.314	15.27
567.51	15.48
567.705	15.53
567.901	15.58
568.096	15.7
568.292	15.65
568.487	15.85
568.682	15.91
568.878	15.97
569.073	16.03
569.268	15.9
569.464	16.01
569.659	15.99
569.854	16.18
570.05	16.16
570.245	16.18
570.44	16.25
570.635	16.28
570.831	16.37
571.026	16.31
571.221	16.33
571.416	16.52
571.611	16.63
571.806	16.67
572.002	16.75
572.197	16.89
572.392	17.13
572.587	17.36
572.782	17.37
572.977	17.38
573.172	17.47
573.367	17.43
573.562	17.54
573.757	17.57
573.952	17.55
574.147	17.57
574.342	17.71
574.537	17.48
574.732	17.44
574.927	17.47
575.121	17.55
575.316	17.75
575.511	17.93
575.706	18.04
575.901	18.03
576.096	18.18
576.29	18.25
576.485	18.18
576.68	18.24
576.875	18.39
577.069	18.46
577.264	18.59
577.459	18.64
577.654	18.76
577.848	18.73
578.043	19.01
578.238	19.25
578.432	19.22
578.627	19.42
578.821	19.68
579.016	19.62
579.21	19.87
579.405	19.85
579.6	19.83
579.794	19.9
579.989	19.98
580.183	19.85
580.378	19.71
580.572	19.85
580.766	19.85
580.961	19.84
581.155	19.92
581.35	19.84
581.544	20.08
581.738	20.27
581.933	20.19
582.127	19.99
582.321	20.14
582.516	20.38
582.71	20.53
582.904	20.51
583.099	20.6
583.293	20.85
583.487	21.01
583.681	21.23
583.875	21.39
584.07	21.66
584.264	21.97
584.458	21.99
584.652	22.07
584.846	22.14
585.04	22.39
585.234	22.45
585.428	22.37
585.623	22.34
585.817	22.28
586.011	22.02
586.205	22.05
586.399	22.27
586.593	22.12
586.787	22
586.981	22.05
587.174	22.08
587.368	22.14
587.562	22.18
587.756	22.36
587.95	22.27
588.144	22.49
588.338	22.47
588.532	22.44
588.725	22.67
588.919	22.52
589.113	22.68
589.307	22.56
589.501	22.68
589.694	22.74
589.888	22.86
590.082	22.83
590.275	22.73
590.469	22.85
590.663	23.02
590.856	23.28
591.05	23.47
591.244	23.55
591.437	23.66
591.631	23.79
591.824	23.83
592.018	23.68
592.212	23.92
592.405	24.05
592.599	24.14
592.792	24.12
592.986	23.93
593.179	24.22
593.372	24.14
593.566	24.31
593.759	24.3
593.953	24.38
594.146	24.58
594.339	24.63
594.533	24.66
594.726	24.56
594.92	24.49
595.113	24.57
595.306	24.36
595.499	24.14
595.693	24.26
595.886	24.31
596.079	24.34
596.272	24.28
596.466	24.44
596.659	24.51
596.852	24.51
597.045	24.48
597.238	24.42
597.431	24.69
597.624	25
597.818	24.94
598.011	24.77
598.204	24.8
598.397	24.97
598.59	24.83
598.783	24.9
598.976	24.9
599.169	25.18
599.362	25.07
599.555	24.85
599.748	24.83
599.941	24.79
600.134	24.98
600.326	25.09
600.519	24.87
600.712	24.64
600.905	24.75
601.098	24.92
601.291	24.66
601.483	24.98
601.676	25.09
601.869	25.13
602.062	25.38
602.255	25.5
602.447	25.57
602.64	25.63
602.833	25.85
603.025	25.87
603.218	25.89
603.411	25.89
603.603	26.03
603.796	26.07
603.989	26
604.181	25.86
604.374	25.89
604.566	26.01
604.759	25.93
604.951	25.98
605.144	25.84
605.336	25.8
605.529	25.85
605.721	25.73
605.914	25.75
606.106	25.78
606.299	25.99
606.491	25.97
606.683	25.72
606.876	26.09
607.068	26.01
607.26	26.1
607.453	26.18
607.645	26.28
607.837	26.5
608.03	26.64
608.222	26.94
608.414	26.81
608.606	26.77
608.799	27
608.991	27.14
609.183	27.37
609.375	27.61
609.567	27.81
609.759	28.02
609.952	28.12
610.144	28.14
610.336	28.26
610.528	28.54
610.72	28.77
610.912	29.06
611.104	29.11
611.296	29.28
611.488	29.44
611.68	29.61
611.872	29.63
612.064	29.73
612.256	29.72
612.448	29.59
612.64	29.51
612.832	29.63
613.023	29.26
613.215	29.07
613.407	29.1
613.599	28.84
613.791	28.71
613.983	28.85
614.174	28.45
614.366	28.48
614.558	28.45
614.75	28.17
614.941	28.24
615.133	28.33
615.325	28.41
615.516	28.21
615.708	28.32
615.9	28.26
616.091	28.1
616.283	28.33
616.475	28.48
616.666	28.61
616.858	28.94
617.049	28.85
617.241	28.72
617.432	28.9
617.624	28.94
617.815	29.13
618.007	29.19
618.198	29.17
618.39	29.25
618.581	29.08
618.773	29.12
618.964	29.06
619.155	28.88
619.347	29.08
619.538	29.24
619.729	29.28
619.921	29.09
620.112	29.26
620.303	29.23
620.494	29.08
620.686	29.32
620.877	29.24
621.068	29
621.259	28.9
621.451	29.14
621.642	28.92
621.833	28.99
622.024	28.93
622.215	28.63
622.406	28.77
622.597	28.66
622.788	28.66
622.98	28.43
623.171	28.8
623.362	29.01
623.553	28.95
623.744	29.05
623.935	28.95
624.126	29.21
624.317	29.35
624.508	29.43
624.698	29.81
624.889	29.92
625.08	30.13
625.271	30.1
625.462	30.09
625.653	29.91
625.844	29.86
626.034	29.95
626.225	29.8
626.416	29.85
626.607	29.9
626.798	29.85
626.988	29.7
627.179	29.76
627.37	29.6
627.56	29.7
627.751	29.62
627.942	29.6
628.132	29.68
628.323	29.83
628.514	29.8
628.704	29.8
628.895	29.63
629.085	29.97
629.276	30
629.466	30.46
629.657	30.53
629.847	30.78
630.038	31.01
630.228	31.3
630.419	31.23
630.609	31.51
630.8	31.64
630.99	32.06
631.181	32.06
631.371	31.98
631.561	31.93
631.752	31.81
631.942	31.95
632.132	31.86
632.323	31.71
632.513	31.69
632.703	31.57
632.893	31.41
633.084	31.08
633.274	30.81
633.464	30.92
633.654	30.75
633.844	30.74
634.034	30.64
634.225	30.55
634.415	30.57
634.605	30.48
634.795	30.56
634.985	30.52
635.175	30.58
635.365	30.59
635.555	30.72
635.745	30.66
635.935	30.86
636.125	30.84
636.315	30.95
636.505	30.56
636.695	30.75
636.885	30.71
637.075	30.81
637.265	31.25
637.455	31.19
637.644	30.99
637.834	31.17
638.024	30.85
638.214	31.06
638.404	31.21
638.593	31.26
638.783	31.36
638.973	31.35
639.163	31.29
639.352	31.14
639.542	31.4
639.732	31.51
639.921	31.34
640.111	31.88
640.301	31.74
640.49	31.75
640.68	31.88
640.87	32.01
641.059	32
641.249	32.27
641.438	32.26
641.628	32.3
641.817	32.43
642.007	32.55
642.196	32.48
642.386	32.6
642.575	32.41
642.764	32.77
642.954	32.79
643.143	33.12
643.333	32.99
643.522	32.78
643.711	32.69
643.901	32.64
644.09	32.72
644.279	32.83
644.469	32.58
644.658	32.69
644.847	32.21
645.036	31.76
645.226	31.58
645.415	31.23
645.604	31.29
645.793	31.42
645.982	31.39
646.171	31.43
646.361	31.52
646.55	31.77
646.739	31.83
646.928	32.46
647.117	32.95
647.306	32.56
647.495	32.82
647.684	33.06
647.873	33.1
648.062	33.47
648.251	33.38
648.44	33
648.629	33.1
648.818	33.17
649.007	32.96
649.196	32.98
649.384	33.31
649.573	33.68
649.762	33.45
649.951	33.23
650.14	33.16
650.328	33.11
650.517	33.02
650.706	33.06
650.895	32.9
651.083	32.98
651.272	32.51
651.461	32.7
651.65	32.48
651.838	32.7
652.027	32.84
652.216	32.72
652.404	32.98
652.593	33.29
652.781	32.99
652.97	33.1
653.158	33.02
653.347	33.47
653.535	33.35
653.724	33.36
653.912	33.34
654.101	33.62
654.289	33.4
654.478	33.59
654.666	33.39
654.855	33.6
655.043	33.92
655.231	34.03
655.42	33.96
655.608	33.84
655.796	34.1
655.985	34.23
656.173	34.16
656.361	34.79
656.55	34.66
656.738	34.86
656.926	35.06
657.114	35.05
657.302	34.83
657.491	34.69
657.679	34.64
657.867	34.23
658.055	34.31
658.243	34.19
658.431	34.14
658.619	34.05
658.807	34.04
658.996	33.78
659.184	33.56
659.372	33.85
659.56	33.84
659.748	34.05
659.936	34.37
660.124	34.23
660.311	34.45
660.499	34.02
660.687	34.22
660.875	34.35
661.063	34.56
661.251	34.59
661.439	34.23
661.627	34.68
661.814	34.66
662.002	34.49
662.19	34.7
662.378	34.63
662.565	34.94
662.753	34.84
662.941	34.8
663.129	34.85
663.316	34.85
663.504	35.07
663.692	34.99
663.879	35.17
664.067	35.25
664.254	35.25
664.442	35.26
664.63	35.49
664.817	35.2
665.005	35.48
665.192	35.58
665.38	35.72
665.567	36.13
665.755	36.17
665.942	36.24
666.13	36.2
666.317	36.07
666.504	35.85
666.692	35.63
666.879	36.3
667.067	36.26
667.254	36.03
667.441	36.18
667.629	35.7
667.816	35.56
668.003	35.56
668.19	35.85
668.378	35.99
668.565	35.95
668.752	36.42
668.939	35.96
669.127	35.61
669.314	35.8
669.501	35.51
669.688	35.86
669.875	36.04
670.062	36.11
670.249	35.95
670.436	35.85
670.623	36.02
670.81	35.59
670.997	35.83
671.184	36.03
671.371	36.64
671.558	36.64
671.745	36.5
671.932	36.63
672.119	36.05
672.306	36.03
672.493	35.86
672.68	35.84
672.867	36.39
673.054	36.58
673.24	36.76
673.427	36.28
673.614	36.48
673.801	36.49
673.988	36.58
674.174	37.24
674.361	37.27
674.548	37.49
674.734	37.99
674.921	37.65
675.108	37.38
675.294	37.28
675.481	37.45
675.668	37.63
675.854	37.61
676.041	37.32
676.227	37.48
676.414	37.78
676.601	37.83
676.787	37.37
676.974	37.34
677.16	37.19
677.347	37.55
677.533	37.23
677.719	37.17
677.906	37.02
678.092	37.12
678.279	36.84
678.465	36.62
678.651	36.32
678.838	36.15
679.024	36.3
679.21	36.33
679.397	35.84
679.583	35.93
679.769	36.11
679.955	36.2
680.142	36.13
680.328	36.13
680.514	35.89
680.7	35.77
680.886	35.99
681.073	35.93
681.259	36.08
681.445	36.08
681.631	36.04
681.817	36.04
682.003	36.35
682.189	36.26
682.375	36.51
682.561	36.78
682.747	37.04
682.933	37
683.119	37.22
683.305	37.51
683.491	37.7
683.677	37.79
683.863	37.66
684.049	37.85
684.235	38.19
684.42	38.17
684.606	38.72
684.792	39.13
684.978	39.41
685.164	39.12
685.349	39.26
685.535	38.91
685.721	38.65
685.907	38.68
686.092	38.41
686.278	38.33
686.464	38.56
686.649	37.84
686.835	37.51
687.021	37.28
687.206	37.43
687.392	37.06
687.577	37.55
687.763	37.73
687.948	37.85
688.134	37.85
688.319	37.45
688.505	37.18
688.69	37.5
688.876	37.78
689.061	37.5
689.247	37.59
689.432	37.59
689.618	37.24
689.803	37.62
689.988	37.59
690.174	37.56
690.359	37.82
690.544	38.19
690.73	38.19
690.915	38.2
691.1	38.69
691.285	39.01
691.471	38.8
691.656	39.2
691.841	39.2
692.026	39.2
692.211	39.28
692.396	39.64
692.582	38.59
692.767	38.81
692.952	38.64
693.137	38.95
693.322	38.29
693.507	38.53
693.692	38.54
693.877	38.27
694.062	38.52
694.247	38.29
694.432	38.42
694.617	39.58
694.802	39.58
694.987	39.77
695.172	39.65
695.357	40.14
695.541	40.33
695.726	40.42
695.911	40.48
696.096	40.23
696.281	40.36
696.466	39.93
696.65	39.59
696.835	39.55
697.02	38.97
697.204	38.62
697.389	38.34
697.574	38.28
697.759	37.8
697.943	38.09
698.128	37.82
698.312	37.6
698.497	37.48
698.682	37.2
698.866	37.39
699.051	37.76
699.235	38.12
699.42	38.32
699.604	38.26
699.789	38.41
699.973	38.63
700.158	38.89
700.342	39.25
700.527	39.52
700.711	39.84
700.895	39.61
701.08	39.77
701.264	39.5
701.448	39.78
701.633	39.78
701.817	40.48
702.001	39.96
702.186	40.24
702.37	40.65
702.554	40.85
702.738	40.59
702.923	41.17
703.107	41.57
703.291	41.89
703.475	41.67
703.659	42.36
703.843	42.32
704.027	42.48
704.212	41.83
704.396	42.32
704.58	42.21
704.764	42.64
704.948	41.87
705.132	41.73
705.316	41.55
705.5	41.63
705.684	41.2
705.868	40.77
706.052	40.89
706.235	41.71
706.419	40.98
706.603	41.43
706.787	41.07
706.971	41.49
707.155	41.22
707.339	41.52
707.522	41.05
707.706	41.65
707.89	41.54
708.074	41.93
708.257	41.93
708.441	42.23
708.625	41.88
708.808	42.2
708.992	42.04
709.176	42.3
709.359	41.55
709.543	41.65
709.727	41.21
709.91	41.28
710.094	40.3
710.277	40.23
710.461	39.55
710.644	39.67
710.828	39.48
711.011	39.71
711.195	39.9
711.378	40.69
711.562	41
711.745	40.86
711.928	40.52
712.112	40.66
712.295	40.53
712.478	40.47
712.662	40.65
712.845	40.8
713.028	40.46
713.212	40.16
713.395	40.11
713.578	40.01
713.761	39.93
713.945	39.95
714.128	40.46
714.311	40.79
714.494	40.95
714.677	40.66
714.86	40.75
715.043	40.93
715.227	40.76
715.41	40.46
715.593	40.48
715.776	41.16
715.959	41.83
716.142	41.8
716.325	42.01
716.508	42.06
716.691	42.48
716.874	42.56
717.057	43.23
717.239	43.58
717.422	43.79
717.605	44.49
717.788	44.45
717.971	44.09
718.154	44.11
718.337	43.49
718.519	43.92
718.702	43.75
718.885	43.51
719.068	42.9
719.25	42.69
719.433	42.32
719.616	41.55
719.798	40.16
719.981	40.86
720.164	40.75
720.346	41.09
720.529	40.34
720.712	39.77
720.894	39.46
721.077	39.41
721.259	39.67
721.442	40.12
721.624	40.3
721.807	40.62
721.989	40.14
722.172	40.24
722.354	39.92
722.537	40.81
722.719	41.07
722.901	41.73
723.084	42.26
723.266	42.37
723.448	42.16
723.631	43.24
723.813	44.03
723.995	44.37
724.178	44.18
724.36	44.65
724.542	44.21
724.724	44.79
724.907	44.34
725.089	43.63
725.271	43.21
725.453	43.13
725.635	41.78
725.817	42.5
725.999	42.83
726.181	43.27
726.364	43.15
726.546	42.95
726.728	43.1
726.91	43.68
727.092	43.49
727.274	43.33
727.456	43.53
727.638	43.4
727.819	42
728.001	41.51
728.183	40.57
728.365	40.61
728.547	40.62
728.729	40.27
728.911	40.07
729.093	40.26
729.274	40.98
729.456	40.49
729.638	40.39
729.82	41.07
730.001	40.03
730.183	40.7
730.365	40.83
730.546	41.23
730.728	40.98
730.91	41.01
731.091	41.02
731.273	41.21
731.455	41.89
731.636	42.86
731.818	43.11
731.999	43.8
732.181	43.68
732.362	43.6
732.544	43.3
732.725	43.93
732.907	44.52
733.088	44.69
733.27	44.59
733.451	44.69
733.633	44.2
733.814	44.16
733.995	43.91
734.177	43.85
734.358	44.62
734.539	44.4
734.721	43.35
734.902	43.4
735.083	43.58
735.264	43.53
735.446	43.43
735.627	43.2
735.808	42.73
735.989	43.34
736.17	43.98
736.351	42.35
736.533	42.73
736.714	43.98
736.895	43.9
737.076	43.91
737.257	43.78
737.438	44.12
737.619	43.53
737.8	44.4
737.981	45.05
738.162	44.52
738.343	44.93
738.524	45.96
738.705	45.74
738.886	45.07
739.067	44.61
739.247	44.88
739.428	43.97
739.609	44.63
739.79	44.56
739.971	43.72
740.151	43.4
740.332	43.36
740.513	43.35
740.694	42.14
740.874	42.04
741.055	43.05
741.236	41.97
741.417	43.06
741.597	43.7
741.778	43.32
741.958	43.08
742.139	43.01
742.32	42.92
742.5	41.54
742.681	43.26
742.861	43.73
743.042	42.8
743.222	43.08
743.403	42.21
743.583	41.89
743.764	42.03
743.944	42.47
744.124	42.3
744.305	42.69
744.485	43.84
744.666	42.83
744.846	43.25
745.026	43.17
745.207	43.47
745.387	43.87
745.567	43.45
745.747	43.17
745.928	44.03
746.108	45.36
746.288	45.6
746.468	45.43
746.648	45.97
746.829	45.54
747.009	46.66
747.189	46.4
747.369	46.82
747.549	46.98
747.729	46.49
747.909	46.3
748.089	46.63
748.269	47.35
748.449	46.95
748.629	47.14
748.809	46.39
748.989	45.12
749.169	45.24
749.349	44.6
749.529	44.95
749.709	45.82
749.889	45.55
750.068	44.48
750.248	43.36
750.428	43.66
750.608	43.22
750.788	44.05
750.967	45.22
751.147	45.24
751.327	44.75
751.507	44.6
751.686	44.49
751.866	44.32
752.046	44.72
752.225	45.85
752.405	45.29
752.585	44.95
752.764	43.72
752.944	42.97
753.123	43.11
753.303	44.19
753.482	43.79
753.662	43.88
753.841	43.71
754.021	44.03
754.2	43.1
754.38	43.5
754.559	43.9
754.739	44.86
754.918	44.4
755.097	44.32
755.277	44.06
755.456	44.62
755.635	44.22
755.815	44.19
755.994	43.9
756.173	44.14
756.352	44.22
756.532	44.35
756.711	44.9
756.89	45.56
757.069	45.11
757.248	43.81
757.427	43.73
757.607	43.29
757.786	43.69
757.965	43.7
758.144	43.99
758.323	43.61
758.502	42.52
758.681	42.07
758.86	41.65
759.039	42.25
759.218	43.32
759.397	43.35
759.576	44.17
759.755	42.97
759.934	41.96
760.113	41.47
760.291	42.65
760.47	42.86
760.649	43.41
760.828	43.63
761.007	43.85
761.186	44.85
761.364	44
761.543	43.9
761.722	45.05
761.901	45.69
762.079	45.61
762.258	44.08
762.437	44.6
762.615	44.62
762.794	44.92
762.972	45.13
763.151	44.29
763.33	44.94
763.508	44.53
763.687	44.68
763.865	45
764.044	44.97
764.222	44.95
764.401	45.15
764.579	44.62
764.758	44.42
764.936	43.8
765.114	43.58
765.293	43.56
765.471	43.78
765.65	42.99
765.828	42.78
766.006	43.25
766.184	43.45
766.363	43.02
766.541	43.27
766.719	43.15
766.898	43.48
767.076	43.3
767.254	42.79
767.432	42.69
767.61	43.56
767.788	43.78
767.967	42.97
768.145	43.35
768.323	44.08
768.501	44.27
768.679	44.39
768.857	43.89
769.035	44.71
769.213	45.07
769.391	45.15
769.569	44.99
769.747	44.63
769.925	45.63
770.103	45.39
770.281	44.55
770.459	44.52
770.636	44.63
770.814	46.56
770.992	45.52
771.17	45.76
771.348	45.51
771.525	44.76
771.703	44.67
771.881	43.85
772.059	44.99
772.236	44.06
772.414	45.51
772.592	44.97
772.769	42.67
772.947	44.16
773.125	44.54
773.302	45.82
773.48	46.54
773.657	47.16
773.835	48.47
774.013	47.92
774.19	49.16
774.368	48.17
774.545	48.54
774.723	49.64
774.9	49.7
775.077	50.64
775.255	50.13
775.432	50.74
775.61	51.15
775.787	50.58
775.964	50.58
776.142	51.14
776.319	49.98
776.496	49.62
776.674	50.05
776.851	50.22
777.028	50.29
777.205	50.16
777.382	49.36
777.56	47.9
777.737	47.86
777.914	47.65
778.091	46.57
778.268	46.64
778.445	48.29
778.622	48.62
778.8	47.59
778.977	45.29
779.154	50.88
779.331	51.09
779.508	52.43
779.685	52.08
779.862	53.06
780.038	54.47
780.215	55.19
780.392	54.24
780.569	55.14
780.746	53.94
780.923	54.65
781.1	48.34
781.277	49.45
781.453	48.36
781.63	48.29
781.807	47.74
781.984	48.15
782.16	48.45
782.337	48.63
782.514	48.06
782.691	49.67
782.867	49.29
783.044	48.76
783.221	47.31
783.397	48.02
783.574	48.58
783.75	49.4
783.927	50.1
784.103	50
784.28	50.06
784.456	48.8
784.633	48.81
784.809	48.81
784.986	49.94
785.162	49.53
785.339	48.49
785.515	49.17
785.692	48.55
785.868	47.94
786.044	45.04
786.221	47.01
786.397	47.68
786.573	47.7
786.749	46.68
786.926	46.05
787.102	46.98
787.278	46.92
787.454	45.29
787.631	45.8
787.807	45.49
787.983	47.45
788.159	46.41
788.335	46.18
788.511	46.85
788.687	48.29
788.863	49.49
789.039	49.71
789.216	49.7
789.392	49.9
789.568	49.39
789.744	49.56
789.919	49.36
790.095	47.85
790.271	48.87
790.447	46.85
790.623	46.2
790.799	45.73
790.975	43.98
791.151	44.12
791.327	44.38
791.502	43.42
791.678	42.46
791.854	44.97
792.03	46.81
792.205	45.48
792.381	47.56
792.557	47.84
792.733	46.46
792.908	47.91
793.084	49.85
793.259	48.35
793.435	49.37
793.611	48.69
793.786	44.2
793.962	41.82
794.137	41.57
794.313	41.53
794.488	42.31
794.664	42.62
794.839	42.5
795.015	41.4
795.19	41.38
795.366	40.94
795.541	42.73
795.716	43.22
795.892	43.97
796.067	41.57
796.242	40.68
796.418	42.05
796.593	41.61
796.768	40.14
796.944	39.69
797.119	40.41
797.294	41.11
797.469	40.21
797.644	41.75
797.82	42.26
797.995	45.36
798.17	46.4
798.345	45.36
798.52	47.92
798.695	48.95
798.87	49.57
799.045	50.1
799.22	51.17
799.395	52.4
799.57	53.07
799.745	54.44
799.92	52.37
800.095	52.29
800.27	51.71
800.445	50.7
800.62	50.4
800.795	50.29
800.97	50.58
801.145	49.37
801.319	46.67
801.494	47.22
801.669	46.09
801.844	50.02
802.018	50.08
802.193	50.7
802.368	49.97
802.543	51.52
802.717	51.94
802.892	53.68
803.067	54.37
803.241	53.44
803.416	50.89
803.59	50.59
803.765	48.5
803.94	48.19
804.114	48.33
804.289	48.44
804.463	46.92
804.638	44.99
804.812	43.66
804.986	43.2
805.161	45.69
805.335	44.75
805.51	46.01
805.684	44.21
805.858	46.05
806.033	45.18
806.207	44.47
806.381	46.28
806.556	47.61
806.73	48.6
806.904	49.21
807.078	50.43
807.253	53.66
807.427	52.17
807.601	55.47
807.775	53.4
807.949	52.26
808.123	53.1
808.298	52.35
808.472	53.23
808.646	50.82
808.82	49.86
808.994	49.22
809.168	48.32
809.342	47.93
809.516	45.82
809.69	46.29
809.864	49.04
810.038	50.16
810.212	50.53
810.385	51.16
810.559	52.07
810.733	50.36
810.907	49.64
811.081	49.01
811.255	49.85
811.428	49.65
811.602	51.2
811.776	49.4
811.95	49.52
812.123	48.71
812.297	46.42
812.471	46.37
812.644	48.2
812.818	51.07
812.992	53.14
813.165	55.07
813.339	55.11
813.512	53.75
813.686	53.05
813.86	52.59
814.033	54.04
814.207	54.08
814.38	54.43
814.554	52.82
814.727	49.26
814.9	50.89
815.074	49.32
815.247	51.54
815.421	49.45
815.594	49.14
815.767	48.7
815.941	48.91
816.114	50.32
816.287	50.76
816.46	55.96
816.634	54.81
816.807	50.69
816.98	50.59
817.153	47.46
817.327	48.89
817.5	50.69
817.673	51.6
817.846	51.81
818.019	53.1
818.192	52.79
818.365	45.75
818.538	47.42
818.711	46.77
818.884	47.49
819.057	48.04
819.23	49.02
819.403	46.87
819.576	45.87
819.749	45.05
819.922	43.09
820.095	43.37
820.268	46.34
820.441	47.96
820.614	48.64
820.786	48.16
820.959	49
821.132	48.26
821.305	47.81
821.477	47.5
821.65	46.62
821.823	46.16
821.996	45.02
822.168	44.59
822.341	43.04
822.514	42.05
822.686	41.86
822.859	41.31
823.031	41.43
823.204	41.9
823.376	41.31
823.549	41.3
823.722	41.15
823.894	41.47
824.067	41.35
824.239	41.63
824.411	41.92
824.584	42.12
824.756	42.28
824.929	41.91
825.101	42.2
825.273	42.62
825.446	42.61
825.618	42.65
825.79	42.67
825.963	42.76
826.135	42.8
826.307	42.53
826.479	42.58
826.652	42.8
826.824	42.65
826.996	41.76
827.168	42.16
827.34	42.18
827.512	42.93
827.684	42.91
827.856	43.1
828.029	43.15
828.201	43.51
828.373	43.41
828.545	43.58
828.717	44.11
828.889	44.29
829.061	44.46
829.232	46.18
829.404	46.62
829.576	46.51
829.748	46.74
829.92	46.64
830.092	48.32
830.264	47.68
830.436	47.08
830.607	46.94
830.779	47.01
830.951	47.96
831.123	45.46
831.294	42.89
831.466	44.48
831.638	45.1
831.809	47.67
831.981	47.25
832.153	48.51
832.324	50.9
832.496	52.03
832.667	53.77
832.839	50.07
833.011	50.58
833.182	51.31
833.354	51.29
833.525	48.81
833.697	47.85
833.868	47.16
834.039	48.7
834.211	47.43
834.382	47.5
834.554	46.42
834.725	47.31
834.896	47.53
835.068	47.12
835.239	46.26
835.41	46.97
835.581	47.8
835.753	47.48
835.924	46.55
836.095	45.59
836.266	43.85
836.438	44.03
836.609	44.72
836.78	44.99
836.951	45.97
837.122	45.11
837.293	45.87
837.464	43.26
837.635	44.48
837.806	44.54
837.977	45.15
838.148	48.95
838.319	47.06
838.49	47.16
838.661	49.62
838.832	50.36
839.003	52.55
839.174	53.7
839.345	56.38
839.516	54.37
839.687	52.85
839.857	53.03
840.028	49.08
840.199	53.08
840.37	53.28
840.54	49.39
840.711	49.01
840.882	48.41
841.053	44.74
841.223	42.14
841.394	41.03
841.564	42.06
841.735	43.07
841.906	46.62
842.076	44.75
842.247	44.81
842.417	46.31
842.588	47.51
842.758	44.06
842.929	44.37
843.099	46.34
843.27	51.18
843.44	53.03
843.611	52.76
843.781	46.25
843.951	48.58
844.122	45.44
844.292	37.74
844.462	34.96
844.633	37.73
844.803	41.48
844.973	37.77
845.144	36.36
845.314	32.58
845.484	30.4
845.654	36.98
845.824	35.16
845.995	29.88
846.165	34.5
846.335	38.89
846.505	40.21
846.675	43.78
846.845	54.79
847.015	48.69
847.185	49.83
847.355	55.1
847.525	59.08
847.695	59.07
847.865	70.97
848.035	70.57
848.205	63.01
848.375	66.55
848.545	64.69
848.715	51.93
848.884	57.65
849.054	57.64
849.224	54.74
849.394	53.33
849.564	48.47
849.733	50.59
849.903	57.03
850.073	58.2
850.243	57.05
850.412	59.6
850.582	65.13
850.752	63.41
850.921	67.47
851.091	62.57
851.26	65.87
851.43	71.88
851.599	76.33
851.769	76.9
851.939	83.76
852.108	85.03
852.278	81.64
852.447	83.1
852.616	81.01
852.786	87.56
852.955	89.03
853.125	87.16
853.294	94.52
853.463	86.67
853.633	84.68
853.802	89.01
853.971	97.2
854.141	96.34
854.31	92.26
854.479	93.48
854.648	76.76
854.818	78.9
854.987	69.96
855.156	57.99
855.325	59.12
855.494	63.62
855.663	60.12
855.832	51.35
856.001	40.69
856.171	37.65
856.34	37.64
856.509	33.81
856.678	38.27
856.847	46.28
857.016	42.54
857.185	42.1
857.353	33.69
857.522	31.55
857.691	36.66
857.86	38.7
858.029	42.4
858.198	46.03
858.367	47.06
858.535	42.34
858.704	42.6
858.873	49.76
859.042	47.68
859.21	53.29
859.379	55.68
859.548	48.51
859.717	50.38
859.885	46.61
860.054	49.49
860.222	45.13
860.391	48.55
860.56	42.96
860.728	46.31
860.897	52.41
861.065	46.4
861.234	41.81
861.402	45.85
861.571	50.22
861.739	56.15
861.908	52.36
862.076	54.2
862.244	56.4
862.413	61.98
862.581	55.87
862.749	57.34
862.918	59.81
863.086	66.61
863.254	66.86
863.423	68.25
863.591	64.35
863.759	62.97
863.927	73.29
864.096	71.87
864.264	74.47
864.432	74.53
864.6	73.55
864.768	71.44
864.936	66.41
865.104	58.11
865.272	62.09
865.44	62
865.608	60.96
865.776	48.18
865.944	46.07
866.112	46.91
866.28	51.46
866.448	46.12
866.616	55.4
866.784	49.43
866.952	61.31
867.12	57.64
867.288	56.16
867.455	58.71
867.623	60.04
867.791	57.89
867.959	65.8
868.127	65.54
868.294	69.05
868.462	64.97
868.63	66.68
868.797	64.36
868.965	72.69
869.133	72.38
869.3	79.68
869.468	84.06
869.636	92.16
869.803	78.15
869.971	74.07
870.138	70.35
870.306	79.64
870.473	79.44
870.641	85.62
870.808	74.46
870.975	88.07
871.143	86.99
871.31	97.85
871.478	96.86
871.645	118.43
871.812	115.49
871.98	108.76
872.147	91.59
872.314	102.28
872.482	91.8
872.649	96.5
872.816	83.49
872.983	74.21
873.15	60.02
873.318	57.59
873.485	51.01
873.652	48.93
873.819	54.8
873.986	53.46
874.153	53.9
874.32	46.69
874.487	45
874.654	57.61
874.821	53.94
874.988	57.3
875.155	62.38
875.322	59.1
875.489	61.62
875.656	61.4
875.823	71
875.99	62.08
876.157	62.46
876.324	65.03
876.49	52.74
876.657	60.84
876.824	59.27
876.991	66.75
877.157	70.45
877.324	74.13
877.491	70.06
877.658	64.05
877.824	77.12
877.991	85.52
878.157	83.97
878.324	93.38
878.491	89.29
878.657	92.83
878.824	83.99
878.99	77.61
879.157	69.29
879.323	77.71
879.49	70.67
879.656	67.11
879.823	62.82
879.989	59.68
880.156	54.07
880.322	56.89
880.488	49.84
880.655	42.1
880.821	39.55
880.987	44.75
881.154	40.19
881.32	47.5
881.486	43.07
881.652	39.85
881.819	39.33
881.985	39.34
882.151	40.01
882.317	41.18
882.483	45.51
882.649	46.85
882.816	46.28
882.982	46.74
883.148	45.42
883.314	45.84
883.48	46.28
883.646	47.36
883.812	47.78
883.978	48.25
884.144	48.42
884.31	47.71
884.476	46.27
884.642	45.05
884.807	45.21
884.973	45.96
885.139	45.01
885.305	43.37
885.471	43.69
885.637	44.75
885.802	44.04
885.968	44.14
886.134	44.38
886.3	46.91
886.465	50.1
886.631	51.35
886.797	50.75
886.962	51.58
887.128	52.98
887.293	53.56
887.459	53.26
887.625	54.43
887.79	56.88
887.956	52.83
888.121	51.58
888.287	47.51
888.452	41.5
888.618	39.87
888.783	41.14
