Data from LC_212__Reflection_2.txt Node
Date: Thu Nov 19 12:36:57 EST 2015
User: robert
Spectrometer: USB4E03001
Autoset integration time: false
Trigger mode: 4
Integration Time (sec): 1.000000E-1
Scans to average: 15
Electric dark correction enabled: true
Nonlinearity correction enabled: false
Boxcar width: 5
Stray light correction enabled: false
XAxis mode: Wavelengths
Stop averaging: false
Number of Pixels in Spectrum: 3648
>>>>>Begin Spectral Data<<<<<
177.566	191.97
177.785	-62.35
178.005	30.77
178.225	42.77
178.445	40.97
178.665	14.76
178.885	-268.46
179.105	-283.52
179.324	-49.36
179.544	225.89
179.764	52.09
179.984	113.81
180.204	60.28
180.423	67.16
180.643	39.86
180.863	24.04
181.083	26.5
181.302	-18.62
181.522	-147.1
181.742	-29.73
181.961	-73.39
182.181	-60.34
182.401	-39.06
182.621	-68.59
182.84	-68.35
183.06	-52.06
183.279	-25.85
183.499	-1.51
183.719	-3.14
183.938	25.05
184.158	54.73
184.377	67.88
184.597	42.95
184.816	46.96
185.036	120.67
185.256	65.1
185.475	77.05
185.695	83.32
185.914	83.47
186.134	71.96
186.353	56.36
186.572	165.06
186.792	225.89
187.011	-820.46
187.231	-556.59
187.45	-107.27
187.67	-34.54
187.889	-30.94
188.108	-433.19
188.328	-11.38
188.547	3.9
188.766	329.83
188.986	97.07
189.205	84.96
189.424	39.89
189.644	39.52
189.863	100.35
190.082	55.67
190.302	-32.74
190.521	-15.63
190.74	6.29
190.959	90.47
191.178	380.03
191.398	387.32
191.617	805.98
191.836	669.73
192.055	190.25
192.274	85.6
192.494	71.11
192.713	205.1
192.932	192.31
193.151	338.64
193.37	203.11
193.589	391.42
193.808	-509.06
194.027	913.5
194.246	625.75
194.465	-787.49
194.685	4618.68
194.904	-267.74
195.123	-1208.61
195.342	-280.17
195.561	-211.08
195.78	-1310.06
195.999	-231.72
196.218	1082.26
196.436	-15130.77
196.655	1042.05
196.874	126.09
197.093	170.05
197.312	118.99
197.531	372.78
197.75	921.54
197.969	302.92
198.188	-3476.15
198.407	-298.68
198.625	35.09
198.844	65.38
199.063	111.27
199.282	80.32
199.501	60.61
199.719	67.61
199.938	89.92
200.157	78.21
200.376	95.84
200.594	81.4
200.813	83.07
201.032	9.88
201.251	-40.2
201.469	-135.83
201.688	-190.43
201.907	-73.19
202.125	-122.66
202.344	-64.92
202.563	-41.44
202.781	-39.42
203	-83.32
203.218	-107.4
203.437	-169.01
203.656	-294.22
203.874	-907.69
204.093	-334.4
204.311	189.9
204.53	37.44
204.748	43.74
204.967	17.04
205.185	5.82
205.404	-27.78
205.622	-25.83
205.841	-44.25
206.059	-183.85
206.278	-5387.57
206.496	-550.31
206.715	-2116.92
206.933	190.26
207.151	91.25
207.37	49.64
207.588	58.33
207.806	-19.17
208.025	-3.54
208.243	-73.99
208.461	-387.02
208.68	-962.76
208.898	-248.83
209.116	5890.38
209.335	-47.51
209.553	58.84
209.771	42.63
209.989	65.8
210.208	-75.29
210.426	-77.15
210.644	103.26
210.862	86.94
211.081	-87.04
211.299	7.16
211.517	-23.79
211.735	-4307.69
211.953	-285.24
212.171	-78.46
212.39	-26.49
212.608	-19.78
212.826	-17.8
213.044	-71.34
213.262	-51.81
213.48	-6.59
213.698	-83.79
213.916	-36.73
214.134	-5.56
214.352	-1.91
214.57	22.8
214.788	-60.57
215.006	797.6
215.224	206.89
215.442	104.25
215.66	78.2
215.878	40.15
216.096	-8.14
216.314	8.93
216.532	111.13
216.75	102.35
216.968	131.05
217.185	149.27
217.403	171.89
217.621	223.04
217.839	207.89
218.057	240.49
218.275	180.45
218.492	191.73
218.71	159.98
218.928	104.65
219.146	112.78
219.363	88.01
219.581	94.31
219.799	74.78
220.017	66.71
220.234	91.48
220.452	139.71
220.67	225.08
220.887	75.53
221.105	67.54
221.323	104.64
221.54	63.67
221.758	90.37
221.976	50.3
222.193	28.44
222.411	29.77
222.629	23.45
222.846	25.9
223.064	30.49
223.281	42.92
223.499	41.62
223.716	51.3
223.934	59.06
224.151	55.05
224.369	53.17
224.586	109.24
224.804	232.81
225.021	161.54
225.239	110.89
225.456	116.16
225.674	61.4
225.891	39.58
226.108	21.48
226.326	22.42
226.543	24.23
226.76	11.88
226.978	-10.12
227.195	-2.27
227.413	-12.51
227.63	-9.02
227.847	0.48
228.064	0.44
228.282	3.3
228.499	7.16
228.716	7.94
228.934	9.19
229.151	12.26
229.368	10.88
229.585	13.78
229.802	14.22
230.02	18.14
230.237	16.23
230.454	23.31
230.671	21.32
230.888	17.89
231.105	19.28
231.323	18.31
231.54	20.8
231.757	21.64
231.974	20.97
232.191	32.5
232.408	37.13
232.625	38.51
232.842	36.39
233.059	37.91
233.276	39.61
233.493	36.47
233.71	38.13
233.927	31.18
234.144	29
234.361	25.73
234.578	17.23
234.795	7.84
235.012	12.69
235.229	8.81
235.446	14.38
235.663	13.18
235.879	18.51
236.096	23.22
236.313	26.33
236.53	27.08
236.747	34.76
236.964	36.65
237.181	40.29
237.397	32.84
237.614	29.93
237.831	21.71
238.048	22.26
238.264	21.66
238.481	14.19
238.698	13.54
238.915	16.84
239.131	10.79
239.348	11.83
239.565	10.96
239.781	11.04
239.998	15.29
240.215	19.39
240.431	20.63
240.648	19.12
240.865	20.09
241.081	20.55
241.298	20.53
241.514	20.74
241.731	20.26
241.947	20.82
242.164	21.54
242.38	19.18
242.597	18.09
242.814	19.55
243.03	18.16
243.246	16.03
243.463	16.01
243.679	16.98
243.896	16.53
244.112	18.27
244.329	17.62
244.545	20.38
244.762	23.69
244.978	21.28
245.194	18.48
245.411	17.36
245.627	20.1
245.843	20.64
246.06	19.02
246.276	16.93
246.492	15.2
246.709	13.99
246.925	13.13
247.141	12.34
247.357	12.41
247.574	13.36
247.79	15.29
248.006	14.43
248.222	13.53
248.439	13.03
248.655	14.13
248.871	15.33
249.087	16.87
249.303	16.38
249.519	16.8
249.736	18
249.952	16.54
250.168	15.4
250.384	14.96
250.6	15.19
250.816	17.09
251.032	14.5
251.248	12.73
251.464	10.64
251.68	11.93
251.896	12.75
252.112	13.53
252.328	13.86
252.544	13.08
252.76	15.12
252.976	16.43
253.192	14.76
253.408	18.07
253.624	17.16
253.84	17
254.056	16.29
254.272	16.78
254.487	18.06
254.703	19.36
254.919	19.87
255.135	19.54
255.351	15.87
255.567	18.21
255.782	15.52
255.998	13.16
256.214	12.19
256.43	12.46
256.646	12.54
256.861	10.95
257.077	12.73
257.293	11.55
257.508	13.01
257.724	16.22
257.94	14.09
258.155	13.6
258.371	13.92
258.587	14.35
258.802	14.77
259.018	12.88
259.234	12.48
259.449	12.06
259.665	11.91
259.88	11.45
260.096	10.82
260.312	11.35
260.527	11.47
260.743	12.58
260.958	13.09
261.174	11.48
261.389	12.64
261.605	12.8
261.82	12.77
262.036	12.68
262.251	13.23
262.466	13.72
262.682	13.86
262.897	13.91
263.113	12.94
263.328	12.27
263.543	13.56
263.759	14.32
263.974	13.23
264.189	12.3
264.405	13.24
264.62	11.85
264.835	9.9
265.051	8.06
265.266	7.68
265.481	7.81
265.696	8.65
265.912	9.95
266.127	8.36
266.342	10.59
266.557	10.88
266.773	11.9
266.988	12.61
267.203	14.15
267.418	14.41
267.633	16.02
267.848	16.65
268.064	15.5
268.279	14.99
268.494	15.01
268.709	14.75
268.924	15.28
269.139	14
269.354	13.3
269.569	13
269.784	11.74
269.999	11.57
270.214	10.92
270.429	14.5
270.644	14.94
270.859	14.7
271.074	14.11
271.289	14.35
271.504	14.78
271.719	15.46
271.934	13.23
272.149	13.47
272.363	12.84
272.578	11.25
272.793	8.29
273.008	9.31
273.223	8.7
273.438	8.66
273.653	7.91
273.867	9.65
274.082	9.47
274.297	12.66
274.512	13.57
274.726	13.13
274.941	14.91
275.156	14.9
275.371	14.22
275.585	13.82
275.8	13.42
276.015	13.39
276.229	11.53
276.444	11.89
276.659	11.13
276.873	10.72
277.088	11.53
277.302	11.68
277.517	12.81
277.732	12.56
277.946	13.46
278.161	14.71
278.375	13.56
278.59	12.69
278.804	11.46
279.019	11.61
279.233	12.02
279.448	11.09
279.662	10.76
279.877	10.04
280.091	9.46
280.306	10.7
280.52	9.49
280.735	10.66
280.949	12.41
281.163	12.63
281.378	10.8
281.592	10.91
281.806	11.09
282.021	12.67
282.235	12.11
282.449	13.04
282.664	12.67
282.878	13.39
283.092	14.21
283.307	14.19
283.521	13.54
283.735	14.14
283.949	13.55
284.164	13.64
284.378	12.31
284.592	14.57
284.806	14.57
285.02	12.97
285.234	12.45
285.449	11.51
285.663	10.96
285.877	11.75
286.091	12.01
286.305	12.49
286.519	13.13
286.733	13.4
286.947	12.27
287.161	11.08
287.375	12.18
287.589	12.08
287.803	11.71
288.017	11.13
288.231	10.62
288.445	10.83
288.659	11.57
288.873	11.12
289.087	11.29
289.301	11.69
289.515	12.13
289.729	12.19
289.943	12.96
290.157	13.79
290.371	13.84
290.584	14.08
290.798	14.26
291.012	14.65
291.226	14.2
291.44	14.58
291.654	13.84
291.867	13.76
292.081	13.94
292.295	12.88
292.509	13.36
292.722	13.34
292.936	13.47
293.15	14.96
293.364	12.51
293.577	12.11
293.791	10.96
294.005	12.25
294.218	12.67
294.432	13.58
294.645	14.61
294.859	13.21
295.073	12.6
295.286	11.88
295.5	9.9
295.713	11.46
295.927	11.48
296.14	11.36
296.354	10.63
296.568	10.68
296.781	9.72
296.994	9.57
297.208	9.43
297.421	9.81
297.635	10.58
297.848	11.08
298.062	11.09
298.275	11.73
298.489	12.04
298.702	12.5
298.915	12.42
299.129	12.66
299.342	13.12
299.555	15.33
299.769	16.1
299.982	16.56
300.195	17.02
300.409	16.55
300.622	17.18
300.835	16.92
301.048	17.74
301.262	18.57
301.475	19.1
301.688	17.05
301.901	15.62
302.115	15.93
302.328	15.91
302.541	15.82
302.754	16.44
302.967	15.93
303.18	16.96
303.393	16.02
303.607	14.51
303.82	14.54
304.033	16.39
304.246	17.32
304.459	17.73
304.672	19.07
304.885	17.43
305.098	16.6
305.311	16.3
305.524	16.07
305.737	16.66
305.95	18.41
306.163	17.34
306.376	17.94
306.589	16.3
306.802	13.78
307.015	10.36
307.228	10.92
307.44	11.34
307.653	12.49
307.866	11.08
308.079	10.42
308.292	9.58
308.505	10.39
308.718	10.14
308.93	10.9
309.143	11.56
309.356	11.81
309.569	13.27
309.781	13.39
309.994	13.21
310.207	14.07
310.42	14.31
310.632	14.82
310.845	14.84
311.058	13.63
311.27	13.62
311.483	14.75
311.696	15.12
311.908	14.37
312.121	14.16
312.333	13.57
312.546	12.96
312.759	12.75
312.971	12.59
313.184	12.23
313.396	12.57
313.609	12.65
313.821	11.38
314.034	11.51
314.246	11.6
314.459	10.21
314.671	10.51
314.884	10.72
315.096	9.69
315.309	8.48
315.521	9.11
315.733	9
315.946	9.57
316.158	10.9
316.371	11.46
316.583	10.97
316.795	12.84
317.008	12.33
317.22	13.18
317.432	13.61
317.644	13.4
317.857	14.4
318.069	15.16
318.281	15.83
318.494	14.03
318.706	14.71
318.918	15.32
319.13	14.5
319.342	15.13
319.555	14.84
319.767	15.48
319.979	15.94
320.191	15.28
320.403	17.55
320.615	15.39
320.827	16.77
321.039	16.1
321.252	15.31
321.464	15.4
321.676	14.54
321.888	13.29
322.1	12.61
322.312	12.03
322.524	11.27
322.736	9.39
322.948	9.61
323.16	8.05
323.372	7.62
323.584	7.22
323.796	5.58
324.007	6.06
324.219	7.25
324.431	8.08
324.643	8.12
324.855	7.29
325.067	7.55
325.279	7.55
325.491	9.17
325.702	8.93
325.914	9.68
326.126	11.67
326.338	11.82
326.55	11.97
326.761	11.61
326.973	12.13
327.185	13.69
327.396	12.3
327.608	12.22
327.82	11.99
328.032	12.43
328.243	13.33
328.455	12.49
328.666	13.46
328.878	12.71
329.09	11.34
329.301	12.17
329.513	11.92
329.725	12.93
329.936	12.8
330.148	13.16
330.359	13.41
330.571	14.34
330.782	14.94
330.994	13.45
331.205	14.49
331.417	15.91
331.628	15.35
331.84	15.28
332.051	15.84
332.262	17.25
332.474	16.61
332.685	16.39
332.897	15
333.108	14.92
333.319	16.07
333.531	14.64
333.742	15.28
333.953	15.25
334.165	14.59
334.376	14.12
334.587	13.81
334.799	13.78
335.01	13.16
335.221	13.16
335.432	12.95
335.644	12.37
335.855	13.37
336.066	13.42
336.277	12.77
336.488	13.45
336.7	13.22
336.911	12.89
337.122	13.53
337.333	13.77
337.544	14.15
337.755	14.64
337.966	14.64
338.177	14.56
338.388	13.62
338.599	14.41
338.811	15.24
339.022	15.09
339.233	15.3
339.444	15.29
339.655	15.09
339.866	13.82
340.076	12.84
340.287	13.2
340.498	13.01
340.709	13.91
340.92	14.03
341.131	13.5
341.342	13.85
341.553	13.25
341.764	13.67
341.975	14.07
342.185	14.67
342.396	14.52
342.607	14.3
342.818	15.35
343.029	15.1
343.239	14.7
343.45	14.51
343.661	13.58
343.872	13.06
344.082	11.9
344.293	11.59
344.504	13.34
344.714	14.33
344.925	14.23
345.136	13.6
345.346	13.6
345.557	14.42
345.768	14.52
345.978	15.78
346.189	16.53
346.399	16.45
346.61	17.53
346.821	16.52
347.031	15.77
347.242	15.01
347.452	14.73
347.663	14.9
347.873	15.18
348.084	14.43
348.294	13.62
348.504	13.92
348.715	14.49
348.925	13.83
349.136	13.06
349.346	13.91
349.557	14.34
349.767	14.39
349.977	14.4
350.188	13.31
350.398	13.52
350.608	13.44
350.819	13.07
351.029	11.73
351.239	11.16
351.449	11.29
351.66	10.71
351.87	10.54
352.08	10.61
352.29	10.13
352.501	9.96
352.711	10.62
352.921	11.39
353.131	11.74
353.341	12.48
353.552	12.49
353.762	13.23
353.972	13.73
354.182	14.3
354.392	13.85
354.602	14.16
354.812	13.79
355.022	13.23
355.232	12.81
355.442	13.03
355.652	13.36
355.862	13.86
356.072	13.72
356.282	12.9
356.492	11.82
356.702	12.37
356.912	12.46
357.122	12.56
357.332	12.59
357.542	12.11
357.752	11.53
357.962	11.76
358.171	11.74
358.381	11.47
358.591	12.09
358.801	13.14
359.011	12.23
359.221	11.91
359.43	12.2
359.64	12.54
359.85	13.54
360.06	13.65
360.269	13.26
360.479	13.28
360.689	12.98
360.899	12.85
361.108	13.3
361.318	13.38
361.528	13.12
361.737	12.85
361.947	12.3
362.156	11.65
362.366	11.21
362.576	11.09
362.785	10.85
362.995	11.07
363.204	10.78
363.414	9.98
363.623	10.13
363.833	10.26
364.042	10.52
364.252	10.67
364.461	10.54
364.671	11.42
364.88	11.53
365.09	11.48
365.299	11.49
365.509	11.68
365.718	11.94
365.927	12.04
366.137	11.67
366.346	11.23
366.555	10.74
366.765	10.51
366.974	9.68
367.183	9.36
367.393	9.36
367.602	8.79
367.811	8.97
368.021	8.36
368.23	8.11
368.439	8.23
368.648	8.15
368.857	9.01
369.067	9.29
369.276	9.89
369.485	10.43
369.694	10.57
369.903	10.95
370.112	11.19
370.321	11.67
370.531	12.64
370.74	12.62
370.949	13.21
371.158	12.78
371.367	12.63
371.576	12.62
371.785	11.74
371.994	11.92
372.203	12.02
372.412	11.99
372.621	12.21
372.83	11.65
373.039	11.85
373.248	11.63
373.457	12.04
373.666	11.75
373.874	11.35
374.083	11.8
374.292	11.44
374.501	10.72
374.71	10.32
374.919	10.04
375.128	9.45
375.336	9.42
375.545	9.28
375.754	8.8
375.963	9.62
376.171	9.57
376.38	9.95
376.589	9.94
376.798	9.95
377.006	10.18
377.215	10.16
377.424	10.42
377.632	10.26
377.841	10.02
378.05	10.31
378.258	9.58
378.467	9.99
378.675	9.64
378.884	9.86
379.093	10.34
379.301	9.97
379.51	9.56
379.718	9.54
379.927	9.55
380.135	9.65
380.344	9.44
380.552	10.29
380.761	9.77
380.969	9.77
381.177	9.46
381.386	9.62
381.594	9.74
381.803	10.11
382.011	9.98
382.219	10.25
382.428	10.43
382.636	10.31
382.845	9.83
383.053	10.11
383.261	10.35
383.469	10.27
383.678	9.57
383.886	9.22
384.094	8.66
384.302	8.5
384.511	8.33
384.719	8.06
384.927	7.7
385.135	7.53
385.343	7.44
385.552	6.87
385.76	6.45
385.968	6.57
386.176	6.71
386.384	7.03
386.592	7.08
386.8	7.07
387.008	7.44
387.216	7.8
387.424	8.34
387.633	8.23
387.841	8.57
388.049	8.76
388.257	8.57
388.465	8.67
388.672	8.83
388.88	8.7
389.088	8.8
389.296	8.7
389.504	8.61
389.712	8.12
389.92	8.2
390.128	8.34
390.336	8.62
390.544	8.78
390.751	8.82
390.959	8.7
391.167	9.11
391.375	8.74
391.583	8.66
391.79	8.67
391.998	8.79
392.206	8.91
392.414	8.44
392.621	8.6
392.829	8.54
393.037	8.73
393.244	8.69
393.452	8.48
393.66	8.28
393.867	8.02
394.075	8.04
394.283	8.07
394.49	7.65
394.698	8.06
394.905	7.6
395.113	7.62
395.32	7.14
395.528	6.91
395.735	6.76
395.943	6.95
396.15	6.89
396.358	6.65
396.565	6.31
396.773	6.48
396.98	6.12
397.188	6.35
397.395	6.13
397.602	6.18
397.81	6.23
398.017	6.32
398.225	6.43
398.432	6.88
398.639	7.06
398.847	7.1
399.054	6.82
399.261	7.2
399.468	6.92
399.676	7.21
399.883	7.46
400.09	7.74
400.297	7.94
400.505	8.02
400.712	8.01
400.919	7.76
401.126	8.14
401.333	8.57
401.54	8.37
401.748	8.81
401.955	8.57
402.162	8.35
402.369	8.24
402.576	8.06
402.783	8.04
402.99	7.58
403.197	7.69
403.404	7.53
403.611	7.22
403.818	7.29
404.025	6.86
404.232	7.05
404.439	7.14
404.646	7.12
404.853	7.17
405.06	6.93
405.267	7.12
405.474	6.99
405.681	6.55
405.887	6.64
406.094	6.53
406.301	6.69
406.508	6.53
406.715	6.48
406.922	6.44
407.128	6.17
407.335	6.1
407.542	6.15
407.749	6.44
407.955	7.01
408.162	6.95
408.369	7.1
408.575	7
408.782	7.05
408.989	6.78
409.195	6.6
409.402	6.69
409.609	6.95
409.815	6.7
410.022	6.64
410.228	6.5
410.435	6.66
410.642	6.53
410.848	6.65
411.055	6.58
411.261	6.79
411.468	6.87
411.674	7.03
411.881	7.11
412.087	7.37
412.294	7.19
412.5	7.27
412.706	7.01
412.913	6.7
413.119	6.74
413.326	6.95
413.532	6.87
413.738	6.82
413.945	6.53
414.151	6.28
414.357	6.15
414.564	6.12
414.77	5.93
414.976	6.07
415.182	6.53
415.389	6.52
415.595	6.14
415.801	6.28
416.007	6.31
416.214	6.65
416.42	6.71
416.626	6.79
416.832	6.86
417.038	6.76
417.244	6.99
417.45	6.94
417.657	6.87
417.863	6.91
418.069	6.88
418.275	6.95
418.481	6.83
418.687	7
418.893	7.02
419.099	7.06
419.305	7.17
419.511	6.91
419.717	6.77
419.923	6.91
420.129	7.04
420.335	6.86
420.541	6.76
420.746	6.83
420.952	6.72
421.158	6.67
421.364	6.66
421.57	6.57
421.776	6.67
421.982	6.74
422.187	6.53
422.393	6.43
422.599	6.46
422.805	6.6
423.01	6.5
423.216	6.48
423.422	6.51
423.628	6.45
423.833	6.53
424.039	6.55
424.245	6.46
424.45	6.55
424.656	6.59
424.862	6.63
425.067	6.47
425.273	6.39
425.478	6.3
425.684	6.25
425.889	6.31
426.095	6.26
426.301	6.14
426.506	6.27
426.712	6.19
426.917	6.03
427.123	6.07
427.328	6.14
427.533	6.28
427.739	6.45
427.944	6.53
428.15	6.32
428.355	6.38
428.561	6.41
428.766	6.15
428.971	6.19
429.177	6.3
429.382	6.32
429.587	6.19
429.793	6.22
429.998	6.02
430.203	5.63
430.408	5.59
430.614	5.43
430.819	5.39
431.024	5.48
431.229	5.55
431.434	5.82
431.64	5.64
431.845	5.9
432.05	5.76
432.255	5.83
432.46	6.21
432.665	6.42
432.87	6.64
433.076	6.63
433.281	6.57
433.486	6.69
433.691	6.52
433.896	6.55
434.101	6.43
434.306	6.44
434.511	6.32
434.716	6.11
434.921	5.97
435.126	5.76
435.331	5.79
435.535	5.72
435.74	5.6
435.945	5.62
436.15	5.69
436.355	5.84
436.56	5.69
436.765	5.98
436.97	6.14
437.174	6.29
437.379	6.23
437.584	6.31
437.789	6.36
437.993	6.46
438.198	6.44
438.403	6.51
438.608	6.42
438.812	6.57
439.017	6.47
439.222	6.36
439.426	6.12
439.631	6.16
439.836	6.01
440.04	6.13
440.245	5.94
440.45	5.84
440.654	5.84
440.859	5.67
441.063	5.71
441.268	5.67
441.472	5.72
441.677	5.92
441.881	5.98
442.086	6.04
442.29	5.97
442.495	6.04
442.699	6.27
442.904	6.15
443.108	6.26
443.312	6.22
443.517	6.19
443.721	6.03
443.925	5.9
444.13	5.9
444.334	5.94
444.538	5.87
444.743	5.84
444.947	5.73
445.151	5.73
445.356	5.69
445.56	5.67
445.764	5.67
445.968	5.72
446.173	5.78
446.377	5.77
446.581	5.7
446.785	5.77
446.989	5.76
447.193	5.74
447.398	5.71
447.602	5.79
447.806	5.77
448.01	5.71
448.214	5.8
448.418	5.7
448.622	5.6
448.826	5.61
449.03	5.61
449.234	5.59
449.438	5.51
449.642	5.46
449.846	5.56
450.05	5.64
450.254	5.68
450.458	5.47
450.662	5.59
450.866	5.68
451.069	5.85
451.273	5.83
451.477	5.82
451.681	5.92
451.885	5.91
452.089	5.68
452.292	5.63
452.496	5.79
452.7	5.85
452.904	5.72
453.107	5.75
453.311	5.63
453.515	5.74
453.719	5.76
453.922	5.69
454.126	5.78
454.33	5.71
454.533	5.67
454.737	5.52
454.94	5.63
455.144	5.73
455.348	5.87
455.551	5.72
455.755	5.4
455.958	5.3
456.162	5.23
456.365	5.29
456.569	5.54
456.772	5.59
456.976	5.67
457.179	5.73
457.383	5.59
457.586	5.28
457.79	5.32
457.993	5.48
458.196	5.44
458.4	5.5
458.603	5.43
458.807	5.24
459.01	5.3
459.213	5.27
459.417	5.15
459.62	5.24
459.823	5.32
460.026	5.46
460.23	5.49
460.433	5.62
460.636	5.66
460.839	5.66
461.042	5.69
461.246	5.53
461.449	5.51
461.652	5.48
461.855	5.41
462.058	5.45
462.261	5.34
462.464	5.36
462.668	5.3
462.871	5.32
463.074	5.29
463.277	5.41
463.48	5.58
463.683	5.55
463.886	5.66
464.089	5.89
464.292	5.79
464.495	5.69
464.698	5.62
464.901	5.7
465.104	5.61
465.306	5.76
465.509	5.79
465.712	5.8
465.915	5.81
466.118	5.68
466.321	5.57
466.524	5.49
466.726	5.65
466.929	5.65
467.132	5.63
467.335	5.7
467.538	5.61
467.74	5.54
467.943	5.42
468.146	5.37
468.348	5.38
468.551	5.3
468.754	5.37
468.956	5.27
469.159	5.21
469.362	5.2
469.564	5.18
469.767	5.08
469.969	5.23
470.172	5.41
470.375	5.46
470.577	5.52
470.78	5.59
470.982	5.74
471.185	5.78
471.387	5.8
471.59	5.65
471.792	5.53
471.995	5.76
472.197	5.59
472.399	5.49
472.602	5.63
472.804	5.6
473.007	5.66
473.209	5.54
473.411	5.5
473.614	5.41
473.816	5.64
474.018	5.79
474.22	5.5
474.423	5.44
474.625	5.54
474.827	5.45
475.03	5.5
475.232	5.39
475.434	5.34
475.636	5.34
475.838	5.41
476.04	5.2
476.243	5.26
476.445	5.49
476.647	5.69
476.849	5.57
477.051	5.67
477.253	5.57
477.455	5.59
477.657	5.67
477.859	5.8
478.061	5.8
478.263	5.98
478.465	5.97
478.667	5.86
478.869	5.75
479.071	5.76
479.273	5.7
479.475	5.65
479.677	5.71
479.879	5.68
480.081	5.62
480.283	5.63
480.485	5.55
480.686	5.59
480.888	5.47
481.09	5.34
481.292	5.25
481.494	5.25
481.695	5.26
481.897	5.12
482.099	5.05
482.301	5.12
482.502	5.15
482.704	5.13
482.906	5.04
483.107	5.18
483.309	5.15
483.511	5.18
483.712	5.16
483.914	5.22
484.115	5.28
484.317	5.29
484.519	5.23
484.72	5.23
484.922	5.2
485.123	5.2
485.325	5.19
485.526	5.24
485.728	5.25
485.929	5.3
486.131	5.32
486.332	5.26
486.534	5.26
486.735	5.33
486.936	5.33
487.138	5.34
487.339	5.36
487.541	5.34
487.742	5.32
487.943	5.32
488.144	5.3
488.346	5.26
488.547	5.34
488.748	5.39
488.95	5.35
489.151	5.35
489.352	5.37
489.553	5.39
489.755	5.31
489.956	5.32
490.157	5.29
490.358	5.16
490.559	5.16
490.76	5.08
490.961	5.04
491.163	5.02
491.364	4.95
491.565	4.9
491.766	4.89
491.967	4.98
492.168	4.95
492.369	5
492.57	5.03
492.771	5.07
492.972	5.04
493.173	5.14
493.374	5.3
493.575	5.35
493.776	5.42
493.976	5.54
494.177	5.57
494.378	5.63
494.579	5.59
494.78	5.74
494.981	5.58
495.182	5.78
495.382	5.63
495.583	5.6
495.784	5.65
495.985	5.8
496.185	5.69
496.386	5.67
496.587	5.73
496.788	5.7
496.988	5.85
497.189	5.96
497.39	5.93
497.59	5.94
497.791	5.88
497.992	5.9
498.192	5.79
498.393	5.92
498.593	5.86
498.794	5.83
498.994	6.01
499.195	5.86
499.395	5.91
499.596	5.83
499.796	5.86
499.997	5.86
500.197	6.07
500.398	6.08
500.598	5.98
500.799	6.17
500.999	6.25
501.199	6.21
501.4	6.3
501.6	6.27
501.801	6.29
502.001	6.33
502.201	6.43
502.402	6.14
502.602	6.25
502.802	6.32
503.002	6.39
503.203	6.42
503.403	6.34
503.603	6.35
503.803	6.5
504.003	6.57
504.204	6.42
504.404	6.3
504.604	6.35
504.804	6.31
505.004	6.21
505.204	6.03
505.404	6.05
505.604	6.14
505.804	6.11
506.005	6.05
506.205	6.03
506.405	6.14
506.605	6.23
506.805	6.29
507.005	6.27
507.204	6.41
507.404	6.56
507.604	6.6
507.804	6.61
508.004	6.77
508.204	6.89
508.404	6.8
508.604	6.83
508.804	6.85
509.003	6.95
509.203	7
509.403	6.91
509.603	6.98
509.803	6.98
510.002	6.9
510.202	6.78
510.402	6.77
510.602	7.03
510.801	7.09
511.001	7.09
511.201	7.15
511.4	7.34
511.6	7.33
511.8	7.37
511.999	7.34
512.199	7.45
512.398	7.62
512.598	7.65
512.797	7.66
512.997	7.78
513.197	7.85
513.396	7.89
513.596	7.67
513.795	7.73
513.994	7.67
514.194	7.75
514.393	7.66
514.593	7.66
514.792	7.57
514.992	7.6
515.191	7.54
515.39	7.55
515.59	7.55
515.789	7.73
515.988	7.84
516.188	7.93
516.387	8.09
516.586	8.21
516.786	8.34
516.985	8.55
517.184	8.55
517.383	8.61
517.582	8.7
517.782	8.6
517.981	8.57
518.18	8.61
518.379	8.61
518.578	8.51
518.777	8.61
518.976	8.58
519.176	8.41
519.375	8.39
519.574	8.49
519.773	8.54
519.972	8.67
520.171	8.75
520.37	8.82
520.569	8.92
520.768	9
520.967	8.99
521.166	8.92
521.365	9.16
521.564	9.3
521.762	9.25
521.961	9.17
522.16	9.19
522.359	9.21
522.558	9.23
522.757	9.27
522.956	9.31
523.154	9.34
523.353	9.41
523.552	9.31
523.751	9.33
523.949	9.4
524.148	9.52
524.347	9.58
524.546	9.63
524.744	9.57
524.943	9.52
525.142	9.52
525.34	9.6
525.539	9.61
525.737	9.67
525.936	9.68
526.135	9.67
526.333	9.62
526.532	9.59
526.73	9.6
526.929	9.52
527.127	9.47
527.326	9.48
527.524	9.49
527.723	9.55
527.921	9.53
528.12	9.56
528.318	9.6
528.516	9.66
528.715	9.73
528.913	9.75
529.112	9.88
529.31	9.99
529.508	10.02
529.707	10.01
529.905	10.02
530.103	10.11
530.301	10.16
530.5	10.14
530.698	10.16
530.896	10.09
531.094	10.07
531.293	10.04
531.491	10.1
531.689	10.19
531.887	10.24
532.085	10.27
532.283	10.32
532.481	10.22
532.68	10.24
532.878	10.26
533.076	10.4
533.274	10.53
533.472	10.65
533.67	10.64
533.868	10.59
534.066	10.71
534.264	10.78
534.462	10.75
534.66	10.89
534.858	10.94
535.056	10.99
535.253	10.94
535.451	11.01
535.649	11.03
535.847	11.09
536.045	11.24
536.243	11.19
536.441	11.19
536.638	11.32
536.836	11.27
537.034	11.44
537.232	11.51
537.43	11.55
537.627	11.47
537.825	11.51
538.023	11.6
538.22	11.55
538.418	11.62
538.616	11.57
538.813	11.44
539.011	11.65
539.209	11.51
539.406	11.55
539.604	11.65
539.801	11.82
539.999	11.78
540.196	11.62
540.394	11.72
540.591	11.89
540.789	11.96
540.986	12.06
541.184	12.03
541.381	12.18
541.579	12.2
541.776	12.2
541.974	12.13
542.171	12.18
542.368	12.26
542.566	12.31
542.763	12.31
542.96	12.39
543.158	12.39
543.355	12.41
543.552	12.38
543.75	12.48
543.947	12.57
544.144	12.8
544.341	12.83
544.539	12.88
544.736	12.95
544.933	12.99
545.13	13
545.327	13.09
545.524	13.17
545.722	13.3
545.919	13.27
546.116	13.27
546.313	13.25
546.51	13.35
546.707	13.44
546.904	13.48
547.101	13.55
547.298	13.67
547.495	13.8
547.692	13.76
547.889	13.75
548.086	13.77
548.283	13.95
548.48	13.88
548.677	13.9
548.874	13.91
549.07	13.97
549.267	14.01
549.464	14
549.661	13.95
549.858	14.03
550.055	14.13
550.251	14.19
550.448	14.05
550.645	14.3
550.842	14.34
551.038	14.53
551.235	14.49
551.432	14.46
551.628	14.66
551.825	14.75
552.022	14.92
552.218	14.98
552.415	15.07
552.612	15.19
552.808	15.24
553.005	15.22
553.201	15.11
553.398	15.14
553.594	15.03
553.791	14.83
553.987	14.87
554.184	14.78
554.38	14.8
554.577	14.86
554.773	14.93
554.97	14.82
555.166	14.77
555.362	14.98
555.559	15.11
555.755	15.3
555.952	15.55
556.148	15.55
556.344	15.64
556.541	15.72
556.737	15.74
556.933	15.81
557.129	16.06
557.326	16.48
557.522	16.6
557.718	16.68
557.914	16.73
558.11	16.71
558.307	16.81
558.503	17.26
558.699	17.34
558.895	17.3
559.091	17.24
559.287	17.18
559.483	17.13
559.679	17.26
559.876	17.28
560.072	17.38
560.268	17.73
560.464	17.71
560.66	17.61
560.856	17.76
561.052	17.92
561.247	17.95
561.443	18.13
561.639	18.24
561.835	17.97
562.031	17.9
562.227	17.99
562.423	17.9
562.619	17.97
562.815	17.89
563.01	17.84
563.206	18.14
563.402	18.19
563.598	18.19
563.793	18.09
563.989	18.28
564.185	18.56
564.381	18.53
564.576	18.44
564.772	18.59
564.968	18.66
565.163	18.75
565.359	18.53
565.555	18.75
565.75	18.89
565.946	19.17
566.141	19.09
566.337	19.21
566.532	19.42
566.728	19.48
566.923	19.62
567.119	19.83
567.314	19.85
567.51	19.92
567.705	19.9
567.901	19.83
568.096	19.79
568.292	20.1
568.487	19.94
568.682	19.99
568.878	20.16
569.073	19.97
569.268	19.79
569.464	19.94
569.659	20.09
569.854	20.13
570.05	20.17
570.245	20.25
570.44	20.35
570.635	20.43
570.831	20.48
571.026	20.48
571.221	20.73
571.416	20.87
571.611	20.79
571.806	20.8
572.002	20.94
572.197	20.94
572.392	20.95
572.587	21.07
572.782	21.32
572.977	21.15
573.172	21.18
573.367	21.18
573.562	21.42
573.757	21.58
573.952	21.68
574.147	21.69
574.342	21.91
574.537	21.87
574.732	21.71
574.927	21.74
575.121	22.12
575.316	22.2
575.511	22.28
575.706	22.21
575.901	22
576.096	22.06
576.29	22.24
576.485	22.14
576.68	22.31
576.875	22.66
577.069	22.65
577.264	22.68
577.459	22.86
577.654	22.98
577.848	22.78
578.043	23.17
578.238	23.26
578.432	23.22
578.627	23.34
578.821	23.48
579.016	23.29
579.21	23.35
579.405	23.16
579.6	23.27
579.794	23.09
579.989	23.39
580.183	23.43
580.378	23.46
580.572	23.46
580.766	23.56
580.961	23.75
581.155	23.82
581.35	23.77
581.544	23.96
581.738	23.89
581.933	24.16
582.127	24.44
582.321	24.4
582.516	24.6
582.71	24.67
582.904	24.75
583.099	24.49
583.293	24.57
583.487	24.79
583.681	25.06
583.875	25.11
584.07	25.13
584.264	25.01
584.458	24.97
584.652	24.85
584.846	24.8
585.04	24.9
585.234	25.17
585.428	25.26
585.623	25.09
585.817	24.77
586.011	24.88
586.205	24.93
586.399	25.12
586.593	25.43
586.787	25.51
586.981	25.67
587.174	25.64
587.368	25.67
587.562	25.58
587.756	25.84
587.95	25.9
588.144	25.72
588.338	25.82
588.532	25.78
588.725	25.78
588.919	25.89
589.113	26.09
589.307	26.27
589.501	26.06
589.694	26.26
589.888	26.33
590.082	26.41
590.275	26.74
590.469	26.87
590.663	26.94
590.856	26.96
591.05	27.06
591.244	27.07
591.437	27.09
591.631	27.11
591.824	27.02
592.018	26.79
592.212	26.85
592.405	26.73
592.599	26.62
592.792	26.54
592.986	26.7
593.179	26.76
593.372	26.85
593.566	26.47
593.759	26.97
593.953	27.25
594.146	27.46
594.339	27.59
594.533	27.7
594.726	28.02
594.92	28.21
595.113	28.27
595.306	28.42
595.499	28.55
595.693	28.72
595.886	28.52
596.079	28.34
596.272	28.4
596.466	28.31
596.659	28.17
596.852	28.03
597.045	28.02
597.238	27.96
597.431	27.84
597.624	27.67
597.818	27.83
598.011	27.81
598.204	27.83
598.397	27.91
598.59	28.29
598.783	28.45
598.976	28.35
599.169	28.23
599.362	28.31
599.555	28.31
599.748	28.38
599.941	28.43
600.134	28.61
600.326	28.88
600.519	28.85
600.712	28.76
600.905	28.84
601.098	29.17
601.291	29.51
601.483	29.29
601.676	29.39
601.869	29.45
602.062	29.47
602.255	29.47
602.447	29.28
602.64	29.36
602.833	29.42
603.025	29.73
603.218	29.81
603.411	29.61
603.603	29.78
603.796	29.94
603.989	30
604.181	30.2
604.374	30.25
604.566	30.53
604.759	30.36
604.951	30.26
605.144	30.05
605.336	29.99
605.529	30.03
605.721	30
605.914	29.96
606.106	30.06
606.299	29.91
606.491	29.72
606.683	29.51
606.876	29.78
607.068	29.9
607.26	29.9
607.453	30.04
607.645	30.3
607.837	30.49
608.03	30.38
608.222	30.28
608.414	30.24
608.606	30.39
608.799	30.36
608.991	30.36
609.183	30.19
609.375	30.23
609.567	30.09
609.759	29.97
609.952	30.04
610.144	30.28
610.336	30.43
610.528	30.62
610.72	30.64
610.912	30.71
611.104	30.89
611.296	31.12
611.488	31.45
611.68	31.64
611.872	31.7
612.064	31.69
612.256	31.61
612.448	31.44
612.64	31.45
612.832	31.51
613.023	31.74
613.215	31.52
613.407	31.78
613.599	31.7
613.791	31.72
613.983	31.84
614.174	31.83
614.366	32.06
614.558	32.34
614.75	32.23
614.941	32.44
615.133	32.45
615.325	32.71
615.516	32.48
615.708	32.39
615.9	32.38
616.091	32.4
616.283	32.46
616.475	32.11
616.666	32.04
616.858	32.04
617.049	31.71
617.241	31.64
617.432	31.53
617.624	31.71
617.815	31.83
618.007	31.8
618.198	31.7
618.39	31.78
618.581	31.96
618.773	32.05
618.964	32.17
619.155	32.51
619.347	32.57
619.538	32.51
619.729	32.28
619.921	32.19
620.112	32.48
620.303	32.64
620.494	32.65
620.686	32.73
620.877	32.5
621.068	32.7
621.259	32.76
621.451	32.83
621.642	32.97
621.833	33.21
622.024	33.5
622.215	33.27
622.406	33.44
622.597	33.76
622.788	33.74
622.98	34.19
623.171	34.24
623.362	34.2
623.553	34.28
623.744	34.51
623.935	34.33
624.126	34.25
624.317	34.28
624.508	34.18
624.698	34.19
624.889	34.12
625.08	34.05
625.271	34.04
625.462	34.11
625.653	34.08
625.844	33.8
626.034	33.93
626.225	33.96
626.416	34.07
626.607	34.23
626.798	34.12
626.988	34.25
627.179	34.25
627.37	34.25
627.56	34.32
627.751	34.53
627.942	34.66
628.132	34.77
628.323	34.98
628.514	35.13
628.704	34.87
628.895	34.74
629.085	34.63
629.276	34.65
629.466	34.59
629.657	34.38
629.847	34.22
630.038	34.48
630.228	34.49
630.419	34.54
630.609	34.3
630.8	34.74
630.99	34.77
631.181	34.89
631.371	34.97
631.561	35.2
631.752	35.32
631.942	35.3
632.132	34.94
632.323	34.93
632.513	34.56
632.703	34.19
632.893	34.04
633.084	34.2
633.274	34.6
633.464	34.23
633.654	34.29
633.844	34.29
634.034	34.25
634.225	34.29
634.415	34.33
634.605	34.38
634.795	34.93
634.985	34.8
635.175	34.75
635.365	34.46
635.555	34.78
635.745	34.66
635.935	34.77
636.125	35
636.315	35.13
636.505	35.02
636.695	35.08
636.885	35.05
637.075	35.43
637.265	35.62
637.455	35.44
637.644	35.83
637.834	35.99
638.024	36.24
638.214	36.1
638.404	36.38
638.593	36.52
638.783	36.77
638.973	37.04
639.163	36.86
639.352	36.94
639.542	37.21
639.732	36.77
639.921	36.51
640.111	36.78
640.301	36.94
640.49	36.98
640.68	37.18
640.87	36.72
641.059	36.83
641.249	36.82
641.438	36.68
641.628	36.72
641.817	37.17
642.007	37.75
642.196	37.35
642.386	37.2
642.575	37.13
642.764	37.43
642.954	37.86
643.143	37.61
643.333	37.66
643.522	37.56
643.711	37.73
643.901	37.7
644.09	37.33
644.279	37.67
644.469	37.95
644.658	38.05
644.847	37.23
645.036	37.21
645.226	37.48
645.415	37.42
645.604	37.7
645.793	37.46
645.982	37.17
646.171	37.63
646.361	37.39
646.55	37.57
646.739	37.71
646.928	38.08
647.117	37.79
647.306	37.59
647.495	37.72
647.684	37.77
647.873	38.02
648.062	38.33
648.251	37.54
648.44	37.59
648.629	37.69
648.818	37.61
649.007	37.85
649.196	38.26
649.384	38.54
649.573	38.74
649.762	38.91
649.951	38.84
650.14	38.95
650.328	39.39
650.517	39.29
650.706	39.38
650.895	39.48
651.083	39.37
651.272	39.25
651.461	39.2
651.65	39.21
651.838	39.05
652.027	39.29
652.216	39.21
652.404	39.08
652.593	39.44
652.781	39.3
652.97	39.14
653.158	39.02
653.347	39.27
653.535	39.05
653.724	39.25
653.912	39.34
654.101	39.31
654.289	39.28
654.478	39.37
654.666	38.86
654.855	38.93
655.043	38.77
655.231	38.8
655.42	38.92
655.608	38.93
655.796	38.79
655.985	38.81
656.173	38.59
656.361	38.84
656.55	39.15
656.738	39.46
656.926	39.38
657.114	39.6
657.302	39.96
657.491	39.82
657.679	39.78
657.867	39.76
658.055	39.77
658.243	39.98
658.431	39.85
658.619	39.97
658.807	40.16
658.996	40.08
659.184	40.05
659.372	40.13
659.56	40.25
659.748	40.58
659.936	40.51
660.124	40.7
660.311	40.79
660.499	40.63
660.687	40.46
660.875	40.42
661.063	40.7
661.251	40.82
661.439	40.99
661.627	41.14
661.814	40.88
662.002	41.09
662.19	41.05
662.378	41.01
662.565	40.93
662.753	40.9
662.941	40.62
663.129	40.48
663.316	40.55
663.504	40.18
663.692	39.81
663.879	40.25
664.067	40.09
664.254	39.98
664.442	40.17
664.63	40.66
664.817	40.97
665.005	41.42
665.192	41.58
665.38	41.69
665.567	41.71
665.755	41.88
665.942	42
666.13	42.05
666.317	42.34
666.504	41.91
666.692	41.82
666.879	41.91
667.067	41.82
667.254	41.24
667.441	40.84
667.629	40.7
667.816	40.49
668.003	40.15
668.19	40.12
668.378	40
668.565	40.44
668.752	40.6
668.939	40.55
669.127	40.65
669.314	41.11
669.501	41.63
669.688	41.88
669.875	42.28
670.062	42.18
670.249	42.45
670.436	42.03
670.623	41.79
670.81	42.12
670.997	42.47
671.184	42.34
671.371	42.4
671.558	41.87
671.745	41.85
671.932	41.12
672.119	41.69
672.306	41.65
672.493	42.37
672.68	42.7
672.867	42.47
673.054	42.09
673.24	42.27
673.427	42.43
673.614	43.01
673.801	43.36
673.988	44.17
674.174	43.92
674.361	43.88
674.548	43.86
674.734	43.44
674.921	43.41
675.108	43.84
675.294	43.53
675.481	43.63
675.668	43.33
675.854	42.88
676.041	42.59
676.227	42.69
676.414	42.6
676.601	42.41
676.787	42.95
676.974	42.7
677.16	42.37
677.347	42.5
677.533	42.03
677.719	42.37
677.906	42.89
678.092	43.29
678.279	43.14
678.465	43.31
678.651	43.49
678.838	43.58
679.024	44.01
679.21	44.19
679.397	44.67
679.583	44.83
679.769	44.88
679.955	44.72
680.142	44.28
680.328	44.51
680.514	44.65
680.7	44.77
680.886	44.8
681.073	44.76
681.259	44.62
681.445	44.69
681.631	44.82
681.817	44.43
682.003	44.24
682.189	44.66
682.375	44.48
682.561	44.5
682.747	44.53
682.933	44.56
683.119	44.52
683.305	44.53
683.491	44.22
683.677	44.33
683.863	44.67
684.049	45.31
684.235	45.04
684.42	45.47
684.606	45.25
684.792	45.07
684.978	45.2
685.164	45.18
685.349	44.76
685.535	45.11
685.721	45.2
685.907	45.25
686.092	44.96
686.278	44.99
686.464	44.67
686.649	45.43
686.835	45.13
687.021	45.05
687.206	44.96
687.392	45.4
687.577	45.56
687.763	45.8
687.948	45.94
688.134	46.03
688.319	46.24
688.505	46.32
688.69	45.3
688.876	45.62
689.061	45.46
689.247	45.75
689.432	45.92
689.618	45.56
689.803	45.34
689.988	45.23
690.174	44.94
690.359	44.43
690.544	44.49
690.73	45.14
690.915	45.14
691.1	44.81
691.285	44.83
691.471	44.62
691.656	44.54
691.841	44.5
692.026	44.33
692.211	44.63
692.396	45.08
692.582	45.3
692.767	45.27
692.952	45.37
693.137	45.74
693.322	45.52
693.507	45.88
693.692	46.18
693.877	45.98
694.062	46.07
694.247	45.83
694.432	45.83
694.617	46.05
694.802	46.25
694.987	46.75
695.172	46.9
695.357	47.08
695.541	47.18
695.726	47.04
695.911	47.74
696.096	47.86
696.281	48.03
696.466	48.44
696.65	48.01
696.835	47.87
697.02	47.17
697.204	47.26
697.389	47.57
697.574	47.35
697.759	47.18
697.943	46.73
698.128	46.74
698.312	46.46
698.497	46.61
698.682	46.69
698.866	46.98
699.051	47.07
699.235	46.85
699.42	46.64
699.604	46.65
699.789	46.54
699.973	46.74
700.158	46.49
700.342	46.8
700.527	46.57
700.711	46.43
700.895	46.11
701.08	46.11
701.264	45.97
701.448	45.78
701.633	45.7
701.817	45.93
702.001	45.58
702.186	46.41
702.37	46.17
702.554	46.11
702.738	46.69
702.923	46.69
703.107	46.8
703.291	47.3
703.475	47.68
703.659	47.95
703.843	47.95
704.027	48.23
704.212	48.09
704.396	48.51
704.58	48.7
704.764	48.31
704.948	48.36
705.132	48.77
705.316	48.62
705.5	48.21
705.684	47.96
705.868	48.4
706.052	48.19
706.235	47.77
706.419	46.85
706.603	46.96
706.787	46.71
706.971	46.49
707.155	45.89
707.339	45.94
707.522	46.16
707.706	46.62
707.89	46.18
708.074	46.59
708.257	46.77
708.441	47.98
708.625	47.82
708.808	48.3
708.992	48.34
709.176	49.01
709.359	49.28
709.543	49.19
709.727	49.03
709.91	49.31
710.094	49.56
710.277	49.77
710.461	49.25
710.644	49.22
710.828	49.28
711.011	49.94
711.195	49.67
711.378	49.88
711.562	50.43
711.745	50.28
711.928	49.92
712.112	49.39
712.295	49.02
712.478	48.8
712.662	48.37
712.845	48.63
713.028	48.01
713.212	48.11
713.395	47.5
713.578	47.12
713.761	47.12
713.945	47.27
714.128	47.05
714.311	47.37
714.494	47.52
714.677	48.43
714.86	47.91
715.043	47.94
715.227	48.17
715.41	48.02
715.593	48.31
715.776	48.43
715.959	48.72
716.142	49.76
716.325	49.56
716.508	49.83
716.691	49.93
716.874	50.2
717.057	50.28
717.239	50.11
717.422	49.32
717.605	49.17
717.788	49.29
717.971	49.29
718.154	49.59
718.337	49.75
718.519	49.91
718.702	49.28
718.885	48.73
719.068	49.56
719.25	49.26
719.433	50.75
719.616	50.95
719.798	50.66
719.981	51.05
720.164	50.55
720.346	50.3
720.529	49.88
720.712	49.95
720.894	50.09
721.077	49.15
721.259	49.9
721.442	50.03
721.624	49.58
721.807	50.1
721.989	49.16
722.172	49.94
722.354	49.96
722.537	50.61
722.719	50.85
722.901	51.06
723.084	51.12
723.266	50.93
723.448	50.17
723.631	49.91
723.813	49.49
723.995	49.88
724.178	49.41
724.36	49.77
724.542	49.39
724.724	49.28
724.907	49.26
725.089	48.86
725.271	48.47
725.453	49.01
725.635	49.9
725.817	49.58
725.999	49.79
726.181	48.69
726.364	48.11
726.546	48.52
726.728	49.22
726.91	49.81
727.092	50.09
727.274	50.61
727.456	50.77
727.638	50.52
727.819	51.07
728.001	50.64
728.183	50.94
728.365	50.75
728.547	51.25
728.729	51.21
728.911	51.16
729.093	51.53
729.274	51.66
729.456	52.23
729.638	52.07
729.82	52.19
730.001	52.82
730.183	52.83
730.365	53.63
730.546	53.66
730.728	53.22
730.91	53.29
731.091	53.13
731.273	52.9
731.455	52.2
731.636	51.99
731.818	51.42
731.999	51.21
732.181	52.11
732.362	51.58
732.544	51.25
732.725	51.09
732.907	51.07
733.088	51.47
733.27	51.86
733.451	51.64
733.633	51.66
733.814	52.02
733.995	52.23
734.177	51.63
734.358	52.22
734.539	52.6
734.721	52.55
734.902	52.7
735.083	52.61
735.264	52.62
735.446	53.11
735.627	53.26
735.808	53.25
735.989	54.01
736.17	54.12
736.351	54.03
736.533	53.09
736.714	53.34
736.895	52.36
737.076	52.57
737.257	52.19
737.438	51.99
737.619	51.67
737.8	51.78
737.981	51.82
738.162	51.6
738.343	51.5
738.524	51.3
738.705	51.06
738.886	51.43
739.067	51.23
739.247	51.02
739.428	51.2
739.609	52.06
739.79	51.87
739.971	50.75
740.151	50.64
740.332	50.95
740.513	51.01
740.694	50.54
740.874	50.68
741.055	50.53
741.236	50.55
741.417	50.63
741.597	49.96
741.778	51.03
741.958	51.03
742.139	51.21
742.32	50.57
742.5	50.56
742.681	50.43
742.861	50.39
743.042	49.84
743.222	49.91
743.403	50.19
743.583	50.26
743.764	48.83
743.944	48.57
744.124	48.06
744.305	49.5
744.485	50.07
744.666	50.8
744.846	50.89
745.026	51.52
745.207	51.14
745.387	50.2
745.567	50.32
745.747	51.02
745.928	51.38
746.108	51.37
746.288	50.41
746.468	49.88
746.648	49.76
746.829	48.75
747.009	48.74
747.189	48.1
747.369	48.66
747.549	48.42
747.729	48.13
747.909	47.57
748.089	46.84
748.269	46.58
748.449	47.14
748.629	47.62
748.809	48.77
748.989	48.97
749.169	48.37
749.349	48.68
749.529	49.53
749.709	49.42
749.889	49.21
750.068	50.19
750.248	50.84
750.428	50.64
750.608	50.96
750.788	49.94
750.967	49.3
751.147	50.77
751.327	51.01
751.507	50.38
751.686	50.57
751.866	51.8
752.046	52.4
752.225	52.44
752.405	52.1
752.585	51.07
752.764	52.6
752.944	53.52
753.123	52.84
753.303	52.38
753.482	52.9
753.662	53
753.841	53.28
754.021	52.72
754.2	52.17
754.38	52.38
754.559	51.98
754.739	51.54
754.918	51.6
755.097	51.81
755.277	50.87
755.456	51.13
755.635	51
755.815	51.28
755.994	50.9
756.173	50.62
756.352	51.67
756.532	51.9
756.711	51.61
756.89	51.29
757.069	50.66
757.248	51.15
757.427	50.57
757.607	51.11
757.786	50.51
757.965	50.57
758.144	51.34
758.323	50.4
758.502	52
758.681	52.19
758.86	51.41
759.039	52.64
759.218	52.54
759.397	52.67
759.576	53.03
759.755	52.22
759.934	53.34
760.113	53
760.291	53.29
760.47	52.76
760.649	52.3
760.828	53.33
761.007	53.35
761.186	54.47
761.364	53.18
761.543	52.72
761.722	53.28
761.901	52.08
762.079	51.75
762.258	51.86
762.437	52.38
762.615	51.85
762.794	51.18
762.972	50.94
763.151	49.91
763.33	50.43
763.508	50.64
763.687	50.83
763.865	51.16
764.044	51.54
764.222	50.9
764.401	50.21
764.579	51.09
764.758	51.31
764.936	51.71
765.114	52.51
765.293	53.13
765.471	52.37
765.65	51.84
765.828	52.46
766.006	51.98
766.184	52.48
766.363	52.37
766.541	51.37
766.719	51.03
766.898	49.57
767.076	49.35
767.254	48.83
767.432	49.48
767.61	50.85
767.788	50.29
767.967	50.98
768.145	51.3
768.323	50.93
768.501	52.36
768.679	52.71
768.857	53.76
769.035	54.09
769.213	54.87
769.391	54.82
769.569	53.79
769.747	54.55
769.925	54.81
770.103	55.35
770.281	55.98
770.459	56.96
770.636	57.61
770.814	58.6
770.992	58.91
771.17	57.78
771.348	57.95
771.525	58.28
771.703	58.09
771.881	58.02
772.059	57.75
772.236	57.06
772.414	56.27
772.592	55.76
772.769	54.62
772.947	53.98
773.125	55.5
773.302	55.75
773.48	54.95
773.657	54.06
773.835	52.36
774.013	51.28
774.19	52.55
774.368	51.15
774.545	51.58
774.723	52.14
774.9	52.97
775.077	51.36
775.255	51.31
775.432	52.06
775.61	51.03
775.787	53.19
775.964	52.93
776.142	53
776.319	53.57
776.496	52.62
776.674	53.63
776.851	54.73
777.028	54.43
777.205	55.04
777.382	55.74
777.56	56.82
777.737	57.21
777.914	56.73
778.091	55.56
778.268	54.87
778.445	53.97
778.622	53.21
778.8	52.19
778.977	52.7
779.154	58.5
779.331	59.11
779.508	59.5
779.685	58.63
779.862	61.12
780.038	61.43
780.215	62
780.392	62.55
780.569	62.64
780.746	61.65
780.923	62.29
781.1	55.64
781.277	53.49
781.453	52.72
781.63	50.09
781.807	49.05
781.984	48.2
782.16	47.36
782.337	49.37
782.514	48.77
782.691	47.93
782.867	47.56
783.044	46.12
783.221	46.74
783.397	48.08
783.574	49.29
783.75	49.2
783.927	50.67
784.103	52.52
784.28	50.77
784.456	51.67
784.633	52.62
784.809	50.49
784.986	51.07
785.162	50.24
785.339	49.33
785.515	50.4
785.692	50.47
785.868	50.49
786.044	48.46
786.221	47.94
786.397	48.44
786.573	49.95
786.749	54.13
786.926	54.6
787.102	55.19
787.278	53.71
787.454	54.34
787.631	54.17
787.807	53.22
787.983	54.1
788.159	54.1
788.335	53.47
788.511	52.29
788.687	50.14
788.863	50.17
789.039	51.31
789.216	52.44
789.392	52.31
789.568	51.8
789.744	51.15
789.919	51.29
790.095	52.54
790.271	52.12
790.447	52.28
790.623	53.74
790.799	52.92
790.975	51.07
791.151	50.8
791.327	51.1
791.502	53.04
791.678	54.28
791.854	54.39
792.03	53.01
792.205	53.45
792.381	53.15
792.557	53.23
792.733	56.04
792.908	56.5
793.084	55.93
793.259	54.67
793.435	53.91
793.611	57.05
793.786	56.52
793.962	57.92
794.137	56.49
794.313	56.03
794.488	56.81
794.664	54.25
794.839	57.54
795.015	59.32
795.19	57.67
795.366	59.16
795.541	55.95
795.716	55.48
795.892	53.18
796.067	54.2
796.242	53.6
796.418	52.58
796.593	53.55
796.768	53.09
796.944	52.17
797.119	55.28
797.294	52.81
797.469	53.4
797.644	53.9
797.82	54.29
797.995	54.42
798.17	54.63
798.345	55.28
798.52	54.8
798.695	51.73
798.87	53.48
799.045	52.65
799.22	54.19
799.395	54.07
799.57	55.27
799.745	58.22
799.92	59.29
800.095	61.57
800.27	59.42
800.445	57.66
800.62	58.3
800.795	56.59
800.97	55.58
801.145	53.13
801.319	52.8
801.494	52.52
801.669	54.23
801.844	54.71
802.018	52.59
802.193	54.25
802.368	57.06
802.543	59.03
802.717	58.09
802.892	60.01
803.067	61.77
803.241	60.9
803.416	59.24
803.59	57
803.765	54.97
803.94	56.62
804.114	55.89
804.289	54.57
804.463	54.17
804.638	54.9
804.812	53.46
804.986	52.67
805.161	53.59
805.335	54.71
805.51	51.91
805.684	51.9
805.858	50.85
806.033	51.09
806.207	51.11
806.381	48.23
806.556	50.87
806.73	50.89
806.904	50.6
807.078	50.64
807.253	51.03
807.427	52.29
807.601	52.88
807.775	51.59
807.949	51.61
808.123	50.84
808.298	50.84
808.472	46.93
808.646	46.79
808.82	48.05
808.994	48.27
809.168	46.56
809.342	45.41
809.516	45.55
809.69	47.75
809.864	48.1
810.038	50.23
810.212	52.39
810.385	52.62
810.559	53.23
810.733	54.39
810.907	55.87
811.081	57.77
811.255	60.4
811.428	60.28
811.602	59.23
811.776	58.19
811.95	54.36
812.123	52.02
812.297	52.66
812.471	52.67
812.644	49.78
812.818	49.11
812.992	47.55
813.165	46.7
813.339	44.94
813.512	43.5
813.686	45.56
813.86	49.53
814.033	56.01
814.207	54.01
814.38	53.78
814.554	56.9
814.727	58.6
814.9	56.4
815.074	52.77
815.247	54.41
815.421	55.12
815.594	55.62
815.767	54.94
815.941	50.78
816.114	52.61
816.287	52.05
816.46	50.41
816.634	46.99
816.807	50.96
816.98	53.33
817.153	54.42
817.327	56
817.5	53.88
817.673	54.83
817.846	55.12
818.019	54.13
818.192	53.1
818.365	53.56
818.538	55.35
818.711	54
818.884	52.76
819.057	54.08
819.23	55.85
819.403	57.24
819.576	58.23
819.749	58.84
819.922	58.05
820.095	59.73
820.268	59.83
820.441	59.05
820.614	58.95
820.786	60.34
820.959	58.78
821.132	57.37
821.305	57.24
821.477	55.51
821.65	55.98
821.823	56.16
821.996	55.41
822.168	54.87
822.341	55.34
822.514	55.39
822.686	55.25
822.859	55.04
823.031	54.54
823.204	54.5
823.376	54.61
823.549	53.53
823.722	53.1
823.894	53.43
824.067	53.69
824.239	53.48
824.411	53.03
824.584	52.87
824.756	53.22
824.929	53.33
825.101	53.27
825.273	53.24
825.446	54.1
825.618	54.68
825.79	54.65
825.963	54.29
826.135	53.93
826.307	53.8
826.479	54.41
826.652	53.49
826.824	53.48
826.996	52.22
827.168	52.2
827.34	51.98
827.512	52.02
827.684	51.75
827.856	51.41
828.029	51.76
828.201	51.97
828.373	52.3
828.545	53.54
828.717	53.63
828.889	54.52
829.061	54.73
829.232	55.01
829.404	55.16
829.576	55.59
829.748	57.16
829.92	57.3
830.092	58.33
830.264	58.38
830.436	56.62
830.607	56.66
830.779	56.79
830.951	56.25
831.123	56.77
831.294	57.07
831.466	55.3
831.638	55.05
831.809	53.52
831.981	55.05
832.153	53.83
832.324	54.21
832.496	55.23
832.667	58.3
832.839	58.5
833.011	58.32
833.182	58.37
833.354	59.05
833.525	57.67
833.697	59.49
833.868	57.78
834.039	55.24
834.211	56.59
834.382	54.76
834.554	52.34
834.725	52.58
834.896	52.31
835.068	51.5
835.239	52.68
835.41	52.49
835.581	51.14
835.753	50.39
835.924	50.55
836.095	48.85
836.266	51.27
836.438	51.62
836.609	52.68
836.78	51.64
836.951	52.3
837.122	53.14
837.293	54.61
837.464	55.06
837.635	55.85
837.806	59.43
837.977	60.05
838.148	61.19
838.319	61.75
838.49	59.56
838.661	60.73
838.832	63.56
839.003	62.79
839.174	62.01
839.345	60.86
839.516	63.37
839.687	60.04
839.857	59.42
840.028	57.53
840.199	56.2
840.37	56.9
840.54	58.54
840.711	54.37
840.882	54.8
841.053	55.12
841.223	58.26
841.394	55.15
841.564	59.75
841.735	63.86
841.906	61.97
842.076	68.04
842.247	67.34
842.417	61.47
842.588	65.34
842.758	64.19
842.929	62.59
843.099	58.43
843.27	59.6
843.44	56.49
843.611	51.38
843.781	49.87
843.951	45.71
844.122	46.92
844.292	53.13
844.462	50.15
844.633	50.96
844.803	52.4
844.973	54.91
845.144	52.02
845.314	45.88
845.484	44.15
845.654	49.96
845.824	47.73
845.995	44.78
846.165	43.04
846.335	42.53
846.505	41.71
846.675	41.74
846.845	45.12
847.015	47.66
847.185	53.69
847.355	55.31
847.525	53.65
847.695	51.85
847.865	51.43
848.035	55.56
848.205	61.91
848.375	60.55
848.545	59.86
848.715	53.82
848.884	53.76
849.054	60.8
849.224	66.38
849.394	70.07
849.564	68
849.733	74.49
849.903	70.33
850.073	64.24
850.243	63.92
850.412	64.96
850.582	70.34
850.752	62.62
850.921	47.37
851.091	53.58
851.26	48.06
851.43	52.02
851.599	47.66
851.769	47.99
851.939	48.64
852.108	55.93
852.278	50.82
852.447	49.02
852.616	57.05
852.786	69.07
852.955	51.19
853.125	45.13
853.294	57.17
853.463	66.05
853.633	69.52
853.802	67.81
853.971	63.34
854.141	72.45
854.31	77.06
854.479	70.29
854.648	62.68
854.818	69.62
854.987	74.55
855.156	71.57
855.325	79.34
855.494	87.11
855.663	86.11
855.832	93.98
856.001	92.6
856.171	90.28
856.34	87.41
856.509	83.12
856.678	77.99
856.847	78.96
857.016	70.34
857.185	59.8
857.353	58.06
857.522	53.89
857.691	42.31
857.86	40.11
858.029	41.33
858.198	42.33
858.367	51.23
858.535	54.39
858.704	51.64
858.873	55.05
859.042	60.75
859.21	53.87
859.379	59.21
859.548	61.29
859.717	61.97
859.885	61.49
860.054	65.12
860.222	54.54
860.391	58.25
860.56	56.17
860.728	54.84
860.897	46.41
861.065	45.7
861.234	38.48
861.402	34.13
861.571	30.55
861.739	32.91
861.908	34.17
862.076	38.91
862.244	39.36
862.413	39.46
862.581	38.11
862.749	43.44
862.918	51.31
863.086	64.7
863.254	71.42
863.423	80.19
863.591	74.03
863.759	66.52
863.927	72.63
864.096	72.2
864.264	74.16
864.432	84.52
864.6	77.11
864.768	72.13
864.936	66.76
865.104	67.73
865.272	67.6
865.44	70.45
865.608	68.42
865.776	62.82
865.944	65.1
866.112	74.03
866.28	58.88
866.448	67.15
866.616	72.97
866.784	67.91
866.952	68.52
867.12	71.39
867.288	70.12
867.455	77.1
867.623	87.32
867.791	89.61
867.959	80.32
868.127	82.01
868.294	78.63
868.462	76.28
868.63	74.65
868.797	73.04
868.965	71.98
869.133	67.91
869.3	66.43
869.468	59.93
869.636	50.49
869.803	48.11
869.971	46.56
870.138	50.04
870.306	51.2
870.473	54.6
870.641	59.16
870.808	55.95
870.975	53.92
871.143	53.67
871.31	53.31
871.478	62.57
871.645	63.33
871.812	62.65
871.98	56.42
872.147	51.75
872.314	52.1
872.482	52.04
872.649	56
872.816	59.84
872.983	51.76
873.15	56.02
873.318	62.85
873.485	59.3
873.652	46.3
873.819	62.25
873.986	66.15
874.153	67.29
874.32	65.71
874.487	53.19
874.654	56.76
874.821	61.07
874.988	61.17
875.155	51.28
875.322	56.88
875.489	63.01
875.656	47.63
875.823	47.83
875.99	45.29
876.157	37
876.324	39.28
876.49	37
876.657	40.92
876.824	43.05
876.991	45.09
877.157	46.52
877.324	53.49
877.491	60.79
877.658	69.88
877.824	79.98
877.991	85.01
878.157	89.01
878.324	82.76
878.491	80.04
878.657	73.55
878.824	72.31
878.99	75.33
879.157	73.08
879.323	76.43
879.49	71.95
879.656	63.38
879.823	69.71
879.989	72.55
880.156	76.42
880.322	77.63
880.488	79.1
880.655	79.27
880.821	71.63
880.987	73.92
881.154	73.13
881.32	72.66
881.486	71.39
881.652	72.83
881.819	72.08
881.985	70.35
882.151	66.35
882.317	65.53
882.483	63.96
882.649	63.77
882.816	63.44
882.982	62.41
883.148	62.12
883.314	60.91
883.48	57.68
883.646	55.56
883.812	56.63
883.978	56.74
884.144	54.53
884.31	54.8
884.476	56.09
884.642	55.24
884.807	54.44
884.973	52.38
885.139	51.85
885.305	53.88
885.471	54.98
885.637	53.52
885.802	53.31
885.968	55.43
886.134	57.48
886.3	57.66
886.465	59.96
886.631	60.25
886.797	60.54
886.962	61.42
887.128	60.73
887.293	61.39
887.459	59.21
887.625	61.27
887.79	58.62
887.956	51.38
888.121	46.27
888.287	36.29
888.452	38.47
888.618	41.3
888.783	45.29
