Data from LC_213__Reflection_2.txt Node
Date: Thu Nov 19 12:44:03 EST 2015
User: robert
Spectrometer: USB4E03001
Autoset integration time: false
Trigger mode: 4
Integration Time (sec): 1.000000E-1
Scans to average: 15
Electric dark correction enabled: true
Nonlinearity correction enabled: false
Boxcar width: 5
Stray light correction enabled: false
XAxis mode: Wavelengths
Stop averaging: false
Number of Pixels in Spectrum: 3648
>>>>>Begin Spectral Data<<<<<
177.566	-572.24
177.785	1307.29
178.005	-351.15
178.225	7.59
178.445	9.72
178.665	10.96
178.885	-203.65
179.105	-115.93
179.324	54.73
179.544	476.92
179.764	-89.84
179.984	-124.46
180.204	-193.34
180.423	-21.18
180.643	47.07
180.863	64.65
181.083	64.16
181.302	67.57
181.522	162.3
181.742	93.69
181.961	135.39
182.181	100.58
182.401	80.26
182.621	31.43
182.84	50.39
183.06	60.04
183.279	82.92
183.499	76.31
183.719	86.75
183.938	70.01
184.158	156.36
184.377	130.13
184.597	375.43
184.816	-21.54
185.036	-4.65
185.256	81.91
185.475	96.06
185.695	111.17
185.914	87.52
186.134	88.43
186.353	94.71
186.572	236.6
186.792	297.74
187.011	-1064.98
187.231	-505.05
187.45	-179.71
187.67	32.58
187.889	177.85
188.108	335.6
188.328	166.07
188.547	193.09
188.766	-490.74
188.986	-13.65
189.205	8.66
189.424	0.83
189.644	-4.17
189.863	-77.23
190.082	-50.61
190.302	0.77
190.521	-46.61
190.74	-85.4
190.959	-405.35
191.178	-281.83
191.398	-177.65
191.617	-1131.34
191.836	-775.68
192.055	-175.95
192.274	-161.01
192.494	-29.68
192.713	-54.11
192.932	12.9
193.151	149.45
193.37	118.34
193.589	211.88
193.808	-278.29
194.027	946
194.246	314.38
194.465	-82.89
194.685	1632.42
194.904	-181.39
195.123	-891.76
195.342	-216.83
195.561	-140.8
195.78	-1632.84
195.999	-680.83
196.218	1651.5
196.436	-34026.92
196.655	2518.46
196.874	290.62
197.093	458.1
197.312	313.91
197.531	694.26
197.75	1786.35
197.969	476.29
198.188	-4355.38
198.407	-234.8
198.625	19.76
198.844	51.08
199.063	101.8
199.282	88
199.501	103.15
199.719	112.62
199.938	130.83
200.157	138.3
200.376	137.69
200.594	115.17
200.813	145.1
201.032	205.24
201.251	278.15
201.469	111.68
201.688	119.86
201.907	80.21
202.125	15.98
202.344	-27.51
202.563	1.41
202.781	23.58
203	12.16
203.218	-34.7
203.437	-126.47
203.656	-256.23
203.874	-1019.23
204.093	-396.11
204.311	241.61
204.53	85.32
204.748	50.15
204.967	42.41
205.185	43.02
205.404	13.73
205.622	6.83
205.841	-1.94
206.059	-97.93
206.278	-1595.86
206.496	-159.1
206.715	-632.31
206.933	64.05
207.151	46.33
207.37	62.77
207.588	87.46
207.806	27.85
208.025	47.86
208.243	42.22
208.461	-220.67
208.68	-226.22
208.898	53.08
209.116	-1536.54
209.335	295.19
209.553	-167.8
209.771	-19.26
209.989	168.12
210.208	43.23
210.426	-32.43
210.644	38.46
210.862	149.99
211.081	127.44
211.299	21.61
211.517	-42.68
211.735	-3744.23
211.953	-412.2
212.171	-91.07
212.39	-59.16
212.608	-18.65
212.826	-65.88
213.044	-133.66
213.262	-172.63
213.48	-78.45
213.698	-167.69
213.916	-70.97
214.134	-73.81
214.352	-12.73
214.57	-3.51
214.788	-8.07
215.006	1484.62
215.224	326.03
215.442	198.62
215.66	147.76
215.878	108.63
216.096	100.14
216.314	84.85
216.532	137.79
216.75	124.77
216.968	113.17
217.185	110.61
217.403	88.62
217.621	66.11
217.839	134.87
218.057	119.69
218.275	120.92
218.492	130.25
218.71	122.11
218.928	90.68
219.146	103.69
219.363	98.87
219.581	107.35
219.799	134.12
220.017	126.38
220.234	127.79
220.452	198.09
220.67	271.6
220.887	152.64
221.105	61.18
221.323	69.46
221.54	56.62
221.758	120.91
221.976	83.56
222.193	64.01
222.411	71.19
222.629	70.14
222.846	64.83
223.064	62.84
223.281	70.39
223.499	113.62
223.716	158.84
223.934	169.52
224.151	124.84
224.369	142.65
224.586	133.86
224.804	273.77
225.021	201.09
225.239	161.94
225.456	149.47
225.674	85.15
225.891	41.82
226.108	19.4
226.326	14.73
226.543	1.2
226.76	-27.79
226.978	-39.02
227.195	-16.23
227.413	-22.03
227.63	-19.97
227.847	-7.99
228.064	-0.89
228.282	1.54
228.499	1.63
228.716	1.98
228.934	6.1
229.151	9.81
229.368	11.36
229.585	11.89
229.802	9.17
230.02	10.76
230.237	11.47
230.454	13.55
230.671	10.02
230.888	8.79
231.105	12.95
231.323	14.54
231.54	16.71
231.757	16.86
231.974	11.58
232.191	19.58
232.408	20.14
232.625	21.99
232.842	18.92
233.059	20.88
233.276	25.29
233.493	21.23
233.71	20.52
233.927	15.57
234.144	18.88
234.361	19.88
234.578	12.67
234.795	6.21
235.012	4.98
235.229	3.19
235.446	8.65
235.663	0.26
235.879	3.98
236.096	7.1
236.313	14.08
236.53	8.74
236.747	13.17
236.964	14.07
237.181	21.01
237.397	18.98
237.614	17.08
237.831	6.34
238.048	11.23
238.264	8.01
238.481	5.71
238.698	3.15
238.915	8.49
239.131	2.87
239.348	5.69
239.565	7.75
239.781	10.61
239.998	18.21
240.215	21.89
240.431	23.46
240.648	22.17
240.865	22.12
241.081	19.89
241.298	17
241.514	18.68
241.731	19.03
241.947	17.03
242.164	14.8
242.38	13.06
242.597	11.02
242.814	11.1
243.03	11.02
243.246	10.1
243.463	9.91
243.679	11.91
243.896	11.68
244.112	13.28
244.329	14.76
244.545	16.68
244.762	15.45
244.978	17.45
245.194	15.22
245.411	14.95
245.627	16.4
245.843	18.94
246.06	16.65
246.276	14.19
246.492	12.85
246.709	12.24
246.925	11.81
247.141	11.68
247.357	11.5
247.574	13.14
247.79	13.29
248.006	12.11
248.222	10.61
248.439	10.92
248.655	11.39
248.871	11.36
249.087	11.68
249.303	11.73
249.519	12.3
249.736	11.93
249.952	10.18
250.168	10.6
250.384	11.22
250.6	12.32
250.816	12.99
251.032	12.22
251.248	10.56
251.464	10.01
251.68	11.14
251.896	11.96
252.112	12.9
252.328	12.06
252.544	10.76
252.76	11.96
252.976	14.12
253.192	12.8
253.408	14.44
253.624	16.23
253.84	17.55
254.056	18.04
254.272	17.57
254.487	14.56
254.703	17.46
254.919	17.86
255.135	16.41
255.351	12.83
255.567	10.58
255.782	8.55
255.998	4.52
256.214	-0.9
256.43	0.86
256.646	2.58
256.861	4.9
257.077	2.31
257.293	4.27
257.508	6.35
257.724	8.25
257.94	11.35
258.155	10.83
258.371	11.25
258.587	11.7
258.802	11.27
259.018	9.7
259.234	9.41
259.449	9.91
259.665	9.13
259.88	9.61
260.096	8.31
260.312	8.01
260.527	8.51
260.743	8.65
260.958	9.22
261.174	8.15
261.389	7.98
261.605	8.07
261.82	8.07
262.036	7.16
262.251	6.21
262.466	6.57
262.682	6.87
262.897	7.18
263.113	7.59
263.328	8.02
263.543	6.46
263.759	9.3
263.974	9.3
264.189	9.08
264.405	9.86
264.62	8.71
264.835	8.72
265.051	8.75
265.266	4.91
265.481	3.67
265.696	3.59
265.912	7.85
266.127	6.63
266.342	8.33
266.557	7.53
266.773	7.95
266.988	8.15
267.203	8.66
267.418	7.57
267.633	10.04
267.848	11.75
268.064	11.62
268.279	10.33
268.494	9.83
268.709	9.17
268.924	10.71
269.139	11.56
269.354	11.48
269.569	11.4
269.784	11.07
269.999	11.33
270.214	10.99
270.429	12.89
270.644	13.56
270.859	13.37
271.074	13.38
271.289	12.46
271.504	13.27
271.719	14.37
271.934	13.55
272.149	14.52
272.363	13.33
272.578	12.07
272.793	9.53
273.008	9.07
273.223	8.33
273.438	9.03
273.653	8.6
273.867	7.84
274.082	6.59
274.297	7.34
274.512	6.31
274.726	6.94
274.941	8.54
275.156	8.27
275.371	8.42
275.585	8.89
275.8	6.78
276.015	6.98
276.229	7.1
276.444	8.87
276.659	8.41
276.873	5.42
277.088	4.44
277.302	4.78
277.517	6.14
277.732	4.96
277.946	5.89
278.161	5.51
278.375	4.9
278.59	3.92
278.804	2.63
279.019	4
279.233	8.22
279.448	9.75
279.662	10.61
279.877	9.7
280.091	10.83
280.306	11.29
280.52	12.05
280.735	11.8
280.949	12.83
281.163	13.02
281.378	11.55
281.592	12.23
281.806	11.22
282.021	9.47
282.235	10.22
282.449	9.5
282.664	8.15
282.878	8.64
283.092	9.9
283.307	10.76
283.521	10.49
283.735	11.16
283.949	10.37
284.164	11.1
284.378	10.4
284.592	10.9
284.806	13.6
285.02	13.62
285.234	13.72
285.449	13.34
285.663	12.41
285.877	11.58
286.091	11.68
286.305	11.31
286.519	11.08
286.733	11.38
286.947	11.48
287.161	9.03
287.375	10.06
287.589	9.9
287.803	9.72
288.017	10.05
288.231	10.35
288.445	10.39
288.659	10.09
288.873	10.46
289.087	11.79
289.301	11.04
289.515	10.72
289.729	9.11
289.943	8.61
290.157	9.71
290.371	9.17
290.584	9.57
290.798	9.9
291.012	11.61
291.226	10.54
291.44	9.43
291.654	8.45
291.867	8.81
292.081	9.35
292.295	9.19
292.509	8.96
292.722	9.46
292.936	9.51
293.15	11.88
293.364	9.89
293.577	10.81
293.791	11.26
294.005	12.48
294.218	12.74
294.432	13.69
294.645	14.28
294.859	13.11
295.073	11.67
295.286	11.09
295.5	8.62
295.713	9.83
295.927	9.19
296.14	9.47
296.354	8.95
296.568	8.88
296.781	8.51
296.994	8.42
297.208	7.4
297.421	8.07
297.635	8.72
297.848	9.55
298.062	9.24
298.275	9.94
298.489	9.9
298.702	9.84
298.915	9.88
299.129	10.39
299.342	9.69
299.555	12.5
299.769	13.5
299.982	13.97
300.195	12.17
300.409	11.88
300.622	11.33
300.835	10.1
301.048	11.13
301.262	12.5
301.475	11.66
301.688	11.73
301.901	10.57
302.115	10.21
302.328	10.59
302.541	12.75
302.754	14
302.967	13.95
303.18	15.19
303.393	14.35
303.607	13.25
303.82	14.96
304.033	14.8
304.246	16.89
304.459	16.68
304.672	17
304.885	16.2
305.098	15.73
305.311	15.71
305.524	15.73
305.737	17.24
305.95	17.14
306.163	14.35
306.376	15.28
306.589	12.48
306.802	11.79
307.015	10.41
307.228	10.41
307.44	9.28
307.653	10.29
307.866	10.48
308.079	10.09
308.292	10.84
308.505	13.1
308.718	13.77
308.93	13.99
309.143	14.32
309.356	14.09
309.569	14.37
309.781	15.08
309.994	15.12
310.207	14.91
310.42	14.13
310.632	13.91
310.845	13.16
311.058	12.5
311.27	12.92
311.483	13.05
311.696	13.53
311.908	13.37
312.121	12.01
312.333	11.34
312.546	9.83
312.759	10.95
312.971	10.72
313.184	10.71
313.396	10.34
313.609	9.97
313.821	9.55
314.034	9.34
314.246	9.36
314.459	10.08
314.671	10.53
314.884	10.53
315.096	9.35
315.309	8.76
315.521	8.3
315.733	8.08
315.946	7.53
316.158	8.05
316.371	8.02
316.583	7.09
316.795	7.55
317.008	7.28
317.22	9.28
317.432	9.09
317.644	9.28
317.857	10.27
318.069	11.38
318.281	13.49
318.494	12.49
318.706	12.28
318.918	12.63
319.13	12.36
319.342	12.95
319.555	12.12
319.767	12.44
319.979	12.39
320.191	12.29
320.403	12.08
320.615	9.92
320.827	11.38
321.039	11.71
321.252	11.53
321.464	11.06
321.676	10.39
321.888	9.03
322.1	8.05
322.312	8.28
322.524	7.8
322.736	7.61
322.948	8.28
323.16	6.62
323.372	7.25
323.584	7.07
323.796	7.3
324.007	7.4
324.219	9.58
324.431	10.8
324.643	11.25
324.855	11.73
325.067	11.29
325.279	10.84
325.491	12.17
325.702	10.89
325.914	11.55
326.126	12.59
326.338	12.16
326.55	10.52
326.761	9.46
326.973	9.68
327.185	10.26
327.396	10.75
327.608	10.57
327.82	11.61
328.032	12.77
328.243	12.53
328.455	11.29
328.666	12.82
328.878	14.53
329.09	15.02
329.301	15.37
329.513	14.8
329.725	14.41
329.936	14.84
330.148	14.29
330.359	12.88
330.571	13.24
330.782	14.1
330.994	13.09
331.205	12.03
331.417	12.63
331.628	11.52
331.84	11.89
332.051	12.73
332.262	13.39
332.474	12.31
332.685	12.91
332.897	12.12
333.108	12.31
333.319	12.87
333.531	12.76
333.742	13.52
333.953	14.37
334.165	13.28
334.376	12.94
334.587	13.02
334.799	13.13
335.01	13.21
335.221	14.41
335.432	14.06
335.644	13.84
335.855	14.61
336.066	13.79
336.277	13.3
336.488	14.02
336.7	13.6
336.911	12.95
337.122	12.35
337.333	12.4
337.544	12.17
337.755	12.77
337.966	12.58
338.177	11.77
338.388	11.65
338.599	11.19
338.811	11.42
339.022	11.68
339.233	11.93
339.444	13.11
339.655	12.67
339.866	12.26
340.076	11.83
340.287	12.42
340.498	12.51
340.709	13.49
340.92	14.81
341.131	14.1
341.342	14.06
341.553	14.67
341.764	13.99
341.975	14.41
342.185	14.13
342.396	13.99
342.607	13.06
342.818	13.11
343.029	12.37
343.239	11.66
343.45	12.08
343.661	11.71
343.872	10.52
344.082	10.53
344.293	10.56
344.504	12.24
344.714	12.24
344.925	12.67
345.136	13
345.346	12.96
345.557	13.02
345.768	12.18
345.978	13.31
346.189	13.74
346.399	13.69
346.61	14.27
346.821	12.97
347.031	12.92
347.242	12.59
347.452	13.2
347.663	12.81
347.873	13.46
348.084	14.36
348.294	14.16
348.504	13.79
348.715	13.88
348.925	13.17
349.136	13.19
349.346	12.86
349.557	12.88
349.767	12.4
349.977	13.06
350.188	12.75
350.398	12.47
350.608	12.15
350.819	12.43
351.029	12.44
351.239	13.27
351.449	13.52
351.66	14.39
351.87	13.87
352.08	13.92
352.29	14.18
352.501	13.47
352.711	13.18
352.921	12.01
353.131	12.12
353.341	11.79
353.552	10.66
353.762	10.37
353.972	10.06
354.182	11.48
354.392	11.2
354.602	11.12
354.812	11.11
355.022	11.29
355.232	12.5
355.442	12.71
355.652	13.41
355.862	12.8
356.072	12.43
356.282	11.75
356.492	10.22
356.702	10.16
356.912	10.42
357.122	9.92
357.332	10.19
357.542	9.8
357.752	9.68
357.962	8.35
358.171	9.71
358.381	9.79
358.591	10.04
358.801	11.07
359.011	10.84
359.221	10.27
359.43	11.53
359.64	11.7
359.85	12.43
360.06	12.2
360.269	12.85
360.479	12.49
360.689	12.65
360.899	12.37
361.108	12.33
361.318	12.81
361.528	12.08
361.737	11.67
361.947	11.48
362.156	10.47
362.366	9.74
362.576	10.08
362.785	9.91
362.995	10.09
363.204	10.36
363.414	10.11
363.623	9.65
363.833	10.38
364.042	9.87
364.252	9.82
364.461	10.52
364.671	11.73
364.88	11.59
365.09	11.65
365.299	11.29
365.509	10.53
365.718	10.3
365.927	10.65
366.137	10.16
366.346	10.58
366.555	9.77
366.765	9.38
366.974	8.94
367.183	9.11
367.393	8.93
367.602	8.77
367.811	9.22
368.021	8.67
368.23	7.59
368.439	7.88
368.648	7.49
368.857	8.56
369.067	8.59
369.276	8.39
369.485	8.2
369.694	8.25
369.903	8.94
370.112	9.68
370.321	10.06
370.531	10.81
370.74	10.65
370.949	11.4
371.158	10.84
371.367	11.11
371.576	11.11
371.785	10.78
371.994	10.59
372.203	9.9
372.412	10
372.621	10.39
372.83	10.51
373.039	10.62
373.248	10.09
373.457	10.52
373.666	10.09
373.874	9.86
374.083	9.84
374.292	10.12
374.501	9.6
374.71	9.25
374.919	8.67
375.128	8.16
375.336	7.9
375.545	8.03
375.754	7.37
375.963	7.61
376.171	7.66
376.38	8.19
376.589	7.83
376.798	8.22
377.006	8.15
377.215	8.63
377.424	9.01
377.632	9.04
377.841	8.81
378.05	9.27
378.258	9
378.467	9.1
378.675	8.67
378.884	8.79
379.093	9.12
379.301	9.03
379.51	8.54
379.718	8.85
379.927	8.75
380.135	8.79
380.344	8.58
380.552	8.76
380.761	8.65
380.969	9.2
381.177	9.15
381.386	9.04
381.594	9.17
381.803	9.7
382.011	9.44
382.219	9.8
382.428	9.88
382.636	10.01
382.845	9.94
383.053	10.3
383.261	9.7
383.469	9.75
383.678	9.4
383.886	9.03
384.094	8.28
384.302	7.8
384.511	7.82
384.719	7.49
384.927	7.02
385.135	7.03
385.343	6.99
385.552	6.92
385.76	6.72
385.968	6.92
386.176	7.01
386.384	7.36
386.592	7.45
386.8	7.1
387.008	7.55
387.216	8.06
387.424	8.19
387.633	8.41
387.841	8.41
388.049	8.58
388.257	8.7
388.465	8.75
388.672	9.01
388.88	8.99
389.088	8.81
389.296	8.75
389.504	8.61
389.712	8.33
389.92	8.03
390.128	7.96
390.336	8.02
390.544	7.66
390.751	7.97
390.959	7.91
391.167	8.16
391.375	8.52
391.583	8.46
391.79	8.45
391.998	8.37
392.206	8.48
392.414	8.35
392.621	8.21
392.829	8.42
393.037	8.49
393.244	8.53
393.452	8.47
393.66	8.29
393.867	8.12
394.075	7.99
394.283	8.21
394.49	8.05
394.698	8.34
394.905	8.12
395.113	7.97
395.32	7.49
395.528	7.17
395.735	7.22
395.943	7.31
396.15	7.2
396.358	7.15
396.565	6.81
396.773	6.74
396.98	6.56
397.188	6.88
397.395	6.69
397.602	6.6
397.81	6.6
398.017	6.38
398.225	6.39
398.432	6.59
398.639	6.3
398.847	6.67
399.054	6.66
399.261	6.79
399.468	6.75
399.676	7
399.883	7.04
400.09	6.91
400.297	7.06
400.505	6.95
400.712	7.12
400.919	7.63
401.126	7.54
401.333	7.92
401.54	7.84
401.748	7.94
401.955	7.8
402.162	8.01
402.369	8.31
402.576	8.26
402.783	8.19
402.99	7.94
403.197	7.76
403.404	7.59
403.611	7.35
403.818	7.47
404.025	7.19
404.232	7.32
404.439	7.25
404.646	7.14
404.853	7.18
405.06	7.12
405.267	7.16
405.474	6.95
405.681	6.92
405.887	6.8
406.094	6.76
406.301	6.84
406.508	6.85
406.715	6.92
406.922	7.01
407.128	6.82
407.335	6.79
407.542	6.93
407.749	7.51
407.955	7.8
408.162	7.54
408.369	7.93
408.575	7.95
408.782	7.71
408.989	7.24
409.195	6.98
409.402	6.97
409.609	7.07
409.815	6.77
410.022	6.32
410.228	6.28
410.435	6.3
410.642	6.01
410.848	5.99
411.055	5.84
411.261	5.97
411.468	6.17
411.674	6.29
411.881	6.54
412.087	6.64
412.294	6.69
412.5	6.68
412.706	6.96
412.913	6.64
413.119	6.65
413.326	7.2
413.532	7.47
413.738	7.38
413.945	7.07
414.151	6.77
414.357	6.78
414.564	6.74
414.77	6.63
414.976	6.48
415.182	6.78
415.389	6.88
415.595	6.44
415.801	6.35
416.007	6.24
416.214	6.35
416.42	6.4
416.626	6.35
416.832	6.4
417.038	6.32
417.244	6.52
417.45	6.38
417.657	6.32
417.863	6.42
418.069	6.47
418.275	6.75
418.481	6.74
418.687	6.81
418.893	6.74
419.099	6.75
419.305	6.85
419.511	6.73
419.717	6.68
419.923	6.65
420.129	6.7
420.335	6.72
420.541	6.53
420.746	6.57
420.952	6.53
421.158	6.59
421.364	6.5
421.57	6.44
421.776	6.46
421.982	6.45
422.187	6.4
422.393	6.34
422.599	6.16
422.805	6.39
423.01	6.37
423.216	6.4
423.422	6.38
423.628	6.51
423.833	6.53
424.039	6.58
424.245	6.58
424.45	6.71
424.656	6.82
424.862	6.98
425.067	6.78
425.273	6.79
425.478	6.72
425.684	6.84
425.889	6.86
426.095	6.82
426.301	6.8
426.506	6.97
426.712	6.87
426.917	6.61
427.123	6.59
427.328	6.68
427.533	6.71
427.739	6.9
427.944	6.75
428.15	6.58
428.355	6.66
428.561	6.56
428.766	6.39
428.971	6.44
429.177	6.67
429.382	6.54
429.587	6.42
429.793	6.31
429.998	5.99
430.203	5.9
430.408	5.85
430.614	5.76
430.819	5.89
431.024	5.95
431.229	6.1
431.434	6.06
431.64	6.02
431.845	6.27
432.05	6.47
432.255	6.67
432.46	6.97
432.665	7.03
432.87	7.24
433.076	7.02
433.281	6.98
433.486	6.99
433.691	7.07
433.896	7.3
434.101	7.12
434.306	7.16
434.511	6.95
434.716	6.67
434.921	6.74
435.126	6.55
435.331	6.69
435.535	6.5
435.74	6.44
435.945	6.41
436.15	6.3
436.355	6.49
436.56	6.37
436.765	6.63
436.97	6.69
437.174	6.74
437.379	6.73
437.584	6.9
437.789	7.1
437.993	7.04
438.198	6.94
438.403	6.88
438.608	6.68
438.812	6.65
439.017	6.61
439.222	6.67
439.426	6.45
439.631	6.43
439.836	6.3
440.04	6.22
440.245	6.19
440.45	6.17
440.654	6.27
440.859	6.35
441.063	6.34
441.268	6.32
441.472	6.31
441.677	6.45
441.881	6.51
442.086	6.6
442.29	6.76
442.495	6.76
442.699	6.81
442.904	6.7
443.108	6.66
443.312	6.6
443.517	6.38
443.721	6.44
443.925	6.38
444.13	6.43
444.334	6.56
444.538	6.48
444.743	6.54
444.947	6.57
445.151	6.58
445.356	6.62
445.56	6.76
445.764	7.02
445.968	6.94
446.173	7.02
446.377	6.91
446.581	6.68
446.785	6.69
446.989	6.62
447.193	6.6
447.398	6.55
447.602	6.45
447.806	6.39
448.01	6.25
448.214	6.17
448.418	6.09
448.622	6.05
448.826	6.05
449.03	6.08
449.234	6.05
449.438	6.03
449.642	6.08
449.846	6.38
450.05	6.34
450.254	6.19
450.458	6.12
450.662	6.09
450.866	6.13
451.069	6.3
451.273	6.17
451.477	6.08
451.681	6.17
451.885	6.21
452.089	6.1
452.292	6.05
452.496	6.3
452.7	6.39
452.904	6.41
453.107	6.51
453.311	6.42
453.515	6.28
453.719	6.44
453.922	6.41
454.126	6.36
454.33	6.16
454.533	6.16
454.737	6.02
454.94	6.17
455.144	6.16
455.348	6.03
455.551	5.98
455.755	6
455.958	6.05
456.162	5.95
456.365	5.68
456.569	5.78
456.772	5.96
456.976	6.02
457.179	6.05
457.383	6.19
457.586	6.11
457.79	6.26
457.993	6.28
458.196	6.21
458.4	6.22
458.603	6.45
458.807	6.3
459.01	6.22
459.213	6.12
459.417	5.98
459.62	5.8
459.823	5.92
460.026	5.87
460.23	5.97
460.433	6.03
460.636	6.08
460.839	6
461.042	6.07
461.246	6.04
461.449	6.13
461.652	6.18
461.855	6.27
462.058	6.35
462.261	6.41
462.464	6.45
462.668	6.24
462.871	6.11
463.074	6.26
463.277	6.29
463.48	6.28
463.683	6.26
463.886	6.32
464.089	6.36
464.292	6.22
464.495	6.15
464.698	6.05
464.901	6.37
465.104	6.42
465.306	6.39
465.509	6.14
465.712	6.29
465.915	6.4
466.118	6.12
466.321	6.09
466.524	5.94
466.726	5.84
466.929	5.9
467.132	5.69
467.335	5.69
467.538	5.78
467.74	6
467.943	5.89
468.146	5.75
468.348	5.9
468.551	5.87
468.754	6.05
468.956	6.06
469.159	6.07
469.362	6.05
469.564	6.08
469.767	6
469.969	5.98
470.172	5.95
470.375	6.07
470.577	5.98
470.78	5.99
470.982	6.11
471.185	6.15
471.387	6.15
471.59	6.3
471.792	6.28
471.995	6.32
472.197	6.41
472.399	6.43
472.602	6.6
472.804	6.84
473.007	6.91
473.209	6.64
473.411	6.71
473.614	6.66
473.816	6.65
474.018	6.69
474.22	6.56
474.423	6.53
474.625	6.5
474.827	6.42
475.03	6.26
475.232	6.03
475.434	6.18
475.636	6.06
475.838	6.09
476.04	6.1
476.243	6.16
476.445	6.24
476.647	6.27
476.849	6.22
477.051	6.17
477.253	6.07
477.455	6.21
477.657	6.28
477.859	6.46
478.061	6.37
478.263	6.3
478.465	6.28
478.667	6.22
478.869	6.17
479.071	6.36
479.273	6.31
479.475	6.28
479.677	6.35
479.879	6.15
480.081	5.94
480.283	6.04
480.485	6.08
480.686	6.21
480.888	6.07
481.09	5.98
481.292	5.84
481.494	5.83
481.695	5.95
481.897	5.9
482.099	5.95
482.301	6.07
482.502	6.05
482.704	6.04
482.906	5.94
483.107	6.08
483.309	6.01
483.511	6.06
483.712	6.02
483.914	6.07
484.115	6.12
484.317	6.12
484.519	6.1
484.72	6.1
484.922	6.08
485.123	6.1
485.325	6.04
485.526	6.13
485.728	6.1
485.929	6.17
486.131	6.08
486.332	6.01
486.534	6.07
486.735	6.06
486.936	6.11
487.138	6.09
487.339	6.16
487.541	6.2
487.742	6.21
487.943	6.18
488.144	6.14
488.346	6.18
488.547	6.24
488.748	6.23
488.95	6.19
489.151	6.09
489.352	6.1
489.553	6
489.755	5.94
489.956	5.9
490.157	5.96
490.358	5.95
490.559	5.94
490.76	5.93
490.961	5.88
491.163	5.96
491.364	6.01
491.565	6.04
491.766	6.01
491.967	6.1
492.168	6.08
492.369	6.03
492.57	5.98
492.771	6.07
492.972	6.06
493.173	6.16
493.374	6.27
493.575	6.28
493.776	6.19
493.976	6.25
494.177	6.2
494.378	6.11
494.579	6.19
494.78	6.32
494.981	6.16
495.182	6.24
495.382	6.09
495.583	5.96
495.784	6.01
495.985	6.17
496.185	6.07
496.386	6.06
496.587	6.18
496.788	6.05
496.988	6.16
497.189	6.22
497.39	6.21
497.59	6.3
497.791	6.26
497.992	6.27
498.192	6.26
498.393	6.4
498.593	6.47
498.794	6.37
498.994	6.49
499.195	6.32
499.395	6.25
499.596	6.16
499.796	6.09
499.997	6.19
500.197	6.18
500.398	6.25
500.598	6.18
500.799	6.24
500.999	6.37
501.199	6.52
501.4	6.68
501.6	6.59
501.801	6.65
502.001	6.66
502.201	6.73
502.402	6.64
502.602	6.59
502.802	6.74
503.002	6.65
503.203	6.72
503.403	6.53
503.603	6.51
503.803	6.78
504.003	6.8
504.204	6.8
504.404	6.69
504.604	6.73
504.804	6.87
505.004	6.71
505.204	6.7
505.404	6.63
505.604	6.7
505.804	6.7
506.005	6.64
506.205	6.47
506.405	6.59
506.605	6.58
506.805	6.56
507.005	6.4
507.204	6.58
507.404	6.71
507.604	6.92
507.804	6.91
508.004	6.99
508.204	7.03
508.404	7.13
508.604	7.06
508.804	7.23
509.003	7.35
509.203	7.29
509.403	7.14
509.603	7.2
509.803	7.14
510.002	7.02
510.202	6.98
510.402	7.01
510.602	7.03
510.801	7.04
511.001	6.89
511.201	6.88
511.4	7.1
511.6	7.24
511.8	7.11
511.999	7.13
512.199	7.27
512.398	7.34
512.598	7.33
512.797	7.48
512.997	7.55
513.197	7.56
513.396	7.56
513.596	7.56
513.795	7.53
513.994	7.67
514.194	7.7
514.393	7.55
514.593	7.35
514.792	7.3
514.992	7.21
515.191	7.26
515.39	7.39
515.59	7.4
515.789	7.36
515.988	7.39
516.188	7.37
516.387	7.43
516.586	7.53
516.786	7.78
516.985	7.91
517.184	7.89
517.383	7.85
517.582	7.89
517.782	7.93
517.981	7.85
518.18	7.83
518.379	7.73
518.578	7.64
518.777	7.71
518.976	7.71
519.176	7.65
519.375	7.66
519.574	7.66
519.773	7.62
519.972	7.66
520.171	7.82
520.37	7.89
520.569	8.03
520.768	8.12
520.967	8.17
521.166	8.07
521.365	8.04
521.564	8.14
521.762	8.13
521.961	8.12
522.16	8.03
522.359	7.96
522.558	7.96
522.757	7.94
522.956	7.88
523.154	7.92
523.353	8.01
523.552	8.06
523.751	8.01
523.949	8.05
524.148	8.11
524.347	8.18
524.546	8.13
524.744	8.21
524.943	8.14
525.142	8.15
525.34	8.17
525.539	8.16
525.737	8.16
525.936	8.12
526.135	8.19
526.333	8.12
526.532	8.14
526.73	8.2
526.929	8.17
527.127	8.19
527.326	8.2
527.524	8.17
527.723	8.27
527.921	8.22
528.12	8.25
528.318	8.21
528.516	8.29
528.715	8.27
528.913	8.23
529.112	8.26
529.31	8.33
529.508	8.36
529.707	8.44
529.905	8.38
530.103	8.46
530.301	8.52
530.5	8.49
530.698	8.43
530.896	8.44
531.094	8.48
531.293	8.49
531.491	8.53
531.689	8.57
531.887	8.53
532.085	8.46
532.283	8.49
532.481	8.52
532.68	8.64
532.878	8.71
533.076	8.72
533.274	8.76
533.472	8.69
533.67	8.62
533.868	8.6
534.066	8.66
534.264	8.77
534.462	8.78
534.66	8.8
534.858	8.77
535.056	8.8
535.253	8.88
535.451	8.94
535.649	9.05
535.847	9.11
536.045	9.12
536.243	9.04
536.441	9.09
536.638	9.18
536.836	9.12
537.034	9.28
537.232	9.37
537.43	9.38
537.627	9.36
537.825	9.29
538.023	9.27
538.22	9.42
538.418	9.5
538.616	9.41
538.813	9.37
539.011	9.41
539.209	9.29
539.406	9.28
539.604	9.24
539.801	9.36
539.999	9.43
540.196	9.48
540.394	9.39
540.591	9.41
540.789	9.55
540.986	9.6
541.184	9.64
541.381	9.71
541.579	9.72
541.776	9.74
541.974	9.68
542.171	9.79
542.368	9.84
542.566	9.93
542.763	10.04
542.96	10.01
543.158	10.04
543.355	10.06
543.552	10.08
543.75	10.17
543.947	10.3
544.144	10.48
544.341	10.52
544.539	10.56
544.736	10.61
544.933	10.53
545.13	10.65
545.327	10.69
545.524	10.62
545.722	10.64
545.919	10.59
546.116	10.62
546.313	10.61
546.51	10.64
546.707	10.64
546.904	10.72
547.101	10.8
547.298	10.89
547.495	10.89
547.692	11.11
547.889	11.12
548.086	11.12
548.283	11.21
548.48	11.2
548.677	11.18
548.874	11.28
549.07	11.19
549.267	11.24
549.464	11.26
549.661	11.25
549.858	11.11
550.055	11.19
550.251	11.29
550.448	11.04
550.645	11.26
550.842	11.35
551.038	11.45
551.235	11.56
551.432	11.63
551.628	11.68
551.825	11.73
552.022	11.78
552.218	12.04
552.415	12.16
552.612	12.4
552.808	12.42
553.005	12.35
553.201	12.24
553.398	12.37
553.594	12.36
553.791	12.25
553.987	12.33
554.184	12.61
554.38	12.53
554.577	12.5
554.773	12.67
554.97	12.5
555.166	12.53
555.362	12.79
555.559	12.76
555.755	12.82
555.952	13.16
556.148	13.15
556.344	12.94
556.541	13.06
556.737	13.44
556.933	13.37
557.129	13.63
557.326	13.85
557.522	13.84
557.718	13.99
557.914	14.12
558.11	13.86
558.307	13.9
558.503	14.22
558.699	14.18
558.895	13.9
559.091	13.94
559.287	14.05
559.483	14.24
559.679	14.32
559.876	14.18
560.072	14.32
560.268	14.65
560.464	14.73
560.66	14.84
560.856	15.1
561.052	15.36
561.247	15.38
561.443	15.43
561.639	15.36
561.835	15.3
562.031	15.48
562.227	15.45
562.423	15.42
562.619	15.58
562.815	15.5
563.01	15.53
563.206	15.5
563.402	15.63
563.598	15.7
563.793	15.67
563.989	15.77
564.185	15.85
564.381	15.91
564.576	16.05
564.772	16.12
564.968	16.16
565.163	16.17
565.359	16.09
565.555	16.24
565.75	16.5
565.946	16.8
566.141	16.88
566.337	17.15
566.532	17.27
566.728	17.31
566.923	17.37
567.119	17.56
567.314	17.56
567.51	17.73
567.705	17.75
567.901	17.49
568.096	17.52
568.292	17.74
568.487	17.55
568.682	17.7
568.878	17.8
569.073	17.97
569.268	17.85
569.464	17.85
569.659	18.02
569.854	18.03
570.05	18.18
570.245	18.15
570.44	18.16
570.635	18.37
570.831	18.39
571.026	18.57
571.221	18.68
571.416	18.82
571.611	19
571.806	18.99
572.002	19.13
572.197	19.15
572.392	19.37
572.587	19.42
572.782	19.52
572.977	19.39
573.172	19.34
573.367	19.28
573.562	19.44
573.757	19.48
573.952	19.65
574.147	19.69
574.342	19.8
574.537	19.59
574.732	19.72
574.927	19.74
575.121	19.89
575.316	19.92
575.511	20.01
575.706	20.12
575.901	20.13
576.096	20.12
576.29	20.24
576.485	20.15
576.68	20.36
576.875	20.48
577.069	20.53
577.264	20.7
577.459	21.01
577.654	21.21
577.848	21.13
578.043	21.43
578.238	21.47
578.432	21.5
578.627	21.72
578.821	21.96
579.016	21.96
579.21	22.04
579.405	22
579.6	22.03
579.794	21.96
579.989	22.26
580.183	22.12
580.378	22.24
580.572	22.23
580.766	22.38
580.961	22.4
581.155	22.18
581.35	22.23
581.544	22.38
581.738	22.4
581.933	22.38
582.127	22.1
582.321	22.18
582.516	22.31
582.71	22.32
582.904	22.26
583.099	22.13
583.293	22.4
583.487	22.53
583.681	22.48
583.875	22.33
584.07	22.46
584.264	22.71
584.458	22.95
584.652	22.88
584.846	23.25
585.04	23.44
585.234	23.65
585.428	23.71
585.623	23.66
585.817	23.52
586.011	23.79
586.205	24.08
586.399	24.24
586.593	24.29
586.787	24.4
586.981	24.29
587.174	24.5
587.368	24.46
587.562	24.47
587.756	24.76
587.95	25.04
588.144	24.99
588.338	24.98
588.532	24.91
588.725	24.78
588.919	24.81
589.113	24.97
589.307	24.96
589.501	25.07
589.694	25.1
589.888	25.09
590.082	25.11
590.275	25.21
590.469	25.39
590.663	25.47
590.856	25.51
591.05	25.85
591.244	25.83
591.437	25.8
591.631	25.77
591.824	25.96
592.018	26.03
592.212	25.91
592.405	25.92
592.599	25.91
592.792	25.84
592.986	25.9
593.179	25.84
593.372	25.95
593.566	25.74
593.759	26.21
593.953	26.41
594.146	26.27
594.339	26.57
594.533	26.75
594.726	26.86
594.92	27.23
595.113	27.47
595.306	27.43
595.499	27.61
595.693	27.98
595.886	27.7
596.079	27.53
596.272	27.7
596.466	27.68
596.659	27.47
596.852	27.47
597.045	27.25
597.238	27.2
597.431	27.21
597.624	27.24
597.818	27.02
598.011	27.03
598.204	27.14
598.397	27.04
598.59	27.14
598.783	27.26
598.976	27.05
599.169	27.18
599.362	27.17
599.555	27.2
599.748	27.07
599.941	27.45
600.134	27.69
600.326	27.77
600.519	28.13
600.712	28.11
600.905	28.25
601.098	28.62
601.291	28.62
601.483	28.67
601.676	28.71
601.869	28.63
602.062	28.64
602.255	28.69
602.447	28.62
602.64	28.63
602.833	28.99
603.025	29.16
603.218	29.13
603.411	29.23
603.603	29.33
603.796	29.51
603.989	29.56
604.181	29.5
604.374	29.46
604.566	29.57
604.759	29.42
604.951	29.18
605.144	29.02
605.336	29.07
605.529	29.09
605.721	28.98
605.914	28.78
606.106	28.84
606.299	28.84
606.491	28.77
606.683	28.76
606.876	28.86
607.068	29.03
607.26	29.11
607.453	29.14
607.645	29.36
607.837	29.45
608.03	29.59
608.222	29.61
608.414	29.62
608.606	29.55
608.799	29.6
608.991	29.56
609.183	29.55
609.375	29.57
609.567	29.41
609.759	29.29
609.952	29.39
610.144	29.6
610.336	29.67
610.528	29.74
610.72	29.96
610.912	29.99
611.104	30.35
611.296	30.41
611.488	30.5
611.68	30.64
611.872	30.71
612.064	30.79
612.256	30.8
612.448	30.82
612.64	30.87
612.832	31.03
613.023	31.15
613.215	30.67
613.407	30.8
613.599	31.12
613.791	31.31
613.983	31.2
614.174	31.41
614.366	31.33
614.558	31.42
614.75	31.27
614.941	31.38
615.133	31.45
615.325	31.75
615.516	31.82
615.708	31.78
615.9	31.78
616.091	31.78
616.283	31.76
616.475	31.65
616.666	31.71
616.858	31.96
617.049	31.65
617.241	31.92
617.432	31.87
617.624	31.74
617.815	31.82
618.007	31.78
618.198	32.1
618.39	32.09
618.581	32.19
618.773	32.32
618.964	32.38
619.155	32.55
619.347	32.4
619.538	32.66
619.729	32.66
619.921	32.45
620.112	32.58
620.303	32.4
620.494	32.48
620.686	32.49
620.877	32.52
621.068	32.73
621.259	32.7
621.451	32.44
621.642	32.31
621.833	32.5
622.024	32.59
622.215	32.41
622.406	32.6
622.597	32.46
622.788	32.41
622.98	32.56
623.171	32.39
623.362	32.62
623.553	33.11
623.744	33.2
623.935	33.13
624.126	33.03
624.317	33.26
624.508	33.31
624.698	33.45
624.889	33.83
625.08	33.62
625.271	33.73
625.462	33.45
625.653	33.2
625.844	33.12
626.034	33.23
626.225	33.55
626.416	33.5
626.607	33.49
626.798	33.59
626.988	33.64
627.179	33.92
627.37	33.98
627.56	34.12
627.751	34.16
627.942	34.38
628.132	34.22
628.323	34.34
628.514	34.39
628.704	34.29
628.895	34.16
629.085	34.1
629.276	34.02
629.466	33.87
629.657	33.87
629.847	33.77
630.038	33.64
630.228	33.77
630.419	33.73
630.609	33.65
630.8	33.85
630.99	33.95
631.181	33.84
631.371	33.71
631.561	33.74
631.752	34.08
631.942	34.31
632.132	34.34
632.323	34.41
632.513	34.31
632.703	34.53
632.893	34.6
633.084	34.62
633.274	34.75
633.464	34.96
633.654	35.1
633.844	34.8
634.034	34.9
634.225	35.06
634.415	35.19
634.605	35.08
634.795	35.13
634.985	35.17
635.175	35.18
635.365	35.12
635.555	34.99
635.745	34.86
635.935	35.35
636.125	35.19
636.315	35.05
636.505	35.23
636.695	35.24
636.885	35.29
637.075	35.27
637.265	35.49
637.455	35.66
637.644	35.84
637.834	36.08
638.024	35.93
638.214	35.86
638.404	36.06
638.593	36.05
638.783	36.27
638.973	36.32
639.163	36.28
639.352	36.29
639.542	36.03
639.732	35.73
639.921	36.04
640.111	36.01
640.301	36.15
640.49	36.03
640.68	35.9
640.87	35.94
641.059	35.58
641.249	35.55
641.438	35.54
641.628	35.8
641.817	36.22
642.007	36.12
642.196	36.42
642.386	36.28
642.575	36.59
642.764	36.72
642.954	36.63
643.143	37.14
643.333	37.45
643.522	37.46
643.711	37.3
643.901	37.4
644.09	37.11
644.279	37.21
644.469	37.76
644.658	37.66
644.847	37.29
645.036	37.4
645.226	37.65
645.415	37.34
645.604	37.31
645.793	37.54
645.982	36.88
646.171	36.93
646.361	36.48
646.55	36.35
646.739	36.34
646.928	36.83
647.117	36.58
647.306	36.54
647.495	36.92
647.684	36.94
647.873	37.04
648.062	37.65
648.251	37.74
648.44	37.97
648.629	38
648.818	37.95
649.007	37.81
649.196	38.28
649.384	38.09
649.573	38.06
649.762	38.33
649.951	38.27
650.14	38.14
650.328	38.07
650.517	38.06
650.706	37.81
650.895	38.28
651.083	38.67
651.272	38.5
651.461	38.68
651.65	38.89
651.838	38.44
652.027	38.5
652.216	38.29
652.404	38.31
652.593	38.36
652.781	38.74
652.97	38.54
653.158	37.97
653.347	37.99
653.535	37.59
653.724	37.49
653.912	37.8
654.101	37.82
654.289	37.97
654.478	38.13
654.666	37.98
654.855	37.97
655.043	38.21
655.231	38.42
655.42	38.46
655.608	38.77
655.796	38.71
655.985	38.4
656.173	38.16
656.361	38.82
656.55	39.13
656.738	39.47
656.926	39.64
657.114	39.35
657.302	39.69
657.491	39.75
657.679	39.73
657.867	39.54
658.055	39.93
658.243	40.26
658.431	39.96
658.619	40
658.807	40.02
658.996	39.76
659.184	39.71
659.372	39.47
659.56	39.57
659.748	39.99
659.936	40.53
660.124	40.67
660.311	40.56
660.499	40.53
660.687	40.48
660.875	40.26
661.063	40.69
661.251	40.57
661.439	40.81
661.627	41.01
661.814	40.32
662.002	40.02
662.19	39.79
662.378	40.22
662.565	40.32
662.753	40.35
662.941	40.57
663.129	40.09
663.316	40.29
663.504	40.04
663.692	40.03
663.879	40.55
664.067	40.34
664.254	40.62
664.442	40.4
664.63	40.82
664.817	41.16
665.005	41.07
665.192	41.56
665.38	42.11
665.567	42.28
665.755	42.08
665.942	42.27
666.13	42.71
666.317	42.66
666.504	42.47
666.692	42.18
666.879	41.9
667.067	42.52
667.254	42.17
667.441	41.85
667.629	42.12
667.816	42.05
668.003	42.21
668.19	42.09
668.378	42.11
668.565	42.35
668.752	41.84
668.939	42.21
669.127	41.73
669.314	41.99
669.501	42.06
669.688	41.87
669.875	42.27
670.062	42.01
670.249	42.31
670.436	42.34
670.623	42.22
670.81	42.82
670.997	42.91
671.184	43.03
671.371	43.3
671.558	43.49
671.745	43.76
671.932	43.46
672.119	43.59
672.306	43.35
672.493	43.84
672.68	44.12
672.867	43.55
673.054	43.4
673.24	43.61
673.427	43.29
673.614	43.43
673.801	43.45
673.988	43.5
674.174	43.4
674.361	43.53
674.548	43.23
674.734	43.04
674.921	43.94
675.108	43.67
675.294	43.54
675.481	43.51
675.668	43.21
675.854	42.69
676.041	42.7
676.227	43.02
676.414	42.66
676.601	42.42
676.787	42.69
676.974	42.13
677.16	42.11
677.347	42.17
677.533	42.54
677.719	42.5
677.906	43.01
678.092	43.35
678.279	43.21
678.465	43.2
678.651	43.64
678.838	43.36
679.024	43.63
679.21	43.64
679.397	43.77
679.583	43.38
679.769	43.68
679.955	43.55
680.142	43.22
680.328	43.16
680.514	43.62
680.7	43.38
680.886	43.62
681.073	43.66
681.259	44.1
681.445	44.07
681.631	44.46
681.817	44.53
682.003	44.49
682.189	44.74
682.375	44.91
682.561	44.91
682.747	45.11
682.933	45.19
683.119	45.14
683.305	44.59
683.491	44.26
683.677	44.37
683.863	44.11
684.049	44.42
684.235	44.45
684.42	44.37
684.606	43.91
684.792	44.18
684.978	44.6
685.164	44.91
685.349	45.08
685.535	45.49
685.721	45.18
685.907	45.39
686.092	45.46
686.278	45.56
686.464	45.78
686.649	46.43
686.835	45.83
687.021	45.46
687.206	45.34
687.392	45.46
687.577	45.37
687.763	45.64
687.948	45.92
688.134	45.56
688.319	45.85
688.505	45.76
688.69	45.4
688.876	45.81
689.061	45.92
689.247	46.04
689.432	46.23
689.618	46.18
689.803	45.96
689.988	45.95
690.174	46.47
690.359	46.31
690.544	46.47
690.73	46.66
690.915	46.37
691.1	45.78
691.285	45.51
691.471	45.44
691.656	45.68
691.841	45.96
692.026	45.96
692.211	46.17
692.396	46.07
692.582	46.06
692.767	45.67
692.952	46.07
693.137	46.73
693.322	46.9
693.507	46.98
693.692	47
693.877	47.19
694.062	46.92
694.247	46.12
694.432	45.81
694.617	45.66
694.802	45.92
694.987	45.53
695.172	45.5
695.357	45.57
695.541	45.29
695.726	45.18
695.911	44.89
696.096	44.99
696.281	45.57
696.466	46.15
696.65	45.95
696.835	46.81
697.02	46.95
697.204	47.47
697.389	47.53
697.574	47.62
697.759	47.66
697.943	47.65
698.128	47.93
698.312	47.8
698.497	47.74
698.682	48.26
698.866	47.71
699.051	47.87
699.235	47.71
699.42	47.67
699.604	47.59
699.789	47.91
699.973	48.1
700.158	47.7
700.342	47.72
700.527	47.91
700.711	47.6
700.895	47.73
701.08	47.59
701.264	47.2
701.448	46.98
701.633	47.15
701.817	46.98
702.001	46.46
702.186	46.54
702.37	46.61
702.554	45.99
702.738	45.57
702.923	45.97
703.107	45.69
703.291	45.57
703.475	46.05
703.659	45.95
703.843	45.97
704.027	46.5
704.212	46.85
704.396	46.28
704.58	46.79
704.764	47.61
704.948	46.97
705.132	47.47
705.316	47.69
705.5	47
705.684	47.27
705.868	47.14
706.052	46.93
706.235	46.93
706.419	47.31
706.603	47.41
706.787	47
706.971	46.97
707.155	46.96
707.339	46.95
707.522	47.36
707.706	47.42
707.89	47.45
708.074	47.46
708.257	47.45
708.441	47.93
708.625	47.77
708.808	48.09
708.992	48.14
709.176	48.31
709.359	48.7
709.543	48.79
709.727	48.2
709.91	48.4
710.094	48.85
710.277	49.03
710.461	48.15
710.644	48.49
710.828	48.31
711.011	48.65
711.195	48.42
711.378	48.73
711.562	48.92
711.745	49.62
711.928	49.47
712.112	48.8
712.295	48.37
712.478	48.76
712.662	48.68
712.845	48.67
713.028	47.94
713.212	47.73
713.395	47.32
713.578	47.11
713.761	47.14
713.945	47.26
714.128	47.35
714.311	48.47
714.494	48.54
714.677	48.7
714.86	48.96
715.043	49.19
715.227	49.52
715.41	49.31
715.593	49.94
715.776	49.98
715.959	49.7
716.142	50.62
716.325	49.7
716.508	50.04
716.691	50.02
716.874	49.84
717.057	50.03
717.239	50.16
717.422	50.07
717.605	49.4
717.788	48.83
717.971	49.03
718.154	48.56
718.337	48.72
718.519	48.86
718.702	48.63
718.885	48.62
719.068	49.2
719.25	49.05
719.433	49.45
719.616	50
719.798	50.05
719.981	50.31
720.164	49.78
720.346	49.63
720.529	49.1
720.712	48.82
720.894	48.7
721.077	48.39
721.259	49.06
721.442	48.93
721.624	48.55
721.807	48.66
721.989	47.61
722.172	48
722.354	48.55
722.537	48.42
722.719	48.46
722.901	48.34
723.084	47.77
723.266	47.5
723.448	47.05
723.631	47.41
723.813	48.18
723.995	48.57
724.178	49.11
724.36	48.34
724.542	48.83
724.724	49.36
724.907	49.25
725.089	49.54
725.271	49.41
725.453	50.1
725.635	49.42
725.817	49.5
725.999	51.14
726.181	50.47
726.364	50.82
726.546	50.31
726.728	50.38
726.91	50.95
727.092	51.3
727.274	51.09
727.456	51.57
727.638	52.47
727.819	52.57
728.001	51.01
728.183	51.29
728.365	50.78
728.547	51.16
728.729	51.18
728.911	51.12
729.093	51.37
729.274	50.63
729.456	50.23
729.638	50.1
729.82	49.95
730.001	50.96
730.183	50.49
730.365	51.06
730.546	51.72
730.728	51.36
730.91	51.26
731.091	50.99
731.273	51.87
731.455	51.89
731.636	51.03
731.818	51.08
731.999	50.27
732.181	50.99
732.362	50.68
732.544	50.46
732.725	50.67
732.907	50.86
733.088	50.84
733.27	50.87
733.451	50.15
733.633	51.34
733.814	51.11
733.995	51.81
734.177	51.69
734.358	51.54
734.539	51.53
734.721	51.72
734.902	51.85
735.083	52.19
735.264	52.43
735.446	53.43
735.627	52.85
735.808	52.3
735.989	53.25
736.17	52.99
736.351	53.63
736.533	53.55
736.714	52.32
736.895	52.31
737.076	52.18
737.257	52.15
737.438	51.44
737.619	51.19
737.8	52.05
737.981	50.95
738.162	51
738.343	50.59
738.524	51.07
738.705	51.84
738.886	51.78
739.067	52.31
739.247	52.32
739.428	52.44
739.609	52.79
739.79	51.83
739.971	51.9
740.151	52.44
740.332	52.46
740.513	51.97
740.694	51.48
740.874	51.25
741.055	50.97
741.236	50.64
741.417	50.93
741.597	50.46
741.778	50.83
741.958	50.07
742.139	49.87
742.32	49.79
742.5	49.7
742.681	49.58
742.861	50.15
743.042	49.62
743.222	49.47
743.403	48.8
743.583	49.13
743.764	49.08
743.944	50.09
744.124	50.1
744.305	51.01
744.485	51.43
744.666	51.8
744.846	51.42
745.026	51.38
745.207	51.29
745.387	51.8
745.567	52.12
745.747	53.11
745.928	52.45
746.108	52.42
746.288	51.68
746.468	50.33
746.648	50.8
746.829	49.95
747.009	50.49
747.189	50.84
747.369	51.54
747.549	51.01
747.729	49.98
747.909	49.58
748.089	48.38
748.269	48.64
748.449	49.09
748.629	49.93
748.809	50.77
748.989	50.23
749.169	50.25
749.349	50.37
749.529	50.06
749.709	50.03
749.889	50.92
750.068	51.84
750.248	52.61
750.428	53.7
750.608	53.53
750.788	52.17
750.967	51.82
751.147	51.84
751.327	51.62
751.507	52.06
751.686	53.11
751.866	52.98
752.046	53.15
752.225	51.81
752.405	52.61
752.585	51.77
752.764	53.34
752.944	53.72
753.123	53.8
753.303	53.33
753.482	54.26
753.662	53.51
753.841	53.75
754.021	53.69
754.2	54.35
754.38	52.47
754.559	52.41
754.739	52.43
754.918	52.18
755.097	52.28
755.277	51.94
755.456	51.6
755.635	51.9
755.815	51.5
755.994	50.44
756.173	50.39
756.352	50.75
756.532	50.77
756.711	50.16
756.89	50.62
757.069	50.45
757.248	50.11
757.427	50.03
757.607	49.64
757.786	49.56
757.965	50.2
758.144	50.31
758.323	50.77
758.502	51.01
758.681	50.8
758.86	49.8
759.039	50
759.218	50.45
759.397	49.73
759.576	50.06
759.755	49.86
759.934	50.44
760.113	50.98
760.291	50.17
760.47	50.2
760.649	50.34
760.828	51.88
761.007	51.62
761.186	52.49
761.364	53.22
761.543	53.56
761.722	53.6
761.901	53.36
762.079	53.33
762.258	54.67
762.437	54.67
762.615	54.95
762.794	55
762.972	55.44
763.151	54.86
763.33	54.47
763.508	54.19
763.687	54.48
763.865	54.84
764.044	54.71
764.222	53.59
764.401	52.66
764.579	53.14
764.758	52.56
764.936	52.28
765.114	53.1
765.293	53.37
765.471	53.58
765.65	52.97
765.828	52.63
766.006	52.18
766.184	51.61
766.363	52.65
766.541	53.04
766.719	53.46
766.898	53
767.076	52.81
767.254	52.88
767.432	52.95
767.61	53.56
767.788	54.27
767.967	55.06
768.145	56.25
768.323	55.34
768.501	55.5
768.679	55.77
768.857	55.17
769.035	53.96
769.213	54.13
769.391	52.73
769.569	54.19
769.747	53.71
769.925	53.06
770.103	53.99
770.281	54.96
770.459	54.1
770.636	53.43
770.814	55.26
770.992	55.37
771.17	54.26
771.348	55.82
771.525	54.86
771.703	54.78
771.881	56.56
772.059	55.63
772.236	54.14
772.414	53.94
772.592	53.76
772.769	52.7
772.947	51.85
773.125	52.53
773.302	51.68
773.48	50.64
773.657	50.84
773.835	48.86
774.013	48.14
774.19	50.56
774.368	48.95
774.545	49.32
774.723	49.6
774.9	50.4
775.077	48.87
775.255	49.48
775.432	49.6
775.61	48.19
775.787	49.5
775.964	51.7
776.142	51.39
776.319	54.02
776.496	55.52
776.674	56.76
776.851	57.84
777.028	58.64
777.205	58.05
777.382	58.87
777.56	59.77
777.737	61.29
777.914	59.43
778.091	59.18
778.268	56.02
778.445	52.98
778.622	52.63
778.8	53.21
778.977	54.07
779.154	54.58
779.331	53.18
779.508	53.02
779.685	50.1
779.862	50.4
780.038	50.5
780.215	54.15
780.392	54.85
780.569	55.98
780.746	56.81
780.923	55.81
781.1	54.81
781.277	55.92
781.453	55.61
781.63	55.84
781.807	57.06
781.984	56.96
782.16	54.1
782.337	56.15
782.514	54.91
782.691	53.66
782.867	53.37
783.044	55.09
783.221	56.53
783.397	57.73
783.574	56.04
783.75	55.23
783.927	55.21
784.103	56.57
784.28	54.22
784.456	53.69
784.633	53.37
784.809	53.91
784.986	53.54
785.162	51.05
785.339	49.58
785.515	52.16
785.692	53.01
785.868	52.59
786.044	51.46
786.221	51.75
786.397	51.65
786.573	51.21
786.749	53.69
786.926	52.7
787.102	54.93
787.278	54.82
787.454	54.35
787.631	53.18
787.807	52.96
787.983	52.79
788.159	54.44
788.335	54.45
788.511	54.41
788.687	53.3
788.863	54.21
789.039	52.86
789.216	52.73
789.392	51.94
789.568	51.26
789.744	50.45
789.919	50.82
790.095	50.53
790.271	51.69
790.447	52.58
790.623	51.89
790.799	52.89
790.975	52.03
791.151	50.95
791.327	52.87
791.502	53.88
791.678	55.4
791.854	56.24
792.03	54.76
792.205	54.45
792.381	54.05
792.557	53.5
792.733	53.41
792.908	53.45
793.084	55.37
793.259	55.51
793.435	55.7
793.611	56.26
793.786	55.11
793.962	54.94
794.137	52.31
794.313	51.26
794.488	53.39
794.664	51.73
794.839	53.3
795.015	53.11
795.19	50.84
795.366	52.71
795.541	50.87
795.716	51.35
795.892	52.22
796.067	53.62
796.242	53.35
796.418	51.43
796.593	51.93
796.768	51.84
796.944	52.2
797.119	54.94
797.294	54.23
797.469	55.08
797.644	56.68
797.82	57.65
797.995	57.61
798.17	56.83
798.345	58.07
798.52	57.92
798.695	57.63
798.87	56.6
799.045	54.78
799.22	53.68
799.395	52.35
799.57	50.21
799.745	50.64
799.92	51.85
800.095	53.99
800.27	53.44
800.445	53.01
800.62	53.3
800.795	54.16
800.97	54.94
801.145	55.31
801.319	56.58
801.494	57
801.669	57.51
801.844	57.37
802.018	57.34
802.193	58.09
802.368	59.11
802.543	58.52
802.717	58.26
802.892	56.57
803.067	54.2
803.241	56.09
803.416	55.16
803.59	54.37
803.765	55.09
803.94	53.41
804.114	52.04
804.289	52.14
804.463	52.71
804.638	51.97
804.812	52.53
804.986	54.75
805.161	54.27
805.335	54.17
805.51	54.04
805.684	54.05
805.858	53.42
806.033	54.96
806.207	53.71
806.381	52.64
806.556	55.2
806.73	56.13
806.904	56.31
807.078	54.75
807.253	55.87
807.427	54.6
807.601	53.19
807.775	54.58
807.949	54.46
808.123	53.9
808.298	53.09
808.472	51.5
808.646	51.91
808.82	53.09
808.994	53.94
809.168	56.07
809.342	55.58
809.516	56.33
809.69	56.74
809.864	57.09
810.038	58.54
810.212	60.26
810.385	59.32
810.559	57.5
810.733	55.94
810.907	57.57
811.081	58.17
811.255	58.72
811.428	58.67
811.602	56.63
811.776	55.83
811.95	50.86
812.123	49.48
812.297	49.25
812.471	49.03
812.644	49.36
812.818	48.89
812.992	47.55
813.165	49.76
813.339	48.2
813.512	48.22
813.686	48.35
813.86	55.8
814.033	58.8
814.207	58.53
814.38	58.82
814.554	58.33
814.727	57.05
814.9	53.82
815.074	49.72
815.247	50.08
815.421	51.34
815.594	49.88
815.767	49.29
815.941	49.05
816.114	50.97
816.287	51.27
816.46	51.46
816.634	50.29
816.807	52.12
816.98	56.22
817.153	56.43
817.327	57.39
817.5	57.58
817.673	56.19
817.846	55.47
818.019	56.43
818.192	57.53
818.365	57.05
818.538	59.25
818.711	57.85
818.884	53.78
819.057	54.38
819.23	54.43
819.403	53.81
819.576	56.87
819.749	55.86
819.922	54.38
820.095	56.86
820.268	56.39
820.441	56.44
820.614	57.51
820.786	58.66
820.959	59.2
821.132	58.2
821.305	59.38
821.477	57.03
821.65	57.62
821.823	57.41
821.996	55.04
822.168	55.82
822.341	55.61
822.514	55.32
822.686	55.79
822.859	55.16
823.031	55.59
823.204	55.25
823.376	55.51
823.549	54.96
823.722	54.99
823.894	55.48
824.067	55.33
824.239	55.53
824.411	55.27
824.584	55.14
824.756	55.21
824.929	55.09
825.101	55.81
825.273	56.08
825.446	56.21
825.618	55.97
825.79	56.07
825.963	55.76
826.135	55.97
826.307	56.27
826.479	56.56
826.652	56.49
826.824	56.04
826.996	55.43
827.168	55.42
827.34	56.11
827.512	55.59
827.684	55.55
827.856	55.26
828.029	54.77
828.201	54.47
828.373	53.71
828.545	54.95
828.717	55.09
828.889	55.4
829.061	54.65
829.232	54.95
829.404	56.31
829.576	57.5
829.748	58.36
829.92	59.4
830.092	59.82
830.264	60.63
830.436	59.3
830.607	59.33
830.779	58.86
830.951	58.79
831.123	58.88
831.294	58.75
831.466	56.78
831.638	56.77
831.809	55.83
831.981	59.24
832.153	58.3
832.324	59.73
832.496	59.82
832.667	60.48
832.839	62.65
833.011	61.91
833.182	60.45
833.354	60.32
833.525	60.92
833.697	60.32
833.868	58.06
834.039	57.3
834.211	55.68
834.382	55.88
834.554	54.86
834.725	53.36
834.896	53
835.068	53.69
835.239	53.95
835.41	52.3
835.581	51.24
835.753	50.03
835.924	49.29
836.095	49.6
836.266	48.38
836.438	47.64
836.609	48.78
836.78	47.2
836.951	47.67
837.122	46.92
837.293	46.55
837.464	47.77
837.635	49.25
837.806	51.12
837.977	50.48
838.148	53.54
838.319	54.82
838.49	53.07
838.661	56.32
838.832	54.47
839.003	57.5
839.174	59.47
839.345	58.3
839.516	57.09
839.687	56.88
839.857	57.68
840.028	54.39
840.199	53.94
840.37	54.04
840.54	51.8
840.711	51.59
840.882	47.48
841.053	45.59
841.223	43.74
841.394	44.7
841.564	47.36
841.735	50.89
841.906	51.73
842.076	52.84
842.247	52.24
842.417	49.9
842.588	52.73
842.758	53.07
842.929	55.4
843.099	60.36
843.27	53.33
843.44	48.02
843.611	42.78
843.781	38.32
843.951	38.08
844.122	41.99
844.292	44.83
844.462	45.84
844.633	49.46
844.803	54.31
844.973	50.44
845.144	57.17
845.314	59.4
845.484	60.26
845.654	63.42
845.824	63.92
845.995	56.01
846.165	58.76
846.335	53.44
846.505	52.21
846.675	41.92
846.845	43.68
847.015	44.79
847.185	44.21
847.355	43.68
847.525	45.58
847.695	43.88
847.865	48.32
848.035	46.08
848.205	51.9
848.375	48.45
848.545	58.42
848.715	60.11
848.884	53.07
849.054	62.36
849.224	58.82
849.394	55.97
849.564	58.18
849.733	57.64
849.903	54.03
850.073	47.94
850.243	57.88
850.412	58.19
850.582	50.48
850.752	58.52
850.921	51.07
851.091	64.41
851.26	64.85
851.43	61.54
851.599	61.53
851.769	60.37
851.939	64.72
852.108	61.4
852.278	46.33
852.447	47.68
852.616	49.83
852.786	53.01
852.955	37.68
853.125	26.67
853.294	32.34
853.463	33.3
853.633	44.04
853.802	54.74
853.971	48.57
854.141	81.19
854.31	104.81
854.479	85.46
854.648	84.96
854.818	99.83
854.987	103.47
855.156	97.71
855.325	95.11
855.494	99.36
855.663	99.45
855.832	92.95
856.001	77.94
856.171	69.82
856.34	66.81
856.509	63.02
856.678	56.89
856.847	55.14
857.016	47.91
857.185	43.19
857.353	33.02
857.522	27.12
857.691	30.11
857.86	34.25
858.029	32.81
858.198	32.19
858.367	27.03
858.535	30.6
858.704	30.17
858.873	41.07
859.042	42.95
859.21	42.19
859.379	48.5
859.548	50.14
859.717	49.98
859.885	54.29
860.054	61.93
860.222	63.53
860.391	60.8
860.56	59.79
860.728	55.18
860.897	53.89
861.065	50.25
861.234	38.1
861.402	37.74
861.571	36.76
861.739	30.85
861.908	29.31
862.076	23.67
862.244	31.15
862.413	35.59
862.581	31.79
862.749	32.69
862.918	48.08
863.086	51.1
863.254	55.91
863.423	49.91
863.591	68.46
863.759	62.34
863.927	75.4
864.096	67.03
864.264	78.14
864.432	84.78
864.6	78.54
864.768	64.72
864.936	59.99
865.104	60.98
865.272	64.73
865.44	53.52
865.608	58.94
865.776	57.83
865.944	55.9
866.112	38.26
866.28	31.4
866.448	35.99
866.616	41.3
866.784	48.3
866.952	43.05
867.12	44.49
867.288	44
867.455	43.12
867.623	42.75
867.791	45.52
867.959	44.9
868.127	48.14
868.294	44.48
868.462	43.33
868.63	40.95
868.797	42.06
868.965	46.92
869.133	47.43
869.3	40.58
869.468	41.19
869.636	37.65
869.803	38.87
869.971	39
870.138	41.69
870.306	47.34
870.473	46.79
870.641	46.09
870.808	38.76
870.975	43.05
871.143	50.02
871.31	47.52
871.478	51.46
871.645	59.2
871.812	55.24
871.98	53.27
872.147	44.44
872.314	43.86
872.482	50.04
872.649	49.77
872.816	44.52
872.983	39.71
873.15	41.42
873.318	41.83
873.485	36.22
873.652	29.91
873.819	35.5
873.986	43.57
874.153	49.9
874.32	46.28
874.487	42.24
874.654	40.65
874.821	45.97
874.988	45.34
875.155	46.67
875.322	42.99
875.489	49.6
875.656	53.31
875.823	49.93
875.99	44.41
876.157	37.12
876.324	37.91
876.49	36.96
876.657	35.66
876.824	28.95
876.991	25.06
877.157	22.67
877.324	11.13
877.491	9.56
877.658	13.55
877.824	28.55
877.991	34.64
878.157	46.14
878.324	50
878.491	54.14
878.657	69.27
878.824	75.85
878.99	85.6
879.157	88.15
879.323	86.8
879.49	83.87
879.656	78.94
879.823	88.95
879.989	95.94
880.156	98.95
880.322	92.67
880.488	88.17
880.655	79.79
880.821	73.4
880.987	76.51
881.154	85.18
881.32	83.61
881.486	80.11
881.652	76.25
881.819	70.28
881.985	66.8
882.151	67.42
882.317	65.21
882.483	67
882.649	66.96
882.816	64.11
882.982	61.06
883.148	59.33
883.314	59.07
883.48	57.14
883.646	56.69
883.812	58.27
883.978	56.53
884.144	55.43
884.31	54.24
884.476	54.48
884.642	53.98
884.807	52.88
884.973	52.63
885.139	52.77
885.305	53.6
885.471	54.8
885.637	52.39
885.802	51.95
885.968	53.95
886.134	57.04
886.3	56.96
886.465	57.33
886.631	60.3
886.797	62.16
886.962	61.26
887.128	60.36
887.293	59.2
887.459	58.98
887.625	63.2
887.79	62.34
887.956	51.49
888.121	47.85
888.287	47.59
888.452	41.62
888.618	34.11
888.783	35.15
