Data from LC_246_Reflection_2.txt Node
Date: Thu Nov 19 22:49:40 EST 2015
User: robert
Spectrometer: USB4E03001
Autoset integration time: false
Trigger mode: 4
Integration Time (sec): 1.000000E-1
Scans to average: 15
Electric dark correction enabled: true
Nonlinearity correction enabled: false
Boxcar width: 5
Stray light correction enabled: false
XAxis mode: Wavelengths
Stop averaging: false
Number of Pixels in Spectrum: 3648
>>>>>Begin Spectral Data<<<<<
177.566	-190.88
177.785	-77.98
178.005	-39.82
178.225	-41.81
178.445	26.58
178.665	28.92
178.885	66.18
179.105	362.5
179.324	208.98
179.544	242.02
179.764	200.41
179.984	218.94
180.204	372.11
180.423	315.73
180.643	188.21
180.863	108.32
181.083	171.27
181.302	95.08
181.522	91.85
181.742	108.46
181.961	134.24
182.181	158.85
182.401	253.44
182.621	221.77
182.84	350.98
183.06	306.96
183.279	213.18
183.499	126.69
183.719	482.51
183.938	1066.67
184.158	-236.74
184.377	-75.18
184.597	-63.01
184.816	2260.38
185.036	83.63
185.256	-926.67
185.475	20.06
185.695	27.99
185.914	41.89
186.134	-3.13
186.353	46.43
186.572	10.88
186.792	17.31
187.011	-301.2
187.231	-21.47
187.45	-222.8
187.67	-2.11
187.889	0.06
188.108	6.64
188.328	-5.39
188.547	-173.93
188.766	-350.63
188.986	-656.51
189.205	9758.82
189.424	381.62
189.644	286.55
189.863	147.69
190.082	118.99
190.302	157.43
190.521	163.39
190.74	189.1
190.959	177.25
191.178	161.76
191.398	145.28
191.617	118.29
191.836	365.21
192.055	148.99
192.274	272.49
192.494	198.76
192.713	105.65
192.932	83.96
193.151	85.19
193.37	77.26
193.589	98.52
193.808	101.36
194.027	95.51
194.246	79.31
194.465	95.72
194.685	82.86
194.904	85.89
195.123	73.67
195.342	64.12
195.561	32.23
195.78	59.21
195.999	45.24
196.218	22.83
196.436	32.29
196.655	10.18
196.874	9.41
197.093	-8.83
197.312	-10.68
197.531	43.89
197.75	128.84
197.969	184.38
198.188	-355.31
198.407	-106.38
198.625	-294.08
198.844	-227.87
199.063	-2125.42
199.282	-209.68
199.501	-278.82
199.719	-420.44
199.938	-105.3
200.157	-293.69
200.376	-312.78
200.594	2068.75
200.813	1557.4
201.032	924.78
201.251	714.9
201.469	293.42
201.688	187.02
201.907	348.75
202.125	1136.79
202.344	341.71
202.563	332.74
202.781	218.83
203	105.71
203.218	68.52
203.437	-3.5
203.656	59.35
203.874	185.32
204.093	188.72
204.311	34.84
204.53	32.3
204.748	-3.73
204.967	53.78
205.185	83.91
205.404	64.89
205.622	111.78
205.841	112.34
206.059	141.74
206.278	72.31
206.496	116.81
206.715	147.35
206.933	196.09
207.151	208.48
207.37	237.28
207.588	196.98
207.806	247.03
208.025	244.25
208.243	505.46
208.461	543.9
208.68	427.01
208.898	293.28
209.116	210.71
209.335	261.22
209.553	387.8
209.771	-4268.07
209.989	868.22
210.208	-513.63
210.426	-421.04
210.644	215.52
210.862	125.33
211.081	141.79
211.299	104.46
211.517	144.5
211.735	135.9
211.953	113.18
212.171	103.84
212.39	82.62
212.608	76.06
212.826	107.6
213.044	121.79
213.262	135.17
213.48	92.11
213.698	95.86
213.916	101.4
214.134	50.56
214.352	137.46
214.57	229.56
214.788	627.46
215.006	401.51
215.224	255.76
215.442	454.46
215.66	157.65
215.878	393.74
216.096	401.17
216.314	372.1
216.532	694.24
216.75	873.99
216.968	-94.62
217.185	-6.99
217.403	-494.7
217.621	-781.53
217.839	65.1
218.057	95.41
218.275	72.41
218.492	74.51
218.71	69.16
218.928	26.29
219.146	41.88
219.363	30.23
219.581	27.57
219.799	4.89
220.017	25.11
220.234	42.36
220.452	54.35
220.67	46.19
220.887	59.09
221.105	58.4
221.323	69.72
221.54	50.59
221.758	44.14
221.976	37.58
222.193	45.33
222.411	30.72
222.629	32.07
222.846	10.55
223.064	22.9
223.281	20.39
223.499	4.8
223.716	8.56
223.934	-5.07
224.151	5.54
224.369	13.03
224.586	7.94
224.804	17.55
225.021	22.15
225.239	34.22
225.456	32.68
225.674	26.23
225.891	41.02
226.108	44.22
226.326	60.56
226.543	60.91
226.76	59.4
226.978	53.12
227.195	43.04
227.413	28.14
227.63	19.3
227.847	15.04
228.064	14.23
228.282	11.79
228.499	9.41
228.716	10.77
228.934	10.68
229.151	11.64
229.368	12.77
229.585	13.63
229.802	13.38
230.02	13.41
230.237	13.46
230.454	12.78
230.671	11.81
230.888	14.96
231.105	12.26
231.323	13.41
231.54	11.79
231.757	7.64
231.974	11.82
232.191	14.05
232.408	15.85
232.625	20.57
232.842	24.91
233.059	31.63
233.276	30.47
233.493	31.97
233.71	29.6
233.927	33.24
234.144	35.23
234.361	30.74
234.578	30.04
234.795	28.88
235.012	26.51
235.229	21.43
235.446	18.98
235.663	14.5
235.879	14.47
236.096	18.82
236.313	14.59
236.53	17.79
236.747	10.86
236.964	9.84
237.181	9.37
237.397	6.96
237.614	7.26
237.831	4.53
238.048	7.9
238.264	8.33
238.481	8.15
238.698	11.06
238.915	9.05
239.131	13.33
239.348	18.06
239.565	21.45
239.781	22.63
239.998	24.21
240.215	22.42
240.431	19.61
240.648	20.01
240.865	18.24
241.081	15.89
241.298	15.28
241.514	14.8
241.731	13.65
241.947	14
242.164	12.29
242.38	13.91
242.597	14.84
242.814	15.86
243.03	15.9
243.246	16.63
243.463	15.5
243.679	14.48
243.896	16.12
244.112	15.47
244.329	13.73
244.545	15.15
244.762	13.51
244.978	10.91
245.194	11.58
245.411	11.74
245.627	10.39
245.843	11.6
246.06	12.86
246.276	11.73
246.492	12.3
246.709	12.69
246.925	12.59
247.141	12.55
247.357	13.27
247.574	12.96
247.79	12.92
248.006	14
248.222	14.17
248.439	13.88
248.655	13.97
248.871	14.21
249.087	13.72
249.303	13.29
249.519	13.04
249.736	13.35
249.952	13.24
250.168	11.6
250.384	8.9
250.6	9.4
250.816	9.73
251.032	10.07
251.248	9.35
251.464	9.07
251.68	7.75
251.896	7.89
252.112	7.59
252.328	8.12
252.544	9.21
252.76	11.83
252.976	13.5
253.192	12.28
253.408	11.78
253.624	12.43
253.84	11.79
254.056	13.27
254.272	15.05
254.487	14.94
254.703	14.74
254.919	15.27
255.135	12.17
255.351	8.49
255.567	12.63
255.782	11.72
255.998	11.44
256.214	14.23
256.43	13.95
256.646	13.41
256.861	15.2
257.077	13.94
257.293	13.58
257.508	16.07
257.724	15.83
257.94	14.23
258.155	15.58
258.371	14.74
258.587	13.88
258.802	13.48
259.018	12.81
259.234	12.26
259.449	12.63
259.665	11.9
259.88	10.62
260.096	10.84
260.312	10.03
260.527	9.74
260.743	9.56
260.958	9.9
261.174	10.55
261.389	10.52
261.605	11.09
261.82	10.81
262.036	11.35
262.251	11.38
262.466	12.1
262.682	13.68
262.897	13.67
263.113	12.48
263.328	12.6
263.543	11.48
263.759	11.34
263.974	10.73
264.189	12.77
264.405	11.82
264.62	11.84
264.835	11.13
265.051	10.59
265.266	10.45
265.481	12.26
265.696	10.39
265.912	10.55
266.127	11.9
266.342	11.37
266.557	9.63
266.773	10.64
266.988	11.81
267.203	11.35
267.418	11.7
267.633	10.71
267.848	10.17
268.064	11.26
268.279	10.84
268.494	9.64
268.709	8.68
268.924	8.27
269.139	8.45
269.354	6.89
269.569	6.27
269.784	6.1
269.999	6.84
270.214	7.24
270.429	7.17
270.644	7.16
270.859	7.32
271.074	7.17
271.289	7.68
271.504	7.78
271.719	8.73
271.934	8.73
272.149	8.25
272.363	8.14
272.578	8.12
272.793	7.96
273.008	7.81
273.223	8.49
273.438	9.67
273.653	9.48
273.867	8.41
274.082	8.09
274.297	8.82
274.512	8.95
274.726	9.82
274.941	9.64
275.156	9.15
275.371	10.16
275.585	9.74
275.8	8.91
276.015	8.42
276.229	10.33
276.444	11.6
276.659	11.58
276.873	11.87
277.088	11.5
277.302	11.8
277.517	11.9
277.732	12.27
277.946	11.84
278.161	11.14
278.375	12.3
278.59	10.96
278.804	9.08
279.019	8.89
279.233	8.67
279.448	8.3
279.662	8.77
279.877	8.7
280.091	7.84
280.306	8.03
280.52	8.11
280.735	7.6
280.949	7.29
281.163	7.82
281.378	8.15
281.592	8.77
281.806	9.19
282.021	10
282.235	9.53
282.449	9.74
282.664	9.24
282.878	9.76
283.092	9.78
283.307	10.94
283.521	10.93
283.735	10.55
283.949	9.61
284.164	8.69
284.378	7.7
284.592	7.81
284.806	8.08
285.02	8.38
285.234	8.64
285.449	8.73
285.663	8.62
285.877	9.43
286.091	8.99
286.305	9.52
286.519	10.55
286.733	10.52
286.947	10.98
287.161	10.26
287.375	10.41
287.589	10.33
287.803	10.27
288.017	10.09
288.231	9.81
288.445	9.99
288.659	10.17
288.873	9.1
289.087	7.87
289.301	8.52
289.515	8.77
289.729	8.4
289.943	8.98
290.157	9.88
290.371	10.1
290.584	9.47
290.798	9.37
291.012	9.31
291.226	9.4
291.44	11.11
291.654	9.85
291.867	9.89
292.081	10.27
292.295	9.64
292.509	8.4
292.722	8.78
292.936	8.57
293.15	8.48
293.364	9.43
293.577	10.18
293.791	9.38
294.005	10.51
294.218	11.06
294.432	10.72
294.645	10.6
294.859	11.15
295.073	10
295.286	10.84
295.5	10.8
295.713	9.92
295.927	9.63
296.14	9.31
296.354	8.97
296.568	8.74
296.781	9.08
296.994	9.93
297.208	9.56
297.421	10.01
297.635	10.5
297.848	10.77
298.062	11.67
298.275	12.02
298.489	12.56
298.702	13.1
298.915	12.82
299.129	12.57
299.342	12.35
299.555	12.71
299.769	12.2
299.982	11.51
300.195	11.96
300.409	11.58
300.622	10.05
300.835	11.14
301.048	10.72
301.262	11.02
301.475	10.7
301.688	9.79
301.901	10.16
302.115	10.95
302.328	10.7
302.541	10.32
302.754	9.48
302.967	10.92
303.18	10.12
303.393	10.91
303.607	11.88
303.82	12.56
304.033	13.1
304.246	13.29
304.459	13.2
304.672	13.57
304.885	13.92
305.098	14.69
305.311	14.73
305.524	14.15
305.737	13.34
305.95	11.58
306.163	11.29
306.376	11.34
306.589	11.25
306.802	9.77
307.015	10.49
307.228	10.73
307.44	9.98
307.653	9.85
307.866	10.18
308.079	11.71
308.292	12.46
308.505	12.38
308.718	11.41
308.93	10.07
309.143	10.75
309.356	9.88
309.569	9.34
309.781	9.9
309.994	9.7
310.207	8.81
310.42	8.62
310.632	8.55
310.845	8.55
311.058	9.34
311.27	9.47
311.483	9.68
311.696	9.8
311.908	9.9
312.121	9.46
312.333	9.31
312.546	9.96
312.759	9.85
312.971	10.21
313.184	10.75
313.396	10.07
313.609	10.64
313.821	10.79
314.034	11.31
314.246	11.05
314.459	11.16
314.671	12.13
314.884	11.85
315.096	11.81
315.309	11.91
315.521	10.91
315.733	11.81
315.946	12.13
316.158	12.69
316.371	11.73
316.583	11.67
316.795	10.85
317.008	10.08
317.22	10.31
317.432	9.88
317.644	10.09
317.857	9.61
318.069	8.88
318.281	9.58
318.494	10.74
318.706	10.93
318.918	10.82
319.13	12.08
319.342	11.53
319.555	11.13
319.767	10.63
319.979	10.13
320.191	11.75
320.403	12.41
320.615	10.86
320.827	9
321.039	8.87
321.252	9.76
321.464	9.9
321.676	10.64
321.888	11.05
322.1	11.94
322.312	11.66
322.524	11.52
322.736	10.62
322.948	12.32
323.16	12.09
323.372	11.76
323.584	12.21
323.796	10.46
324.007	10.11
324.219	10.83
324.431	9.38
324.643	9.69
324.855	9.81
325.067	10.62
325.279	10.02
325.491	10.86
325.702	11.68
325.914	11.18
326.126	13.33
326.338	14.46
326.55	13.68
326.761	14.41
326.973	14.53
327.185	13.5
327.396	13.54
327.608	13.4
327.82	12.97
328.032	12.1
328.243	12.54
328.455	11.85
328.666	11.35
328.878	11.85
329.09	12.24
329.301	12.6
329.513	14.42
329.725	13.81
329.936	13.36
330.148	13.96
330.359	15.04
330.571	14.36
330.782	14.14
330.994	14.07
331.205	14.66
331.417	14.18
331.628	13.53
331.84	12.15
332.051	12.53
332.262	12.71
332.474	12.64
332.685	13.01
332.897	13.76
333.108	13.41
333.319	12.96
333.531	12.57
333.742	12.93
333.953	13.53
334.165	14.8
334.376	15.53
334.587	16.11
334.799	15.55
335.01	14.95
335.221	14.15
335.432	14.18
335.644	14.19
335.855	14
336.066	13.9
336.277	13.08
336.488	11.86
336.7	10.77
336.911	10.34
337.122	11.18
337.333	11.92
337.544	11.82
337.755	11.59
337.966	11.54
338.177	11.63
338.388	12.07
338.599	12.21
338.811	12.9
339.022	12.87
339.233	11.88
339.444	11.83
339.655	10.76
339.866	10.87
340.076	11.18
340.287	11.47
340.498	11.61
340.709	11.23
340.92	11.39
341.131	11.32
341.342	11.55
341.553	13.27
341.764	12.46
341.975	12.56
342.185	12.42
342.396	12.72
342.607	12.79
342.818	12.14
343.029	12.51
343.239	12.65
343.45	12.47
343.661	12.51
343.872	11.9
344.082	11.98
344.293	12.34
344.504	13.04
344.714	12.97
344.925	13.13
345.136	13.28
345.346	11.84
345.557	11.7
345.768	11.45
345.978	11.49
346.189	11.35
346.399	11.57
346.61	11.32
346.821	11.23
347.031	11.73
347.242	11.89
347.452	12.41
347.663	13.52
347.873	13.73
348.084	13.43
348.294	12.94
348.504	13.07
348.715	13.92
348.925	13.97
349.136	13.89
349.346	12.52
349.557	12.57
349.767	12.32
349.977	12.16
350.188	11.87
350.398	12.11
350.608	12.64
350.819	12.52
351.029	11.37
351.239	11.85
351.449	10.96
351.66	10.76
351.87	10.96
352.08	11.23
352.29	12.51
352.501	12.5
352.711	12.95
352.921	12.9
353.131	12.82
353.341	12.39
353.552	12.5
353.762	13.22
353.972	13.76
354.182	13.23
354.392	12.74
354.602	11.22
354.812	11.13
355.022	10.47
355.232	10.51
355.442	10.55
355.652	11.04
355.862	10.36
356.072	10.17
356.282	10.69
356.492	10.52
356.702	10.72
356.912	10.9
357.122	10.82
357.332	11.35
357.542	11.38
357.752	11.05
357.962	11.49
358.171	11.68
358.381	11.97
358.591	11.43
358.801	11.17
359.011	11.52
359.221	11.56
359.43	11.75
359.64	11.53
359.85	11.46
360.06	11.8
360.269	11.62
360.479	11.13
360.689	10.91
360.899	10.9
361.108	10.79
361.318	10.44
361.528	10.36
361.737	10.37
361.947	10.32
362.156	10.65
362.366	10.79
362.576	10.65
362.785	10.32
362.995	9.82
363.204	10.09
363.414	9.67
363.623	9.89
363.833	9.82
364.042	9.91
364.252	10.37
364.461	9.55
364.671	9.5
364.88	9.72
365.09	10.37
365.299	11.22
365.509	11
365.718	11.52
365.927	11.64
366.137	11.23
366.346	11.21
366.555	10.7
366.765	11.19
366.974	11
367.183	10.34
367.393	9.87
367.602	9.9
367.811	10.05
368.021	10.57
368.23	9.59
368.439	10.16
368.648	9.95
368.857	10.33
369.067	9.97
369.276	10.14
369.485	10.41
369.694	10.83
369.903	10.26
370.112	9.99
370.321	9.57
370.531	9.99
370.74	9.77
370.949	9.57
371.158	9.21
371.367	9.33
371.576	9.12
371.785	9.2
371.994	9.2
372.203	9.37
372.412	9.62
372.621	9.54
372.83	9.78
373.039	10.1
373.248	10.46
373.457	10.69
373.666	10.96
373.874	11.21
374.083	10.76
374.292	11.19
374.501	11.02
374.71	10.57
374.919	10.18
375.128	9.89
375.336	9.3
375.545	9.19
375.754	8.87
375.963	8.38
376.171	8.13
376.38	8.5
376.589	7.95
376.798	7.88
377.006	8.35
377.215	9.17
377.424	8.71
377.632	8.76
377.841	8.72
378.05	8.67
378.258	8.77
378.467	8.56
378.675	8.56
378.884	8.95
379.093	9.14
379.301	9.04
379.51	8.66
379.718	8.86
379.927	9.11
380.135	9.08
380.344	8.86
380.552	9.37
380.761	9.46
380.969	9.38
381.177	9.03
381.386	8.9
381.594	8.64
381.803	8.5
382.011	8.95
382.219	9.19
382.428	9.38
382.636	9.48
382.845	9.15
383.053	8.95
383.261	8.75
383.469	9.16
383.678	8.91
383.886	9.19
384.094	9.1
384.302	9
384.511	8.49
384.719	8.35
384.927	8.74
385.135	8.79
385.343	8.69
385.552	8.87
385.76	8.61
385.968	8.87
386.176	8.49
386.384	8.32
386.592	8.34
386.8	8.48
387.008	8.22
387.216	7.81
387.424	7.59
387.633	8.16
387.841	8.18
388.049	8.2
388.257	7.96
388.465	7.92
388.672	8.13
388.88	7.91
389.088	8
389.296	8.45
389.504	8.45
389.712	8.18
389.92	7.88
390.128	7.74
390.336	7.47
390.544	7.53
390.751	7.74
390.959	7.72
391.167	7.92
391.375	7.96
391.583	7.49
391.79	7.34
391.998	7.96
392.206	7.82
392.414	7.76
392.621	7.91
392.829	7.93
393.037	8.17
393.244	7.99
393.452	7.64
393.66	7.44
393.867	7.71
394.075	7.72
394.283	7.37
394.49	7.63
394.698	7.83
394.905	7.69
395.113	7.65
395.32	7.49
395.528	7.8
395.735	8.09
395.943	8.22
396.15	7.91
396.358	7.94
396.565	8.1
396.773	7.91
396.98	7.62
397.188	7.94
397.395	7.74
397.602	7.52
397.81	7.22
398.017	7.14
398.225	7
398.432	6.94
398.639	6.96
398.847	6.8
399.054	6.87
399.261	7.02
399.468	7.01
399.676	7.47
399.883	7.49
400.09	7.66
400.297	7.77
400.505	7.9
400.712	8.23
400.919	8.53
401.126	8.73
401.333	8.83
401.54	8.94
401.748	8.92
401.955	8.7
402.162	8.6
402.369	8.69
402.576	8.82
402.783	8.83
402.99	8.65
403.197	8.33
403.404	8.22
403.611	8.1
403.818	7.99
404.025	7.93
404.232	7.8
404.439	8.12
404.646	8.01
404.853	7.86
405.06	7.73
405.267	8.04
405.474	8.17
405.681	8.03
405.887	8.24
406.094	8.35
406.301	8.18
406.508	8.49
406.715	8.22
406.922	8.04
407.128	7.77
407.335	7.68
407.542	7.44
407.749	7.43
407.955	7.49
408.162	7.42
408.369	7.36
408.575	7.72
408.782	7.38
408.989	7.36
409.195	7.51
409.402	7.83
409.609	7.77
409.815	7.68
410.022	7.7
410.228	7.9
410.435	7.92
410.642	7.9
410.848	7.84
411.055	7.89
411.261	8.05
411.468	8.1
411.674	8.17
411.881	8.59
412.087	8.46
412.294	8.53
412.5	8.41
412.706	8.06
412.913	8.02
413.119	8.02
413.326	8.07
413.532	8.1
413.738	7.79
413.945	7.67
414.151	7.52
414.357	7.92
414.564	7.81
414.77	7.83
414.976	7.98
415.182	8.15
415.389	7.98
415.595	7.94
415.801	7.79
416.007	8.02
416.214	8.01
416.42	8.08
416.626	7.75
416.832	8
417.038	7.86
417.244	7.82
417.45	7.78
417.657	7.84
417.863	8.04
418.069	8.21
418.275	8.31
418.481	8.39
418.687	8.32
418.893	8.56
419.099	8.35
419.305	8.49
419.511	8.52
419.717	8.41
419.923	8.42
420.129	8.26
420.335	8.1
420.541	8.21
420.746	8.14
420.952	8.18
421.158	8.05
421.364	8.12
421.57	8.12
421.776	8.26
421.982	8.24
422.187	8.21
422.393	8.18
422.599	8.18
422.805	7.99
423.01	7.95
423.216	7.92
423.422	7.94
423.628	7.9
423.833	7.83
424.039	7.66
424.245	7.66
424.45	7.75
424.656	7.87
424.862	7.87
425.067	7.86
425.273	7.94
425.478	7.93
425.684	8.09
425.889	8.27
426.095	8.29
426.301	8.41
426.506	8.49
426.712	8.36
426.917	8.4
427.123	8.62
427.328	8.68
427.533	8.72
427.739	8.99
427.944	8.77
428.15	8.53
428.355	8.37
428.561	8.37
428.766	8.4
428.971	8.44
429.177	8.35
429.382	8.27
429.587	8.38
429.793	8.29
429.998	7.98
430.203	8.19
430.408	8.36
430.614	8.71
430.819	8.62
431.024	8.65
431.229	8.57
431.434	8.52
431.64	8.61
431.845	8.64
432.05	8.76
432.255	8.76
432.46	8.6
432.665	8.74
432.87	8.62
433.076	8.74
433.281	8.59
433.486	8.76
433.691	8.84
433.896	8.74
434.101	8.69
434.306	8.69
434.511	8.69
434.716	8.81
434.921	8.5
435.126	8.57
435.331	8.55
435.535	8.63
435.74	8.44
435.945	8.53
436.15	8.42
436.355	8.65
436.56	8.51
436.765	8.55
436.97	8.46
437.174	8.53
437.379	8.47
437.584	8.44
437.789	8.46
437.993	8.61
438.198	8.45
438.403	8.42
438.608	8.31
438.812	8.3
439.017	8.31
439.222	8.38
439.426	8.35
439.631	8.32
439.836	8.52
440.04	8.61
440.245	8.7
440.45	8.75
440.654	8.92
440.859	8.84
441.063	9.02
441.268	8.95
441.472	8.93
441.677	8.93
441.881	8.91
442.086	8.67
442.29	8.67
442.495	8.5
442.699	8.62
442.904	8.62
443.108	8.53
443.312	8.24
443.517	8.24
443.721	8.31
443.925	8.48
444.13	8.59
444.334	8.63
444.538	8.72
444.743	8.86
444.947	8.74
445.151	8.65
445.356	8.83
445.56	8.99
445.764	9.13
445.968	9.14
446.173	9.08
446.377	9.01
446.581	8.95
446.785	8.8
446.989	8.8
447.193	8.77
447.398	8.73
447.602	8.7
447.806	8.65
448.01	8.46
448.214	8.33
448.418	8.33
448.622	8.34
448.826	8.48
449.03	8.55
449.234	8.32
449.438	8.26
449.642	8.31
449.846	8.35
450.05	8.39
450.254	8.57
450.458	8.54
450.662	8.39
450.866	8.41
451.069	8.28
451.273	8.28
451.477	8.41
451.681	8.5
451.885	8.46
452.089	8.42
452.292	8.41
452.496	8.35
452.7	8.43
452.904	8.52
453.107	8.48
453.311	8.78
453.515	8.74
453.719	8.74
453.922	8.77
454.126	8.77
454.33	8.66
454.533	8.56
454.737	8.47
454.94	8.57
455.144	8.61
455.348	8.71
455.551	8.6
455.755	8.49
455.958	8.41
456.162	8.46
456.365	8.51
456.569	8.4
456.772	8.38
456.976	8.54
457.179	8.48
457.383	8.53
457.586	8.47
457.79	8.38
457.993	8.42
458.196	8.4
458.4	8.53
458.603	8.54
458.807	8.64
459.01	8.68
459.213	8.7
459.417	8.72
459.62	8.6
459.823	8.53
460.026	8.45
460.23	8.48
460.433	8.48
460.636	8.29
460.839	8.33
461.042	8.37
461.246	8.41
461.449	8.34
461.652	8.28
461.855	8.35
462.058	8.44
462.261	8.68
462.464	8.78
462.668	8.88
462.871	8.92
463.074	8.86
463.277	8.66
463.48	8.68
463.683	8.72
463.886	8.71
464.089	8.55
464.292	8.43
464.495	8.32
464.698	8.01
464.901	7.84
465.104	7.96
465.306	7.94
465.509	8.16
465.712	8.09
465.915	7.98
466.118	7.98
466.321	8.22
466.524	8.27
466.726	8.08
466.929	8.16
467.132	8.21
467.335	8.1
467.538	8.01
467.74	7.89
467.943	7.98
468.146	8.05
468.348	8.14
468.551	8
468.754	8.01
468.956	8.23
469.159	8.42
469.362	8.43
469.564	8.55
469.767	8.83
469.969	8.84
470.172	8.87
470.375	8.68
470.577	8.61
470.78	8.76
470.982	8.89
471.185	8.83
471.387	8.64
471.59	8.85
471.792	8.9
471.995	8.73
472.197	8.76
472.399	8.84
472.602	9.04
472.804	8.94
473.007	8.7
473.209	8.51
473.411	8.58
473.614	8.78
473.816	8.92
474.018	8.75
474.22	8.69
474.423	8.74
474.625	8.66
474.827	8.52
475.03	8.58
475.232	8.65
475.434	8.84
475.636	8.61
475.838	8.58
476.04	8.34
476.243	8.23
476.445	8.29
476.647	8.28
476.849	8.2
477.051	8.36
477.253	8.4
477.455	8.58
477.657	8.41
477.859	8.49
478.061	8.36
478.263	8.26
478.465	8.35
478.667	8.45
478.869	8.6
479.071	8.51
479.273	8.49
479.475	8.32
479.677	8.29
479.879	8.39
480.081	8.34
480.283	8.4
480.485	8.44
480.686	8.54
480.888	8.42
481.09	8.36
481.292	8.41
481.494	8.39
481.695	8.61
481.897	8.59
482.099	8.57
482.301	8.57
482.502	8.55
482.704	8.55
482.906	8.58
483.107	8.6
483.309	8.56
483.511	8.55
483.712	8.53
483.914	8.48
484.115	8.42
484.317	8.43
484.519	8.44
484.72	8.48
484.922	8.5
485.123	8.48
485.325	8.46
485.526	8.48
485.728	8.52
485.929	8.55
486.131	8.46
486.332	8.56
486.534	8.57
486.735	8.61
486.936	8.55
487.138	8.55
487.339	8.52
487.541	8.57
487.742	8.49
487.943	8.46
488.144	8.45
488.346	8.55
488.547	8.55
488.748	8.59
488.95	8.62
489.151	8.64
489.352	8.63
489.553	8.75
489.755	8.7
489.956	8.8
490.157	8.79
490.358	8.77
490.559	8.79
490.76	8.83
490.961	8.69
491.163	8.59
491.364	8.63
491.565	8.67
491.766	8.57
491.967	8.55
492.168	8.55
492.369	8.6
492.57	8.63
492.771	8.68
492.972	8.58
493.173	8.69
493.374	8.84
493.575	8.85
493.776	8.79
493.976	8.69
494.177	8.7
494.378	8.78
494.579	8.63
494.78	8.59
494.981	8.45
495.182	8.53
495.382	8.43
495.583	8.25
495.784	8.34
495.985	8.47
496.185	8.63
496.386	8.79
496.587	8.71
496.788	8.8
496.988	8.9
497.189	8.87
497.39	8.95
497.59	8.97
497.791	9.06
497.992	8.95
498.192	8.95
498.393	8.94
498.593	8.94
498.794	8.98
498.994	8.98
499.195	8.94
499.395	9.04
499.596	8.98
499.796	9
499.997	9.01
500.197	9.05
500.398	9.11
500.598	9.1
500.799	9.03
500.999	8.95
501.199	9.08
501.4	9.2
501.6	9.12
501.801	9.07
502.001	9
502.201	9.01
502.402	9.14
502.602	9.05
502.802	8.99
503.002	8.99
503.203	8.97
503.403	8.92
503.603	8.8
503.803	8.86
504.003	8.95
504.204	9.04
504.404	8.9
504.604	8.81
504.804	8.94
505.004	9.12
505.204	9.06
505.404	9.13
505.604	9.11
505.804	9.23
506.005	9.25
506.205	9.21
506.405	9.24
506.605	9.45
506.805	9.4
507.005	9.35
507.204	9.23
507.404	9.39
507.604	9.48
507.804	9.55
508.004	9.69
508.204	9.77
508.404	9.77
508.604	9.82
508.804	9.74
509.003	9.85
509.203	9.78
509.403	9.84
509.603	9.7
509.803	9.77
510.002	9.75
510.202	9.51
510.402	9.56
510.602	9.57
510.801	9.57
511.001	9.65
511.201	9.64
511.4	9.75
511.6	9.85
511.8	9.99
511.999	9.94
512.199	10.07
512.398	10.12
512.598	10.16
512.797	10.37
512.997	10.39
513.197	10.39
513.396	10.45
513.596	10.31
513.795	10.25
513.994	10.34
514.194	10.42
514.393	10.33
514.593	10.54
514.792	10.51
514.992	10.36
515.191	10.48
515.39	10.56
515.59	10.61
515.789	10.85
515.988	10.91
516.188	10.84
516.387	10.79
516.586	10.89
516.786	10.88
516.985	10.77
517.184	10.76
517.383	10.73
517.582	10.69
517.782	10.66
517.981	10.63
518.18	10.57
518.379	10.68
518.578	10.75
518.777	10.74
518.976	10.72
519.176	10.78
519.375	10.9
519.574	10.93
519.773	11
519.972	11.11
520.171	11.18
520.37	11.27
520.569	11.33
520.768	11.39
520.967	11.42
521.166	11.49
521.365	11.67
521.564	11.71
521.762	11.77
521.961	11.83
522.16	11.77
522.359	11.73
522.558	11.82
522.757	11.73
522.956	11.72
523.154	11.76
523.353	11.83
523.552	11.74
523.751	11.65
523.949	11.57
524.148	11.45
524.347	11.58
524.546	11.65
524.744	11.81
524.943	11.96
525.142	12.02
525.34	12.12
525.539	12.12
525.737	12.27
525.936	12.41
526.135	12.46
526.333	12.56
526.532	12.55
526.73	12.57
526.929	12.51
527.127	12.46
527.326	12.45
527.524	12.47
527.723	12.49
527.921	12.48
528.12	12.5
528.318	12.56
528.516	12.53
528.715	12.53
528.913	12.57
529.112	12.58
529.31	12.59
529.508	12.6
529.707	12.54
529.905	12.51
530.103	12.56
530.301	12.52
530.5	12.54
530.698	12.62
530.896	12.71
531.094	12.69
531.293	12.73
531.491	12.84
531.689	12.93
531.887	13.11
532.085	13.24
532.283	13.21
532.481	13.26
532.68	13.28
532.878	13.36
533.076	13.37
533.274	13.38
533.472	13.39
533.67	13.35
533.868	13.28
534.066	13.26
534.264	13.24
534.462	13.3
534.66	13.43
534.858	13.42
535.056	13.41
535.253	13.43
535.451	13.59
535.649	13.75
535.847	13.89
536.045	14.07
536.243	14.24
536.441	14.4
536.638	14.44
536.836	14.43
537.034	14.6
537.232	14.68
537.43	14.77
537.627	14.79
537.825	14.78
538.023	14.82
538.22	14.86
538.418	14.72
538.616	14.67
538.813	14.75
539.011	14.93
539.209	15
539.406	15.15
539.604	15.1
539.801	15.16
539.999	15.27
540.196	15.27
540.394	15.3
540.591	15.4
540.789	15.41
540.986	15.44
541.184	15.31
541.381	15.28
541.579	15.22
541.776	15.29
541.974	15.32
542.171	15.21
542.368	15.23
542.566	15.28
542.763	15.31
542.96	15.42
543.158	15.43
543.355	15.53
543.552	15.62
543.75	15.74
543.947	15.77
544.144	15.78
544.341	16.04
544.539	16.12
544.736	16.22
544.933	16.28
545.13	16.34
545.327	16.44
545.524	16.52
545.722	16.57
545.919	16.61
546.116	16.64
546.313	16.79
546.51	16.7
546.707	16.82
546.904	16.86
547.101	17.06
547.298	17.08
547.495	17.1
547.692	17.17
547.889	17.15
548.086	17.25
548.283	17.5
548.48	17.58
548.677	17.75
548.874	17.88
549.07	18.03
549.267	17.94
549.464	18.25
549.661	18.35
549.858	18.59
550.055	18.59
550.251	18.66
550.448	18.54
550.645	18.73
550.842	18.79
551.038	18.84
551.235	18.86
551.432	19.07
551.628	18.91
551.825	19.01
552.022	19.02
552.218	19.25
552.415	19.39
552.612	19.46
552.808	19.44
553.005	19.57
553.201	19.42
553.398	19.66
553.594	19.59
553.791	19.88
553.987	20.08
554.184	20.13
554.38	20.16
554.577	20.17
554.773	20.38
554.97	20.41
555.166	20.6
555.362	20.73
555.559	20.67
555.755	20.84
555.952	20.7
556.148	20.58
556.344	20.78
556.541	20.86
556.737	20.77
556.933	20.88
557.129	20.85
557.326	20.89
557.522	21.11
557.718	21.16
557.914	21.48
558.11	21.55
558.307	21.72
558.503	21.62
558.699	21.63
558.895	21.89
559.091	21.95
559.287	22.31
559.483	22.37
559.679	22.45
559.876	22.54
560.072	22.45
560.268	22.63
560.464	22.58
560.66	22.68
560.856	23.03
561.052	22.88
561.247	23.03
561.443	23.02
561.639	22.96
561.835	23.15
562.031	23.24
562.227	23.39
562.423	23.58
562.619	23.82
562.815	24.11
563.01	24.04
563.206	24.42
563.402	24.39
563.598	24.49
563.793	24.81
563.989	24.92
564.185	24.92
564.381	25.03
564.576	25.13
564.772	25.35
564.968	25.25
565.163	25.34
565.359	25.32
565.555	25.51
565.75	25.65
565.946	25.76
566.141	25.79
566.337	25.94
566.532	26.08
566.728	26.22
566.923	26.2
567.119	26.38
567.314	26.54
567.51	26.78
567.705	26.84
567.901	26.78
568.096	26.88
568.292	26.94
568.487	27.08
568.682	27.08
568.878	27.08
569.073	27.22
569.268	27.31
569.464	27.37
569.659	27.39
569.854	27.56
570.05	27.73
570.245	27.83
570.44	27.99
570.635	28.21
570.831	28.42
571.026	28.52
571.221	28.6
571.416	28.77
571.611	28.91
571.806	28.95
572.002	28.9
572.197	29.05
572.392	29.15
572.587	29.41
572.782	29.32
572.977	29.37
573.172	29.57
573.367	29.57
573.562	29.78
573.757	29.88
573.952	30.07
574.147	30.25
574.342	30.43
574.537	30.46
574.732	30.43
574.927	30.47
575.121	30.45
575.316	30.53
575.511	30.62
575.706	30.51
575.901	30.5
576.096	30.68
576.29	30.66
576.485	30.58
576.68	30.53
576.875	30.51
577.069	30.6
577.264	30.76
577.459	30.75
577.654	30.89
577.848	30.87
578.043	31.1
578.238	30.99
578.432	31.09
578.627	31.2
578.821	31.52
579.016	31.49
579.21	31.79
579.405	31.85
579.6	31.76
579.794	31.73
579.989	31.85
580.183	31.86
580.378	31.85
580.572	31.92
580.766	32.2
580.961	31.99
581.155	32.37
581.35	32.48
581.544	32.62
581.738	32.8
581.933	32.99
582.127	33.07
582.321	32.99
582.516	33.46
582.71	33.51
582.904	33.63
583.099	33.66
583.293	33.63
583.487	33.52
583.681	33.53
583.875	33.59
584.07	33.66
584.264	33.8
584.458	34.08
584.652	33.94
584.846	34.19
585.04	33.99
585.234	34.22
585.428	33.99
585.623	33.95
585.817	34.01
586.011	34
586.205	34.07
586.399	34.28
586.593	34.34
586.787	34.17
586.981	34.44
587.174	34.7
587.368	34.81
587.562	34.98
587.756	35.09
587.95	35.24
588.144	35.28
588.338	35.37
588.532	35.33
588.725	35.08
588.919	35.29
589.113	35.4
589.307	35.04
589.501	35.06
589.694	35.2
589.888	35.42
590.082	35.2
590.275	35.39
590.469	35.29
590.663	35.49
590.856	35.71
591.05	35.6
591.244	35.47
591.437	35.65
591.631	35.73
591.824	35.79
592.018	35.64
592.212	35.91
592.405	35.73
592.599	35.81
592.792	35.77
592.986	35.91
593.179	36.03
593.372	36.12
593.566	36.48
593.759	36.49
593.953	36.67
594.146	36.81
594.339	36.82
594.533	37.1
594.726	37.2
594.92	37.08
595.113	37.06
595.306	37.07
595.499	36.92
595.693	37.04
595.886	37.11
596.079	37.16
596.272	37.22
596.466	37.39
596.659	37.24
596.852	37.29
597.045	37.27
597.238	37.33
597.431	37.48
597.624	37.58
597.818	37.41
598.011	37.47
598.204	37.42
598.397	37.75
598.59	37.56
598.783	37.81
598.976	37.59
599.169	37.86
599.362	37.91
599.555	37.84
599.748	37.99
599.941	37.89
600.134	37.74
600.326	37.66
600.519	37.31
600.712	37.51
600.905	37.46
601.098	37.95
601.291	37.94
601.483	38.11
601.676	38.2
601.869	38.05
602.062	38.35
602.255	38.65
602.447	38.96
602.64	38.96
602.833	38.98
603.025	38.9
603.218	38.75
603.411	38.58
603.603	38.41
603.796	38.48
603.989	38.44
604.181	38.31
604.374	38.37
604.566	38.31
604.759	38.32
604.951	38.4
605.144	38.52
605.336	38.55
605.529	38.65
605.721	38.82
605.914	38.84
606.106	39.02
606.299	39.08
606.491	38.78
606.683	38.82
606.876	38.83
607.068	38.77
607.26	38.78
607.453	38.78
607.645	38.92
607.837	38.98
608.03	39.12
608.222	39.22
608.414	39.27
608.606	39.66
608.799	39.7
608.991	39.97
609.183	40.02
609.375	40.03
609.567	40.09
609.759	39.95
609.952	39.93
610.144	39.95
610.336	39.8
610.528	40.03
610.72	39.98
610.912	40.1
611.104	40.06
611.296	40.06
611.488	40.14
611.68	40.31
611.872	40.48
612.064	40.27
612.256	40.19
612.448	40.31
612.64	40.2
612.832	40.32
613.023	39.99
613.215	39.78
613.407	39.9
613.599	39.79
613.791	39.78
613.983	39.94
614.174	39.99
614.366	40.14
614.558	40.28
614.75	40.22
614.941	40.3
615.133	40.46
615.325	40.55
615.516	40.68
615.708	40.73
615.9	40.57
616.091	40.55
616.283	40.95
616.475	40.9
616.666	41.13
616.858	41.12
617.049	41.05
617.241	41.04
617.432	41.24
617.624	41.05
617.815	41.52
618.007	41.44
618.198	41.43
618.39	41.31
618.581	41.44
618.773	41.17
618.964	41.29
619.155	41.27
619.347	41.37
619.538	41.35
619.729	41.6
619.921	41.16
620.112	41.27
620.303	41.41
620.494	41.48
620.686	41.42
620.877	41.43
621.068	41.14
621.259	41.23
621.451	41.46
621.642	41.41
621.833	41.36
622.024	41.53
622.215	41.65
622.406	41.92
622.597	41.63
622.788	41.71
622.98	41.54
623.171	42.1
623.362	42.27
623.553	42.25
623.744	42.62
623.935	42.68
624.126	42.77
624.317	42.72
624.508	42.35
624.698	42.85
624.889	42.72
625.08	43.16
625.271	42.75
625.462	42.62
625.653	42.48
625.844	42.38
626.034	42.35
626.225	42.36
626.416	42.35
626.607	42.62
626.798	42.31
626.988	42.47
627.179	42.37
627.37	42.62
627.56	42.56
627.751	42.83
627.942	42.77
628.132	42.63
628.323	42.43
628.514	42.73
628.704	42.73
628.895	43.05
629.085	43.15
629.276	43.14
629.466	43.29
629.657	43.43
629.847	43.34
630.038	43.5
630.228	43.72
630.419	43.98
630.609	43.89
630.8	43.91
630.99	43.86
631.181	43.83
631.371	43.8
631.561	43.69
631.752	43.71
631.942	43.54
632.132	43.49
632.323	43.5
632.513	43.36
632.703	43.3
632.893	43.03
633.084	43.19
633.274	43.4
633.464	43.48
633.654	43.45
633.844	43.63
634.034	43.73
634.225	43.44
634.415	43.46
634.605	43.5
634.795	43.72
634.985	43.76
635.175	43.54
635.365	43.44
635.555	43.52
635.745	43.56
635.935	43.45
636.125	43.37
636.315	43.46
636.505	43.44
636.695	43.54
636.885	43.16
637.075	43.13
637.265	43.41
637.455	43.32
637.644	43.28
637.834	43.34
638.024	43.23
638.214	43.19
638.404	43.54
638.593	43.79
638.783	43.9
638.973	44.31
639.163	44.44
639.352	44.65
639.542	44.45
639.732	44.65
639.921	44.61
640.111	44.7
640.301	44.9
640.49	44.85
640.68	44.71
640.87	44.69
641.059	44.85
641.249	45.29
641.438	44.89
641.628	45.04
641.817	44.81
642.007	44.59
642.196	44.46
642.386	44.53
642.575	44.95
642.764	45.45
642.954	45.38
643.143	45.38
643.333	44.93
643.522	45.11
643.711	45.4
643.901	45.15
644.09	45.56
644.279	45.89
644.469	45.79
644.658	45.6
644.847	44.91
645.036	45.06
645.226	44.89
645.415	44.78
645.604	44.42
645.793	44.41
645.982	44.56
646.171	44.57
646.361	44.88
646.55	44.87
646.739	44.71
646.928	44.99
647.117	45.37
647.306	45.17
647.495	45.38
647.684	45.76
647.873	45.72
648.062	46.13
648.251	46.2
648.44	45.61
648.629	45.8
648.818	45.96
649.007	45.78
649.196	45.62
649.384	45.86
649.573	45.71
649.762	45.74
649.951	45.97
650.14	45.88
650.328	45.71
650.517	45.56
650.706	45.71
650.895	45.38
651.083	45.27
651.272	44.14
651.461	44.27
651.65	44.42
651.838	44.26
652.027	44.13
652.216	43.95
652.404	43.72
652.593	43.9
652.781	43.36
652.97	43.47
653.158	43.65
653.347	44.71
653.535	44.51
653.724	44.65
653.912	44.66
654.101	44.67
654.289	45.12
654.478	45.45
654.666	45.46
654.855	45.88
655.043	45.89
655.231	46.06
655.42	46.53
655.608	46.92
655.796	47.06
655.985	47.39
656.173	47.28
656.361	47.13
656.55	47.34
656.738	47.74
656.926	47.82
657.114	48.28
657.302	47.68
657.491	47.14
657.679	46.76
657.867	46.76
658.055	46.59
658.243	46.86
658.431	46.98
658.619	46.89
658.807	46.67
658.996	46.93
659.184	46.46
659.372	47.08
659.56	47.15
659.748	47.07
659.936	47.09
660.124	47.07
660.311	47.06
660.499	46.68
660.687	46.9
660.875	47.28
661.063	47.25
661.251	47.63
661.439	47.38
661.627	47.61
661.814	48
662.002	47.93
662.19	48.29
662.378	48.48
662.565	48.9
662.753	48.83
662.941	48.88
663.129	48.4
663.316	48.09
663.504	47.98
663.692	47.73
663.879	47.42
664.067	47.75
664.254	47.54
664.442	46.9
664.63	46.7
664.817	46.17
665.005	45.97
665.192	46.5
665.38	46.61
665.567	47.2
665.755	47.48
665.942	47.73
666.13	47.53
666.317	47.54
666.504	47.71
666.692	47.71
666.879	48.57
667.067	48.92
667.254	48.51
667.441	48.67
667.629	48.32
667.816	47.89
668.003	47.76
668.19	48.01
668.378	47.83
668.565	48.11
668.752	48.47
668.939	47.97
669.127	47.06
669.314	47.33
669.501	47.16
669.688	47.38
669.875	47.81
670.062	47.91
670.249	47.57
670.436	47.65
670.623	47.78
670.81	47.66
670.997	47.56
671.184	47.91
671.371	48.26
671.558	48.91
671.745	48.92
671.932	48.69
672.119	48.5
672.306	48.52
672.493	48.74
672.68	48.54
672.867	48.57
673.054	48.63
673.24	48.94
673.427	48.76
673.614	48.24
673.801	48.17
673.988	48.54
674.174	49.31
674.361	49.66
674.548	49.73
674.734	49.66
674.921	49.95
675.108	50.37
675.294	50.23
675.481	50.19
675.668	50.39
675.854	50.14
676.041	50.04
676.227	49.46
676.414	49.47
676.601	49.36
676.787	49.37
676.974	49.04
677.16	48.85
677.347	48.92
677.533	48.77
677.719	48.56
677.906	48.86
678.092	49.03
678.279	48.72
678.465	48.34
678.651	48.13
678.838	47.85
679.024	48.18
679.21	47.92
679.397	47.84
679.583	47.89
679.769	47.79
679.955	47.61
680.142	47.36
680.328	47.76
680.514	47.63
680.7	47.76
680.886	48.18
681.073	47.74
681.259	47.76
681.445	47.72
681.631	47.63
681.817	48.13
682.003	48.32
682.189	48.44
682.375	48.11
682.561	48.61
682.747	48.87
682.933	48.56
683.119	48.74
683.305	49.02
683.491	49.29
683.677	49.58
683.863	48.81
684.049	49.02
684.235	48.69
684.42	49.27
684.606	49.2
684.792	49
684.978	49.74
685.164	49.78
685.349	49.87
685.535	49.8
685.721	49.52
685.907	50.2
686.092	50.31
686.278	50.27
686.464	50.48
686.649	50.59
686.835	50.45
687.021	49.94
687.206	50.21
687.392	49.63
687.577	49.95
687.763	49.91
687.948	49.7
688.134	49.2
688.319	49.47
688.505	49.02
688.69	48.89
688.876	48.78
689.061	48.55
689.247	48.09
689.432	48.51
689.618	48.24
689.803	48.22
689.988	48.85
690.174	49.17
690.359	49.24
690.544	49.01
690.73	49.34
690.915	49.51
691.1	49.78
691.285	50.58
691.471	50.96
691.656	51.08
691.841	51.31
692.026	50.77
692.211	50.43
692.396	50.16
692.582	50
692.767	49.62
692.952	49.38
693.137	49.65
693.322	49.08
693.507	48.47
693.692	48.57
693.877	48.19
694.062	48.25
694.247	48.48
694.432	49.24
694.617	49.8
694.802	50.1
694.987	50.87
695.172	50.85
695.357	51.27
695.541	51.68
695.726	51.59
695.911	51.7
696.096	51.78
696.281	51.35
696.466	50.67
696.65	50.99
696.835	51.14
697.02	50.91
697.204	50.56
697.389	50.51
697.574	50.55
697.759	50.26
697.943	50.82
698.128	50.69
698.312	51.06
698.497	51.12
698.682	51.02
698.866	50.98
699.051	51.08
699.235	51.39
699.42	51.45
699.604	51.49
699.789	51.43
699.973	51.41
700.158	51.13
700.342	51.01
700.527	51.23
700.711	50.98
700.895	50.56
701.08	50.28
701.264	49.93
701.448	49.85
701.633	49.42
701.817	49.6
702.001	49.12
702.186	49.85
702.37	50.11
702.554	50.21
702.738	50.13
702.923	50.55
703.107	51.02
703.291	51.08
703.475	50.77
703.659	51.45
703.843	51.53
704.027	52.16
704.212	51.54
704.396	51.71
704.58	51.89
704.764	52.01
704.948	52.06
705.132	51.91
705.316	52.53
705.5	52.61
705.684	52.41
705.868	52.72
706.052	52.7
706.235	53.29
706.419	52.56
706.603	52.03
706.787	52.13
706.971	51.88
707.155	52.04
707.339	51.57
707.522	51.61
707.706	51.45
707.89	50.99
708.074	50.91
708.257	50.32
708.441	50.61
708.625	50.6
708.808	50.69
708.992	50.54
709.176	50.27
709.359	50.77
709.543	50.8
709.727	50.58
709.91	51.08
710.094	50.5
710.277	51.07
710.461	51.18
710.644	51.31
710.828	51.23
711.011	51.34
711.195	51.43
711.378	51.12
711.562	51.17
711.745	51.5
711.928	50.93
712.112	51.04
712.295	50.9
712.478	50.1
712.662	50.73
712.845	50.78
713.028	50.59
713.212	50.19
713.395	50.37
713.578	50.4
713.761	50.41
713.945	50.61
714.128	51.26
714.311	51.81
714.494	52.67
714.677	52.08
714.86	52.35
715.043	52.51
715.227	53.12
715.41	53.04
715.593	53.19
715.776	53.19
715.959	53.75
716.142	53.47
716.325	52.79
716.508	53.44
716.691	53.84
716.874	53.7
717.057	53.65
717.239	53.56
717.422	53.61
717.605	53.38
717.788	53.51
717.971	53.05
718.154	53.43
718.337	53.83
718.519	52.99
718.702	52.32
718.885	51.86
719.068	52.09
719.25	52.3
719.433	52.58
719.616	52.46
719.798	52.19
719.981	52.75
720.164	51.71
720.346	51.49
720.529	52.12
720.712	51.79
720.894	52.32
721.077	51.7
721.259	51.82
721.442	51.52
721.624	51.62
721.807	52
721.989	51.56
722.172	52.09
722.354	51.68
722.537	51.4
722.719	52.4
722.901	52.51
723.084	53.09
723.266	52.94
723.448	52.65
723.631	54.25
723.813	54.2
723.995	54.17
724.178	53.99
724.36	54.5
724.542	54.34
724.724	54.33
724.907	53.78
725.089	54.15
725.271	53.78
725.453	54
725.635	52.59
725.817	53.11
725.999	53.63
726.181	54.3
726.364	54.99
726.546	55.05
726.728	55.3
726.91	55.51
727.092	54.8
727.274	55.19
727.456	55.03
727.638	54.94
727.819	54.08
728.001	54.29
728.183	53.61
728.365	53
728.547	53.04
728.729	53.06
728.911	53.51
729.093	54.06
729.274	53.69
729.456	53.95
729.638	53.53
729.82	53.95
730.001	53.43
730.183	53.29
730.365	53.09
730.546	52.47
730.728	51.86
730.91	52.09
731.091	51.82
731.273	51.74
731.455	51.27
731.636	52.04
731.818	51.82
731.999	51.56
732.181	51.81
732.362	52.14
732.544	51.92
732.725	52.05
732.907	52.11
733.088	52.45
733.27	52.5
733.451	53.07
733.633	53.4
733.814	53.72
733.995	53.83
734.177	54
734.358	54.41
734.539	55.27
734.721	55.57
734.902	55.1
735.083	55.02
735.264	55.06
735.446	54.79
735.627	54.71
735.808	54.12
735.989	54.33
736.17	54.16
736.351	53.09
736.533	53.27
736.714	52.94
736.895	53.23
737.076	53.01
737.257	52.64
737.438	52.93
737.619	51.97
737.8	52.18
737.981	52.19
738.162	52.66
738.343	53.05
738.524	53.66
738.705	53.77
738.886	54
739.067	53.85
739.247	54.7
739.428	53.66
739.609	53.78
739.79	54.99
739.971	55.51
740.151	55.77
740.332	56.44
740.513	55.81
740.694	55.41
740.874	54.47
741.055	55.36
741.236	55.87
741.417	57.02
741.597	57.11
741.778	55.33
741.958	54.39
742.139	53.76
742.32	53.35
742.5	52.8
742.681	53.24
742.861	53.56
743.042	52.83
743.222	52.03
743.403	51.72
743.583	52.09
743.764	53.2
743.944	53.6
744.124	53.12
744.305	53.8
744.485	54.61
744.666	54.66
744.846	54.26
745.026	54.79
745.207	54.51
745.387	55
745.567	54.94
745.747	54.22
745.928	54.22
746.108	55.49
746.288	54.68
746.468	54.22
746.648	53.96
746.829	54.53
747.009	54.46
747.189	54.34
747.369	54.04
747.549	53.97
747.729	54.21
747.909	54.98
748.089	55.05
748.269	55.29
748.449	55.91
748.629	56.75
748.809	57.26
748.989	56.99
749.169	57.32
749.349	57.17
749.529	58.29
749.709	59.25
749.889	59.13
750.068	57.49
750.248	57.28
750.428	57.01
750.608	56.8
750.788	56.11
750.967	56.65
751.147	56.61
751.327	56.61
751.507	55.24
751.686	54.31
751.866	53.94
752.046	54.58
752.225	54.89
752.405	54.98
752.585	54.49
752.764	54.65
752.944	53.18
753.123	54.06
753.303	54.97
753.482	55.11
753.662	55.55
753.841	55.25
754.021	55.62
754.2	55.21
754.38	54.66
754.559	55.22
754.739	55.01
754.918	54.99
755.097	54.64
755.277	53.92
755.456	53.89
755.635	53.79
755.815	54.51
755.994	55.19
756.173	55.1
756.352	56.44
756.532	56.4
756.711	57.06
756.89	58.49
757.069	57.96
757.248	57.26
757.427	57.65
757.607	57.07
757.786	56.6
757.965	56.18
758.144	55.95
758.323	55.54
758.502	55.06
758.681	54.14
758.86	52.78
759.039	52.43
759.218	53.12
759.397	52.78
759.576	53.67
759.755	53.43
759.934	52.32
760.113	52.68
760.291	51.98
760.47	51.96
760.649	53.2
760.828	53.79
761.007	53.59
761.186	53.56
761.364	53.51
761.543	52.81
761.722	53.56
761.901	53.83
762.079	53.47
762.258	53.36
762.437	54.58
762.615	54.3
762.794	54.58
762.972	54.92
763.151	54.72
763.33	54.66
763.508	55.05
763.687	54.9
763.865	55.43
764.044	56.12
764.222	56.26
764.401	55.83
764.579	55.26
764.758	55.18
764.936	55.63
765.114	55.67
765.293	55.63
765.471	55.25
765.65	54.48
765.828	54.37
766.006	53.53
766.184	53.37
766.363	52.79
766.541	53.25
766.719	53.43
766.898	53.09
767.076	53.29
767.254	53.53
767.432	53.67
767.61	54.77
767.788	54.49
767.967	55.56
768.145	56.1
768.323	55.95
768.501	56.32
768.679	56.64
768.857	55.64
769.035	55.47
769.213	56.18
769.391	55.76
769.569	55.16
769.747	54.96
769.925	54.5
770.103	54.35
770.281	55.32
770.459	54.58
770.636	54.93
770.814	56.85
770.992	56.32
771.17	55
771.348	54.49
771.525	55.33
771.703	56.1
771.881	55.86
772.059	55.45
772.236	53.64
772.414	54.68
772.592	53.42
772.769	52.47
772.947	53.33
773.125	54.69
773.302	56.04
773.48	55.14
773.657	56.36
773.835	57.38
774.013	57.57
774.19	57.89
774.368	57.82
774.545	58.73
774.723	57.4
774.9	58.15
775.077	56.98
775.255	56.54
775.432	56.7
775.61	55.56
775.787	53.74
775.964	54.23
776.142	56.47
776.319	56.41
776.496	56.43
776.674	58.19
776.851	57.94
777.028	59.12
777.205	60.87
777.382	60.96
777.56	60.04
777.737	60.28
777.914	59.38
778.091	58.14
778.268	57.82
778.445	57.77
778.622	57.62
778.8	58.67
778.977	56.35
779.154	61.16
779.331	60.76
779.508	62.65
779.685	64.8
779.862	65.96
780.038	65.9
780.215	65.71
780.392	66.04
780.569	67.53
780.746	65.17
780.923	66.37
781.1	59.7
781.277	59.16
781.453	57.87
781.63	56.07
781.807	55.64
781.984	55.67
782.16	56.81
782.337	56.67
782.514	55.08
782.691	56.44
782.867	55.66
783.044	55.37
783.221	56.27
783.397	56.17
783.574	57.71
783.75	59.1
783.927	59.3
784.103	59.15
784.28	58.69
784.456	59.28
784.633	58.02
784.809	59.49
784.986	59.48
785.162	58.41
785.339	57.94
785.515	58.03
785.692	57.85
785.868	57.73
786.044	55.81
786.221	55.55
786.397	55.25
786.573	54.93
786.749	54.49
786.926	55.87
787.102	55.28
787.278	55.88
787.454	54.78
787.631	53.17
787.807	54.93
787.983	54.36
788.159	55.38
788.335	56.14
788.511	57.38
788.687	59.36
788.863	58.59
789.039	58.84
789.216	59.05
789.392	58.71
789.568	58.19
789.744	57.24
789.919	58.33
790.095	58.8
790.271	57.61
790.447	56.96
790.623	55.37
790.799	54.91
790.975	56.08
791.151	56.16
791.327	56.06
791.502	57.19
791.678	55.97
791.854	58.29
792.03	58.15
792.205	58.47
792.381	58.88
792.557	60.73
792.733	61.58
792.908	62.65
793.084	64.18
793.259	62.96
793.435	62.86
793.611	63.91
793.786	61.54
793.962	60.23
794.137	60.47
794.313	60.88
794.488	58.19
794.664	59.65
794.839	57.58
795.015	55.84
795.19	57.79
795.366	57.55
795.541	56.75
795.716	56.95
795.892	57.66
796.067	58.11
796.242	57.06
796.418	57.44
796.593	54.9
796.768	56.74
796.944	56.24
797.119	55.68
797.294	56.37
797.469	55.79
797.644	54.95
797.82	53.61
797.995	51.79
798.17	51.44
798.345	50.5
798.52	49.96
798.695	48.53
798.87	48.99
799.045	52
799.22	51.62
799.395	54.51
799.57	56.4
799.745	58.25
799.92	57.66
800.095	58.87
800.27	60.46
800.445	63.13
800.62	63
800.795	63.65
800.97	61.14
801.145	61.16
801.319	57.68
801.494	55.2
801.669	54.62
801.844	57.91
802.018	58.39
802.193	59.21
802.368	57.83
802.543	59.25
802.717	57.98
802.892	56.07
803.067	56.52
803.241	58.04
803.416	60.51
803.59	59.44
803.765	58.38
803.94	57.25
804.114	55.47
804.289	55.71
804.463	55.63
804.638	54.46
804.812	55.91
804.986	55.77
805.161	56.98
805.335	55.06
805.51	57.5
805.684	56.5
805.858	59.18
806.033	59.06
806.207	59.43
806.381	59.39
806.556	61
806.73	63.36
806.904	64.53
807.078	65.65
807.253	68.61
807.427	68.54
807.601	70.64
807.775	67.37
807.949	69.67
808.123	69.09
808.298	67.77
808.472	69.2
808.646	65.78
808.82	64.72
808.994	63.4
809.168	61.95
809.342	58.7
809.516	58.1
809.69	58.22
809.864	56.95
810.038	59.5
810.212	58.33
810.385	58.22
810.559	60.51
810.733	59.95
810.907	57.86
811.081	58.55
811.255	57.75
811.428	58.73
811.602	60.81
811.776	60.89
811.95	58.9
812.123	61.19
812.297	58.47
812.471	57.27
812.644	57.04
812.818	58.64
812.992	57.03
813.165	60.83
813.339	60.17
813.512	59.33
813.686	56.56
813.86	56.81
814.033	55.92
814.207	59.96
814.38	58.62
814.554	58.99
814.727	60.82
814.9	63.04
815.074	61.93
815.247	61.36
815.421	58.89
815.594	59.8
815.767	58.77
815.941	58.26
816.114	55.5
816.287	57.67
816.46	56.57
816.634	53.77
816.807	50.05
816.98	50.78
817.153	47.97
817.327	51.03
817.5	53.05
817.673	56.24
817.846	54.86
818.019	55.69
818.192	57.06
818.365	56.19
818.538	54.87
818.711	54.74
818.884	54.49
819.057	55.03
819.23	55.46
819.403	54.79
819.576	53.79
819.749	55.3
819.922	55.91
820.095	55.66
820.268	56.8
820.441	57.52
820.614	57.15
820.786	56.09
820.959	57.03
821.132	58.35
821.305	58.09
821.477	57.28
821.65	57.54
821.823	56.6
821.996	55.91
822.168	55.96
822.341	55.57
822.514	55.53
822.686	55.35
822.859	55.32
823.031	54.81
823.204	55.15
823.376	54.95
823.549	55.01
823.722	55.39
823.894	55.14
824.067	55.29
824.239	55.69
824.411	56.27
824.584	56.76
824.756	56.47
824.929	56.24
825.101	56.12
825.273	56.73
825.446	56.31
825.618	55.48
825.79	55.71
825.963	55.5
826.135	56.3
826.307	55.88
826.479	55.87
826.652	56.42
826.824	56.28
826.996	55.44
827.168	55.29
827.34	55.82
827.512	57.15
827.684	57.8
827.856	57.93
828.029	56.75
828.201	56.4
828.373	56.71
828.545	57.38
828.717	58.35
828.889	58.8
829.061	58.76
829.232	58.92
829.404	59.03
829.576	58.79
829.748	58.81
829.92	59.63
830.092	61.35
830.264	60.74
830.436	59.32
830.607	58.51
830.779	58.25
830.951	58.93
831.123	58.54
831.294	56.37
831.466	57.23
831.638	58.21
831.809	58.28
831.981	57.13
832.153	57.32
832.324	60.42
832.496	60.47
832.667	63.26
832.839	60.55
833.011	60.76
833.182	60.87
833.354	59.72
833.525	57.24
833.697	55.04
833.868	55.14
834.039	55.27
834.211	53.14
834.382	52.8
834.554	53.32
834.725	54.46
834.896	53.31
835.068	52.16
835.239	51.77
835.41	53.31
835.581	54.89
835.753	54.91
835.924	54.79
836.095	55.11
836.266	55.56
836.438	54.14
836.609	54.77
836.78	57.01
836.951	59.82
837.122	58.43
837.293	55.61
837.464	54.26
837.635	55.02
837.806	55.99
837.977	54.77
838.148	55.09
838.319	54.7
838.49	52.65
838.661	52.79
838.832	51.21
839.003	53.98
839.174	60.17
839.345	63.32
839.516	61.05
839.687	63.99
839.857	64.52
840.028	65.44
840.199	66.53
840.37	69.87
840.54	65.62
840.711	66.92
840.882	68.11
841.053	65.09
841.223	61.87
841.394	62.87
841.564	61.71
841.735	59.81
841.906	62.53
842.076	64.62
842.247	60.21
842.417	64.42
842.588	65.15
842.758	63.23
842.929	59.78
843.099	59.15
843.27	62.9
843.44	57.93
843.611	63.65
843.781	58.4
843.951	57.79
844.122	60.6
844.292	55.63
844.462	52.06
844.633	52.51
844.803	56.21
844.973	57.07
845.144	55.26
845.314	59
845.484	59.04
845.654	56.79
845.824	53.61
845.995	53.22
846.165	54.31
846.335	59.13
846.505	62.53
846.675	62.15
846.845	67.11
847.015	61.39
847.185	59.96
847.355	60.67
847.525	70.84
847.695	77.93
847.865	84.9
848.035	89.87
848.205	84.1
848.375	89.73
848.545	88
848.715	84.45
848.884	87.76
849.054	83.51
849.224	78.41
849.394	79.35
849.564	77.16
849.733	67.36
849.903	74.78
850.073	75.74
850.243	70.56
850.412	73.41
850.582	68.57
850.752	66.58
850.921	67.65
851.091	66.24
851.26	65.63
851.43	66.71
851.599	71.69
851.769	68.42
851.939	71.4
852.108	69.5
852.278	68.85
852.447	75.54
852.616	76.12
852.786	78.7
852.955	77.84
853.125	68.83
853.294	73.41
853.463	69.26
853.633	65.49
853.802	77.35
853.971	82.05
854.141	83.28
854.31	77.75
854.479	83.27
854.648	76.89
854.818	76.03
854.987	81.01
855.156	58.89
855.325	61.58
855.494	56.11
855.663	42.63
855.832	34.56
856.001	30.75
856.171	31.9
856.34	30.68
856.509	37.93
856.678	45.56
856.847	51.48
857.016	65.26
857.185	70.34
857.353	68.06
857.522	65.66
857.691	67.04
857.86	62.2
858.029	61.07
858.198	59.48
858.367	52.98
858.535	48.34
858.704	48.44
858.873	40.07
859.042	28.89
859.21	37.59
859.379	29.71
859.548	30.38
859.717	35.07
859.885	48.71
860.054	51.94
860.222	51.41
860.391	58.26
860.56	55.6
860.728	57.72
860.897	64.02
861.065	57.86
861.234	64.85
861.402	67.99
861.571	74.79
861.739	63.61
861.908	65.04
862.076	66.7
862.244	67.8
862.413	72.64
862.581	79.28
862.749	82.44
862.918	77.9
863.086	79.39
863.254	74.79
863.423	67.13
863.591	72.66
863.759	73.73
863.927	81.99
864.096	80.14
864.264	79.14
864.432	66.19
864.6	67.2
864.768	77.91
864.936	78.36
865.104	77.84
865.272	79.55
865.44	83.26
865.608	73.62
865.776	68.88
865.944	67.97
866.112	64.3
866.28	82.23
866.448	88.43
866.616	82.66
866.784	78.8
866.952	83.5
867.12	81.42
867.288	85.02
867.455	89.53
867.623	87.99
867.791	83.8
867.959	87.05
868.127	77.53
868.294	75.89
868.462	83.8
868.63	82.99
868.797	77.58
868.965	81.28
869.133	70.28
869.3	69.09
869.468	62.85
869.636	59.23
869.803	52.69
869.971	51.48
870.138	44.07
870.306	43.6
870.473	34.68
870.641	37.68
870.808	38.55
870.975	38.89
871.143	34.51
871.31	37.02
871.478	43.41
871.645	63.68
871.812	76.17
871.98	73.23
872.147	66.88
872.314	85.22
872.482	79.25
872.649	79.51
872.816	85.06
872.983	83.72
873.15	67.87
873.318	62.26
873.485	49.27
873.652	44.66
873.819	51.82
873.986	47.01
874.153	48.97
874.32	50.89
874.487	55.06
874.654	53.92
874.821	55.09
874.988	65.94
875.155	70.5
875.322	65.44
875.489	69.78
875.656	71.97
875.823	73.37
875.99	71.87
876.157	72.02
876.324	74.11
876.49	66.77
876.657	72.68
876.824	90.42
876.991	93.18
877.157	99.08
877.324	96.89
877.491	100.95
877.658	105.01
877.824	107.76
877.991	103.3
878.157	98.65
878.324	111.45
878.491	107.67
878.657	93.08
878.824	99.81
878.99	96.44
879.157	93.61
879.323	78.78
879.49	76.64
879.656	61.1
879.823	58.71
879.989	53.16
880.156	52.41
880.322	55.74
880.488	54.35
880.655	46.93
880.821	45.84
880.987	49.63
881.154	54.62
881.32	58.82
881.486	66.99
881.652	64.23
881.819	64.89
881.985	60.91
882.151	58.13
882.317	56.96
882.483	55.75
882.649	56.94
882.816	55.02
882.982	53.8
883.148	52.69
883.314	53.22
883.48	53.98
883.646	54.83
883.812	55.99
883.978	55.63
884.144	55.64
884.31	56.31
884.476	55.53
884.642	56.46
884.807	56.49
884.973	57.75
885.139	56.44
885.305	55.76
885.471	55.12
885.637	54.85
885.802	55.77
885.968	56.25
886.134	56.77
886.3	58.49
886.465	59.51
886.631	58.4
886.797	56.84
886.962	58.33
887.128	62.34
887.293	62.85
887.459	61.49
887.625	60.73
887.79	63.66
887.956	65.11
888.121	64.57
888.287	59.14
888.452	64.12
888.618	66.25
888.783	67.01
