Data from LC_267_Reflection_1.txt Node
Date: Sat Nov 21 11:56:13 EST 2015
User: robert
Spectrometer: USB4E03001
Autoset integration time: false
Trigger mode: 4
Integration Time (sec): 1.000000E-1
Scans to average: 15
Electric dark correction enabled: true
Nonlinearity correction enabled: false
Boxcar width: 5
Stray light correction enabled: false
XAxis mode: Wavelengths
Stop averaging: false
Number of Pixels in Spectrum: 3648
>>>>>Begin Spectral Data<<<<<
177.566	49.06
177.785	60.5
178.005	159.84
178.225	-12.54
178.445	-68.51
178.665	-121.18
178.885	-81.44
179.105	68.69
179.324	82.8
179.544	200
179.764	652.32
179.984	111.96
180.204	123.27
180.423	85.33
180.643	88.11
180.863	105.55
181.083	127.82
181.302	147.3
181.522	126.69
181.742	110.78
181.961	95.92
182.181	82.53
182.401	159.89
182.621	141.79
182.84	187.87
183.06	163.49
183.279	150.2
183.499	124.99
183.719	105.4
183.938	106.1
184.158	127.98
184.377	106.68
184.597	125.34
184.816	112.83
185.036	101.04
185.256	97.11
185.475	76.57
185.695	68.54
185.914	71.52
186.134	80.47
186.353	97.55
186.572	94.46
186.792	90.26
187.011	79.82
187.231	78.43
187.45	88.57
187.67	90.42
187.889	103.17
188.108	146.77
188.328	212.01
188.547	223.68
188.766	201.54
188.986	206.97
189.205	332.62
189.424	421.46
189.644	152.43
189.863	109.38
190.082	145.17
190.302	-192.45
190.521	-75.44
190.74	-67.08
190.959	-75.38
191.178	-28.69
191.398	-15.54
191.617	-22.32
191.836	-0.63
192.055	12.37
192.274	19.52
192.494	17.58
192.713	21.13
192.932	59.38
193.151	34.4
193.37	47.03
193.589	31.78
193.808	37.5
194.027	66.12
194.246	70.63
194.465	59.85
194.685	74.1
194.904	79.19
195.123	74.3
195.342	62.12
195.561	90.78
195.78	43.38
195.999	51.75
196.218	82.97
196.436	91.4
196.655	79.15
196.874	108.77
197.093	120.32
197.312	136.91
197.531	173.66
197.75	143.02
197.969	117.24
198.188	130.75
198.407	135.65
198.625	124.59
198.844	112.4
199.063	109.13
199.282	94.69
199.501	105.55
199.719	74.31
199.938	34.4
200.157	35.25
200.376	45.26
200.594	56.17
200.813	46.44
201.032	40.06
201.251	31.36
201.469	46.06
201.688	77.65
201.907	44.87
202.125	72.89
202.344	93.28
202.563	104.61
202.781	94.85
203	116.4
203.218	110.85
203.437	165.19
203.656	329.74
203.874	248.17
204.093	85.52
204.311	89.89
204.53	123.67
204.748	36.21
204.967	70.7
205.185	72.84
205.404	57.58
205.622	165.31
205.841	110.76
206.059	73.39
206.278	21.8
206.496	17.67
206.715	38.71
206.933	90.88
207.151	124.46
207.37	82.06
207.588	93.33
207.806	82.75
208.025	20.46
208.243	39.2
208.461	33.36
208.68	92.66
208.898	138.4
209.116	89.83
209.335	84.19
209.553	84.98
209.771	81.58
209.989	76.6
210.208	65.55
210.426	132.71
210.644	94.34
210.862	132.82
211.081	-8.07
211.299	-21.14
211.517	39.78
211.735	1.65
211.953	24.63
212.171	37.99
212.39	37.89
212.608	38.85
212.826	38.2
213.044	55.31
213.262	37.98
213.48	40.49
213.698	51.12
213.916	34.52
214.134	55.89
214.352	48.53
214.57	52.3
214.788	59.2
215.006	70.91
215.224	60.01
215.442	50.15
215.66	82.36
215.878	66.46
216.096	74.39
216.314	99.54
216.532	91.14
216.75	91.47
216.968	101.03
217.185	95.9
217.403	103.76
217.621	97.49
217.839	87.96
218.057	90.93
218.275	98.27
218.492	76.65
218.71	58.5
218.928	68.31
219.146	47.75
219.363	41.81
219.581	10.37
219.799	16.67
220.017	37.91
220.234	50.2
220.452	46.22
220.67	57.12
220.887	73.84
221.105	79.54
221.323	71.83
221.54	68.93
221.758	71.09
221.976	60.89
222.193	72.41
222.411	73.62
222.629	66.19
222.846	68.1
223.064	68.89
223.281	57.1
223.499	34.47
223.716	42.11
223.934	48.12
224.151	27.04
224.369	28.47
224.586	26.5
224.804	25.58
225.021	16.8
225.239	18.98
225.456	14.96
225.674	19.07
225.891	35.14
226.108	30.13
226.326	30.52
226.543	36.14
226.76	32.73
226.978	25.16
227.195	24.04
227.413	20.25
227.63	18.23
227.847	19.37
228.064	16.64
228.282	12.49
228.499	14.89
228.716	14.1
228.934	14.64
229.151	13.91
229.368	14.31
229.585	12.2
229.802	13.92
230.02	13.97
230.237	13.86
230.454	15.44
230.671	17.36
230.888	16.06
231.105	14.57
231.323	15.13
231.54	17.65
231.757	17.81
231.974	21.55
232.191	19.38
232.408	21.42
232.625	17.03
232.842	14.97
233.059	14.14
233.276	18.52
233.493	23.38
233.71	24.26
233.927	22.53
234.144	18.95
234.361	19.17
234.578	22.34
234.795	22.94
235.012	24.71
235.229	23.77
235.446	21.57
235.663	15.25
235.879	9.41
236.096	8.84
236.313	9.36
236.53	11.73
236.747	9.75
236.964	5.06
237.181	4.69
237.397	5.8
237.614	5.8
237.831	4.39
238.048	5.94
238.264	12.37
238.481	8.57
238.698	8.42
238.915	8.85
239.131	5.61
239.348	7.99
239.565	7.05
239.781	7.33
239.998	9.82
240.215	12.89
240.431	11.23
240.648	5.65
240.865	6.73
241.081	5.84
241.298	7.98
241.514	12.44
241.731	14.19
241.947	13.4
242.164	14.99
242.38	13.4
242.597	12.6
242.814	12.16
243.03	14.31
243.246	14.65
243.463	15.61
243.679	14.91
243.896	13.23
244.112	12.66
244.329	14.19
244.545	12.15
244.762	13.89
244.978	14.78
245.194	15.78
245.411	15.64
245.627	13.47
245.843	11.37
246.06	11.96
246.276	11.38
246.492	11.14
246.709	10.42
246.925	11.52
247.141	10.88
247.357	10.55
247.574	9.76
247.79	9.8
248.006	10.51
248.222	10.78
248.439	10.52
248.655	11.41
248.871	12.37
249.087	12.51
249.303	11.03
249.519	11.9
249.736	12.51
249.952	14.23
250.168	13.82
250.384	14.5
250.6	15.48
250.816	15.07
251.032	15.53
251.248	14.33
251.464	14.08
251.68	15.98
251.896	15.08
252.112	14.19
252.328	11.97
252.544	12.67
252.76	11.94
252.976	12.03
253.192	13.01
253.408	12.12
253.624	10.75
253.84	11.11
254.056	8.49
254.272	7.19
254.487	7.54
254.703	10.54
254.919	10.51
255.135	11.02
255.351	10.18
255.567	8.41
255.782	6.5
255.998	9.02
256.214	5.97
256.43	9.44
256.646	9.44
256.861	6.47
257.077	6.95
257.293	6.37
257.508	6.72
257.724	8.71
257.94	9.54
258.155	10.45
258.371	10.02
258.587	9.78
258.802	8.92
259.018	9.36
259.234	10.53
259.449	9.98
259.665	9.51
259.88	9.81
260.096	9.23
260.312	10.2
260.527	10.18
260.743	10
260.958	10.85
261.174	10.26
261.389	11.03
261.605	10.99
261.82	11.35
262.036	12.3
262.251	11.71
262.466	12.84
262.682	11.08
262.897	11.7
263.113	13.23
263.328	13.69
263.543	15.24
263.759	14.52
263.974	15.21
264.189	16.61
264.405	17.41
264.62	17.83
264.835	16.66
265.051	15.96
265.266	15.19
265.481	13.94
265.696	13.84
265.912	13.8
266.127	11.84
266.342	10.69
266.557	8.81
266.773	7.95
266.988	9.09
267.203	8.81
267.418	8.22
267.633	8.44
267.848	8.41
268.064	7.01
268.279	6.63
268.494	7.49
268.709	8.26
268.924	8.6
269.139	7.67
269.354	6.15
269.569	5.41
269.784	7.39
269.999	6.58
270.214	6.78
270.429	8.19
270.644	7.6
270.859	7.57
271.074	7.18
271.289	6.6
271.504	6.53
271.719	6.97
271.934	7.55
272.149	6.75
272.363	6.46
272.578	5.19
272.793	4.22
273.008	5.7
273.223	5.84
273.438	6.59
273.653	7.83
273.867	9.87
274.082	10.16
274.297	9.64
274.512	9.48
274.726	10.74
274.941	11.72
275.156	13.97
275.371	13.01
275.585	13.59
275.8	12.51
276.015	11.78
276.229	9.38
276.444	10.3
276.659	10.98
276.873	11.92
277.088	12.09
277.302	12
277.517	9.54
277.732	9.1
277.946	8.51
278.161	9.31
278.375	8.88
278.59	10.09
278.804	8.68
279.019	8.13
279.233	7.72
279.448	6.87
279.662	7.27
279.877	7.35
280.091	7.35
280.306	7.71
280.52	8.27
280.735	9.49
280.949	8.36
281.163	7.52
281.378	7.03
281.592	6.51
281.806	7.29
282.021	7.43
282.235	8.55
282.449	9.01
282.664	7.87
282.878	7.19
283.092	7.33
283.307	8.2
283.521	8.9
283.735	9.56
283.949	9.94
284.164	8.76
284.378	7.87
284.592	6.02
284.806	6.39
285.02	7.12
285.234	7.27
285.449	6.19
285.663	6.25
285.877	6.17
286.091	6.47
286.305	5.97
286.519	6.83
286.733	6.54
286.947	7.66
287.161	7.11
287.375	7.31
287.589	6.93
287.803	7.13
288.017	7.09
288.231	7.75
288.445	8.39
288.659	9.36
288.873	9.01
289.087	10.33
289.301	10.15
289.515	10.82
289.729	11.15
289.943	10.99
290.157	12.06
290.371	11.76
290.584	11.33
290.798	10.64
291.012	10.05
291.226	9.89
291.44	9.39
291.654	9.75
291.867	9.36
292.081	9.52
292.295	10.13
292.509	9.98
292.722	10.55
292.936	11.4
293.15	10.75
293.364	11.28
293.577	11.15
293.791	11.27
294.005	11.4
294.218	10.9
294.432	9.42
294.645	10.46
294.859	9.79
295.073	8.66
295.286	7.31
295.5	7.98
295.713	8.43
295.927	8.44
296.14	8.63
296.354	8.35
296.568	9.19
296.781	10.24
296.994	9.3
297.208	9.21
297.421	9.77
297.635	10.91
297.848	10.73
298.062	10.5
298.275	10.88
298.489	10.29
298.702	10
298.915	9.52
299.129	8.9
299.342	9.14
299.555	9.18
299.769	8.76
299.982	7.91
300.195	8.34
300.409	7.99
300.622	8.11
300.835	9.62
301.048	10.77
301.262	10.4
301.475	10.86
301.688	10.59
301.901	10.34
302.115	9.65
302.328	9.73
302.541	8.85
302.754	9.31
302.967	9.58
303.18	8.75
303.393	8.47
303.607	8.83
303.82	7.76
304.033	6.61
304.246	6.98
304.459	8.54
304.672	8.78
304.885	10.23
305.098	10.87
305.311	10.16
305.524	9.71
305.737	9.33
305.95	8.71
306.163	9.71
306.376	10.64
306.589	10.25
306.802	9.35
307.015	8.56
307.228	8.59
307.44	8.03
307.653	9.52
307.866	10.12
308.079	9.28
308.292	9.52
308.505	8.95
308.718	9.4
308.93	9.63
309.143	8.81
309.356	8.55
309.569	7.91
309.781	8.17
309.994	6.81
310.207	7.4
310.42	8.09
310.632	7.6
310.845	6.98
311.058	6.59
311.27	7.03
311.483	8.43
311.696	8.98
311.908	8.46
312.121	8.28
312.333	9.45
312.546	9.42
312.759	9.6
312.971	10.91
313.184	12.26
313.396	13.26
313.609	12.53
313.821	12.03
314.034	11.96
314.246	12.99
314.459	12.81
314.671	11.2
314.884	10.75
315.096	10.38
315.309	9.02
315.521	9.3
315.733	8.65
315.946	10.08
316.158	8.34
316.371	9.28
316.583	8.82
316.795	8.87
317.008	10.34
317.22	9.45
317.432	9.61
317.644	10.19
317.857	8.79
318.069	7.14
318.281	6.97
318.494	9.2
318.706	9.06
318.918	8.65
319.13	7.88
319.342	7.49
319.555	8.15
319.767	8.36
319.979	8.67
320.191	9.35
320.403	10.81
320.615	8.98
320.827	8.29
321.039	6.97
321.252	6.5
321.464	5.91
321.676	3.94
321.888	3.62
322.1	2.82
322.312	3.22
322.524	3.05
322.736	3.63
322.948	6.07
323.16	6.06
323.372	7.15
323.584	8.78
323.796	9.88
324.007	10.7
324.219	10.61
324.431	10.7
324.643	10.98
324.855	10.48
325.067	10.35
325.279	9.5
325.491	9.22
325.702	8.23
325.914	8.24
326.126	7.97
326.338	6.76
326.55	7.35
326.761	7.19
326.973	7.34
327.185	7.71
327.396	7.33
327.608	6.34
327.82	7.1
328.032	7.24
328.243	5.59
328.455	5.91
328.666	7.33
328.878	7.86
329.09	8.14
329.301	8.05
329.513	8.34
329.725	8.83
329.936	9.58
330.148	9.27
330.359	9.62
330.571	9.87
330.782	9.58
330.994	8.65
331.205	7.58
331.417	8.42
331.628	8.3
331.84	8.49
332.051	8.06
332.262	8.63
332.474	8.58
332.685	8.52
332.897	8.74
333.108	8.17
333.319	9.59
333.531	9.68
333.742	9.27
333.953	8.71
334.165	8.16
334.376	7.55
334.587	7.38
334.799	7.65
335.01	8.02
335.221	8.49
335.432	8.63
335.644	7.68
335.855	8.27
336.066	7.47
336.277	7.36
336.488	6.82
336.7	6.8
336.911	6.81
337.122	6.64
337.333	6.96
337.544	6.63
337.755	7.1
337.966	7.44
338.177	7.03
338.388	7.85
338.599	7.69
338.811	8.41
339.022	9.1
339.233	8.54
339.444	8.78
339.655	8.08
339.866	8.14
340.076	7.81
340.287	7.73
340.498	8.08
340.709	7.92
340.92	8.59
341.131	9.12
341.342	8.41
341.553	9.51
341.764	9.59
341.975	10.01
342.185	9.58
342.396	9.51
342.607	9.78
342.818	9.56
343.029	9.66
343.239	10
343.45	8.82
343.661	9.3
343.872	8.04
344.082	8.53
344.293	7.82
344.504	8.37
344.714	8.37
344.925	7.99
345.136	7.53
345.346	7.46
345.557	6.94
345.768	7.04
345.978	6.41
346.189	6.57
346.399	5.15
346.61	5.32
346.821	5.41
347.031	5.32
347.242	5.87
347.452	6.33
347.663	5.85
347.873	5.78
348.084	6.78
348.294	7.18
348.504	7.54
348.715	8.18
348.925	8.83
349.136	8.04
349.346	8.49
349.557	7.6
349.767	7.76
349.977	7.88
350.188	7.34
350.398	6.4
350.608	6.25
350.819	6.6
351.029	6.16
351.239	6.05
351.449	6.44
351.66	6.33
351.87	7.27
352.08	7.1
352.29	7.55
352.501	7.19
352.711	7.45
352.921	7.83
353.131	7.38
353.341	7.41
353.552	7.3
353.762	7.27
353.972	7.24
354.182	6.91
354.392	6.27
354.602	5.7
354.812	6.9
355.022	6.94
355.232	7.1
355.442	6.67
355.652	7.33
355.862	7.2
356.072	6.94
356.282	6.18
356.492	5.91
356.702	5.64
356.912	6.2
357.122	5.29
357.332	4.83
357.542	4.26
357.752	4.41
357.962	4.24
358.171	3.83
358.381	3.95
358.591	4.57
358.801	4.89
359.011	5.52
359.221	5.11
359.43	5.6
359.64	5.86
359.85	6.03
360.06	6.26
360.269	6.75
360.479	6.92
360.689	6.92
360.899	6.71
361.108	6.25
361.318	5.96
361.528	6.15
361.737	6.34
361.947	6.38
362.156	6.63
362.366	6.58
362.576	5.86
362.785	5.42
362.995	5.68
363.204	5.51
363.414	5.47
363.623	5.74
363.833	5.52
364.042	5.05
364.252	5.02
364.461	4.58
364.671	4.43
364.88	4.74
365.09	5.01
365.299	4.99
365.509	4.92
365.718	5.2
365.927	5.48
366.137	4.85
366.346	5.2
366.555	4.99
366.765	5.26
366.974	5.13
367.183	5.27
367.393	5.59
367.602	5.42
367.811	6.21
368.021	6.05
368.23	5.39
368.439	6
368.648	5.39
368.857	5.88
369.067	5.84
369.276	6.38
369.485	5.54
369.694	5.31
369.903	5.13
370.112	4.49
370.321	4.86
370.531	4.49
370.74	4.48
370.949	4.87
371.158	5.36
371.367	5.35
371.576	5.49
371.785	5.75
371.994	5.75
372.203	6.01
372.412	6.23
372.621	5.97
372.83	6.23
373.039	6.62
373.248	6.59
373.457	5.93
373.666	5.53
373.874	4.61
374.083	5.25
374.292	5.16
374.501	5.2
374.71	4.6
374.919	4.6
375.128	5.14
375.336	5.01
375.545	5.18
375.754	5.28
375.963	5.6
376.171	5.92
376.38	5.68
376.589	5.52
376.798	5.33
377.006	5.91
377.215	6.12
377.424	5.81
377.632	5.86
377.841	5.64
378.05	5.73
378.258	5.38
378.467	5.15
378.675	4.99
378.884	4.9
379.093	4.84
379.301	4.86
379.51	4.84
379.718	5.11
379.927	5.17
380.135	5.26
380.344	5.29
380.552	4.95
380.761	5.05
380.969	5.37
381.177	5.69
381.386	5.41
381.594	4.97
381.803	4.61
382.011	4.54
382.219	4.25
382.428	3.9
382.636	3.7
382.845	4.44
383.053	4.75
383.261	4.68
383.469	4.52
383.678	4.69
383.886	4.78
384.094	4.75
384.302	4.09
384.511	4.04
384.719	4.51
384.927	4.71
385.135	4.82
385.343	4.49
385.552	4.45
385.76	4.8
385.968	4.74
386.176	4.78
386.384	4.96
386.592	5.24
386.8	5.22
387.008	5.26
387.216	5.14
387.424	5.12
387.633	5.3
387.841	5.05
388.049	4.98
388.257	4.81
388.465	4.71
388.672	4.62
388.88	4.68
389.088	4.55
389.296	4.14
389.504	3.87
389.712	3.53
389.92	3.28
390.128	3.6
390.336	3.78
390.544	4.06
390.751	4.36
390.959	4.47
391.167	4.42
391.375	4.54
391.583	4.36
391.79	4.16
391.998	4.21
392.206	4.59
392.414	4
392.621	3.56
392.829	3.37
393.037	3.2
393.244	3.22
393.452	3.27
393.66	3.21
393.867	3.48
394.075	4.12
394.283	3.93
394.49	3.8
394.698	4.27
394.905	4.58
395.113	4.65
395.32	4.68
395.528	4.49
395.735	4.54
395.943	4.55
396.15	4.34
396.358	3.71
396.565	4.05
396.773	3.91
396.98	3.85
397.188	3.73
397.395	3.55
397.602	3.37
397.81	3.3
398.017	3.16
398.225	3.26
398.432	3.54
398.639	3.66
398.847	3.35
399.054	3.37
399.261	3.47
399.468	3.72
399.676	4.05
399.883	4.14
400.09	4.25
400.297	4.36
400.505	4.23
400.712	4
400.919	4.1
401.126	4.38
401.333	4.29
401.54	4.29
401.748	3.67
401.955	3.64
402.162	3.63
402.369	3.62
402.576	3.47
402.783	3.4
402.99	3.4
403.197	3.63
403.404	3.58
403.611	3.68
403.818	3.52
404.025	3.54
404.232	3.51
404.439	3.37
404.646	3.37
404.853	3.71
405.06	3.73
405.267	3.98
405.474	3.63
405.681	3.44
405.887	3.35
406.094	3.2
406.301	3.38
406.508	3.16
406.715	3.29
406.922	3.14
407.128	3.15
407.335	3.07
407.542	2.97
407.749	2.99
407.955	3.06
408.162	3.01
408.369	3.2
408.575	3.4
408.782	3.56
408.989	3.68
409.195	3.87
409.402	3.56
409.609	3.43
409.815	3.03
410.022	3.19
410.228	3.15
410.435	3.06
410.642	2.89
410.848	2.82
411.055	2.81
411.261	2.45
411.468	2.26
411.674	2.12
411.881	2.2
412.087	2.67
412.294	2.77
412.5	2.74
412.706	2.83
412.913	2.88
413.119	2.98
413.326	3.01
413.532	3.25
413.738	3.45
413.945	3.61
414.151	3.51
414.357	3.15
414.564	3.34
414.77	3.74
414.976	3.71
415.182	3.93
415.389	3.84
415.595	3.83
415.801	3.85
416.007	3.67
416.214	3.58
416.42	3.73
416.626	4.03
416.832	3.76
417.038	3.47
417.244	3.62
417.45	3.46
417.657	3.36
417.863	3.17
418.069	3.16
418.275	3.31
418.481	3.38
418.687	3.32
418.893	3.06
419.099	2.92
419.305	2.89
419.511	2.87
419.717	2.79
419.923	2.79
420.129	2.9
420.335	2.86
420.541	2.72
420.746	2.66
420.952	2.74
421.158	2.78
421.364	3
421.57	3.06
421.776	3.07
421.982	3.14
422.187	3.07
422.393	2.99
422.599	2.94
422.805	3.15
423.01	3.13
423.216	3.18
423.422	3.24
423.628	3.21
423.833	3.18
424.039	3.18
424.245	3.25
424.45	3.33
424.656	3.4
424.862	3.55
425.067	3.5
425.273	3.62
425.478	3.62
425.684	3.77
425.889	3.71
426.095	3.69
426.301	3.75
426.506	3.66
426.712	3.56
426.917	3.5
427.123	3.43
427.328	3.38
427.533	3.41
427.739	3.33
427.944	3.01
428.15	2.73
428.355	2.92
428.561	2.91
428.766	2.85
428.971	2.98
429.177	3.05
429.382	3.19
429.587	2.95
429.793	3.05
429.998	3.26
430.203	3.44
430.408	3.78
430.614	3.52
430.819	3.39
431.024	3.48
431.229	3.45
431.434	3.51
431.64	3.24
431.845	3.44
432.05	3.33
432.255	3.07
432.46	3.02
432.665	2.91
432.87	2.92
433.076	2.9
433.281	2.87
433.486	2.76
433.691	2.76
433.896	2.64
434.101	2.45
434.306	2.34
434.511	2.36
434.716	2.25
434.921	2.19
435.126	2.16
435.331	2.29
435.535	2.22
435.74	2.29
435.945	2.25
436.15	2.3
436.355	2.47
436.56	2.45
436.765	2.57
436.97	2.51
437.174	2.5
437.379	2.8
437.584	2.62
437.789	2.68
437.993	2.78
438.198	2.76
438.403	2.75
438.608	2.68
438.812	2.61
439.017	2.48
439.222	2.66
439.426	2.72
439.631	2.59
439.836	2.58
440.04	2.62
440.245	2.57
440.45	2.63
440.654	2.59
440.859	2.6
441.063	2.56
441.268	2.66
441.472	2.72
441.677	2.76
441.881	2.91
442.086	2.95
442.29	2.96
442.495	2.95
442.699	2.92
442.904	3.1
443.108	3.12
443.312	3.3
443.517	3.16
443.721	3.09
443.925	2.83
444.13	2.47
444.334	2.51
444.538	2.51
444.743	2.43
444.947	2.43
445.151	2.36
445.356	2.29
445.56	2.24
445.764	2.23
445.968	2.13
446.173	2.28
446.377	2.4
446.581	2.36
446.785	2.23
446.989	2.18
447.193	2.18
447.398	2.19
447.602	2.24
447.806	2.24
448.01	2.25
448.214	2.34
448.418	2.26
448.622	2.19
448.826	2.15
449.03	2.28
449.234	2.51
449.438	2.33
449.642	2.2
449.846	2.18
450.05	2.19
450.254	2.24
450.458	2
450.662	2.2
450.866	2.17
451.069	2.27
451.273	2.2
451.477	2.04
451.681	2.05
451.885	2.18
452.089	2.24
452.292	2.36
452.496	2.25
452.7	2.41
452.904	2.24
453.107	2.31
453.311	2.06
453.515	2.02
453.719	2.02
453.922	2.13
454.126	2.13
454.33	2.08
454.533	1.9
454.737	1.96
454.94	2.02
455.144	2.23
455.348	2.26
455.551	2.47
455.755	2.6
455.958	2.65
456.162	2.7
456.365	2.72
456.569	2.84
456.772	2.8
456.976	2.78
457.179	2.72
457.383	2.47
457.586	2.38
457.79	2.36
457.993	2.36
458.196	2.44
458.4	2.36
458.603	2.27
458.807	2.19
459.01	2.34
459.213	2.39
459.417	2.41
459.62	2.51
459.823	2.54
460.026	2.53
460.23	2.39
460.433	2.26
460.636	2.33
460.839	2.46
461.042	2.6
461.246	2.48
461.449	2.62
461.652	2.6
461.855	2.6
462.058	2.67
462.261	2.66
462.464	2.82
462.668	2.85
462.871	2.87
463.074	2.72
463.277	2.63
463.48	2.73
463.683	2.52
463.886	2.52
464.089	2.54
464.292	2.38
464.495	2.23
464.698	2.23
464.901	2.47
465.104	2.6
465.306	2.83
465.509	2.78
465.712	2.59
465.915	2.53
466.118	2.52
466.321	2.31
466.524	2.35
466.726	2.63
466.929	2.71
467.132	2.57
467.335	2.52
467.538	2.4
467.74	2.38
467.943	2.54
468.146	2.57
468.348	2.71
468.551	2.89
468.754	2.93
468.956	2.81
469.159	2.8
469.362	2.78
469.564	2.68
469.767	2.61
469.969	2.55
470.172	2.54
470.375	2.68
470.577	2.65
470.78	2.63
470.982	2.71
471.185	2.66
471.387	2.61
471.59	2.59
471.792	2.68
471.995	2.7
472.197	2.79
472.399	2.86
472.602	2.66
472.804	2.43
473.007	2.29
473.209	2.33
473.411	2.37
473.614	2.32
473.816	2.17
474.018	2.08
474.22	2.04
474.423	1.96
474.625	1.88
474.827	2.01
475.03	2.24
475.232	2.59
475.434	2.49
475.636	2.54
475.838	2.59
476.04	2.75
476.243	2.76
476.445	2.82
476.647	2.86
476.849	2.75
477.051	2.69
477.253	2.69
477.455	2.5
477.657	2.4
477.859	2.4
478.061	2.32
478.263	2.35
478.465	2.35
478.667	2.27
478.869	2.23
479.071	2.37
479.273	2.34
479.475	2.29
479.677	2.14
479.879	2.26
480.081	2.32
480.283	2.38
480.485	2.25
480.686	2.2
480.888	2.28
481.09	2.24
481.292	2.15
481.494	2.19
481.695	2.15
481.897	2.23
482.099	2.17
482.301	2.08
482.502	2.08
482.704	2.12
482.906	2.11
483.107	2.09
483.309	2.14
483.511	2.17
483.712	2.18
483.914	2.22
484.115	2.21
484.317	2.26
484.519	2.28
484.72	2.25
484.922	2.26
485.123	2.27
485.325	2.3
485.526	2.29
485.728	2.28
485.929	2.33
486.131	2.27
486.332	2.27
486.534	2.2
486.735	2.16
486.936	2.17
487.138	2.14
487.339	2.21
487.541	2.21
487.742	2.26
487.943	2.31
488.144	2.19
488.346	2.21
488.547	2.21
488.748	2.18
488.95	2.21
489.151	2.19
489.352	2.21
489.553	2.18
489.755	2.15
489.956	2.16
490.157	2.07
490.358	2.08
490.559	2.16
490.76	2.16
490.961	2.22
491.163	2.25
491.364	2.33
491.565	2.32
491.766	2.24
491.967	2.22
492.168	2.11
492.369	2.09
492.57	2.16
492.771	2.14
492.972	2.11
493.173	2.11
493.374	2.08
493.575	1.97
493.776	1.96
493.976	2.05
494.177	2.12
494.378	2.24
494.579	2.51
494.78	2.51
494.981	2.54
495.182	2.57
495.382	2.65
495.583	2.63
495.784	2.66
495.985	2.69
496.185	2.71
496.386	2.6
496.587	2.51
496.788	2.35
496.988	2.29
497.189	2.26
497.39	2.23
497.59	2.22
497.791	2.26
497.992	2.27
498.192	2.34
498.393	2.32
498.593	2.4
498.794	2.45
498.994	2.43
499.195	2.35
499.395	2.45
499.596	2.49
499.796	2.58
499.997	2.7
500.197	2.76
500.398	2.53
500.598	2.48
500.799	2.49
500.999	2.5
501.199	2.43
501.4	2.56
501.6	2.44
501.801	2.46
502.001	2.44
502.201	2.46
502.402	2.55
502.602	2.88
502.802	2.94
503.002	2.99
503.203	3.09
503.403	3.12
503.603	3.22
503.803	3.33
504.003	3.4
504.204	3.32
504.404	3.26
504.604	3.18
504.804	3.27
505.004	3.29
505.204	3.39
505.404	3.27
505.604	3.34
505.804	3.3
506.005	3.14
506.205	3.24
506.405	3.23
506.605	3.22
506.805	3.26
507.005	2.98
507.204	2.9
507.404	2.74
507.604	2.91
507.804	2.8
508.004	2.83
508.204	3.09
508.404	2.96
508.604	2.98
508.804	2.98
509.003	3.03
509.203	3.14
509.403	3.23
509.603	3.24
509.803	3.21
510.002	3.36
510.202	3.35
510.402	3.18
510.602	3.13
510.801	3.21
511.001	3.24
511.201	3.13
511.4	3.14
511.6	3.03
511.8	3.16
511.999	3.15
512.199	3.18
512.398	3.16
512.598	3.29
512.797	3.43
512.997	3.25
513.197	3.2
513.396	3.46
513.596	3.44
513.795	3.54
513.994	3.46
514.194	3.39
514.393	3.32
514.593	3.22
514.792	3.12
514.992	3.17
515.191	3.43
515.39	3.46
515.59	3.5
515.789	3.57
515.988	3.62
516.188	3.76
516.387	3.96
516.586	4.15
516.786	4.38
516.985	4.42
517.184	4.45
517.383	4.45
517.582	4.45
517.782	4.38
517.981	4.42
518.18	4.39
518.379	4.35
518.578	4.17
518.777	4.09
518.976	4.03
519.176	4.03
519.375	4.01
519.574	4.05
519.773	3.99
519.972	3.96
520.171	3.99
520.37	4.03
520.569	4.05
520.768	4.27
520.967	4.3
521.166	4.31
521.365	4.36
521.564	4.41
521.762	4.35
521.961	4.48
522.16	4.5
522.359	4.49
522.558	4.52
522.757	4.53
522.956	4.51
523.154	4.52
523.353	4.64
523.552	4.6
523.751	4.6
523.949	4.67
524.148	4.68
524.347	4.7
524.546	4.78
524.744	4.8
524.943	4.83
525.142	4.86
525.34	4.86
525.539	4.84
525.737	4.9
525.936	4.95
526.135	4.98
526.333	5.03
526.532	5.08
526.73	5.03
526.929	5.07
527.127	5.08
527.326	5.15
527.524	5.23
527.723	5.26
527.921	5.33
528.12	5.32
528.318	5.29
528.516	5.26
528.715	5.27
528.913	5.33
529.112	5.36
529.31	5.38
529.508	5.34
529.707	5.37
529.905	5.4
530.103	5.39
530.301	5.41
530.5	5.5
530.698	5.53
530.896	5.59
531.094	5.58
531.293	5.61
531.491	5.66
531.689	5.69
531.887	5.73
532.085	5.74
532.283	5.79
532.481	5.84
532.68	5.9
532.878	6.05
533.076	6.06
533.274	6.16
533.472	6.18
533.67	6.14
533.868	6.18
534.066	6.25
534.264	6.3
534.462	6.33
534.66	6.34
534.858	6.34
535.056	6.34
535.253	6.35
535.451	6.44
535.649	6.44
535.847	6.69
536.045	6.75
536.243	6.78
536.441	6.86
536.638	6.94
536.836	7.01
537.034	6.99
537.232	7.04
537.43	7.11
537.627	7.06
537.825	7.12
538.023	6.97
538.22	7.08
538.418	7.06
538.616	7.1
538.813	7.27
539.011	7.42
539.209	7.54
539.406	7.58
539.604	7.81
539.801	7.89
539.999	8.04
540.196	8.13
540.394	8.16
540.591	8.21
540.789	8.23
540.986	8.2
541.184	8.16
541.381	8.21
541.579	8.25
541.776	8.21
541.974	8.28
542.171	8.34
542.368	8.41
542.566	8.45
542.763	8.54
542.96	8.65
543.158	8.67
543.355	8.85
543.552	9.03
543.75	9.11
543.947	9.22
544.144	9.4
544.341	9.44
544.539	9.59
544.736	9.72
544.933	9.8
545.13	9.83
545.327	10.03
545.524	9.99
545.722	9.9
545.919	9.99
546.116	10.03
546.313	9.99
546.51	10.21
546.707	10.15
546.904	10.2
547.101	10.28
547.298	10.41
547.495	10.38
547.692	10.42
547.889	10.71
548.086	10.85
548.283	10.93
548.48	11.04
548.677	10.85
548.874	10.99
549.07	11.11
549.267	11.22
549.464	11.27
549.661	11.35
549.858	11.48
550.055	11.41
550.251	11.36
550.448	11.37
550.645	11.4
550.842	11.49
551.038	11.68
551.235	11.81
551.432	11.92
551.628	11.96
551.825	12.13
552.022	12.21
552.218	12.31
552.415	12.5
552.612	12.68
552.808	12.72
553.005	12.9
553.201	12.93
553.398	12.94
553.594	12.98
553.791	13.28
553.987	13.34
554.184	13.39
554.38	13.52
554.577	13.54
554.773	13.59
554.97	13.82
555.166	14.05
555.362	14.34
555.559	14.38
555.755	14.53
555.952	14.42
556.148	14.64
556.344	14.84
556.541	14.85
556.737	14.87
556.933	15.04
557.129	15.14
557.326	15.1
557.522	15.3
557.718	15.43
557.914	15.53
558.11	15.66
558.307	15.61
558.503	15.61
558.699	15.9
558.895	15.96
559.091	16.17
559.287	16.22
559.483	16.22
559.679	16.09
559.876	16.37
560.072	16.32
560.268	16.35
560.464	16.68
560.66	16.91
560.856	16.94
561.052	17.2
561.247	17.31
561.443	17.33
561.639	17.62
561.835	17.79
562.031	17.74
562.227	17.86
562.423	17.96
562.619	17.89
562.815	18
563.01	17.87
563.206	17.92
563.402	17.79
563.598	17.91
563.793	18.01
563.989	17.83
564.185	17.97
564.381	18.14
564.576	18.53
564.772	18.75
564.968	18.96
565.163	19.18
565.359	19.29
565.555	19.48
565.75	19.55
565.946	19.51
566.141	19.69
566.337	19.62
566.532	19.67
566.728	19.42
566.923	19.25
567.119	19.09
567.314	19.07
567.51	19.09
567.705	19.19
567.901	19.2
568.096	19.4
568.292	19.48
568.487	19.51
568.682	19.65
568.878	19.71
569.073	19.94
569.268	20.14
569.464	20.22
569.659	20.42
569.854	20.47
570.05	20.56
570.245	20.68
570.44	20.76
570.635	20.95
570.831	20.94
571.026	21.17
571.221	21.24
571.416	21.35
571.611	21.5
571.806	21.49
572.002	21.53
572.197	21.73
572.392	21.55
572.587	21.56
572.782	21.64
572.977	21.74
573.172	21.69
573.367	21.69
573.562	21.67
573.757	21.73
573.952	21.83
574.147	21.79
574.342	21.83
574.537	22.09
574.732	22.27
574.927	22.38
575.121	22.29
575.316	22.53
575.511	22.53
575.706	22.44
575.901	22.52
576.096	22.53
576.29	22.77
576.485	22.83
576.68	22.71
576.875	22.62
577.069	22.52
577.264	22.83
577.459	22.65
577.654	22.77
577.848	23.08
578.043	23.14
578.238	23.2
578.432	23.05
578.627	22.83
578.821	22.99
579.016	23.17
579.21	23.12
579.405	23.06
579.6	23.24
579.794	23.39
579.989	23.28
580.183	23.32
580.378	23.29
580.572	23.39
580.766	23.66
580.961	23.7
581.155	23.74
581.35	24.14
581.544	24.14
581.738	24.22
581.933	24.14
582.127	24.25
582.321	24.13
582.516	24.37
582.71	24.32
582.904	24.51
583.099	24.41
583.293	24.33
583.487	24.21
583.681	24.11
583.875	24.39
584.07	24.52
584.264	24.55
584.458	24.76
584.652	24.73
584.846	24.73
585.04	24.8
585.234	24.96
585.428	25.21
585.623	25.27
585.817	25.4
586.011	25.24
586.205	25.36
586.399	25.35
586.593	25.34
586.787	25.41
586.981	25.42
587.174	25.26
587.368	25.36
587.562	25.4
587.756	25.13
587.95	25.32
588.144	25.36
588.338	25.11
588.532	25.23
588.725	25.32
588.919	25.28
589.113	25.76
589.307	25.68
589.501	25.66
589.694	25.58
589.888	26.02
590.082	25.75
590.275	25.8
590.469	25.99
590.663	26.07
590.856	25.95
591.05	26.01
591.244	25.79
591.437	26
591.631	26.2
591.824	26.37
592.018	26.36
592.212	26.59
592.405	26.22
592.599	26.2
592.792	26.05
592.986	26.24
593.179	26.31
593.372	26.28
593.566	26.15
593.759	26.19
593.953	25.83
594.146	25.7
594.339	25.56
594.533	25.94
594.726	26.09
594.92	26.19
595.113	26.18
595.306	26.23
595.499	26.23
595.693	26.3
595.886	26.07
596.079	26.32
596.272	26.52
596.466	26.66
596.659	26.82
596.852	26.8
597.045	26.86
597.238	26.67
597.431	26.57
597.624	26.58
597.818	26.73
598.011	27.02
598.204	26.87
598.397	26.71
598.59	26.69
598.783	26.61
598.976	26.57
599.169	26.47
599.362	26.58
599.555	26.89
599.748	26.93
599.941	26.85
600.134	26.75
600.326	26.84
600.519	26.9
600.712	27.03
600.905	26.95
601.098	26.84
601.291	26.99
601.483	26.97
601.676	26.84
601.869	26.94
602.062	26.88
602.255	26.68
602.447	26.94
602.64	26.94
602.833	26.99
603.025	27.04
603.218	27.37
603.411	27.28
603.603	27.4
603.796	27.29
603.989	27.29
604.181	27.35
604.374	27.4
604.566	27.35
604.759	27.28
604.951	27.11
605.144	27.04
605.336	27.08
605.529	27.15
605.721	27.13
605.914	27.26
606.106	27.12
606.299	27.29
606.491	27.28
606.683	27.28
606.876	27.4
607.068	27.5
607.26	27.56
607.453	27.51
607.645	27.55
607.837	27.67
608.03	27.42
608.222	27.62
608.414	27.58
608.606	27.78
608.799	27.78
608.991	27.87
609.183	28.06
609.375	28.04
609.567	28.05
609.759	28.13
609.952	28.27
610.144	28.42
610.336	28.44
610.528	28.39
610.72	28.3
610.912	28.29
611.104	28.32
611.296	28.3
611.488	28.38
611.68	28.03
611.872	27.98
612.064	27.88
612.256	27.97
612.448	27.91
612.64	27.94
612.832	27.98
613.023	28.19
613.215	28.06
613.407	28.27
613.599	28.23
613.791	28.67
613.983	28.44
614.174	28.4
614.366	28.38
614.558	28.49
614.75	28.35
614.941	28.41
615.133	28.27
615.325	28.45
615.516	28.28
615.708	28.35
615.9	28.17
616.091	28.46
616.283	28.24
616.475	28.47
616.666	28.35
616.858	28.47
617.049	28.39
617.241	28.43
617.432	28.28
617.624	28.44
617.815	28.48
618.007	28.41
618.198	28.43
618.39	28.7
618.581	28.64
618.773	28.82
618.964	28.88
619.155	29.04
619.347	29.18
619.538	29.27
619.729	29.06
619.921	29.17
620.112	29.36
620.303	29.19
620.494	29.13
620.686	29.03
620.877	29.1
621.068	29.09
621.259	29.02
621.451	28.98
621.642	28.86
621.833	28.91
622.024	29.07
622.215	29.08
622.406	29.18
622.597	29.12
622.788	29.38
622.98	29.59
623.171	29.39
623.362	29.52
623.553	29.51
623.744	29.75
623.935	29.51
624.126	29.52
624.317	29.36
624.508	29.28
624.698	29.53
624.889	29.35
625.08	29.07
625.271	29.54
625.462	29.45
625.653	29.48
625.844	29.47
626.034	29.55
626.225	29.58
626.416	29.83
626.607	30.09
626.798	30.27
626.988	30.49
627.179	30.59
627.37	30.42
627.56	30.47
627.751	30.51
627.942	30.79
628.132	30.79
628.323	30.62
628.514	30.64
628.704	30.45
628.895	30.17
629.085	29.99
629.276	29.86
629.466	29.46
629.657	29.41
629.847	29.15
630.038	29.04
630.228	29.29
630.419	29.36
630.609	29.25
630.8	29.48
630.99	29.61
631.181	29.64
631.371	29.6
631.561	30.09
631.752	30.15
631.942	30.11
632.132	30.15
632.323	30.06
632.513	30.26
632.703	30.56
632.893	30.46
633.084	30.39
633.274	30.02
633.464	30.03
633.654	29.94
633.844	30.2
634.034	30.58
634.225	30.24
634.415	30.22
634.605	30.28
634.795	29.97
634.985	29.9
635.175	30.06
635.365	30.4
635.555	30.5
635.745	30.66
635.935	30.72
636.125	30.53
636.315	30.89
636.505	30.95
636.695	30.63
636.885	30.62
637.075	30.46
637.265	30.2
637.455	30.18
637.644	30.36
637.834	30.11
638.024	29.9
638.214	30.35
638.404	29.93
638.593	30.06
638.783	30.14
638.973	30.25
639.163	30.77
639.352	30.74
639.542	30.74
639.732	30.53
639.921	30.77
640.111	31.07
640.301	30.58
640.49	30.93
640.68	31
640.87	31.07
641.059	31.06
641.249	31.16
641.438	31.25
641.628	31.24
641.817	31.49
642.007	31.42
642.196	31.1
642.386	31.3
642.575	31.24
642.764	30.99
642.954	31.23
643.143	31.32
643.333	30.75
643.522	30.96
643.711	30.91
643.901	31.25
644.09	31.6
644.279	31.59
644.469	31.28
644.658	31.44
644.847	31.48
645.036	31.2
645.226	31.16
645.415	31.47
645.604	31.13
645.793	31.08
645.982	30.54
646.171	30.01
646.361	30.05
646.55	30.4
646.739	30.14
646.928	30.49
647.117	30.55
647.306	30.58
647.495	30.26
647.684	30.69
647.873	30.91
648.062	31.18
648.251	31.31
648.44	31.17
648.629	30.8
648.818	30.51
649.007	30.48
649.196	30.4
649.384	30.56
649.573	30.9
649.762	30.89
649.951	31.14
650.14	30.74
650.328	30.94
650.517	31.04
650.706	31.59
650.895	32.06
651.083	32.13
651.272	32.32
651.461	32.17
651.65	32.47
651.838	32.03
652.027	31.65
652.216	31.59
652.404	31.18
652.593	31.18
652.781	30.85
652.97	30.99
653.158	30.78
653.347	30.28
653.535	30.39
653.724	29.98
653.912	30.47
654.101	30.23
654.289	30.91
654.478	31.26
654.666	31.14
654.855	31.2
655.043	30.66
655.231	30.72
655.42	31.32
655.608	31.4
655.796	31.32
655.985	31.34
656.173	31.56
656.361	31.19
656.55	31.08
656.738	31.39
656.926	31.33
657.114	31.97
657.302	31.79
657.491	31.61
657.679	31.42
657.867	31.34
658.055	31.59
658.243	31.64
658.431	31.99
658.619	32.17
658.807	32.24
658.996	32.62
659.184	32.34
659.372	32.41
659.56	32.43
659.748	32.36
659.936	32.63
660.124	32.23
660.311	32.47
660.499	32.33
660.687	32.28
660.875	32.25
661.063	32.08
661.251	32
661.439	32.31
661.627	32.47
661.814	32.47
662.002	32.42
662.19	32.49
662.378	32.32
662.565	32.19
662.753	32.23
662.941	32.35
663.129	32.43
663.316	33
663.504	32.32
663.692	32.08
663.879	32.45
664.067	32.39
664.254	32.32
664.442	32.31
664.63	32.36
664.817	32.2
665.005	31.5
665.192	31.57
665.38	31.3
665.567	31.22
665.755	31.59
665.942	31.78
666.13	31.47
666.317	31.81
666.504	32.18
666.692	32.21
666.879	32.69
667.067	33.16
667.254	32.59
667.441	32.62
667.629	32.8
667.816	32.3
668.003	32.28
668.19	32.86
668.378	32.74
668.565	32.16
668.752	32.15
668.939	31.84
669.127	32.21
669.314	32.9
669.501	32.85
669.688	33.32
669.875	33.45
670.062	33.32
670.249	33.26
670.436	33.46
670.623	33.62
670.81	33.6
670.997	33.47
671.184	33.05
671.371	32.75
671.558	32.61
671.745	32.39
671.932	32.61
672.119	32.36
672.306	32.44
672.493	32.29
672.68	32.58
672.867	32.67
673.054	32.67
673.24	32.85
673.427	32.68
673.614	33.03
673.801	33.11
673.988	33
674.174	33.19
674.361	32.91
674.548	32.96
674.734	32.99
674.921	32.96
675.108	33.03
675.294	33.39
675.481	33.36
675.668	33.44
675.854	33.78
676.041	33.77
676.227	33.61
676.414	33.43
676.601	33.32
676.787	33.64
676.974	33.5
677.16	33.79
677.347	33.38
677.533	33.15
677.719	33.06
677.906	32.55
678.092	32.3
678.279	32.18
678.465	32.33
678.651	32.48
678.838	32.03
679.024	32.2
679.21	31.91
679.397	32.07
679.583	32.07
679.769	31.93
679.955	32.03
680.142	32.27
680.328	32.54
680.514	32.66
680.7	32.33
680.886	32.32
681.073	32.07
681.259	32.1
681.445	31.91
681.631	32.26
681.817	32.28
682.003	32.39
682.189	32.31
682.375	32.12
682.561	31.97
682.747	32.17
682.933	32.1
683.119	32.22
683.305	32.4
683.491	32.54
683.677	32.57
683.863	32.63
684.049	32.64
684.235	32.78
684.42	32.48
684.606	32.4
684.792	32.83
684.978	33.01
685.164	33.28
685.349	33.08
685.535	32.83
685.721	32.36
685.907	31.95
686.092	31.85
686.278	31.55
686.464	31.95
686.649	32.29
686.835	32.12
687.021	32.22
687.206	31.8
687.392	31.9
687.577	32.01
687.763	32.15
687.948	32.74
688.134	32.65
688.319	32.86
688.505	33.12
688.69	33.27
688.876	33.23
689.061	32.94
689.247	33.33
689.432	32.97
689.618	32.71
689.803	32.9
689.988	32.77
690.174	32.92
690.359	32.87
690.544	32.86
690.73	32.28
690.915	32.07
691.1	32.11
691.285	32.21
691.471	32.72
691.656	33.33
691.841	33.56
692.026	33.43
692.211	33.34
692.396	33.45
692.582	33.28
692.767	33.68
692.952	33.86
693.137	34.22
693.322	34.12
693.507	34.89
693.692	34.58
693.877	34.69
694.062	34.55
694.247	34.76
694.432	34.86
694.617	34.68
694.802	34.88
694.987	35.2
695.172	35.13
695.357	34.92
695.541	33.93
695.726	33.54
695.911	33.22
696.096	33.08
696.281	32.49
696.466	32.67
696.65	32.89
696.835	32.62
697.02	32.77
697.204	32.75
697.389	32.8
697.574	32.88
697.759	32.92
697.943	32.95
698.128	33.06
698.312	33.49
698.497	33.17
698.682	33.29
698.866	33.34
699.051	33.18
699.235	33.2
699.42	33.52
699.604	33.9
699.789	34.32
699.973	34.44
700.158	34.52
700.342	34.47
700.527	34.78
700.711	34.58
700.895	34.63
701.08	34.86
701.264	34.98
701.448	35.01
701.633	34.59
701.817	34.85
702.001	34.82
702.186	35.01
702.37	34.52
702.554	33.79
702.738	34.22
702.923	34.54
703.107	33.9
703.291	33.99
703.475	33.42
703.659	33.27
703.843	33.22
704.027	33.57
704.212	34.28
704.396	35.34
704.58	36.53
704.764	35.66
704.948	35.76
705.132	35.37
705.316	35.32
705.5	35.62
705.684	36.4
705.868	35.93
706.052	35.45
706.235	35.45
706.419	34.78
706.603	34.79
706.787	35.4
706.971	35.24
707.155	36.11
707.339	36.23
707.522	35.67
707.706	35.32
707.89	35.86
708.074	35.71
708.257	34.65
708.441	35.4
708.625	35.15
708.808	34.97
708.992	34.76
709.176	34.08
709.359	33.67
709.543	33.55
709.727	33.86
709.91	33.71
710.094	34.12
710.277	34.42
710.461	34.24
710.644	34.47
710.828	34.57
711.011	34.69
711.195	34.57
711.378	34.6
711.562	35.22
711.745	35.08
711.928	35.02
712.112	35.44
712.295	35.09
712.478	35.28
712.662	34.47
712.845	34.46
713.028	34.04
713.212	34.73
713.395	34.86
713.578	34.55
713.761	34.01
713.945	34.2
714.128	34.2
714.311	34.91
714.494	34.81
714.677	35.34
714.86	35.51
715.043	36.17
715.227	36.01
715.41	35.94
715.593	36.02
715.776	36.24
715.959	35.7
716.142	35.28
716.325	35.23
716.508	35.09
716.691	35.41
716.874	35.53
717.057	35.77
717.239	35.83
717.422	36.19
717.605	36.68
717.788	36.57
717.971	37.3
718.154	37.22
718.337	37.18
718.519	36.66
718.702	36.43
718.885	37.06
719.068	36.19
719.25	36.02
719.433	35.79
719.616	35.13
719.798	35.39
719.981	34.75
720.164	33.99
720.346	33.39
720.529	33.27
720.712	32.84
720.894	31.76
721.077	32.49
721.259	32.62
721.442	32.6
721.624	33.25
721.807	33.55
721.989	33.25
722.172	33.93
722.354	34.92
722.537	35.25
722.719	35.34
722.901	35.55
723.084	35.17
723.266	35.44
723.448	36.04
723.631	35.82
723.813	34.94
723.995	35.51
724.178	35.69
724.36	35.14
724.542	35.48
724.724	35.89
724.907	36.02
725.089	35.62
725.271	35.33
725.453	34.8
725.635	35.73
725.817	37.14
725.999	36.56
726.181	36.63
726.364	36.49
726.546	36.51
726.728	36.12
726.91	36.59
727.092	36.68
727.274	36.3
727.456	36.3
727.638	35.11
727.819	34.66
728.001	34.71
728.183	35.08
728.365	34.62
728.547	34.27
728.729	34.61
728.911	34.54
729.093	34.91
729.274	35.06
729.456	35.43
729.638	35.56
729.82	34.6
730.001	34.63
730.183	34.11
730.365	35.06
730.546	34.96
730.728	35.14
730.91	34.63
731.091	34.61
731.273	35.26
731.455	34.54
731.636	35.39
731.818	35.96
731.999	36.71
732.181	36.48
732.362	35.7
732.544	36.02
732.725	35.32
732.907	35.67
733.088	35.48
733.27	34.32
733.451	34.11
733.633	33.41
733.814	33.42
733.995	32.53
734.177	32.96
734.358	32.61
734.539	32.38
734.721	32.48
734.902	32.85
735.083	33.03
735.264	33.86
735.446	34.16
735.627	34.58
735.808	35.28
735.989	36.13
736.17	36.02
736.351	36.63
736.533	36.46
736.714	36.06
736.895	35.26
737.076	35.59
737.257	35.49
737.438	35.98
737.619	35.45
737.8	34.75
737.981	35.28
738.162	35.35
738.343	35.9
738.524	36.2
738.705	37.35
738.886	37.04
739.067	36.55
739.247	36.39
739.428	35.72
739.609	35.44
739.79	35.27
739.971	34.5
740.151	34.3
740.332	34.21
740.513	34.46
740.694	34.05
740.874	34.97
741.055	35.07
741.236	34.93
741.417	35.49
741.597	35.8
741.778	35.91
741.958	35.51
742.139	35.25
742.32	34.59
742.5	34.46
742.681	34.76
742.861	33.87
743.042	34.09
743.222	34.43
743.403	34.76
743.583	35
743.764	34.95
743.944	35.57
744.124	36.05
744.305	36.17
744.485	36.82
744.666	36.71
744.846	36.95
745.026	36.97
745.207	36.52
745.387	36.31
745.567	36.45
745.747	36.34
745.928	35.48
746.108	35.52
746.288	35.09
746.468	34.58
746.648	34.23
746.829	33.82
747.009	34.27
747.189	34.41
747.369	34.11
747.549	33.96
747.729	33.76
747.909	34.06
748.089	33.71
748.269	34.23
748.449	33.96
748.629	33.71
748.809	33.68
748.989	33.77
749.169	34
749.349	33.29
749.529	33.02
749.709	33.26
749.889	33.18
750.068	34.04
750.248	34.17
750.428	34.51
750.608	33.84
750.788	35.29
750.967	34.69
751.147	34.82
751.327	35.86
751.507	36.89
751.686	36.68
751.866	36.92
752.046	35.96
752.225	36.14
752.405	36.37
752.585	37.07
752.764	35.87
752.944	36.58
753.123	36.93
753.303	36.43
753.482	35.49
753.662	36.26
753.841	36.2
754.021	36.76
754.2	36.76
754.38	37.51
754.559	37.87
754.739	38.4
754.918	36.95
755.097	36.71
755.277	37.25
755.456	37.53
755.635	36.23
755.815	36.83
755.994	36.63
756.173	35.76
756.352	35.1
756.532	35.36
756.711	35.36
756.89	36.84
757.069	36.66
757.248	36.61
757.427	36.96
757.607	37.02
757.786	36.59
757.965	36.31
758.144	36.18
758.323	34.76
758.502	34.22
758.681	33.78
758.86	33.31
759.039	33.16
759.218	32.71
759.397	32.12
759.576	32.41
759.755	32.07
759.934	32.61
760.113	33.75
760.291	34.03
760.47	34.25
760.649	34.36
760.828	34.38
761.007	34.73
761.186	34.52
761.364	35.31
761.543	35.65
761.722	35.8
761.901	35.32
762.079	35.26
762.258	36.05
762.437	35.37
762.615	35.64
762.794	34.63
762.972	34.19
763.151	34.77
763.33	34.34
763.508	34.5
763.687	34.69
763.865	34.87
764.044	34.65
764.222	35.18
764.401	35.67
764.579	35.36
764.758	35.22
764.936	35.56
765.114	34.96
765.293	34.63
765.471	34.66
765.65	34.62
765.828	33.73
766.006	33.84
766.184	33.43
766.363	33.15
766.541	32.75
766.719	33.87
766.898	34.29
767.076	35.18
767.254	35.33
767.432	34.67
767.61	33.9
767.788	34
767.967	33.21
768.145	32.7
768.323	33.13
768.501	33.81
768.679	33.75
768.857	33.58
769.035	33.63
769.213	33.95
769.391	34.76
769.569	35.03
769.747	37.46
769.925	39.07
770.103	39.34
770.281	38.22
770.459	38.26
770.636	37.17
770.814	36.46
770.992	36.12
771.17	35.34
771.348	35.54
771.525	35.36
771.703	34.74
771.881	33.59
772.059	33.15
772.236	34.59
772.414	34.33
772.592	34.75
772.769	35.5
772.947	35.16
773.125	35.47
773.302	36.77
773.48	36.87
773.657	36.03
773.835	36.32
774.013	35.61
774.19	35.03
774.368	35.71
774.545	35.46
774.723	34.06
774.9	32.98
775.077	34.14
775.255	33.87
775.432	34.96
775.61	35.46
775.787	35.84
775.964	37.22
776.142	37.56
776.319	36.24
776.496	35.49
776.674	36.01
776.851	36.94
777.028	36.33
777.205	34.47
777.382	32.88
777.56	32.2
777.737	31.75
777.914	31.19
778.091	31.7
778.268	32.17
778.445	33.27
778.622	33.02
778.8	33.52
778.977	32.69
779.154	34.48
779.331	35.06
779.508	35.65
779.685	35.72
779.862	35.87
780.038	33.25
780.215	34.29
780.392	35.02
780.569	35.4
780.746	34.58
780.923	35.75
781.1	34.72
781.277	35.86
781.453	34.49
781.63	33.56
781.807	31.61
781.984	32.68
782.16	32.4
782.337	31.48
782.514	31.74
782.691	32.48
782.867	31.95
783.044	33.15
783.221	33.83
783.397	35.3
783.574	35.12
783.75	37.05
783.927	37.24
784.103	37.21
784.28	39.32
784.456	39.25
784.633	37.8
784.809	36.55
784.986	35.82
785.162	34.54
785.339	35.48
785.515	34.9
785.692	35.45
785.868	38.15
786.044	37.48
786.221	34.69
786.397	34.08
786.573	35.83
786.749	37.86
786.926	35.85
787.102	36.95
787.278	36.05
787.454	38.5
787.631	38.13
787.807	37.03
787.983	37.73
788.159	38.35
788.335	39.46
788.511	39.54
788.687	39.16
788.863	40.08
789.039	38.88
789.216	39.2
789.392	37.96
789.568	37.66
789.744	37.58
789.919	37.7
790.095	38.77
790.271	37.33
790.447	36.48
790.623	35.84
790.799	35.97
790.975	37.28
791.151	36.72
791.327	36.97
791.502	37.34
791.678	36.52
791.854	36.62
792.03	35.18
792.205	35.38
792.381	35.49
792.557	35.74
792.733	34.72
792.908	33.5
793.084	32.97
793.259	32.63
793.435	33.23
793.611	34.86
793.786	35.13
793.962	36.13
794.137	36.52
794.313	38.04
794.488	38.94
794.664	40.23
794.839	40.18
795.015	40.84
795.19	41.86
795.366	40.5
795.541	39.99
795.716	38.25
795.892	38.74
796.067	39.11
796.242	38.83
796.418	37.71
796.593	37.62
796.768	38.52
796.944	38.57
797.119	37.78
797.294	38.1
797.469	38.58
797.644	40.1
797.82	39.5
797.995	40.13
798.17	37.74
798.345	36.98
798.52	36.77
798.695	36.44
798.87	35.53
799.045	35.17
799.22	35.3
799.395	34
799.57	31.54
799.745	31.15
799.92	30.8
800.095	33.01
800.27	34.19
800.445	32.7
800.62	33.84
800.795	34.51
800.97	34.39
801.145	35.01
801.319	36.08
801.494	37.62
801.669	38.03
801.844	36.86
802.018	35.91
802.193	33.89
802.368	35.99
802.543	36.23
802.717	37.92
802.892	38.8
803.067	37.76
803.241	35.93
803.416	35.56
803.59	38.02
803.765	40.4
803.94	41.09
804.114	42.84
804.289	42.79
804.463	40.85
804.638	39.71
804.812	40.15
804.986	42.57
805.161	43.51
805.335	43.71
805.51	42.46
805.684	41.2
805.858	40.23
806.033	42.83
806.207	42.53
806.381	42.54
806.556	40.76
806.73	40.51
806.904	40.42
807.078	41.29
807.253	40.5
807.427	38.01
807.601	37.44
807.775	39.12
807.949	36.75
808.123	34.65
808.298	35.47
808.472	37.19
808.646	35.99
808.82	35.19
808.994	34.48
809.168	36.16
809.342	39.15
809.516	37.41
809.69	36
809.864	36.5
810.038	36.9
810.212	37.82
810.385	37.89
810.559	41.12
810.733	41.3
810.907	40.15
811.081	38.43
811.255	37.24
811.428	38.91
811.602	40.44
811.776	38.71
811.95	39.28
812.123	38.5
812.297	37.77
812.471	36.35
812.644	35.01
812.818	34.87
812.992	37.08
813.165	36.22
813.339	37.71
813.512	36.16
813.686	36.27
813.86	37.18
814.033	38.54
814.207	39.97
814.38	39.97
814.554	38.85
814.727	41.39
814.9	39.17
815.074	40.45
815.247	39.02
815.421	37.7
815.594	38.23
815.767	39.82
815.941	38.91
816.114	36.32
816.287	35.19
816.46	36.39
816.634	36.42
816.807	37.98
816.98	37.38
817.153	39.04
817.327	41.42
817.5	41.49
817.673	40.39
817.846	38.57
818.019	41.95
818.192	41.75
818.365	36.46
818.538	35.34
818.711	32.52
818.884	31.77
819.057	33.08
819.23	33.65
819.403	34.75
819.576	35.71
819.749	37.82
819.922	34.59
820.095	36.18
820.268	39.12
820.441	38.12
820.614	38.71
820.786	39.81
820.959	39.13
821.132	37.1
821.305	37.22
821.477	36.52
821.65	35.74
821.823	37.04
821.996	36.41
822.168	36.69
822.341	36.49
822.514	36.43
822.686	36.15
822.859	35.79
823.031	36.52
823.204	36.28
823.376	36.57
823.549	36.62
823.722	36.16
823.894	36.55
824.067	36.53
824.239	36.39
824.411	36.65
824.584	36.2
824.756	36.15
824.929	35.46
825.101	35.77
825.273	34.96
825.446	35.14
825.618	35.24
825.79	34.51
825.963	34.54
826.135	34.76
826.307	34.36
826.479	35.95
826.652	36.65
826.824	36.9
826.996	36.32
827.168	36.62
827.34	35.49
827.512	34.9
827.684	35.73
827.856	34.89
828.029	35.44
828.201	35.11
828.373	34.14
828.545	32.71
828.717	33.21
828.889	32.97
829.061	32.66
829.232	33.39
829.404	33.77
829.576	33.27
829.748	33.28
829.92	31.89
830.092	33.36
830.264	34.28
830.436	35.4
830.607	33.66
830.779	35.56
830.951	35.89
831.123	35
831.294	35.24
831.466	34.19
831.638	36.04
831.809	35.88
831.981	34.91
832.153	31.97
832.324	30.46
832.496	31.61
832.667	29.01
832.839	28.68
833.011	27.5
833.182	26.67
833.354	28.99
833.525	29.01
833.697	30.07
833.868	30.58
834.039	31.7
834.211	31.33
834.382	32.14
834.554	31.97
834.725	32.64
834.896	34.42
835.068	36
835.239	34.75
835.41	34.1
835.581	34.19
835.753	33.54
835.924	35.06
836.095	36.77
836.266	37.05
836.438	37.06
836.609	37.52
836.78	36.84
836.951	34.55
837.122	34.96
837.293	35.42
837.464	36.75
837.635	36.05
837.806	35.38
837.977	34.82
838.148	34.72
838.319	36.71
838.49	37.27
838.661	37.63
838.832	40.81
839.003	40.42
839.174	39.95
839.345	39.9
839.516	39.34
839.687	37.87
839.857	35.79
840.028	34.9
840.199	37.11
840.37	36.02
840.54	37.83
840.711	38.73
840.882	40.16
841.053	40.46
841.223	35.02
841.394	40.79
841.564	37.68
841.735	38.76
841.906	38.13
842.076	34
842.247	35.76
842.417	34.72
842.588	36.3
842.758	36.55
842.929	39.31
843.099	44.24
843.27	42.69
843.44	47.37
843.611	47.57
843.781	50.03
843.951	51.72
844.122	49.22
844.292	52.04
844.462	49.32
844.633	49.72
844.803	44.94
844.973	43.46
845.144	41.6
845.314	39.5
845.484	41.22
845.654	44.75
845.824	49.4
845.995	46.39
846.165	47.88
846.335	45.29
846.505	42.25
846.675	46
846.845	40.49
847.015	41.43
847.185	40.07
847.355	35.4
847.525	29.88
847.695	28.07
847.865	32.03
848.035	29.33
848.205	34.01
848.375	33.13
848.545	34.79
848.715	42.93
848.884	46.82
849.054	47.54
849.224	52.94
849.394	53.7
849.564	47.51
849.733	45.89
849.903	53.08
850.073	49.47
850.243	51.48
850.412	53.51
850.582	54.64
850.752	43.86
850.921	41.16
851.091	39.43
851.26	37.84
851.43	40.61
851.599	47.55
851.769	42.24
851.939	38.65
852.108	41.11
852.278	35.29
852.447	31.02
852.616	39.62
852.786	37.32
852.955	40.32
853.125	44.53
853.294	40.81
853.463	37.76
853.633	42.73
853.802	45.41
853.971	44.86
854.141	42.53
854.31	45.44
854.479	35.79
854.648	38.73
854.818	40.3
854.987	36.88
855.156	45.34
855.325	44.11
855.494	45.09
855.663	49.36
855.832	44.71
856.001	49.88
856.171	47.59
856.34	43.84
856.509	43.27
856.678	38.54
856.847	37.29
857.016	31.32
857.185	34.16
857.353	24.73
857.522	26.43
857.691	39.06
857.86	34.14
858.029	46.79
858.198	53.57
858.367	60.26
858.535	62.65
858.704	63.54
858.873	60.75
859.042	57.83
859.21	62.89
859.379	63.09
859.548	57.89
859.717	57.57
859.885	49.9
860.054	50.68
860.222	45.1
860.391	47.35
860.56	45.85
860.728	52.38
860.897	52.62
861.065	49.62
861.234	34.14
861.402	41.97
861.571	48.47
861.739	53.72
861.908	49.26
862.076	50.35
862.244	44.92
862.413	50.37
862.581	47.51
862.749	51.19
862.918	47.75
863.086	55.58
863.254	48.01
863.423	46.12
863.591	45.73
863.759	51.72
863.927	54.6
864.096	59.24
864.264	56.51
864.432	65.02
864.6	62.53
864.768	61.46
864.936	62.02
865.104	58.71
865.272	57.5
865.44	57.41
865.608	56.84
865.776	52.55
865.944	45.84
866.112	48.05
866.28	41.83
866.448	39.28
866.616	47.19
866.784	53.16
866.952	55.25
867.12	60.67
867.288	60.25
867.455	59.11
867.623	57.49
867.791	63.41
867.959	61.25
868.127	57.89
868.294	60.09
868.462	48.46
868.63	43.03
868.797	44.42
868.965	37.35
869.133	31.75
869.3	30.86
869.468	36.04
869.636	32.67
869.803	33.55
869.971	39.27
870.138	34.63
870.306	38.25
870.473	29.47
870.641	27.06
870.808	31.45
870.975	37.37
871.143	33.99
871.31	30.89
871.478	31.86
871.645	31.33
871.812	29.53
871.98	28.45
872.147	29.37
872.314	38.09
872.482	43.36
872.649	40.97
872.816	31.7
872.983	33.37
873.15	29.79
873.318	36.45
873.485	30.08
873.652	34.13
873.819	34.93
873.986	36.6
874.153	37.82
874.32	35.45
874.487	38.84
874.654	46.17
874.821	46.45
874.988	44.31
875.155	42.35
875.322	58.11
875.489	53.09
875.656	58.55
875.823	60.68
875.99	57.55
876.157	56.48
876.324	50.62
876.49	50.06
876.657	44.91
876.824	45.31
876.991	41.66
877.157	38.15
877.324	34.95
877.491	28.85
877.658	26.1
877.824	23.63
877.991	25.29
878.157	28.67
878.324	32.6
878.491	37.58
878.657	46.79
878.824	47.68
878.99	48.04
879.157	51.4
879.323	57.11
879.49	52.74
879.656	59.67
879.823	57.37
879.989	48.87
880.156	42.6
880.322	38.65
880.488	36.06
880.655	35.62
880.821	31.86
880.987	31.08
881.154	29.61
881.32	32
881.486	26.56
881.652	27.25
881.819	28.72
881.985	30.71
882.151	30.83
882.317	30.38
882.483	30.49
882.649	32.78
882.816	32.37
882.982	33.56
883.148	36.17
883.314	35.21
883.48	34.21
883.646	35.62
883.812	35.12
883.978	35.02
884.144	34.07
884.31	34.81
884.476	33.76
884.642	35.67
884.807	36.52
884.973	34.74
885.139	35.16
885.305	36.42
885.471	35.59
885.637	36.93
885.802	37.89
885.968	41.03
886.134	40.35
886.3	39.58
886.465	40.04
886.631	38.37
886.797	38.14
886.962	38.07
887.128	39.59
887.293	42.37
887.459	41.59
887.625	45.81
887.79	45.17
887.956	48.06
888.121	51.36
888.287	50.45
888.452	53.4
888.618	58.15
888.783	64.09
