Data from LC_220__Reflection_2.txt Node
Date: Thu Nov 19 13:38:30 EST 2015
User: robert
Spectrometer: USB4E03001
Autoset integration time: false
Trigger mode: 4
Integration Time (sec): 1.000000E-1
Scans to average: 15
Electric dark correction enabled: true
Nonlinearity correction enabled: false
Boxcar width: 5
Stray light correction enabled: false
XAxis mode: Wavelengths
Stop averaging: false
Number of Pixels in Spectrum: 3648
>>>>>Begin Spectral Data<<<<<
177.566	403.14
177.785	713.05
178.005	530.52
178.225	293.41
178.445	790.74
178.665	-127500
178.885	57.87
179.105	645.39
179.324	-515.89
179.544	-1569.02
179.764	-573.24
179.984	-766.55
180.204	-589.79
180.423	-596.6
180.643	-3089.61
180.863	-2647.4
181.083	-672.48
181.302	-501.72
181.522	-418.42
181.742	-2614.15
181.961	5264.9
182.181	4124.22
182.401	494.18
182.621	608.05
182.84	1007.89
183.06	2326.29
183.279	1986.12
183.499	1028.57
183.719	995.51
183.938	583.37
184.158	1216.85
184.377	1322.55
184.597	928.92
184.816	7971.22
185.036	32216.3
185.256	2076.66
185.475	1048.61
185.695	1011.08
185.914	751.93
186.134	495.89
186.353	444.21
186.572	339.26
186.792	404.91
187.011	3220.81
187.231	600.15
187.45	832.52
187.67	1920.52
187.889	32872.73
188.108	886.55
188.328	-4141.3
188.547	-601.33
188.766	-526.02
188.986	-756.97
189.205	-981.32
189.424	1677.55
189.644	2973.69
189.863	1447.24
190.082	1570.01
190.302	6755.4
190.521	-636.41
190.74	-2219.41
190.959	-20835.92
191.178	26098.31
191.398	-10276.49
191.617	2233.53
191.836	7696.68
192.055	-2170.65
192.274	-835.87
192.494	-1423.43
192.713	-891.52
192.932	-604.18
193.151	-567.5
193.37	-903.1
193.589	-732.79
193.808	-612.74
194.027	-738.76
194.246	-1357.04
194.465	-1180.24
194.685	69515
194.904	1059.37
195.123	566.89
195.342	339.76
195.561	288.08
195.78	365.37
195.999	509.73
196.218	816.08
196.436	1297
196.655	855.57
196.874	569.76
197.093	496.74
197.312	1588.56
197.531	1658.38
197.75	3102.29
197.969	-1042.68
198.188	-1234.79
198.407	-7995.37
198.625	563.23
198.844	868.82
199.063	2137.21
199.282	2385.05
199.501	-1625.45
199.719	-2470.03
199.938	-3843.91
200.157	3882.57
200.376	1418.08
200.594	911.85
200.813	937.48
201.032	599.26
201.251	703.45
201.469	1189.14
201.688	875.4
201.907	682.05
202.125	679.95
202.344	519.21
202.563	407.74
202.781	558.33
203	455.87
203.218	393.29
203.437	1112.11
203.656	704.23
203.874	465.75
204.093	511.48
204.311	502.49
204.53	425.78
204.748	460.36
204.967	577.88
205.185	367.7
205.404	468.55
205.622	666.58
205.841	446.36
206.059	448.94
206.278	464.52
206.496	581.8
206.715	777.25
206.933	960.56
207.151	-1910.87
207.37	-1294.48
207.588	-4458.4
207.806	3423.22
208.025	1339.54
208.243	-1753.16
208.461	-1395
208.68	-3186.61
208.898	4766.4
209.116	2096.05
209.335	4131.44
209.553	1279.38
209.771	3409.77
209.989	-2825.17
210.208	-1974.3
210.426	-1043.92
210.644	-1122.51
210.862	-492.84
211.081	-514.25
211.299	-222.15
211.517	-317.22
211.735	-425.41
211.953	-1109.5
212.171	700.21
212.39	1060.24
212.608	1177.41
212.826	586.9
213.044	324.28
213.262	301.91
213.48	331.58
213.698	339.53
213.916	438.23
214.134	551.06
214.352	1009.49
214.57	-2654.65
214.788	1380.56
215.006	7481.75
215.224	-2037.49
215.442	-715.06
215.66	-777.87
215.878	1724.61
216.096	480.46
216.314	520.13
216.532	360.36
216.75	320.57
216.968	296.23
217.185	303.92
217.403	340.35
217.621	382.17
217.839	439.11
218.057	373.69
218.275	508.7
218.492	835.46
218.71	436.05
218.928	385.83
219.146	405.37
219.363	612.9
219.581	597.67
219.799	1285.98
220.017	423.93
220.234	347.1
220.452	476.07
220.67	373.58
220.887	391.38
221.105	648.56
221.323	828.77
221.54	718.75
221.758	458.44
221.976	425.59
222.193	291.62
222.411	357.39
222.629	400.64
222.846	443.96
223.064	365.45
223.281	352.6
223.499	331.31
223.716	343.87
223.934	261.46
224.151	325.96
224.369	300.9
224.586	311.51
224.804	301.55
225.021	233.58
225.239	193.51
225.456	218.29
225.674	186.31
225.891	172.37
226.108	166.49
226.326	169.73
226.543	134.79
226.76	125.09
226.978	120.41
227.195	112.97
227.413	95.19
227.63	82.49
227.847	69.45
228.064	61.56
228.282	55.36
228.499	53.82
228.716	48.3
228.934	46.98
229.151	47.86
229.368	43.36
229.585	40.92
229.802	44.32
230.02	42.13
230.237	39.27
230.454	42.94
230.671	47.88
230.888	46.84
231.105	50.66
231.323	57.01
231.54	54.38
231.757	59.42
231.974	66.15
232.191	65.78
232.408	74.09
232.625	86.79
232.842	88.17
233.059	84.52
233.276	85.37
233.493	88.8
233.71	79.11
233.927	80.59
234.144	80.98
234.361	76.48
234.578	80.51
234.795	69.05
235.012	63.16
235.229	59.04
235.446	60.81
235.663	61.53
235.879	61.78
236.096	68.47
236.313	74.35
236.53	71.73
236.747	80.89
236.964	79.48
237.181	87.41
237.397	85.59
237.614	91.58
237.831	93.1
238.048	98.16
238.264	98.51
238.481	89.1
238.698	82.74
238.915	84.79
239.131	67.01
239.348	62.9
239.565	54.66
239.781	60.97
239.998	53.17
240.215	51.49
240.431	48.61
240.648	45.51
240.865	43.26
241.081	41.09
241.298	37.43
241.514	38.15
241.731	37.14
241.947	35.39
242.164	31.06
242.38	30.93
242.597	30.29
242.814	30.64
243.03	27.37
243.246	29.31
243.463	29.66
243.679	31.64
243.896	32.69
244.112	31.24
244.329	32.22
244.545	35.15
244.762	36.65
244.978	37.01
245.194	36.69
245.411	38.36
245.627	34.93
245.843	31.86
246.06	27.04
246.276	25.53
246.492	24.95
246.709	23.93
246.925	22.42
247.141	20.94
247.357	20.15
247.574	19.91
247.79	19.78
248.006	18.7
248.222	18.46
248.439	19.54
248.655	18.72
248.871	19.12
249.087	18.95
249.303	19.29
249.519	21.16
249.736	21.85
249.952	20.95
250.168	25.35
250.384	30.46
250.6	32.23
250.816	35.07
251.032	37.52
251.248	37.19
251.464	37.65
251.68	36.7
251.896	32.61
252.112	31.88
252.328	30.82
252.544	27.48
252.76	25.59
252.976	25.55
253.192	24.95
253.408	24.57
253.624	25.92
253.84	26.72
254.056	29.96
254.272	34.23
254.487	36.24
254.703	37.98
254.919	39.24
255.135	40.83
255.351	38.52
255.567	38.5
255.782	38.02
255.998	38.19
256.214	39.25
256.43	36.71
256.646	37.76
256.861	34.76
257.077	37.76
257.293	38.05
257.508	34.93
257.724	35.78
257.94	31.15
258.155	30.19
258.371	28.47
258.587	26.47
258.802	24.24
259.018	21.22
259.234	19.94
259.449	17.06
259.665	15.89
259.88	15.94
260.096	15.11
260.312	15.2
260.527	15.11
260.743	14.55
260.958	14.56
261.174	15.19
261.389	17.05
261.605	17.53
261.82	17.51
262.036	17.84
262.251	17.88
262.466	18.49
262.682	19.52
262.897	19.96
263.113	21.93
263.328	22.75
263.543	23.44
263.759	21.16
263.974	21.64
264.189	23.21
264.405	25.84
264.62	28.83
264.835	29.56
265.051	31.06
265.266	29.84
265.481	28.79
265.696	31.99
265.912	30.98
266.127	28.76
266.342	28.75
266.557	28.37
266.773	24.44
266.988	22.8
267.203	21.84
267.418	20.67
267.633	21.33
267.848	21.14
268.064	18.35
268.279	17.32
268.494	18.53
268.709	19.04
268.924	20.29
269.139	23.56
269.354	25.67
269.569	25.54
269.784	24.62
269.999	24.59
270.214	24.68
270.429	26.34
270.644	27.26
270.859	26.97
271.074	26.43
271.289	26
271.504	24.59
271.719	22.55
271.934	23.01
272.149	23.72
272.363	22.8
272.578	22.7
272.793	20.18
273.008	19.19
273.223	18.67
273.438	18.44
273.653	17.86
273.867	17.04
274.082	18.14
274.297	18.96
274.512	19.67
274.726	19.5
274.941	19.29
275.156	21.96
275.371	23.45
275.585	25.46
275.8	25.92
276.015	25.71
276.229	27.7
276.444	26.21
276.659	26.57
276.873	26.28
277.088	26.75
277.302	27.75
277.517	26.1
277.732	25.87
277.946	24.98
278.161	26.96
278.375	27.82
278.59	26.32
278.804	27.17
279.019	27.93
279.233	26.99
279.448	26.99
279.662	25.12
279.877	24.05
280.091	23.05
280.306	22.03
280.52	18.71
280.735	17.7
280.949	16.67
281.163	16.32
281.378	13.46
281.592	13.59
281.806	14.02
282.021	15.51
282.235	17.4
282.449	18.68
282.664	18.84
282.878	19.13
283.092	20.55
283.307	21.22
283.521	21.12
283.735	22.36
283.949	23.18
284.164	24.99
284.378	24.4
284.592	22.44
284.806	21.05
285.02	20.81
285.234	19.88
285.449	19.58
285.663	20.83
285.877	21.06
286.091	21.92
286.305	21.86
286.519	20
286.733	18.91
286.947	20.05
287.161	20.06
287.375	21.2
287.589	23.22
287.803	21.42
288.017	20.61
288.231	19.92
288.445	17.38
288.659	18.31
288.873	18.61
289.087	20.63
289.301	20.65
289.515	20.86
289.729	19.64
289.943	20.08
290.157	20.95
290.371	20.3
290.584	20.35
290.798	21.41
291.012	20.38
291.226	20.9
291.44	21.72
291.654	20.43
291.867	19.71
292.081	20.36
292.295	19.28
292.509	18.98
292.722	20.12
292.936	20.39
293.15	21.49
293.364	21.34
293.577	20.04
293.791	16.93
294.005	18.83
294.218	18.75
294.432	18.62
294.645	19.2
294.859	19.77
295.073	19.16
295.286	19.96
295.5	19.25
295.713	18.04
295.927	18.13
296.14	18.68
296.354	18.08
296.568	18.2
296.781	17.82
296.994	17.23
297.208	16.94
297.421	16.74
297.635	16.09
297.848	15.58
298.062	15.98
298.275	16.23
298.489	16.92
298.702	17.19
298.915	16.39
299.129	17.83
299.342	19.11
299.555	21.25
299.769	22.12
299.982	23.86
300.195	24.97
300.409	25.53
300.622	25.33
300.835	26.41
301.048	26
301.262	28.22
301.475	27.26
301.688	26.82
301.901	23.56
302.115	24.32
302.328	22.27
302.541	20.93
302.754	21.26
302.967	22.23
303.18	20.89
303.393	21.68
303.607	20.72
303.82	21.49
304.033	21.33
304.246	24.71
304.459	24.61
304.672	25.72
304.885	26.46
305.098	26.87
305.311	26.22
305.524	26.15
305.737	27.06
305.95	27.42
306.163	25.39
306.376	25.2
306.589	23.93
306.802	23.23
307.015	23.37
307.228	23.94
307.44	22.07
307.653	22.91
307.866	24.53
308.079	24.06
308.292	23.21
308.505	24.49
308.718	24.23
308.93	23.6
309.143	23.05
309.356	22.21
309.569	21.64
309.781	23.51
309.994	23.11
310.207	21.63
310.42	20.12
310.632	20.65
310.845	20.62
311.058	20.06
311.27	20.81
311.483	21.03
311.696	21.02
311.908	20.98
312.121	20.85
312.333	21.38
312.546	22.4
312.759	22
312.971	21.88
313.184	22.2
313.396	23.78
313.609	22.21
313.821	22.19
314.034	22.95
314.246	24.01
314.459	23.14
314.671	22.47
314.884	21.25
315.096	23.53
315.309	24.29
315.521	24.3
315.733	22.83
315.946	22.76
316.158	23.98
316.371	24.33
316.583	23.23
316.795	22.71
317.008	21.61
317.22	22.95
317.432	21.77
317.644	22.68
317.857	22.19
318.069	23.31
318.281	24.74
318.494	24.09
318.706	24.36
318.918	25.67
319.13	26.21
319.342	27.24
319.555	27.35
319.767	28.24
319.979	27.5
320.191	26.49
320.403	24.75
320.615	22.51
320.827	22.84
321.039	21.53
321.252	20.65
321.464	20.76
321.676	22.96
321.888	20.75
322.1	18.72
322.312	17.86
322.524	20.83
322.736	20.3
322.948	22.42
323.16	21.7
323.372	21.13
323.584	21.78
323.796	22.8
324.007	21.15
324.219	22.84
324.431	24.52
324.643	24.79
324.855	23.65
325.067	24.63
325.279	24.37
325.491	24.39
325.702	24.9
325.914	25.08
326.126	23.98
326.338	23.32
326.55	21.95
326.761	22.03
326.973	22.27
327.185	22.79
327.396	22.96
327.608	22.91
327.82	22.37
328.032	23.03
328.243	22.41
328.455	23.24
328.666	23.68
328.878	24.56
329.09	24.76
329.301	24.39
329.513	23.39
329.725	23.45
329.936	23.63
330.148	23.61
330.359	23.5
330.571	24.02
330.782	23.99
330.994	25.58
331.205	24.43
331.417	23.27
331.628	22.65
331.84	22.8
332.051	23.3
332.262	23.47
332.474	23.74
332.685	24.19
332.897	22.69
333.108	22.37
333.319	20.98
333.531	22.38
333.742	22.49
333.953	22.56
334.165	23.29
334.376	22.83
334.587	21.92
334.799	22.01
335.01	20.81
335.221	22.12
335.432	21.35
335.644	21.36
335.855	21.05
336.066	22.69
336.277	23.46
336.488	21.67
336.7	21.34
336.911	21.53
337.122	20.8
337.333	21.98
337.544	21.72
337.755	22.73
337.966	22.51
338.177	22.47
338.388	21.01
338.599	20.58
338.811	21.87
339.022	22.66
339.233	22.86
339.444	22.89
339.655	21.78
339.866	21.8
340.076	20.08
340.287	20.93
340.498	20.51
340.709	20.05
340.92	20.53
341.131	20.77
341.342	19.89
341.553	20.62
341.764	21.12
341.975	21.11
342.185	21.03
342.396	21.25
342.607	20.56
342.818	20.6
343.029	20.51
343.239	20.61
343.45	18.91
343.661	18.5
343.872	17.78
344.082	17.72
344.293	17.85
344.504	18.44
344.714	19.19
344.925	19.8
345.136	19.65
345.346	19.62
345.557	19.23
345.768	19.9
345.978	20.35
346.189	19.82
346.399	19.95
346.61	19.84
346.821	18.82
347.031	19.32
347.242	18.18
347.452	18.7
347.663	19.07
347.873	20.36
348.084	20.08
348.294	20.43
348.504	20.43
348.715	20.94
348.925	21.13
349.136	21.02
349.346	20.61
349.557	20.41
349.767	19.54
349.977	19.59
350.188	18.58
350.398	19.92
350.608	20.07
350.819	20.79
351.029	20.44
351.239	21.05
351.449	21.71
351.66	21.93
351.87	22.12
352.08	22.03
352.29	21.57
352.501	20.94
352.711	21.25
352.921	21.27
353.131	20.88
353.341	20.72
353.552	19.91
353.762	18.61
353.972	18.65
354.182	19.09
354.392	19.96
354.602	21
354.812	21.47
355.022	19.54
355.232	18.74
355.442	18.56
355.652	18.87
355.862	18.43
356.072	20.24
356.282	19.42
356.492	19.47
356.702	18.64
356.912	18.31
357.122	18.33
357.332	18.71
357.542	19.03
357.752	19.36
357.962	19.22
358.171	19.36
358.381	18.76
358.591	18.1
358.801	18.49
359.011	18.32
359.221	18.15
359.43	18.16
359.64	18.38
359.85	18.35
360.06	17.84
360.269	17.29
360.479	17.46
360.689	16.84
360.899	17.02
361.108	15.88
361.318	16.35
361.528	15.33
361.737	14.86
361.947	14.52
362.156	13.93
362.366	13.81
362.576	14.1
362.785	13.8
362.995	14.27
363.204	14.66
363.414	15.53
363.623	14.75
363.833	15.72
364.042	15.92
364.252	16.26
364.461	17.25
364.671	17.33
364.88	17.1
365.09	17.84
365.299	17.61
365.509	17.89
365.718	17.08
365.927	17.27
366.137	17.48
366.346	16.51
366.555	15.8
366.765	15.36
366.974	15.7
367.183	15.94
367.393	15.03
367.602	14.72
367.811	14.33
368.021	14.42
368.23	14.78
368.439	13.86
368.648	14.84
368.857	15.94
369.067	15.3
369.276	14.93
369.485	14.87
369.694	14.71
369.903	14.62
370.112	14.75
370.321	14.15
370.531	14.15
370.74	14.11
370.949	13.66
371.158	12.92
371.367	13.14
371.576	13.32
371.785	12.96
371.994	13.55
372.203	13.35
372.412	13.17
372.621	14.36
372.83	14.54
373.039	15.12
373.248	15.18
373.457	15.55
373.666	15.61
373.874	15.21
374.083	15.55
374.292	15.12
374.501	15.29
374.71	15.17
374.919	14.63
375.128	14.59
375.336	14.48
375.545	14.71
375.754	14.76
375.963	14.7
376.171	14.97
376.38	15.15
376.589	15.44
376.798	14.96
377.006	15.4
377.215	15.63
377.424	14.88
377.632	14.7
377.841	14.3
378.05	14.36
378.258	14.42
378.467	13.94
378.675	13.46
378.884	13.58
379.093	13.82
379.301	13.6
379.51	13.26
379.718	13.52
379.927	13.47
380.135	13.64
380.344	13.41
380.552	13.89
380.761	14.43
380.969	14.53
381.177	13.78
381.386	13.83
381.594	13.28
381.803	13.11
382.011	13.3
382.219	13.09
382.428	13.11
382.636	13.04
382.845	12.16
383.053	12.27
383.261	11.7
383.469	11.63
383.678	11.85
383.886	12.02
384.094	12.39
384.302	12.4
384.511	12.56
384.719	12.26
384.927	12.19
385.135	12.34
385.343	12.05
385.552	12.47
385.76	12.46
385.968	12.53
386.176	12.36
386.384	12.09
386.592	12.32
386.8	12.19
387.008	12.52
387.216	12.23
387.424	12.3
387.633	12.21
387.841	11.94
388.049	12.52
388.257	12.19
388.465	12.04
388.672	12
388.88	11.93
389.088	11.97
389.296	11.75
389.504	11.75
389.712	12.01
389.92	11.87
390.128	12.02
390.336	11.73
390.544	11.71
390.751	12.08
390.959	11.97
391.167	11.58
391.375	11.76
391.583	11.58
391.79	11.58
391.998	11.43
392.206	11.66
392.414	11.46
392.621	11.5
392.829	11.62
393.037	11.42
393.244	11.54
393.452	11.37
393.66	11.1
393.867	11.2
394.075	11.17
394.283	11.01
394.49	10.54
394.698	10.83
394.905	10.76
395.113	10.69
395.32	10.34
395.528	10.23
395.735	10.54
395.943	10.63
396.15	10.56
396.358	10.64
396.565	10.69
396.773	10.77
396.98	10.48
397.188	10.13
397.395	10
397.602	10.44
397.81	10.49
398.017	10.49
398.225	10.32
398.432	10.5
398.639	10.65
398.847	10.81
399.054	10.85
399.261	10.86
399.468	10.99
399.676	11.04
399.883	11.07
400.09	10.72
400.297	10.98
400.505	11.05
400.712	11.11
400.919	10.94
401.126	10.71
401.333	10.95
401.54	11.21
401.748	11.24
401.955	11.19
402.162	10.95
402.369	11.16
402.576	10.91
402.783	10.56
402.99	10.41
403.197	10.28
403.404	10.36
403.611	10.38
403.818	10.38
404.025	10.28
404.232	10.09
404.439	10.13
404.646	9.85
404.853	9.8
405.06	10.05
405.267	9.85
405.474	9.96
405.681	9.87
405.887	9.68
406.094	9.82
406.301	10.07
406.508	10.28
406.715	10.64
406.922	10.92
407.128	10.87
407.335	10.61
407.542	10.77
407.749	10.64
407.955	10.67
408.162	10.57
408.369	10.27
408.575	10.2
408.782	10.25
408.989	9.77
409.195	9.63
409.402	9.79
409.609	10.16
409.815	10.17
410.022	10.15
410.228	10.05
410.435	10.32
410.642	9.85
410.848	9.86
411.055	9.65
411.261	10.16
411.468	10.18
411.674	9.8
411.881	9.67
412.087	9.52
412.294	9.53
412.5	9.45
412.706	9.59
412.913	10.17
413.119	9.98
413.326	10.22
413.532	10.11
413.738	10.33
413.945	10.6
414.151	10.62
414.357	10.73
414.564	10.88
414.77	10.7
414.976	10.21
415.182	10.31
415.389	10.15
415.595	9.74
415.801	9.38
416.007	9.24
416.214	9.33
416.42	9.25
416.626	9.47
416.832	9.45
417.038	9.62
417.244	9.83
417.45	9.45
417.657	9.59
417.863	9.68
418.069	9.74
418.275	9.72
418.481	9.45
418.687	9.38
418.893	9.15
419.099	9.04
419.305	9.07
419.511	8.97
419.717	9.03
419.923	8.86
420.129	8.79
420.335	8.8
420.541	8.74
420.746	8.8
420.952	8.75
421.158	8.78
421.364	8.75
421.57	8.65
421.776	8.62
421.982	8.59
422.187	8.56
422.393	8.62
422.599	8.61
422.805	8.55
423.01	8.63
423.216	8.75
423.422	8.68
423.628	8.68
423.833	8.72
424.039	8.75
424.245	8.76
424.45	8.76
424.656	8.7
424.862	8.6
425.067	8.7
425.273	8.61
425.478	8.55
425.684	8.5
425.889	8.62
426.095	8.61
426.301	8.61
426.506	8.57
426.712	8.75
426.917	9.04
427.123	8.94
427.328	8.86
427.533	8.89
427.739	8.79
427.944	9.05
428.15	8.99
428.355	9.06
428.561	9.18
428.766	9.09
428.971	9.22
429.177	8.95
429.382	9.3
429.587	9.6
429.793	9.53
429.998	9.64
430.203	9.85
430.408	9.79
430.614	9.9
430.819	9.81
431.024	10.08
431.229	10.16
431.434	10.28
431.64	10.22
431.845	10.28
432.05	10.44
432.255	10.47
432.46	10.1
432.665	10.03
432.87	9.8
433.076	9.92
433.281	9.81
433.486	9.58
433.691	9.49
433.896	9.49
434.101	9.22
434.306	9.08
434.511	8.87
434.716	8.89
434.921	8.9
435.126	9.02
435.331	8.73
435.535	8.55
435.74	8.7
435.945	8.67
436.15	8.56
436.355	8.64
436.56	8.71
436.765	9.08
436.97	8.98
437.174	9.14
437.379	9.06
437.584	9.35
437.789	9.52
437.993	9.47
438.198	9.39
438.403	9.32
438.608	9.26
438.812	9.08
439.017	8.85
439.222	9.08
439.426	8.99
439.631	8.89
439.836	8.69
440.04	8.76
440.245	8.8
440.45	8.74
440.654	8.75
440.859	8.65
441.063	8.65
441.268	8.79
441.472	8.67
441.677	8.83
441.881	9.02
442.086	9.05
442.29	8.99
442.495	8.85
442.699	9.07
442.904	9.1
443.108	9.06
443.312	9.3
443.517	9.21
443.721	9.23
443.925	8.93
444.13	8.93
444.334	8.99
444.538	9.04
444.743	9.12
444.947	9.01
445.151	8.98
445.356	9.05
445.56	9.13
445.764	9.1
445.968	9.01
446.173	9.08
446.377	8.86
446.581	8.78
446.785	8.71
446.989	8.65
447.193	8.68
447.398	8.75
447.602	8.75
447.806	8.6
448.01	8.77
448.214	8.87
448.418	8.89
448.622	9.02
448.826	9.1
449.03	9.11
449.234	9.14
449.438	9.02
449.642	8.9
449.846	9.06
450.05	9.08
450.254	8.74
450.458	8.76
450.662	8.87
450.866	8.83
451.069	8.78
451.273	8.76
451.477	8.73
451.681	8.96
451.885	9.1
452.089	9.06
452.292	9.09
452.496	9.05
452.7	9.08
452.904	8.94
453.107	9.01
453.311	9.1
453.515	9.32
453.719	9.4
453.922	9.41
454.126	9.25
454.33	9.21
454.533	9.13
454.737	9.27
454.94	9.09
455.144	9.1
455.348	9.14
455.551	9.2
455.755	9.1
455.958	9.16
456.162	9
456.365	9.11
456.569	9.03
456.772	9.07
456.976	9.16
457.179	9.11
457.383	9.13
457.586	9.05
457.79	8.87
457.993	8.84
458.196	8.74
458.4	8.66
458.603	8.66
458.807	8.51
459.01	8.45
459.213	8.33
459.417	8.28
459.62	8.17
459.823	8.13
460.026	8.11
460.23	8.08
460.433	8.07
460.636	8.05
460.839	8.04
461.042	8.06
461.246	8.06
461.449	8.06
461.652	8.11
461.855	8.17
462.058	8.23
462.261	8.24
462.464	8.23
462.668	8.19
462.871	8.38
463.074	8.33
463.277	8.4
463.48	8.57
463.683	8.56
463.886	8.55
464.089	8.6
464.292	8.68
464.495	8.68
464.698	8.65
464.901	8.9
465.104	9
465.306	9.08
465.509	9.22
465.712	9
465.915	9.02
466.118	9.06
466.321	8.92
466.524	8.82
466.726	8.69
466.929	8.85
467.132	8.54
467.335	8.29
467.538	8.15
467.74	8.06
467.943	8.13
468.146	8.19
468.348	8.27
468.551	8.32
468.754	8.28
468.956	8.48
469.159	8.58
469.362	8.8
469.564	9.03
469.767	9.29
469.969	9.33
470.172	9.3
470.375	9.33
470.577	9.29
470.78	9.43
470.982	9.53
471.185	9.47
471.387	9.06
471.59	8.94
471.792	8.67
471.995	8.59
472.197	8.49
472.399	8.5
472.602	8.56
472.804	8.5
473.007	8.32
473.209	8.18
473.411	8.23
473.614	8.26
473.816	8.12
474.018	8.17
474.22	8.11
474.423	8.31
474.625	8.39
474.827	8.13
475.03	8.1
475.232	8.39
475.434	8.54
475.636	8.51
475.838	8.68
476.04	8.85
476.243	9.08
476.445	9
476.647	8.95
476.849	8.78
477.051	8.81
477.253	8.9
477.455	8.75
477.657	8.65
477.859	8.57
478.061	8.53
478.263	8.41
478.465	8.27
478.667	8.23
478.869	8.16
479.071	8.21
479.273	8.32
479.475	8.34
479.677	8.31
479.879	8.39
480.081	8.38
480.283	8.37
480.485	8.41
480.686	8.5
480.888	8.68
481.09	8.72
481.292	8.63
481.494	8.55
481.695	8.6
481.897	8.5
482.099	8.27
482.301	8.21
482.502	8.02
482.704	8.09
482.906	8.09
483.107	7.92
483.309	7.79
483.511	7.8
483.712	7.76
483.914	7.63
484.115	7.62
484.317	7.67
484.519	7.68
484.72	7.73
484.922	7.69
485.123	7.58
485.325	7.65
485.526	7.69
485.728	7.75
485.929	7.76
486.131	7.82
486.332	7.87
486.534	7.81
486.735	7.84
486.936	7.87
487.138	7.87
487.339	7.88
487.541	7.91
487.742	7.9
487.943	7.9
488.144	7.9
488.346	7.97
488.547	7.99
488.748	8.03
488.95	7.97
489.151	7.95
489.352	7.96
489.553	7.99
489.755	8
489.956	8.08
490.157	8.11
490.358	8.22
490.559	8.15
490.76	8.07
490.961	8.08
491.163	8.14
491.364	8.13
491.565	8
491.766	8.02
491.967	7.98
492.168	7.89
492.369	7.84
492.57	7.78
492.771	7.8
492.972	7.88
493.173	7.99
493.374	8.07
493.575	8.15
493.776	8.3
493.976	8.36
494.177	8.58
494.378	8.67
494.579	8.67
494.78	8.55
494.981	8.56
495.182	8.56
495.382	8.74
495.583	8.72
495.784	8.81
495.985	8.84
496.185	8.85
496.386	8.58
496.587	8.63
496.788	8.64
496.988	8.77
497.189	8.82
497.39	8.85
497.59	8.71
497.791	8.79
497.992	8.65
498.192	8.65
498.393	8.67
498.593	8.69
498.794	8.66
498.994	8.75
499.195	8.78
499.395	8.77
499.596	8.86
499.796	8.73
499.997	8.62
500.197	8.61
500.398	8.68
500.598	8.7
500.799	8.76
500.999	8.86
501.199	8.78
501.4	8.94
501.6	8.87
501.801	8.89
502.001	8.98
502.201	9.01
502.402	9.15
502.602	9.11
502.802	8.98
503.002	9.07
503.203	9.09
503.403	9.17
503.603	9.14
503.803	9.28
504.003	9.36
504.204	9.36
504.404	9.33
504.604	9.39
504.804	9.49
505.004	9.67
505.204	9.56
505.404	9.49
505.604	9.47
505.804	9.35
506.005	9.4
506.205	9.34
506.405	9.53
506.605	9.54
506.805	9.56
507.005	9.75
507.204	9.74
507.404	9.75
507.604	10.02
507.804	10.04
508.004	10.16
508.204	10
508.404	9.88
508.604	9.67
508.804	9.84
509.003	9.73
509.203	9.47
509.403	9.42
509.603	9.46
509.803	9.33
510.002	9.36
510.202	9.4
510.402	9.49
510.602	9.54
510.801	9.73
511.001	9.6
511.201	9.57
511.4	9.63
511.6	9.67
511.8	9.62
511.999	9.74
512.199	9.55
512.398	9.4
512.598	9.47
512.797	9.54
512.997	9.46
513.197	9.33
513.396	9.51
513.596	9.61
513.795	9.61
513.994	9.65
514.194	9.68
514.393	9.84
514.593	10.15
514.792	10.23
514.992	10.2
515.191	10.2
515.39	10.46
515.59	10.52
515.789	10.57
515.988	10.76
516.188	10.85
516.387	10.75
516.586	10.88
516.786	10.72
516.985	10.58
517.184	10.61
517.383	10.68
517.582	10.6
517.782	10.37
517.981	10.24
518.18	10.02
518.379	10.07
518.578	10.01
518.777	9.92
518.976	10
519.176	10.11
519.375	10.02
519.574	10.01
519.773	10.03
519.972	10.3
520.171	10.38
520.37	10.52
520.569	10.53
520.768	10.64
520.967	10.7
521.166	10.7
521.365	10.62
521.564	10.77
521.762	10.75
521.961	10.9
522.16	10.65
522.359	10.66
522.558	10.63
522.757	10.73
522.956	10.72
523.154	10.78
523.353	10.68
523.552	10.8
523.751	10.82
523.949	10.82
524.148	10.91
524.347	11.05
524.546	11.05
524.744	11.04
524.943	10.97
525.142	10.95
525.34	10.93
525.539	10.98
525.737	10.99
525.936	10.96
526.135	11.01
526.333	10.98
526.532	10.88
526.73	10.88
526.929	10.95
527.127	10.96
527.326	11.01
527.524	10.97
527.723	11
527.921	10.98
528.12	10.93
528.318	10.88
528.516	10.77
528.715	10.78
528.913	10.79
529.112	10.73
529.31	10.7
529.508	10.68
529.707	10.78
529.905	10.79
530.103	10.82
530.301	10.9
530.5	10.93
530.698	11.02
530.896	11.12
531.094	11.2
531.293	11.32
531.491	11.44
531.689	11.54
531.887	11.5
532.085	11.56
532.283	11.46
532.481	11.44
532.68	11.51
532.878	11.58
533.076	11.58
533.274	11.54
533.472	11.57
533.67	11.52
533.868	11.54
534.066	11.51
534.264	11.59
534.462	11.66
534.66	11.78
534.858	11.81
535.056	11.86
535.253	11.88
535.451	12.04
535.649	12.07
535.847	12.23
536.045	12.22
536.243	12.44
536.441	12.46
536.638	12.58
536.836	12.45
537.034	12.57
537.232	12.62
537.43	12.66
537.627	12.63
537.825	12.69
538.023	12.65
538.22	12.81
538.418	12.78
538.616	12.73
538.813	12.73
539.011	12.92
539.209	12.87
539.406	12.91
539.604	13.15
539.801	13.29
539.999	13.2
540.196	13.25
540.394	13.27
540.591	13.29
540.789	13.36
540.986	13.39
541.184	13.46
541.381	13.51
541.579	13.48
541.776	13.42
541.974	13.31
542.171	13.43
542.368	13.53
542.566	13.54
542.763	13.5
542.96	13.49
543.158	13.54
543.355	13.51
543.552	13.56
543.75	13.73
543.947	13.77
544.144	13.96
544.341	14.04
544.539	14.11
544.736	14.11
544.933	14.21
545.13	14.37
545.327	14.31
545.524	14.36
545.722	14.46
545.919	14.36
546.116	14.49
546.313	14.47
546.51	14.51
546.707	14.61
546.904	14.68
547.101	14.86
547.298	14.88
547.495	14.97
547.692	15.07
547.889	15.04
548.086	15.03
548.283	15.11
548.48	15.2
548.677	15.12
548.874	15.23
549.07	15.36
549.267	15.38
549.464	15.47
549.661	15.49
549.858	15.77
550.055	15.93
550.251	16.28
550.448	16.22
550.645	16.47
550.842	16.84
551.038	16.89
551.235	16.99
551.432	17.13
551.628	17.27
551.825	17.71
552.022	17.69
552.218	17.8
552.415	17.88
552.612	18.14
552.808	18
553.005	17.88
553.201	17.94
553.398	17.87
553.594	17.98
553.791	18
553.987	17.92
554.184	17.91
554.38	18.06
554.577	18.08
554.773	18.07
554.97	18.39
555.166	18.76
555.362	18.72
555.559	18.94
555.755	18.86
555.952	18.9
556.148	19.23
556.344	19.57
556.541	19.72
556.737	19.68
556.933	19.88
557.129	19.9
557.326	19.73
557.522	19.85
557.718	20.02
557.914	20.44
558.11	20.66
558.307	20.42
558.503	20.28
558.699	20.31
558.895	20.53
559.091	20.43
559.287	20.72
559.483	21.06
559.679	21.33
559.876	21.39
560.072	21.06
560.268	21.23
560.464	21.31
560.66	21.59
560.856	21.59
561.052	21.62
561.247	21.65
561.443	21.74
561.639	21.59
561.835	21.46
562.031	21.75
562.227	21.96
562.423	21.85
562.619	22.14
562.815	22.13
563.01	22.46
563.206	22.82
563.402	23.11
563.598	23.04
563.793	23.21
563.989	23.51
564.185	23.32
564.381	23.45
564.576	23.68
564.772	24.01
564.968	24
565.163	23.79
565.359	23.63
565.555	23.87
565.75	24.03
565.946	24.11
566.141	24.18
566.337	24.45
566.532	24.61
566.728	24.71
566.923	24.6
567.119	24.71
567.314	24.9
567.51	25.05
567.705	25.05
567.901	25.09
568.096	25.31
568.292	25.49
568.487	25.47
568.682	25.65
568.878	25.65
569.073	25.82
569.268	26.06
569.464	26.18
569.659	26.48
569.854	26.6
570.05	26.75
570.245	26.97
570.44	26.92
570.635	26.89
570.831	26.91
571.026	27.07
571.221	27.16
571.416	27.06
571.611	26.95
571.806	26.9
572.002	26.99
572.197	26.95
572.392	26.76
572.587	26.72
572.782	27.04
572.977	27.18
573.172	27.27
573.367	27.22
573.562	27.6
573.757	27.86
573.952	27.89
574.147	28.14
574.342	28.44
574.537	28.58
574.732	28.84
574.927	28.85
575.121	29.04
575.316	29.1
575.511	29.36
575.706	29.35
575.901	29.49
576.096	29.76
576.29	29.74
576.485	29.78
576.68	30.06
576.875	29.99
577.069	30
577.264	29.88
577.459	30.07
577.654	30.03
577.848	29.95
578.043	30.12
578.238	30.23
578.432	30.27
578.627	30.25
578.821	30.41
579.016	30.64
579.21	30.87
579.405	30.95
579.6	30.94
579.794	31.1
579.989	31.32
580.183	31.22
580.378	31.11
580.572	31.29
580.766	31.65
580.961	31.78
581.155	31.98
581.35	32.29
581.544	32.45
581.738	32.46
581.933	32.47
582.127	32.77
582.321	32.78
582.516	32.97
582.71	32.75
582.904	32.64
583.099	32.5
583.293	32.53
583.487	32.33
583.681	32.67
583.875	32.44
584.07	32.45
584.264	32.42
584.458	32.68
584.652	32.72
584.846	32.84
585.04	32.71
585.234	32.87
585.428	32.95
585.623	33
585.817	32.68
586.011	33.22
586.205	33.48
586.399	33.53
586.593	33.55
586.787	33.64
586.981	33.97
587.174	34.17
587.368	34.36
587.562	34.69
587.756	34.73
587.95	35
588.144	34.76
588.338	34.85
588.532	34.78
588.725	34.99
588.919	35.25
589.113	35
589.307	35.11
589.501	34.71
589.694	34.63
589.888	34.89
590.082	34.92
590.275	35.09
590.469	35.29
590.663	35.75
590.856	35.59
591.05	35.45
591.244	35.9
591.437	36.19
591.631	36.36
591.824	36.2
592.018	36.25
592.212	36.48
592.405	36.87
592.599	36.7
592.792	36.46
592.986	36.53
593.179	36.45
593.372	36.35
593.566	36.18
593.759	36.49
593.953	36.61
594.146	36.52
594.339	36.29
594.533	36.16
594.726	36.02
594.92	36.15
595.113	36.2
595.306	36.45
595.499	36.41
595.693	36.33
595.886	36.24
596.079	36.31
596.272	36.39
596.466	36.57
596.659	36.64
596.852	36.85
597.045	36.77
597.238	36.91
597.431	36.85
597.624	37.01
597.818	37.01
598.011	37
598.204	36.93
598.397	36.84
598.59	36.93
598.783	36.98
598.976	36.9
599.169	36.87
599.362	36.95
599.555	37.07
599.748	37.08
599.941	37.51
600.134	37.59
600.326	37.93
600.519	38.41
600.712	38.44
600.905	38.27
601.098	38.55
601.291	38.82
601.483	38.91
601.676	38.97
601.869	38.95
602.062	38.75
602.255	38.86
602.447	38.68
602.64	38.48
602.833	38.27
603.025	38.55
603.218	38.46
603.411	38.25
603.603	38.02
603.796	38.04
603.989	37.94
604.181	37.98
604.374	38.02
604.566	38.04
604.759	38.04
604.951	38.14
605.144	37.95
605.336	38.2
605.529	38.47
605.721	38.58
605.914	38.52
606.106	38.58
606.299	38.77
606.491	38.64
606.683	38.53
606.876	38.54
607.068	38.62
607.26	39
607.453	38.92
607.645	38.78
607.837	38.88
608.03	39
608.222	39.04
608.414	39
608.606	39.16
608.799	39.46
608.991	39.28
609.183	39.45
609.375	39.25
609.567	39.34
609.759	39.21
609.952	39.4
610.144	39.55
610.336	39.8
610.528	39.59
610.72	39.61
610.912	39.53
611.104	39.74
611.296	39.48
611.488	39.7
611.68	39.31
611.872	39.45
612.064	39.71
612.256	39.45
612.448	39.46
612.64	39.78
612.832	40.03
613.023	40.35
613.215	40.62
613.407	40.67
613.599	40.58
613.791	41.31
613.983	41.4
614.174	40.99
614.366	41.34
614.558	41.16
614.75	41.13
614.941	40.9
615.133	40.76
615.325	40.84
615.516	41.01
615.708	41.04
615.9	40.61
616.091	40.51
616.283	40.44
616.475	40.26
616.666	40.55
616.858	40.62
617.049	40.59
617.241	40.5
617.432	40.1
617.624	40.41
617.815	40.44
618.007	40.59
618.198	40.75
618.39	40.91
618.581	40.73
618.773	40.62
618.964	40.45
619.155	40.76
619.347	40.88
619.538	41.01
619.729	40.82
619.921	41.04
620.112	41.17
620.303	41.2
620.494	40.99
620.686	41.27
620.877	41.29
621.068	41.49
621.259	41.27
621.451	41.58
621.642	41.79
621.833	41.5
622.024	41.28
622.215	41.61
622.406	41.59
622.597	41.95
622.788	41.96
622.98	42.01
623.171	41.98
623.362	42.51
623.553	42.31
623.744	42.31
623.935	42.66
624.126	42.4
624.317	42.08
624.508	42.34
624.698	42.13
624.889	42.04
625.08	42.22
625.271	42.54
625.462	42.13
625.653	42.17
625.844	41.77
626.034	41.68
626.225	42.05
626.416	41.97
626.607	41.94
626.798	42.04
626.988	42.01
627.179	41.88
627.37	41.69
627.56	41.93
627.751	41.83
627.942	42.14
628.132	42.14
628.323	42.09
628.514	42.2
628.704	42.04
628.895	41.98
629.085	42
629.276	41.98
629.466	42.15
629.657	41.81
629.847	41.95
630.038	41.86
630.228	41.97
630.419	42.19
630.609	42.31
630.8	42.56
630.99	42.7
631.181	43.07
631.371	43.26
631.561	42.92
631.752	42.9
631.942	42.82
632.132	43.2
632.323	43.22
632.513	43.16
632.703	42.77
632.893	42.65
633.084	42.77
633.274	42.64
633.464	42.29
633.654	42.79
633.844	42.91
634.034	43.13
634.225	42.59
634.415	42.63
634.605	42.66
634.795	42.87
634.985	42.92
635.175	42.93
635.365	42.75
635.555	43.14
635.745	42.84
635.935	42.99
636.125	42.67
636.315	43.25
636.505	43.29
636.695	42.97
636.885	42.87
637.075	42.86
637.265	42.91
637.455	43.31
637.644	43.2
637.834	43.34
638.024	42.99
638.214	43.29
638.404	43.34
638.593	43.62
638.783	43.97
638.973	44.4
639.163	44.33
639.352	44.02
639.542	43.87
639.732	44.28
639.921	44.37
640.111	44.77
640.301	44.75
640.49	44.8
640.68	44.35
640.87	44.11
641.059	44
641.249	44.43
641.438	44.76
641.628	44.88
641.817	44.78
642.007	44.87
642.196	45.22
642.386	45.26
642.575	45.39
642.764	45.4
642.954	45.46
643.143	45.5
643.333	45.3
643.522	44.97
643.711	44.92
643.901	44.54
644.09	44.49
644.279	44.74
644.469	44.94
644.658	44.37
644.847	44.84
645.036	44.86
645.226	44.95
645.415	45.24
645.604	45.27
645.793	45.45
645.982	45.6
646.171	45.44
646.361	44.73
646.55	44.68
646.739	44.97
646.928	44.85
647.117	45.18
647.306	45.11
647.495	44.7
647.684	44.73
647.873	44.53
648.062	44.8
648.251	45
648.44	45.35
648.629	45.19
648.818	45.21
649.007	45.19
649.196	45.2
649.384	45.21
649.573	45.64
649.762	46
649.951	46.03
650.14	46.18
650.328	46.36
650.517	46.21
650.706	46.2
650.895	46.25
651.083	46.75
651.272	46.66
651.461	46.58
651.65	46.7
651.838	46.55
652.027	46.44
652.216	45.88
652.404	45.72
652.593	45.93
652.781	45.94
652.97	46.26
653.158	45.6
653.347	45.84
653.535	45.8
653.724	45.58
653.912	46.05
654.101	46.4
654.289	46.56
654.478	46.41
654.666	46.42
654.855	46.3
655.043	46.11
655.231	46.29
655.42	46.39
655.608	46.77
655.796	46.8
655.985	46.66
656.173	46.5
656.361	46.73
656.55	46.85
656.738	46.84
656.926	47.22
657.114	47.37
657.302	47.12
657.491	46.67
657.679	46.21
657.867	45.99
658.055	45.74
658.243	45.85
658.431	45.72
658.619	46.01
658.807	45.93
658.996	45.68
659.184	45.71
659.372	45.93
659.56	46.25
659.748	46.37
659.936	46.99
660.124	46.75
660.311	47.06
660.499	47.26
660.687	47.08
660.875	47.22
661.063	46.89
661.251	46.74
661.439	46.91
661.627	46.88
661.814	46.91
662.002	46.53
662.19	46.87
662.378	46.88
662.565	46.82
662.753	47
662.941	46.46
663.129	46.91
663.316	47.09
663.504	46.94
663.692	47.35
663.879	47.49
664.067	47.54
664.254	47.46
664.442	47.22
664.63	47.38
664.817	47.3
665.005	47.92
665.192	47.99
665.38	48.12
665.567	48.22
665.755	47.83
665.942	47.99
666.13	47.77
666.317	47.81
666.504	47.58
666.692	47.79
666.879	47.68
667.067	47.73
667.254	48.17
667.441	48.14
667.629	48.72
667.816	48.77
668.003	48.66
668.19	48.52
668.378	48.44
668.565	48.79
668.752	48.36
668.939	48.53
669.127	48.4
669.314	48.17
669.501	48.1
669.688	47.83
669.875	47.73
670.062	47.75
670.249	48.23
670.436	48.41
670.623	48.32
670.81	48.72
670.997	48.52
671.184	48.38
671.371	48.66
671.558	48.72
671.745	48.01
671.932	47.91
672.119	48.04
672.306	47.99
672.493	48.43
672.68	48.71
672.867	48.68
673.054	48.95
673.24	49.03
673.427	48.66
673.614	48.56
673.801	49.39
673.988	49.43
674.174	49.6
674.361	49.77
674.548	49.28
674.734	48.49
674.921	48.74
675.108	48.65
675.294	49.06
675.481	49.01
675.668	49.82
675.854	49.62
676.041	49.29
676.227	48.96
676.414	48.75
676.601	48.94
676.787	49.24
676.974	49.23
677.16	49.37
677.347	49.3
677.533	49.62
677.719	48.88
677.906	48.63
678.092	49.24
678.279	49.09
678.465	48.73
678.651	48.74
678.838	49.03
679.024	48.44
679.21	47.88
679.397	47.87
679.583	47.56
679.769	47.38
679.955	47.54
680.142	47.27
680.328	47.24
680.514	47.57
680.7	47.6
680.886	47.62
681.073	48.04
681.259	48.68
681.445	48.58
681.631	48.69
681.817	48.73
682.003	48.7
682.189	48.55
682.375	48.95
682.561	48.94
682.747	49.08
682.933	49.03
683.119	48.6
683.305	48
683.491	47.93
683.677	48.25
683.863	48.81
684.049	49.14
684.235	49.29
684.42	49.49
684.606	49.04
684.792	49.01
684.978	48.96
685.164	49.08
685.349	49.41
685.535	49.86
685.721	49.63
685.907	48.57
686.092	48.39
686.278	49.11
686.464	48.67
686.649	48.92
686.835	48.89
687.021	49.42
687.206	49.54
687.392	49.37
687.577	49.14
687.763	49.51
687.948	49.65
688.134	49.5
688.319	48.93
688.505	49.61
688.69	49.74
688.876	49.74
689.061	49.12
689.247	49.28
689.432	49.13
689.618	48.95
689.803	48.59
689.988	49.57
690.174	49.9
690.359	50.16
690.544	49.75
690.73	50.43
690.915	50.37
691.1	50.66
691.285	50.49
691.471	51.26
691.656	51.45
691.841	51.56
692.026	50.75
692.211	51
692.396	51.14
692.582	50.86
692.767	50.38
692.952	50.92
693.137	51.01
693.322	51.48
693.507	51.13
693.692	51.21
693.877	51.33
694.062	52.14
694.247	51.84
694.432	51.67
694.617	51.79
694.802	52.22
694.987	51.87
695.172	51.81
695.357	51.4
695.541	51.69
695.726	51.92
695.911	51.9
696.096	51.04
696.281	51.02
696.466	51.31
696.65	51.4
696.835	50.79
697.02	50
697.204	50.55
697.389	51.16
697.574	51.09
697.759	50.77
697.943	50.7
698.128	50.82
698.312	50.67
698.497	50.06
698.682	50.01
698.866	49.86
699.051	50.29
699.235	49.59
699.42	49.08
699.604	49.07
699.789	49.05
699.973	48.65
700.158	48.67
700.342	48.76
700.527	49.34
700.711	50.19
700.895	50.73
701.08	51.13
701.264	51.76
701.448	52.38
701.633	52.61
701.817	53.73
702.001	54.63
702.186	54.84
702.37	55.08
702.554	54.4
702.738	53.25
702.923	53.11
703.107	52.98
703.291	52.63
703.475	52.17
703.659	51.35
703.843	49.87
704.027	49.66
704.212	49.42
704.396	49.3
704.58	50.66
704.764	50.91
704.948	50.87
705.132	50.46
705.316	50.67
705.5	50.41
705.684	50.55
705.868	51.21
706.052	51.59
706.235	53.16
706.419	52.92
706.603	52.83
706.787	52.89
706.971	52.9
707.155	53.19
707.339	53.21
707.522	54.08
707.706	54.76
707.89	55.31
708.074	55.72
708.257	54.41
708.441	55.02
708.625	54.35
708.808	54.37
708.992	54.82
709.176	55.1
709.359	55.04
709.543	54.85
709.727	55.17
709.91	54.57
710.094	54.36
710.277	54.79
710.461	54.71
710.644	55.19
710.828	55.21
711.011	54.85
711.195	54.33
711.378	54.97
711.562	54.22
711.745	53.62
711.928	53.36
712.112	53.24
712.295	52.76
712.478	52.75
712.662	53.04
712.845	53.69
713.028	53.72
713.212	54.3
713.395	53.75
713.578	54.26
713.761	54.04
713.945	54.49
714.128	54.19
714.311	54.51
714.494	53.59
714.677	52.66
714.86	51.9
715.043	51.83
715.227	51.45
715.41	51
715.593	51.21
715.776	51.81
715.959	51.06
716.142	50.95
716.325	50.73
716.508	51.61
716.691	51.97
716.874	52.05
717.057	52.19
717.239	52.25
717.422	52.61
717.605	52.37
717.788	52.2
717.971	53.78
718.154	53.83
718.337	53.69
718.519	53.72
718.702	54.21
718.885	54.2
719.068	54.27
719.25	54.79
719.433	54.34
719.616	54.18
719.798	54.48
719.981	54.59
720.164	54.27
720.346	55.07
720.529	55.09
720.712	54.74
720.894	54.69
721.077	54.64
721.259	54.06
721.442	55.47
721.624	55.6
721.807	55.41
721.989	53.56
722.172	54.13
722.354	54.02
722.537	53.45
722.719	53.12
722.901	53.37
723.084	53.12
723.266	53.36
723.448	52.93
723.631	53.18
723.813	53.36
723.995	54.08
724.178	54.63
724.36	54.6
724.542	54.38
724.724	54.78
724.907	55.04
725.089	55.72
725.271	56.34
725.453	55.24
725.635	55.1
725.817	56.02
725.999	56.98
726.181	56.68
726.364	56.91
726.546	56.85
726.728	57.33
726.91	56.9
727.092	56
727.274	55.45
727.456	56.69
727.638	56.53
727.819	54.95
728.001	53.11
728.183	53.3
728.365	52.83
728.547	53.12
728.729	53.51
728.911	53.48
729.093	53.65
729.274	53.13
729.456	53.42
729.638	53.77
729.82	54.58
730.001	54.48
730.183	54.32
730.365	54.84
730.546	55.69
730.728	55.02
730.91	55.53
731.091	56.09
731.273	56.14
731.455	55.31
731.636	54.77
731.818	54.55
731.999	55.38
732.181	55.23
732.362	54.96
732.544	55.11
732.725	54.31
732.907	54.3
733.088	53.79
733.27	55.1
733.451	55.27
733.633	56.24
733.814	56.29
733.995	56.34
734.177	56.99
734.358	56.34
734.539	55.73
734.721	56.53
734.902	56.01
735.083	56.92
735.264	56.62
735.446	57.26
735.627	56.18
735.808	55.56
735.989	55.19
736.17	54.81
736.351	55.5
736.533	55.93
736.714	55.54
736.895	56.21
737.076	54.91
737.257	54.15
737.438	53.91
737.619	54.13
737.8	53.76
737.981	55.14
738.162	55.45
738.343	55.8
738.524	56.17
738.705	55.99
738.886	56.36
739.067	56.41
739.247	56.05
739.428	55.52
739.609	55.99
739.79	56.84
739.971	55.85
740.151	55.93
740.332	55.68
740.513	55.07
740.694	55.86
740.874	55.66
741.055	57.54
741.236	57.63
741.417	57.56
741.597	56.95
741.778	56.73
741.958	56.27
742.139	56.33
742.32	56.49
742.5	56.64
742.681	56.63
742.861	56.7
743.042	54.37
743.222	55.14
743.403	55.07
743.583	55.73
743.764	56.69
743.944	58.31
744.124	57.58
744.305	57.62
744.485	57.98
744.666	58.04
744.846	57.76
745.026	59.19
745.207	59.17
745.387	60.99
745.567	61.68
745.747	60.7
745.928	59.87
746.108	60.32
746.288	61.1
746.468	60.91
746.648	61.24
746.829	61.27
747.009	61.95
747.189	61.91
747.369	62.08
747.549	61.44
747.729	61.88
747.909	62.35
748.089	61.83
748.269	60.77
748.449	61.05
748.629	60.4
748.809	59.49
748.989	58.54
749.169	57.81
749.349	56.82
749.529	57.06
749.709	56.8
749.889	56.15
750.068	56.02
750.248	56.36
750.428	55.78
750.608	55.45
750.788	56.72
750.967	56.91
751.147	56.91
751.327	56.75
751.507	56.06
751.686	56.67
751.866	58.02
752.046	58.8
752.225	59.03
752.405	59.63
752.585	59.62
752.764	58.94
752.944	58.79
753.123	59.9
753.303	59.87
753.482	60.74
753.662	60.43
753.841	59.13
754.021	59.21
754.2	58.94
754.38	58.21
754.559	58.47
754.739	58.34
754.918	58.48
755.097	57.01
755.277	56.48
755.456	56.75
755.635	56.63
755.815	57.4
755.994	57.03
756.173	56.34
756.352	56.89
756.532	56.67
756.711	56.29
756.89	56.18
757.069	56.93
757.248	56.12
757.427	54.39
757.607	54.66
757.786	55.34
757.965	54.16
758.144	54.86
758.323	55.98
758.502	56.72
758.681	57.04
758.86	57.24
759.039	56.75
759.218	57.72
759.397	58.17
759.576	58.2
759.755	55.85
759.934	56.53
760.113	57.01
760.291	55.45
760.47	55.84
760.649	57.02
760.828	57.48
761.007	57.94
761.186	58.34
761.364	58.64
761.543	58.07
761.722	58.53
761.901	58.31
762.079	57.88
762.258	57.92
762.437	58.09
762.615	57.22
762.794	56.51
762.972	55.76
763.151	55.14
763.33	54.62
763.508	54.45
763.687	54.93
763.865	54.98
764.044	55.51
764.222	55.87
764.401	55.6
764.579	55.45
764.758	55.3
764.936	55.86
765.114	56.16
765.293	57.37
765.471	58.42
765.65	58.2
765.828	58.46
766.006	57.78
766.184	57.9
766.363	57.25
766.541	57.13
766.719	57.34
766.898	57.87
767.076	58.23
767.254	57.22
767.432	56.69
767.61	56.42
767.788	56.6
767.967	56.78
768.145	54.8
768.323	54.97
768.501	55.23
768.679	55.45
768.857	55.68
769.035	57.87
769.213	58.6
769.391	57.98
769.569	60.47
769.747	62.15
769.925	61.31
770.103	63.76
770.281	63.4
770.459	63.98
770.636	65.32
770.814	64.68
770.992	62.1
771.17	62.52
771.348	62.76
771.525	60.48
771.703	57.84
771.881	59.26
772.059	61
772.236	61.25
772.414	61.88
772.592	62.21
772.769	63.19
772.947	63.64
773.125	64.09
773.302	64.17
773.48	64.93
773.657	66.27
773.835	65.21
774.013	63.09
774.19	64.18
774.368	62.64
774.545	61.67
774.723	62.73
774.9	62.84
775.077	62.91
775.255	62.7
775.432	64.82
775.61	65.07
775.787	65.11
775.964	65.74
776.142	64.83
776.319	65.03
776.496	64.97
776.674	64.09
776.851	64.32
777.028	63.91
777.205	65.24
777.382	64.19
777.56	64.79
777.737	69.36
777.914	69.42
778.091	70.05
778.268	69.95
778.445	69.14
778.622	69.07
778.8	70.66
778.977	71.53
779.154	64.45
779.331	63.41
779.508	61.79
779.685	58.02
779.862	57.54
780.038	57.11
780.215	58.89
780.392	58.35
780.569	58.12
780.746	56.2
780.923	56.07
781.1	63.22
781.277	63.4
781.453	64.34
781.63	62.89
781.807	65.38
781.984	63.74
782.16	61.85
782.337	62.82
782.514	63.52
782.691	64.65
782.867	64.76
783.044	66.02
783.221	67.74
783.397	68.29
783.574	68.85
783.75	68.84
783.927	71.78
784.103	73.83
784.28	73.27
784.456	72.37
784.633	71.89
784.809	71.56
784.986	70.55
785.162	67.73
785.339	66.35
785.515	68.51
785.692	65.18
785.868	62.81
786.044	61.71
786.221	61.35
786.397	63.22
786.573	62.93
786.749	63.64
786.926	66.19
787.102	67.59
787.278	68.01
787.454	68.46
787.631	68.54
787.807	70.45
787.983	71.15
788.159	71.78
788.335	69.9
788.511	70.72
788.687	69.9
788.863	68.67
789.039	67.67
789.216	66.4
789.392	64.49
789.568	65.28
789.744	66.29
789.919	64.97
790.095	64.9
790.271	65.28
790.447	63.87
790.623	63.13
790.799	63.65
790.975	64.16
791.151	64.36
791.327	66.34
791.502	65.41
791.678	62.23
791.854	63.47
792.03	63.07
792.205	62.26
792.381	63.57
792.557	61.9
792.733	61.4
792.908	60.24
793.084	62.96
793.259	61.06
793.435	64.15
793.611	68.07
793.786	66.12
793.962	66.56
794.137	66.74
794.313	65.82
794.488	68.56
794.664	66.01
794.839	67.8
795.015	67.25
795.19	66.79
795.366	64.86
795.541	60.94
795.716	60.98
795.892	62.99
796.067	62.82
796.242	62.03
796.418	62.17
796.593	65.92
796.768	67.39
796.944	67.51
797.119	68.54
797.294	68.36
797.469	70.09
797.644	72.46
797.82	70.34
797.995	69.74
798.17	72.26
798.345	70.49
798.52	68.06
798.695	66.27
798.87	64.12
799.045	63.49
799.22	64.37
799.395	64.81
799.57	63.96
799.745	64.46
799.92	66.33
800.095	66.91
800.27	68.02
800.445	67.09
800.62	68.27
800.795	68.41
800.97	70.26
801.145	66.69
801.319	64.33
801.494	61.21
801.669	64.27
801.844	63.33
802.018	59.46
802.193	61.36
802.368	59.67
802.543	60.86
802.717	62.72
802.892	62.41
803.067	66.42
803.241	68.72
803.416	70.47
803.59	68.08
803.765	70.73
803.94	71.69
804.114	66.95
804.289	70.28
804.463	70.14
804.638	68.59
804.812	67.14
804.986	65.71
805.161	63.92
805.335	66.4
805.51	64.24
805.684	62.28
805.858	63.42
806.033	65.31
806.207	65.83
806.381	60.9
806.556	64.51
806.73	65.31
806.904	67.49
807.078	69.63
807.253	70.15
807.427	72.45
807.601	71.27
807.775	70.71
807.949	68.99
808.123	68.71
808.298	70.11
808.472	70.74
808.646	71.6
808.82	70.48
808.994	70.53
809.168	68.7
809.342	69.4
809.516	71.4
809.69	73.51
809.864	71.03
810.038	73.39
810.212	76.62
810.385	73.36
810.559	72.51
810.733	73.51
810.907	71.82
811.081	72.32
811.255	72.87
811.428	73.53
811.602	71.34
811.776	75.27
811.95	72.52
812.123	74.48
812.297	74.96
812.471	73.37
812.644	70.18
812.818	71.82
812.992	71.28
813.165	70.31
813.339	68.54
813.512	69.47
813.686	69.02
813.86	67.25
814.033	64.46
814.207	66.3
814.38	65.36
814.554	67.27
814.727	67.44
814.9	65.61
815.074	60.6
815.247	59.74
815.421	55.88
815.594	60.92
815.767	63.55
815.941	62.83
816.114	62.47
816.287	64.44
816.46	63.41
816.634	62.32
816.807	65.58
816.98	70.16
817.153	71.05
817.327	75.45
817.5	72.76
817.673	75.18
817.846	77.62
818.019	76.64
818.192	79.22
818.365	78.95
818.538	78.58
818.711	75.71
818.884	73.85
819.057	75.65
819.23	73.11
819.403	70.18
819.576	65.85
819.749	63.35
819.922	61.59
820.095	59.64
820.268	60.67
820.441	59.5
820.614	61.01
820.786	61.45
820.959	60.85
821.132	61.41
821.305	61.14
821.477	60.16
821.65	57.87
821.823	57.97
821.996	56.75
822.168	56.75
822.341	56.01
822.514	56.05
822.686	55.32
822.859	54.83
823.031	53.87
823.204	53.58
823.376	53.53
823.549	54.06
823.722	53.76
823.894	54.06
824.067	53.07
824.239	53.22
824.411	52.79
824.584	53.18
824.756	52.56
824.929	53.26
825.101	53.41
825.273	53.42
825.446	53.18
825.618	52.85
825.79	52.37
825.963	52.53
826.135	52.89
826.307	53.65
826.479	53.75
826.652	53.85
826.824	54.39
826.996	54.57
827.168	54.83
827.34	55.76
827.512	55.78
827.684	56.27
827.856	56.89
828.029	56.6
828.201	54.9
828.373	54.46
828.545	55.61
828.717	55.03
828.889	54.51
829.061	55.39
829.232	56.05
829.404	57.22
829.576	58.44
829.748	58.51
829.92	61.15
830.092	64.33
830.264	64.53
830.436	63.9
830.607	64.59
830.779	66.16
830.951	67.49
831.123	66.34
831.294	65.52
831.466	67.38
831.638	68.43
831.809	63.86
831.981	63.72
832.153	65.65
832.324	67.36
832.496	67.71
832.667	69.19
832.839	68.89
833.011	68.37
833.182	71.07
833.354	66.77
833.525	67.04
833.697	68.82
833.868	66.55
834.039	65.54
834.211	63.51
834.382	62.59
834.554	61.57
834.725	61.94
834.896	62.1
835.068	61.9
835.239	61.6
835.41	61.3
835.581	62.67
835.753	63.27
835.924	62.63
836.095	63.59
836.266	64.77
836.438	64.67
836.609	62.43
836.78	62.16
836.951	62.72
837.122	64.9
837.293	65.25
837.464	64.16
837.635	65.33
837.806	66.42
837.977	66.25
838.148	65.55
838.319	69.8
838.49	71.6
838.661	72.76
838.832	73.81
839.003	74.45
839.174	76.41
839.345	76.66
839.516	78.14
839.687	81.63
839.857	80.12
840.028	76.39
840.199	74.15
840.37	75.81
840.54	78.63
840.711	73.97
840.882	75.2
841.053	75.93
841.223	78.7
841.394	76.46
841.564	79.02
841.735	81.38
841.906	88.63
842.076	87.67
842.247	85.63
842.417	86.49
842.588	91.21
842.758	92.4
842.929	89.1
843.099	87.61
843.27	89.45
843.44	88.6
843.611	93.32
843.781	90.68
843.951	91.88
844.122	91.12
844.292	90.14
844.462	89.75
844.633	83.09
844.803	87.05
844.973	86.76
845.144	87.96
845.314	83.21
845.484	82.74
845.654	85.15
845.824	89.04
845.995	97.39
846.165	105.42
846.335	102.81
846.505	113.91
846.675	115.89
846.845	136.96
847.015	136.84
847.185	142.04
847.355	144.31
847.525	147.15
847.695	140.35
847.865	134.39
848.035	125.47
848.205	132.58
848.375	130.01
848.545	122.53
848.715	104.97
848.884	104.93
849.054	109.76
849.224	108.37
849.394	105.69
849.564	111.22
849.733	127.68
849.903	132.62
850.073	138.49
850.243	142.14
850.412	142.65
850.582	134.24
850.752	146.75
850.921	126.26
851.091	132.46
851.26	138.77
851.43	136.41
851.599	131.65
851.769	126.23
851.939	111.79
852.108	109.7
852.278	114.75
852.447	119.93
852.616	124.99
852.786	125.06
852.955	124.17
853.125	122.78
853.294	112.27
853.463	99.02
853.633	97.03
853.802	111.65
853.971	115.54
854.141	113.86
854.31	117.86
854.479	118.57
854.648	134.69
854.818	135.43
854.987	134.82
855.156	157.28
855.325	164.3
855.494	180.66
855.663	168.71
855.832	155.89
856.001	165.21
856.171	162.28
856.34	156.18
856.509	161.5
856.678	158.92
856.847	145.38
857.016	141.12
857.185	136.75
857.353	129.14
857.522	127.03
857.691	132.15
857.86	133.79
858.029	132.57
858.198	126.65
858.367	115.51
858.535	114.53
858.704	118.22
858.873	124.3
859.042	122.75
859.21	131.43
859.379	131.8
859.548	128.16
859.717	117.72
859.885	118.79
860.054	124.28
860.222	121.02
860.391	117.26
860.56	120.67
860.728	110.8
860.897	109.48
861.065	100.36
861.234	95.27
861.402	105.16
861.571	102.57
861.739	106.7
861.908	99.41
862.076	106.29
862.244	104.24
862.413	105.33
862.581	115.89
862.749	124.35
862.918	136.96
863.086	153.08
863.254	142.42
863.423	153.41
863.591	142.57
863.759	147.99
863.927	156.79
864.096	162.5
864.264	176.81
864.432	167.35
864.6	163.63
864.768	157.84
864.936	173.21
865.104	158.4
865.272	172.8
865.44	174.13
865.608	173.39
865.776	152.8
865.944	156.45
866.112	142.45
866.28	148.38
866.448	137.34
866.616	128.6
866.784	122.95
866.952	135.48
867.12	113.64
867.288	104.68
867.455	114.41
867.623	120.55
867.791	110.15
867.959	112.16
868.127	104.57
868.294	117.77
868.462	113.42
868.63	104.66
868.797	97.88
868.965	102.02
869.133	107.41
869.3	104.12
869.468	103.76
869.636	98.68
869.803	92.6
869.971	96.59
870.138	93.54
870.306	90.25
870.473	88.55
870.641	86.68
870.808	94.76
870.975	98.75
871.143	100.55
871.31	99.75
871.478	118.87
871.645	126.12
871.812	129.92
871.98	129.68
872.147	139.76
872.314	137.16
872.482	156.53
872.649	148.78
872.816	155.48
872.983	159.05
873.15	160.83
873.318	152.42
873.485	148.13
873.652	128.08
873.819	123.03
873.986	112.32
874.153	116.2
874.32	116.16
874.487	111.33
874.654	102.03
874.821	97.71
874.988	91.31
875.155	91.46
875.322	89
875.489	104.52
875.656	110.33
875.823	119.6
875.99	124.82
876.157	122.1
876.324	119.71
876.49	120.46
876.657	116.8
876.824	136.26
876.991	149.23
877.157	160.84
877.324	162.97
877.491	169.59
877.658	158.83
877.824	172.26
877.991	154.35
878.157	164.23
878.324	156.94
878.491	167.41
878.657	164.87
878.824	138.42
878.99	126.17
879.157	112.87
879.323	94.11
879.49	96.84
879.656	97.95
879.823	103.16
879.989	101.74
880.156	104.09
880.322	89.44
880.488	85.25
880.655	97.86
880.821	102.28
880.987	102.75
881.154	106.68
881.32	103.62
881.486	95.2
881.652	91.73
881.819	86.34
881.985	86.27
882.151	89.9
882.317	86.18
882.483	79.26
882.649	77.67
882.816	76.83
882.982	72.95
883.148	69.69
883.314	67.54
883.48	65.5
883.646	65.22
883.812	63.1
883.978	62.57
884.144	60.67
884.31	60.97
884.476	60.24
884.642	58.24
884.807	59.72
884.973	57.9
885.139	58.74
885.305	62.09
885.471	63.11
885.637	60.06
885.802	59.18
885.968	60.27
886.134	63.2
886.3	63.12
886.465	66.03
886.631	65.78
886.797	73.76
886.962	75.22
887.128	73.27
887.293	73.62
887.459	78.54
887.625	82.63
887.79	91.18
887.956	85.87
888.121	87.25
888.287	87.28
888.452	88.84
888.618	83.97
888.783	84.54
