Data from LC_240_Reflection_2.txt Node
Date: Thu Nov 19 22:26:35 EST 2015
User: robert
Spectrometer: USB4E03001
Autoset integration time: false
Trigger mode: 4
Integration Time (sec): 1.000000E-1
Scans to average: 15
Electric dark correction enabled: true
Nonlinearity correction enabled: false
Boxcar width: 5
Stray light correction enabled: false
XAxis mode: Wavelengths
Stop averaging: false
Number of Pixels in Spectrum: 3648
>>>>>Begin Spectral Data<<<<<
177.566	-76.07
177.785	-8.1
178.005	24.97
178.225	21.88
178.445	46.14
178.665	12.61
178.885	68.92
179.105	400
179.324	156.16
179.544	15.54
179.764	59.46
179.984	97.33
180.204	85.07
180.423	19.31
180.643	59.46
180.863	39.76
181.083	101.2
181.302	58.06
181.522	55.11
181.742	81.24
181.961	96.16
182.181	110.7
182.401	99.35
182.621	50.54
182.84	129.14
183.06	80.51
183.279	37.78
183.499	27.16
183.719	52.21
183.938	-751.18
184.158	859.72
184.377	573.18
184.597	-323.89
184.816	2129.25
185.036	-16.68
185.256	-603.89
185.475	10.94
185.695	69
185.914	99.44
186.134	106.19
186.353	206.82
186.572	172.03
186.792	408.04
187.011	-2925.7
187.231	-853.49
187.45	-936.45
187.67	-77.19
187.889	-65.9
188.108	-3.72
188.328	8.19
188.547	-3.15
188.766	26.77
188.986	148.83
189.205	-1639.22
189.424	40.02
189.644	106.33
189.863	64.64
190.082	62.26
190.302	71.6
190.521	104.18
190.74	126.74
190.959	162.57
191.178	148.52
191.398	183.46
191.617	142.1
191.836	535.27
192.055	174.56
192.274	259.01
192.494	250.32
192.713	91.65
192.932	51.78
193.151	45.44
193.37	28.18
193.589	26.97
193.808	47.6
194.027	64.65
194.246	51.72
194.465	64.32
194.685	49.89
194.904	42.64
195.123	62.54
195.342	87.57
195.561	62.55
195.78	55.69
195.999	47.57
196.218	47.53
196.436	42.41
196.655	30.1
196.874	26.5
197.093	56.5
197.312	29.26
197.531	63.3
197.75	82.5
197.969	190.59
198.188	-589.07
198.407	-160.67
198.625	-189.15
198.844	-119.41
199.063	-1410.28
199.282	-134.53
199.501	-54.74
199.719	-165.39
199.938	22.3
200.157	19.18
200.376	93.67
200.594	-617.56
200.813	-486.75
201.032	26.93
201.251	-41.83
201.469	-364.24
201.688	-56.87
201.907	-32.73
202.125	-58.53
202.344	20.79
202.563	-4.01
202.781	-62.73
203	-54.11
203.218	-13.18
203.437	-107.06
203.656	1.1
203.874	78.45
204.093	55.97
204.311	52.45
204.53	19.65
204.748	27.38
204.967	42.44
205.185	23.87
205.404	34.36
205.622	66.72
205.841	110.6
206.059	75.79
206.278	47.71
206.496	64.9
206.715	44.29
206.933	82.2
207.151	82.9
207.37	41.89
207.588	83.68
207.806	86.6
208.025	41.4
208.243	-57.23
208.461	-154.58
208.68	-214.05
208.898	-143.36
209.116	-166.37
209.335	-227.64
209.553	-1116.97
209.771	6080.67
209.989	-839.25
210.208	620.83
210.426	1058.04
210.644	-213.87
210.862	-53.01
211.081	-5.74
211.299	-1.75
211.517	38.55
211.735	20.29
211.953	43.01
212.171	61.38
212.39	77.07
212.608	58.11
212.826	76.22
213.044	68.8
213.262	28.86
213.48	2.93
213.698	29.35
213.916	50.95
214.134	57.08
214.352	7.01
214.57	12.13
214.788	-103.5
215.006	-1.71
215.224	-57.52
215.442	-182.76
215.66	49.57
215.878	135.44
216.096	50.41
216.314	-63.8
216.532	121.51
216.75	672.65
216.968	-64.92
217.185	-381.79
217.403	39.88
217.621	-383.13
217.839	76.72
218.057	78.66
218.275	85.03
218.492	110.51
218.71	87.15
218.928	74.72
219.146	36.02
219.363	25.49
219.581	29.41
219.799	59.72
220.017	56.25
220.234	62.07
220.452	50.6
220.67	31.04
220.887	15.4
221.105	39.3
221.323	29.11
221.54	46.22
221.758	59.11
221.976	40.08
222.193	48.92
222.411	36.34
222.629	38.33
222.846	33.39
223.064	44.56
223.281	53.82
223.499	25.65
223.716	34.36
223.934	17.53
224.151	16.16
224.369	24.72
224.586	16.56
224.804	29.95
225.021	29.02
225.239	34.47
225.456	12.37
225.674	3.39
225.891	25.3
226.108	35.25
226.326	41.91
226.543	36.88
226.76	25.43
226.978	22.16
227.195	17.56
227.413	15.91
227.63	13.5
227.847	19.99
228.064	18.19
228.282	17.23
228.499	11.82
228.716	13.57
228.934	15.13
229.151	15.65
229.368	14.06
229.585	13.31
229.802	12.51
230.02	13.67
230.237	12.99
230.454	12.88
230.671	11.5
230.888	13.04
231.105	10.35
231.323	9
231.54	8.06
231.757	9.02
231.974	12.71
232.191	16.02
232.408	12.81
232.625	13.73
232.842	15.16
233.059	19.27
233.276	23.09
233.493	23.61
233.71	23.07
233.927	25.25
234.144	26.63
234.361	24.02
234.578	21.06
234.795	19.87
235.012	21.15
235.229	19.07
235.446	17.69
235.663	10.7
235.879	5.28
236.096	5.06
236.313	1.07
236.53	1.25
236.747	2.04
236.964	2.69
237.181	2.4
237.397	1.02
237.614	1.73
237.831	2.79
238.048	10.45
238.264	13.56
238.481	14.25
238.698	17.77
238.915	19.45
239.131	14.11
239.348	13.46
239.565	15.99
239.781	18.53
239.998	17.04
240.215	16.25
240.431	14.35
240.648	15.7
240.865	14.9
241.081	14.01
241.298	14.73
241.514	15.98
241.731	17.12
241.947	15.79
242.164	14.71
242.38	15.01
242.597	15.07
242.814	14.3
243.03	14.86
243.246	15.73
243.463	14.15
243.679	13.07
243.896	13.98
244.112	13.57
244.329	13.25
244.545	12.32
244.762	11.57
244.978	11.51
245.194	12.15
245.411	11.5
245.627	11.52
245.843	12.85
246.06	14.45
246.276	13.3
246.492	12.09
246.709	12.47
246.925	12.23
247.141	12.34
247.357	11.71
247.574	11.46
247.79	11.57
248.006	11.8
248.222	11.39
248.439	10.37
248.655	10.84
248.871	11.2
249.087	10.84
249.303	10.82
249.519	10
249.736	10.21
249.952	9.99
250.168	9.9
250.384	8.91
250.6	11.26
250.816	11.84
251.032	9.82
251.248	12.43
251.464	13.05
251.68	13.74
251.896	15.22
252.112	15.5
252.328	15.23
252.544	13.92
252.76	13.36
252.976	13
253.192	11.84
253.408	12.21
253.624	11.2
253.84	10.02
254.056	8.85
254.272	7.78
254.487	5.89
254.703	6.61
254.919	5.56
255.135	5.48
255.351	2.94
255.567	6.6
255.782	6.57
255.998	5.67
256.214	8.22
256.43	8.42
256.646	10.64
256.861	12.31
257.077	11.74
257.293	15.43
257.508	16.67
257.724	19.25
257.94	17.29
258.155	18.2
258.371	17.37
258.587	15.59
258.802	14.3
259.018	13.37
259.234	12.73
259.449	12.6
259.665	11.99
259.88	11.74
260.096	10.87
260.312	9.61
260.527	8.79
260.743	8.49
260.958	9.34
261.174	10.21
261.389	9.79
261.605	9.94
261.82	9.09
262.036	8.34
262.251	7.79
262.466	7.97
262.682	9.29
262.897	10.31
263.113	9.63
263.328	9.54
263.543	9.69
263.759	11.65
263.974	12.36
264.189	13.01
264.405	11.61
264.62	10.86
264.835	10.14
265.051	9.34
265.266	8.8
265.481	10.25
265.696	9.72
265.912	9.02
266.127	8.25
266.342	7.45
266.557	9.15
266.773	10.26
266.988	10.38
267.203	10.63
267.418	10.81
267.633	9.83
267.848	9.86
268.064	9.63
268.279	8.52
268.494	7.84
268.709	7.9
268.924	6.47
269.139	6.35
269.354	6.36
269.569	5.76
269.784	5.89
269.999	6
270.214	5.59
270.429	4.88
270.644	5
270.859	5.43
271.074	4.84
271.289	5.5
271.504	6.34
271.719	6.55
271.934	6.1
272.149	6.53
272.363	7.39
272.578	7.63
272.793	7.45
273.008	8.56
273.223	8.65
273.438	9.8
273.653	9.77
273.867	9.75
274.082	8.94
274.297	9.46
274.512	10.15
274.726	10.28
274.941	9.84
275.156	8.7
275.371	7.72
275.585	8.36
275.8	7.47
276.015	7.9
276.229	8.33
276.444	9.43
276.659	9.51
276.873	8.8
277.088	8.46
277.302	8.61
277.517	10.9
277.732	10.75
277.946	10.73
278.161	11.36
278.375	11.79
278.59	11.5
278.804	11.48
279.019	10.95
279.233	11.01
279.448	11.51
279.662	12.64
279.877	12.23
280.091	13.04
280.306	11.42
280.52	10.12
280.735	9.72
280.949	8.7
281.163	8.31
281.378	9.27
281.592	9.62
281.806	9.62
282.021	10.24
282.235	9.29
282.449	8.37
282.664	9.18
282.878	9.37
283.092	8.92
283.307	9.67
283.521	10.13
283.735	9.87
283.949	10.2
284.164	9.67
284.378	8.15
284.592	8.5
284.806	9.71
285.02	9.1
285.234	9.37
285.449	9.34
285.663	9.51
285.877	9.73
286.091	9.31
286.305	8.74
286.519	9.05
286.733	9.4
286.947	10.11
287.161	9.04
287.375	9.18
287.589	8.7
287.803	9.03
288.017	9.43
288.231	9.74
288.445	9.9
288.659	9.42
288.873	8.89
289.087	8.26
289.301	8
289.515	8.87
289.729	8.99
289.943	10.37
290.157	10.99
290.371	10.31
290.584	10.34
290.798	11.05
291.012	11.59
291.226	11
291.44	12.92
291.654	12.49
291.867	12.16
292.081	12.32
292.295	12.42
292.509	11.27
292.722	11.21
292.936	10.31
293.15	8.91
293.364	10.03
293.577	11.82
293.791	9.64
294.005	10.58
294.218	10.37
294.432	9.89
294.645	8.66
294.859	9.16
295.073	8.44
295.286	8.47
295.5	9.75
295.713	8.54
295.927	7.75
296.14	8.12
296.354	6.76
296.568	7.48
296.781	7.59
296.994	7.8
297.208	7.65
297.421	8.47
297.635	9.08
297.848	8.76
298.062	8.63
298.275	8.55
298.489	8.82
298.702	10.32
298.915	10.1
299.129	10.4
299.342	9.95
299.555	10.09
299.769	9.26
299.982	8.78
300.195	8.51
300.409	8.78
300.622	8.63
300.835	8.37
301.048	7.41
301.262	6.66
301.475	5.66
301.688	6.49
301.901	6.45
302.115	6.21
302.328	6.41
302.541	5.94
302.754	6.08
302.967	6.64
303.18	6.28
303.393	5.37
303.607	6.63
303.82	7.5
304.033	7.5
304.246	7.35
304.459	8.33
304.672	7.91
304.885	8.71
305.098	9.3
305.311	8.84
305.524	9.58
305.737	10.1
305.95	9.63
306.163	8.59
306.376	7.55
306.589	7.92
306.802	7.4
307.015	7.47
307.228	7.7
307.44	7.49
307.653	8.02
307.866	7.88
308.079	8.16
308.292	8.83
308.505	9.25
308.718	8.69
308.93	8.62
309.143	8.84
309.356	8.24
309.569	8.25
309.781	7.97
309.994	7.5
310.207	6.97
310.42	8.04
310.632	6.84
310.845	7.02
311.058	8.23
311.27	8.25
311.483	8.13
311.696	8.69
311.908	8.56
312.121	7.7
312.333	8.02
312.546	7.23
312.759	7.32
312.971	8.66
313.184	8.47
313.396	8.64
313.609	8.38
313.821	9.06
314.034	10.03
314.246	10.11
314.459	10.88
314.671	11.03
314.884	12.52
315.096	11.01
315.309	9.58
315.521	10.02
315.733	10.34
315.946	10.63
316.158	10.29
316.371	9.25
316.583	8.87
316.795	7.97
317.008	6.81
317.22	5.73
317.432	6.5
317.644	7.82
317.857	7.81
318.069	5.71
318.281	4.41
318.494	4.9
318.706	4.3
318.918	4.49
319.13	4.98
319.342	4.27
319.555	4.86
319.767	4.09
319.979	2.61
320.191	3.46
320.403	5.23
320.615	6.29
320.827	5.68
321.039	4.88
321.252	4.61
321.464	6.36
321.676	7.54
321.888	7.71
322.1	8.53
322.312	8.88
322.524	8.88
322.736	7.98
322.948	8.79
323.16	8.3
323.372	8.49
323.584	9.15
323.796	8.08
324.007	8.08
324.219	8.24
324.431	7.39
324.643	6.96
324.855	6.79
325.067	6.9
325.279	5.97
325.491	6.4
325.702	7.17
325.914	6.56
326.126	6.83
326.338	7.65
326.55	7.5
326.761	7.86
326.973	8.59
327.185	7.94
327.396	9.08
327.608	9.38
327.82	9.21
328.032	9.08
328.243	9.97
328.455	10.19
328.666	9.63
328.878	9.78
329.09	10.52
329.301	10.58
329.513	10.75
329.725	9.02
329.936	9.08
330.148	9
330.359	9.61
330.571	9.29
330.782	9.18
330.994	9.58
331.205	8.98
331.417	8.81
331.628	8.35
331.84	8.99
332.051	9.82
332.262	9.98
332.474	11.03
332.685	10.4
332.897	10.57
333.108	10.37
333.319	10.77
333.531	10.71
333.742	10.34
333.953	11.36
334.165	10.69
334.376	11.25
334.587	11.44
334.799	9.9
335.01	9.5
335.221	9.14
335.432	9.73
335.644	9.29
335.855	10
336.066	10.56
336.277	10.02
336.488	9.41
336.7	8.45
336.911	7.16
337.122	8.88
337.333	10
337.544	9.87
337.755	8.8
337.966	7.89
338.177	8.34
338.388	8.06
338.599	8.12
338.811	9.04
339.022	8.87
339.233	9.42
339.444	9.48
339.655	8.89
339.866	8.67
340.076	8.83
340.287	9.47
340.498	7.93
340.709	8.27
340.92	7.4
341.131	7.17
341.342	7.72
341.553	8.2
341.764	7.25
341.975	7.23
342.185	7.14
342.396	7.91
342.607	8.64
342.818	9.37
343.029	8.84
343.239	9.13
343.45	9.29
343.661	9.23
343.872	8.72
344.082	8.85
344.293	8.73
344.504	9.02
344.714	8.75
344.925	8.31
345.136	8.31
345.346	8.83
345.557	9.2
345.768	9.08
345.978	9.14
346.189	8.99
346.399	9.29
346.61	8.87
346.821	8.77
347.031	8.48
347.242	8.4
347.452	8.55
347.663	8.09
347.873	8.55
348.084	8.17
348.294	8.37
348.504	8.9
348.715	9.15
348.925	9.8
349.136	9.69
349.346	9.85
349.557	10.1
349.767	9.66
349.977	9.48
350.188	8.91
350.398	9.34
350.608	9.21
350.819	9.25
351.029	8.53
351.239	8.83
351.449	8.57
351.66	8.4
351.87	7.71
352.08	7.95
352.29	9.02
352.501	9.15
352.711	9.49
352.921	9.91
353.131	9.22
353.341	8.92
353.552	8.8
353.762	8.68
353.972	9
354.182	9.68
354.392	9.87
354.602	8.74
354.812	8.58
355.022	7.94
355.232	7.42
355.442	7.87
355.652	7.86
355.862	7.69
356.072	8.13
356.282	8.73
356.492	8.36
356.702	8.49
356.912	8.28
357.122	8.94
357.332	9.15
357.542	8.86
357.752	8.84
357.962	9.54
358.171	9.88
358.381	10.28
358.591	9.04
358.801	9.28
359.011	9.26
359.221	9.23
359.43	8.36
359.64	8.79
359.85	9.14
360.06	9.03
360.269	8.73
360.479	8.19
360.689	8.25
360.899	8.15
361.108	8.08
361.318	7.7
361.528	7.87
361.737	8.32
361.947	7.96
362.156	7.84
362.366	8.08
362.576	7.96
362.785	8.35
362.995	7.7
363.204	8.19
363.414	7.98
363.623	8.03
363.833	8.07
364.042	7.6
364.252	7.85
364.461	7.6
364.671	7.43
364.88	8.02
365.09	7.64
365.299	7.91
365.509	8.12
365.718	8.4
365.927	8.82
366.137	8.86
366.346	9.27
366.555	8.94
366.765	9.37
366.974	9.03
367.183	8.09
367.393	7.8
367.602	8.08
367.811	8.13
368.021	8.3
368.23	7.07
368.439	6.64
368.648	5.81
368.857	6.37
369.067	5.99
369.276	7.19
369.485	7.13
369.694	7.8
369.903	7.09
370.112	6.72
370.321	6.01
370.531	6.59
370.74	6.4
370.949	6.61
371.158	5.72
371.367	5.95
371.576	4.67
371.785	4.98
371.994	4.62
372.203	4.88
372.412	4.98
372.621	5.24
372.83	5.35
373.039	5.65
373.248	6.15
373.457	6.75
373.666	6.82
373.874	7.13
374.083	7.42
374.292	7.47
374.501	7.66
374.71	7.87
374.919	7.9
375.128	8.22
375.336	8.46
375.545	8.3
375.754	7.88
375.963	7.96
376.171	7.95
376.38	7.22
376.589	6.99
376.798	6.66
377.006	6.55
377.215	6.77
377.424	6.65
377.632	6.57
377.841	6.54
378.05	6.98
378.258	6.74
378.467	6.79
378.675	7.13
378.884	7.02
379.093	7.35
379.301	7.66
379.51	7.39
379.718	7.44
379.927	7.27
380.135	7.32
380.344	6.86
380.552	6.89
380.761	6.7
380.969	6.88
381.177	7.18
381.386	6.9
381.594	6.25
381.803	6.23
382.011	5.99
382.219	6
382.428	6.11
382.636	6.2
382.845	6.23
383.053	5.9
383.261	5.74
383.469	5.95
383.678	5.97
383.886	6.43
384.094	6.47
384.302	6.86
384.511	6.61
384.719	6.45
384.927	6.64
385.135	6.65
385.343	6.92
385.552	7.32
385.76	6.95
385.968	7.01
386.176	6.58
386.384	6.45
386.592	6.41
386.8	6.84
387.008	6.61
387.216	6.26
387.424	5.91
387.633	6.14
387.841	5.69
388.049	5.63
388.257	5.72
388.465	5.65
388.672	5.74
388.88	5.54
389.088	5.45
389.296	5.66
389.504	5.86
389.712	6.18
389.92	5.87
390.128	5.89
390.336	6.27
390.544	6.24
390.751	6.48
390.959	6.54
391.167	6.54
391.375	6.47
391.583	6.18
391.79	6.05
391.998	6.15
392.206	6.49
392.414	6.67
392.621	6.42
392.829	6.39
393.037	6.38
393.244	6.1
393.452	5.89
393.66	5.78
393.867	6.09
394.075	6.23
394.283	5.71
394.49	5.47
394.698	5.41
394.905	5.33
395.113	5.28
395.32	5.43
395.528	5.71
395.735	5.87
395.943	5.87
396.15	5.64
396.358	5.4
396.565	5.75
396.773	5.73
396.98	5.72
397.188	5.86
397.395	5.84
397.602	5.65
397.81	5.5
398.017	5.29
398.225	5.37
398.432	5.21
398.639	5
398.847	4.79
399.054	4.95
399.261	4.7
399.468	4.71
399.676	4.54
399.883	4.36
400.09	4.32
400.297	4.54
400.505	4.46
400.712	4.7
400.919	5.04
401.126	5.2
401.333	5
401.54	5.16
401.748	5.28
401.955	5.59
402.162	5.79
402.369	5.79
402.576	6.07
402.783	6.15
402.99	6.11
403.197	6.18
403.404	5.99
403.611	5.98
403.818	5.92
404.025	5.78
404.232	5.54
404.439	5.59
404.646	5.5
404.853	5.15
405.06	4.96
405.267	5.13
405.474	4.92
405.681	5.08
405.887	5.23
406.094	5.3
406.301	5.34
406.508	5.64
406.715	5.26
406.922	5.23
407.128	5.05
407.335	5.07
407.542	5.06
407.749	5.1
407.955	5.08
408.162	5.1
408.369	5.05
408.575	5.1
408.782	4.81
408.989	4.92
409.195	4.97
409.402	5.02
409.609	4.78
409.815	4.53
410.022	4.71
410.228	4.78
410.435	4.46
410.642	4.44
410.848	4.32
411.055	4.03
411.261	4.42
411.468	4.45
411.674	4.8
411.881	5.43
412.087	5.43
412.294	5.35
412.5	5.1
412.706	5.29
412.913	5.35
413.119	5.33
413.326	5.37
413.532	5.22
413.738	5.16
413.945	4.76
414.151	4.77
414.357	4.85
414.564	4.85
414.77	4.89
414.976	4.93
415.182	4.82
415.389	4.85
415.595	4.96
415.801	4.89
416.007	4.99
416.214	5.17
416.42	4.98
416.626	5.02
416.832	5.01
417.038	5.1
417.244	5.04
417.45	4.98
417.657	4.96
417.863	5.24
418.069	5.25
418.275	5.36
418.481	5.33
418.687	5.19
418.893	5.29
419.099	5.24
419.305	5.37
419.511	5.37
419.717	5.48
419.923	5.46
420.129	5.25
420.335	5.07
420.541	4.89
420.746	4.83
420.952	4.92
421.158	4.75
421.364	4.85
421.57	4.81
421.776	4.9
421.982	4.91
422.187	4.91
422.393	4.91
422.599	5
422.805	5.03
423.01	4.93
423.216	4.76
423.422	4.73
423.628	4.63
423.833	4.5
424.039	4.33
424.245	4.23
424.45	4.36
424.656	4.41
424.862	4.34
425.067	4.29
425.273	4.46
425.478	4.52
425.684	4.64
425.889	4.68
426.095	4.65
426.301	4.65
426.506	4.7
426.712	4.58
426.917	4.74
427.123	4.98
427.328	5.05
427.533	5.11
427.739	5.38
427.944	5.28
428.15	5.25
428.355	5.2
428.561	5.27
428.766	5.27
428.971	5.25
429.177	4.96
429.382	4.76
429.587	5.08
429.793	4.86
429.998	4.65
430.203	4.59
430.408	4.6
430.614	4.78
430.819	4.89
431.024	4.79
431.229	4.71
431.434	4.81
431.64	4.86
431.845	4.66
432.05	4.7
432.255	4.61
432.46	4.63
432.665	4.74
432.87	4.71
433.076	4.72
433.281	4.67
433.486	4.74
433.691	4.62
433.896	4.44
434.101	4.27
434.306	4.29
434.511	4.24
434.716	4.32
434.921	4.18
435.126	4.18
435.331	3.95
435.535	3.96
435.74	3.81
435.945	4
436.15	4.08
436.355	4.32
436.56	4.27
436.765	4.42
436.97	4.34
437.174	4.46
437.379	4.4
437.584	4.41
437.789	4.37
437.993	4.47
438.198	4.38
438.403	4.36
438.608	4.3
438.812	4.26
439.017	4.23
439.222	4.29
439.426	4.14
439.631	4.14
439.836	4.3
440.04	4.32
440.245	4.23
440.45	4.21
440.654	4.24
440.859	4.2
441.063	4.42
441.268	4.38
441.472	4.29
441.677	4.26
441.881	4.35
442.086	4.19
442.29	4.13
442.495	4.06
442.699	4.17
442.904	4.25
443.108	4.16
443.312	3.85
443.517	3.89
443.721	4.1
443.925	4.29
444.13	4.31
444.334	4.51
444.538	4.67
444.743	4.81
444.947	4.76
445.151	4.62
445.356	4.75
445.56	4.96
445.764	4.94
445.968	4.81
446.173	4.76
446.377	4.67
446.581	4.59
446.785	4.55
446.989	4.55
447.193	4.48
447.398	4.43
447.602	4.36
447.806	4.3
448.01	4.2
448.214	4.22
448.418	4.12
448.622	4.08
448.826	4.15
449.03	4.18
449.234	4.07
449.438	3.98
449.642	4.11
449.846	4.17
450.05	4.18
450.254	4.27
450.458	4.34
450.662	4.43
450.866	4.47
451.069	4.32
451.273	4.18
451.477	4.21
451.681	4.2
451.885	4.3
452.089	4.26
452.292	4.1
452.496	4.06
452.7	3.88
452.904	3.66
453.107	3.57
453.311	3.83
453.515	3.89
453.719	4.02
453.922	4.14
454.126	3.92
454.33	3.84
454.533	3.82
454.737	3.78
454.94	3.75
455.144	4.05
455.348	4.18
455.551	4
455.755	3.97
455.958	3.99
456.162	3.94
456.365	4.07
456.569	4.22
456.772	4.34
456.976	4.45
457.179	4.54
457.383	4.52
457.586	4.47
457.79	4.49
457.993	4.33
458.196	4.32
458.4	4.33
458.603	4.35
458.807	4.34
459.01	4.28
459.213	4.27
459.417	4.28
459.62	4.2
459.823	4.09
460.026	3.97
460.23	4.15
460.433	4.15
460.636	4.08
460.839	4.02
461.042	4.03
461.246	4.02
461.449	3.92
461.652	3.92
461.855	3.93
462.058	4
462.261	4.22
462.464	4.1
462.668	3.91
462.871	4.08
463.074	4.05
463.277	3.81
463.48	3.88
463.683	4.01
463.886	4.08
464.089	4.03
464.292	4.06
464.495	3.97
464.698	3.92
464.901	4.01
465.104	3.98
465.306	4.08
465.509	4.22
465.712	4.17
465.915	4.13
466.118	4.07
466.321	4.21
466.524	4.11
466.726	4.04
466.929	4.05
467.132	3.99
467.335	3.95
467.538	3.73
467.74	3.67
467.943	3.67
468.146	3.74
468.348	3.74
468.551	3.54
468.754	3.63
468.956	3.69
469.159	3.82
469.362	3.84
469.564	3.82
469.767	4.18
469.969	4.17
470.172	4.26
470.375	4.19
470.577	4.14
470.78	4.3
470.982	4.51
471.185	4.5
471.387	4.35
471.59	4.4
471.792	4.4
471.995	4.22
472.197	4.25
472.399	4.23
472.602	4.35
472.804	4.23
473.007	4.14
473.209	3.84
473.411	3.89
473.614	4.07
473.816	4.11
474.018	4.26
474.22	4.23
474.423	4.3
474.625	4.23
474.827	4.18
475.03	4.28
475.232	4.29
475.434	4.55
475.636	4.46
475.838	4.51
476.04	4.53
476.243	4.38
476.445	4.42
476.647	4.28
476.849	4.19
477.051	4.09
477.253	4.12
477.455	4.22
477.657	4.14
477.859	4.12
478.061	3.96
478.263	3.9
478.465	3.83
478.667	3.84
478.869	4.11
479.071	4.12
479.273	4.08
479.475	4.07
479.677	3.95
479.879	3.97
480.081	4.04
480.283	4.08
480.485	4.03
480.686	4.16
480.888	4.05
481.09	3.92
481.292	3.96
481.494	4.03
481.695	4.06
481.897	4.07
482.099	3.87
482.301	3.87
482.502	3.9
482.704	3.91
482.906	3.9
483.107	3.95
483.309	3.93
483.511	3.94
483.712	3.91
483.914	3.91
484.115	3.89
484.317	3.96
484.519	3.93
484.72	3.93
484.922	3.93
485.123	3.94
485.325	3.91
485.526	3.89
485.728	3.88
485.929	3.88
486.131	3.83
486.332	3.88
486.534	3.88
486.735	3.92
486.936	3.92
487.138	3.96
487.339	3.87
487.541	3.97
487.742	3.99
487.943	4.08
488.144	4.06
488.346	4.14
488.547	4.15
488.748	4.19
488.95	4.21
489.151	4.19
489.352	4.14
489.553	4.33
489.755	4.3
489.956	4.32
490.157	4.3
490.358	4.35
490.559	4.33
490.76	4.27
490.961	4.22
491.163	4.2
491.364	4.26
491.565	4.34
491.766	4.22
491.967	4.21
492.168	4.17
492.369	4.21
492.57	4.21
492.771	4.18
492.972	4.21
493.173	4.26
493.374	4.27
493.575	4.24
493.776	4.15
493.976	4.07
494.177	4.04
494.378	4.23
494.579	3.99
494.78	3.92
494.981	3.98
495.182	4
495.382	3.88
495.583	3.95
495.784	3.88
495.985	3.98
496.185	4.06
496.386	4.19
496.587	4.07
496.788	4.13
496.988	4.23
497.189	4.14
497.39	4.26
497.59	4.27
497.791	4.26
497.992	4.35
498.192	4.33
498.393	4.46
498.593	4.55
498.794	4.51
498.994	4.59
499.195	4.63
499.395	4.66
499.596	4.55
499.796	4.52
499.997	4.49
500.197	4.45
500.398	4.49
500.598	4.41
500.799	4.2
500.999	4.12
501.199	4.23
501.4	4.24
501.6	4.33
501.801	4.29
502.001	4.38
502.201	4.32
502.402	4.3
502.602	4.38
502.802	4.44
503.002	4.48
503.203	4.65
503.403	4.55
503.603	4.46
503.803	4.52
504.003	4.56
504.204	4.74
504.404	4.78
504.604	4.74
504.804	4.91
505.004	4.89
505.204	4.91
505.404	4.82
505.604	4.81
505.804	4.87
506.005	4.87
506.205	4.92
506.405	4.81
506.605	4.87
506.805	5.03
507.005	4.82
507.204	4.81
507.404	4.74
507.604	4.73
507.804	4.87
508.004	5.03
508.204	5.12
508.404	5.11
508.604	5.16
508.804	4.99
509.003	4.94
509.203	4.92
509.403	4.95
509.603	5.01
509.803	5.03
510.002	4.95
510.202	4.69
510.402	4.53
510.602	4.56
510.801	4.54
511.001	4.61
511.201	4.6
511.4	4.64
511.6	4.79
511.8	4.86
511.999	4.87
512.199	4.97
512.398	5.11
512.598	5.25
512.797	5.39
512.997	5.36
513.197	5.49
513.396	5.61
513.596	5.59
513.795	5.4
513.994	5.34
514.194	5.57
514.393	5.54
514.593	5.6
514.792	5.6
514.992	5.41
515.191	5.55
515.39	5.54
515.59	5.58
515.789	5.64
515.988	5.82
516.188	5.9
516.387	5.79
516.586	5.83
516.786	5.78
516.985	5.73
517.184	5.73
517.383	5.71
517.582	5.75
517.782	5.71
517.981	5.74
518.18	5.61
518.379	5.62
518.578	5.64
518.777	5.72
518.976	5.79
519.176	5.95
519.375	6.1
519.574	6.1
519.773	6.12
519.972	6.23
520.171	6.31
520.37	6.46
520.569	6.52
520.768	6.7
520.967	6.61
521.166	6.59
521.365	6.66
521.564	6.54
521.762	6.66
521.961	6.6
522.16	6.62
522.359	6.58
522.558	6.72
522.757	6.62
522.956	6.58
523.154	6.61
523.353	6.77
523.552	6.62
523.751	6.79
523.949	6.76
524.148	6.81
524.347	6.92
524.546	6.95
524.744	7.05
524.943	7.25
525.142	7.24
525.34	7.32
525.539	7.27
525.737	7.25
525.936	7.28
526.135	7.33
526.333	7.43
526.532	7.43
526.73	7.49
526.929	7.37
527.127	7.34
527.326	7.3
527.524	7.35
527.723	7.36
527.921	7.47
528.12	7.47
528.318	7.46
528.516	7.44
528.715	7.44
528.913	7.48
529.112	7.54
529.31	7.59
529.508	7.65
529.707	7.63
529.905	7.73
530.103	7.76
530.301	7.82
530.5	7.89
530.698	7.95
530.896	7.98
531.094	7.95
531.293	7.94
531.491	7.91
531.689	7.83
531.887	7.91
532.085	7.86
532.283	7.85
532.481	7.82
532.68	7.84
532.878	7.94
533.076	8
533.274	8.08
533.472	8.08
533.67	8.15
533.868	8.25
534.066	8.25
534.264	8.29
534.462	8.36
534.66	8.48
534.858	8.51
535.056	8.49
535.253	8.46
535.451	8.46
535.649	8.62
535.847	8.71
536.045	8.78
536.243	8.95
536.441	9.03
536.638	8.96
536.836	8.96
537.034	9.04
537.232	9.12
537.43	9.16
537.627	9.17
537.825	9.14
538.023	9.05
538.22	9.14
538.418	9.05
538.616	8.98
538.813	9.02
539.011	9.08
539.209	9.22
539.406	9.28
539.604	9.34
539.801	9.51
539.999	9.54
540.196	9.55
540.394	9.57
540.591	9.59
540.789	9.64
540.986	9.57
541.184	9.49
541.381	9.43
541.579	9.42
541.776	9.47
541.974	9.47
542.171	9.41
542.368	9.44
542.566	9.44
542.763	9.45
542.96	9.49
543.158	9.65
543.355	9.69
543.552	9.74
543.75	9.79
543.947	9.82
544.144	9.76
544.341	9.94
544.539	10.04
544.736	10.09
544.933	10.01
545.13	10.07
545.327	10.03
545.524	10.14
545.722	10.16
545.919	10.16
546.116	10.19
546.313	10.35
546.51	10.23
546.707	10.25
546.904	10.24
547.101	10.45
547.298	10.47
547.495	10.56
547.692	10.64
547.889	10.68
548.086	10.76
548.283	10.87
548.48	10.94
548.677	11.03
548.874	11.18
549.07	11.31
549.267	11.25
549.464	11.39
549.661	11.33
549.858	11.44
550.055	11.42
550.251	11.52
550.448	11.42
550.645	11.59
550.842	11.72
551.038	11.61
551.235	11.68
551.432	11.8
551.628	11.74
551.825	11.79
552.022	11.68
552.218	11.76
552.415	11.69
552.612	11.77
552.808	11.65
553.005	11.7
553.201	11.8
553.398	11.76
553.594	11.59
553.791	11.65
553.987	11.8
554.184	11.87
554.38	12.03
554.577	12.22
554.773	12.21
554.97	12.17
555.166	12.27
555.362	12.1
555.559	12.18
555.755	12.5
555.952	12.61
556.148	12.57
556.344	12.64
556.541	12.62
556.737	12.48
556.933	12.57
557.129	12.68
557.326	12.61
557.522	12.98
557.718	13.01
557.914	13.09
558.11	12.84
558.307	12.98
558.503	13.02
558.699	13.02
558.895	13.11
559.091	13.05
559.287	13.25
559.483	13.22
559.679	13.28
559.876	13.25
560.072	13.23
560.268	13.45
560.464	13.64
560.66	13.81
560.856	13.93
561.052	13.88
561.247	14.04
561.443	13.88
561.639	13.94
561.835	13.96
562.031	14.05
562.227	14.04
562.423	14
562.619	13.82
562.815	13.85
563.01	13.75
563.206	13.98
563.402	14.04
563.598	14.23
563.793	14.41
563.989	14.39
564.185	14.39
564.381	14.68
564.576	14.98
564.772	15.18
564.968	15.03
565.163	15.21
565.359	15.19
565.555	15.29
565.75	15.38
565.946	15.52
566.141	15.55
566.337	15.62
566.532	15.66
566.728	15.72
566.923	15.62
567.119	15.82
567.314	15.82
567.51	15.92
567.705	16.01
567.901	15.99
568.096	15.95
568.292	15.9
568.487	16.06
568.682	15.93
568.878	15.82
569.073	15.9
569.268	15.86
569.464	15.9
569.659	15.95
569.854	16.01
570.05	16.18
570.245	16.2
570.44	16.4
570.635	16.42
570.831	16.53
571.026	16.78
571.221	16.86
571.416	17
571.611	17.1
571.806	17.01
572.002	17.04
572.197	17.12
572.392	17.24
572.587	17.32
572.782	17.42
572.977	17.47
573.172	17.39
573.367	17.38
573.562	17.41
573.757	17.52
573.952	17.72
574.147	17.65
574.342	17.76
574.537	17.72
574.732	17.63
574.927	17.46
575.121	17.51
575.316	17.49
575.511	17.62
575.706	17.67
575.901	17.53
576.096	17.58
576.29	17.73
576.485	17.6
576.68	17.63
576.875	17.78
577.069	17.92
577.264	18.04
577.459	18.22
577.654	18.39
577.848	18.4
578.043	18.79
578.238	18.87
578.432	18.67
578.627	18.77
578.821	18.9
579.016	18.83
579.21	19.06
579.405	18.89
579.6	18.82
579.794	18.77
579.989	18.72
580.183	18.55
580.378	18.56
580.572	18.87
580.766	18.92
580.961	18.66
581.155	18.77
581.35	18.74
581.544	19.02
581.738	19.05
581.933	19.09
582.127	19.25
582.321	19.39
582.516	19.63
582.71	19.59
582.904	19.5
583.099	19.9
583.293	19.95
583.487	19.87
583.681	20.04
583.875	20.1
584.07	20.03
584.264	20.11
584.458	19.88
584.652	19.8
584.846	19.93
585.04	20.11
585.234	20.06
585.428	20.06
585.623	20.18
585.817	19.97
586.011	20.07
586.205	20.31
586.399	20.28
586.593	20.42
586.787	20.43
586.981	20.48
587.174	20.44
587.368	20.48
587.562	20.49
587.756	20.5
587.95	20.63
588.144	20.59
588.338	20.44
588.532	20.59
588.725	20.62
588.919	20.41
589.113	20.35
589.307	20.15
589.501	20.27
589.694	20.31
589.888	20.57
590.082	20.83
590.275	20.79
590.469	20.64
590.663	20.74
590.856	20.76
591.05	21.02
591.244	21.23
591.437	21.35
591.631	21.33
591.824	21.66
592.018	21.3
592.212	21.09
592.405	21.3
592.599	21.6
592.792	21.78
592.986	21.97
593.179	22.04
593.372	22.18
593.566	22.5
593.759	22.66
593.953	22.65
594.146	22.83
594.339	22.83
594.533	22.85
594.726	23
594.92	22.74
595.113	22.77
595.306	22.71
595.499	22.41
595.693	22.39
595.886	22.46
596.079	22.34
596.272	22.59
596.466	22.72
596.659	22.71
596.852	22.54
597.045	22.68
597.238	22.6
597.431	22.71
597.624	22.76
597.818	22.85
598.011	22.71
598.204	22.83
598.397	22.71
598.59	22.58
598.783	22.56
598.976	22.65
599.169	22.68
599.362	22.73
599.555	22.63
599.748	22.78
599.941	22.79
600.134	22.95
600.326	22.88
600.519	22.92
600.712	23.03
600.905	23.26
601.098	23.65
601.291	23.58
601.483	23.79
601.676	23.93
601.869	23.96
602.062	24.07
602.255	24.05
602.447	24.14
602.64	24.18
602.833	24.17
603.025	24.12
603.218	23.88
603.411	23.85
603.603	23.66
603.796	23.81
603.989	23.9
604.181	23.78
604.374	23.87
604.566	23.85
604.759	23.7
604.951	23.8
605.144	23.7
605.336	23.84
605.529	23.87
605.721	24.07
605.914	24.02
606.106	24
606.299	24.07
606.491	24.06
606.683	24.07
606.876	24.48
607.068	24.45
607.26	24.51
607.453	24.62
607.645	24.66
607.837	24.64
608.03	24.7
608.222	24.73
608.414	24.51
608.606	24.53
608.799	24.62
608.991	24.51
609.183	24.76
609.375	24.9
609.567	24.83
609.759	24.7
609.952	24.87
610.144	24.7
610.336	24.72
610.528	24.98
610.72	25
610.912	25
611.104	25.1
611.296	24.89
611.488	25.01
611.68	25.01
611.872	25.17
612.064	25.03
612.256	25.2
612.448	25.15
612.64	25.15
612.832	25.27
613.023	25.42
613.215	25.17
613.407	25.37
613.599	25.19
613.791	25.13
613.983	25.34
614.174	25.41
614.366	25.44
614.558	25.34
614.75	25.29
614.941	25.46
615.133	25.58
615.325	25.81
615.516	25.77
615.708	25.93
615.9	25.74
616.091	25.87
616.283	25.78
616.475	25.92
616.666	26.34
616.858	26.52
617.049	26.3
617.241	26.16
617.432	26.03
617.624	26.17
617.815	26.42
618.007	26.6
618.198	26.56
618.39	26.68
618.581	26.87
618.773	26.93
618.964	26.84
619.155	26.76
619.347	26.82
619.538	27.19
619.729	27.42
619.921	27.22
620.112	27.49
620.303	27.63
620.494	27.63
620.686	27.48
620.877	27.46
621.068	27.52
621.259	27.73
621.451	27.9
621.642	27.64
621.833	27.34
622.024	27.36
622.215	27.26
622.406	27.23
622.597	27.11
622.788	26.96
622.98	26.73
623.171	26.78
623.362	26.59
623.553	26.58
623.744	26.92
623.935	27.09
624.126	27.51
624.317	27.57
624.508	27.61
624.698	27.82
624.889	28
625.08	28.24
625.271	28.22
625.462	28.2
625.653	28.07
625.844	27.89
626.034	27.93
626.225	27.54
626.416	27.67
626.607	27.82
626.798	27.79
626.988	27.85
627.179	27.86
627.37	27.93
627.56	28.15
627.751	28.35
627.942	28.61
628.132	28.71
628.323	28.84
628.514	28.81
628.704	28.71
628.895	28.84
629.085	28.88
629.276	28.74
629.466	28.97
629.657	29.02
629.847	28.99
630.038	28.91
630.228	28.79
630.419	28.81
630.609	28.82
630.8	28.97
630.99	29.18
631.181	29.3
631.371	29.41
631.561	29.34
631.752	29.45
631.942	29.31
632.132	29.29
632.323	29.22
632.513	29.3
632.703	29.43
632.893	29.27
633.084	29.08
633.274	28.93
633.464	29.12
633.654	29.15
633.844	29.18
634.034	29.27
634.225	29.32
634.415	29.6
634.605	29.37
634.795	29.34
634.985	29.17
635.175	28.93
635.365	28.97
635.555	28.79
635.745	28.66
635.935	28.7
636.125	28.84
636.315	28.85
636.505	28.83
636.695	28.89
636.885	28.92
637.075	29.22
637.265	29.67
637.455	29.71
637.644	30.18
637.834	30.37
638.024	30.55
638.214	30.63
638.404	30.63
638.593	30.4
638.783	30.7
638.973	30.87
639.163	30.93
639.352	30.77
639.542	30.63
639.732	30.22
639.921	30.28
640.111	29.88
640.301	30.07
640.49	30.35
640.68	30.25
640.87	30.32
641.059	30.21
641.249	30.22
641.438	30.23
641.628	30.16
641.817	30.3
642.007	30.09
642.196	30.35
642.386	30.07
642.575	29.96
642.764	30.68
642.954	30.81
643.143	31.18
643.333	31.3
643.522	31.51
643.711	31.69
643.901	31.54
644.09	31.72
644.279	31.8
644.469	31.84
644.658	31.97
644.847	31.26
645.036	31.09
645.226	30.96
645.415	30.63
645.604	30.79
645.793	31.03
645.982	31.04
646.171	31.05
646.361	31.43
646.55	31.56
646.739	31.53
646.928	31.85
647.117	32.27
647.306	32.28
647.495	32.51
647.684	32.28
647.873	32.34
648.062	32.82
648.251	33.05
648.44	32.23
648.629	32.28
648.818	32.56
649.007	33.05
649.196	32.84
649.384	32.81
649.573	32.71
649.762	33.08
649.951	33.09
650.14	33.03
650.328	33
650.517	33.39
650.706	33.36
650.895	33.03
651.083	32.73
651.272	32.31
651.461	32.47
651.65	32.79
651.838	32.67
652.027	32.72
652.216	32.77
652.404	32.73
652.593	32.64
652.781	32.59
652.97	32.83
653.158	32.88
653.347	33.45
653.535	33.18
653.724	33.24
653.912	33.27
654.101	33.41
654.289	33.23
654.478	33.4
654.666	33.34
654.855	33.47
655.043	33.21
655.231	33.54
655.42	33.15
655.608	33.51
655.796	33.41
655.985	33.52
656.173	33.55
656.361	33.8
656.55	33.64
656.738	34.03
656.926	34.22
657.114	34.53
657.302	34.1
657.491	34.38
657.679	34.13
657.867	34.41
658.055	34.13
658.243	34.38
658.431	34.69
658.619	34.81
658.807	34.59
658.996	34.75
659.184	34.66
659.372	34.55
659.56	34.49
659.748	34.68
659.936	34.53
660.124	34.83
660.311	34.84
660.499	34.66
660.687	34.98
660.875	35.48
661.063	35.33
661.251	35.29
661.439	35.17
661.627	35.41
661.814	35.61
662.002	35.53
662.19	35.71
662.378	35.29
662.565	35.1
662.753	34.71
662.941	34.6
663.129	34.3
663.316	34.53
663.504	34.93
663.692	34.77
663.879	34.65
664.067	34.94
664.254	34.92
664.442	35.13
664.63	35.13
664.817	35.26
665.005	35.18
665.192	36.1
665.38	35.76
665.567	36.09
665.755	36.39
665.942	36.57
666.13	36.76
666.317	36.7
666.504	36.56
666.692	36.73
666.879	37.1
667.067	37.17
667.254	36.71
667.441	37.07
667.629	36.78
667.816	36.62
668.003	36.33
668.19	36.22
668.378	36.27
668.565	36.58
668.752	36.87
668.939	36.14
669.127	35.91
669.314	36.02
669.501	35.98
669.688	36.25
669.875	36.36
670.062	36.45
670.249	36.21
670.436	36.23
670.623	36.25
670.81	35.88
670.997	36.57
671.184	36.46
671.371	36.6
671.558	36.95
671.745	37.22
671.932	37.38
672.119	37.47
672.306	37.97
672.493	37.77
672.68	37.94
672.867	37.97
673.054	37.69
673.24	38.16
673.427	38.11
673.614	38
673.801	38.22
673.988	38.26
674.174	38.09
674.361	37.59
674.548	37.98
674.734	38.12
674.921	38.36
675.108	38.67
675.294	38.38
675.481	38.55
675.668	38.31
675.854	38.17
676.041	37.77
676.227	38.18
676.414	38.78
676.601	38.42
676.787	38.03
676.974	38.33
677.16	37.88
677.347	38.17
677.533	38
677.719	38.31
677.906	37.96
678.092	38.39
678.279	38.12
678.465	37.78
678.651	37.93
678.838	38.39
679.024	38.35
679.21	38.61
679.397	39.22
679.583	39.24
679.769	39.12
679.955	39.2
680.142	38.92
680.328	39.22
680.514	39.1
680.7	39.02
680.886	38.86
681.073	38.64
681.259	38.76
681.445	38.02
681.631	37.94
681.817	38.14
682.003	38.48
682.189	38.63
682.375	38.53
682.561	39.24
682.747	39.4
682.933	39.3
683.119	39.59
683.305	39.18
683.491	39.19
683.677	39.5
683.863	39.41
684.049	39.42
684.235	39.64
684.42	39.18
684.606	38.78
684.792	39.03
684.978	39.42
685.164	39.48
685.349	40.05
685.535	40.38
685.721	39.9
685.907	40.08
686.092	40.16
686.278	40.01
686.464	41.1
686.649	40.96
686.835	40.65
687.021	40.41
687.206	40.17
687.392	39.53
687.577	39.59
687.763	40.06
687.948	40.04
688.134	39.78
688.319	39.67
688.505	38.99
688.69	39.42
688.876	39.58
689.061	39.4
689.247	39.34
689.432	40.08
689.618	40.12
689.803	39.84
689.988	39.87
690.174	39.83
690.359	40.21
690.544	40.41
690.73	40.3
690.915	40.25
691.1	40.09
691.285	40.53
691.471	40.71
691.656	41.13
691.841	41.26
692.026	41.15
692.211	41.28
692.396	41.09
692.582	41.08
692.767	40.81
692.952	41
693.137	41.67
693.322	41.83
693.507	41.72
693.692	41.36
693.877	41.27
694.062	41.49
694.247	41.4
694.432	41.68
694.617	42.07
694.802	42.6
694.987	42.98
695.172	42.81
695.357	42.67
695.541	42.54
695.726	42.57
695.911	42.82
696.096	42.6
696.281	42.29
696.466	42.54
696.65	42.63
696.835	42.77
697.02	42.54
697.204	42.74
697.389	42.29
697.574	42.44
697.759	41.82
697.943	41.91
698.128	41.68
698.312	41.8
698.497	41.64
698.682	41.53
698.866	41.19
699.051	41.24
699.235	41.42
699.42	41.63
699.604	41.55
699.789	42.02
699.973	42.06
700.158	42.27
700.342	42.42
700.527	42.5
700.711	42.13
700.895	42.43
701.08	42.59
701.264	41.92
701.448	42.53
701.633	42.36
701.817	42.46
702.001	42.32
702.186	42.94
702.37	43.23
702.554	43.21
702.738	43.33
702.923	43.31
703.107	42.79
703.291	43.06
703.475	42.68
703.659	43.36
703.843	43.59
704.027	43.79
704.212	43.07
704.396	42.83
704.58	42.3
704.764	42.37
704.948	41.38
705.132	41.95
705.316	41.58
705.5	41.84
705.684	41.51
705.868	41.17
706.052	41.28
706.235	41.43
706.419	41.14
706.603	41.61
706.787	41.74
706.971	42.28
707.155	42.33
707.339	42.97
707.522	42.53
707.706	42.31
707.89	42.61
708.074	42.45
708.257	42.52
708.441	42.97
708.625	42.94
708.808	43.36
708.992	43.68
709.176	43.27
709.359	42.44
709.543	42.49
709.727	42.83
709.91	42.75
710.094	42.98
710.277	43.07
710.461	42.81
710.644	43
710.828	43.31
711.011	43.77
711.195	44.14
711.378	45.23
711.562	45.87
711.745	45.62
711.928	45.88
712.112	45.58
712.295	45.59
712.478	45.31
712.662	45.64
712.845	45.19
713.028	45.11
713.212	44.8
713.395	44.68
713.578	43.72
713.761	43.83
713.945	43.42
714.128	44.12
714.311	44.46
714.494	44.99
714.677	44.37
714.86	44.68
715.043	44.61
715.227	44.56
715.41	44.18
715.593	44.74
715.776	44.49
715.959	44.8
716.142	44.53
716.325	44.16
716.508	44.6
716.691	45.32
716.874	44.9
717.057	44.82
717.239	44.75
717.422	44.97
717.605	45.15
717.788	45.6
717.971	45.75
718.154	45.91
718.337	46.37
718.519	45.29
718.702	44.66
718.885	44.88
719.068	45.11
719.25	45.84
719.433	46.58
719.616	45.98
719.798	45.85
719.981	45.47
720.164	44.68
720.346	44.56
720.529	44.72
720.712	44.57
720.894	45.01
721.077	44.61
721.259	44.52
721.442	43.92
721.624	44.51
721.807	44.54
721.989	44.55
722.172	44.11
722.354	44.16
722.537	44.87
722.719	45.44
722.901	45.18
723.084	45.49
723.266	45.37
723.448	45.54
723.631	46.47
723.813	46.46
723.995	47.33
724.178	48.33
724.36	48.03
724.542	48.27
724.724	48.18
724.907	48.66
725.089	48.94
725.271	49.26
725.453	49.28
725.635	48.19
725.817	49.33
725.999	48.96
726.181	48.84
726.364	48.99
726.546	48.52
726.728	48.99
726.91	48.77
727.092	48.57
727.274	47.97
727.456	47.69
727.638	47.2
727.819	46.22
728.001	46.28
728.183	46.67
728.365	46.66
728.547	47.44
728.729	47.28
728.911	47.37
729.093	47.26
729.274	47.69
729.456	47.52
729.638	47.48
729.82	47.39
730.001	47.53
730.183	47.18
730.365	46.94
730.546	46.37
730.728	46.16
730.91	46.03
731.091	45.53
731.273	45.02
731.455	44.89
731.636	45.11
731.818	45.36
731.999	44.88
732.181	44.87
732.362	45.37
732.544	45.27
732.725	44.56
732.907	44.77
733.088	45.1
733.27	45.73
733.451	46
733.633	46.84
733.814	46.92
733.995	46.85
734.177	46.47
734.358	46.47
734.539	47.03
734.721	47.6
734.902	46.52
735.083	46.64
735.264	45.92
735.446	46.08
735.627	46.13
735.808	45.53
735.989	45.2
736.17	45.91
736.351	45.27
736.533	44.91
736.714	45.42
736.895	45.48
737.076	45.74
737.257	46.06
737.438	46.09
737.619	44.98
737.8	44.94
737.981	44.98
738.162	45.28
738.343	45.12
738.524	45.4
738.705	45.56
738.886	46.2
739.067	45.48
739.247	45.61
739.428	45.38
739.609	45.62
739.79	46.55
739.971	47.29
740.151	46.38
740.332	46.45
740.513	45.55
740.694	44.59
740.874	44.31
741.055	45.95
741.236	46.01
741.417	46.17
741.597	46.27
741.778	44.89
741.958	44.73
742.139	45.36
742.32	45.57
742.5	46.07
742.681	46.01
742.861	46.13
743.042	44.94
743.222	45.65
743.403	46.01
743.583	46.94
743.764	48.69
743.944	49.13
744.124	48.37
744.305	49.76
744.485	50.02
744.666	50.87
744.846	50.96
745.026	51.66
745.207	50.63
745.387	49.45
745.567	47.39
745.747	46.66
745.928	46.28
746.108	47.12
746.288	45.84
746.468	46.12
746.648	45.78
746.829	45.84
747.009	45
747.189	45.38
747.369	46.71
747.549	47.27
747.729	46.98
747.909	47.52
748.089	46.79
748.269	46.94
748.449	46.66
748.629	46.92
748.809	47.04
748.989	47.04
749.169	47.42
749.349	48.2
749.529	49.12
749.709	49.7
749.889	48.89
750.068	49.46
750.248	49.37
750.428	49.09
750.608	49.91
750.788	49.45
750.967	50.01
751.147	49.79
751.327	47.86
751.507	46.75
751.686	45.98
751.866	46.8
752.046	47.02
752.225	48.31
752.405	49.05
752.585	47.96
752.764	48.67
752.944	48.13
753.123	48.51
753.303	50.6
753.482	51.07
753.662	51.43
753.841	51.25
754.021	51.37
754.2	51.26
754.38	51.04
754.559	51.44
754.739	50.6
754.918	51.91
755.097	51.2
755.277	50.24
755.456	51.18
755.635	51.71
755.815	51.65
755.994	51.7
756.173	51.05
756.352	51.35
756.532	51.63
756.711	52.21
756.89	51.35
757.069	51.89
757.248	50.67
757.427	49.98
757.607	48.76
757.786	48.81
757.965	49.01
758.144	48.22
758.323	46.73
758.502	46
758.681	45.82
758.86	45.7
759.039	45.32
759.218	46.99
759.397	47.37
759.576	48.1
759.755	47.54
759.934	46.3
760.113	46.03
760.291	46.93
760.47	47.07
760.649	48.49
760.828	49.07
761.007	49.23
761.186	48.59
761.364	48.16
761.543	48.54
761.722	49.32
761.901	49.91
762.079	50.86
762.258	50.67
762.437	51.48
762.615	50.9
762.794	50.51
762.972	50.93
763.151	51.09
763.33	51.44
763.508	51.07
763.687	51.03
763.865	51.1
764.044	51.12
764.222	51.09
764.401	50.77
764.579	50.56
764.758	49.79
764.936	49.68
765.114	49.21
765.293	48.87
765.471	48.54
765.65	48.16
765.828	48.22
766.006	48.14
766.184	47.78
766.363	47.77
766.541	47.48
766.719	48.3
766.898	47.94
767.076	48.62
767.254	49.58
767.432	50.18
767.61	50.3
767.788	50.39
767.967	49.72
768.145	50.63
768.323	49.71
768.501	50.28
768.679	50.13
768.857	49.54
769.035	49.31
769.213	49.03
769.391	49.3
769.569	49.51
769.747	50.77
769.925	51.14
770.103	50.07
770.281	51.45
770.459	50.51
770.636	51.02
770.814	52.08
770.992	50.55
771.17	48.86
771.348	47.22
771.525	47.42
771.703	45.74
771.881	46.67
772.059	48.49
772.236	46.25
772.414	47.69
772.592	46.13
772.769	45.82
772.947	46.08
773.125	47.81
773.302	50.12
773.48	49.84
773.657	48.95
773.835	48.55
774.013	48.22
774.19	49.24
774.368	48.73
774.545	49.89
774.723	50.17
774.9	52.27
775.077	51.42
775.255	50.78
775.432	50.39
775.61	52.33
775.787	51.55
775.964	51.12
776.142	52.61
776.319	52.72
776.496	53.46
776.674	53.58
776.851	52.01
777.028	51.87
777.205	51.68
777.382	51.66
777.56	50.88
777.737	50.23
777.914	49.91
778.091	50.48
778.268	50.02
778.445	50.01
778.622	49.32
778.8	50.55
778.977	49.91
779.154	49.79
779.331	50.01
779.508	50.7
779.685	51.65
779.862	52.07
780.038	50.23
780.215	50.16
780.392	49.13
780.569	51.01
780.746	49.75
780.923	50.08
781.1	50.59
781.277	51.34
781.453	51.02
781.63	51.89
781.807	51.75
781.984	52.84
782.16	52.88
782.337	53.52
782.514	51.66
782.691	52.51
782.867	53.52
783.044	52.57
783.221	52.17
783.397	52.36
783.574	53.43
783.75	53.93
783.927	53.75
784.103	55.08
784.28	54.33
784.456	54.97
784.633	54.47
784.809	55.3
784.986	56.28
785.162	57.24
785.339	56.05
785.515	54.93
785.692	55.01
785.868	55.19
786.044	53.06
786.221	54.71
786.397	54.47
786.573	54.54
786.749	53.83
786.926	52.51
787.102	50.9
787.278	51.08
787.454	51.9
787.631	50.93
787.807	51.17
787.983	52.66
788.159	52.16
788.335	53.5
788.511	53.49
788.687	53.35
788.863	53.41
789.039	54.14
789.216	54.67
789.392	54.36
789.568	54.17
789.744	53.84
789.919	54.78
790.095	54.36
790.271	53.56
790.447	53.72
790.623	54.6
790.799	55.7
790.975	55.6
791.151	54.31
791.327	52.8
791.502	52.76
791.678	52.18
791.854	51.65
792.03	52.42
792.205	52.24
792.381	54.44
792.557	54.19
792.733	53.22
792.908	54.96
793.084	56.51
793.259	56.46
793.435	58.29
793.611	59.74
793.786	58.94
793.962	59.27
794.137	58.87
794.313	58.33
794.488	58.69
794.664	60.19
794.839	57.53
795.015	58.92
795.19	59.35
795.366	58.72
795.541	57.73
795.716	57.76
795.892	57.88
796.067	57.73
796.242	54.95
796.418	54.07
796.593	53.88
796.768	54.33
796.944	53.02
797.119	51.89
797.294	50.78
797.469	51.88
797.644	52.57
797.82	50.62
797.995	51.43
798.17	53.62
798.345	53.14
798.52	52.73
798.695	52.05
798.87	49.99
799.045	52.07
799.22	53.32
799.395	52.79
799.57	53.74
799.745	54.74
799.92	52.68
800.095	51.09
800.27	49.72
800.445	50.14
800.62	50.71
800.795	52.03
800.97	49.21
801.145	47.82
801.319	47.78
801.494	45.09
801.669	44.71
801.844	45.58
802.018	46.05
802.193	47.06
802.368	48.77
802.543	49.28
802.717	49.22
802.892	50.87
803.067	53.39
803.241	51.72
803.416	53.32
803.59	53.48
803.765	52.94
803.94	52.42
804.114	53.85
804.289	51.96
804.463	53.04
804.638	53.39
804.812	53.77
804.986	53.41
805.161	51.79
805.335	50.31
805.51	52.85
805.684	53.2
805.858	55.74
806.033	54.87
806.207	53.54
806.381	52.56
806.556	52.96
806.73	54.48
806.904	52.34
807.078	55.83
807.253	57.53
807.427	55.96
807.601	57.55
807.775	55.53
807.949	56.16
808.123	56.13
808.298	55.4
808.472	56.52
808.646	55.23
808.82	57.4
808.994	56.44
809.168	57.39
809.342	57.03
809.516	54.97
809.69	54.12
809.864	52.47
810.038	54.03
810.212	52.56
810.385	50.64
810.559	49.33
810.733	45.91
810.907	45.74
811.081	45.25
811.255	45.56
811.428	47.32
811.602	50.31
811.776	53.27
811.95	53.02
812.123	55.81
812.297	54.21
812.471	55.31
812.644	57.91
812.818	59.43
812.992	57.12
813.165	57.65
813.339	58.92
813.512	58.64
813.686	55.03
813.86	54.16
814.033	53.55
814.207	56.9
814.38	57.08
814.554	58.14
814.727	58.29
814.9	61.44
815.074	60.72
815.247	60.59
815.421	57.5
815.594	57.7
815.767	58.98
815.941	54.77
816.114	54.23
816.287	54.79
816.46	53.81
816.634	52.38
816.807	48.78
816.98	49.17
817.153	47.7
817.327	49.86
817.5	52.26
817.673	52.66
817.846	56.06
818.019	55.73
818.192	54.97
818.365	52.95
818.538	52.91
818.711	54.82
818.884	53.36
819.057	53.06
819.23	52.14
819.403	52.7
819.576	50.86
819.749	51.36
819.922	52.39
820.095	51.8
820.268	53.66
820.441	55.73
820.614	54.3
820.786	53.75
820.959	53.77
821.132	53.84
821.305	52.61
821.477	53.13
821.65	53.26
821.823	53.18
821.996	53.59
822.168	52.95
822.341	51.86
822.514	51.59
822.686	52.25
822.859	52.12
823.031	52.68
823.204	52.84
823.376	52.44
823.549	52.31
823.722	52.4
823.894	52.22
824.067	52.79
824.239	53.36
824.411	53.77
824.584	53.63
824.756	53.28
824.929	52.6
825.101	52.67
825.273	53.3
825.446	53.13
825.618	52.45
825.79	52.23
825.963	51.98
826.135	51.98
826.307	51.48
826.479	51.25
826.652	52.12
826.824	51.61
826.996	51.82
827.168	51.6
827.34	51.8
827.512	52.15
827.684	52.61
827.856	52.12
828.029	51.69
828.201	51.51
828.373	52.73
828.545	51.98
828.717	53.44
828.889	53.13
829.061	52.51
829.232	52.67
829.404	52.69
829.576	52.04
829.748	53.03
829.92	53.2
830.092	54.57
830.264	53.12
830.436	52.81
830.607	50.75
830.779	51.22
830.951	51.15
831.123	49.41
831.294	48.57
831.466	50.33
831.638	49.85
831.809	50.82
831.981	49.88
832.153	49.27
832.324	52.17
832.496	54.88
832.667	55.13
832.839	55.75
833.011	55.68
833.182	55.44
833.354	55.42
833.525	53.41
833.697	50.63
833.868	52.08
834.039	54.83
834.211	54.04
834.382	51.83
834.554	51.64
834.725	51.6
834.896	53.98
835.068	54.23
835.239	53.38
835.41	53.97
835.581	55.9
835.753	54.73
835.924	53.52
836.095	52.34
836.266	54.2
836.438	53.92
836.609	54.85
836.78	54.41
836.951	54.03
837.122	53.57
837.293	52.85
837.464	50.25
837.635	51.57
837.806	52.3
837.977	53.84
838.148	52.53
838.319	51.43
838.49	50.21
838.661	51.97
838.832	53.23
839.003	56.34
839.174	60.89
839.345	63.85
839.516	63.7
839.687	63.81
839.857	61.73
840.028	63.86
840.199	66.49
840.37	64.78
840.54	64.14
840.711	64.22
840.882	60.72
841.053	58.91
841.223	54.77
841.394	54.22
841.564	52.62
841.735	55.01
841.906	55.32
842.076	54.68
842.247	59.18
842.417	56.07
842.588	56.99
842.758	53.74
842.929	50.74
843.099	53.81
843.27	56.04
843.44	55.82
843.611	55.34
843.781	50.78
843.951	51.25
844.122	48.68
844.292	46.22
844.462	40.15
844.633	40.11
844.803	39.68
844.973	34.36
845.144	30.53
845.314	26.42
845.484	26.53
845.654	29.83
845.824	33.59
845.995	33.77
846.165	31.17
846.335	43.26
846.505	49.07
846.675	48.01
846.845	54.58
847.015	46.98
847.185	49.58
847.355	46.46
847.525	50.26
847.695	47.42
847.865	47.86
848.035	46.8
848.205	37.19
848.375	38.17
848.545	44.93
848.715	44.89
848.884	50.98
849.054	51.18
849.224	51.16
849.394	50.04
849.564	50.71
849.733	51.81
849.903	60.45
850.073	64.08
850.243	68.18
850.412	64.39
850.582	64.58
850.752	61.35
850.921	60.73
851.091	61.14
851.26	63.67
851.43	64.05
851.599	65.99
851.769	68.2
851.939	62.35
852.108	53.78
852.278	52.85
852.447	54.88
852.616	59.27
852.786	62.33
852.955	62.74
853.125	54.59
853.294	51.85
853.463	42.73
853.633	35.9
853.802	49.92
853.971	60.8
854.141	65.13
854.31	58.19
854.479	56.67
854.648	49.72
854.818	42.66
854.987	39.14
855.156	44.46
855.325	54.68
855.494	56.62
855.663	43.08
855.832	31.03
856.001	25.32
856.171	29.28
856.34	23.2
856.509	24.94
856.678	31.39
856.847	52.39
857.016	54.63
857.185	53.26
857.353	50.58
857.522	56.02
857.691	60.34
857.86	61.17
858.029	61.44
858.198	65.24
858.367	59.38
858.535	58.44
858.704	52.78
858.873	46.73
859.042	44.3
859.21	53.42
859.379	52.44
859.548	47.92
859.717	55.34
859.885	59.17
860.054	63.42
860.222	60.59
860.391	64.56
860.56	56.91
860.728	57.07
860.897	61.87
861.065	54.01
861.234	46.89
861.402	41.59
861.571	38.53
861.739	38.12
861.908	36.87
862.076	44.78
862.244	40.98
862.413	47.78
862.581	43.69
862.749	41.9
862.918	41.51
863.086	46.9
863.254	49.26
863.423	51.45
863.591	40.5
863.759	38.78
863.927	45.63
864.096	51.68
864.264	48.73
864.432	45.98
864.6	49.53
864.768	55.07
864.936	56.52
865.104	65.98
865.272	67.76
865.44	78.83
865.608	85.51
865.776	80.46
865.944	78.19
866.112	73.95
866.28	84.69
866.448	84.59
866.616	82.02
866.784	74.36
866.952	72.73
867.12	61.39
867.288	53.17
867.455	47.13
867.623	35.08
867.791	36.63
867.959	37.58
868.127	41.48
868.294	53.5
868.462	60.91
868.63	66.56
868.797	66.33
868.965	76.98
869.133	74.91
869.3	82.83
869.468	88.15
869.636	91.61
869.803	83.24
869.971	79.15
870.138	63.66
870.306	58.79
870.473	55.04
870.641	61.85
870.808	55.77
870.975	61.22
871.143	44.57
871.31	45.88
871.478	47.52
871.645	50.03
871.812	56.69
871.98	58.87
872.147	55.37
872.314	60.48
872.482	44.97
872.649	48.14
872.816	49.53
872.983	58.56
873.15	50.35
873.318	46.04
873.485	51.11
873.652	48.34
873.819	48.24
873.986	51.87
874.153	51.73
874.32	51.66
874.487	49.03
874.654	44.45
874.821	42.13
874.988	40.83
875.155	45.24
875.322	43.4
875.489	34.3
875.656	35.99
875.823	27.34
875.99	31.23
876.157	38.4
876.324	43.68
876.49	43.42
876.657	42.23
876.824	53.62
876.991	49.42
877.157	48.7
877.324	55.86
877.491	58.27
877.658	65.33
877.824	66.77
877.991	67.25
878.157	59.35
878.324	65.15
878.491	71.23
878.657	67.04
878.824	63.64
878.99	69.71
879.157	60.27
879.323	57.3
879.49	61.67
879.656	65.23
879.823	61.11
879.989	63.75
880.156	64.8
880.322	67.73
880.488	63.79
880.655	62.79
880.821	56.91
880.987	64.01
881.154	60.13
881.32	61.26
881.486	58.86
881.652	56.67
881.819	57.18
881.985	55.02
882.151	54.22
882.317	52.24
882.483	54.15
882.649	53.55
882.816	51.32
882.982	52.24
883.148	50.82
883.314	50.8
883.48	51.98
883.646	52.86
883.812	53.84
883.978	52.92
884.144	52.77
884.31	53.49
884.476	53.54
884.642	54.01
884.807	53.42
884.973	53.87
885.139	53.22
885.305	52.64
885.471	51.83
885.637	50.67
885.802	51.66
885.968	52.64
886.134	51.62
886.3	51.86
886.465	51.37
886.631	50.08
886.797	48.95
886.962	49.46
887.128	50.87
887.293	51.29
887.459	54.61
887.625	53.86
887.79	58.8
887.956	57.88
888.121	60.28
888.287	61.64
888.452	66.83
888.618	70.49
888.783	76.12
