Data from LC_264_Reflection_1.txt Node
Date: Sat Nov 21 11:47:29 EST 2015
User: robert
Spectrometer: USB4E03001
Autoset integration time: false
Trigger mode: 4
Integration Time (sec): 1.000000E-1
Scans to average: 15
Electric dark correction enabled: true
Nonlinearity correction enabled: false
Boxcar width: 5
Stray light correction enabled: false
XAxis mode: Wavelengths
Stop averaging: false
Number of Pixels in Spectrum: 3648
>>>>>Begin Spectral Data<<<<<
177.566	28.78
177.785	99.09
178.005	164.07
178.225	-11.79
178.445	-97.75
178.665	-113.53
178.885	-1.03
179.105	-69.19
179.324	-11.25
179.544	95.61
179.764	329.48
179.984	89.71
180.204	81.11
180.423	110.98
180.643	115.67
180.863	149.5
181.083	158.36
181.302	131.53
181.522	139.3
181.742	165.71
181.961	124.71
182.181	107.6
182.401	157.78
182.621	119.59
182.84	69.34
183.06	53.27
183.279	53.28
183.499	58.28
183.719	56.91
183.938	50.95
184.158	44.44
184.377	43.35
184.597	46.45
184.816	59.09
185.036	66.73
185.256	82.68
185.475	69.02
185.695	66.54
185.914	63.83
186.134	64.39
186.353	69.23
186.572	73.26
186.792	71.78
187.011	80.13
187.231	65.31
187.45	71.64
187.67	60.56
187.889	69.8
188.108	85.03
188.328	97.91
188.547	141.14
188.766	108.44
188.986	98.31
189.205	111.59
189.424	-46.49
189.644	93.38
189.863	223.99
190.082	385.19
190.302	-658.49
190.521	-72.13
190.74	-37.81
190.959	-76.33
191.178	-9.42
191.398	16.08
191.617	2.27
191.836	32.55
192.055	35.02
192.274	32.44
192.494	37.51
192.713	48.35
192.932	54.94
193.151	51.68
193.37	50.19
193.589	43.85
193.808	53.54
194.027	77.08
194.246	53.31
194.465	51.1
194.685	74.89
194.904	77.81
195.123	66.83
195.342	70.52
195.561	77.6
195.78	75.06
195.999	92.88
196.218	91.48
196.436	90.06
196.655	114.46
196.874	114.68
197.093	108.96
197.312	133.11
197.531	143.99
197.75	107.79
197.969	100.88
198.188	113.44
198.407	110.07
198.625	102.98
198.844	98.45
199.063	82.09
199.282	77.48
199.501	95.04
199.719	76.37
199.938	78.33
200.157	83.13
200.376	59.44
200.594	52.24
200.813	53.15
201.032	65.36
201.251	54.54
201.469	90.65
201.688	103.23
201.907	89.77
202.125	87.35
202.344	85.23
202.563	96.52
202.781	116.15
203	128.17
203.218	112.51
203.437	207.33
203.656	374.93
203.874	230.88
204.093	113.23
204.311	111.02
204.53	188.15
204.748	183.17
204.967	209.45
205.185	153.41
205.404	147.53
205.622	319.14
205.841	163.72
206.059	155.69
206.278	195.69
206.496	199.43
206.715	375.23
206.933	208.34
207.151	127.45
207.37	89.98
207.588	115.17
207.806	143.88
208.025	71.16
208.243	89.71
208.461	81.84
208.68	80.19
208.898	90.05
209.116	65.44
209.335	54.8
209.553	77.41
209.771	91.26
209.989	78.26
210.208	46.78
210.426	78.51
210.644	26.96
210.862	-19.2
211.081	-88.1
211.299	-16.55
211.517	-13.78
211.735	-0.87
211.953	4.66
212.171	-6.68
212.39	5.2
212.608	3.91
212.826	19.15
213.044	29.87
213.262	34.66
213.48	48.51
213.698	56.2
213.916	55.02
214.134	60.57
214.352	61.39
214.57	64
214.788	65.31
215.006	76.01
215.224	69.38
215.442	69.98
215.66	72.68
215.878	74.09
216.096	69.22
216.314	87.13
216.532	79.33
216.75	69.7
216.968	73.59
217.185	73.42
217.403	73.29
217.621	69.23
217.839	64.49
218.057	73.21
218.275	64.9
218.492	61.03
218.71	42.55
218.928	77.41
219.146	80.34
219.363	101.53
219.581	170.3
219.799	145.87
220.017	113.52
220.234	119.91
220.452	104.06
220.67	89.74
220.887	98.27
221.105	103.55
221.323	85.55
221.54	65.26
221.758	52.66
221.976	53.93
222.193	47.7
222.411	41.69
222.629	29.66
222.846	32.68
223.064	38.88
223.281	46.84
223.499	43.91
223.716	46.18
223.934	73.72
224.151	71.7
224.369	62.34
224.586	59.93
224.804	72.48
225.021	86.31
225.239	71.07
225.456	71.61
225.674	50.74
225.891	48.77
226.108	49.42
226.326	40.2
226.543	34.38
226.76	36.46
226.978	36.57
227.195	26.52
227.413	29.49
227.63	25.87
227.847	21.65
228.064	25.43
228.282	22.4
228.499	19.94
228.716	15.71
228.934	15.01
229.151	13.88
229.368	13.79
229.585	14.81
229.802	13.68
230.02	14.66
230.237	14.64
230.454	15.11
230.671	16.14
230.888	15.88
231.105	18.31
231.323	24.06
231.54	24.98
231.757	24.04
231.974	25.56
232.191	24.99
232.408	28.02
232.625	26.98
232.842	26.57
233.059	26.71
233.276	27.78
233.493	28.82
233.71	25.12
233.927	24.86
234.144	26.46
234.361	22.98
234.578	24.43
234.795	22.21
235.012	24.45
235.229	24.4
235.446	23.25
235.663	23.1
235.879	20.87
236.096	20.2
236.313	23.45
236.53	22.44
236.747	26.81
236.964	27.92
237.181	28.91
237.397	24.54
237.614	22.4
237.831	19.07
238.048	16.27
238.264	14.13
238.481	9.27
238.698	8.96
238.915	6.9
239.131	-3.17
239.348	-6.24
239.565	-3.92
239.781	-0.16
239.998	2.46
240.215	4.48
240.431	3.09
240.648	3.96
240.865	6.53
241.081	2.52
241.298	4.35
241.514	9.55
241.731	10.65
241.947	11.59
242.164	12.59
242.38	11.31
242.597	12.14
242.814	12.09
243.03	13.12
243.246	13.16
243.463	14.38
243.679	16.35
243.896	16.49
244.112	16.69
244.329	17.38
244.545	16.49
244.762	18.73
244.978	19.3
245.194	20.45
245.411	19.92
245.627	19.61
245.843	18.58
246.06	15.44
246.276	14.62
246.492	13.46
246.709	11.74
246.925	12.57
247.141	12.12
247.357	10.94
247.574	10.71
247.79	10.76
248.006	10.8
248.222	10.28
248.439	11.12
248.655	11.06
248.871	12.04
249.087	12.23
249.303	10.96
249.519	9.98
249.736	11.39
249.952	11.08
250.168	10.86
250.384	10.37
250.6	11.21
250.816	10.93
251.032	11.83
251.248	10.5
251.464	12.32
251.68	13.27
251.896	13.82
252.112	12.85
252.328	12.39
252.544	12.39
252.76	12.22
252.976	12.41
253.192	11.67
253.408	11.01
253.624	11.06
253.84	9.51
254.056	8.26
254.272	8.27
254.487	8.91
254.703	9.41
254.919	10.31
255.135	10.72
255.351	10.09
255.567	11.25
255.782	8.61
255.998	11.03
256.214	12.72
256.43	14.76
256.646	14.88
256.861	12.45
257.077	12.83
257.293	13.33
257.508	12.36
257.724	12.78
257.94	12.96
258.155	14.12
258.371	12.42
258.587	11.46
258.802	10.17
259.018	9.23
259.234	10.03
259.449	9.81
259.665	9.34
259.88	9.97
260.096	10.66
260.312	10.96
260.527	10.74
260.743	10.86
260.958	10.72
261.174	10.65
261.389	11.43
261.605	11.89
261.82	12.4
262.036	12.41
262.251	12.07
262.466	11.53
262.682	10.37
262.897	10.44
263.113	10.78
263.328	11.57
263.543	12.39
263.759	11.74
263.974	11.97
264.189	12.1
264.405	14.36
264.62	15.6
264.835	16.65
265.051	17.86
265.266	19.45
265.481	18.05
265.696	17.46
265.912	16.06
266.127	14.91
266.342	15.03
266.557	13.74
266.773	10.45
266.988	9.34
267.203	7.41
267.418	6
267.633	4.41
267.848	4.18
268.064	3.77
268.279	5.8
268.494	6.56
268.709	6.11
268.924	5.61
269.139	6.84
269.354	6.02
269.569	7.07
269.784	6.95
269.999	7.02
270.214	7.76
270.429	8.4
270.644	6.34
270.859	6.44
271.074	5.43
271.289	6.53
271.504	6.77
271.719	6.49
271.934	6.93
272.149	7.14
272.363	7.63
272.578	7.81
272.793	7.74
273.008	8.87
273.223	8.72
273.438	8.87
273.653	9.58
273.867	9.5
274.082	10.88
274.297	9.64
274.512	9.85
274.726	10.57
274.941	10.61
275.156	11.29
275.371	10.61
275.585	12.3
275.8	12.93
276.015	11.65
276.229	12.3
276.444	13.69
276.659	14
276.873	13.96
277.088	13.56
277.302	14
277.517	13.52
277.732	14.3
277.946	13.28
278.161	12.29
278.375	12.7
278.59	12.75
278.804	10.47
279.019	10.55
279.233	11.41
279.448	11.13
279.662	10.72
279.877	10.89
280.091	10.8
280.306	9.69
280.52	9.63
280.735	10.11
280.949	8.04
281.163	8.44
281.378	8.09
281.592	7.87
281.806	8.01
282.021	8.93
282.235	8.51
282.449	8.47
282.664	8.34
282.878	8.56
283.092	9.28
283.307	10.52
283.521	10.51
283.735	10.56
283.949	9.89
284.164	9.24
284.378	8.61
284.592	7.85
284.806	8.16
285.02	8.05
285.234	8.96
285.449	7.61
285.663	8
285.877	8.26
286.091	8.57
286.305	8.81
286.519	8.92
286.733	8.73
286.947	9.71
287.161	9.3
287.375	9.85
287.589	9.99
287.803	10.24
288.017	10.37
288.231	10.18
288.445	10.87
288.659	11.5
288.873	11.92
289.087	12.21
289.301	11.75
289.515	11.38
289.729	12.03
289.943	10.66
290.157	11.25
290.371	11.13
290.584	12.27
290.798	11.35
291.012	10.67
291.226	11.25
291.44	11.15
291.654	10.76
291.867	11.17
292.081	10.61
292.295	11.74
292.509	11.9
292.722	12.56
292.936	11.17
293.15	11.15
293.364	11.35
293.577	9.75
293.791	10.16
294.005	11.26
294.218	11.19
294.432	10.84
294.645	10.97
294.859	10.93
295.073	8.96
295.286	9.32
295.5	10.11
295.713	10.14
295.927	10.79
296.14	11.17
296.354	11.42
296.568	12.41
296.781	12.47
296.994	11.7
297.208	11.61
297.421	12.45
297.635	12.13
297.848	11.97
298.062	12.69
298.275	12.76
298.489	12.3
298.702	11.8
298.915	10.66
299.129	11.02
299.342	10.84
299.555	10.93
299.769	11.04
299.982	11.63
300.195	11.87
300.409	10.98
300.622	11.21
300.835	11.34
301.048	12.28
301.262	12.06
301.475	12.42
301.688	13.6
301.901	13.01
302.115	11.68
302.328	12.1
302.541	11.18
302.754	11.2
302.967	11.64
303.18	11.31
303.393	11.71
303.607	11.99
303.82	11.73
304.033	10.17
304.246	11.31
304.459	12.98
304.672	13.31
304.885	15.18
305.098	16.12
305.311	15.33
305.524	15.23
305.737	13.91
305.95	13.31
306.163	12.81
306.376	13.72
306.589	12.65
306.802	11.14
307.015	9.26
307.228	7.87
307.44	6.98
307.653	8.03
307.866	8.86
308.079	7.78
308.292	7.92
308.505	8.16
308.718	8.87
308.93	9.41
309.143	8.39
309.356	9
309.569	8.79
309.781	9.02
309.994	8.33
310.207	8.01
310.42	8.84
310.632	8.25
310.845	7.98
311.058	7.91
311.27	8.1
311.483	9.93
311.696	9.22
311.908	9.41
312.121	8.68
312.333	8.42
312.546	8.4
312.759	9.39
312.971	11.44
313.184	12.57
313.396	12.39
313.609	11.33
313.821	9.63
314.034	11.31
314.246	11.38
314.459	12.01
314.671	12.42
314.884	11.77
315.096	11.03
315.309	9.88
315.521	10.05
315.733	10.63
315.946	11.44
316.158	11.03
316.371	10.98
316.583	11.16
316.795	10.9
317.008	10.99
317.22	10.78
317.432	10.37
317.644	10.74
317.857	9.94
318.069	8.96
318.281	9.61
318.494	12.06
318.706	11.44
318.918	10.65
319.13	10.84
319.342	10.96
319.555	11.57
319.767	11.73
319.979	11.53
320.191	11.32
320.403	11.59
320.615	10.39
320.827	9.97
321.039	9.43
321.252	9.43
321.464	8.73
321.676	7.4
321.888	8.05
322.1	7.99
322.312	8.11
322.524	7.97
322.736	8.57
322.948	10.76
323.16	10.23
323.372	11.1
323.584	11.77
323.796	13.06
324.007	14.57
324.219	13.6
324.431	13.75
324.643	13.59
324.855	13.4
325.067	14.22
325.279	13
325.491	13.02
325.702	12.86
325.914	12.85
326.126	11.67
326.338	10.32
326.55	11.54
326.761	10.48
326.973	9.92
327.185	10.55
327.396	8.99
327.608	9
327.82	9.17
328.032	9
328.243	8.48
328.455	9.21
328.666	9.35
328.878	9.82
329.09	10.18
329.301	11.7
329.513	11.62
329.725	12.57
329.936	13.15
330.148	13.6
330.359	13.61
330.571	13.91
330.782	13.4
330.994	14.29
331.205	13.67
331.417	14.82
331.628	14.3
331.84	14.2
332.051	14.37
332.262	13.99
332.474	14.84
332.685	14.82
332.897	15.41
333.108	16.05
333.319	16.04
333.531	15.68
333.742	15.16
333.953	15.89
334.165	16.36
334.376	15.49
334.587	16.22
334.799	16.22
335.01	16.81
335.221	17.48
335.432	17.37
335.644	17.61
335.855	18.25
336.066	18.97
336.277	18.65
336.488	18.06
336.7	18.36
336.911	18.25
337.122	18.53
337.333	18.24
337.544	18.43
337.755	19.17
337.966	19.56
338.177	19.15
338.388	18.76
338.599	18.2
338.811	19.24
339.022	19.16
339.233	18.47
339.444	17.23
339.655	17.38
339.866	16.24
340.076	15.36
340.287	14.89
340.498	15.14
340.709	15.68
340.92	16.42
341.131	15.78
341.342	16.2
341.553	17.18
341.764	17.64
341.975	17.21
342.185	17.05
342.396	17.69
342.607	17.66
342.818	16.79
343.029	16.01
343.239	16.3
343.45	14.92
343.661	15.29
343.872	14.43
344.082	14.62
344.293	14.78
344.504	14.71
344.714	14.43
344.925	14.14
345.136	14.79
345.346	15.45
345.557	14.57
345.768	15.78
345.978	15.05
346.189	15.18
346.399	14.92
346.61	15.27
346.821	15.29
347.031	15.19
347.242	15.25
347.452	15.16
347.663	14.94
347.873	15.2
348.084	15.99
348.294	15.78
348.504	15.25
348.715	15.05
348.925	15.31
349.136	15.82
349.346	16.19
349.557	16.39
349.767	16.43
349.977	16.31
350.188	15.97
350.398	14.92
350.608	15.48
350.819	16.43
351.029	16.07
351.239	15.96
351.449	16.51
351.66	16.36
351.87	16.65
352.08	17.31
352.29	17.2
352.501	16.81
352.711	16.48
352.921	16.42
353.131	16.09
353.341	16.7
353.552	15.91
353.762	14.96
353.972	14.87
354.182	14.75
354.392	14.22
354.602	14.67
354.812	15.42
355.022	16.14
355.232	16.43
355.442	16.23
355.652	16.56
355.862	16.75
356.072	16.55
356.282	16.29
356.492	16.24
356.702	15.81
356.912	15.13
357.122	15.61
357.332	15.08
357.542	14.42
357.752	14.45
357.962	13.99
358.171	13.73
358.381	14.18
358.591	13.75
358.801	14.39
359.011	15.02
359.221	15.11
359.43	14.58
359.64	14.86
359.85	15.11
360.06	14.83
360.269	14.74
360.479	14.92
360.689	14.82
360.899	15.43
361.108	14.64
361.318	14.24
361.528	14.43
361.737	14.13
361.947	14.52
362.156	14.66
362.366	14.92
362.576	14.52
362.785	14.53
362.995	14.33
363.204	14.05
363.414	13.93
363.623	14.68
363.833	14.5
364.042	14.94
364.252	14.47
364.461	13.99
364.671	13.77
364.88	14.32
365.09	13.42
365.299	13.42
365.509	13.43
365.718	14
365.927	13.51
366.137	13.09
366.346	12.7
366.555	12.55
366.765	13.57
366.974	13.6
367.183	13.3
367.393	14.58
367.602	14.52
367.811	14.85
368.021	14.42
368.23	14.23
368.439	14.37
368.648	14.21
368.857	14.31
369.067	13.36
369.276	13.85
369.485	14.14
369.694	13.66
369.903	13.37
370.112	13.39
370.321	13.28
370.531	12.66
370.74	12.92
370.949	13.23
371.158	13.51
371.367	13.88
371.576	13.57
371.785	13.17
371.994	13.48
372.203	13.82
372.412	13.56
372.621	13.58
372.83	13.8
373.039	13.94
373.248	13.79
373.457	13.73
373.666	12.92
373.874	12.21
374.083	12.78
374.292	12.39
374.501	12.34
374.71	11.87
374.919	11.62
375.128	12.05
375.336	11.89
375.545	12.13
375.754	11.62
375.963	11.79
376.171	12.26
376.38	11.94
376.589	11.85
376.798	11.66
377.006	12.2
377.215	12.38
377.424	12.17
377.632	12.19
377.841	11.86
378.05	11.98
378.258	12.29
378.467	12.13
378.675	12.34
378.884	12.2
379.093	12.24
379.301	12.26
379.51	12.52
379.718	12.55
379.927	12.36
380.135	12.65
380.344	13.1
380.552	12.75
380.761	12.91
380.969	12.86
381.177	12.98
381.386	13.02
381.594	13.14
381.803	12.71
382.011	12.71
382.219	12.73
382.428	12.25
382.636	11.62
382.845	12.06
383.053	12.3
383.261	12.06
383.469	12
383.678	11.72
383.886	11.45
384.094	11.41
384.302	10.72
384.511	10.84
384.719	10.8
384.927	11.17
385.135	11.17
385.343	10.93
385.552	11.11
385.76	11.46
385.968	11.66
386.176	11.39
386.384	11.63
386.592	12.15
386.8	12.06
387.008	12.38
387.216	12.2
387.424	12.13
387.633	12.03
387.841	11.69
388.049	11.18
388.257	11.29
388.465	11.27
388.672	11.3
388.88	11.27
389.088	11.16
389.296	11.17
389.504	11.13
389.712	10.61
389.92	10.89
390.128	11.01
390.336	11.13
390.544	11.23
390.751	11.42
390.959	11.16
391.167	10.79
391.375	10.57
391.583	10.55
391.79	10.67
391.998	11.1
392.206	10.97
392.414	10.79
392.621	10.99
392.829	10.82
393.037	10.72
393.244	10.67
393.452	10.75
393.66	11.09
393.867	11.12
394.075	11.06
394.283	10.69
394.49	10.8
394.698	11.27
394.905	11.27
395.113	11.21
395.32	11.29
395.528	11.23
395.735	11.3
395.943	11.22
396.15	11.22
396.358	11
396.565	11.07
396.773	10.74
396.98	10.52
397.188	10.28
397.395	10.23
397.602	10.19
397.81	10.37
398.017	10.4
398.225	10.4
398.432	10.53
398.639	10.56
398.847	10.63
399.054	10.92
399.261	11.05
399.468	11.47
399.676	11.8
399.883	11.92
400.09	11.99
400.297	12.23
400.505	12.11
400.712	11.66
400.919	11.52
401.126	11.63
401.333	11.41
401.54	11.04
401.748	10.88
401.955	10.66
402.162	10.5
402.369	10.45
402.576	10.05
402.783	9.91
402.99	9.81
403.197	9.96
403.404	9.78
403.611	10.12
403.818	10.23
404.025	10.1
404.232	10.11
404.439	9.96
404.646	9.98
404.853	10.23
405.06	10.58
405.267	10.79
405.474	10.67
405.681	10.73
405.887	10.43
406.094	10.47
406.301	10.51
406.508	10.36
406.715	10.44
406.922	10.07
407.128	9.9
407.335	9.7
407.542	9.81
407.749	9.98
407.955	10.06
408.162	10.15
408.369	10.23
408.575	10.16
408.782	10.11
408.989	10.18
409.195	10.61
409.402	10.58
409.609	10.43
409.815	10.04
410.022	10.02
410.228	9.97
410.435	9.83
410.642	9.67
410.848	9.87
411.055	9.92
411.261	9.63
411.468	9.35
411.674	9.43
411.881	9.45
412.087	9.73
412.294	10.05
412.5	9.96
412.706	10.1
412.913	10.2
413.119	10.07
413.326	10.34
413.532	10.61
413.738	10.86
413.945	11.08
414.151	11.03
414.357	10.91
414.564	10.83
414.77	11.11
414.976	10.8
415.182	10.7
415.389	10.84
415.595	10.9
415.801	11
416.007	10.8
416.214	10.71
416.42	10.76
416.626	10.98
416.832	10.87
417.038	10.84
417.244	11.01
417.45	11.07
417.657	10.81
417.863	10.61
418.069	10.52
418.275	10.64
418.481	10.64
418.687	10.54
418.893	10.32
419.099	10.19
419.305	10.11
419.511	10.17
419.717	10.14
419.923	10.2
420.129	10.19
420.335	10.19
420.541	10.07
420.746	9.97
420.952	10.14
421.158	10.25
421.364	10.41
421.57	10.47
421.776	10.45
421.982	10.54
422.187	10.55
422.393	10.65
422.599	10.57
422.805	10.73
423.01	10.88
423.216	10.87
423.422	10.82
423.628	10.76
423.833	10.63
424.039	10.54
424.245	10.42
424.45	10.43
424.656	10.4
424.862	10.48
425.067	10.4
425.273	10.29
425.478	10.28
425.684	10.36
425.889	10.37
426.095	10.4
426.301	10.53
426.506	10.61
426.712	10.56
426.917	10.43
427.123	10.36
427.328	10.31
427.533	10.47
427.739	10.46
427.944	10.31
428.15	10.23
428.355	10.4
428.561	10.52
428.766	10.3
428.971	10.17
429.177	10.46
429.382	10.78
429.587	10.74
429.793	10.71
429.998	10.82
430.203	10.84
430.408	10.87
430.614	10.45
430.819	10.25
431.024	10.48
431.229	10.49
431.434	10.29
431.64	10.15
431.845	10.33
432.05	10.3
432.255	10.12
432.46	10.11
432.665	9.98
432.87	10.16
433.076	10.14
433.281	10.01
433.486	10.18
433.691	10.34
433.896	10.05
434.101	9.82
434.306	9.64
434.511	9.61
434.716	9.54
434.921	9.54
435.126	9.71
435.331	9.77
435.535	9.88
435.74	9.7
435.945	9.43
436.15	9.61
436.355	9.8
436.56	10.05
436.765	10.07
436.97	10.3
437.174	10.48
437.379	10.38
437.584	10.37
437.789	10.33
437.993	10.47
438.198	10.53
438.403	10.56
438.608	10.73
438.812	10.6
439.017	10.71
439.222	10.79
439.426	10.65
439.631	10.72
439.836	10.71
440.04	10.82
440.245	10.85
440.45	10.79
440.654	10.72
440.859	10.54
441.063	10.47
441.268	10.43
441.472	10.32
441.677	10.47
441.881	10.52
442.086	10.49
442.29	10.47
442.495	10.38
442.699	10.5
442.904	10.6
443.108	10.57
443.312	10.66
443.517	10.71
443.721	10.75
443.925	10.52
444.13	10.33
444.334	10.32
444.538	10.28
444.743	10.35
444.947	10.36
445.151	10.22
445.356	10.41
445.56	10.39
445.764	10.36
445.968	10.28
446.173	10.34
446.377	10.44
446.581	10.49
446.785	10.42
446.989	10.47
447.193	10.54
447.398	10.68
447.602	10.55
447.806	10.47
448.01	10.47
448.214	10.47
448.418	10.41
448.622	10.29
448.826	10.19
449.03	10.22
449.234	10.12
449.438	9.9
449.642	9.81
449.846	9.89
450.05	10.05
450.254	10.12
450.458	9.96
450.662	10.21
450.866	10.19
451.069	10.34
451.273	10.25
451.477	10.29
451.681	10.22
451.885	10.19
452.089	9.99
452.292	10.05
452.496	9.98
452.7	10.08
452.904	9.78
453.107	9.9
453.311	9.84
453.515	9.79
453.719	9.77
453.922	10.05
454.126	9.95
454.33	10.1
454.533	10.08
454.737	10.06
454.94	10.19
455.144	10.5
455.348	10.49
455.551	10.49
455.755	10.78
455.958	10.82
456.162	10.81
456.365	10.94
456.569	10.96
456.772	10.84
456.976	10.76
457.179	10.66
457.383	10.36
457.586	10.21
457.79	10.27
457.993	10.16
458.196	10.32
458.4	10.24
458.603	10.27
458.807	10.22
459.01	10.16
459.213	10.22
459.417	10.32
459.62	10.46
459.823	10.46
460.026	10.32
460.23	10.23
460.433	10.04
460.636	9.96
460.839	10.03
461.042	10.09
461.246	10.08
461.449	10.22
461.652	10.06
461.855	10.06
462.058	10.14
462.261	10.16
462.464	10.29
462.668	10.42
462.871	10.56
463.074	10.39
463.277	10.39
463.48	10.53
463.683	10.26
463.886	10.26
464.089	10.22
464.292	10.1
464.495	10.05
464.698	10.11
464.901	10.08
465.104	10.1
465.306	10.27
465.509	10.14
465.712	10.18
465.915	10.18
466.118	10.33
466.321	10.2
466.524	10.26
466.726	10.41
466.929	10.29
467.132	10.21
467.335	10.18
467.538	10.1
467.74	10.03
467.943	9.94
468.146	9.96
468.348	9.97
468.551	10.06
468.754	10.13
468.956	10.05
469.159	10.05
469.362	9.93
469.564	9.86
469.767	9.82
469.969	9.93
470.172	10.05
470.375	10.11
470.577	10.1
470.78	10.12
470.982	10.12
471.185	10.12
471.387	10.23
471.59	10.48
471.792	10.5
471.995	10.54
472.197	10.54
472.399	10.42
472.602	10.41
472.804	10.25
473.007	10.21
473.209	10.18
473.411	10.16
473.614	10.18
473.816	10.12
474.018	10.14
474.22	10.12
474.423	10.1
474.625	10.21
474.827	10.39
475.03	10.56
475.232	10.62
475.434	10.56
475.636	10.63
475.838	10.62
476.04	10.55
476.243	10.5
476.445	10.4
476.647	10.49
476.849	10.35
477.051	10.18
477.253	10.22
477.455	10.12
477.657	10.07
477.859	10.17
478.061	10
478.263	10.03
478.465	10.11
478.667	10.16
478.869	10.01
479.071	10.06
479.273	10.1
479.475	10.06
479.677	10.16
479.879	10.27
480.081	10.24
480.283	10.41
480.485	10.46
480.686	10.38
480.888	10.37
481.09	10.36
481.292	10.38
481.494	10.34
481.695	10.25
481.897	10.17
482.099	10.13
482.301	10.02
482.502	10.02
482.704	9.96
482.906	9.97
483.107	10.03
483.309	10.1
483.511	10.09
483.712	10.04
483.914	10.07
484.115	10.07
484.317	10.03
484.519	10.04
484.72	9.92
484.922	9.92
485.123	9.92
485.325	9.91
485.526	9.87
485.728	9.83
485.929	9.88
486.131	9.83
486.332	9.82
486.534	9.84
486.735	9.85
486.936	9.99
487.138	9.96
487.339	9.96
487.541	9.95
487.742	9.97
487.943	10.02
488.144	10
488.346	10.04
488.547	10.05
488.748	10.03
488.95	10.08
489.151	10.02
489.352	10.02
489.553	10.01
489.755	9.91
489.956	9.89
490.157	9.88
490.358	9.89
490.559	9.79
490.76	9.78
490.961	9.84
491.163	9.8
491.364	9.83
491.565	9.9
491.766	9.89
491.967	9.99
492.168	9.95
492.369	9.85
492.57	9.84
492.771	9.84
492.972	9.81
493.173	9.86
493.374	9.81
493.575	9.82
493.776	9.74
493.976	9.82
494.177	9.8
494.378	9.89
494.579	10.14
494.78	10.09
494.981	10.29
495.182	10.36
495.382	10.36
495.583	10.38
495.784	10.31
495.985	10.4
496.185	10.3
496.386	10.18
496.587	10.13
496.788	10.03
496.988	10.16
497.189	10.06
497.39	10.05
497.59	9.95
497.791	9.97
497.992	9.96
498.192	9.96
498.393	10.05
498.593	10.17
498.794	10.17
498.994	10.14
499.195	10
499.395	10.16
499.596	10.23
499.796	10.34
499.997	10.49
500.197	10.69
500.398	10.6
500.598	10.62
500.799	10.57
500.999	10.69
501.199	10.81
501.4	10.89
501.6	10.75
501.801	10.72
502.001	10.74
502.201	10.83
502.402	10.86
502.602	11.01
502.802	10.99
503.002	11.17
503.203	11.15
503.403	11.12
503.603	11.25
503.803	11.31
504.003	11.43
504.204	11.34
504.404	11.3
504.604	11.19
504.804	11.21
505.004	11.22
505.204	11.18
505.404	11.05
505.604	10.93
505.804	10.84
506.005	10.7
506.205	10.68
506.405	10.84
506.605	10.85
506.805	10.95
507.005	10.9
507.204	10.91
507.404	10.84
507.604	11.02
507.804	11.13
508.004	11.2
508.204	11.37
508.404	11.25
508.604	11.13
508.804	11.08
509.003	11.02
509.203	11.04
509.403	11.12
509.603	11.28
509.803	11.33
510.002	11.34
510.202	11.34
510.402	11.32
510.602	11.36
510.801	11.41
511.001	11.41
511.201	11.32
511.4	11.39
511.6	11.26
511.8	11.23
511.999	11.25
512.199	11.29
512.398	11.26
512.598	11.33
512.797	11.42
512.997	11.32
513.197	11.3
513.396	11.44
513.596	11.46
513.795	11.5
513.994	11.45
514.194	11.44
514.393	11.5
514.593	11.66
514.792	11.58
514.992	11.68
515.191	11.82
515.39	11.91
515.59	12.07
515.789	12.02
515.988	12.13
516.188	12.19
516.387	12.22
516.586	12.23
516.786	12.32
516.985	12.34
517.184	12.34
517.383	12.43
517.582	12.44
517.782	12.57
517.981	12.69
518.18	12.69
518.379	12.75
518.578	12.7
518.777	12.7
518.976	12.67
519.176	12.74
519.375	12.74
519.574	12.73
519.773	12.88
519.972	12.72
520.171	12.73
520.37	12.78
520.569	12.8
520.768	12.91
520.967	13.05
521.166	13.01
521.365	13.02
521.564	13.1
521.762	13.17
521.961	13.18
522.16	13.17
522.359	13.1
522.558	13.1
522.757	13.17
522.956	13.29
523.154	13.15
523.353	13.3
523.552	13.36
523.751	13.34
523.949	13.37
524.148	13.32
524.347	13.39
524.546	13.53
524.744	13.62
524.943	13.48
525.142	13.42
525.34	13.52
525.539	13.47
525.737	13.56
525.936	13.6
526.135	13.68
526.333	13.65
526.532	13.78
526.73	13.71
526.929	13.73
527.127	13.82
527.326	13.89
527.524	13.88
527.723	13.93
527.921	13.92
528.12	13.97
528.318	13.92
528.516	13.95
528.715	13.93
528.913	14.05
529.112	14.12
529.31	14.15
529.508	14.18
529.707	14.27
529.905	14.28
530.103	14.34
530.301	14.39
530.5	14.48
530.698	14.55
530.896	14.68
531.094	14.63
531.293	14.68
531.491	14.76
531.689	14.79
531.887	14.87
532.085	14.97
532.283	15.01
532.481	15.02
532.68	15.18
532.878	15.31
533.076	15.34
533.274	15.4
533.472	15.46
533.67	15.49
533.868	15.58
534.066	15.64
534.264	15.74
534.462	15.77
534.66	15.88
534.858	15.84
535.056	15.89
535.253	15.87
535.451	16.02
535.649	16.01
535.847	16.13
536.045	16.22
536.243	16.32
536.441	16.34
536.638	16.44
536.836	16.48
537.034	16.54
537.232	16.57
537.43	16.65
537.627	16.7
537.825	16.77
538.023	16.77
538.22	16.71
538.418	16.68
538.616	16.79
538.813	16.93
539.011	16.99
539.209	17.08
539.406	17.23
539.604	17.47
539.801	17.58
539.999	17.74
540.196	17.78
540.394	17.95
540.591	18
540.789	17.97
540.986	17.94
541.184	18
541.381	18.04
541.579	18.11
541.776	18.07
541.974	18.13
542.171	18.22
542.368	18.36
542.566	18.39
542.763	18.55
542.96	18.7
543.158	18.77
543.355	18.93
543.552	19.15
543.75	19.21
543.947	19.42
544.144	19.58
544.341	19.67
544.539	19.79
544.736	19.92
544.933	19.99
545.13	20.09
545.327	20.26
545.524	20.36
545.722	20.2
545.919	20.38
546.116	20.4
546.313	20.45
546.51	20.57
546.707	20.65
546.904	20.86
547.101	21.03
547.298	21.11
547.495	21.25
547.692	21.27
547.889	21.65
548.086	21.81
548.283	21.91
548.48	22.05
548.677	22.05
548.874	22.15
549.07	22.2
549.267	22.16
549.464	22.36
549.661	22.34
549.858	22.45
550.055	22.45
550.251	22.32
550.448	22.37
550.645	22.49
550.842	22.64
551.038	22.83
551.235	22.93
551.432	23.03
551.628	23.16
551.825	23.36
552.022	23.7
552.218	23.78
552.415	24.09
552.612	24.22
552.808	24.25
553.005	24.26
553.201	24.28
553.398	24.31
553.594	24.44
553.791	24.52
553.987	24.63
554.184	24.4
554.38	24.61
554.577	24.83
554.773	24.85
554.97	25.11
555.166	25.36
555.362	25.63
555.559	25.7
555.755	25.66
555.952	25.76
556.148	26.05
556.344	26.54
556.541	26.46
556.737	26.27
556.933	26.54
557.129	26.54
557.326	26.54
557.522	26.7
557.718	26.96
557.914	27.27
558.11	27.48
558.307	27.33
558.503	27.26
558.699	27.49
558.895	27.49
559.091	27.71
559.287	27.78
559.483	27.86
559.679	27.96
559.876	28.22
560.072	28.21
560.268	28.18
560.464	28.54
560.66	28.63
560.856	28.85
561.052	29.18
561.247	29.24
561.443	29.47
561.639	29.64
561.835	29.71
562.031	29.49
562.227	29.7
562.423	29.76
562.619	29.78
562.815	29.95
563.01	29.85
563.206	29.99
563.402	29.97
563.598	29.93
563.793	30.04
563.989	29.95
564.185	30.1
564.381	30.21
564.576	30.42
564.772	30.4
564.968	30.42
565.163	30.51
565.359	30.62
565.555	30.7
565.75	30.85
565.946	30.92
566.141	30.89
566.337	30.96
566.532	31.06
566.728	31.07
566.923	31.2
567.119	31.26
567.314	31.43
567.51	31.36
567.705	31.58
567.901	31.52
568.096	31.61
568.292	31.88
568.487	31.85
568.682	31.81
568.878	31.87
569.073	31.88
569.268	31.85
569.464	31.77
569.659	32.04
569.854	32.12
570.05	32.31
570.245	32.48
570.44	32.49
570.635	32.81
570.831	32.78
571.026	32.9
571.221	32.98
571.416	33.23
571.611	33.42
571.806	33.43
572.002	33.37
572.197	33.4
572.392	33.31
572.587	33.37
572.782	33.43
572.977	33.66
573.172	33.72
573.367	33.84
573.562	33.83
573.757	33.9
573.952	33.83
574.147	33.92
574.342	34.17
574.537	34.3
574.732	34.26
574.927	34.35
575.121	34.34
575.316	34.35
575.511	34.4
575.706	34.42
575.901	34.38
576.096	34.46
576.29	34.57
576.485	34.36
576.68	34.48
576.875	34.63
577.069	34.56
577.264	34.59
577.459	34.62
577.654	34.67
577.848	34.75
578.043	34.9
578.238	34.86
578.432	34.78
578.627	34.91
578.821	34.93
579.016	34.95
579.21	34.86
579.405	34.86
579.6	34.85
579.794	34.99
579.989	35.05
580.183	35.29
580.378	35.42
580.572	35.62
580.766	35.75
580.961	35.65
581.155	35.86
581.35	36.09
581.544	36.3
581.738	36.51
581.933	36.29
582.127	36.32
582.321	36.22
582.516	36.34
582.71	36.15
582.904	36.2
583.099	36.3
583.293	36.11
583.487	36.14
583.681	36.16
583.875	36.28
584.07	36.62
584.264	36.68
584.458	36.65
584.652	36.74
584.846	36.91
585.04	36.81
585.234	37.07
585.428	37.26
585.623	37.37
585.817	37.49
586.011	37.45
586.205	37.49
586.399	37.62
586.593	37.82
586.787	37.66
586.981	37.76
587.174	37.81
587.368	37.71
587.562	37.72
587.756	37.35
587.95	37.45
588.144	37.37
588.338	37.1
588.532	37.06
588.725	37.01
588.919	37.17
589.113	37.19
589.307	37.37
589.501	37.19
589.694	37.23
589.888	37.55
590.082	37.36
590.275	37.42
590.469	37.62
590.663	37.61
590.856	37.74
591.05	37.7
591.244	37.93
591.437	37.93
591.631	38.27
591.824	38.41
592.018	38.47
592.212	38.57
592.405	38.59
592.599	38.33
592.792	38.35
592.986	38.24
593.179	38.28
593.372	38.13
593.566	38.1
593.759	38.17
593.953	38.24
594.146	38.29
594.339	38.3
594.533	38.46
594.726	38.83
594.92	38.88
595.113	38.94
595.306	39.02
595.499	38.99
595.693	38.97
595.886	38.75
596.079	38.63
596.272	38.67
596.466	38.76
596.659	38.74
596.852	38.58
597.045	38.62
597.238	38.51
597.431	38.5
597.624	38.49
597.818	38.51
598.011	38.5
598.204	38.57
598.397	38.39
598.59	38.3
598.783	38.08
598.976	38.19
599.169	38.32
599.362	38.39
599.555	38.36
599.748	38.39
599.941	38.59
600.134	38.81
600.326	38.71
600.519	39
600.712	39.31
600.905	39.53
601.098	39.24
601.291	39.17
601.483	39.24
601.676	39.23
601.869	39.19
602.062	39.2
602.255	39
602.447	39.21
602.64	39.11
602.833	38.79
603.025	38.76
603.218	39.18
603.411	39.23
603.603	39.37
603.796	39.36
603.989	39.47
604.181	39.48
604.374	39.66
604.566	39.55
604.759	39.54
604.951	39.42
605.144	39.39
605.336	39.27
605.529	39.27
605.721	39.08
605.914	39.32
606.106	39.08
606.299	38.91
606.491	38.78
606.683	38.99
606.876	39.07
607.068	39.26
607.26	39.47
607.453	39.62
607.645	39.51
607.837	39.92
608.03	39.55
608.222	40.22
608.414	40.36
608.606	40.49
608.799	40.42
608.991	40.34
609.183	40.51
609.375	40.39
609.567	40.38
609.759	40.43
609.952	40.18
610.144	40.38
610.336	40.01
610.528	39.95
610.72	39.84
610.912	39.81
611.104	39.8
611.296	39.76
611.488	39.76
611.68	39.44
611.872	39.55
612.064	39.63
612.256	39.77
612.448	39.82
612.64	40.02
612.832	40.23
613.023	40.32
613.215	40.33
613.407	40.38
613.599	40.45
613.791	40.78
613.983	40.55
614.174	40.59
614.366	40.6
614.558	40.67
614.75	40.53
614.941	40.45
615.133	40.34
615.325	40.61
615.516	40.58
615.708	40.49
615.9	40.34
616.091	40.58
616.283	40.29
616.475	40.25
616.666	40.2
616.858	40.22
617.049	39.98
617.241	40.06
617.432	40.08
617.624	40.06
617.815	39.98
618.007	39.95
618.198	39.75
618.39	40.12
618.581	39.97
618.773	39.87
618.964	39.73
619.155	39.78
619.347	39.64
619.538	39.18
619.729	39.47
619.921	39.87
620.112	40.05
620.303	40.17
620.494	39.88
620.686	39.84
620.877	39.95
621.068	39.87
621.259	40.24
621.451	40.26
621.642	40.59
621.833	40.44
622.024	40.45
622.215	40.35
622.406	40.47
622.597	40.75
622.788	41.01
622.98	41
623.171	41.22
623.362	41.22
623.553	41.22
623.744	41.53
623.935	41.61
624.126	41.68
624.317	41.81
624.508	41.85
624.698	42
624.889	41.75
625.08	41.8
625.271	41.98
625.462	41.91
625.653	41.96
625.844	41.73
626.034	41.65
626.225	41.57
626.416	41.61
626.607	41.69
626.798	41.56
626.988	41.76
627.179	41.75
627.37	41.68
627.56	41.52
627.751	41.56
627.942	41.45
628.132	41.42
628.323	41.37
628.514	41.45
628.704	41.23
628.895	41.22
629.085	41.09
629.276	40.8
629.466	40.7
629.657	40.91
629.847	40.89
630.038	41.05
630.228	40.78
630.419	40.61
630.609	40.49
630.8	40.65
630.99	40.67
631.181	40.67
631.371	41
631.561	41.32
631.752	41.37
631.942	41.25
632.132	41.25
632.323	41.45
632.513	41.83
632.703	42.03
632.893	41.97
633.084	42.02
633.274	42.08
633.464	42.05
633.654	41.71
633.844	41.78
634.034	42.01
634.225	41.85
634.415	42.03
634.605	41.87
634.795	41.5
634.985	41.51
635.175	41.65
635.365	41.65
635.555	41.68
635.745	41.91
635.935	42.05
636.125	41.73
636.315	41.76
636.505	41.62
636.695	41.53
636.885	41.82
637.075	41.63
637.265	41.22
637.455	41.26
637.644	41.12
637.834	41.02
638.024	40.68
638.214	41.08
638.404	40.81
638.593	41.17
638.783	41.35
638.973	41.36
639.163	41.76
639.352	41.64
639.542	41.73
639.732	42.04
639.921	41.89
640.111	42.12
640.301	42.02
640.49	42.49
640.68	42.37
640.87	42.27
641.059	42.08
641.249	42.15
641.438	42.55
641.628	42.38
641.817	42.12
642.007	42.46
642.196	42.64
642.386	42.76
642.575	42.61
642.764	42.45
642.954	42.34
643.143	42.45
643.333	42.21
643.522	42
643.711	42.1
643.901	42.65
644.09	42.81
644.279	42.46
644.469	42.21
644.658	42.01
644.847	42.16
645.036	42.38
645.226	42.39
645.415	42.71
645.604	42.83
645.793	42.77
645.982	42.27
646.171	41.83
646.361	41.62
646.55	42.22
646.739	42.75
646.928	42.49
647.117	42.61
647.306	42.55
647.495	42.21
647.684	42.36
647.873	42.46
648.062	42.65
648.251	42.69
648.44	42.92
648.629	42.35
648.818	42.05
649.007	42.39
649.196	42.5
649.384	42.33
649.573	42.62
649.762	42.57
649.951	42.69
650.14	42.46
650.328	42.68
650.517	42.86
650.706	43.2
650.895	43.27
651.083	43.18
651.272	42.88
651.461	43.03
651.65	43.08
651.838	42.95
652.027	42.95
652.216	43.04
652.404	42.84
652.593	42.58
652.781	42.28
652.97	42.16
653.158	41.93
653.347	41.86
653.535	42.19
653.724	42.05
653.912	42.53
654.101	42.47
654.289	42.67
654.478	42.6
654.666	42.52
654.855	42.54
655.043	42.9
655.231	43.17
655.42	43.27
655.608	43.19
655.796	43.15
655.985	42.75
656.173	42.85
656.361	42.65
656.55	42.76
656.738	42.74
656.926	42.89
657.114	42.74
657.302	42.62
657.491	42.85
657.679	42.71
657.867	42.68
658.055	43.01
658.243	42.5
658.431	42.69
658.619	42.97
658.807	43.05
658.996	43.17
659.184	43.07
659.372	43.22
659.56	43
659.748	43.23
659.936	43.28
660.124	43.01
660.311	43.27
660.499	43.27
660.687	42.96
660.875	42.91
661.063	42.79
661.251	42.77
661.439	42.67
661.627	42.91
661.814	42.72
662.002	42.58
662.19	42.62
662.378	42.69
662.565	42.55
662.753	42.58
662.941	42.96
663.129	42.77
663.316	42.87
663.504	42.76
663.692	42.53
663.879	42.67
664.067	42.71
664.254	42.98
664.442	43.23
664.63	43.3
664.817	43.46
665.005	43.12
665.192	43.1
665.38	43.28
665.567	43.05
665.755	43.51
665.942	43.43
666.13	43.25
666.317	42.85
666.504	42.89
666.692	43
666.879	42.78
667.067	43.08
667.254	43.06
667.441	42.96
667.629	42.93
667.816	42.35
668.003	42.54
668.19	42.76
668.378	42.78
668.565	42.4
668.752	42.46
668.939	42.66
669.127	42.8
669.314	43.09
669.501	43.31
669.688	43.66
669.875	43.7
670.062	43.69
670.249	43.54
670.436	43.86
670.623	43.88
670.81	43.93
670.997	43.85
671.184	43.47
671.371	43.77
671.558	43.85
671.745	43.52
671.932	43.22
672.119	42.97
672.306	43.28
672.493	43.14
672.68	43.36
672.867	43.37
673.054	43.26
673.24	43.13
673.427	42.61
673.614	42.1
673.801	42.57
673.988	43.32
674.174	43.27
674.361	43.09
674.548	43.03
674.734	42.85
674.921	42.77
675.108	43.22
675.294	43.2
675.481	43
675.668	43.71
675.854	43.8
676.041	43.52
676.227	43.61
676.414	44.03
676.601	44.25
676.787	45.03
676.974	44.79
677.16	44.66
677.347	45.07
677.533	45.12
677.719	44.84
677.906	44.34
678.092	44.24
678.279	44.5
678.465	43.85
678.651	43.79
678.838	43.37
679.024	43.55
679.21	43.63
679.397	43.66
679.583	43.88
679.769	43.68
679.955	43.97
680.142	44.03
680.328	43.97
680.514	44.64
680.7	44.45
680.886	44.05
681.073	43.85
681.259	43.86
681.445	43.49
681.631	43.47
681.817	43.41
682.003	43.34
682.189	43
682.375	42.8
682.561	42.4
682.747	42.45
682.933	42.64
683.119	42.55
683.305	42.23
683.491	42.53
683.677	42.46
683.863	42.39
684.049	42.45
684.235	42.89
684.42	42.8
684.606	42.5
684.792	42.4
684.978	42.63
685.164	43.19
685.349	43.23
685.535	43.25
685.721	43.39
685.907	43.13
686.092	43.32
686.278	43.1
686.464	42.95
686.649	43.31
686.835	43.34
687.021	43.53
687.206	43.3
687.392	43.27
687.577	43.16
687.763	42.92
687.948	43.51
688.134	43.67
688.319	43.96
688.505	44.69
688.69	44.61
688.876	44.87
689.061	44.39
689.247	44.32
689.432	44.21
689.618	44.21
689.803	44.23
689.988	44.26
690.174	43.51
690.359	43.22
690.544	42.78
690.73	42.69
690.915	42.5
691.1	42.54
691.285	42.55
691.471	42.97
691.656	43.21
691.841	42.87
692.026	42.53
692.211	42.93
692.396	43.46
692.582	43.3
692.767	43.48
692.952	43.2
693.137	43.24
693.322	43.2
693.507	43.24
693.692	42.81
693.877	43.39
694.062	43.54
694.247	43.5
694.432	43.31
694.617	43.23
694.802	43.22
694.987	43.94
695.172	44.08
695.357	44.29
695.541	44.03
695.726	44
695.911	43.92
696.096	43.53
696.281	43.15
696.466	42.97
696.65	43.03
696.835	42.86
697.02	42.92
697.204	42.49
697.389	42.42
697.574	42.52
697.759	42.57
697.943	42.45
698.128	42.53
698.312	42.59
698.497	42.47
698.682	42.58
698.866	42.74
699.051	42.51
699.235	42.64
699.42	42.7
699.604	42.82
699.789	43.17
699.973	43.17
700.158	43.21
700.342	43.73
700.527	44.36
700.711	44.57
700.895	44.49
701.08	44.4
701.264	44.78
701.448	44.75
701.633	44.35
701.817	44.24
702.001	44.33
702.186	44.29
702.37	43.69
702.554	42.9
702.738	42.92
702.923	42.95
703.107	42.44
703.291	42.33
703.475	42.71
703.659	43.11
703.843	42.7
704.027	43.03
704.212	43.15
704.396	43.47
704.58	44.1
704.764	43.65
704.948	43.82
705.132	44.18
705.316	44.29
705.5	43.56
705.684	43.73
705.868	44.32
706.052	44.43
706.235	44.39
706.419	43.98
706.603	43.79
706.787	44.34
706.971	44.35
707.155	44
707.339	43.98
707.522	44.33
707.706	44.27
707.89	44.33
708.074	44.03
708.257	43.74
708.441	44.56
708.625	44.36
708.808	43.76
708.992	43.81
709.176	44.16
709.359	44.01
709.543	44.42
709.727	44.39
709.91	44.5
710.094	44.49
710.277	45.17
710.461	44.8
710.644	45.35
710.828	45.65
711.011	45.19
711.195	45.32
711.378	45.71
711.562	45.29
711.745	45.58
711.928	45.09
712.112	45.33
712.295	44.94
712.478	45.19
712.662	44.61
712.845	44.36
713.028	44.92
713.212	45.29
713.395	44.77
713.578	45.07
713.761	44.71
713.945	44.92
714.128	44.86
714.311	45.51
714.494	45.35
714.677	45.55
714.86	45.4
715.043	45.43
715.227	44.84
715.41	44.99
715.593	44.68
715.776	44.91
715.959	45.09
716.142	45.1
716.325	44.79
716.508	44.67
716.691	44.77
716.874	45.02
717.057	45.28
717.239	45.56
717.422	45.41
717.605	45.72
717.788	45.64
717.971	44.83
718.154	44.68
718.337	44.65
718.519	44.49
718.702	44.08
718.885	44.47
719.068	44.16
719.25	43.7
719.433	44.11
719.616	43.82
719.798	43.86
719.981	44.8
720.164	44.1
720.346	43.66
720.529	43.39
720.712	43.38
720.894	43.34
721.077	43.63
721.259	43.68
721.442	43.45
721.624	43.56
721.807	43.47
721.989	43.51
722.172	44.87
722.354	45.52
722.537	46.25
722.719	46.79
722.901	45.71
723.084	44.96
723.266	46.12
723.448	46.57
723.631	46.69
723.813	46.36
723.995	45.83
724.178	45.15
724.36	43.94
724.542	43.65
724.724	43.64
724.907	44.66
725.089	44.84
725.271	44.57
725.453	44.7
725.635	45.03
725.817	45.51
725.999	45.86
726.181	46.16
726.364	47.26
726.546	47.57
726.728	47.31
726.91	47.27
727.092	47.28
727.274	47.22
727.456	46.67
727.638	46.3
727.819	46.96
728.001	46.63
728.183	46.75
728.365	46.84
728.547	46.59
728.729	46.77
728.911	46.61
729.093	45.69
729.274	45.42
729.456	45.13
729.638	44.9
729.82	43.93
730.001	43.65
730.183	43.15
730.365	43.44
730.546	42.78
730.728	43.1
730.91	42.4
731.091	43.2
731.273	42.89
731.455	43.27
731.636	43.75
731.818	44.21
731.999	44.92
732.181	45.06
732.362	44.19
732.544	45.21
732.725	44.8
732.907	45.83
733.088	45.79
733.27	45.76
733.451	45.89
733.633	45.62
733.814	45.07
733.995	44.25
734.177	44.57
734.358	44.56
734.539	43.84
734.721	42.97
734.902	43.11
735.083	43.5
735.264	44.6
735.446	44.79
735.627	45.24
735.808	46.08
735.989	46.46
736.17	46.51
736.351	47.27
736.533	47.37
736.714	48.01
736.895	47.92
737.076	46.91
737.257	45.94
737.438	45.16
737.619	45.45
737.8	44.75
737.981	45.62
738.162	45.39
738.343	45.87
738.524	45.68
738.705	46.4
738.886	45.97
739.067	46.5
739.247	46.85
739.428	47.17
739.609	46.68
739.79	46.3
739.971	46.09
740.151	46.45
740.332	45.15
740.513	45.5
740.694	45.32
740.874	45.95
741.055	46.9
741.236	47.04
741.417	46.26
741.597	45.88
741.778	46.98
741.958	47.14
742.139	46.66
742.32	47.06
742.5	47.79
742.681	47.24
742.861	46.64
743.042	45.35
743.222	45.55
743.403	46.87
743.583	46.92
743.764	46.51
743.944	46.09
744.124	45.79
744.305	46.46
744.485	46.75
744.666	47.43
744.846	47.44
745.026	47.62
745.207	47.52
745.387	46.97
745.567	46.76
745.747	46.39
745.928	47.23
746.108	48.02
746.288	47.6
746.468	47.29
746.648	46.95
746.829	46.99
747.009	47.65
747.189	48.11
747.369	48.63
747.549	50.3
747.729	49.5
747.909	48.6
748.089	48.87
748.269	48.37
748.449	48.1
748.629	48.16
748.809	47.45
748.989	47.99
749.169	46.81
749.349	46.3
749.529	45.5
749.709	45.73
749.889	45.41
750.068	45.67
750.248	45.74
750.428	46.34
750.608	45.75
750.788	47.01
750.967	45.72
751.147	46.77
751.327	46.89
751.507	46.99
751.686	47.95
751.866	48.54
752.046	47.99
752.225	48.27
752.405	47.67
752.585	47.59
752.764	47.05
752.944	48.32
753.123	48.18
753.303	48.56
753.482	48.68
753.662	49.16
753.841	49.08
754.021	48.85
754.2	48.48
754.38	49.18
754.559	50.23
754.739	50.62
754.918	49.2
755.097	48.97
755.277	48.48
755.456	47.77
755.635	46.86
755.815	47.23
755.994	47.82
756.173	48.34
756.352	47.84
756.532	47.47
756.711	47.38
756.89	48.33
757.069	48.83
757.248	48.55
757.427	48.58
757.607	48.49
757.786	47.86
757.965	47.54
758.144	46.95
758.323	46.32
758.502	46.03
758.681	45.74
758.86	45.19
759.039	44.15
759.218	44.41
759.397	44.18
759.576	43.81
759.755	43.81
759.934	43.95
760.113	45.08
760.291	44.22
760.47	43.8
760.649	43.49
760.828	42.96
761.007	42.91
761.186	43.02
761.364	43.33
761.543	44.27
761.722	43.83
761.901	43.49
762.079	42.4
762.258	44.1
762.437	44.06
762.615	44.57
762.794	44.47
762.972	44.69
763.151	44.78
763.33	44.96
763.508	44.71
763.687	45.43
763.865	45.32
764.044	45.49
764.222	44.99
764.401	45.54
764.579	45.4
764.758	45.26
764.936	45.85
765.114	46.04
765.293	46.11
765.471	46.1
765.65	45.33
765.828	45.43
766.006	45.79
766.184	46.31
766.363	46.43
766.541	45.79
766.719	45.62
766.898	45.32
767.076	45.06
767.254	45.33
767.432	45.52
767.61	46.32
767.788	46.58
767.967	46.22
768.145	46.25
768.323	45.9
768.501	47.56
768.679	49.36
768.857	49.87
769.035	49.69
769.213	48.4
769.391	48.79
769.569	48.83
769.747	48.88
769.925	50.23
770.103	48.91
770.281	48.18
770.459	46.91
770.636	44.96
770.814	43.7
770.992	44.59
771.17	44.54
771.348	43.94
771.525	44.09
771.703	43.81
771.881	42.41
772.059	43.34
772.236	44.45
772.414	43.99
772.592	45.62
772.769	46.95
772.947	47.06
773.125	47.29
773.302	47.59
773.48	47.73
773.657	47.09
773.835	48.04
774.013	47.9
774.19	47.94
774.368	49.83
774.545	48.84
774.723	47.16
774.9	46.43
775.077	46.88
775.255	45.8
775.432	44.68
775.61	45.55
775.787	45.07
775.964	46.27
776.142	46.5
776.319	44.56
776.496	44.65
776.674	45.15
776.851	45.59
777.028	45.98
777.205	47.94
777.382	48.33
777.56	48.07
777.737	48.8
777.914	46.71
778.091	46.46
778.268	46.72
778.445	47.89
778.622	47.79
778.8	47.65
778.977	47.52
779.154	52.61
779.331	51.18
779.508	51.82
779.685	52.32
779.862	54.68
780.038	54.21
780.215	55.79
780.392	55.05
780.569	56.31
780.746	54.61
780.923	55.57
781.1	50.34
781.277	53.47
781.453	52.61
781.63	50.18
781.807	47.76
781.984	47.62
782.16	47.24
782.337	48.23
782.514	48.79
782.691	51.06
782.867	51.78
783.044	52.31
783.221	52.03
783.397	51.57
783.574	51.16
783.75	53.49
783.927	55.6
784.103	54.45
784.28	56.31
784.456	55.5
784.633	54.34
784.809	51.55
784.986	50.22
785.162	48.96
785.339	50.18
785.515	51.22
785.692	50.44
785.868	49.9
786.044	50.48
786.221	47.08
786.397	46.85
786.573	48.16
786.749	49.61
786.926	48.22
787.102	50.6
787.278	49.69
787.454	49.61
787.631	48.57
787.807	46.82
787.983	45.72
788.159	46.32
788.335	47.74
788.511	47.38
788.687	46.68
788.863	47.63
789.039	44.39
789.216	44.81
789.392	45.68
789.568	48.39
789.744	48.12
789.919	49.09
790.095	49.37
790.271	47.09
790.447	45.8
790.623	45.54
790.799	44.71
790.975	46.56
791.151	45.84
791.327	45.09
791.502	43.21
791.678	44.4
791.854	46.12
792.03	46.39
792.205	47.35
792.381	47.9
792.557	49.65
792.733	51.25
792.908	52.1
793.084	51.57
793.259	51.3
793.435	50.67
793.611	50.95
793.786	47
793.962	47.54
794.137	47.79
794.313	48.65
794.488	47.92
794.664	47.84
794.839	47.51
795.015	47.3
795.19	48.94
795.366	50.36
795.541	50.23
795.716	52.55
795.892	53.19
796.067	52.75
796.242	52.66
796.418	52.56
796.593	52.41
796.768	50.25
796.944	52.31
797.119	50.67
797.294	49.26
797.469	47.41
797.644	45.92
797.82	44.83
797.995	45.26
798.17	45.71
798.345	45.04
798.52	44.55
798.695	46.29
798.87	44.36
799.045	45.19
799.22	46.74
799.395	48.58
799.57	48.79
799.745	49.48
799.92	49.8
800.095	49.39
800.27	49.77
800.445	49.11
800.62	47.88
800.795	48.55
800.97	48.65
801.145	47.71
801.319	48.46
801.494	49.49
801.669	50.29
801.844	50.83
802.018	50.52
802.193	49.45
802.368	48.9
802.543	48.85
802.717	48.58
802.892	48.44
803.067	47.75
803.241	47.89
803.416	46.22
803.59	44.66
803.765	43.55
803.94	43.43
804.114	44.32
804.289	45.82
804.463	44.66
804.638	46.11
804.812	44.46
804.986	44.59
805.161	41.84
805.335	43.23
805.51	42.63
805.684	43.22
805.858	42.75
806.033	43.69
806.207	41.55
806.381	43.35
806.556	40.6
806.73	42.6
806.904	43.64
807.078	45.26
807.253	44.37
807.427	46.13
807.601	44.68
807.775	44.97
807.949	45.1
808.123	45.93
808.298	46.3
808.472	48.92
808.646	47.18
808.82	47.06
808.994	47.08
809.168	48.35
809.342	47.23
809.516	47.02
809.69	45.31
809.864	46.41
810.038	45.58
810.212	45.75
810.385	45.58
810.559	45.37
810.733	46.82
810.907	47.8
811.081	45.56
811.255	45.04
811.428	44.64
811.602	46.25
811.776	43.38
811.95	44.48
812.123	43.6
812.297	44.07
812.471	46.05
812.644	42.72
812.818	38.25
812.992	39.94
813.165	39.43
813.339	40.18
813.512	40.44
813.686	39.53
813.86	42.09
814.033	42.21
814.207	41.58
814.38	41.59
814.554	43.32
814.727	47.1
814.9	47.7
815.074	49.12
815.247	49.76
815.421	49.19
815.594	49.1
815.767	46.97
815.941	45.33
816.114	43.51
816.287	41.03
816.46	38.61
816.634	36.6
816.807	34.3
816.98	34.73
817.153	34.76
817.327	34.33
817.5	36.96
817.673	36.89
817.846	40.98
818.019	44.87
818.192	46.92
818.365	46.19
818.538	47.62
818.711	48.77
818.884	48.44
819.057	48.84
819.23	50.05
819.403	46.64
819.576	46.37
819.749	45.63
819.922	42.11
820.095	41.56
820.268	43.11
820.441	43.64
820.614	44.05
820.786	44.7
820.959	45.19
821.132	44.51
821.305	45.2
821.477	44.24
821.65	44
821.823	44.23
821.996	44.92
822.168	45.13
822.341	44.47
822.514	43.82
822.686	43.47
822.859	42.16
823.031	42.49
823.204	42.46
823.376	43.2
823.549	42.53
823.722	42.54
823.894	42.38
824.067	42.06
824.239	41.49
824.411	41.74
824.584	41.39
824.756	41.82
824.929	40.76
825.101	40.88
825.273	39.87
825.446	40.27
825.618	40
825.79	39.67
825.963	40.15
826.135	41.24
826.307	40.78
826.479	41.57
826.652	42.24
826.824	43.18
826.996	42.84
827.168	43.42
827.34	43.37
827.512	43.9
827.684	44.47
827.856	43.42
828.029	42.7
828.201	42.91
828.373	42.45
828.545	41.88
828.717	41.56
828.889	41.16
829.061	41.39
829.232	40.27
829.404	39.09
829.576	37.59
829.748	38.68
829.92	38.93
830.092	39.89
830.264	39.19
830.436	41.32
830.607	40.67
830.779	42.44
830.951	42.49
831.123	42.6
831.294	45.07
831.466	45.91
831.638	46.69
831.809	45.65
831.981	47.02
832.153	47.35
832.324	44.66
832.496	45.43
832.667	44.25
832.839	44.33
833.011	45.37
833.182	43.97
833.354	44.01
833.525	41.8
833.697	41.49
833.868	39.78
834.039	39.86
834.211	38.56
834.382	38.17
834.554	37.93
834.725	37.57
834.896	37.58
835.068	37.58
835.239	38.04
835.41	38.91
835.581	41.14
835.753	41.1
835.924	41.76
836.095	44.88
836.266	44.97
836.438	45.48
836.609	45.62
836.78	45.39
836.951	43.67
837.122	40.72
837.293	42.53
837.464	42.35
837.635	42.79
837.806	42.89
837.977	40.14
838.148	40.49
838.319	41.75
838.49	43.34
838.661	46.38
838.832	49.52
839.003	53.33
839.174	50.36
839.345	48.69
839.516	49.24
839.687	47.09
839.857	45.83
840.028	47.14
840.199	46.79
840.37	45.13
840.54	45.56
840.711	48.81
840.882	50.78
841.053	49.81
841.223	50.52
841.394	52
841.564	54.76
841.735	59.14
841.906	56.38
842.076	53.98
842.247	56.45
842.417	55.98
842.588	53.37
842.758	53.12
842.929	56.04
843.099	55.73
843.27	54.61
843.44	54.76
843.611	51.58
843.781	54.93
843.951	56.54
844.122	54.48
844.292	54.45
844.462	53.05
844.633	50.77
844.803	46.88
844.973	45.69
845.144	44.51
845.314	39.67
845.484	38.47
845.654	39.99
845.824	40.94
845.995	44.08
846.165	43.4
846.335	44.33
846.505	43.01
846.675	50.75
846.845	47.64
847.015	48.4
847.185	49.44
847.355	50.23
847.525	44.43
847.695	45.39
847.865	44.94
848.035	44.52
848.205	42.51
848.375	43.18
848.545	38.68
848.715	41.33
848.884	39.81
849.054	42.72
849.224	39.16
849.394	45.76
849.564	47.13
849.733	40.1
849.903	42.12
850.073	40.32
850.243	45.55
850.412	39.19
850.582	45.4
850.752	45.67
850.921	43.03
851.091	52.01
851.26	47.21
851.43	45.05
851.599	47.67
851.769	42.98
851.939	44.57
852.108	45.79
852.278	48.71
852.447	45.97
852.616	54.05
852.786	55.38
852.955	52.01
853.125	57.09
853.294	55.19
853.463	52.9
853.633	60.83
853.802	57.43
853.971	59.32
854.141	56.91
854.31	54.86
854.479	43.9
854.648	49.05
854.818	59.59
854.987	53.77
855.156	55.06
855.325	56.79
855.494	57.47
855.663	67.75
855.832	54.69
856.001	55.56
856.171	61.16
856.34	55.56
856.509	51.63
856.678	46.58
856.847	43.02
857.016	38.19
857.185	39.99
857.353	34.37
857.522	29.25
857.691	38.77
857.86	36.94
858.029	33.76
858.198	37.14
858.367	39.35
858.535	49.17
858.704	51.14
858.873	63.79
859.042	60.75
859.21	55.6
859.379	56.74
859.548	60.42
859.717	65.26
859.885	65.19
860.054	63.64
860.222	61.89
860.391	50.19
860.56	57.81
860.728	46.1
860.897	57.92
861.065	63.37
861.234	58.36
861.402	50.75
861.571	51.14
861.739	55.3
861.908	60.59
862.076	65.78
862.244	60.75
862.413	59.28
862.581	66.87
862.749	58.31
862.918	53.59
863.086	59.23
863.254	57.11
863.423	61.78
863.591	64.66
863.759	58.97
863.927	58.27
864.096	62.79
864.264	55.47
864.432	54.85
864.6	56.94
864.768	63.88
864.936	57.85
865.104	60.53
865.272	66.08
865.44	67.81
865.608	72.41
865.776	66.05
865.944	71.5
866.112	73.64
866.28	67.81
866.448	67.22
866.616	68.13
866.784	75.05
866.952	76.86
867.12	69.2
867.288	69.31
867.455	67.85
867.623	72.96
867.791	68.09
867.959	68.26
868.127	70.62
868.294	69.19
868.462	58.66
868.63	57.58
868.797	58.06
868.965	51.51
869.133	47.03
869.3	45.89
869.468	51.41
869.636	51
869.803	56.23
869.971	60.17
870.138	62.8
870.306	68.93
870.473	66.54
870.641	62.78
870.808	68.15
870.975	66.46
871.143	66.29
871.31	63.57
871.478	60.33
871.645	57.85
871.812	54.49
871.98	46.63
872.147	43.94
872.314	45.18
872.482	47.98
872.649	44.63
872.816	45.76
872.983	46.96
873.15	39.3
873.318	42.76
873.485	41.4
873.652	45.72
873.819	50.09
873.986	53.64
874.153	52.63
874.32	50.7
874.487	53.9
874.654	55.73
874.821	60.36
874.988	71.04
875.155	71.45
875.322	79.27
875.489	69.5
875.656	75.15
875.823	68.98
875.99	71.89
876.157	67.39
876.324	67.41
876.49	71.71
876.657	65.29
876.824	56.61
876.991	55.15
877.157	51.33
877.324	57.04
877.491	52.16
877.658	58.04
877.824	55.39
877.991	63.33
878.157	63.25
878.324	63.57
878.491	63.27
878.657	64.3
878.824	64.7
878.99	63.01
879.157	61.1
879.323	65.45
879.49	63.5
879.656	64.94
879.823	57.09
879.989	46.95
880.156	39.58
880.322	38.62
880.488	36.4
880.655	31.83
880.821	28.92
880.987	28.12
881.154	29.53
881.32	25.77
881.486	19.23
881.652	21.85
881.819	23.06
881.985	24.72
882.151	29.05
882.317	30.3
882.483	34.2
882.649	36.32
882.816	35.14
882.982	35.55
883.148	38.71
883.314	40.42
883.48	40.48
883.646	42.26
883.812	42.34
883.978	41.31
884.144	42.65
884.31	42.68
884.476	42.19
884.642	44.51
884.807	44.18
884.973	43.15
885.139	43.16
885.305	44.15
885.471	43.27
885.637	43.37
885.802	45.17
885.968	46.09
886.134	46.93
886.3	47.46
886.465	47.11
886.631	46.05
886.797	45.83
886.962	46.56
887.128	46.67
887.293	48.85
887.459	50.59
887.625	52.04
887.79	54.21
887.956	54.16
888.121	55.98
888.287	57.62
888.452	62.49
888.618	65.7
888.783	69.85
