Data from LC_268_Reflection_1.txt Node
Date: Sat Nov 21 11:59:02 EST 2015
User: robert
Spectrometer: USB4E03001
Autoset integration time: false
Trigger mode: 4
Integration Time (sec): 1.000000E-1
Scans to average: 15
Electric dark correction enabled: true
Nonlinearity correction enabled: false
Boxcar width: 5
Stray light correction enabled: false
XAxis mode: Wavelengths
Stop averaging: false
Number of Pixels in Spectrum: 3648
>>>>>Begin Spectral Data<<<<<
177.566	115.17
177.785	97.26
178.005	266.83
178.225	-34.84
178.445	-115.75
178.665	32.94
178.885	-35.57
179.105	81.57
179.324	45.79
179.544	106.94
179.764	401.73
179.984	37.58
180.204	38.41
180.423	54.35
180.643	63.13
180.863	91.21
181.083	111.04
181.302	124.71
181.522	92.17
181.742	78.55
181.961	49.82
182.181	48.84
182.401	81.73
182.621	82.55
182.84	89.1
183.06	87.16
183.279	90.68
183.499	103.61
183.719	99.54
183.938	122.26
184.158	148.63
184.377	165.03
184.597	172.01
184.816	143.08
185.036	163.89
185.256	144.5
185.475	117.73
185.695	101.07
185.914	87.4
186.134	82.31
186.353	81.42
186.572	61.61
186.792	50.33
187.011	55.85
187.231	62.87
187.45	48.09
187.67	50.13
187.889	62.97
188.108	65.79
188.328	47.36
188.547	65.69
188.766	30.18
188.986	63.99
189.205	-53.69
189.424	-295.67
189.644	-228.26
189.863	386.01
190.082	642.46
190.302	-1043.08
190.521	-100.42
190.74	-38.92
190.959	-75.12
191.178	0.44
191.398	1.13
191.617	26.06
191.836	14.11
192.055	16.31
192.274	21.71
192.494	10.95
192.713	6.62
192.932	-0.55
193.151	-8.01
193.37	5.89
193.589	-5.13
193.808	-4.92
194.027	13.76
194.246	32.19
194.465	45.55
194.685	60.29
194.904	63.37
195.123	72.89
195.342	91.17
195.561	106.95
195.78	92.91
195.999	93.41
196.218	94.5
196.436	102.06
196.655	92.71
196.874	75.04
197.093	98.31
197.312	115.78
197.531	129.63
197.75	106.47
197.969	94.53
198.188	89.61
198.407	100.31
198.625	86.29
198.844	84.9
199.063	80.89
199.282	64.8
199.501	65.43
199.719	45.51
199.938	21.76
200.157	13.27
200.376	12.56
200.594	18.73
200.813	10.52
201.032	9.16
201.251	5.5
201.469	-11.16
201.688	13.11
201.907	2.13
202.125	38.24
202.344	40.45
202.563	36.42
202.781	41.39
203	61.34
203.218	43.6
203.437	84.53
203.656	146.33
203.874	169.64
204.093	85.17
204.311	104.17
204.53	128.5
204.748	62.7
204.967	132.56
205.185	91.4
205.404	104.23
205.622	238.13
205.841	140.13
206.059	100.7
206.278	138.76
206.496	120.8
206.715	148.97
206.933	154.85
207.151	170.99
207.37	90.99
207.588	113.22
207.806	84.65
208.025	64.71
208.243	95.05
208.461	87.05
208.68	90.71
208.898	124.52
209.116	81.04
209.335	67.87
209.553	68.27
209.771	106.41
209.989	87.69
210.208	103.05
210.426	117.22
210.644	37.01
210.862	-3.09
211.081	-167.75
211.299	-79.21
211.517	-9.32
211.735	-15.4
211.953	7.24
212.171	-36.25
212.39	-21.47
212.608	-16.3
212.826	-10.89
213.044	0.76
213.262	8.18
213.48	28.02
213.698	27.54
213.916	21.67
214.134	30.02
214.352	20.51
214.57	49.66
214.788	45.44
215.006	59.75
215.224	64.08
215.442	81.15
215.66	105.16
215.878	89.68
216.096	119.55
216.314	105.23
216.532	126.19
216.75	129.65
216.968	149.65
217.185	138.24
217.403	133.13
217.621	134.37
217.839	118.89
218.057	107.6
218.275	102.44
218.492	84.07
218.71	90.71
218.928	102.81
219.146	74.47
219.363	67.51
219.581	66.18
219.799	79.8
220.017	60.27
220.234	50.74
220.452	45.84
220.67	51.15
220.887	44.69
221.105	37.52
221.323	-3.14
221.54	-3.57
221.758	-4.22
221.976	18.12
222.193	-4.04
222.411	12.15
222.629	9.87
222.846	7.73
223.064	13.48
223.281	28.96
223.499	12.4
223.716	33.44
223.934	37.62
224.151	43.11
224.369	27.89
224.586	39.61
224.804	27.37
225.021	31.8
225.239	34.11
225.456	34.88
225.674	30.22
225.891	34.8
226.108	37.24
226.326	32.96
226.543	27.14
226.76	31.25
226.978	28.69
227.195	24.91
227.413	24.64
227.63	24.29
227.847	23.17
228.064	20.49
228.282	19.13
228.499	17.46
228.716	20.02
228.934	18.75
229.151	17.32
229.368	15.42
229.585	16.16
229.802	16.91
230.02	16.24
230.237	16.23
230.454	17.72
230.671	17.92
230.888	15.98
231.105	16.45
231.323	18.72
231.54	17.46
231.757	18.39
231.974	22.73
232.191	23.02
232.408	28.64
232.625	27.87
232.842	25.95
233.059	24.26
233.276	24.54
233.493	25.26
233.71	25.07
233.927	24.97
234.144	26.29
234.361	19.69
234.578	22.72
234.795	19.98
235.012	22.62
235.229	20.89
235.446	20.61
235.663	21.39
235.879	18.06
236.096	19.25
236.313	23.83
236.53	21.43
236.747	26.27
236.964	17.79
237.181	15.75
237.397	11.91
237.614	15.94
237.831	14.9
238.048	13.96
238.264	16.72
238.481	13.38
238.698	10.44
238.915	15.54
239.131	10.55
239.348	14.23
239.565	16.65
239.781	20.41
239.998	18.73
240.215	18.41
240.431	14.71
240.648	13.32
240.865	16.03
241.081	14.77
241.298	12.42
241.514	16.94
241.731	16.03
241.947	15.43
242.164	14.2
242.38	13.09
242.597	15.1
242.814	15.94
243.03	17.09
243.246	16.57
243.463	16.58
243.679	17.84
243.896	16.38
244.112	18.53
244.329	20.3
244.545	19.39
244.762	21.39
244.978	20.58
245.194	20.24
245.411	18.31
245.627	18.42
245.843	17.58
246.06	16.39
246.276	14.76
246.492	13.51
246.709	12.01
246.925	12.76
247.141	11.88
247.357	11.05
247.574	11.22
247.79	10.77
248.006	10.78
248.222	10.47
248.439	10.85
248.655	11.19
248.871	11.54
249.087	11.67
249.303	10.95
249.519	11.97
249.736	14.05
249.952	15.33
250.168	17.05
250.384	17.48
250.6	19.42
250.816	19.03
251.032	20.53
251.248	19.46
251.464	18.89
251.68	20.15
251.896	19.66
252.112	18.01
252.328	17.47
252.544	16.17
252.76	15.67
252.976	15.2
253.192	15.24
253.408	15.15
253.624	14.31
253.84	15.37
254.056	14.24
254.272	12.11
254.487	10.82
254.703	9.56
254.919	11.76
255.135	12.07
255.351	13
255.567	8.7
255.782	8.91
255.998	10.31
256.214	9.51
256.43	12.77
256.646	12.66
256.861	14.48
257.077	15.51
257.293	15.71
257.508	15.5
257.724	15.71
257.94	18.2
258.155	17.16
258.371	17.4
258.587	16.09
258.802	14.28
259.018	14.13
259.234	13.2
259.449	12.32
259.665	11.45
259.88	11.01
260.096	10.93
260.312	11.15
260.527	10.57
260.743	10.13
260.958	10.5
261.174	10.02
261.389	10.22
261.605	10.37
261.82	10.91
262.036	11.45
262.251	11.07
262.466	10.71
262.682	9.8
262.897	9.81
263.113	10.13
263.328	10.5
263.543	11.71
263.759	11.24
263.974	12.21
264.189	12.86
264.405	13.08
264.62	13.8
264.835	13.51
265.051	13.09
265.266	13.76
265.481	13.32
265.696	13.82
265.912	13.51
266.127	14.54
266.342	13.68
266.557	12.34
266.773	10.2
266.988	10.47
267.203	10.78
267.418	10.49
267.633	9.71
267.848	9.58
268.064	8.88
268.279	9.45
268.494	8.82
268.709	9.07
268.924	9.13
269.139	11.23
269.354	10.67
269.569	9.38
269.784	10.07
269.999	10.66
270.214	11.44
270.429	11.81
270.644	9.71
270.859	9.38
271.074	8.33
271.289	7.48
271.504	6.89
271.719	6.65
271.934	7.5
272.149	6.69
272.363	6.9
272.578	5.85
272.793	5.75
273.008	7.74
273.223	7.99
273.438	9.46
273.653	11.36
273.867	11.17
274.082	12.09
274.297	11.59
274.512	12.01
274.726	11.86
274.941	12.34
275.156	12.98
275.371	11.55
275.585	12.75
275.8	11.37
276.015	9.94
276.229	9.46
276.444	9.75
276.659	10.95
276.873	11.05
277.088	11.77
277.302	12.21
277.517	11.89
277.732	12.11
277.946	11.08
278.161	10.81
278.375	11.08
278.59	12.33
278.804	12.59
279.019	11.7
279.233	12.39
279.448	11.75
279.662	12.03
279.877	9.78
280.091	10.56
280.306	10.37
280.52	11.5
280.735	11.32
280.949	9.97
281.163	9.41
281.378	8.96
281.592	8.62
281.806	9.22
282.021	8.72
282.235	9.87
282.449	9.96
282.664	9.3
282.878	8.04
283.092	8.49
283.307	8.93
283.521	8.88
283.735	9.87
283.949	9.48
284.164	7.93
284.378	7.08
284.592	6.42
284.806	6.17
285.02	6.82
285.234	6.85
285.449	5.09
285.663	5.89
285.877	5.32
286.091	5.55
286.305	5.96
286.519	7.47
286.733	8.4
286.947	9.46
287.161	9.3
287.375	9.3
287.589	9.79
287.803	11.1
288.017	10.39
288.231	11.32
288.445	10.85
288.659	11.1
288.873	10.7
289.087	11.67
289.301	11.22
289.515	11.21
289.729	11.96
289.943	11.89
290.157	12.27
290.371	12.53
290.584	13.36
290.798	13.51
291.012	12.6
291.226	12.19
291.44	11.09
291.654	11.57
291.867	11.39
292.081	10.88
292.295	11.4
292.509	11.63
292.722	12.42
292.936	11.46
293.15	11.16
293.364	11.69
293.577	12.44
293.791	12.4
294.005	12.16
294.218	11.48
294.432	10.65
294.645	11.33
294.859	10.68
295.073	9.99
295.286	9.39
295.5	10.04
295.713	9.92
295.927	9.5
296.14	9.81
296.354	9.62
296.568	11.01
296.781	11.45
296.994	11.5
297.208	10.87
297.421	10.98
297.635	10.77
297.848	9.51
298.062	10.04
298.275	10.55
298.489	10.59
298.702	10.59
298.915	9.83
299.129	9.96
299.342	8.81
299.555	9.83
299.769	9.83
299.982	10.61
300.195	12.01
300.409	11.48
300.622	10.87
300.835	11.25
301.048	12.19
301.262	11.44
301.475	11.58
301.688	12.12
301.901	11.79
302.115	11.96
302.328	12.09
302.541	11.87
302.754	12.08
302.967	12.59
303.18	12.05
303.393	11.68
303.607	12.35
303.82	12.28
304.033	11.44
304.246	11.74
304.459	12.07
304.672	12.16
304.885	12.91
305.098	13.46
305.311	13.53
305.524	13.23
305.737	12.31
305.95	11.52
306.163	11.19
306.376	11.47
306.589	10.51
306.802	8.97
307.015	7.73
307.228	6.92
307.44	7.01
307.653	7.03
307.866	7.97
308.079	7.86
308.292	8.71
308.505	9.29
308.718	9.84
308.93	10.53
309.143	10.26
309.356	10.56
309.569	9.79
309.781	9.94
309.994	9.28
310.207	8.61
310.42	8.29
310.632	8.48
310.845	7.96
311.058	7.62
311.27	7.83
311.483	8.65
311.696	8.83
311.908	9.26
312.121	8.08
312.333	8.51
312.546	8.33
312.759	8.99
312.971	8.65
313.184	8.76
313.396	9.66
313.609	8.59
313.821	8.2
314.034	9.04
314.246	9.41
314.459	9.64
314.671	9.02
314.884	10.18
315.096	11.05
315.309	10.32
315.521	9.57
315.733	9.28
315.946	10.29
316.158	9.85
316.371	10
316.583	9.65
316.795	9.78
317.008	11.08
317.22	9.66
317.432	9.65
317.644	10.6
317.857	11.87
318.069	10.67
318.281	10.38
318.494	10.71
318.706	9.41
318.918	9.6
319.13	9.46
319.342	8.76
319.555	9.06
319.767	8
319.979	7.77
320.191	7.76
320.403	8.08
320.615	7.58
320.827	8.12
321.039	8.21
321.252	7.98
321.464	7.89
321.676	6.09
321.888	6.7
322.1	6.88
322.312	7.57
322.524	6.85
322.736	6.44
322.948	7.79
323.16	7.56
323.372	7.91
323.584	8.73
323.796	9.89
324.007	10.55
324.219	10
324.431	10.13
324.643	10.12
324.855	9.45
325.067	10.68
325.279	10.42
325.491	10.63
325.702	10.6
325.914	10.51
326.126	9.3
326.338	8.97
326.55	9.21
326.761	8.64
326.973	8.44
327.185	9.47
327.396	8.3
327.608	7.96
327.82	7.76
328.032	7.39
328.243	6.52
328.455	7.59
328.666	7.92
328.878	8.42
329.09	9.08
329.301	9.8
329.513	9.62
329.725	10.79
329.936	10.9
330.148	10.55
330.359	11.25
330.571	11.96
330.782	11.2
330.994	11.61
331.205	11.84
331.417	11.88
331.628	11.87
331.84	11.79
332.051	11.14
332.262	10.89
332.474	11.55
332.685	11.32
332.897	11.02
333.108	11.03
333.319	10.5
333.531	9.31
333.742	9.42
333.953	8.61
334.165	8.19
334.376	7.75
334.587	8.04
334.799	7.52
335.01	7.64
335.221	8.5
335.432	8.84
335.644	9.78
335.855	11.01
336.066	10.92
336.277	11.72
336.488	11.63
336.7	11.88
336.911	12.26
337.122	12.81
337.333	13.14
337.544	12.66
337.755	12.13
337.966	11.31
338.177	10.27
338.388	10.66
338.599	9.77
338.811	10.12
339.022	9.88
339.233	9.19
339.444	8.73
339.655	8.4
339.866	8.55
340.076	8.93
340.287	9.08
340.498	10.53
340.709	9.92
340.92	10.45
341.131	11.25
341.342	11.14
341.553	11.35
341.764	10.94
341.975	10.54
342.185	9.02
342.396	9.33
342.607	9.31
342.818	7.93
343.029	7.82
343.239	8.27
343.45	6.93
343.661	7.51
343.872	6.72
344.082	7.77
344.293	8.28
344.504	9.47
344.714	9.02
344.925	9.17
345.136	9.88
345.346	10.19
345.557	9.2
345.768	9.88
345.978	9.31
346.189	9.76
346.399	8.43
346.61	8.12
346.821	8.08
347.031	8.05
347.242	7.64
347.452	7.1
347.663	7.05
347.873	7.36
348.084	7.91
348.294	7.94
348.504	8.26
348.715	9.29
348.925	9.05
349.136	8.75
349.346	9.24
349.557	9.46
349.767	9.84
349.977	9.29
350.188	9.2
350.398	7.96
350.608	7.88
350.819	7.55
351.029	6.45
351.239	6.14
351.449	6.19
351.66	5.98
351.87	6.01
352.08	6.32
352.29	5.82
352.501	5.77
352.711	6.85
352.921	6.96
353.131	7.72
353.341	8.01
353.552	7.68
353.762	7.28
353.972	7.25
354.182	7.31
354.392	7.54
354.602	8.13
354.812	8.36
355.022	7.39
355.232	7.58
355.442	6.85
355.652	7.33
355.862	7.74
356.072	7.96
356.282	7.73
356.492	7.9
356.702	6.97
356.912	6.99
357.122	7.27
357.332	7.38
357.542	7.24
357.752	7.38
357.962	7.67
358.171	7.86
358.381	7.97
358.591	7.62
358.801	7.95
359.011	8.63
359.221	8.54
359.43	8.38
359.64	8.67
359.85	8.6
360.06	8.56
360.269	8.45
360.479	8.12
360.689	7.64
360.899	8.3
361.108	7.96
361.318	7.39
361.528	7.57
361.737	7.22
361.947	7.08
362.156	7.3
362.366	7.11
362.576	6.46
362.785	6.03
362.995	6.49
363.204	6.13
363.414	5.77
363.623	6.43
363.833	5.97
364.042	6.35
364.252	6.07
364.461	5.92
364.671	5.86
364.88	6.34
365.09	6.87
365.299	6.87
365.509	6.35
365.718	6.3
365.927	6.13
366.137	6.08
366.346	6.03
366.555	6.24
366.765	6.19
366.974	6.13
367.183	6.27
367.393	6.46
367.602	6.38
367.811	6.83
368.021	6.74
368.23	6.39
368.439	6.41
368.648	6.12
368.857	6.19
369.067	5.82
369.276	6.19
369.485	6.09
369.694	5.99
369.903	5.36
370.112	5.23
370.321	5.93
370.531	5.33
370.74	5.77
370.949	5.79
371.158	5.97
371.367	6.17
371.576	6.22
371.785	5.89
371.994	6.11
372.203	6.33
372.412	6.38
372.621	5.83
372.83	5.98
373.039	5.87
373.248	5.86
373.457	5.61
373.666	5.65
373.874	5.03
374.083	5.81
374.292	5.85
374.501	5.94
374.71	5.88
374.919	6.31
375.128	6.66
375.336	6.4
375.545	6.45
375.754	6.16
375.963	6.22
376.171	6.57
376.38	6.19
376.589	5.79
376.798	5.8
377.006	5.9
377.215	5.84
377.424	5.75
377.632	6.11
377.841	5.98
378.05	6.05
378.258	5.98
378.467	5.94
378.675	5.96
378.884	5.94
379.093	5.84
379.301	5.81
379.51	5.94
379.718	6.14
379.927	6.05
380.135	5.97
380.344	6.33
380.552	5.84
380.761	5.68
380.969	5.66
381.177	5.96
381.386	5.92
381.594	6.07
381.803	5.52
382.011	5.17
382.219	5.3
382.428	5.36
382.636	5.07
382.845	5.77
383.053	5.72
383.261	5.96
383.469	5.28
383.678	5.17
383.886	4.73
384.094	4.94
384.302	4.66
384.511	4.54
384.719	4.28
384.927	4.42
385.135	4.57
385.343	4.46
385.552	4.16
385.76	4.77
385.968	5.18
386.176	5.56
386.384	5.42
386.592	5.65
386.8	5.54
387.008	5.77
387.216	5.79
387.424	5.45
387.633	5.38
387.841	5.38
388.049	5.19
388.257	4.79
388.465	4.62
388.672	4.76
388.88	4.48
389.088	4.17
389.296	3.95
389.504	3.78
389.712	3.44
389.92	3.51
390.128	3.2
390.336	3.18
390.544	3.14
390.751	2.93
390.959	2.9
391.167	3.1
391.375	3.14
391.583	3.32
391.79	3.25
391.998	3.5
392.206	4.02
392.414	3.77
392.621	3.69
392.829	3.78
393.037	3.99
393.244	3.95
393.452	3.82
393.66	4.28
393.867	4.1
394.075	4.47
394.283	4.36
394.49	3.89
394.698	4.31
394.905	4.45
395.113	4.47
395.32	4.55
395.528	4.7
395.735	4.86
395.943	4.51
396.15	4.91
396.358	4.54
396.565	4.66
396.773	4.82
396.98	4.89
397.188	4.89
397.395	4.99
397.602	4.76
397.81	4.88
398.017	4.88
398.225	4.79
398.432	4.47
398.639	4.44
398.847	4.09
399.054	4.06
399.261	4.01
399.468	3.88
399.676	4.04
399.883	4.27
400.09	4.13
400.297	4.1
400.505	4.14
400.712	3.91
400.919	4.01
401.126	4.47
401.333	4.49
401.54	4.52
401.748	4.54
401.955	4.22
402.162	4.17
402.369	4.1
402.576	4.09
402.783	4.13
402.99	3.99
403.197	4.12
403.404	3.94
403.611	3.98
403.818	3.89
404.025	3.59
404.232	3.61
404.439	3.6
404.646	3.49
404.853	3.61
405.06	3.63
405.267	4.15
405.474	3.87
405.681	4.12
405.887	3.88
406.094	3.73
406.301	4.08
406.508	4.07
406.715	3.92
406.922	3.74
407.128	3.67
407.335	3.72
407.542	3.77
407.749	3.84
407.955	3.63
408.162	3.58
408.369	3.86
408.575	3.75
408.782	3.76
408.989	3.83
409.195	4.04
409.402	4.21
409.609	4.11
409.815	3.25
410.022	3.46
410.228	3.63
410.435	3.76
410.642	3.52
410.848	3.65
411.055	3.56
411.261	3.4
411.468	3.45
411.674	3.14
411.881	3.13
412.087	3.58
412.294	3.66
412.5	3.17
412.706	3.15
412.913	3.37
413.119	3.28
413.326	3.66
413.532	3.65
413.738	3.9
413.945	4.02
414.151	4.01
414.357	4.04
414.564	4.14
414.77	4.68
414.976	4.56
415.182	4.44
415.389	4.6
415.595	4.38
415.801	4.48
416.007	4.07
416.214	4.03
416.42	4.05
416.626	4.09
416.832	3.72
417.038	3.56
417.244	3.56
417.45	3.65
417.657	3.49
417.863	3.47
418.069	3.64
418.275	3.84
418.481	3.86
418.687	3.77
418.893	3.56
419.099	3.53
419.305	3.38
419.511	3.46
419.717	3.29
419.923	3.26
420.129	3.26
420.335	3.08
420.541	2.91
420.746	2.8
420.952	2.76
421.158	2.84
421.364	3.04
421.57	3.11
421.776	3.12
421.982	3.09
422.187	3.05
422.393	3.03
422.599	3.04
422.805	3.18
423.01	3.2
423.216	3.36
423.422	3.47
423.628	3.42
423.833	3.38
424.039	3.37
424.245	3.41
424.45	3.5
424.656	3.47
424.862	3.47
425.067	3.48
425.273	3.49
425.478	3.46
425.684	3.43
425.889	3.41
426.095	3.53
426.301	3.53
426.506	3.56
426.712	3.35
426.917	3.33
427.123	3.39
427.328	3.35
427.533	3.53
427.739	3.46
427.944	3.48
428.15	3.34
428.355	3.36
428.561	3.37
428.766	3.4
428.971	3.46
429.177	3.56
429.382	3.75
429.587	3.65
429.793	3.63
429.998	3.72
430.203	3.66
430.408	3.9
430.614	3.67
430.819	3.64
431.024	3.62
431.229	3.66
431.434	3.53
431.64	3.29
431.845	3.23
432.05	3.17
432.255	3.04
432.46	2.92
432.665	2.6
432.87	2.53
433.076	2.54
433.281	2.52
433.486	2.44
433.691	2.45
433.896	2.39
434.101	2.35
434.306	2.29
434.511	2.22
434.716	2.13
434.921	2.15
435.126	2.34
435.331	2.47
435.535	2.48
435.74	2.46
435.945	2.45
436.15	2.42
436.355	2.62
436.56	2.66
436.765	2.75
436.97	2.95
437.174	3.16
437.379	3.07
437.584	2.94
437.789	2.99
437.993	3.2
438.198	3.21
438.403	3.29
438.608	3.15
438.812	3.12
439.017	3.14
439.222	3.04
439.426	2.91
439.631	2.99
439.836	2.86
440.04	2.91
440.245	2.87
440.45	2.88
440.654	2.77
440.859	2.72
441.063	2.7
441.268	2.68
441.472	2.65
441.677	2.7
441.881	2.75
442.086	2.7
442.29	2.61
442.495	2.66
442.699	2.65
442.904	2.74
443.108	2.79
443.312	2.7
443.517	2.84
443.721	3.06
443.925	2.89
444.13	2.72
444.334	2.86
444.538	2.81
444.743	2.74
444.947	2.78
445.151	2.69
445.356	2.64
445.56	2.72
445.764	2.49
445.968	2.32
446.173	2.46
446.377	2.52
446.581	2.56
446.785	2.56
446.989	2.51
447.193	2.45
447.398	2.49
447.602	2.53
447.806	2.47
448.01	2.51
448.214	2.55
448.418	2.45
448.622	2.35
448.826	2.3
449.03	2.29
449.234	2.26
449.438	2.22
449.642	2.18
449.846	2.21
450.05	2.28
450.254	2.36
450.458	2.26
450.662	2.52
450.866	2.43
451.069	2.43
451.273	2.35
451.477	2.37
451.681	2.35
451.885	2.38
452.089	2.35
452.292	2.42
452.496	2.3
452.7	2.38
452.904	2.08
453.107	2.18
453.311	2.11
453.515	2.2
453.719	2.37
453.922	2.49
454.126	2.42
454.33	2.42
454.533	2.34
454.737	2.4
454.94	2.48
455.144	2.81
455.348	2.94
455.551	3.05
455.755	3.2
455.958	3.01
456.162	3.05
456.365	3.1
456.569	3.09
456.772	3.01
456.976	2.91
457.179	2.91
457.383	2.68
457.586	2.64
457.79	2.55
457.993	2.44
458.196	2.51
458.4	2.42
458.603	2.43
458.807	2.41
459.01	2.56
459.213	2.67
459.417	2.7
459.62	2.7
459.823	2.54
460.026	2.65
460.23	2.51
460.433	2.48
460.636	2.39
460.839	2.37
461.042	2.46
461.246	2.27
461.449	2.34
461.652	2.15
461.855	2.17
462.058	2.29
462.261	2.22
462.464	2.42
462.668	2.37
462.871	2.54
463.074	2.57
463.277	2.53
463.48	2.61
463.683	2.46
463.886	2.52
464.089	2.59
464.292	2.58
464.495	2.45
464.698	2.45
464.901	2.54
465.104	2.52
465.306	2.63
465.509	2.46
465.712	2.47
465.915	2.42
466.118	2.48
466.321	2.35
466.524	2.35
466.726	2.46
466.929	2.35
467.132	2.24
467.335	2.29
467.538	2.22
467.74	2.21
467.943	2.2
468.146	2.27
468.348	2.26
468.551	2.23
468.754	2.38
468.956	2.29
469.159	2.29
469.362	2.5
469.564	2.43
469.767	2.52
469.969	2.67
470.172	2.59
470.375	2.55
470.577	2.71
470.78	2.68
470.982	2.56
471.185	2.55
471.387	2.6
471.59	2.44
471.792	2.5
471.995	2.41
472.197	2.43
472.399	2.53
472.602	2.5
472.804	2.26
473.007	2.41
473.209	2.4
473.411	2.53
473.614	2.58
473.816	2.67
474.018	2.49
474.22	2.54
474.423	2.62
474.625	2.59
474.827	2.63
475.03	2.79
475.232	2.8
475.434	2.82
475.636	2.7
475.838	2.74
476.04	2.6
476.243	2.69
476.445	2.69
476.647	2.62
476.849	2.59
477.051	2.64
477.253	2.64
477.455	2.53
477.657	2.4
477.859	2.44
478.061	2.35
478.263	2.42
478.465	2.5
478.667	2.42
478.869	2.37
479.071	2.52
479.273	2.55
479.475	2.41
479.677	2.44
479.879	2.52
480.081	2.68
480.283	2.74
480.485	2.73
480.686	2.68
480.888	2.67
481.09	2.62
481.292	2.51
481.494	2.41
481.695	2.4
481.897	2.41
482.099	2.41
482.301	2.24
482.502	2.21
482.704	2.22
482.906	2.2
483.107	2.17
483.309	2.22
483.511	2.26
483.712	2.23
483.914	2.28
484.115	2.26
484.317	2.31
484.519	2.29
484.72	2.26
484.922	2.24
485.123	2.21
485.325	2.3
485.526	2.28
485.728	2.22
485.929	2.24
486.131	2.23
486.332	2.23
486.534	2.15
486.735	2.15
486.936	2.16
487.138	2.16
487.339	2.21
487.541	2.15
487.742	2.16
487.943	2.25
488.144	2.27
488.346	2.28
488.547	2.28
488.748	2.24
488.95	2.3
489.151	2.32
489.352	2.35
489.553	2.34
489.755	2.3
489.956	2.32
490.157	2.27
490.358	2.22
490.559	2.19
490.76	2.18
490.961	2.25
491.163	2.21
491.364	2.22
491.565	2.24
491.766	2.21
491.967	2.27
492.168	2.22
492.369	2.18
492.57	2.26
492.771	2.23
492.972	2.28
493.173	2.28
493.374	2.29
493.575	2.33
493.776	2.3
493.976	2.34
494.177	2.31
494.378	2.28
494.579	2.47
494.78	2.34
494.981	2.54
495.182	2.38
495.382	2.43
495.583	2.43
495.784	2.32
495.985	2.38
496.185	2.39
496.386	2.34
496.587	2.46
496.788	2.34
496.988	2.32
497.189	2.19
497.39	2.29
497.59	2.26
497.791	2.36
497.992	2.44
498.192	2.41
498.393	2.37
498.593	2.37
498.794	2.27
498.994	2.32
499.195	2.3
499.395	2.45
499.596	2.53
499.796	2.49
499.997	2.48
500.197	2.54
500.398	2.53
500.598	2.5
500.799	2.53
500.999	2.58
501.199	2.65
501.4	2.78
501.6	2.69
501.801	2.72
502.001	2.83
502.201	2.84
502.402	2.77
502.602	2.85
502.802	3.01
503.002	3.14
503.203	3.25
503.403	3.15
503.603	3.28
503.803	3.27
504.003	3.21
504.204	3.21
504.404	3.1
504.604	3.06
504.804	3.19
505.004	3.16
505.204	3.22
505.404	3.08
505.604	3.02
505.804	3.06
506.005	3.07
506.205	3.13
506.405	3.12
506.605	3.27
506.805	3.29
507.005	3.13
507.204	3.19
507.404	3.04
507.604	3.2
507.804	3.16
508.004	3.08
508.204	3.19
508.404	3.13
508.604	3.11
508.804	3.12
509.003	3.17
509.203	3.25
509.403	3.26
509.603	3.32
509.803	3.28
510.002	3.35
510.202	3.23
510.402	3.15
510.602	3.06
510.801	3.12
511.001	3.13
511.201	3.1
511.4	3.07
511.6	2.99
511.8	3.05
511.999	3.07
512.199	3.14
512.398	3.19
512.598	3.36
512.797	3.54
512.997	3.36
513.197	3.42
513.396	3.52
513.596	3.44
513.795	3.47
513.994	3.41
514.194	3.46
514.393	3.44
514.593	3.61
514.792	3.57
514.992	3.54
515.191	3.71
515.39	3.64
515.59	3.73
515.789	3.77
515.988	3.93
516.188	4.02
516.387	4.12
516.586	4.2
516.786	4.24
516.985	4.11
517.184	4.18
517.383	4.2
517.582	4.25
517.782	4.28
517.981	4.4
518.18	4.33
518.379	4.41
518.578	4.29
518.777	4.3
518.976	4.3
519.176	4.43
519.375	4.46
519.574	4.44
519.773	4.45
519.972	4.29
520.171	4.24
520.37	4.22
520.569	4.22
520.768	4.37
520.967	4.41
521.166	4.37
521.365	4.4
521.564	4.48
521.762	4.54
521.961	4.54
522.16	4.72
522.359	4.79
522.558	4.9
522.757	4.78
522.956	4.81
523.154	4.84
523.353	4.9
523.552	4.95
523.751	4.93
523.949	5.04
524.148	5.14
524.347	5.16
524.546	5.13
524.744	5.17
524.943	5.3
525.142	5.29
525.34	5.29
525.539	5.26
525.737	5.24
525.936	5.23
526.135	5.29
526.333	5.21
526.532	5.22
526.73	5.3
526.929	5.3
527.127	5.28
527.326	5.29
527.524	5.31
527.723	5.4
527.921	5.4
528.12	5.39
528.318	5.34
528.516	5.35
528.715	5.35
528.913	5.38
529.112	5.44
529.31	5.45
529.508	5.47
529.707	5.5
529.905	5.48
530.103	5.5
530.301	5.56
530.5	5.62
530.698	5.66
530.896	5.8
531.094	5.75
531.293	5.75
531.491	5.84
531.689	5.85
531.887	5.95
532.085	6.06
532.283	6.1
532.481	6.03
532.68	6.16
532.878	6.29
533.076	6.19
533.274	6.28
533.472	6.31
533.67	6.25
533.868	6.32
534.066	6.27
534.264	6.21
534.462	6.18
534.66	6.25
534.858	6.1
535.056	6.05
535.253	6.12
535.451	6.11
535.649	6.08
535.847	6.24
536.045	6.36
536.243	6.53
536.441	6.63
536.638	6.83
536.836	6.84
537.034	6.98
537.232	7.01
537.43	6.99
537.627	7.07
537.825	7.18
538.023	7.11
538.22	7.04
538.418	6.91
538.616	6.97
538.813	7.01
539.011	7.13
539.209	7.08
539.406	7.28
539.604	7.57
539.801	7.62
539.999	7.73
540.196	7.77
540.394	7.78
540.591	7.8
540.789	7.75
540.986	7.66
541.184	7.64
541.381	7.66
541.579	7.6
541.776	7.5
541.974	7.5
542.171	7.5
542.368	7.52
542.566	7.58
542.763	7.67
542.96	7.76
543.158	7.82
543.355	7.99
543.552	8.12
543.75	8.21
543.947	8.33
544.144	8.48
544.341	8.51
544.539	8.65
544.736	8.66
544.933	8.67
545.13	8.7
545.327	8.81
545.524	8.74
545.722	8.73
545.919	8.81
546.116	8.82
546.313	8.78
546.51	8.89
546.707	8.91
546.904	9.06
547.101	9.14
547.298	9.26
547.495	9.27
547.692	9.25
547.889	9.35
548.086	9.31
548.283	9.31
548.48	9.4
548.677	9.36
548.874	9.4
549.07	9.38
549.267	9.37
549.464	9.34
549.661	9.45
549.858	9.53
550.055	9.44
550.251	9.52
550.448	9.57
550.645	9.68
550.842	9.74
551.038	9.64
551.235	9.62
551.432	9.75
551.628	9.76
551.825	9.73
552.022	9.86
552.218	10.05
552.415	10.12
552.612	10.31
552.808	10.25
553.005	10.21
553.201	10.37
553.398	10.34
553.594	10.45
553.791	10.68
553.987	10.8
554.184	10.87
554.38	11.05
554.577	11.13
554.773	10.98
554.97	11.23
555.166	11.51
555.362	11.46
555.559	11.65
555.755	11.58
555.952	11.57
556.148	11.71
556.344	11.72
556.541	11.62
556.737	11.62
556.933	11.85
557.129	11.66
557.326	11.66
557.522	11.97
557.718	12.01
557.914	12.1
558.11	12.12
558.307	12.06
558.503	12.11
558.699	12.3
558.895	12.32
559.091	12.4
559.287	12.56
559.483	12.51
559.679	12.66
559.876	12.91
560.072	12.93
560.268	12.84
560.464	13.13
560.66	13.32
560.856	13.37
561.052	13.56
561.247	13.68
561.443	13.71
561.639	13.86
561.835	13.87
562.031	13.69
562.227	13.61
562.423	13.67
562.619	13.65
562.815	13.83
563.01	13.78
563.206	13.94
563.402	13.97
563.598	14.16
563.793	14.05
563.989	14.06
564.185	14.25
564.381	14.52
564.576	14.72
564.772	14.75
564.968	14.7
565.163	14.72
565.359	14.72
565.555	14.64
565.75	14.56
565.946	14.87
566.141	14.84
566.337	14.84
566.532	14.86
566.728	14.74
566.923	14.72
567.119	14.68
567.314	14.73
567.51	14.66
567.705	14.88
567.901	14.92
568.096	14.82
568.292	14.96
568.487	15
568.682	14.98
568.878	15.23
569.073	15.3
569.268	15.38
569.464	15.34
569.659	15.59
569.854	15.7
570.05	15.81
570.245	15.87
570.44	15.69
570.635	15.84
570.831	15.86
571.026	15.91
571.221	15.91
571.416	16.07
571.611	16.24
571.806	16.28
572.002	16.26
572.197	16.36
572.392	16.4
572.587	16.64
572.782	16.8
572.977	16.94
573.172	16.86
573.367	16.95
573.562	16.79
573.757	16.85
573.952	16.87
574.147	16.83
574.342	16.96
574.537	17.05
574.732	17.04
574.927	16.95
575.121	16.9
575.316	17.01
575.511	17.11
575.706	17.16
575.901	17
576.096	17.02
576.29	17.1
576.485	16.98
576.68	16.98
576.875	16.92
577.069	16.97
577.264	17.21
577.459	17.25
577.654	17.21
577.848	17.3
578.043	17.66
578.238	17.71
578.432	17.7
578.627	17.8
578.821	17.84
579.016	18.08
579.21	17.9
579.405	17.85
579.6	18.12
579.794	18.2
579.989	18.35
580.183	18.35
580.378	18.38
580.572	18.7
580.766	18.75
580.961	18.59
581.155	18.72
581.35	19.17
581.544	19.29
581.738	19.13
581.933	19.18
582.127	19.19
582.321	19.05
582.516	19.22
582.71	18.88
582.904	19.17
583.099	19.41
583.293	19.43
583.487	19.49
583.681	19.48
583.875	19.69
584.07	19.73
584.264	19.93
584.458	20.18
584.652	20.06
584.846	20.42
585.04	20.31
585.234	20.45
585.428	20.4
585.623	20.35
585.817	20.47
586.011	20.45
586.205	20.49
586.399	20.5
586.593	20.46
586.787	20.54
586.981	20.69
587.174	20.59
587.368	20.45
587.562	20.33
587.756	20.19
587.95	20.29
588.144	20.32
588.338	20.35
588.532	20.34
588.725	20.53
588.919	20.65
589.113	20.39
589.307	20.64
589.501	20.87
589.694	21.11
589.888	21.27
590.082	21.1
590.275	20.97
590.469	21.25
590.663	21.22
590.856	21.25
591.05	21.24
591.244	21.44
591.437	21.48
591.631	21.33
591.824	21.25
592.018	21.29
592.212	21.46
592.405	21.45
592.599	21.24
592.792	21.35
592.986	21.12
593.179	21.02
593.372	21.1
593.566	20.95
593.759	21.24
593.953	21.46
594.146	21.35
594.339	21.3
594.533	21.61
594.726	21.71
594.92	21.81
595.113	22.01
595.306	22.17
595.499	22.09
595.693	22.1
595.886	21.96
596.079	21.8
596.272	22.04
596.466	22.21
596.659	22.15
596.852	22.19
597.045	21.99
597.238	22
597.431	22.09
597.624	22.16
597.818	22.23
598.011	22.46
598.204	22.51
598.397	22.48
598.59	22.39
598.783	22.35
598.976	22.21
599.169	22.42
599.362	22.52
599.555	22.45
599.748	22.46
599.941	22.69
600.134	22.54
600.326	22.83
600.519	22.92
600.712	22.96
600.905	23.02
601.098	23.15
601.291	23.25
601.483	22.96
601.676	22.83
601.869	22.89
602.062	22.91
602.255	22.97
602.447	23
602.64	22.97
602.833	23.05
603.025	23.22
603.218	23.43
603.411	23.37
603.603	23.51
603.796	23.59
603.989	23.51
604.181	23.57
604.374	23.61
604.566	23.66
604.759	23.48
604.951	23.29
605.144	23.18
605.336	23.26
605.529	23.32
605.721	23.42
605.914	23.55
606.106	23.69
606.299	23.61
606.491	23.55
606.683	23.55
606.876	23.84
607.068	23.99
607.26	24.07
607.453	24.02
607.645	24.04
607.837	24.19
608.03	24.09
608.222	24.3
608.414	24.38
608.606	24.43
608.799	24.2
608.991	24.26
609.183	24.39
609.375	24.56
609.567	24.55
609.759	24.66
609.952	24.68
610.144	24.75
610.336	24.61
610.528	24.47
610.72	24.43
610.912	24.49
611.104	24.42
611.296	24.56
611.488	24.57
611.68	24.24
611.872	24.17
612.064	23.97
612.256	23.95
612.448	24.04
612.64	24.17
612.832	24.39
613.023	24.87
613.215	24.91
613.407	25.14
613.599	24.93
613.791	25.47
613.983	25.42
614.174	25.48
614.366	25.73
614.558	25.7
614.75	25.65
614.941	25.69
615.133	25.39
615.325	25.59
615.516	25.35
615.708	25.48
615.9	25.38
616.091	25.35
616.283	25.23
616.475	25.42
616.666	25.31
616.858	25.46
617.049	25.39
617.241	25.34
617.432	25.23
617.624	25.38
617.815	25.42
618.007	25.36
618.198	25.7
618.39	26.1
618.581	25.94
618.773	26.04
618.964	26.15
619.155	26.27
619.347	26.12
619.538	25.99
619.729	25.91
619.921	26.06
620.112	26.23
620.303	26.11
620.494	26.02
620.686	26.07
620.877	26.08
621.068	25.71
621.259	25.64
621.451	25.69
621.642	25.89
621.833	25.77
622.024	25.83
622.215	25.75
622.406	25.53
622.597	25.62
622.788	25.72
622.98	25.95
623.171	26.1
623.362	26.44
623.553	26.74
623.744	26.87
623.935	26.92
624.126	26.89
624.317	27.1
624.508	27.29
624.698	27.21
624.889	27.08
625.08	27.08
625.271	27.42
625.462	27.15
625.653	27.26
625.844	26.97
626.034	26.94
626.225	27.34
626.416	27.24
626.607	27.25
626.798	27.51
626.988	27.68
627.179	27.75
627.37	27.6
627.56	27.63
627.751	27.66
627.942	27.74
628.132	27.88
628.323	27.65
628.514	27.76
628.704	27.94
628.895	27.66
629.085	27.48
629.276	27.35
629.466	27.19
629.657	27.29
629.847	27.12
630.038	27.32
630.228	27.3
630.419	27.31
630.609	27.19
630.8	27.2
630.99	27.38
631.181	27.46
631.371	27.64
631.561	28.19
631.752	28.22
631.942	28.29
632.132	28.41
632.323	28.55
632.513	28.57
632.703	28.63
632.893	28.45
633.084	28.4
633.274	28.38
633.464	28.14
633.654	27.87
633.844	27.96
634.034	27.96
634.225	27.77
634.415	27.59
634.605	27.64
634.795	27.62
634.985	27.65
635.175	27.51
635.365	27.62
635.555	27.7
635.745	27.83
635.935	27.8
636.125	27.89
636.315	27.93
636.505	28.03
636.695	27.7
636.885	27.6
637.075	27.33
637.265	27.81
637.455	27.64
637.644	27.75
637.834	27.7
638.024	27.76
638.214	28.05
638.404	27.87
638.593	27.86
638.783	28.17
638.973	28.37
639.163	28.91
639.352	28.81
639.542	29.03
639.732	29.02
639.921	28.99
640.111	28.86
640.301	28.68
640.49	29.02
640.68	28.99
640.87	29.02
641.059	29.08
641.249	29.22
641.438	28.72
641.628	28.6
641.817	28.83
642.007	28.86
642.196	28.72
642.386	28.82
642.575	28.7
642.764	29.12
642.954	29.22
643.143	29.25
643.333	29.05
643.522	29.78
643.711	29.88
643.901	30.02
644.09	30.42
644.279	30.85
644.469	30.74
644.658	31.05
644.847	31.05
645.036	31
645.226	31.28
645.415	31.49
645.604	31.23
645.793	31.18
645.982	31.19
646.171	30.96
646.361	30.73
646.55	30.89
646.739	30.57
646.928	30.47
647.117	30.59
647.306	30.42
647.495	30.19
647.684	30.4
647.873	30.38
648.062	30.18
648.251	29.72
648.44	29.94
648.629	29.89
648.818	29.87
649.007	30.03
649.196	30.06
649.384	30.07
649.573	30.07
649.762	29.73
649.951	30
650.14	29.58
650.328	30.07
650.517	29.96
650.706	30.04
650.895	30.37
651.083	30.13
651.272	29.92
651.461	29.82
651.65	30.33
651.838	30.45
652.027	30.2
652.216	30.44
652.404	30.37
652.593	30.45
652.781	30.53
652.97	30.35
653.158	30.51
653.347	30.37
653.535	30.52
653.724	30.02
653.912	30.17
654.101	30.4
654.289	30.62
654.478	30.39
654.666	30.48
654.855	30.58
655.043	30.49
655.231	30.88
655.42	31.08
655.608	30.84
655.796	31.19
655.985	30.97
656.173	30.91
656.361	30.98
656.55	31.22
656.738	31.19
656.926	30.91
657.114	31.22
657.302	31.11
657.491	31
657.679	31.23
657.867	31.12
658.055	31.47
658.243	31.4
658.431	31.39
658.619	31.53
658.807	31.7
658.996	31.81
659.184	32.03
659.372	32.21
659.56	32.26
659.748	32.49
659.936	32.68
660.124	32.74
660.311	32.92
660.499	33.15
660.687	33.28
660.875	33.21
661.063	33.23
661.251	32.93
661.439	32.68
661.627	32.76
661.814	32.39
662.002	32.25
662.19	31.79
662.378	32.03
662.565	31.88
662.753	31.63
662.941	31.78
663.129	31.96
663.316	31.95
663.504	31.49
663.692	31.35
663.879	31.76
664.067	31.89
664.254	32.21
664.442	32.08
664.63	31.96
664.817	31.76
665.005	31.49
665.192	31.06
665.38	31.57
665.567	31.42
665.755	31.82
665.942	31.99
666.13	32.15
666.317	32.27
666.504	32.41
666.692	32.63
666.879	32.88
667.067	33.19
667.254	33.22
667.441	32.61
667.629	32.7
667.816	32.27
668.003	31.61
668.19	31.22
668.378	31.08
668.565	30.83
668.752	30.78
668.939	30.96
669.127	30.96
669.314	31.15
669.501	31.5
669.688	31.97
669.875	32.28
670.062	32.64
670.249	32.78
670.436	33.31
670.623	33.29
670.81	33.3
670.997	32.85
671.184	32.64
671.371	32.96
671.558	33.12
671.745	33.15
671.932	33.28
672.119	33.34
672.306	33.32
672.493	33.2
672.68	33.3
672.867	33.49
673.054	33.9
673.24	33.76
673.427	33.62
673.614	33.76
673.801	33.84
673.988	33.47
674.174	33.76
674.361	34.03
674.548	33.43
674.734	33.37
674.921	33.29
675.108	33.32
675.294	33.65
675.481	33.39
675.668	33.29
675.854	33.45
676.041	33.76
676.227	33.1
676.414	32.95
676.601	33.63
676.787	33.97
676.974	33.91
677.16	33.83
677.347	33.91
677.533	33.99
677.719	33.77
677.906	33.69
678.092	33.36
678.279	33.47
678.465	33.28
678.651	32.83
678.838	32.89
679.024	32.99
679.21	32.95
679.397	33.08
679.583	33.13
679.769	33.42
679.955	33.35
680.142	33.49
680.328	33.83
680.514	34.51
680.7	34.41
680.886	34.31
681.073	34.18
681.259	34.76
681.445	34.49
681.631	34.39
681.817	34.11
682.003	34.26
682.189	34.24
682.375	34.24
682.561	33.63
682.747	33.73
682.933	33.3
683.119	33.39
683.305	32.87
683.491	33.25
683.677	33.74
683.863	33.87
684.049	34.06
684.235	34.33
684.42	34.18
684.606	34.05
684.792	34.22
684.978	35.07
685.164	35.01
685.349	35.09
685.535	34.85
685.721	34.39
685.907	34.27
686.092	34.25
686.278	34.09
686.464	34.12
686.649	34.39
686.835	34.27
687.021	34.17
687.206	34.52
687.392	34.49
687.577	34.47
687.763	34.85
687.948	35.03
688.134	35.2
688.319	35.32
688.505	35.83
688.69	35.8
688.876	35.75
689.061	35.61
689.247	35.68
689.432	35.61
689.618	35.97
689.803	35.95
689.988	35.77
690.174	35.31
690.359	35.36
690.544	34.82
690.73	34.49
690.915	34.84
691.1	34.55
691.285	34.41
691.471	34.47
691.656	34.41
691.841	34.15
692.026	34.34
692.211	34.33
692.396	34.46
692.582	34.67
692.767	34.99
692.952	35.14
693.137	35.58
693.322	35.29
693.507	35.6
693.692	35.35
693.877	35.28
694.062	35.32
694.247	36.05
694.432	35.91
694.617	36
694.802	36.38
694.987	36.15
695.172	35.92
695.357	35.7
695.541	35.6
695.726	35.5
695.911	36.06
696.096	35.56
696.281	34.66
696.466	34.34
696.65	34.16
696.835	33.73
697.02	33.78
697.204	33.98
697.389	34.52
697.574	34.71
697.759	34.53
697.943	33.94
698.128	34.2
698.312	34.13
698.497	34.22
698.682	34.28
698.866	34.46
699.051	34.37
699.235	34.04
699.42	34.02
699.604	34.04
699.789	34.58
699.973	34.78
700.158	34.81
700.342	35.2
700.527	35.37
700.711	35.26
700.895	35.48
701.08	35.47
701.264	35.51
701.448	34.96
701.633	34.56
701.817	34.07
702.001	34.42
702.186	34.55
702.37	33.95
702.554	33.75
702.738	34.23
702.923	34.25
703.107	33.96
703.291	34.46
703.475	34.72
703.659	34.88
703.843	35.49
704.027	34.97
704.212	35.04
704.396	35.91
704.58	36.16
704.764	35.93
704.948	35.53
705.132	35.69
705.316	35.83
705.5	36.77
705.684	37.39
705.868	36.59
706.052	37.1
706.235	37.15
706.419	36.86
706.603	37.07
706.787	36.46
706.971	37.15
707.155	37.28
707.339	37
707.522	36.18
707.706	35.5
707.89	35.85
708.074	35.43
708.257	35.29
708.441	35.52
708.625	35.77
708.808	36.41
708.992	35.51
709.176	35.36
709.359	35.87
709.543	36.22
709.727	36.4
709.91	36.4
710.094	36.89
710.277	37.46
710.461	36.91
710.644	37.2
710.828	37.08
711.011	37.07
711.195	37.19
711.378	36.67
711.562	36.43
711.745	36.66
711.928	36.42
712.112	36.12
712.295	35.55
712.478	35.9
712.662	35.11
712.845	34.83
713.028	34.98
713.212	35.45
713.395	35.34
713.578	35.53
713.761	35.31
713.945	35.49
714.128	35.8
714.311	36.06
714.494	36.29
714.677	36.82
714.86	37.14
715.043	36.99
715.227	36.63
715.41	36.86
715.593	37.01
715.776	37.23
715.959	36.91
716.142	36.89
716.325	36.96
716.508	36.97
716.691	37.16
716.874	37.51
717.057	38.1
717.239	38.27
717.422	38.04
717.605	37.87
717.788	37.47
717.971	38.16
718.154	37.95
718.337	37.71
718.519	37.53
718.702	36.96
718.885	37.03
719.068	37.38
719.25	37.21
719.433	37.57
719.616	37.58
719.798	37.47
719.981	37.08
720.164	36.85
720.346	37.05
720.529	36.65
720.712	36.31
720.894	35.92
721.077	35.83
721.259	35.71
721.442	35.57
721.624	36.04
721.807	36.64
721.989	36.58
722.172	37.16
722.354	36.95
722.537	37.42
722.719	37.99
722.901	37.17
723.084	36.61
723.266	36.96
723.448	37.57
723.631	37.44
723.813	37.23
723.995	37.26
724.178	36.73
724.36	36.52
724.542	36.31
724.724	36.62
724.907	37.41
725.089	37.32
725.271	37.03
725.453	36.51
725.635	36.61
725.817	37.22
725.999	37.21
726.181	37.78
726.364	37.48
726.546	37.71
726.728	37.74
726.91	38.11
727.092	38.82
727.274	38.7
727.456	39.7
727.638	39.5
727.819	39.57
728.001	39.69
728.183	39.23
728.365	40.2
728.547	39.65
728.729	39.26
728.911	39.45
729.093	38.7
729.274	39.47
729.456	38.34
729.638	38.23
729.82	37.45
730.001	37.4
730.183	37.97
730.365	37.14
730.546	37.29
730.728	37.67
730.91	36.96
731.091	37.48
731.273	37.51
731.455	37.35
731.636	37.82
731.818	37.72
731.999	37.83
732.181	36.84
732.362	37.36
732.544	38.6
732.725	38.14
732.907	37.97
733.088	38.26
733.27	37.69
733.451	37.9
733.633	37.8
733.814	37.64
733.995	37.55
734.177	37.78
734.358	37.42
734.539	36.54
734.721	36.35
734.902	37.51
735.083	37.33
735.264	37.86
735.446	38.82
735.627	38.61
735.808	38.64
735.989	38.75
736.17	39.53
736.351	40.32
736.533	39.92
736.714	40.93
736.895	39.77
737.076	39.79
737.257	39.68
737.438	38.62
737.619	38.36
737.8	39.1
737.981	39.89
738.162	39.41
738.343	38.75
738.524	39.02
738.705	37.97
738.886	37.97
739.067	37.47
739.247	37.45
739.428	37.24
739.609	37.33
739.79	36.92
739.971	36
740.151	36.53
740.332	37.22
740.513	37.49
740.694	37.88
740.874	38.18
741.055	38.63
741.236	38.92
741.417	39.52
741.597	39.41
741.778	39.33
741.958	39.03
742.139	38.84
742.32	38.26
742.5	38.24
742.681	37.83
742.861	37.98
743.042	37.77
743.222	37.12
743.403	36.85
743.583	36.86
743.764	37.04
743.944	37.6
744.124	36.96
744.305	37.8
744.485	37.87
744.666	37.94
744.846	38.49
745.026	38.16
745.207	38.37
745.387	39.66
745.567	39.54
745.747	40.04
745.928	40.06
746.108	41.03
746.288	39.34
746.468	39.36
746.648	40.49
746.829	40.32
747.009	40.43
747.189	40.02
747.369	39.15
747.549	39.75
747.729	39.23
747.909	38.67
748.089	38.95
748.269	39.94
748.449	39.55
748.629	38.97
748.809	38.01
748.989	38.44
749.169	38.59
749.349	37.28
749.529	37.31
749.709	36.99
749.889	37.13
750.068	37.22
750.248	37.43
750.428	38.62
750.608	37.96
750.788	39.21
750.967	38.87
751.147	39.56
751.327	41.5
751.507	41.39
751.686	41.71
751.866	41.84
752.046	40.61
752.225	39.82
752.405	39.17
752.585	39.51
752.764	39.51
752.944	40.12
753.123	40.23
753.303	39.38
753.482	39.29
753.662	40.1
753.841	40.17
754.021	40.89
754.2	40.79
754.38	40.51
754.559	41.7
754.739	41.24
754.918	39.51
755.097	38.29
755.277	38.42
755.456	38.85
755.635	38.41
755.815	39.38
755.994	38.64
756.173	39.29
756.352	39.4
756.532	38.6
756.711	38.2
756.89	39.72
757.069	40.03
757.248	40.07
757.427	39.32
757.607	38.51
757.786	37.84
757.965	38.47
758.144	37.68
758.323	37.23
758.502	37.18
758.681	37.35
758.86	37.34
759.039	37.66
759.218	36.6
759.397	36.26
759.576	36.22
759.755	36.64
759.934	35.92
760.113	36.91
760.291	37.02
760.47	36.31
760.649	35.87
760.828	35.81
761.007	35.59
761.186	36.84
761.364	37.69
761.543	38.03
761.722	38.03
761.901	37.86
762.079	37.75
762.258	38.09
762.437	38.22
762.615	38.62
762.794	38.95
762.972	39.12
763.151	38.71
763.33	38.13
763.508	38.4
763.687	38.35
763.865	39.42
764.044	39.16
764.222	39.38
764.401	40.17
764.579	39.81
764.758	39.01
764.936	39.15
765.114	39.32
765.293	39.59
765.471	39.24
765.65	38.71
765.828	38.06
766.006	38.56
766.184	38.66
766.363	38.33
766.541	38.93
766.719	39.49
766.898	39.55
767.076	40.51
767.254	40.68
767.432	41.27
767.61	41.75
767.788	41.18
767.967	40.47
768.145	39.71
768.323	39.25
768.501	39
768.679	38.77
768.857	38.57
769.035	37.32
769.213	38.17
769.391	38.21
769.569	38.39
769.747	39.55
769.925	41.18
770.103	42.16
770.281	41.78
770.459	41.58
770.636	41.58
770.814	40.81
770.992	41.28
771.17	40.67
771.348	40.27
771.525	39.99
771.703	39.13
771.881	37.42
772.059	36.55
772.236	38.5
772.414	38.26
772.592	38.33
772.769	39.99
772.947	40.43
773.125	40.07
773.302	39.66
773.48	38.72
773.657	38.62
773.835	39.48
774.013	39.48
774.19	37.77
774.368	39.28
774.545	40.12
774.723	39.95
774.9	38.77
775.077	38.63
775.255	37.78
775.432	39.55
775.61	40.36
775.787	39.69
775.964	39.85
776.142	39.93
776.319	39.93
776.496	38.71
776.674	38.98
776.851	39.55
777.028	41.09
777.205	42.46
777.382	42.03
777.56	42.4
777.737	42.37
777.914	41.78
778.091	40.99
778.268	39.55
778.445	40.03
778.622	38.03
778.8	38.67
778.977	37.68
779.154	45.15
779.331	44.91
779.508	44.53
779.685	43.96
779.862	44.5
780.038	43.87
780.215	43.64
780.392	43.62
780.569	44.04
780.746	44.03
780.923	44.19
781.1	36.7
781.277	37.25
781.453	37.29
781.63	37.96
781.807	36.38
781.984	37.32
782.16	37.66
782.337	36.4
782.514	36.69
782.691	37.01
782.867	37.27
783.044	37.39
783.221	37.26
783.397	39.03
783.574	37.34
783.75	39.31
783.927	39.79
784.103	42.09
784.28	44.82
784.456	45.02
784.633	43.72
784.809	42.09
784.986	41.52
785.162	41.37
785.339	40.67
785.515	43.43
785.692	43.63
785.868	44.25
786.044	42.22
786.221	41.02
786.397	40.36
786.573	41.19
786.749	41.3
786.926	40.4
787.102	42.68
787.278	42.67
787.454	41.59
787.631	41.14
787.807	40.49
787.983	40.04
788.159	41.38
788.335	42.01
788.511	42.73
788.687	44.3
788.863	45.93
789.039	43.53
789.216	42.06
789.392	42.28
789.568	43.75
789.744	44.51
789.919	46.05
790.095	44.73
790.271	44.41
790.447	40.51
790.623	38.76
790.799	38
790.975	37.77
791.151	37.73
791.327	38.41
791.502	36.78
791.678	35.98
791.854	35.26
792.03	33.29
792.205	34.16
792.381	35.74
792.557	36.36
792.733	36.26
792.908	37.02
793.084	36.37
793.259	34.63
793.435	34.91
793.611	35.8
793.786	35.88
793.962	38.89
794.137	38.43
794.313	38.94
794.488	38.19
794.664	39.66
794.839	38.83
795.015	40.19
795.19	42.5
795.366	41.87
795.541	43.89
795.716	43.95
795.892	43.95
796.067	44
796.242	45.08
796.418	45.48
796.593	45.7
796.768	45.8
796.944	46.71
797.119	45.04
797.294	45.79
797.469	44.53
797.644	42.52
797.82	41.78
797.995	41.84
798.17	41.47
798.345	41.46
798.52	40.19
798.695	39.36
798.87	39.01
799.045	38.21
799.22	38.51
799.395	37.4
799.57	38.2
799.745	37.83
799.92	37.93
800.095	37.16
800.27	36.72
800.445	36.45
800.62	37.14
800.795	36.11
800.97	36.89
801.145	36.04
801.319	37.34
801.494	37.97
801.669	36.81
801.844	34.81
802.018	37.03
802.193	37.06
802.368	36.18
802.543	36.37
802.717	38.52
802.892	37.78
803.067	39.29
803.241	37.97
803.416	38.94
803.59	40.34
803.765	43.17
803.94	40.18
804.114	43.2
804.289	45.25
804.463	44.02
804.638	41.86
804.812	43.13
804.986	41.42
805.161	43.38
805.335	42.84
805.51	44.65
805.684	43.3
805.858	45.2
806.033	41.97
806.207	39.51
806.381	39.03
806.556	38.09
806.73	37.74
806.904	39.09
807.078	37.7
807.253	38.03
807.427	35.96
807.601	36.75
807.775	37.45
807.949	38.3
808.123	40.11
808.298	42.82
808.472	43.41
808.646	45.34
808.82	45.8
808.994	45
809.168	44.77
809.342	44.59
809.516	42.03
809.69	40.63
809.864	41.36
810.038	40.15
810.212	39.71
810.385	40.65
810.559	37.27
810.733	37.75
810.907	39.27
811.081	36.53
811.255	36.49
811.428	39.07
811.602	38.17
811.776	37.68
811.95	39.62
812.123	39.71
812.297	41.52
812.471	44.38
812.644	42.9
812.818	42.15
812.992	44.47
813.165	44.27
813.339	42.38
813.512	45.33
813.686	46.27
813.86	46.17
814.033	47.51
814.207	44.11
814.38	42.98
814.554	43.87
814.727	42.8
814.9	40.69
815.074	41.44
815.247	41.22
815.421	37.65
815.594	35.79
815.767	36.27
815.941	33.68
816.114	35.44
816.287	35.45
816.46	32.53
816.634	33
816.807	34.75
816.98	34.58
817.153	35.96
817.327	36.68
817.5	36.88
817.673	36.85
817.846	36.39
818.019	34.39
818.192	34.06
818.365	33.83
818.538	34.73
818.711	34.07
818.884	36.06
819.057	35.32
819.23	36.83
819.403	37.19
819.576	35.68
819.749	38.64
819.922	39.99
820.095	40.66
820.268	43.55
820.441	44.01
820.614	43.78
820.786	42.43
820.959	43.93
821.132	41.82
821.305	41.22
821.477	41.98
821.65	40.96
821.823	41.42
821.996	41.13
822.168	41.48
822.341	40.43
822.514	40.6
822.686	40.64
822.859	39.98
823.031	40.91
823.204	41.86
823.376	41.74
823.549	41.26
823.722	40.84
823.894	41.49
824.067	41.04
824.239	41.86
824.411	41.72
824.584	42.01
824.756	42.64
824.929	41.96
825.101	41.89
825.273	41.39
825.446	42.17
825.618	41.88
825.79	41.05
825.963	41.51
826.135	40.95
826.307	41.38
826.479	41.57
826.652	41.1
826.824	41.57
826.996	41.82
827.168	42.88
827.34	42.63
827.512	42.8
827.684	43.07
827.856	42.42
828.029	43.12
828.201	43.73
828.373	43.29
828.545	42.86
828.717	43.14
828.889	41.86
829.061	41.05
829.232	41
829.404	41.41
829.576	41.74
829.748	41.23
829.92	41.15
830.092	41.81
830.264	41.94
830.436	43.32
830.607	41.85
830.779	41.88
830.951	42.6
831.123	41.92
831.294	43.57
831.466	42.6
831.638	44.41
831.809	42.75
831.981	41.6
832.153	41.46
832.324	40.46
832.496	42.14
832.667	44.05
832.839	42.74
833.011	43.26
833.182	41.72
833.354	42.37
833.525	42.45
833.697	42.28
833.868	39.76
834.039	39.81
834.211	39.71
834.382	39.04
834.554	37.1
834.725	37.03
834.896	37.22
835.068	38.34
835.239	38.93
835.41	38.44
835.581	38.72
835.753	39.65
835.924	39.98
836.095	41.75
836.266	41.27
836.438	42.89
836.609	45.1
836.78	45.42
836.951	44.09
837.122	44.55
837.293	45.97
837.464	47.81
837.635	47.1
837.806	48.75
837.977	47.75
838.148	48.77
838.319	48.91
838.49	48.31
838.661	49.83
838.832	51.73
839.003	48.29
839.174	48
839.345	45.67
839.516	45.09
839.687	41.25
839.857	37.37
840.028	36.19
840.199	33.15
840.37	31.99
840.54	33.74
840.711	32.78
840.882	35.82
841.053	36.42
841.223	31.42
841.394	37.07
841.564	41.92
841.735	44.34
841.906	47.14
842.076	47.37
842.247	46.99
842.417	48.74
842.588	50.1
842.758	51.47
842.929	50.98
843.099	56.9
843.27	56.57
843.44	54.58
843.611	57.81
843.781	58.27
843.951	62.71
844.122	59.86
844.292	52.68
844.462	51.52
844.633	47.37
844.803	43.64
844.973	41.85
845.144	42.06
845.314	39.52
845.484	38.77
845.654	37.61
845.824	34.97
845.995	40.92
846.165	41.08
846.335	41.57
846.505	44.41
846.675	49.71
846.845	49.27
847.015	45.45
847.185	42.37
847.355	40.07
847.525	35.6
847.695	41.1
847.865	42.13
848.035	45.83
848.205	44.9
848.375	44.1
848.545	42.26
848.715	43.56
848.884	41.32
849.054	45.49
849.224	47.29
849.394	47.33
849.564	43.2
849.733	33.78
849.903	38.6
850.073	36.75
850.243	32.03
850.412	27.36
850.582	27.23
850.752	36.15
850.921	37.56
851.091	40.58
851.26	41.32
851.43	42.39
851.599	53.39
851.769	46.76
851.939	40.97
852.108	46.63
852.278	42.75
852.447	42.31
852.616	44.72
852.786	41.32
852.955	36.99
853.125	44.82
853.294	41.25
853.463	39
853.633	45.02
853.802	55.09
853.971	51.64
854.141	56.27
854.31	52.2
854.479	50.81
854.648	54.45
854.818	51.06
854.987	46.82
855.156	51.03
855.325	43.32
855.494	39.56
855.663	45.39
855.832	46.04
856.001	40.58
856.171	41.21
856.34	37.93
856.509	32.23
856.678	36.55
856.847	36.32
857.016	31.52
857.185	33.77
857.353	28.97
857.522	22.7
857.691	26.55
857.86	32.89
858.029	42.53
858.198	45.17
858.367	47.39
858.535	47
858.704	47.24
858.873	52.61
859.042	53.28
859.21	51.64
859.379	52.84
859.548	47.97
859.717	48.4
859.885	39.56
860.054	37.23
860.222	37.3
860.391	31.5
860.56	28.67
860.728	29.83
860.897	29.66
861.065	36.88
861.234	23.96
861.402	34.19
861.571	40.91
861.739	45.03
861.908	45.27
862.076	42.27
862.244	45.98
862.413	48.55
862.581	46.2
862.749	51.75
862.918	51.18
863.086	51.93
863.254	51.73
863.423	50.72
863.591	52.95
863.759	52.71
863.927	63.16
864.096	62.78
864.264	62.28
864.432	68.05
864.6	63.52
864.768	61.22
864.936	60.54
865.104	54.76
865.272	52.49
865.44	55.56
865.608	54.78
865.776	45.8
865.944	48.62
866.112	50.34
866.28	47.47
866.448	43.4
866.616	45.4
866.784	53.04
866.952	49.17
867.12	43.33
867.288	43.77
867.455	46.99
867.623	49.53
867.791	43.16
867.959	41.5
868.127	40.59
868.294	46.54
868.462	48.69
868.63	44.5
868.797	52
868.965	52.96
869.133	48.09
869.3	48.07
869.468	49.19
869.636	53.9
869.803	52.13
869.971	51.52
870.138	53.26
870.306	52.57
870.473	54.57
870.641	48.01
870.808	59.74
870.975	64
871.143	59.78
871.31	62.12
871.478	65.72
871.645	68.18
871.812	68.05
871.98	56
872.147	59.65
872.314	60.23
872.482	63.42
872.649	52.1
872.816	45.48
872.983	50.28
873.15	42.17
873.318	41.75
873.485	40.59
873.652	41.05
873.819	44.58
873.986	50.53
874.153	51.18
874.32	50.45
874.487	58.34
874.654	64
874.821	61.22
874.988	65.46
875.155	64.96
875.322	70.02
875.489	71.12
875.656	76
875.823	66.44
875.99	73.87
876.157	72.57
876.324	59.66
876.49	56.07
876.657	57.56
876.824	62.57
876.991	60.92
877.157	62.07
877.324	65.07
877.491	69.13
877.658	72.43
877.824	64.74
877.991	68.69
878.157	69.56
878.324	71.06
878.491	70.99
878.657	68.7
878.824	65.5
878.99	60.42
879.157	61.56
879.323	60.69
879.49	53.79
879.656	51.52
879.823	51.96
879.989	48.36
880.156	43.37
880.322	44.71
880.488	42.97
880.655	42.52
880.821	44.35
880.987	41.79
881.154	39.85
881.32	37.45
881.486	38.81
881.652	33.61
881.819	34.44
881.985	35.61
882.151	36.14
882.317	36.03
882.483	35.78
882.649	34.75
882.816	35.6
882.982	35.77
883.148	38
883.314	37.47
883.48	38.98
883.646	40.34
883.812	38.08
883.978	38.24
884.144	40.03
884.31	40.62
884.476	41.04
884.642	41.34
884.807	42.43
884.973	41.84
885.139	41.18
885.305	42.02
885.471	40.46
885.637	43.04
885.802	43.13
885.968	41.88
886.134	41.21
886.3	41.39
886.465	40.41
886.631	40.21
886.797	40.14
886.962	42.82
887.128	42.91
887.293	46.22
887.459	47.17
887.625	48.06
887.79	52.15
887.956	59.88
888.121	61.52
888.287	64.77
888.452	65.67
888.618	69.31
888.783	70.89
