Data from LC_254_Reflection_3.txt Node
Date: Thu Nov 19 23:12:51 EST 2015
User: robert
Spectrometer: USB4E03001
Autoset integration time: false
Trigger mode: 4
Integration Time (sec): 1.000000E-1
Scans to average: 15
Electric dark correction enabled: true
Nonlinearity correction enabled: false
Boxcar width: 5
Stray light correction enabled: false
XAxis mode: Wavelengths
Stop averaging: false
Number of Pixels in Spectrum: 3648
>>>>>Begin Spectral Data<<<<<
177.566	-65.47
177.785	-19.86
178.005	53.03
178.225	39.15
178.445	51.62
178.665	25.79
178.885	83.93
179.105	576.19
179.324	445.68
179.544	262.79
179.764	226.45
179.984	216.88
180.204	468.08
180.423	298.86
180.643	241.53
180.863	161
181.083	285.93
181.302	176.26
181.522	127.8
181.742	141.66
181.961	151.69
182.181	162.01
182.401	167.15
182.621	103.88
182.84	68.38
183.06	85.35
183.279	18.02
183.499	53.15
183.719	-30.48
183.938	-354.88
184.158	1052.46
184.377	1058.21
184.597	-621.29
184.816	7285.85
185.036	423.78
185.256	-5294.44
185.475	-177.29
185.695	-95.97
185.914	-138.66
186.134	-212.61
186.353	-22.9
186.572	2.54
186.792	146.09
187.011	-1430.12
187.231	-949.91
187.45	-1380
187.67	-108.94
187.889	-66.01
188.108	-26.23
188.328	-18.08
188.547	-127.91
188.766	-220.95
188.986	-366.69
189.205	2879.41
189.424	102.57
189.644	67.42
189.863	42.79
190.082	53.93
190.302	78.01
190.521	89.32
190.74	92.92
190.959	109.94
191.178	79.81
191.398	75.3
191.617	91.99
191.836	331.37
192.055	122.41
192.274	212.56
192.494	207.95
192.713	87.28
192.932	78.65
193.151	92.27
193.37	86.57
193.589	98.88
193.808	92.08
194.027	109.07
194.246	91.66
194.465	129.19
194.685	119.55
194.904	108.92
195.123	98.79
195.342	112.19
195.561	88.62
195.78	79.1
195.999	73.93
196.218	79.12
196.436	71.51
196.655	60.57
196.874	46.54
197.093	62.28
197.312	49.64
197.531	107.86
197.75	219.59
197.969	271.87
198.188	-713.88
198.407	-212.59
198.625	-333.58
198.844	-196.48
199.063	-1708.04
199.282	-217.27
199.501	-216.7
199.719	-443.7
199.938	-134.52
200.157	-353.15
200.376	-340.67
200.594	2030.95
200.813	1331.35
201.032	846.27
201.251	744.18
201.469	528.92
201.688	152.26
201.907	258.25
202.125	1000.76
202.344	231.06
202.563	232.78
202.781	202.59
203	171.23
203.218	175.28
203.437	200.46
203.656	209.82
203.874	279.27
204.093	382.05
204.311	150.82
204.53	70.46
204.748	61.1
204.967	89.89
205.185	98.85
205.404	97.03
205.622	71.97
205.841	114.7
206.059	127.57
206.278	187.49
206.496	180.47
206.715	189.2
206.933	260.65
207.151	207.97
207.37	158.91
207.588	87.47
207.806	101.29
208.025	128.09
208.243	-5.22
208.461	36.77
208.68	-142.46
208.898	23.06
209.116	15.48
209.335	45.21
209.553	222.3
209.771	-3757.14
209.989	417.52
210.208	-109.69
210.426	-170.42
210.644	213.5
210.862	137.21
211.081	146.24
211.299	94.73
211.517	99.05
211.735	86.47
211.953	50.06
212.171	42.54
212.39	75.06
212.608	81.88
212.826	95.61
213.044	93.24
213.262	73.74
213.48	85.19
213.698	92.82
213.916	86.58
214.134	51.83
214.352	127.47
214.57	167.45
214.788	350.43
215.006	223.7
215.224	116.85
215.442	365.11
215.66	132
215.878	156.23
216.096	48.21
216.314	-34.11
216.532	16.43
216.75	26.01
216.968	17.86
217.185	149.03
217.403	-99.41
217.621	475.5
217.839	-55.94
218.057	27.26
218.275	46.78
218.492	62.58
218.71	50.38
218.928	57.1
219.146	53.38
219.363	51.63
219.581	52.16
219.799	37.57
220.017	53.77
220.234	71.45
220.452	78.76
220.67	94.93
220.887	95.23
221.105	129.5
221.323	124.52
221.54	108.78
221.758	99.64
221.976	83.89
222.193	88.09
222.411	72.24
222.629	69
222.846	60.61
223.064	52.45
223.281	42.24
223.499	28.44
223.716	19.44
223.934	9.14
224.151	9.12
224.369	17.93
224.586	11.33
224.804	24.98
225.021	27.02
225.239	18.3
225.456	8.93
225.674	14.95
225.891	19.77
226.108	25.41
226.326	22.34
226.543	11.32
226.76	-3.82
226.978	5.07
227.195	-2.41
227.413	-8.67
227.63	-1.05
227.847	8.04
228.064	6.11
228.282	6.35
228.499	6.66
228.716	7.75
228.934	7.47
229.151	10.51
229.368	9.72
229.585	10.99
229.802	12.86
230.02	10.34
230.237	9.01
230.454	9.91
230.671	9.14
230.888	11.21
231.105	9.78
231.323	12.3
231.54	8.53
231.757	8.45
231.974	8.49
232.191	11.32
232.408	16.33
232.625	18.24
232.842	18.89
233.059	23.19
233.276	23.47
233.493	24.91
233.71	26.57
233.927	30.9
234.144	33.09
234.361	29.89
234.578	24.38
234.795	25.29
235.012	27.19
235.229	24.29
235.446	22.43
235.663	16.04
235.879	16.91
236.096	12.21
236.313	7.77
236.53	9.51
236.747	13.31
236.964	13.45
237.181	7.21
237.397	5.67
237.614	6.23
237.831	5.55
238.048	12.54
238.264	13.33
238.481	14.73
238.698	16.21
238.915	18.43
239.131	15.09
239.348	14.22
239.565	17.67
239.781	18.87
239.998	20.84
240.215	20.57
240.431	16.8
240.648	17.41
240.865	18.02
241.081	14.64
241.298	13.14
241.514	13.02
241.731	13.84
241.947	14.79
242.164	12.11
242.38	11.65
242.597	10.93
242.814	11.27
243.03	10.52
243.246	9.75
243.463	9.91
243.679	8.71
243.896	8.53
244.112	8.73
244.329	6.86
244.545	8.38
244.762	6.97
244.978	6.51
245.194	7.6
245.411	8.55
245.627	9.44
245.843	10.01
246.06	12.08
246.276	11.52
246.492	11.47
246.709	11.45
246.925	11.16
247.141	10.82
247.357	11.1
247.574	11.09
247.79	10.91
248.006	11.43
248.222	11.8
248.439	11.36
248.655	11.76
248.871	11.72
249.087	11.58
249.303	11.65
249.519	12.39
249.736	12.83
249.952	12.89
250.168	12.83
250.384	12.49
250.6	13.18
250.816	13.31
251.032	13.57
251.248	13.82
251.464	13.47
251.68	12.86
251.896	14.19
252.112	13.78
252.328	13.1
252.544	12.49
252.76	11.54
252.976	11.19
253.192	10.31
253.408	9.92
253.624	10.4
253.84	11.27
254.056	11.12
254.272	8.84
254.487	8.29
254.703	9.35
254.919	9.75
255.135	9.67
255.351	9.74
255.567	10.02
255.782	10.78
255.998	8.87
256.214	8.28
256.43	8.72
256.646	12.73
256.861	13.82
257.077	13.66
257.293	13.84
257.508	14.67
257.724	14.45
257.94	15.7
258.155	16.28
258.371	15.75
258.587	14.06
258.802	13.97
259.018	12.51
259.234	12.02
259.449	11.45
259.665	10.73
259.88	10.06
260.096	10.14
260.312	8.5
260.527	7.63
260.743	7.98
260.958	8.3
261.174	8.31
261.389	8.82
261.605	8.94
261.82	8.47
262.036	8.89
262.251	9.32
262.466	9.77
262.682	11.65
262.897	13.92
263.113	13.72
263.328	16
263.543	15.44
263.759	13.97
263.974	13.52
264.189	14.38
264.405	14.48
264.62	14.06
264.835	13.46
265.051	12.38
265.266	10.65
265.481	10.8
265.696	8.86
265.912	8.43
266.127	9.4
266.342	8.7
266.557	9.03
266.773	10.12
266.988	10.93
267.203	9.64
267.418	10.56
267.633	10.12
267.848	8.91
268.064	9.23
268.279	9.13
268.494	8.76
268.709	9.26
268.924	8.91
269.139	8.48
269.354	8.64
269.569	9.15
269.784	8.58
269.999	8.15
270.214	9.68
270.429	9.29
270.644	9.29
270.859	8.58
271.074	8.38
271.289	8.07
271.504	7.39
271.719	6.59
271.934	6.66
272.149	6.8
272.363	7.58
272.578	7.6
272.793	7.36
273.008	7.71
273.223	7.71
273.438	8.15
273.653	8.51
273.867	8.33
274.082	8.11
274.297	8.79
274.512	8.59
274.726	8.3
274.941	7.8
275.156	7.33
275.371	8.46
275.585	9.84
275.8	9.72
276.015	9.76
276.229	10.71
276.444	11.87
276.659	10.88
276.873	11.79
277.088	11.62
277.302	11.84
277.517	12.36
277.732	12.76
277.946	11.7
278.161	11.02
278.375	10.73
278.59	10.73
278.804	10.6
279.019	11.44
279.233	10.86
279.448	11.88
279.662	12.1
279.877	12.53
280.091	11.63
280.306	11.54
280.52	12.25
280.735	12.98
280.949	11.77
281.163	11.22
281.378	11.24
281.592	11.24
281.806	10.91
282.021	10.64
282.235	9.96
282.449	9.03
282.664	9.51
282.878	9.81
283.092	8.13
283.307	9.15
283.521	9.67
283.735	9.63
283.949	9.48
284.164	8.66
284.378	8.55
284.592	8.53
284.806	8.55
285.02	8.09
285.234	7.92
285.449	7.95
285.663	7.62
285.877	7.46
286.091	7.08
286.305	7.48
286.519	8.17
286.733	8.56
286.947	8.64
287.161	8.23
287.375	8.51
287.589	8.11
287.803	8.54
288.017	8.69
288.231	9.01
288.445	8.8
288.659	8.29
288.873	7.29
289.087	6.26
289.301	7.38
289.515	8.47
289.729	7.24
289.943	8.06
290.157	9.17
290.371	8.69
290.584	8.64
290.798	8.98
291.012	9.28
291.226	9.77
291.44	11.26
291.654	10
291.867	9.46
292.081	9.55
292.295	9.01
292.509	7.99
292.722	8.56
292.936	8.08
293.15	7.48
293.364	8.53
293.577	8.39
293.791	7.62
294.005	7.68
294.218	8.21
294.432	8.86
294.645	8.47
294.859	8.37
295.073	7.75
295.286	8.59
295.5	8.97
295.713	8.02
295.927	8.43
296.14	8.2
296.354	8.51
296.568	8.62
296.781	8.85
296.994	9.54
297.208	10.13
297.421	10.77
297.635	11.3
297.848	11.31
298.062	11.38
298.275	11.01
298.489	11.15
298.702	12.42
298.915	12.28
299.129	12.25
299.342	11.41
299.555	11.57
299.769	10.86
299.982	9.54
300.195	9.54
300.409	9.46
300.622	9.54
300.835	9.71
301.048	8.73
301.262	8.82
301.475	8.83
301.688	9.24
301.901	9.04
302.115	9.55
302.328	10.26
302.541	10.04
302.754	10.1
302.967	10.97
303.18	10.34
303.393	9.41
303.607	10.14
303.82	10.26
304.033	10.43
304.246	10.98
304.459	10.55
304.672	9.93
304.885	10.65
305.098	10.76
305.311	10.16
305.524	10.39
305.737	10.01
305.95	9.07
306.163	9.23
306.376	9.39
306.589	8.67
306.802	8.71
307.015	9.34
307.228	9.79
307.44	9.64
307.653	9.58
307.866	10.65
308.079	11.84
308.292	12.3
308.505	12.03
308.718	11.62
308.93	11.88
309.143	12.53
309.356	11.88
309.569	11.45
309.781	11.18
309.994	10.81
310.207	10.27
310.42	10.76
310.632	10.23
310.845	10.46
311.058	10.79
311.27	10.6
311.483	10.58
311.696	10.39
311.908	10.16
312.121	10.08
312.333	9.53
312.546	9.06
312.759	8
312.971	8.44
313.184	8.04
313.396	7.62
313.609	7.46
313.821	7.1
314.034	8.25
314.246	8.2
314.459	8.72
314.671	10.17
314.884	10.48
315.096	10.97
315.309	10.31
315.521	10.82
315.733	10.65
315.946	11.31
316.158	12.32
316.371	11.62
316.583	11.95
316.795	11.24
317.008	10.57
317.22	10.05
317.432	10.47
317.644	11.13
317.857	10.47
318.069	11.11
318.281	10.29
318.494	10.4
318.706	9.64
318.918	9.16
319.13	9.91
319.342	9.61
319.555	10.01
319.767	9.6
319.979	9.19
320.191	9.95
320.403	10.65
320.615	10.73
320.827	9.32
321.039	9.42
321.252	9.81
321.464	9.59
321.676	9.89
321.888	9.77
322.1	10.35
322.312	10.78
322.524	11.07
322.736	10.04
322.948	10.95
323.16	10.91
323.372	11.19
323.584	10.45
323.796	10.75
324.007	11.05
324.219	11.44
324.431	11.23
324.643	10.75
324.855	10.52
325.067	10.5
325.279	9.46
325.491	10.28
325.702	10.88
325.914	10.99
326.126	11.66
326.338	12.19
326.55	11.76
326.761	11.25
326.973	11.61
327.185	11.44
327.396	12.33
327.608	12.69
327.82	11.75
328.032	11.02
328.243	11.72
328.455	10.9
328.666	10.75
328.878	11.06
329.09	11.9
329.301	13.31
329.513	14.25
329.725	13.52
329.936	14.07
330.148	15.26
330.359	15.76
330.571	16.41
330.782	16.88
330.994	17.37
331.205	17.68
331.417	18.16
331.628	16.79
331.84	16.84
332.051	17.32
332.262	18.03
332.474	18.97
332.685	19.15
332.897	19.7
333.108	20.14
333.319	19.8
333.531	19.73
333.742	19.2
333.953	20.74
334.165	20.7
334.376	20.66
334.587	20.14
334.799	19.26
335.01	18.89
335.221	18.1
335.432	17.92
335.644	18.15
335.855	18.42
336.066	18.66
336.277	17.31
336.488	16.04
336.7	16.32
336.911	16.1
337.122	16.23
337.333	17.19
337.544	16.92
337.755	16.84
337.966	16.37
338.177	16.5
338.388	16.76
338.599	16.81
338.811	17.65
339.022	16.74
339.233	16.36
339.444	17.04
339.655	16.69
339.866	16.69
340.076	16.63
340.287	16.58
340.498	16.16
340.709	15.5
340.92	15.61
341.131	15.08
341.342	16.08
341.553	16.8
341.764	16.16
341.975	15.58
342.185	15.76
342.396	15.52
342.607	15.86
342.818	15.77
343.029	16.63
343.239	16.79
343.45	17.22
343.661	16.46
343.872	15.94
344.082	15.63
344.293	16.48
344.504	16.82
344.714	16.77
344.925	16.88
345.136	17.04
345.346	15.45
345.557	15.28
345.768	15.78
345.978	16.54
346.189	15.92
346.399	15.82
346.61	15.32
346.821	15.35
347.031	15.92
347.242	16.31
347.452	16.79
347.663	17.44
347.873	18.54
348.084	17.94
348.294	16.95
348.504	17.89
348.715	18.14
348.925	18.12
349.136	18.26
349.346	17.72
349.557	17.32
349.767	16.81
349.977	17.45
350.188	15.92
350.398	15.43
350.608	16.47
350.819	16.26
351.029	16.43
351.239	17.11
351.449	16.31
351.66	16.2
351.87	16.2
352.08	16.28
352.29	16.83
352.501	17.05
352.711	17.69
352.921	17.29
353.131	17.07
353.341	16.34
353.552	15.98
353.762	15.69
353.972	15.98
354.182	15.79
354.392	15.47
354.602	13.93
354.812	14.28
355.022	13.97
355.232	13.91
355.442	14.78
355.652	14.68
355.862	14.22
356.072	14.73
356.282	14.97
356.492	14.68
356.702	14.74
356.912	15.39
357.122	15.48
357.332	15.94
357.542	15.56
357.752	14.59
357.962	15.69
358.171	16.05
358.381	16.4
358.591	16.09
358.801	16.23
359.011	16.6
359.221	16.51
359.43	16.21
359.64	15.56
359.85	15.79
360.06	16.22
360.269	15.64
360.479	15.24
360.689	14.74
360.899	14.41
361.108	14.2
361.318	13.74
361.528	13.82
361.737	14.01
361.947	14.37
362.156	14.45
362.366	14.57
362.576	14.54
362.785	14.46
362.995	14.25
363.204	14.8
363.414	14.67
363.623	14.83
363.833	14.87
364.042	14.86
364.252	14.72
364.461	14.31
364.671	13.84
364.88	14.09
365.09	14.41
365.299	14.66
365.509	14.22
365.718	14.31
365.927	14.52
366.137	14.1
366.346	13.95
366.555	13.65
366.765	14.23
366.974	14.45
367.183	14.25
367.393	13.85
367.602	14.51
367.811	14.79
368.021	15.48
368.23	14.8
368.439	14.84
368.648	14.78
368.857	15.24
369.067	14.63
369.276	15.15
369.485	14.53
369.694	14.56
369.903	13.58
370.112	13.1
370.321	12.46
370.531	13.07
370.74	12.86
370.949	13.17
371.158	12.91
371.367	13.26
371.576	12.74
371.785	13.22
371.994	13.54
372.203	13.91
372.412	14.44
372.621	14.63
372.83	14.69
373.039	15.19
373.248	15.31
373.457	15.8
373.666	15.62
373.874	15.5
374.083	15.17
374.292	15.22
374.501	14.92
374.71	14.8
374.919	14.81
375.128	14.72
375.336	14.46
375.545	14.16
375.754	13.49
375.963	13.19
376.171	13.08
376.38	13.3
376.589	12.82
376.798	12.58
377.006	12.41
377.215	12.45
377.424	12.03
377.632	12.39
377.841	12.1
378.05	12.48
378.258	12.43
378.467	12.71
378.675	12.48
378.884	12.96
379.093	13.33
379.301	13.46
379.51	13.24
379.718	13.4
379.927	13.08
380.135	13.24
380.344	12.71
380.552	12.9
380.761	12.79
380.969	13.16
381.177	12.37
381.386	12.02
381.594	12.08
381.803	11.91
382.011	12.34
382.219	12.44
382.428	12.51
382.636	12.7
382.845	13.1
383.053	12.83
383.261	12.84
383.469	13.57
383.678	13.55
383.886	13.39
384.094	13.82
384.302	13.73
384.511	13.38
384.719	13.08
384.927	13.16
385.135	12.88
385.343	12.96
385.552	12.66
385.76	12.2
385.968	12.21
386.176	12.03
386.384	11.61
386.592	11.57
386.8	11.71
387.008	11.61
387.216	11.42
387.424	11.55
387.633	11.74
387.841	11.78
388.049	12.1
388.257	12.33
388.465	12.32
388.672	12.55
388.88	12.11
389.088	12.06
389.296	12.63
389.504	12.68
389.712	12.49
389.92	12.31
390.128	12.15
390.336	11.88
390.544	11.46
390.751	11.17
390.959	10.74
391.167	11.19
391.375	11.3
391.583	10.68
391.79	10.54
391.998	10.83
392.206	10.93
392.414	11.02
392.621	11.19
392.829	11.47
393.037	11.82
393.244	12.17
393.452	11.62
393.66	11.41
393.867	11.81
394.075	12.17
394.283	11.92
394.49	11.73
394.698	11.61
394.905	11.61
395.113	11.62
395.32	11.59
395.528	11.8
395.735	12.32
395.943	12.45
396.15	12.11
396.358	11.98
396.565	11.93
396.773	12.01
396.98	12.1
397.188	12
397.395	11.92
397.602	11.83
397.81	11.58
398.017	11.13
398.225	11.02
398.432	11.32
398.639	11.28
398.847	11.13
399.054	11.13
399.261	11.01
399.468	11.01
399.676	11.12
399.883	10.92
400.09	10.94
400.297	11.45
400.505	11.56
400.712	11.52
400.919	11.37
401.126	11.61
401.333	11.61
401.54	11.78
401.748	12.01
401.955	12.09
402.162	12.35
402.369	12.41
402.576	12.24
402.783	12.13
402.99	12.14
403.197	12.37
403.404	12.45
403.611	12.57
403.818	12.51
404.025	12.37
404.232	12.15
404.439	12.12
404.646	12.16
404.853	12.07
405.06	12.08
405.267	12.2
405.474	11.93
405.681	11.92
405.887	11.9
406.094	11.92
406.301	11.9
406.508	12.12
406.715	12.02
406.922	11.82
407.128	11.84
407.335	11.74
407.542	11.53
407.749	11.64
407.955	11.58
408.162	11.55
408.369	11.5
408.575	11.63
408.782	11.32
408.989	11.26
409.195	11.24
409.402	11.19
409.609	11.13
409.815	11.08
410.022	11.14
410.228	11.09
410.435	11.12
410.642	11.25
410.848	11.22
411.055	11.25
411.261	11.49
411.468	11.51
411.674	11.57
411.881	11.94
412.087	11.81
412.294	11.81
412.5	11.75
412.706	11.64
412.913	11.69
413.119	11.45
413.326	11.42
413.532	11.34
413.738	11.1
413.945	11.05
414.151	11.04
414.357	11.26
414.564	11.09
414.77	11.12
414.976	11.13
415.182	10.76
415.389	10.65
415.595	10.8
415.801	10.66
416.007	10.95
416.214	10.91
416.42	10.79
416.626	10.58
416.832	10.98
417.038	10.91
417.244	10.85
417.45	11.09
417.657	11.18
417.863	11.33
418.069	11.42
418.275	11.39
418.481	11.45
418.687	11.41
418.893	11.69
419.099	11.32
419.305	11.39
419.511	11.26
419.717	11.16
419.923	11.15
420.129	10.99
420.335	10.86
420.541	10.97
420.746	10.87
420.952	10.81
421.158	10.64
421.364	10.72
421.57	10.66
421.776	10.8
421.982	10.77
422.187	10.77
422.393	10.64
422.599	10.71
422.805	10.5
423.01	10.45
423.216	10.4
423.422	10.3
423.628	10.33
423.833	10.34
424.039	10.3
424.245	10.27
424.45	10.31
424.656	10.46
424.862	10.42
425.067	10.38
425.273	10.46
425.478	10.55
425.684	10.71
425.889	10.75
426.095	10.71
426.301	10.71
426.506	10.77
426.712	10.78
426.917	10.85
427.123	10.95
427.328	11.01
427.533	11.07
427.739	11.14
427.944	11.12
428.15	10.99
428.355	10.89
428.561	10.97
428.766	10.91
428.971	10.92
429.177	10.89
429.382	10.83
429.587	11.03
429.793	11.16
429.998	11.26
430.203	11.07
430.408	11.06
430.614	11.36
430.819	11.14
431.024	11.26
431.229	11
431.434	10.88
431.64	10.8
431.845	10.75
432.05	10.58
432.255	10.39
432.46	10.55
432.665	10.68
432.87	10.57
433.076	10.67
433.281	10.59
433.486	10.92
433.691	10.93
433.896	10.97
434.101	10.89
434.306	10.78
434.511	10.86
434.716	10.89
434.921	10.85
435.126	11.05
435.331	10.98
435.535	10.99
435.74	10.74
435.945	10.63
436.15	10.56
436.355	10.76
436.56	10.86
436.765	10.87
436.97	10.84
437.174	10.77
437.379	10.62
437.584	10.76
437.789	10.86
437.993	10.98
438.198	11.03
438.403	11.08
438.608	11.04
438.812	11.04
439.017	10.91
439.222	10.9
439.426	10.78
439.631	10.69
439.836	10.79
440.04	10.72
440.245	10.75
440.45	10.84
440.654	10.89
440.859	10.83
441.063	10.86
441.268	10.92
441.472	11
441.677	11.16
441.881	11.2
442.086	10.94
442.29	10.94
442.495	10.85
442.699	10.83
442.904	10.88
443.108	10.88
443.312	10.81
443.517	10.75
443.721	10.68
443.925	10.77
444.13	10.86
444.334	11.07
444.538	11.04
444.743	11.13
444.947	11.07
445.151	10.92
445.356	10.94
445.56	10.96
445.764	11.07
445.968	11.08
446.173	11.02
446.377	10.92
446.581	10.78
446.785	10.78
446.989	10.69
447.193	10.65
447.398	10.64
447.602	10.52
447.806	10.51
448.01	10.33
448.214	10.3
448.418	10.13
448.622	10.05
448.826	10.08
449.03	10.05
449.234	9.98
449.438	10.01
449.642	10.06
449.846	10.07
450.05	10.02
450.254	10.23
450.458	10.13
450.662	10.24
450.866	10.3
451.069	10.43
451.273	10.42
451.477	10.38
451.681	10.38
451.885	10.35
452.089	10.48
452.292	10.4
452.496	10.21
452.7	10.29
452.904	10.21
453.107	10.2
453.311	10.23
453.515	10.27
453.719	10.46
453.922	10.53
454.126	10.48
454.33	10.42
454.533	10.47
454.737	10.49
454.94	10.6
455.144	10.64
455.348	10.83
455.551	10.72
455.755	10.73
455.958	10.6
456.162	10.63
456.365	10.76
456.569	10.74
456.772	10.82
456.976	10.93
457.179	10.84
457.383	10.87
457.586	10.61
457.79	10.69
457.993	10.55
458.196	10.54
458.4	10.5
458.603	10.41
458.807	10.4
459.01	10.44
459.213	10.53
459.417	10.45
459.62	10.42
459.823	10.47
460.026	10.32
460.23	10.36
460.433	10.27
460.636	10.21
460.839	10.21
461.042	10.26
461.246	10.23
461.449	9.97
461.652	10.05
461.855	9.98
462.058	9.91
462.261	10.02
462.464	10.06
462.668	10.19
462.871	10.16
463.074	10.12
463.277	9.95
463.48	10
463.683	10.2
463.886	10.34
464.089	10.46
464.292	10.7
464.495	10.78
464.698	10.73
464.901	10.63
465.104	10.73
465.306	10.7
465.509	10.81
465.712	10.65
465.915	10.52
466.118	10.29
466.321	10.2
466.524	10.06
466.726	9.86
466.929	9.88
467.132	10.04
467.335	9.96
467.538	9.9
467.74	9.89
467.943	9.92
468.146	10.02
468.348	10.04
468.551	10.12
468.754	10.17
468.956	10.36
469.159	10.37
469.362	10.33
469.564	10.49
469.767	10.8
469.969	10.64
470.172	10.83
470.375	10.62
470.577	10.68
470.78	10.92
470.982	10.9
471.185	10.92
471.387	10.83
471.59	10.82
471.792	10.79
471.995	10.65
472.197	10.76
472.399	10.64
472.602	10.8
472.804	10.77
473.007	10.46
473.209	10.36
473.411	10.23
473.614	10.33
473.816	10.44
474.018	10.32
474.22	10.25
474.423	10.29
474.625	10.31
474.827	10.4
475.03	10.43
475.232	10.69
475.434	10.86
475.636	10.86
475.838	10.89
476.04	10.88
476.243	10.86
476.445	10.89
476.647	10.98
476.849	10.9
477.051	10.86
477.253	10.87
477.455	10.8
477.657	10.65
477.859	10.73
478.061	10.64
478.263	10.58
478.465	10.52
478.667	10.57
478.869	10.56
479.071	10.41
479.273	10.38
479.475	10.23
479.677	10.14
479.879	10.23
480.081	10.01
480.283	10.09
480.485	9.98
480.686	10.14
480.888	10.1
481.09	10.07
481.292	10.25
481.494	10.35
481.695	10.42
481.897	10.4
482.099	10.39
482.301	10.5
482.502	10.46
482.704	10.37
482.906	10.36
483.107	10.39
483.309	10.38
483.511	10.36
483.712	10.29
483.914	10.24
484.115	10.23
484.317	10.2
484.519	10.22
484.72	10.22
484.922	10.25
485.123	10.25
485.325	10.18
485.526	10.18
485.728	10.18
485.929	10.2
486.131	10.23
486.332	10.31
486.534	10.34
486.735	10.29
486.936	10.34
487.138	10.4
487.339	10.33
487.541	10.4
487.742	10.4
487.943	10.41
488.144	10.38
488.346	10.42
488.547	10.38
488.748	10.41
488.95	10.46
489.151	10.42
489.352	10.36
489.553	10.49
489.755	10.46
489.956	10.46
490.157	10.44
490.358	10.47
490.559	10.46
490.76	10.55
490.961	10.49
491.163	10.53
491.364	10.48
491.565	10.52
491.766	10.47
491.967	10.5
492.168	10.45
492.369	10.45
492.57	10.49
492.771	10.52
492.972	10.42
493.173	10.43
493.374	10.45
493.575	10.52
493.776	10.56
493.976	10.54
494.177	10.52
494.378	10.63
494.579	10.63
494.78	10.63
494.981	10.69
495.182	10.82
495.382	10.83
495.583	10.67
495.784	10.69
495.985	10.87
496.185	10.74
496.386	10.82
496.587	10.81
496.788	10.9
496.988	10.97
497.189	10.87
497.39	10.96
497.59	11.06
497.791	11.06
497.992	11.14
498.192	11.13
498.393	11.27
498.593	11.26
498.794	11.44
498.994	11.45
499.195	11.45
499.395	11.47
499.596	11.39
499.796	11.31
499.997	11.38
500.197	11.29
500.398	11.38
500.598	11.41
500.799	11.63
500.999	11.4
501.199	11.48
501.4	11.56
501.6	11.67
501.801	11.65
502.001	11.8
502.201	11.9
502.402	12.07
502.602	12
502.802	12.06
503.002	12.04
503.203	12.27
503.403	12.22
503.603	12.13
503.803	12.2
504.003	12.34
504.204	12.34
504.404	12.3
504.604	12.23
504.804	12.26
505.004	12.39
505.204	12.31
505.404	12.28
505.604	12.42
505.804	12.46
506.005	12.56
506.205	12.57
506.405	12.6
506.605	12.81
506.805	12.82
507.005	12.81
507.204	12.75
507.404	12.86
507.604	12.78
507.804	12.88
508.004	12.96
508.204	12.9
508.404	12.96
508.604	13.07
508.804	13.02
509.003	13.27
509.203	13.34
509.403	13.3
509.603	13.3
509.803	13.54
510.002	13.43
510.202	13.45
510.402	13.62
510.602	13.58
510.801	13.64
511.001	13.68
511.201	13.55
511.4	13.6
511.6	13.91
511.8	14.05
511.999	14.05
512.199	14.32
512.398	14.34
512.598	14.35
512.797	14.58
512.997	14.56
513.197	14.61
513.396	14.66
513.596	14.67
513.795	14.54
513.994	14.6
514.194	14.75
514.393	14.64
514.593	14.87
514.792	14.93
514.992	14.81
515.191	15.08
515.39	15.18
515.59	15.42
515.789	15.62
515.988	15.73
516.188	15.72
516.387	15.72
516.586	15.83
516.786	15.78
516.985	15.85
517.184	15.95
517.383	15.8
517.582	15.83
517.782	15.87
517.981	16
518.18	16.08
518.379	16.19
518.578	16.28
518.777	16.35
518.976	16.51
519.176	16.68
519.375	16.74
519.574	16.83
519.773	17.01
519.972	17.13
520.171	17.08
520.37	17.14
520.569	17.31
520.768	17.44
520.967	17.5
521.166	17.56
521.365	17.72
521.564	17.86
521.762	17.98
521.961	17.98
522.16	17.94
522.359	18.15
522.558	18.28
522.757	18.27
522.956	18.18
523.154	18.31
523.353	18.34
523.552	18.33
523.751	18.42
523.949	18.54
524.148	18.56
524.347	18.67
524.546	18.72
524.744	18.7
524.943	18.82
525.142	19
525.34	19.03
525.539	19.09
525.737	19.13
525.936	19.27
526.135	19.36
526.333	19.57
526.532	19.67
526.73	19.76
526.929	19.87
527.127	19.92
527.326	19.93
527.524	20.05
527.723	20.09
527.921	20.11
528.12	20.08
528.318	20.13
528.516	20.16
528.715	20.15
528.913	20.21
529.112	20.26
529.31	20.31
529.508	20.34
529.707	20.31
529.905	20.39
530.103	20.47
530.301	20.56
530.5	20.55
530.698	20.6
530.896	20.74
531.094	20.75
531.293	20.79
531.491	20.86
531.689	20.92
531.887	21.17
532.085	21.29
532.283	21.33
532.481	21.41
532.68	21.53
532.878	21.58
533.076	21.62
533.274	21.7
533.472	21.78
533.67	21.74
533.868	21.84
534.066	21.76
534.264	21.75
534.462	21.81
534.66	21.87
534.858	21.92
535.056	21.93
535.253	22.01
535.451	22.13
535.649	22.3
535.847	22.44
536.045	22.46
536.243	22.69
536.441	22.82
536.638	22.86
536.836	23.01
537.034	23.12
537.232	23.21
537.43	23.32
537.627	23.32
537.825	23.29
538.023	23.43
538.22	23.56
538.418	23.47
538.616	23.41
538.813	23.54
539.011	23.49
539.209	23.73
539.406	23.91
539.604	23.91
539.801	24.05
539.999	24.13
540.196	24.18
540.394	24.28
540.591	24.36
540.789	24.46
540.986	24.44
541.184	24.4
541.381	24.33
541.579	24.3
541.776	24.3
541.974	24.34
542.171	24.34
542.368	24.38
542.566	24.42
542.763	24.47
542.96	24.53
543.158	24.63
543.355	24.74
543.552	24.84
543.75	24.9
543.947	25.08
544.144	25
544.341	25.2
544.539	25.23
544.736	25.25
544.933	25.32
545.13	25.41
545.327	25.48
545.524	25.55
545.722	25.61
545.919	25.74
546.116	25.75
546.313	25.98
546.51	25.97
546.707	26.05
546.904	26.11
547.101	26.27
547.298	26.34
547.495	26.45
547.692	26.52
547.889	26.48
548.086	26.54
548.283	26.68
548.48	26.69
548.677	26.63
548.874	26.74
549.07	26.79
549.267	26.64
549.464	26.73
549.661	26.73
549.858	27.03
550.055	27.07
550.251	27.21
550.448	27.04
550.645	27.25
550.842	27.46
551.038	27.63
551.235	27.78
551.432	28.05
551.628	28.02
551.825	28.17
552.022	28.12
552.218	28.35
552.415	28.33
552.612	28.5
552.808	28.48
553.005	28.49
553.201	28.46
553.398	28.58
553.594	28.45
553.791	28.51
553.987	28.53
554.184	28.39
554.38	28.41
554.577	28.53
554.773	28.75
554.97	28.76
555.166	28.95
555.362	28.8
555.559	28.71
555.755	28.84
555.952	29.01
556.148	29.07
556.344	29.35
556.541	29.31
556.737	29.31
556.933	29.33
557.129	29.29
557.326	29.29
557.522	29.51
557.718	29.61
557.914	29.85
558.11	29.69
558.307	29.71
558.503	29.62
558.699	29.76
558.895	29.67
559.091	29.6
559.287	29.88
559.483	29.79
559.679	30
559.876	30.04
560.072	29.94
560.268	30.15
560.464	30.22
560.66	30.36
560.856	30.44
561.052	30.51
561.247	30.61
561.443	30.58
561.639	30.66
561.835	30.78
562.031	30.74
562.227	30.77
562.423	30.86
562.619	30.91
562.815	30.96
563.01	31.11
563.206	31.25
563.402	31.22
563.598	31.3
563.793	31.45
563.989	31.56
564.185	31.69
564.381	31.88
564.576	31.91
564.772	32.07
564.968	32.1
565.163	32.25
565.359	32.18
565.555	32.29
565.75	32.36
565.946	32.39
566.141	32.37
566.337	32.28
566.532	32.4
566.728	32.41
566.923	32.39
567.119	32.46
567.314	32.33
567.51	32.6
567.705	32.72
567.901	32.78
568.096	32.97
568.292	32.8
568.487	32.99
568.682	32.86
568.878	32.94
569.073	32.94
569.268	32.98
569.464	33.12
569.659	33.21
569.854	33.32
570.05	33.23
570.245	33.2
570.44	33.52
570.635	33.65
570.831	33.85
571.026	34.04
571.221	34.14
571.416	34.28
571.611	34.3
571.806	34
572.002	33.92
572.197	33.98
572.392	34.09
572.587	34.06
572.782	33.99
572.977	33.98
573.172	34.02
573.367	34.04
573.562	34.02
573.757	34.24
573.952	34.6
574.147	34.66
574.342	34.85
574.537	34.93
574.732	34.9
574.927	35
575.121	35.04
575.316	35.15
575.511	35.1
575.706	35.1
575.901	35.04
576.096	35.13
576.29	35.13
576.485	35.12
576.68	34.91
576.875	35.01
577.069	35.14
577.264	35.16
577.459	34.95
577.654	35.25
577.848	35.42
578.043	35.48
578.238	35.37
578.432	35.25
578.627	35.25
578.821	35.6
579.016	35.57
579.21	35.47
579.405	35.65
579.6	35.73
579.794	35.75
579.989	35.72
580.183	35.68
580.378	35.89
580.572	36.28
580.766	36.38
580.961	36.2
581.155	36.3
581.35	36.54
581.544	36.56
581.738	36.45
581.933	36.34
582.127	36.27
582.321	36.14
582.516	36.21
582.71	36.19
582.904	36.27
583.099	36.5
583.293	36.59
583.487	36.44
583.681	36.53
583.875	36.87
584.07	36.9
584.264	37.02
584.458	37.46
584.652	37.48
584.846	37.47
585.04	37.5
585.234	37.39
585.428	37.45
585.623	37.66
585.817	37.64
586.011	37.36
586.205	37.48
586.399	37.66
586.593	37.34
586.787	37.25
586.981	37.19
587.174	37.16
587.368	37.24
587.562	37.29
587.756	37.23
587.95	37.23
588.144	37.48
588.338	37.47
588.532	37.42
588.725	37.75
588.919	37.66
589.113	38.06
589.307	38.14
589.501	38.23
589.694	38.23
589.888	38.44
590.082	38.54
590.275	38.48
590.469	38.42
590.663	38.57
590.856	38.41
591.05	38.6
591.244	38.3
591.437	38.4
591.631	38.35
591.824	38.32
592.018	38
592.212	38.06
592.405	38.16
592.599	38.53
592.792	38.38
592.986	38.44
593.179	38.41
593.372	38.58
593.566	38.55
593.759	38.57
593.953	38.65
594.146	38.75
594.339	38.85
594.533	38.75
594.726	38.64
594.92	38.7
595.113	38.79
595.306	38.78
595.499	38.6
595.693	38.68
595.886	38.9
596.079	38.97
596.272	39.17
596.466	39.25
596.659	39.35
596.852	39.21
597.045	39.42
597.238	39.47
597.431	39.4
597.624	39.49
597.818	39.55
598.011	39.51
598.204	39.58
598.397	39.56
598.59	39.47
598.783	39.51
598.976	39.56
599.169	39.51
599.362	39.19
599.555	39.51
599.748	39.84
599.941	39.54
600.134	39.55
600.326	39.32
600.519	39.32
600.712	39.28
600.905	39.36
601.098	39.53
601.291	39.42
601.483	39.6
601.676	39.59
601.869	39.38
602.062	39.57
602.255	39.6
602.447	39.73
602.64	39.8
602.833	39.9
603.025	39.98
603.218	39.81
603.411	39.84
603.603	39.94
603.796	39.92
603.989	39.93
604.181	40.03
604.374	40.15
604.566	40.39
604.759	40.19
604.951	40.29
605.144	40.25
605.336	40.47
605.529	40.57
605.721	40.51
605.914	40.5
606.106	40.55
606.299	40.79
606.491	40.91
606.683	40.66
606.876	41.01
607.068	41.03
607.26	41.06
607.453	41.12
607.645	41.07
607.837	41.07
608.03	41.33
608.222	41.49
608.414	41.2
608.606	41.06
608.799	41.22
608.991	41.09
609.183	41.02
609.375	41.13
609.567	41.14
609.759	41.05
609.952	41.23
610.144	41.19
610.336	41.02
610.528	41.09
610.72	41.1
610.912	41.13
611.104	41.11
611.296	41.02
611.488	41.04
611.68	41.01
611.872	41.13
612.064	41.09
612.256	41.15
612.448	41.32
612.64	41.63
612.832	41.71
613.023	41.77
613.215	41.84
613.407	41.86
613.599	41.73
613.791	41.71
613.983	41.78
614.174	41.57
614.366	41.16
614.558	41
614.75	40.7
614.941	40.81
615.133	40.75
615.325	40.73
615.516	41
615.708	41.12
615.9	40.86
616.091	41.1
616.283	41.59
616.475	41.91
616.666	42.26
616.858	42.37
617.049	42.25
617.241	42.15
617.432	42.38
617.624	42.33
617.815	42.47
618.007	42.87
618.198	42.56
618.39	42.63
618.581	42.74
618.773	42.68
618.964	42.69
619.155	42.56
619.347	42.61
619.538	42.72
619.729	42.94
619.921	42.9
620.112	42.92
620.303	43.09
620.494	43.02
620.686	42.98
620.877	42.85
621.068	42.92
621.259	43.04
621.451	43.53
621.642	43.19
621.833	43.12
622.024	43.06
622.215	42.8
622.406	42.94
622.597	42.79
622.788	42.58
622.98	42.26
623.171	42.33
623.362	42.22
623.553	41.72
623.744	42.21
623.935	42.19
624.126	42.46
624.317	42.62
624.508	42.54
624.698	42.57
624.889	42.8
625.08	43.29
625.271	43.43
625.462	43.71
625.653	43.78
625.844	43.59
626.034	43.75
626.225	43.5
626.416	43.47
626.607	43.62
626.798	43.54
626.988	43.67
627.179	43.7
627.37	43.34
627.56	43.2
627.751	43.26
627.942	43.25
628.132	43.1
628.323	43.06
628.514	43.29
628.704	43.36
628.895	43.49
629.085	43.49
629.276	43.27
629.466	43.57
629.657	43.61
629.847	43.79
630.038	43.73
630.228	43.83
630.419	44.03
630.609	43.9
630.8	43.92
630.99	44.19
631.181	43.77
631.371	43.85
631.561	43.54
631.752	43.56
631.942	43.56
632.132	43.66
632.323	43.73
632.513	43.61
632.703	43.47
632.893	43.21
633.084	43.04
633.274	43.38
633.464	43.49
633.654	43.74
633.844	43.72
634.034	43.66
634.225	43.64
634.415	43.56
634.605	43.55
634.795	44.06
634.985	44.09
635.175	44
635.365	43.92
635.555	44.07
635.745	43.94
635.935	44.21
636.125	44.18
636.315	44.36
636.505	44.38
636.695	44.21
636.885	43.62
637.075	43.82
637.265	44.08
637.455	44.2
637.644	44.08
637.834	44.34
638.024	44.17
638.214	44.27
638.404	44.2
638.593	43.98
638.783	44.43
638.973	44.62
639.163	44.78
639.352	44.83
639.542	44.75
639.732	44.8
639.921	44.74
640.111	44.52
640.301	44.65
640.49	44.96
640.68	44.89
640.87	44.87
641.059	45.22
641.249	45.16
641.438	44.9
641.628	45.06
641.817	45.12
642.007	45.03
642.196	45.25
642.386	45.11
642.575	44.98
642.764	45.51
642.954	45.63
643.143	45.41
643.333	45.22
643.522	45.23
643.711	45.21
643.901	45.03
644.09	45.18
644.279	45.18
644.469	45.22
644.658	45.15
644.847	44.95
645.036	44.62
645.226	44.56
645.415	44.23
645.604	44.25
645.793	44.22
645.982	44.28
646.171	44.49
646.361	45
646.55	44.96
646.739	44.97
646.928	44.98
647.117	45.18
647.306	45.02
647.495	45.08
647.684	45.1
647.873	45.09
648.062	45.57
648.251	45.29
648.44	44.59
648.629	44.77
648.818	45.13
649.007	45.19
649.196	45.53
649.384	45.7
649.573	46.21
649.762	46.24
649.951	46.37
650.14	46.04
650.328	46.18
650.517	46.75
650.706	46.69
650.895	46.29
651.083	46.15
651.272	45.19
651.461	45.35
651.65	45.12
651.838	45.16
652.027	44.83
652.216	44.62
652.404	44.55
652.593	44.22
652.781	43.83
652.97	43.77
653.158	43.93
653.347	45.04
653.535	44.84
653.724	44.86
653.912	45.14
654.101	45.62
654.289	45.83
654.478	45.96
654.666	45.69
654.855	46.14
655.043	46.17
655.231	46.15
655.42	45.61
655.608	45.84
655.796	45.83
655.985	45.75
656.173	45.86
656.361	46.24
656.55	45.99
656.738	46.38
656.926	46.49
657.114	46.86
657.302	46.68
657.491	46.68
657.679	46.73
657.867	47.03
658.055	46.79
658.243	46.86
658.431	46.58
658.619	46.88
658.807	46.61
658.996	46.61
659.184	46.36
659.372	46.33
659.56	46.57
659.748	46.34
659.936	45.97
660.124	46.24
660.311	46.17
660.499	46.04
660.687	46.07
660.875	46.53
661.063	46.35
661.251	46.43
661.439	46.84
661.627	46.79
661.814	47.2
662.002	47.23
662.19	47.3
662.378	46.96
662.565	47.04
662.753	46.79
662.941	46.74
663.129	46.38
663.316	46.42
663.504	46.21
663.692	46.01
663.879	45.87
664.067	45.89
664.254	45.64
664.442	45.79
664.63	46.07
664.817	46.21
665.005	46.11
665.192	46.51
665.38	46.45
665.567	46.69
665.755	46.92
665.942	46.61
666.13	47.19
666.317	47.43
666.504	47.44
666.692	47.28
666.879	47.47
667.067	47.54
667.254	47.43
667.441	47.81
667.629	47.6
667.816	47.7
668.003	48.14
668.19	48.21
668.378	48.33
668.565	48.48
668.752	48.76
668.939	48.73
669.127	48.58
669.314	49.05
669.501	48.44
669.688	48.26
669.875	48.35
670.062	48.21
670.249	47.69
670.436	47.11
670.623	47.27
670.81	47.07
670.997	47.04
671.184	46.97
671.371	47.18
671.558	47.84
671.745	48.2
671.932	47.95
672.119	47.44
672.306	47.55
672.493	47.71
672.68	47.62
672.867	48.02
673.054	48.07
673.24	48.32
673.427	48.26
673.614	47.81
673.801	47.89
673.988	48.08
674.174	48.78
674.361	49.23
674.548	49.77
674.734	50.12
674.921	50.01
675.108	49.72
675.294	49.51
675.481	49.36
675.668	49.39
675.854	49.71
676.041	49.65
676.227	49.59
676.414	49.62
676.601	49.01
676.787	48.4
676.974	47.85
677.16	47.72
677.347	47.9
677.533	47.93
677.719	47.89
677.906	47.16
678.092	47.2
678.279	47.41
678.465	47.09
678.651	47.32
678.838	47.31
679.024	47.84
679.21	48.06
679.397	48.02
679.583	48.09
679.769	48.34
679.955	48.5
680.142	48.69
680.328	48.67
680.514	48.43
680.7	48.26
680.886	48.31
681.073	48.04
681.259	48.17
681.445	47.86
681.631	47.59
681.817	47.48
682.003	47.47
682.189	47.29
682.375	47.17
682.561	47.38
682.747	47.78
682.933	47.83
683.119	47.91
683.305	47.91
683.491	48.48
683.677	48.63
683.863	48.77
684.049	49.03
684.235	49.25
684.42	49.28
684.606	49.58
684.792	49.77
684.978	50.11
685.164	50.01
685.349	49.96
685.535	49.54
685.721	49.05
685.907	48.96
686.092	48.98
686.278	48.63
686.464	48.82
686.649	48.51
686.835	47.96
687.021	47.69
687.206	47.93
687.392	48.02
687.577	48.05
687.763	48.38
687.948	48.65
688.134	48.65
688.319	48.67
688.505	48.16
688.69	48.33
688.876	48.32
689.061	48.17
689.247	48.08
689.432	47.64
689.618	48.04
689.803	48.44
689.988	48.54
690.174	48.32
690.359	48.31
690.544	48.9
690.73	48.98
690.915	48.88
691.1	49
691.285	49.45
691.471	49.75
691.656	49.5
691.841	49.11
692.026	48.82
692.211	48.78
692.396	48.52
692.582	47.84
692.767	47.96
692.952	47.88
693.137	48.03
693.322	47.67
693.507	47.79
693.692	47.61
693.877	47.72
694.062	47.58
694.247	47.77
694.432	48.06
694.617	49.05
694.802	48.9
694.987	49.59
695.172	49.65
695.357	49.67
695.541	49.47
695.726	49.89
695.911	49.64
696.096	49.82
696.281	49.87
696.466	49.95
696.65	49.86
696.835	49.7
697.02	49.27
697.204	48.94
697.389	48.98
697.574	49.24
697.759	48.96
697.943	49.23
698.128	49.17
698.312	49.03
698.497	48.97
698.682	48.96
698.866	49.37
699.051	49.8
699.235	50.09
699.42	50.07
699.604	49.86
699.789	49.84
699.973	50.04
700.158	50.26
700.342	49.94
700.527	50.11
700.711	49.86
700.895	49.58
701.08	49.48
701.264	49.33
701.448	49.43
701.633	49.26
701.817	49.64
702.001	49.14
702.186	49
702.37	49.29
702.554	49.21
702.738	49.28
702.923	49.42
703.107	49.73
703.291	49.83
703.475	50.25
703.659	50.84
703.843	51.2
704.027	52.04
704.212	51.27
704.396	52.01
704.58	51.82
704.764	51.87
704.948	51.25
705.132	50.17
705.316	49.57
705.5	48.89
705.684	48.73
705.868	47.94
706.052	47.5
706.235	48.26
706.419	48.18
706.603	48.05
706.787	47.81
706.971	48.53
707.155	49.36
707.339	50.56
707.522	50.48
707.706	50.24
707.89	50.16
708.074	50.27
708.257	50.21
708.441	50.02
708.625	50.5
708.808	50.56
708.992	50.65
709.176	49.95
709.359	49.63
709.543	50.04
709.727	50.36
709.91	50.7
710.094	50.54
710.277	50.83
710.461	50.46
710.644	50.1
710.828	50.34
711.011	50.49
711.195	50.7
711.378	50.97
711.562	51.03
711.745	50.86
711.928	50.92
712.112	50.81
712.295	50.49
712.478	50.59
712.662	51.21
712.845	50.56
713.028	50.06
713.212	50.01
713.395	49.95
713.578	49.46
713.761	49.53
713.945	49.71
714.128	50.22
714.311	50.51
714.494	50.66
714.677	50.09
714.86	50.76
715.043	51.02
715.227	51.36
715.41	50.63
715.593	51.26
715.776	51.85
715.959	52.34
716.142	51.77
716.325	51.59
716.508	51.66
716.691	52.15
716.874	51.75
717.057	51.78
717.239	51.79
717.422	51.86
717.605	51.98
717.788	51.51
717.971	50.63
718.154	50.8
718.337	51.09
718.519	51.19
718.702	51.23
718.885	51.21
719.068	51.04
719.25	51.41
719.433	52
719.616	51.68
719.798	51.15
719.981	51.89
720.164	52.19
720.346	51.8
720.529	50.81
720.712	49.95
720.894	50.37
721.077	49.98
721.259	49.45
721.442	48.72
721.624	48.15
721.807	48.63
721.989	48.35
722.172	48.23
722.354	48.22
722.537	49.63
722.719	50.79
722.901	50.72
723.084	50.72
723.266	50.22
723.448	50.68
723.631	51.23
723.813	51.36
723.995	51.26
724.178	51.04
724.36	51.02
724.542	49.97
724.724	49.51
724.907	50.06
725.089	50.86
725.271	51.36
725.453	51.15
725.635	51.47
725.817	51.74
725.999	51.21
726.181	51.88
726.364	51.84
726.546	52.14
726.728	52.32
726.91	51.9
727.092	51.5
727.274	51.43
727.456	51.68
727.638	51.07
727.819	50.5
728.001	51.55
728.183	50.68
728.365	50.92
728.547	51.5
728.729	51.57
728.911	51.45
729.093	51.86
729.274	52.18
729.456	51.55
729.638	51.35
729.82	52.34
730.001	51.7
730.183	51.66
730.365	51.99
730.546	52.03
730.728	51.26
730.91	51.52
731.091	51.39
731.273	51.07
731.455	50.89
731.636	51.46
731.818	50.54
731.999	50.34
732.181	50.49
732.362	50.26
732.544	49.79
732.725	50.2
732.907	49.86
733.088	49.55
733.27	49.93
733.451	51.14
733.633	51.73
733.814	52.17
733.995	52.17
734.177	52.18
734.358	52.13
734.539	52.44
734.721	52.25
734.902	52.14
735.083	52.37
735.264	51.69
735.446	50.9
735.627	50.46
735.808	49.48
735.989	49.86
736.17	50.07
736.351	49.58
736.533	49.8
736.714	50.52
736.895	51.22
737.076	51.27
737.257	51.61
737.438	52.19
737.619	50.78
737.8	50.93
737.981	50.9
738.162	51.06
738.343	51.44
738.524	52.2
738.705	51.69
738.886	51.06
739.067	50.86
739.247	50.96
739.428	50.21
739.609	50.8
739.79	51.68
739.971	51.43
740.151	50.53
740.332	50.72
740.513	49.64
740.694	49.1
740.874	48.92
741.055	49.71
741.236	50.46
741.417	51.14
741.597	51.26
741.778	50.73
741.958	50.48
742.139	50.92
742.32	50.24
742.5	49.63
742.681	49.48
742.861	49.85
743.042	49.01
743.222	48.01
743.403	48.31
743.583	49.34
743.764	50.26
743.944	50.57
744.124	50.43
744.305	51.36
744.485	52.29
744.666	52.73
744.846	53.09
745.026	52.88
745.207	52.9
745.387	52.59
745.567	52.65
745.747	51.81
745.928	52.12
746.108	52.44
746.288	51.83
746.468	51.35
746.648	51.9
746.829	51.69
747.009	52.69
747.189	52.19
747.369	52.91
747.549	51.09
747.729	51.73
747.909	51.9
748.089	52.47
748.269	52.76
748.449	53.62
748.629	53.13
748.809	53.29
748.989	51.84
749.169	53.07
749.349	51.86
749.529	53.45
749.709	53.18
749.889	52.65
750.068	51.7
750.248	51.44
750.428	50.8
750.608	51.11
750.788	51.55
750.967	52.7
751.147	52.26
751.327	51.72
751.507	50.58
751.686	50.35
751.866	49.92
752.046	50.46
752.225	51.65
752.405	52.44
752.585	51.18
752.764	50.54
752.944	49.78
753.123	50.55
753.303	51.78
753.482	52.68
753.662	53.36
753.841	54.32
754.021	53.91
754.2	53.15
754.38	52.63
754.559	53.75
754.739	53.37
754.918	53.62
755.097	52.63
755.277	52.38
755.456	52.05
755.635	50.67
755.815	50.96
755.994	51.62
756.173	51.74
756.352	52.46
756.532	52.73
756.711	53.07
756.89	52.96
757.069	53.14
757.248	52.03
757.427	51.21
757.607	51.51
757.786	51.28
757.965	51.27
758.144	50.16
758.323	48.78
758.502	47.81
758.681	47.35
758.86	46.89
759.039	46.4
759.218	47.85
759.397	48.83
759.576	49.63
759.755	48.95
759.934	47.88
760.113	48.79
760.291	49.82
760.47	50.56
760.649	51.78
760.828	52.72
761.007	52.65
761.186	52.61
761.364	51.66
761.543	51.49
761.722	51.87
761.901	52.77
762.079	52.3
762.258	50.97
762.437	51.77
762.615	50.94
762.794	51.07
762.972	52.01
763.151	51.83
763.33	51.87
763.508	51.48
763.687	51.34
763.865	51.49
764.044	51.98
764.222	52.5
764.401	52.42
764.579	52.44
764.758	51.65
764.936	51.67
765.114	51.49
765.293	51.34
765.471	51.6
765.65	51.3
765.828	51.42
766.006	50.82
766.184	51.02
766.363	50.24
766.541	50.09
766.719	50.7
766.898	50
767.076	49.82
767.254	50.87
767.432	50.55
767.61	50.42
767.788	49.8
767.967	50.6
768.145	50.68
768.323	50.93
768.501	51.46
768.679	51.12
768.857	52.25
769.035	52.95
769.213	53.05
769.391	54.26
769.569	54.11
769.747	53.61
769.925	53
770.103	52.67
770.281	53.64
770.459	53.82
770.636	54.35
770.814	54.02
770.992	53.43
771.17	53.19
771.348	51.56
771.525	52.62
771.703	54.07
771.881	54.81
772.059	54.84
772.236	53.76
772.414	53.62
772.592	53.72
772.769	51.55
772.947	51.91
773.125	51.5
773.302	52.52
773.48	51.62
773.657	52.32
773.835	51.61
774.013	51.77
774.19	50.75
774.368	50.68
774.545	50.9
774.723	52.54
774.9	50.8
775.077	50.49
775.255	49.74
775.432	50.59
775.61	50.48
775.787	49.79
775.964	49.29
776.142	51.77
776.319	52.36
776.496	51.73
776.674	51.55
776.851	53.7
777.028	55.72
777.205	56.74
777.382	57
777.56	56.01
777.737	55.99
777.914	57.13
778.091	56.47
778.268	55.71
778.445	56.35
778.622	56.54
778.8	58.08
778.977	55.81
779.154	60.72
779.331	61.55
779.508	62.27
779.685	63.2
779.862	62.34
780.038	62.27
780.215	63.07
780.392	63.78
780.569	65.04
780.746	62.48
780.923	61.99
781.1	56.46
781.277	54.41
781.453	52.92
781.63	52.81
781.807	52.66
781.984	52.49
782.16	52.7
782.337	51.99
782.514	51.81
782.691	52.92
782.867	53.69
783.044	52.7
783.221	54.15
783.397	54.6
783.574	56.21
783.75	56.14
783.927	56.03
784.103	57.03
784.28	55.99
784.456	55.81
784.633	54.66
784.809	55.78
784.986	56.78
785.162	56.13
785.339	55.5
785.515	55.49
785.692	55.58
785.868	55.14
786.044	52.37
786.221	52.96
786.397	51.54
786.573	50.85
786.749	51.34
786.926	52.62
787.102	52.87
787.278	54.49
787.454	51.88
787.631	52.31
787.807	53.1
787.983	52.57
788.159	51.78
788.335	52.82
788.511	54.26
788.687	55.67
788.863	56.16
789.039	57.36
789.216	56.85
789.392	58.18
789.568	58.01
789.744	57.89
789.919	59.35
790.095	60.94
790.271	61.87
790.447	61.59
790.623	59.66
790.799	58.01
790.975	56.6
791.151	56.14
791.327	55.58
791.502	55.82
791.678	54.3
791.854	54.92
792.03	54.49
792.205	53.61
792.381	54.82
792.557	55.77
792.733	53.96
792.908	55.24
793.084	57.47
793.259	56.3
793.435	58.19
793.611	59.23
793.786	58.39
793.962	58.69
794.137	58.32
794.313	56.23
794.488	54.92
794.664	58.49
794.839	55.6
795.015	53.58
795.19	54.67
795.366	52.72
795.541	53.39
795.716	52.45
795.892	52.62
796.067	51.53
796.242	52.29
796.418	52.53
796.593	50.52
796.768	50.98
796.944	50.38
797.119	51.16
797.294	53.15
797.469	53
797.644	54.09
797.82	52.95
797.995	53.38
798.17	53.14
798.345	53.1
798.52	53.23
798.695	53.98
798.87	55.35
799.045	54.77
799.22	52.73
799.395	53.37
799.57	53.63
799.745	54.88
799.92	53.37
800.095	53.58
800.27	50.66
800.445	49.15
800.62	48.82
800.795	48.66
800.97	49
801.145	47.36
801.319	44.5
801.494	44.33
801.669	44.47
801.844	48.41
802.018	49.02
802.193	51.53
802.368	54.54
802.543	53.52
802.717	52.69
802.892	53.99
803.067	58.13
803.241	60.16
803.416	60.52
803.59	61.51
803.765	59.7
803.94	61.11
804.114	61.81
804.289	59.53
804.463	63.23
804.638	63.6
804.812	62.69
804.986	61.24
805.161	60.42
805.335	57.67
805.51	57.09
805.684	55.51
805.858	53.02
806.033	53.2
806.207	53.57
806.381	49.57
806.556	49.59
806.73	50.16
806.904	51.34
807.078	53.18
807.253	55.74
807.427	55.1
807.601	57.09
807.775	58.81
807.949	56.67
808.123	55.62
808.298	58.44
808.472	57.5
808.646	53.44
808.82	52.88
808.994	51.4
809.168	53.96
809.342	52.61
809.516	53.11
809.69	51.32
809.864	53.8
810.038	55.69
810.212	53.94
810.385	53.51
810.559	56.68
810.733	56.14
810.907	57
811.081	53.8
811.255	53.34
811.428	51.73
811.602	51.66
811.776	52.47
811.95	52.39
812.123	52.27
812.297	51.01
812.471	53.13
812.644	54.06
812.818	57.62
812.992	57.58
813.165	60.76
813.339	60.72
813.512	61.31
813.686	57.55
813.86	55.53
814.033	55.01
814.207	59.88
814.38	56.05
814.554	52.66
814.727	51.18
814.9	52.74
815.074	51.37
815.247	52.08
815.421	49.64
815.594	49.19
815.767	50.13
815.941	51.52
816.114	51.27
816.287	55.52
816.46	59.1
816.634	56.08
816.807	53.96
816.98	54.51
817.153	52.88
817.327	56.15
817.5	56.79
817.673	57.19
817.846	57.11
818.019	54.71
818.192	55.09
818.365	54.36
818.538	55.32
818.711	55.67
818.884	53.24
819.057	53.52
819.23	51.82
819.403	52
819.576	51.92
819.749	52.32
819.922	53.57
820.095	50.93
820.268	49.13
820.441	49.48
820.614	47.71
820.786	48.52
820.959	49.84
821.132	49.53
821.305	49.39
821.477	49.37
821.65	49.19
821.823	49.08
821.996	49.39
822.168	49.67
822.341	49.48
822.514	50.21
822.686	50.15
822.859	50.07
823.031	50.38
823.204	50.8
823.376	50.88
823.549	50.86
823.722	50.72
823.894	50.95
824.067	50.87
824.239	51.1
824.411	50.95
824.584	51.1
824.756	50.98
824.929	50.46
825.101	50.35
825.273	50.4
825.446	50.04
825.618	49.91
825.79	49.51
825.963	50.17
826.135	50.1
826.307	50.53
826.479	50.7
826.652	50.82
826.824	51.05
826.996	51.08
827.168	51.71
827.34	51.75
827.512	52.29
827.684	52.85
827.856	52.75
828.029	53.15
828.201	51.79
828.373	51.87
828.545	51.89
828.717	52.43
828.889	52.53
829.061	52.3
829.232	52.95
829.404	53.93
829.576	53.66
829.748	53.89
829.92	54.31
830.092	57.12
830.264	56.85
830.436	56.99
830.607	57.59
830.779	58.57
830.951	57.9
831.123	58.88
831.294	56.9
831.466	57.28
831.638	56.66
831.809	56.56
831.981	54.79
832.153	54.03
832.324	57
832.496	58.05
832.667	58.03
832.839	58.21
833.011	57.12
833.182	57.79
833.354	57.01
833.525	56.27
833.697	54.25
833.868	55.23
834.039	56.14
834.211	54.14
834.382	53.48
834.554	53.46
834.725	54.09
834.896	53.43
835.068	53.57
835.239	52.99
835.41	52.32
835.581	52.93
835.753	50.15
835.924	50.52
836.095	49.54
836.266	49.06
836.438	48.23
836.609	47.21
836.78	49.1
836.951	47.02
837.122	46.58
837.293	46.69
837.464	45.78
837.635	49.39
837.806	50.19
837.977	51.3
838.148	51.94
838.319	51.43
838.49	51.02
838.661	53.02
838.832	57.78
839.003	57.93
839.174	61.59
839.345	62.92
839.516	65.3
839.687	65.66
839.857	63.41
840.028	58.55
840.199	59.38
840.37	62.82
840.54	56.88
840.711	55.09
840.882	56.23
841.053	53.43
841.223	52.22
841.394	43.25
841.564	42.54
841.735	47.16
841.906	52.73
842.076	52.94
842.247	51
842.417	52.94
842.588	54.06
842.758	54.03
842.929	53.34
843.099	54.22
843.27	61.63
843.44	62.9
843.611	61.21
843.781	53.96
843.951	56.59
844.122	51.71
844.292	50.18
844.462	41.59
844.633	44.03
844.803	47.06
844.973	45.48
845.144	40.11
845.314	35.91
845.484	36.77
845.654	47.99
845.824	45.41
845.995	47.11
846.165	47.12
846.335	57.05
846.505	54.45
846.675	49.4
846.845	52.41
847.015	49.46
847.185	53.81
847.355	55.51
847.525	57.02
847.695	57.42
847.865	71.87
848.035	69.56
848.205	67.5
848.375	69.79
848.545	67.08
848.715	67.45
848.884	71.08
849.054	70.88
849.224	66.25
849.394	66.7
849.564	63.31
849.733	59.75
849.903	69.82
850.073	68.22
850.243	73.26
850.412	78
850.582	81.58
850.752	80.81
850.921	79.29
851.091	79.4
851.26	73.44
851.43	79.01
851.599	77.91
851.769	71
851.939	78.59
852.108	71.07
852.278	67.78
852.447	66.67
852.616	72.15
852.786	75.91
852.955	76.1
853.125	79.17
853.294	73.65
853.463	67.82
853.633	69.1
853.802	68.96
853.971	76.35
854.141	87.64
854.31	86.38
854.479	73.3
854.648	69.96
854.818	65.48
854.987	61.23
855.156	57.53
855.325	65.49
855.494	65.7
855.663	66.46
855.832	57.02
856.001	49.62
856.171	41.75
856.34	44.41
856.509	33.9
856.678	43.68
856.847	49.05
857.016	60.71
857.185	64.09
857.353	59.02
857.522	56.38
857.691	59.54
857.86	55.56
858.029	58.98
858.198	63.12
858.367	67.32
858.535	68.57
858.704	73.34
858.873	66.2
859.042	55.76
859.21	57.94
859.379	46.38
859.548	45.12
859.717	52.66
859.885	54.74
860.054	56.15
860.222	55.08
860.391	51.38
860.56	44.51
860.728	45.28
860.897	49.86
861.065	47.89
861.234	55.04
861.402	55.77
861.571	54.7
861.739	50.41
861.908	51.18
862.076	48.96
862.244	49.83
862.413	55.57
862.581	50.24
862.749	54.82
862.918	59.83
863.086	63.3
863.254	65.45
863.423	63.15
863.591	68.63
863.759	67.24
863.927	67.45
864.096	69.61
864.264	61.16
864.432	65.24
864.6	76.37
864.768	76.54
864.936	65.81
865.104	59.27
865.272	64.38
865.44	68.19
865.608	62.49
865.776	61.68
865.944	56.28
866.112	63.83
866.28	78.51
866.448	70.44
866.616	72.55
866.784	68.95
866.952	73.72
867.12	73.22
867.288	69.26
867.455	72.26
867.623	68.58
867.791	74.11
867.959	72.6
868.127	63.11
868.294	65.35
868.462	71.44
868.63	79.01
868.797	78.61
868.965	84.6
869.133	79.01
869.3	84.3
869.468	95.35
869.636	94.39
869.803	97.11
869.971	93.39
870.138	83.48
870.306	78.53
870.473	74.9
870.641	77.51
870.808	70.16
870.975	79.26
871.143	71.35
871.31	63.85
871.478	65.07
871.645	52.84
871.812	65.24
871.98	65.49
872.147	71.14
872.314	75.7
872.482	78.73
872.649	89.07
872.816	89.55
872.983	91.53
873.15	86.09
873.318	77.81
873.485	79.46
873.652	67.36
873.819	69.98
873.986	61.1
874.153	65.07
874.32	59.72
874.487	58.03
874.654	54.24
874.821	51.19
874.988	47.44
875.155	51.48
875.322	56.18
875.489	59.29
875.656	56.68
875.823	59.82
875.99	66.88
876.157	69.6
876.324	62.89
876.49	56.46
876.657	57.7
876.824	66.94
876.991	73.54
877.157	75.11
877.324	73.02
877.491	73.7
877.658	71.59
877.824	73.32
877.991	67.28
878.157	63.56
878.324	70.96
878.491	69.33
878.657	55.77
878.824	51.32
878.99	49.44
879.157	53.68
879.323	46.36
879.49	61.65
879.656	52.58
879.823	56.3
879.989	54.8
880.156	50.52
880.322	53.87
880.488	58.36
880.655	52.61
880.821	53.68
880.987	54.7
881.154	52.44
881.32	49.04
881.486	50
881.652	49.82
881.819	51.91
881.985	52.62
882.151	52.48
882.317	51.24
882.483	53.91
882.649	52.12
882.816	51.35
882.982	52.51
883.148	52.95
883.314	52.57
883.48	52.29
883.646	53.01
883.812	52.94
883.978	53.11
884.144	53.91
884.31	52.8
884.476	53.16
884.642	53.2
884.807	54.01
884.973	53.49
885.139	53.43
885.305	51.35
885.471	51.69
885.637	51.32
885.802	51.35
885.968	52.3
886.134	54.21
886.3	55.97
886.465	58.1
886.631	56.07
886.797	55.78
886.962	54.82
887.128	58.17
887.293	57.29
887.459	61.89
887.625	62.04
887.79	66.29
887.956	61.22
888.121	57.94
888.287	53.94
888.452	58.2
888.618	60.1
888.783	65.1
