Data from LC_210__Reflection_2.txt Node
Date: Thu Nov 19 12:16:22 EST 2015
User: robert
Spectrometer: USB4E03001
Autoset integration time: false
Trigger mode: 4
Integration Time (sec): 1.000000E-1
Scans to average: 15
Electric dark correction enabled: true
Nonlinearity correction enabled: false
Boxcar width: 5
Stray light correction enabled: false
XAxis mode: Wavelengths
Stop averaging: false
Number of Pixels in Spectrum: 3648
>>>>>Begin Spectral Data<<<<<
177.566	1802.68
177.785	-2054.66
178.005	519.57
178.225	161.74
178.445	82.97
178.665	162.16
178.885	-131.35
179.105	-1098.35
179.324	-373.48
179.544	-1018.39
179.764	354.65
179.984	1378.3
180.204	941.1
180.423	257.46
180.643	169.33
180.863	93.34
181.083	156.19
181.302	217.45
181.522	368.25
181.742	195.53
181.961	187.97
182.181	232.36
182.401	172.02
182.621	177.55
182.84	190.24
183.06	179.54
183.279	225.84
183.499	143.38
183.719	138.69
183.938	129.73
184.158	255.99
184.377	271.82
184.597	523.65
184.816	-468.99
185.036	-187.66
185.256	-43.2
185.475	6.77
185.695	24.01
185.914	7.1
186.134	-22.09
186.353	-17.28
186.572	-175.02
186.792	-118.65
187.011	873.49
187.231	603.63
187.45	455.54
187.67	300.33
187.889	305.76
188.108	2021.54
188.328	434.62
188.547	294.59
188.766	-646
188.986	7.45
189.205	19.76
189.424	15.96
189.644	-10.39
189.863	-95.81
190.082	-109.39
190.302	-110.13
190.521	-82.75
190.74	-91.11
190.959	-814.21
191.178	-926.68
191.398	-943.97
191.617	-2057.55
191.836	-1695.29
192.055	-449.24
192.274	-290.46
192.494	-26.41
192.713	-6.57
192.932	-1.22
193.151	66.55
193.37	68.76
193.589	133.63
193.808	-294.29
194.027	270.33
194.246	241.27
194.465	-336.51
194.685	1553.3
194.904	-11.07
195.123	-303.48
195.342	-11.3
195.561	143.77
195.78	1509.76
195.999	625.44
196.218	-1029.27
196.436	22276.92
196.655	-938.46
196.874	-33.74
197.093	7
197.312	-8.5
197.531	-75.03
197.75	-286.35
197.969	4.09
198.188	645.38
198.407	244.32
198.625	132.86
198.844	80.71
199.063	135.61
199.282	107.1
199.501	136
199.719	138.4
199.938	143.27
200.157	159.04
200.376	160.08
200.594	125.8
200.813	133.39
201.032	187.76
201.251	317.62
201.469	135.45
201.688	148.09
201.907	148.73
202.125	67.59
202.344	62.91
202.563	56.05
202.781	59.22
203	73.5
203.218	67.74
203.437	50.64
203.656	20.37
203.874	536.88
204.093	219.71
204.311	-160.89
204.53	-34.7
204.748	-8.07
204.967	-9.08
205.185	-9.47
205.404	-4.49
205.622	-27.08
205.841	-56.64
206.059	-178.09
206.278	-3242.6
206.496	-355.19
206.715	-1832.69
206.933	158.76
207.151	95.76
207.37	106.31
207.588	119.46
207.806	98.83
208.025	114.61
208.243	154.54
208.461	580.67
208.68	1246.68
208.898	364.31
209.116	-15238.46
209.335	735.69
209.553	-404.01
209.771	-294.3
209.989	-1060.89
210.208	-333.28
210.426	-619.8
210.644	553.66
210.862	357.94
211.081	628.41
211.299	271.88
211.517	235.34
211.735	3381.73
211.953	326.61
212.171	199.49
212.39	160.62
212.608	129.21
212.826	110.75
213.044	151.92
213.262	121.75
213.48	99.7
213.698	165.19
213.916	136.07
214.134	136.86
214.352	134.63
214.57	115.35
214.788	154.22
215.006	-1747.12
215.224	-150.83
215.442	-134.94
215.66	-32.83
215.878	-24.88
216.096	-104.66
216.314	-69.56
216.532	-46.78
216.75	-73.79
216.968	-52.77
217.185	-92.03
217.403	-53.63
217.621	-118.49
217.839	-129
218.057	-162.48
218.275	-84.49
218.492	-40.59
218.71	-26.56
218.928	-39.9
219.146	-32.24
219.363	-45.38
219.581	-34.38
219.799	-73.8
220.017	-51.81
220.234	-65.38
220.452	-94.55
220.67	-249.68
220.887	-219.3
221.105	-185.85
221.323	-115.1
221.54	-90.52
221.758	-88.4
221.976	-87.88
222.193	-30.68
222.411	-21.29
222.629	-19.32
222.846	-28.27
223.064	-29.94
223.281	-34.69
223.499	-48.33
223.716	-58.84
223.934	-68
224.151	-74.15
224.369	-78.9
224.586	-67.8
224.804	-217.77
225.021	-105.38
225.239	-89.16
225.456	-135.7
225.674	-122.92
225.891	-32.36
226.108	-5.91
226.326	-14.51
226.543	-29
226.76	-28.43
226.978	-63.82
227.195	-48.78
227.413	-52.34
227.63	-46.81
227.847	-28.49
228.064	-24.35
228.282	-16.27
228.499	-20.36
228.716	-15.9
228.934	-8.95
229.151	-3.03
229.368	0.95
229.585	2.72
229.802	5.3
230.02	10.15
230.237	7.23
230.454	10.93
230.671	8.56
230.888	8.75
231.105	11.09
231.323	9.44
231.54	8.01
231.757	6.97
231.974	1.85
232.191	6.59
232.408	5.38
232.625	7.07
232.842	4.09
233.059	0.21
233.276	0.38
233.493	-1.19
233.71	4.39
233.927	0.58
234.144	0.73
234.361	9.88
234.578	-3.55
234.795	-9.97
235.012	-6.03
235.229	-8.36
235.446	-2.22
235.663	-3.84
235.879	-2.74
236.096	-9.46
236.313	-10.55
236.53	-17.86
236.747	-18.25
236.964	-12.94
237.181	-9.11
237.397	-14.46
237.614	-13.62
237.831	-21.63
238.048	-15.85
238.264	-21.07
238.481	-13.99
238.698	-8.9
238.915	3.48
239.131	1.89
239.348	5.23
239.565	12.82
239.781	15.43
239.998	18.31
240.215	20.98
240.431	23.01
240.648	26.12
240.865	26.11
241.081	25.58
241.298	21.22
241.514	20.72
241.731	18.54
241.947	16.85
242.164	15.39
242.38	15.24
242.597	13.71
242.814	12.5
243.03	11.2
243.246	9.04
243.463	10.21
243.679	12.22
243.896	12.44
244.112	14.47
244.329	13.35
244.545	14.63
244.762	13.77
244.978	13.85
245.194	13.83
245.411	13.24
245.627	15.27
245.843	15.57
246.06	14.49
246.276	12.18
246.492	11.57
246.709	11.68
246.925	11.35
247.141	10.42
247.357	10.77
247.574	11.51
247.79	12.02
248.006	11.34
248.222	10.29
248.439	9.59
248.655	10.08
248.871	10.1
249.087	9.51
249.303	9.74
249.519	8.56
249.736	7.33
249.952	5.37
250.168	4.5
250.384	3.94
250.6	4.16
250.816	4.8
251.032	4.84
251.248	0.97
251.464	1.8
251.68	3.7
251.896	7.07
252.112	7.64
252.328	6.98
252.544	7.58
252.76	7.69
252.976	8.54
253.192	7.82
253.408	6.41
253.624	8.34
253.84	7.24
254.056	6.83
254.272	5.81
254.487	3.76
254.703	6.07
254.919	4
255.135	7.4
255.351	5.97
255.567	8.47
255.782	8.64
255.998	8.25
256.214	9.39
256.43	8.93
256.646	11.58
256.861	12.93
257.077	12.6
257.293	15.05
257.508	13.07
257.724	14.21
257.94	12.48
258.155	12.98
258.371	12.76
258.587	11.49
258.802	10.34
259.018	9.64
259.234	10.36
259.449	10.42
259.665	9.53
259.88	9.34
260.096	8.57
260.312	8.03
260.527	8.07
260.743	8.1
260.958	8.72
261.174	8.28
261.389	7.82
261.605	6.91
261.82	7.35
262.036	6.94
262.251	5.91
262.466	5.91
262.682	6.1
262.897	6.09
263.113	8.12
263.328	7.64
263.543	7.39
263.759	7.09
263.974	6.63
264.189	2.99
264.405	3.48
264.62	4.27
264.835	3.53
265.051	3.08
265.266	1.81
265.481	-2.58
265.696	-2.2
265.912	-0.89
266.127	0.49
266.342	1.92
266.557	3.17
266.773	3.95
266.988	4.99
267.203	6.14
267.418	7.21
267.633	8.92
267.848	9.55
268.064	8.91
268.279	9.21
268.494	8.73
268.709	8.58
268.924	8.73
269.139	8.25
269.354	6.85
269.569	6.2
269.784	4.58
269.999	4.49
270.214	5.02
270.429	6.54
270.644	6.29
270.859	7.86
271.074	8.01
271.289	8.71
271.504	9.06
271.719	10.79
271.934	10.17
272.149	10.88
272.363	10.9
272.578	10.46
272.793	10.07
273.008	10.76
273.223	9.22
273.438	9.4
273.653	8.06
273.867	8.7
274.082	8
274.297	9.6
274.512	9.78
274.726	9.04
274.941	10.47
275.156	9.26
275.371	8.96
275.585	8.88
275.8	8.04
276.015	9.4
276.229	9.66
276.444	10.38
276.659	9.35
276.873	7.17
277.088	6.89
277.302	7.17
277.517	8.11
277.732	8.17
277.946	7.7
278.161	9.3
278.375	9.43
278.59	7.29
278.804	4.59
279.019	5.05
279.233	7.52
279.448	6.96
279.662	6
279.877	7.32
280.091	6.65
280.306	8.97
280.52	8.24
280.735	8.35
280.949	9.77
281.163	9.97
281.378	9.95
281.592	9.27
281.806	9.04
282.021	10.02
282.235	8.22
282.449	7.97
282.664	7.73
282.878	7.37
283.092	7.76
283.307	7.61
283.521	8.4
283.735	7.78
283.949	8.07
284.164	9.35
284.378	7.45
284.592	8.87
284.806	10.67
285.02	8.3
285.234	7.89
285.449	7.27
285.663	6.41
285.877	5.94
286.091	6.1
286.305	6.16
286.519	5.96
286.733	6.16
286.947	5.93
287.161	3.52
287.375	4.67
287.589	4.62
287.803	3.92
288.017	4.7
288.231	4.28
288.445	4.01
288.659	3.44
288.873	4.34
289.087	6.27
289.301	5.26
289.515	5.85
289.729	6.43
289.943	5.95
290.157	7.43
290.371	7.62
290.584	8.43
290.798	8.39
291.012	9.41
291.226	8.33
291.44	7.19
291.654	8.08
291.867	9.16
292.081	9
292.295	9.18
292.509	8.81
292.722	8.41
292.936	8.28
293.15	10.44
293.364	9.54
293.577	9.02
293.791	10.15
294.005	10.17
294.218	9.95
294.432	10.78
294.645	11.02
294.859	10.75
295.073	9.89
295.286	10.19
295.5	8.65
295.713	9.85
295.927	9.81
296.14	8.83
296.354	8.48
296.568	8.39
296.781	8.29
296.994	8.26
297.208	8.45
297.421	9.08
297.635	9.16
297.848	9.39
298.062	9.15
298.275	10.04
298.489	10.08
298.702	9.71
298.915	9.71
299.129	9.41
299.342	9.49
299.555	9.74
299.769	11.2
299.982	11.44
300.195	11
300.409	10.37
300.622	10.31
300.835	8.97
301.048	9.77
301.262	10.03
301.475	10.1
301.688	10.37
301.901	10.01
302.115	9.4
302.328	9.11
302.541	10.14
302.754	9.95
302.967	9.28
303.18	11.03
303.393	10.5
303.607	9.82
303.82	11.83
304.033	12.1
304.246	13.07
304.459	11.9
304.672	12.71
304.885	11.11
305.098	11.5
305.311	11.73
305.524	12.52
305.737	13.59
305.95	14.32
306.163	10.96
306.376	11.65
306.589	10.75
306.802	9.38
307.015	8.51
307.228	9.43
307.44	7.75
307.653	8.09
307.866	7.75
308.079	6.62
308.292	7.18
308.505	8.53
308.718	8.95
308.93	9.32
309.143	11.64
309.356	10.19
309.569	10.1
309.781	11.56
309.994	11.29
310.207	12.16
310.42	12.58
310.632	11.63
310.845	11.9
311.058	9.83
311.27	9.9
311.483	9.01
311.696	9.81
311.908	9.94
312.121	9.77
312.333	9.07
312.546	7.15
312.759	6.91
312.971	8.27
313.184	7.77
313.396	9.06
313.609	7.69
313.821	8.73
314.034	8.19
314.246	7.66
314.459	7.16
314.671	8.41
314.884	7.77
315.096	6.43
315.309	4.19
315.521	3.66
315.733	3.54
315.946	4.74
316.158	3.64
316.371	4.96
316.583	5.87
316.795	5.4
317.008	5.05
317.22	5.77
317.432	6.34
317.644	6.76
317.857	7.82
318.069	7.53
318.281	8.67
318.494	8.57
318.706	8.11
318.918	8.06
319.13	8.96
319.342	8.58
319.555	9.67
319.767	10.33
319.979	10.81
320.191	10.96
320.403	13.41
320.615	9.62
320.827	9.69
321.039	9.07
321.252	7.02
321.464	4.89
321.676	5.32
321.888	3.88
322.1	2.98
322.312	4.13
322.524	4.07
322.736	1.93
322.948	3
323.16	2.95
323.372	4.02
323.584	5.11
323.796	4.83
324.007	5.1
324.219	6
324.431	7.07
324.643	6.11
324.855	5.13
325.067	5.53
325.279	6.66
325.491	6.98
325.702	6.18
325.914	6.04
326.126	8.28
326.338	8.79
326.55	9.45
326.761	9.45
326.973	9.2
327.185	9.47
327.396	8.35
327.608	7.3
327.82	7.57
328.032	8.65
328.243	9.02
328.455	8.98
328.666	8.19
328.878	7.37
329.09	7.29
329.301	8.05
329.513	9.49
329.725	10.41
329.936	9.92
330.148	10.19
330.359	10.09
330.571	11.74
330.782	11.98
330.994	11.84
331.205	12.25
331.417	11.76
331.628	11.21
331.84	10.62
332.051	11.89
332.262	12.79
332.474	11.14
332.685	11.7
332.897	10.25
333.108	9.93
333.319	10.52
333.531	9.56
333.742	10.53
333.953	11.16
334.165	10.43
334.376	8.95
334.587	10.02
334.799	11.48
335.01	10.1
335.221	10.47
335.432	10.38
335.644	10.3
335.855	11.4
336.066	10.74
336.277	10.87
336.488	11.75
336.7	12.11
336.911	12.09
337.122	10.67
337.333	10.29
337.544	9.91
337.755	9.75
337.966	9.8
338.177	9.69
338.388	9.66
338.599	8.99
338.811	8.43
339.022	8.75
339.233	9.03
339.444	9.99
339.655	9.97
339.866	10.34
340.076	10.49
340.287	10.73
340.498	10.27
340.709	11.13
340.92	11.94
341.131	11.93
341.342	11.68
341.553	11.24
341.764	11.7
341.975	12.64
342.185	12.2
342.396	12.33
342.607	11.84
342.818	11.83
343.029	10.77
343.239	9.91
343.45	9.61
343.661	9.22
343.872	8.16
344.082	7.57
344.293	7.53
344.504	9.41
344.714	9.56
344.925	9.95
345.136	9.98
345.346	10.15
345.557	10.44
345.768	10.99
345.978	11.44
346.189	11.77
346.399	11.7
346.61	11.59
346.821	10.24
347.031	9.74
347.242	8.69
347.452	8.77
347.663	8.52
347.873	8.71
348.084	7.93
348.294	7.51
348.504	8.26
348.715	8.69
348.925	8.31
349.136	7.39
349.346	7.51
349.557	7.64
349.767	8.1
349.977	9.14
350.188	8.78
350.398	8.73
350.608	9.39
350.819	7.94
351.029	7.46
351.239	7.58
351.449	8.68
351.66	8.27
351.87	8.65
352.08	8.52
352.29	8.25
352.501	7.93
352.711	8.22
352.921	7.37
353.131	8.66
353.341	9.09
353.552	9.33
353.762	9.15
353.972	9.69
354.182	9.74
354.392	9.09
354.602	9.3
354.812	9.76
355.022	9.98
355.232	10.25
355.442	10.55
355.652	10.08
355.862	9.31
356.072	8.81
356.282	8.49
356.492	7.95
356.702	8.42
356.912	8.62
357.122	8.24
357.332	8.33
357.542	8.26
357.752	8.12
357.962	8.03
358.171	8.89
358.381	8.52
358.591	8.4
358.801	9.47
359.011	9.92
359.221	8.98
359.43	9.46
359.64	9.44
359.85	9.93
360.06	9.82
360.269	10.15
360.479	10.25
360.689	10.59
360.899	10.76
361.108	10.61
361.318	9.91
361.528	9.91
361.737	10.31
361.947	10.21
362.156	9.46
362.366	8.79
362.576	9.03
362.785	8.68
362.995	8.78
363.204	8.85
363.414	8.26
363.623	8.08
363.833	8.36
364.042	7.38
364.252	7.63
364.461	7.95
364.671	8.73
364.88	8.09
365.09	8.14
365.299	7.7
365.509	7.56
365.718	7.85
365.927	8.68
366.137	8.71
366.346	8.02
366.555	7.07
366.765	7.05
366.974	6.98
367.183	7.41
367.393	7.03
367.602	6.87
367.811	6.27
368.021	5.62
368.23	4.73
368.439	4.46
368.648	5.32
368.857	5.75
369.067	5.26
369.276	5.12
369.485	4.45
369.694	5.07
369.903	5.85
370.112	6.53
370.321	6.71
370.531	7.22
370.74	7.28
370.949	7.7
371.158	7.76
371.367	8.21
371.576	7.99
371.785	7.78
371.994	7.21
372.203	7.2
372.412	7.58
372.621	7.9
372.83	7.72
373.039	7.51
373.248	7.24
373.457	7.41
373.666	7.16
373.874	6.69
374.083	7.05
374.292	7.68
374.501	7.33
374.71	6.97
374.919	6.97
375.128	6.35
375.336	6.57
375.545	6.62
375.754	6.23
375.963	6.45
376.171	7.11
376.38	7.21
376.589	6.73
376.798	6.49
377.006	7.09
377.215	6.58
377.424	7.06
377.632	7.05
377.841	6.94
378.05	7.45
378.258	7.19
378.467	6.72
378.675	6.43
378.884	6.35
379.093	6.86
379.301	6.05
379.51	5.96
379.718	6.03
379.927	5.83
380.135	6.04
380.344	5.57
380.552	5.73
380.761	5.83
380.969	6.46
381.177	6.61
381.386	6.78
381.594	7.14
381.803	7.89
382.011	8.02
382.219	8.04
382.428	7.9
382.636	7.63
382.845	7.34
383.053	7.56
383.261	7.47
383.469	7.55
383.678	6.82
383.886	6.25
384.094	6.16
384.302	5.8
384.511	5.77
384.719	5.32
384.927	5.44
385.135	5.58
385.343	5.68
385.552	5.25
385.76	5.14
385.968	5.71
386.176	5.91
386.384	5.52
386.592	5.5
386.8	5.29
387.008	5.7
387.216	5.73
387.424	6.16
387.633	6.09
387.841	6.45
388.049	6.74
388.257	6.14
388.465	6.12
388.672	6.27
388.88	6.16
389.088	6.46
389.296	6.37
389.504	6.58
389.712	6.41
389.92	6.59
390.128	6.19
390.336	5.78
390.544	6.12
390.751	6.31
390.959	6.41
391.167	6.61
391.375	6.61
391.583	6.6
391.79	6.69
391.998	6.3
392.206	6.04
392.414	6.06
392.621	6.17
392.829	6.21
393.037	6.28
393.244	6.2
393.452	5.89
393.66	5.51
393.867	5.37
394.075	5.04
394.283	5.46
394.49	5.21
394.698	5.64
394.905	5.56
395.113	5.42
395.32	5.16
395.528	4.83
395.735	5.04
395.943	5.39
396.15	5.3
396.358	5.31
396.565	4.75
396.773	4.9
396.98	4.28
397.188	4.51
397.395	4.43
397.602	4.26
397.81	4.51
398.017	4.6
398.225	4.8
398.432	5.12
398.639	5.15
398.847	5.41
399.054	5.21
399.261	5.48
399.468	5.04
399.676	4.97
399.883	5.13
400.09	5.03
400.297	4.98
400.505	4.79
400.712	4.75
400.919	4.72
401.126	4.66
401.333	5.07
401.54	4.95
401.748	5.4
401.955	5.53
402.162	5.29
402.369	5.48
402.576	5.41
402.783	5.48
402.99	5.24
403.197	5.25
403.404	5.25
403.611	5.15
403.818	5.43
404.025	5.16
404.232	5.13
404.439	5.45
404.646	5.23
404.853	5.32
405.06	4.99
405.267	5.05
405.474	5.16
405.681	5.2
405.887	5.16
406.094	5.17
406.301	5.36
406.508	5.14
406.715	5.1
406.922	5.36
407.128	5.31
407.335	5.38
407.542	5.48
407.749	5.37
407.955	5.41
408.162	5.3
408.369	5.18
408.575	5.11
408.782	5.24
408.989	5.01
409.195	4.89
409.402	4.73
409.609	4.95
409.815	4.92
410.022	5.06
410.228	5.07
410.435	4.9
410.642	4.85
410.848	4.8
411.055	4.5
411.261	4.57
411.468	4.76
411.674	4.83
411.881	4.71
412.087	4.89
412.294	4.81
412.5	4.85
412.706	4.92
412.913	4.73
413.119	4.67
413.326	5.34
413.532	5.52
413.738	5.23
413.945	5.05
414.151	5.01
414.357	4.71
414.564	4.69
414.77	4.62
414.976	4.81
415.182	5.12
415.389	5.1
415.595	4.67
415.801	4.67
416.007	4.91
416.214	4.88
416.42	5.12
416.626	5.05
416.832	5.04
417.038	5.03
417.244	5.21
417.45	5.07
417.657	5.22
417.863	5.29
418.069	5.13
418.275	5.24
418.481	5.34
418.687	5.25
418.893	5.38
419.099	5.45
419.305	5.43
419.511	5.15
419.717	5.07
419.923	5.05
420.129	5.05
420.335	5.03
420.541	4.86
420.746	5.03
420.952	4.96
421.158	4.94
421.364	4.87
421.57	4.88
421.776	5
421.982	5.01
422.187	4.88
422.393	4.9
422.599	4.84
422.805	4.95
423.01	4.73
423.216	4.67
423.422	4.64
423.628	4.69
423.833	4.8
424.039	4.93
424.245	4.96
424.45	5
424.656	5.1
424.862	5.23
425.067	5.12
425.273	5.1
425.478	5.14
425.684	5.22
425.889	5.31
426.095	5.2
426.301	5.01
426.506	5.07
426.712	5.04
426.917	4.85
427.123	4.71
427.328	4.69
427.533	4.83
427.739	4.96
427.944	4.9
428.15	4.58
428.355	4.69
428.561	4.63
428.766	4.6
428.971	4.61
429.177	4.72
429.382	4.8
429.587	4.75
429.793	4.79
429.998	4.68
430.203	4.43
430.408	4.52
430.614	4.33
430.819	4.3
431.024	4.19
431.229	4.37
431.434	4.44
431.64	4.42
431.845	4.54
432.05	4.65
432.255	4.59
432.46	4.73
432.665	4.73
432.87	4.91
433.076	5.03
433.281	5.09
433.486	5.04
433.691	4.92
433.896	4.8
434.101	4.67
434.306	4.69
434.511	4.65
434.716	4.6
434.921	4.68
435.126	4.65
435.331	4.6
435.535	4.54
435.74	4.52
435.945	4.63
436.15	4.95
436.355	4.96
436.56	4.78
436.765	4.95
436.97	5.09
437.174	5.11
437.379	4.95
437.584	5.05
437.789	5.12
437.993	5.19
438.198	5.05
438.403	4.99
438.608	5.2
438.812	5.26
439.017	5.31
439.222	5.29
439.426	5.12
439.631	5.01
439.836	4.94
440.04	4.87
440.245	4.88
440.45	4.96
440.654	5.09
440.859	4.92
441.063	4.78
441.268	4.72
441.472	4.76
441.677	4.83
441.881	5.05
442.086	5.14
442.29	5.15
442.495	5.12
442.699	5.16
442.904	4.9
443.108	4.83
443.312	4.89
443.517	4.68
443.721	4.76
443.925	4.78
444.13	4.81
444.334	4.64
444.538	4.74
444.743	4.75
444.947	4.81
445.151	4.67
445.356	4.9
445.56	4.89
445.764	5.1
445.968	5
446.173	5.07
446.377	4.97
446.581	5.04
446.785	4.97
446.989	4.94
447.193	4.84
447.398	4.99
447.602	4.94
447.806	5.02
448.01	4.87
448.214	4.92
448.418	4.82
448.622	4.76
448.826	4.66
449.03	4.69
449.234	4.61
449.438	4.64
449.642	4.63
449.846	4.61
450.05	4.45
450.254	4.43
450.458	4.27
450.662	4.21
450.866	4.26
451.069	4.55
451.273	4.46
451.477	4.38
451.681	4.32
451.885	4.35
452.089	4.39
452.292	4.39
452.496	4.63
452.7	4.64
452.904	4.69
453.107	4.73
453.311	4.54
453.515	4.53
453.719	4.71
453.922	4.62
454.126	4.56
454.33	4.34
454.533	4.46
454.737	4.24
454.94	4.28
455.144	4.41
455.348	4.47
455.551	4.59
455.755	4.65
455.958	4.58
456.162	4.67
456.365	4.69
456.569	4.99
456.772	5.11
456.976	5.19
457.179	5.28
457.383	5.24
457.586	5.1
457.79	4.87
457.993	4.95
458.196	4.96
458.4	4.93
458.603	4.89
458.807	4.67
459.01	4.68
459.213	4.64
459.417	4.58
459.62	4.52
459.823	4.67
460.026	4.72
460.23	4.61
460.433	4.67
460.636	4.73
460.839	4.72
461.042	4.84
461.246	4.71
461.449	4.66
461.652	4.67
461.855	4.58
462.058	4.35
462.261	4.4
462.464	4.55
462.668	4.36
462.871	4.36
463.074	4.46
463.277	4.51
463.48	4.68
463.683	4.86
463.886	4.78
464.089	4.9
464.292	5.02
464.495	5.03
464.698	4.78
464.901	4.96
465.104	4.93
465.306	4.85
465.509	4.73
465.712	4.64
465.915	4.54
466.118	4.54
466.321	4.52
466.524	4.5
466.726	4.53
466.929	4.66
467.132	4.59
467.335	4.51
467.538	4.54
467.74	4.63
467.943	4.57
468.146	4.54
468.348	4.49
468.551	4.49
468.754	4.46
468.956	4.18
469.159	4.22
469.362	4.17
469.564	4.26
469.767	4.2
469.969	4.1
470.172	4.1
470.375	4.23
470.577	4.25
470.78	4.23
470.982	4.38
471.185	4.47
471.387	4.38
471.59	4.4
471.792	4.32
471.995	4.32
472.197	4.37
472.399	4.35
472.602	4.39
472.804	4.53
473.007	4.65
473.209	4.54
473.411	4.7
473.614	4.81
473.816	4.92
474.018	5.04
474.22	4.95
474.423	4.85
474.625	4.88
474.827	4.88
475.03	4.75
475.232	4.62
475.434	4.63
475.636	4.49
475.838	4.55
476.04	4.41
476.243	4.56
476.445	4.75
476.647	4.85
476.849	4.83
477.051	4.79
477.253	4.76
477.455	4.76
477.657	4.78
477.859	4.95
478.061	4.89
478.263	5.01
478.465	4.91
478.667	4.88
478.869	4.94
479.071	4.95
479.273	5
479.475	4.96
479.677	5.07
479.879	5.03
480.081	4.89
480.283	4.8
480.485	4.72
480.686	4.76
480.888	4.66
481.09	4.49
481.292	4.52
481.494	4.56
481.695	4.64
481.897	4.53
482.099	4.63
482.301	4.73
482.502	4.77
482.704	4.83
482.906	4.79
483.107	4.91
483.309	4.92
483.511	4.87
483.712	4.8
483.914	4.84
484.115	4.87
484.317	4.83
484.519	4.81
484.72	4.79
484.922	4.74
485.123	4.72
485.325	4.65
485.526	4.66
485.728	4.64
485.929	4.66
486.131	4.66
486.332	4.58
486.534	4.59
486.735	4.63
486.936	4.69
487.138	4.71
487.339	4.77
487.541	4.76
487.742	4.7
487.943	4.73
488.144	4.77
488.346	4.73
488.547	4.8
488.748	4.74
488.95	4.7
489.151	4.64
489.352	4.63
489.553	4.57
489.755	4.57
489.956	4.63
490.157	4.65
490.358	4.6
490.559	4.59
490.76	4.62
490.961	4.74
491.163	4.73
491.364	4.75
491.565	4.7
491.766	4.74
491.967	4.72
492.168	4.74
492.369	4.79
492.57	4.84
492.771	4.84
492.972	4.79
493.173	4.78
493.374	4.84
493.575	4.8
493.776	4.87
493.976	4.85
494.177	4.82
494.378	4.71
494.579	4.53
494.78	4.48
494.981	4.5
495.182	4.59
495.382	4.64
495.583	4.73
495.784	4.76
495.985	4.76
496.185	4.71
496.386	4.83
496.587	4.98
496.788	5.05
496.988	5.06
497.189	5.19
497.39	5.25
497.59	5.12
497.791	4.97
497.992	5.04
498.192	5.07
498.393	5.12
498.593	5.2
498.794	5.05
498.994	5.07
499.195	5.05
499.395	4.89
499.596	4.83
499.796	4.84
499.997	4.95
500.197	4.98
500.398	4.93
500.598	5.01
500.799	4.88
500.999	4.98
501.199	4.98
501.4	5
501.6	4.95
501.801	4.87
502.001	4.88
502.201	4.89
502.402	4.62
502.602	4.74
502.802	4.61
503.002	4.77
503.203	4.77
503.403	4.74
503.603	4.81
503.803	4.98
504.003	4.99
504.204	4.86
504.404	4.77
504.604	4.94
504.804	4.92
505.004	4.95
505.204	5.02
505.404	5.05
505.604	5.15
505.804	5.11
506.005	5.04
506.205	5.06
506.405	5.3
506.605	5.28
506.805	5.27
507.005	5.28
507.204	5.3
507.404	5.19
507.604	5.34
507.804	5.35
508.004	5.32
508.204	5.49
508.404	5.54
508.604	5.5
508.804	5.61
509.003	5.8
509.203	5.74
509.403	5.74
509.603	5.78
509.803	5.69
510.002	5.65
510.202	5.78
510.402	5.77
510.602	5.83
510.801	5.84
511.001	5.92
511.201	6
511.4	6.06
511.6	6.05
511.8	6.16
511.999	6.25
512.199	6.28
512.398	6.25
512.598	6.2
512.797	6.24
512.997	6.29
513.197	6.27
513.396	6.21
513.596	6.26
513.795	6.34
513.994	6.23
514.194	6.14
514.393	6.08
514.593	6.05
514.792	5.98
514.992	6.05
515.191	5.95
515.39	5.94
515.59	5.88
515.789	5.89
515.988	5.91
516.188	5.91
516.387	5.99
516.586	6.05
516.786	6.17
516.985	6.3
517.184	6.38
517.383	6.41
517.582	6.55
517.782	6.6
517.981	6.6
518.18	6.64
518.379	6.69
518.578	6.77
518.777	6.86
518.976	6.96
519.176	6.91
519.375	6.72
519.574	6.8
519.773	6.71
519.972	6.74
520.171	6.83
520.37	6.85
520.569	6.89
520.768	6.8
520.967	6.8
521.166	6.58
521.365	6.64
521.564	6.71
521.762	6.79
521.961	6.82
522.16	6.8
522.359	6.84
522.558	6.79
522.757	6.84
522.956	6.87
523.154	6.93
523.353	7.04
523.552	7.03
523.751	7.15
523.949	7.18
524.148	7.16
524.347	7.23
524.546	7.2
524.744	7.23
524.943	7.14
525.142	7.13
525.34	7.2
525.539	7.22
525.737	7.32
525.936	7.28
526.135	7.28
526.333	7.32
526.532	7.26
526.73	7.36
526.929	7.38
527.127	7.32
527.326	7.4
527.524	7.41
527.723	7.38
527.921	7.33
528.12	7.38
528.318	7.46
528.516	7.53
528.715	7.66
528.913	7.63
529.112	7.64
529.31	7.74
529.508	7.75
529.707	7.75
529.905	7.81
530.103	7.93
530.301	7.97
530.5	7.92
530.698	7.87
530.896	7.73
531.094	7.72
531.293	7.77
531.491	7.82
531.689	7.88
531.887	7.9
532.085	7.95
532.283	7.91
532.481	7.9
532.68	7.91
532.878	7.86
533.076	7.97
533.274	8.07
533.472	8.09
533.67	8.04
533.868	8.05
534.066	8.16
534.264	8.24
534.462	8.28
534.66	8.37
534.858	8.36
535.056	8.45
535.253	8.44
535.451	8.48
535.649	8.62
535.847	8.78
536.045	8.81
536.243	8.72
536.441	8.64
536.638	8.58
536.836	8.61
537.034	8.84
537.232	8.88
537.43	8.96
537.627	8.82
537.825	8.78
538.023	8.73
538.22	8.69
538.418	8.78
538.616	8.68
538.813	8.78
539.011	8.84
539.209	8.69
539.406	8.71
539.604	8.72
539.801	8.87
539.999	8.92
540.196	9.04
540.394	9.17
540.591	9.18
540.789	9.31
540.986	9.32
541.184	9.28
541.381	9.41
541.579	9.44
541.776	9.4
541.974	9.4
542.171	9.49
542.368	9.43
542.566	9.44
542.763	9.54
542.96	9.52
543.158	9.54
543.355	9.55
543.552	9.51
543.75	9.62
543.947	9.75
544.144	9.89
544.341	9.81
544.539	9.9
544.736	9.92
544.933	9.83
545.13	9.89
545.327	9.97
545.524	9.96
545.722	9.98
545.919	9.95
546.116	10.02
546.313	10.19
546.51	10.22
546.707	10.23
546.904	10.31
547.101	10.42
547.298	10.72
547.495	10.68
547.692	10.77
547.889	10.87
548.086	10.98
548.283	11
548.48	10.71
548.677	10.63
548.874	10.64
549.07	10.68
549.267	10.64
549.464	10.38
549.661	10.48
549.858	10.48
550.055	10.45
550.251	10.52
550.448	10.46
550.645	10.74
550.842	11.1
551.038	11.29
551.235	11.21
551.432	11.17
551.628	11.21
551.825	11.42
552.022	11.5
552.218	11.63
552.415	11.6
552.612	11.95
552.808	11.94
553.005	11.82
553.201	11.81
553.398	11.93
553.594	12.04
553.791	12.15
553.987	11.95
554.184	12.08
554.38	12.12
554.577	12.09
554.773	12.05
554.97	12.1
555.166	12.22
555.362	12.35
555.559	12.35
555.755	12.53
555.952	12.66
556.148	12.97
556.344	12.88
556.541	12.96
556.737	13.14
556.933	13.23
557.129	13.32
557.326	13.56
557.522	13.71
557.718	14.04
557.914	13.89
558.11	13.87
558.307	13.53
558.503	13.72
558.699	13.67
558.895	13.7
559.091	13.65
559.287	13.75
559.483	13.82
559.679	13.87
559.876	13.79
560.072	14.01
560.268	14.25
560.464	14.58
560.66	14.83
560.856	15
561.052	15.12
561.247	15.24
561.443	15.39
561.639	15.45
561.835	15.24
562.031	15.26
562.227	15.36
562.423	15.36
562.619	15.5
562.815	15.32
563.01	15.32
563.206	15.37
563.402	15.43
563.598	15.49
563.793	15.39
563.989	15.57
564.185	15.72
564.381	15.64
564.576	15.79
564.772	15.88
564.968	15.95
565.163	16.11
565.359	16.24
565.555	16.4
565.75	16.43
565.946	16.62
566.141	16.57
566.337	16.72
566.532	16.9
566.728	16.86
566.923	16.92
567.119	17.03
567.314	17.09
567.51	16.97
567.705	16.88
567.901	16.78
568.096	16.84
568.292	17.07
568.487	16.92
568.682	17.07
568.878	17.1
569.073	17.23
569.268	17.39
569.464	17.49
569.659	17.84
569.854	18.01
570.05	18.21
570.245	18.34
570.44	18.35
570.635	18.33
570.831	18.33
571.026	18.38
571.221	18.28
571.416	18.3
571.611	18.29
571.806	18.08
572.002	18.16
572.197	18.15
572.392	18.18
572.587	18.27
572.782	18.45
572.977	18.36
573.172	18.39
573.367	18.54
573.562	18.82
573.757	18.93
573.952	19.17
574.147	19.21
574.342	19.34
574.537	19.16
574.732	19.29
574.927	19.42
575.121	19.66
575.316	19.7
575.511	19.69
575.706	19.63
575.901	19.53
576.096	19.58
576.29	19.66
576.485	19.7
576.68	19.8
576.875	19.96
577.069	19.94
577.264	20.05
577.459	20.21
577.654	20.51
577.848	20.4
578.043	20.73
578.238	20.74
578.432	20.87
578.627	20.78
578.821	21.15
579.016	21.33
579.21	21.51
579.405	21.35
579.6	21.65
579.794	21.48
579.989	21.54
580.183	21.29
580.378	21.48
580.572	21.22
580.766	21.54
580.961	21.38
581.155	21.09
581.35	21.23
581.544	21.56
581.738	21.39
581.933	21.57
582.127	21.75
582.321	21.9
582.516	21.74
582.71	22.07
582.904	22.11
583.099	22.21
583.293	22.3
583.487	21.97
583.681	21.89
583.875	21.85
584.07	21.75
584.264	21.68
584.458	21.64
584.652	21.79
584.846	21.92
585.04	22.05
585.234	21.99
585.428	22.04
585.623	22.33
585.817	22.17
586.011	22.4
586.205	22.58
586.399	22.84
586.593	23.13
586.787	23.06
586.981	23.03
587.174	22.77
587.368	22.77
587.562	22.91
587.756	22.9
587.95	22.9
588.144	22.86
588.338	22.88
588.532	22.85
588.725	22.79
588.919	22.97
589.113	22.96
589.307	23.1
589.501	23.23
589.694	23.05
589.888	23.18
590.082	23.53
590.275	23.77
590.469	23.96
590.663	23.95
590.856	24.07
591.05	24.22
591.244	24.5
591.437	24.83
591.631	24.75
591.824	24.85
592.018	24.85
592.212	24.72
592.405	24.67
592.599	24.45
592.792	24.39
592.986	24.34
593.179	24.43
593.372	24.23
593.566	23.8
593.759	24.2
593.953	24.6
594.146	24.52
594.339	24.77
594.533	24.72
594.726	24.98
594.92	25.22
595.113	25.34
595.306	25.28
595.499	25.48
595.693	25.82
595.886	25.69
596.079	25.39
596.272	25.72
596.466	25.64
596.659	25.78
596.852	25.64
597.045	25.47
597.238	25.52
597.431	25.59
597.624	25.55
597.818	25.46
598.011	25.52
598.204	25.6
598.397	25.48
598.59	25.6
598.783	25.56
598.976	25.81
599.169	25.99
599.362	26
599.555	26.01
599.748	26.08
599.941	26.11
600.134	26.24
600.326	26.49
600.519	26.37
600.712	26.29
600.905	26.4
601.098	26.46
601.291	26.48
601.483	26.34
601.676	26.14
601.869	26.22
602.062	26.09
602.255	26.1
602.447	26.11
602.64	26.26
602.833	26.46
603.025	26.7
603.218	26.53
603.411	26.59
603.603	26.79
603.796	26.93
603.989	26.9
604.181	27.3
604.374	27.35
604.566	27.31
604.759	27.46
604.951	27.41
605.144	27.3
605.336	27.42
605.529	27.43
605.721	27.37
605.914	27.38
606.106	27.46
606.299	27.14
606.491	27.14
606.683	27.17
606.876	27.09
607.068	27.17
607.26	26.88
607.453	26.91
607.645	27
607.837	27.12
608.03	27.32
608.222	27.37
608.414	27.75
608.606	27.68
608.799	28
608.991	27.9
609.183	27.75
609.375	27.78
609.567	27.85
609.759	27.83
609.952	27.97
610.144	27.95
610.336	27.94
610.528	27.91
610.72	27.99
610.912	27.73
611.104	28
611.296	28.14
611.488	28.54
611.68	28.43
611.872	28.44
612.064	28.34
612.256	28.53
612.448	28.46
612.64	28.4
612.832	28.33
613.023	28.33
613.215	28.06
613.407	28.16
613.599	28.02
613.791	28.09
613.983	27.95
614.174	27.78
614.366	27.8
614.558	27.68
614.75	27.61
614.941	27.94
615.133	28.15
615.325	28.28
615.516	28.2
615.708	28.44
615.9	28.46
616.091	28.68
616.283	28.81
616.475	28.45
616.666	28.71
616.858	28.62
617.049	28.14
617.241	28.22
617.432	28.26
617.624	28.35
617.815	28.15
618.007	28.28
618.198	28.44
618.39	28.74
618.581	28.96
618.773	29.25
618.964	29.57
619.155	29.94
619.347	29.87
619.538	29.69
619.729	29.76
619.921	29.77
620.112	30.01
620.303	29.93
620.494	29.93
620.686	29.92
620.877	29.78
621.068	29.7
621.259	29.92
621.451	29.95
621.642	30.4
621.833	30.48
622.024	30.59
622.215	30.39
622.406	30.62
622.597	30.47
622.788	30.5
622.98	30.45
623.171	30.52
623.362	30.41
623.553	30.52
623.744	30.43
623.935	30.34
624.126	30.6
624.317	30.52
624.508	30.39
624.698	30.56
624.889	30.63
625.08	30.57
625.271	30.56
625.462	30.5
625.653	30.35
625.844	30.18
626.034	30.24
626.225	30
626.416	29.99
626.607	30.27
626.798	30.11
626.988	30.26
627.179	30.51
627.37	30.44
627.56	30.56
627.751	30.87
627.942	31.07
628.132	31.04
628.323	31.25
628.514	31.42
628.704	31.16
628.895	31.1
629.085	30.97
629.276	30.66
629.466	30.99
629.657	30.98
629.847	30.55
630.038	30.76
630.228	30.93
630.419	30.81
630.609	30.62
630.8	30.8
630.99	31.05
631.181	31.07
631.371	31.22
631.561	31.02
631.752	30.96
631.942	31.14
632.132	30.63
632.323	30.46
632.513	30.72
632.703	30.76
632.893	30.72
633.084	30.85
633.274	30.88
633.464	30.98
633.654	30.97
633.844	30.9
634.034	30.85
634.225	31.27
634.415	31.55
634.605	31.41
634.795	31.51
634.985	31.49
635.175	31.16
635.365	31.07
635.555	31.11
635.745	31.27
635.935	31.49
636.125	31.62
636.315	31.27
636.505	31.28
636.695	31.3
636.885	31.06
637.075	31.17
637.265	31.77
637.455	31.84
637.644	32
637.834	32.13
638.024	32.42
638.214	32.28
638.404	32.6
638.593	32.61
638.783	32.71
638.973	33.26
639.163	32.88
639.352	32.48
639.542	32.85
639.732	32.79
639.921	32.96
640.111	32.99
640.301	32.9
640.49	32.83
640.68	32.82
640.87	32.88
641.059	32.9
641.249	33.43
641.438	33.77
641.628	33.82
641.817	33.75
642.007	33.63
642.196	33.48
642.386	33.68
642.575	33.65
642.764	33.99
642.954	33.9
643.143	33.66
643.333	33.75
643.522	33.56
643.711	33.5
643.901	33.5
644.09	33.07
644.279	33.01
644.469	33.22
644.658	33.48
644.847	32.74
645.036	32.84
645.226	33.52
645.415	33.48
645.604	33.51
645.793	33.32
645.982	33.34
646.171	33.6
646.361	33.29
646.55	33.57
646.739	33.51
646.928	33.95
647.117	34.09
647.306	33.71
647.495	33.47
647.684	33.55
647.873	33.56
648.062	33.59
648.251	33.51
648.44	33.54
648.629	33.5
648.818	33.42
649.007	33.47
649.196	33.56
649.384	33.65
649.573	33.85
649.762	33.77
649.951	34.06
650.14	34.1
650.328	34.2
650.517	34.51
650.706	34.4
650.895	34.55
651.083	34.56
651.272	34.31
651.461	34.21
651.65	34.31
651.838	34.52
652.027	34.25
652.216	34.19
652.404	34.18
652.593	34.16
652.781	34.29
652.97	34.57
653.158	34.51
653.347	34.75
653.535	34.67
653.724	34.54
653.912	34.57
654.101	34.6
654.289	34.87
654.478	34.97
654.666	35.02
654.855	34.93
655.043	34.56
655.231	34.62
655.42	34.39
655.608	34.41
655.796	34.55
655.985	34.42
656.173	34.43
656.361	34.35
656.55	34.37
656.738	34.26
656.926	34.35
657.114	34.37
657.302	34.59
657.491	34.84
657.679	34.85
657.867	34.9
658.055	35.08
658.243	35.41
658.431	35.61
658.619	36.01
658.807	36.16
658.996	36.24
659.184	36.41
659.372	36.07
659.56	35.96
659.748	36.34
659.936	36.38
660.124	36.53
660.311	36.41
660.499	36.09
660.687	35.73
660.875	35.62
661.063	35.75
661.251	35.8
661.439	36.25
661.627	36.33
661.814	35.96
662.002	35.86
662.19	35.71
662.378	35.99
662.565	35.59
662.753	35.87
662.941	36.01
663.129	35.65
663.316	35.61
663.504	35.01
663.692	35.04
663.879	35.05
664.067	35.2
664.254	35.48
664.442	35.08
664.63	35.77
664.817	35.84
665.005	35.88
665.192	36.04
665.38	35.82
665.567	36.25
665.755	36.03
665.942	36.09
666.13	36.15
666.317	35.72
666.504	36.13
666.692	36.52
666.879	36.47
667.067	36.83
667.254	36.6
667.441	36.62
667.629	36.33
667.816	36.48
668.003	36.87
668.19	36.47
668.378	36.61
668.565	36.34
668.752	36.03
668.939	35.86
669.127	35.68
669.314	35.95
669.501	36.01
669.688	36.39
669.875	36.93
670.062	36.72
670.249	37.48
670.436	37.31
670.623	37.54
670.81	37.63
670.997	37.83
671.184	37.77
671.371	37.83
671.558	37.93
671.745	37.76
671.932	37.36
672.119	37.33
672.306	37.49
672.493	37.84
672.68	37.89
672.867	37.85
673.054	37.71
673.24	37.72
673.427	37.64
673.614	37.72
673.801	37.84
673.988	38.08
674.174	37.84
674.361	37.02
674.548	37.35
674.734	37.07
674.921	36.92
675.108	37.08
675.294	37.04
675.481	37.38
675.668	37.43
675.854	37.33
676.041	37.06
676.227	37.68
676.414	37.77
676.601	37.32
676.787	37.51
676.974	37.38
677.16	36.97
677.347	36.96
677.533	36.63
677.719	36.69
677.906	36.82
678.092	37.14
678.279	36.86
678.465	36.72
678.651	37.09
678.838	37.21
679.024	37.59
679.21	38.09
679.397	38.21
679.583	38.23
679.769	38.17
679.955	38.38
680.142	38.13
680.328	37.95
680.514	38.27
680.7	38.23
680.886	38.36
681.073	38.4
681.259	38.51
681.445	38.51
681.631	38.89
681.817	38.88
682.003	38.8
682.189	38.75
682.375	39.37
682.561	39.51
682.747	39.57
682.933	39.52
683.119	39.72
683.305	39.67
683.491	39.79
683.677	39.69
683.863	39.9
684.049	40.32
684.235	40.65
684.42	40.05
684.606	39.8
684.792	39.63
684.978	39.72
685.164	39.82
685.349	39.46
685.535	39.29
685.721	39.3
685.907	39.71
686.092	39.36
686.278	39.42
686.464	39.7
686.649	40.44
686.835	40.62
687.021	40.88
687.206	40.64
687.392	40.78
687.577	41.23
687.763	41.25
687.948	40.75
688.134	40.58
688.319	40.9
688.505	40.79
688.69	39.99
688.876	39.87
689.061	39.64
689.247	39.75
689.432	39.87
689.618	39.54
689.803	39.33
689.988	39.67
690.174	39.84
690.359	39.15
690.544	39.77
690.73	40.4
690.915	40.23
691.1	39.88
691.285	39.6
691.471	39.5
691.656	39.72
691.841	39.86
692.026	39.53
692.211	39.57
692.396	39.7
692.582	38.95
692.767	38.7
692.952	39.27
693.137	39.63
693.322	39.93
693.507	40.66
693.692	40.33
693.877	40.03
694.062	40.1
694.247	39.72
694.432	39.94
694.617	40.66
694.802	40.46
694.987	39.95
695.172	40.16
695.357	39.66
695.541	39.18
695.726	39.75
695.911	40.47
696.096	40.75
696.281	40.92
696.466	41.06
696.65	40.55
696.835	40.87
697.02	41.51
697.204	41.34
697.389	42.17
697.574	42
697.759	41.64
697.943	41.07
698.128	41.28
698.312	41.38
698.497	41.23
698.682	41.61
698.866	41.7
699.051	41.49
699.235	41.13
699.42	40.92
699.604	41.01
699.789	41.13
699.973	41.41
700.158	41.05
700.342	41.26
700.527	41.47
700.711	41.29
700.895	41.27
701.08	41.09
701.264	41.49
701.448	41.23
701.633	41.02
701.817	40.65
702.001	40.73
702.186	40.85
702.37	40.52
702.554	40.42
702.738	40.07
702.923	39.79
703.107	39.51
703.291	39.5
703.475	39.01
703.659	39.63
703.843	40.36
704.027	39.75
704.212	40.07
704.396	40.31
704.58	39.88
704.764	40.14
704.948	40.58
705.132	41.07
705.316	41.21
705.5	41.97
705.684	41.58
705.868	41.42
706.052	41.6
706.235	40.94
706.419	40.45
706.603	41.17
706.787	41.11
706.971	40.41
707.155	40.29
707.339	40.03
707.522	39.73
707.706	39.63
707.89	39.53
708.074	39.68
708.257	40.5
708.441	41.06
708.625	40.53
708.808	41.01
708.992	41.22
709.176	40.83
709.359	41.01
709.543	41.43
709.727	41.65
709.91	41.83
710.094	41.64
710.277	41.94
710.461	41.81
710.644	41.88
710.828	41.62
711.011	41.54
711.195	42.01
711.378	42.19
711.562	42.13
711.745	41.42
711.928	40.89
712.112	41.44
712.295	40.51
712.478	40.66
712.662	40.28
712.845	40.18
713.028	40.14
713.212	40.15
713.395	40.09
713.578	39.97
713.761	41.08
713.945	41.51
714.128	41.15
714.311	41.67
714.494	41.23
714.677	41.76
714.86	42.3
715.043	42.23
715.227	42.37
715.41	42.02
715.593	42.04
715.776	41.69
715.959	41.57
716.142	41.7
716.325	41.61
716.508	42.08
716.691	42.02
716.874	41.4
717.057	41.92
717.239	42
717.422	42.55
717.605	42.45
717.788	42.38
717.971	42.59
718.154	42.55
718.337	42.42
718.519	42.46
718.702	42.24
718.885	41.6
719.068	41.79
719.25	41.6
719.433	41.57
719.616	41.76
719.798	41.86
719.981	42.15
720.164	42.84
720.346	42.97
720.529	42.6
720.712	43.35
720.894	44.03
721.077	43.62
721.259	43.44
721.442	42.68
721.624	43.12
721.807	42.78
721.989	41.73
722.172	41.72
722.354	41.2
722.537	41.66
722.719	41.04
722.901	40.92
723.084	41.17
723.266	40.7
723.448	40.96
723.631	40.39
723.813	40.98
723.995	41.45
724.178	40.79
724.36	41.45
724.542	41.64
724.724	42.45
724.907	42.45
725.089	42.36
725.271	43.16
725.453	43.9
725.635	44.68
725.817	44.76
725.999	44.96
726.181	44.44
726.364	44.58
726.546	44.23
726.728	43.62
726.91	43.75
727.092	43.19
727.274	42.87
727.456	42.7
727.638	42.57
727.819	42.43
728.001	42.22
728.183	42.37
728.365	41.85
728.547	42.17
728.729	42.67
728.911	43.5
729.093	43.46
729.274	43.74
729.456	43.7
729.638	43.72
729.82	43.78
730.001	44.32
730.183	44.68
730.365	45.28
730.546	44.92
730.728	44.54
730.91	43.5
731.091	43.75
731.273	43.73
731.455	42.94
731.636	42.13
731.818	42.08
731.999	42.4
732.181	42.98
732.362	42.25
732.544	42.6
732.725	42.73
732.907	42.98
733.088	43.28
733.27	43.53
733.451	43.81
733.633	44.24
733.814	43.79
733.995	43.22
734.177	44.1
734.358	44.2
734.539	43.92
734.721	44.19
734.902	44.99
735.083	45.02
735.264	44.94
735.446	45.99
735.627	46.2
735.808	46.43
735.989	46.92
736.17	45.16
736.351	45.12
736.533	44.74
736.714	44.57
736.895	43.54
737.076	42.94
737.257	42.39
737.438	40.81
737.619	40.63
737.8	41.26
737.981	40.67
738.162	41.62
738.343	41.71
738.524	42.44
738.705	41.99
738.886	41.69
739.067	42.85
739.247	43.37
739.428	43.92
739.609	44.17
739.79	43.66
739.971	44.16
740.151	43.69
740.332	43.85
740.513	43.48
740.694	43.56
740.874	44.44
741.055	44.53
741.236	44.7
741.417	44.94
741.597	44.49
741.778	44.83
741.958	44.37
742.139	43.79
742.32	44.18
742.5	44.71
742.681	44.96
742.861	44.9
743.042	43.64
743.222	43.07
743.403	43.18
743.583	43.52
743.764	43.33
743.944	43.07
744.124	43.06
744.305	43.15
744.485	42.89
744.666	42.45
744.846	42.39
745.026	43.75
745.207	44.34
745.387	43.85
745.567	44.28
745.747	44.59
745.928	44.22
746.108	44.51
746.288	44.81
746.468	44.18
746.648	43.87
746.829	42.96
747.009	42.33
747.189	41.84
747.369	42.22
747.549	41.61
747.729	40.88
747.909	40.73
748.089	40.21
748.269	39.8
748.449	40.15
748.629	41.47
748.809	42.22
748.989	42.16
749.169	42.6
749.349	43
749.529	44.05
749.709	44.13
749.889	44.84
750.068	45.13
750.248	45.53
750.428	46.27
750.608	46.08
750.788	45.13
750.967	44.86
751.147	43.64
751.327	43.59
751.507	42.67
751.686	43.26
751.866	43.19
752.046	43.7
752.225	42.52
752.405	42.08
752.585	41.58
752.764	42.89
752.944	43.48
753.123	44.34
753.303	44.56
753.482	44.76
753.662	44.27
753.841	45.05
754.021	44.57
754.2	45.58
754.38	45.19
754.559	44.54
754.739	44.45
754.918	44.65
755.097	45.23
755.277	44.72
755.456	44.84
755.635	45.22
755.815	44.99
755.994	45.25
756.173	44.64
756.352	44.86
756.532	45.47
756.711	44.36
756.89	43.59
757.069	43.01
757.248	42.85
757.427	42.28
757.607	42.57
757.786	41.72
757.965	41.93
758.144	41.67
758.323	41.75
758.502	41.77
758.681	42.71
758.86	42.29
759.039	43.13
759.218	43.56
759.397	44.74
759.576	45.16
759.755	45.6
759.934	46.47
760.113	47.41
760.291	47.47
760.47	47.99
760.649	47.32
760.828	47.72
761.007	46.4
761.186	47.24
761.364	46.56
761.543	45.43
761.722	45.73
761.901	44.48
762.079	44.15
762.258	43.93
762.437	42.59
762.615	43.13
762.794	42.91
762.972	43.09
763.151	41.92
763.33	41.55
763.508	42.25
763.687	42.52
763.865	42.37
764.044	42.79
764.222	42.52
764.401	43.01
764.579	43.06
764.758	43.34
764.936	43.3
765.114	43.8
765.293	43.74
765.471	43.42
765.65	42.76
765.828	43.55
766.006	42.93
766.184	42.92
766.363	42.48
766.541	42.38
766.719	42.54
766.898	42.41
767.076	42.35
767.254	42.79
767.432	42.08
767.61	43.06
767.788	42.61
767.967	43.92
768.145	43.64
768.323	43.7
768.501	44.38
768.679	44.74
768.857	44.95
769.035	45.65
769.213	45.63
769.391	45.83
769.569	45.06
769.747	45.29
769.925	44.52
770.103	45.96
770.281	46.21
770.459	45.9
770.636	46.53
770.814	46.95
770.992	45.67
771.17	44.57
771.348	45.32
771.525	45.8
771.703	45.75
771.881	45.42
772.059	45.31
772.236	45.67
772.414	44.38
772.592	43.13
772.769	42.24
772.947	42.07
773.125	43.2
773.302	42.53
773.48	42.14
773.657	42.38
773.835	41.32
774.013	40.1
774.19	41.57
774.368	41.74
774.545	41.02
774.723	41.01
774.9	40.89
775.077	40.36
775.255	40.25
775.432	41.01
775.61	39.37
775.787	40.73
775.964	41.7
776.142	41.18
776.319	43.01
776.496	43.86
776.674	45.64
776.851	47.43
777.028	47.83
777.205	49.72
777.382	49.94
777.56	51.53
777.737	52.45
777.914	51.03
778.091	49.38
778.268	47.53
778.445	46.88
778.622	46.41
778.8	45.22
778.977	45.73
779.154	51.34
779.331	50.63
779.508	51.47
779.685	50.34
779.862	51.05
780.038	52.88
780.215	52.94
780.392	54.44
780.569	54.82
780.746	55.06
780.923	55.1
781.1	48.16
781.277	47.74
781.453	46.48
781.63	45.7
781.807	47.61
781.984	47.04
782.16	48.25
782.337	48.3
782.514	46.74
782.691	45.93
782.867	44.85
783.044	45.48
783.221	45.35
783.397	45.95
783.574	45.69
783.75	45.62
783.927	44.43
784.103	43.77
784.28	42.3
784.456	43.44
784.633	44.55
784.809	44
784.986	43.29
785.162	42.83
785.339	41.09
785.515	41.44
785.692	40.77
785.868	42.91
786.044	42.76
786.221	43.84
786.397	44.61
786.573	42.32
786.749	44.24
786.926	44.54
787.102	46.04
787.278	47.45
787.454	47.26
787.631	47.5
787.807	44.99
787.983	44.25
788.159	45.08
788.335	45.37
788.511	46.94
788.687	47.79
788.863	46.76
789.039	46.85
789.216	45.29
789.392	46.71
789.568	45.82
789.744	45.44
789.919	45.77
790.095	43.86
790.271	41.82
790.447	41.43
790.623	38.69
790.799	39.64
790.975	37.57
791.151	37.88
791.327	38.49
791.502	39.74
791.678	41.38
791.854	42.14
792.03	41.74
792.205	42.22
792.381	41.77
792.557	43.56
792.733	45.04
792.908	46.5
793.084	47.52
793.259	46.37
793.435	45.79
793.611	46.53
793.786	44.67
793.962	46.4
794.137	45.46
794.313	46.2
794.488	47.88
794.664	45.66
794.839	45.68
795.015	44.96
795.19	44.45
795.366	45.38
795.541	43.85
795.716	42.79
795.892	41.41
796.067	41.81
796.242	42.18
796.418	37.96
796.593	39.22
796.768	38.37
796.944	38.7
797.119	38.82
797.294	38.4
797.469	38.26
797.644	40.61
797.82	39.86
797.995	40.8
798.17	40.33
798.345	42.64
798.52	42.35
798.695	43.49
798.87	43.61
799.045	44.51
799.22	43.95
799.395	45.92
799.57	46.57
799.745	49.19
799.92	51.22
800.095	51.8
800.27	52.72
800.445	51.71
800.62	50.81
800.795	49.6
800.97	48.45
801.145	47.91
801.319	46.43
801.494	44.48
801.669	45.09
801.844	44.3
802.018	45.24
802.193	44.08
802.368	45.32
802.543	46.16
802.717	45.34
802.892	47.55
803.067	45.87
803.241	46.13
803.416	46.64
803.59	46.98
803.765	47.34
803.94	46.39
804.114	47.15
804.289	47.17
804.463	47.83
804.638	47.74
804.812	45.41
804.986	46.46
805.161	47.47
805.335	46.82
805.51	44.15
805.684	42.29
805.858	41.8
806.033	41.74
806.207	41.27
806.381	38.98
806.556	40.98
806.73	41.36
806.904	41.83
807.078	41.6
807.253	41.64
807.427	42.01
807.601	42.79
807.775	41.4
807.949	41.36
808.123	39.92
808.298	40.3
808.472	40.14
808.646	40.65
808.82	41.8
808.994	42.14
809.168	43.04
809.342	42.79
809.516	42.39
809.69	43.01
809.864	43.74
810.038	44.93
810.212	44.03
810.385	41.58
810.559	40.05
810.733	38.5
810.907	38.66
811.081	40.09
811.255	41.41
811.428	42.41
811.602	42.34
811.776	41.31
811.95	39.52
812.123	40.24
812.297	41.12
812.471	42.17
812.644	42.19
812.818	38.85
812.992	37.67
813.165	35.5
813.339	31.27
813.512	30.36
813.686	29.75
813.86	28.9
814.033	31.72
814.207	32.16
814.38	31.66
814.554	33.11
814.727	37.53
814.9	37.75
815.074	38.17
815.247	40.08
815.421	42.8
815.594	43.48
815.767	45.21
815.941	44.24
816.114	44.16
816.287	43.25
816.46	42.16
816.634	37.81
816.807	38.14
816.98	38.49
817.153	38.96
817.327	37.93
817.5	37.14
817.673	36.04
817.846	35.63
818.019	37.99
818.192	38.55
818.365	39.73
818.538	44.42
818.711	45.08
818.884	46.31
819.057	46.68
819.23	45.99
819.403	46.61
819.576	48.64
819.749	47.92
819.922	47.9
820.095	52.1
820.268	51.78
820.441	51.08
820.614	51.38
820.786	50.41
820.959	50.52
821.132	49.97
821.305	50.4
821.477	49.79
821.65	49.65
821.823	49.25
821.996	48.17
822.168	47.93
822.341	47.76
822.514	47.36
822.686	47.44
822.859	47.45
823.031	47.9
823.204	47.91
823.376	47.75
823.549	47.02
823.722	46.56
823.894	46.72
824.067	46.56
824.239	45.81
824.411	45.87
824.584	45.06
824.756	44.59
824.929	44.39
825.101	43.62
825.273	43.22
825.446	43.89
825.618	44.03
825.79	43.55
825.963	43.46
826.135	43.74
826.307	43.32
826.479	43.57
826.652	43.73
826.824	43.53
826.996	43.19
827.168	43.61
827.34	43.9
827.512	43.73
827.684	43.14
827.856	42.69
828.029	43.86
828.201	43.74
828.373	44.71
828.545	45.42
828.717	45.53
828.889	46.67
829.061	46.12
829.232	46.3
829.404	46.21
829.576	46.61
829.748	48.02
829.92	46.64
830.092	45.64
830.264	45.86
830.436	44.95
830.607	45.1
830.779	43.71
830.951	43.58
831.123	41.63
831.294	41.53
831.466	41.43
831.638	40.02
831.809	39.28
831.981	44.22
832.153	42.31
832.324	41.14
832.496	40.96
832.667	45.71
832.839	47.49
833.011	48.32
833.182	48.86
833.354	48.13
833.525	49.25
833.697	48.14
833.868	45.32
834.039	46.24
834.211	46.42
834.382	44.79
834.554	42.53
834.725	42.99
834.896	42.89
835.068	42.29
835.239	43.47
835.41	41.51
835.581	42.44
835.753	41
835.924	38.68
836.095	37.4
836.266	39.48
836.438	38.42
836.609	36.94
836.78	36.51
836.951	38.15
837.122	33.9
837.293	35.72
837.464	35.98
837.635	36.58
837.806	38.63
837.977	38.71
838.148	38.79
838.319	38.82
838.49	37.18
838.661	38.28
838.832	35.73
839.003	37.66
839.174	35.01
839.345	32.87
839.516	34.88
839.687	32.93
839.857	31.58
840.028	31.75
840.199	29.91
840.37	30.78
840.54	28.02
840.711	26.52
840.882	31.17
841.053	34.82
841.223	35.66
841.394	35.18
841.564	36.89
841.735	40.32
841.906	37.37
842.076	44.79
842.247	45.84
842.417	44.6
842.588	48.69
842.758	45.65
842.929	39.46
843.099	39.99
843.27	38.97
843.44	34.68
843.611	30.12
843.781	31.53
843.951	27.81
844.122	27.51
844.292	32.28
844.462	29.79
844.633	30.18
844.803	35.17
844.973	32.31
845.144	29.38
845.314	34.85
845.484	31.84
845.654	37.72
845.824	32.65
845.995	36.19
846.165	33.61
846.335	32.33
846.505	30.22
846.675	29.02
846.845	30.04
847.015	29.83
847.185	32.67
847.355	35.05
847.525	28.47
847.695	30.44
847.865	22.41
848.035	16.01
848.205	21.7
848.375	13.9
848.545	14.55
848.715	21.3
848.884	20.71
849.054	14.4
849.224	23.98
849.394	21.24
849.564	17.01
849.733	16.53
849.903	22.09
850.073	13.71
850.243	27.47
850.412	26.03
850.582	14.36
850.752	14.53
850.921	4.28
851.091	6.22
851.26	7.71
851.43	12.6
851.599	22.94
851.769	23.39
851.939	25.35
852.108	21.62
852.278	22.41
852.447	38.99
852.616	45.55
852.786	63.56
852.955	52.85
853.125	52.38
853.294	50.69
853.463	40.08
853.633	43.47
853.802	37.95
853.971	37.15
854.141	27.95
854.31	27.27
854.479	13.78
854.648	1.25
854.818	15.79
854.987	18.79
855.156	17.27
855.325	25.14
855.494	23.17
855.663	28.09
855.832	25.31
856.001	36.86
856.171	31.98
856.34	29.75
856.509	31.84
856.678	26.34
856.847	31.22
857.016	35.67
857.185	27.74
857.353	29.38
857.522	30.36
857.691	27.78
857.86	29.28
858.029	27.32
858.198	31.29
858.367	30.72
858.535	34.17
858.704	29.65
858.873	32.21
859.042	37.68
859.21	34.32
859.379	38.11
859.548	40.68
859.717	40.96
859.885	41.06
860.054	42.63
860.222	42.36
860.391	36.45
860.56	30.14
860.728	30.85
860.897	29.89
861.065	20.41
861.234	8.66
861.402	5.27
861.571	-2.34
861.739	-10.25
861.908	-11.12
862.076	-5.13
862.244	-3.09
862.413	5.87
862.581	-1.73
862.749	-11.57
862.918	17.29
863.086	31.49
863.254	42.43
863.423	53.66
863.591	64.13
863.759	57.4
863.927	59.84
864.096	58.99
864.264	57.8
864.432	70.94
864.6	73.51
864.768	61.89
864.936	49.52
865.104	44.28
865.272	37.81
865.44	28.2
865.608	41.74
865.776	37.85
865.944	33.44
866.112	32.35
866.28	12.9
866.448	19.08
866.616	18.9
866.784	28.59
866.952	22.45
867.12	22.3
867.288	22.87
867.455	9.77
867.623	13.26
867.791	20.21
867.959	20.3
868.127	23.88
868.294	22.4
868.462	19.36
868.63	18.68
868.797	14.32
868.965	20.45
869.133	19.47
869.3	30.08
869.468	28.52
869.636	27.46
869.803	27
869.971	21.65
870.138	15.37
870.306	15.95
870.473	11.56
870.641	21.08
870.808	21.14
870.975	28.04
871.143	28
871.31	24.29
871.478	23.94
871.645	25.72
871.812	31.27
871.98	40.78
872.147	39.61
872.314	37
872.482	37.44
872.649	30.82
872.816	24.8
872.983	19.92
873.15	14.46
873.318	11.96
873.485	20.63
873.652	15.54
873.819	19.22
873.986	16.81
874.153	19.6
874.32	10.6
874.487	12.88
874.654	14.12
874.821	17.84
874.988	26.38
875.155	26.77
875.322	23.51
875.489	32.09
875.656	21.96
875.823	23.25
875.99	24.2
876.157	27.94
876.324	26.72
876.49	30.61
876.657	25.23
876.824	20.23
876.991	20.53
877.157	21.38
877.324	6.45
877.491	10.83
877.658	7.01
877.824	3.35
877.991	3.97
878.157	9.73
878.324	4.6
878.491	6.09
878.657	9.24
878.824	15.14
878.99	12.76
879.157	19.47
879.323	24.32
879.49	30.87
879.656	37.8
879.823	37.33
879.989	40.5
880.156	47.03
880.322	52.9
880.488	51.83
880.655	46.8
880.821	43.71
880.987	46.42
881.154	47.4
881.32	42.28
881.486	41.53
881.652	47.57
881.819	47.83
881.985	45.32
882.151	46.17
882.317	49.4
882.483	48.25
882.649	49.77
882.816	48.59
882.982	46.43
883.148	47.37
883.314	46.3
883.48	44.41
883.646	44.03
883.812	43.54
883.978	41.04
884.144	39.48
884.31	38.7
884.476	39.49
884.642	39.26
884.807	40.11
884.973	40.19
885.139	39.17
885.305	38.08
885.471	38.61
885.637	38.01
885.802	39.3
885.968	38.7
886.134	40.84
886.3	39.7
886.465	38.01
886.631	36.08
886.797	35.91
886.962	33.52
887.128	34.45
887.293	30.82
887.459	29.63
887.625	26.83
887.79	21.79
887.956	15.65
888.121	7.41
888.287	6.85
888.452	3.9
888.618	-8.02
888.783	-1.23
