Data from LC_218__Reflection_3.txt Node
Date: Thu Nov 19 13:24:44 EST 2015
User: robert
Spectrometer: USB4E03001
Autoset integration time: false
Trigger mode: 4
Integration Time (sec): 1.000000E-1
Scans to average: 15
Electric dark correction enabled: true
Nonlinearity correction enabled: false
Boxcar width: 5
Stray light correction enabled: false
XAxis mode: Wavelengths
Stop averaging: false
Number of Pixels in Spectrum: 3648
>>>>>Begin Spectral Data<<<<<
177.566	147.18
177.785	292.17
178.005	53.39
178.225	36.14
178.445	347.74
178.665	-67600
178.885	-57.97
179.105	62.12
179.324	72.53
179.544	2.09
179.764	-102.85
179.984	-99.27
180.204	-113.13
180.423	-10.3
180.643	-462.91
180.863	-678.81
181.083	-85.47
181.302	-105.61
181.522	-70.61
181.742	-854.4
181.961	1541.59
182.181	1265.71
182.401	214.08
182.621	199.23
182.84	374.33
183.06	1020.7
183.279	1004.31
183.499	503.81
183.719	331.85
183.938	166.19
184.158	261.68
184.377	349
184.597	326.87
184.816	2512.71
185.036	12293.48
185.256	729.49
185.475	343.62
185.695	341.62
185.914	278.81
186.134	254.93
186.353	245.63
186.572	204.81
186.792	233.23
187.011	1247.35
187.231	243.71
187.45	228.49
187.67	472.51
187.889	2442.42
188.108	83.38
188.328	-133.6
188.547	9.02
188.766	-58.29
188.986	-97.15
189.205	-189.1
189.424	380.27
189.644	688.59
189.863	438.59
190.082	499.02
190.302	2088.73
190.521	-123.76
190.74	-574.42
190.959	-5529.58
191.178	6555.08
191.398	-2340
191.617	397.74
191.836	1526.09
192.055	-559.28
192.274	-190.5
192.494	-319.14
192.713	-278.49
192.932	-175.03
193.151	-178.46
193.37	-285.33
193.589	-162.65
193.808	-122.7
194.027	-159.98
194.246	-392.83
194.465	-213.2
194.685	18915
194.904	352.32
195.123	148.2
195.342	134.09
195.561	97.23
195.78	98.14
195.999	175.22
196.218	325
196.436	584.23
196.655	414.4
196.874	307.89
197.093	237.24
197.312	626.81
197.531	778.5
197.75	1209.06
197.969	-563.92
198.188	-727.57
198.407	-4713.13
198.625	389.75
198.844	643.69
199.063	1503.74
199.282	1726.95
199.501	-1271.56
199.719	-1617.9
199.938	-2499.82
200.157	2386.85
200.376	751.77
200.594	489.93
200.813	442.32
201.032	269.22
201.251	289.12
201.469	367.29
201.688	234.44
201.907	183.53
202.125	202.39
202.344	185.41
202.563	136.45
202.781	189.24
203	164.97
203.218	162.16
203.437	336.11
203.656	245.83
203.874	192.64
204.093	217.86
204.311	216.24
204.53	189.43
204.748	167.44
204.967	228.56
205.185	130.85
205.404	131.07
205.622	238.15
205.841	181.05
206.059	128.45
206.278	198.3
206.496	238.63
206.715	412.86
206.933	602.54
207.151	-1261.72
207.37	-736.49
207.588	-2915.15
207.806	2664.88
208.025	964.2
208.243	-1423.74
208.461	-1297.5
208.68	-2106.24
208.898	3552.65
209.116	1151.64
209.335	2017.57
209.553	437.07
209.771	1486.04
209.989	-820.77
210.208	-556.79
210.426	-211.15
210.644	-198.45
210.862	-133.37
211.081	-115.97
211.299	-12.15
211.517	-47.66
211.735	-84.89
211.953	-431.72
212.171	373.9
212.39	694.11
212.608	602.21
212.826	276.87
213.044	123.95
213.262	71.02
213.48	81.04
213.698	79.18
213.916	83.66
214.134	43.45
214.352	115.38
214.57	115.26
214.788	-53.75
215.006	-199.27
215.224	60.59
215.442	-49.3
215.66	-113.97
215.878	364.15
216.096	105.9
216.314	128.76
216.532	130.78
216.75	107.95
216.968	122.65
217.185	129.76
217.403	139.84
217.621	149.17
217.839	170.75
218.057	162.99
218.275	236.98
218.492	427.74
218.71	235.74
218.928	213.17
219.146	220
219.363	277.89
219.581	291.74
219.799	672.41
220.017	265.31
220.234	212.1
220.452	252.05
220.67	176.02
220.887	171.09
221.105	278.14
221.323	320.07
221.54	248.76
221.758	205.8
221.976	193.65
222.193	143.83
222.411	165.19
222.629	170.44
222.846	205.35
223.064	172.78
223.281	184.24
223.499	166.65
223.716	174.14
223.934	162.14
224.151	170.39
224.369	162.84
224.586	143.34
224.804	158.24
225.021	131
225.239	108.99
225.456	114.71
225.674	98.04
225.891	98.19
226.108	85.04
226.326	75.44
226.543	71.07
226.76	63.55
226.978	67.65
227.195	51.64
227.413	45.18
227.63	41.61
227.847	41.15
228.064	35.82
228.282	29.66
228.499	31.18
228.716	28.61
228.934	22.56
229.151	21.91
229.368	22.28
229.585	22.85
229.802	23.73
230.02	22.77
230.237	20.95
230.454	22.3
230.671	27
230.888	29.66
231.105	34.56
231.323	39.67
231.54	40.66
231.757	40.58
231.974	47.01
232.191	53.47
232.408	58.97
232.625	63.49
232.842	65.39
233.059	62.98
233.276	61.64
233.493	54.43
233.71	58.61
233.927	57.56
234.144	62.48
234.361	50.91
234.578	41.3
234.795	31.5
235.012	29.76
235.229	25.48
235.446	21.23
235.663	18.92
235.879	21.51
236.096	20.1
236.313	23.6
236.53	12.19
236.747	17.3
236.964	17.4
237.181	21.14
237.397	20.96
237.614	24.73
237.831	32.32
238.048	37.64
238.264	36.22
238.481	32.29
238.698	27.12
238.915	37.29
239.131	36.79
239.348	32.51
239.565	26.21
239.781	24.05
239.998	23.76
240.215	23.31
240.431	20.08
240.648	19.33
240.865	20.83
241.081	23.59
241.298	19.92
241.514	19.53
241.731	23.18
241.947	23.04
242.164	21.86
242.38	22.17
242.597	22.8
242.814	22.76
243.03	22.69
243.246	23.06
243.463	23.41
243.679	24.54
243.896	25.38
244.112	24.66
244.329	25.63
244.545	27.22
244.762	25.74
244.978	25.32
245.194	26.49
245.411	27.7
245.627	24.5
245.843	23.59
246.06	21.72
246.276	21.01
246.492	19.88
246.709	20.23
246.925	18.66
247.141	17.89
247.357	16.18
247.574	16.48
247.79	16.33
248.006	16.54
248.222	15.72
248.439	15.57
248.655	15.08
248.871	15.52
249.087	15.57
249.303	15.76
249.519	16.08
249.736	17.06
249.952	13.84
250.168	14.51
250.384	16.43
250.6	17.82
250.816	19.33
251.032	20.08
251.248	19.86
251.464	17.81
251.68	18.82
251.896	19.44
252.112	18.82
252.328	17.79
252.544	16.71
252.76	15.55
252.976	14.77
253.192	14.44
253.408	13.31
253.624	12.98
253.84	13.46
254.056	16.08
254.272	15.43
254.487	17.68
254.703	21.8
254.919	22.55
255.135	23.48
255.351	23.26
255.567	23.15
255.782	22.57
255.998	22.44
256.214	19.8
256.43	15.91
256.646	17.53
256.861	16
257.077	17.75
257.293	18.33
257.508	14.89
257.724	14.07
257.94	11.78
258.155	14.34
258.371	14.24
258.587	16.1
258.802	14.81
259.018	14.56
259.234	13.48
259.449	11.26
259.665	10.16
259.88	10.59
260.096	10.53
260.312	11.89
260.527	11.63
260.743	12.23
260.958	11.52
261.174	11.76
261.389	12.2
261.605	12.87
261.82	13.49
262.036	14.1
262.251	14.7
262.466	14.98
262.682	14.14
262.897	14.31
263.113	12.56
263.328	14.06
263.543	16.39
263.759	15.52
263.974	16.04
264.189	15.78
264.405	17.07
264.62	18.16
264.835	18.37
265.051	20.08
265.266	17.74
265.481	17.09
265.696	18.05
265.912	16.55
266.127	15.69
266.342	16.34
266.557	17.76
266.773	16.33
266.988	16.06
267.203	15.26
267.418	14.24
267.633	15.68
267.848	16.17
268.064	16.4
268.279	15.77
268.494	16.28
268.709	15.6
268.924	16.85
269.139	18.03
269.354	18.81
269.569	19.22
269.784	19.21
269.999	19.22
270.214	19.28
270.429	19.64
270.644	20.2
270.859	19.91
271.074	20.36
271.289	19.85
271.504	18.19
271.719	17.96
271.934	17.75
272.149	16.83
272.363	16.11
272.578	15.16
272.793	13.02
273.008	12.08
273.223	10.95
273.438	10.92
273.653	10.35
273.867	10.14
274.082	8.55
274.297	10.38
274.512	11.43
274.726	11.73
274.941	12.79
275.156	13.72
275.371	14.84
275.585	16.26
275.8	14.8
276.015	14.06
276.229	15.96
276.444	15.82
276.659	15.32
276.873	15.07
277.088	14.57
277.302	14.84
277.517	14.61
277.732	14.31
277.946	15.09
278.161	15.97
278.375	18.02
278.59	15.73
278.804	17.77
279.019	17.81
279.233	17.54
279.448	17.93
279.662	17.23
279.877	15.77
280.091	16.02
280.306	14.35
280.52	13.61
280.735	10.89
280.949	11.34
281.163	11.28
281.378	10.6
281.592	10.76
281.806	10.96
282.021	11.91
282.235	12.8
282.449	11.64
282.664	11.6
282.878	11.89
283.092	12.27
283.307	13.53
283.521	12.48
283.735	11.76
283.949	12.28
284.164	13
284.378	12.26
284.592	12.63
284.806	12.91
285.02	13.72
285.234	13.33
285.449	15.32
285.663	15.27
285.877	16.08
286.091	17.64
286.305	17.8
286.519	17.25
286.733	16.43
286.947	16.33
287.161	16.74
287.375	16.8
287.589	17.48
287.803	15.54
288.017	16.81
288.231	16.41
288.445	14.94
288.659	14.72
288.873	14.1
289.087	15.91
289.301	16.48
289.515	16.53
289.729	15.74
289.943	15.44
290.157	16.2
290.371	14.59
290.584	13.83
290.798	14.03
291.012	13.97
291.226	14.08
291.44	14.66
291.654	14.19
291.867	14.77
292.081	15.28
292.295	15.77
292.509	14.62
292.722	14.28
292.936	15.43
293.15	16.22
293.364	16.39
293.577	16.5
293.791	14.6
294.005	15.61
294.218	14.56
294.432	14.45
294.645	13.61
294.859	15.45
295.073	15.95
295.286	16.32
295.5	15.65
295.713	14.8
295.927	15.61
296.14	15.04
296.354	14.83
296.568	14.86
296.781	14.77
296.994	14.82
297.208	14.63
297.421	15.18
297.635	15.26
297.848	15.32
298.062	15.87
298.275	15.6
298.489	16.48
298.702	17.12
298.915	17.45
299.129	17.98
299.342	19.4
299.555	20.02
299.769	19.65
299.982	20.4
300.195	19.93
300.409	19.65
300.622	20.47
300.835	21.47
301.048	21.39
301.262	21.36
301.475	21.4
301.688	20.86
301.901	18.81
302.115	18.36
302.328	17.08
302.541	16.91
302.754	18.28
302.967	17.3
303.18	15.91
303.393	15.53
303.607	15.53
303.82	15.52
304.033	16.69
304.246	18.97
304.459	19.48
304.672	18.81
304.885	20.03
305.098	18.98
305.311	19.22
305.524	19.94
305.737	20.34
305.95	20.69
306.163	20.72
306.376	18.25
306.589	17.06
306.802	17.35
307.015	18.94
307.228	18.64
307.44	17.98
307.653	17.95
307.866	18.75
308.079	18.56
308.292	17.89
308.505	18.19
308.718	20.02
308.93	20.37
309.143	19.91
309.356	19.98
309.569	20.89
309.781	21.49
309.994	22.03
310.207	20.72
310.42	20.14
310.632	20.21
310.845	19.64
311.058	18.53
311.27	17.44
311.483	18.28
311.696	17.64
311.908	16.16
312.121	16.61
312.333	16.69
312.546	16.98
312.759	16.45
312.971	16
313.184	16.9
313.396	17.5
313.609	18.07
313.821	17.61
314.034	17.56
314.246	19.24
314.459	18.65
314.671	17.94
314.884	18.02
315.096	18.75
315.309	19.5
315.521	18.4
315.733	17.8
315.946	17.51
316.158	17.56
316.371	17.86
316.583	17.51
316.795	18.35
317.008	17.72
317.22	17.56
317.432	17.23
317.644	18.37
317.857	18.51
318.069	19.17
318.281	20.37
318.494	20.45
318.706	20.84
318.918	20.33
319.13	18.95
319.342	18.53
319.555	17.75
319.767	18.32
319.979	17.78
320.191	18.41
320.403	17.37
320.615	15.67
320.827	15.72
321.039	14.29
321.252	14.3
321.464	14.66
321.676	16.92
321.888	18.08
322.1	17.75
322.312	17.03
322.524	17.98
322.736	17.13
322.948	18.52
323.16	18.32
323.372	18.89
323.584	20.06
323.796	20.32
324.007	18.97
324.219	19.82
324.431	19.88
324.643	20
324.855	19.78
325.067	21.11
325.279	20.05
325.491	19.82
325.702	20.37
325.914	19.25
326.126	19.22
326.338	20.02
326.55	19.2
326.761	19.96
326.973	19.78
327.185	19.74
327.396	20.13
327.608	21.74
327.82	22.16
328.032	21.73
328.243	22.39
328.455	23.7
328.666	23.94
328.878	24.21
329.09	23.96
329.301	24.59
329.513	25.2
329.725	24.83
329.936	24.58
330.148	24.25
330.359	25.03
330.571	25.16
330.782	25.01
330.994	25.42
331.205	26.13
331.417	26.36
331.628	24.88
331.84	24.41
332.051	24.29
332.262	24.34
332.474	24.26
332.685	23.92
332.897	23.03
333.108	21.75
333.319	21.78
333.531	21.44
333.742	20.56
333.953	21.45
334.165	21.03
334.376	21.36
334.587	20.46
334.799	20.47
335.01	20.05
335.221	20.69
335.432	20.54
335.644	20.54
335.855	20.83
336.066	22.14
336.277	22.69
336.488	21.94
336.7	22.36
336.911	23.05
337.122	22.65
337.333	22.99
337.544	23.1
337.755	23.96
337.966	23.69
338.177	23.38
338.388	22.46
338.599	22.72
338.811	23.61
339.022	23.41
339.233	22.84
339.444	23.08
339.655	23.05
339.866	22.87
340.076	21.75
340.287	21.99
340.498	21.43
340.709	21.6
340.92	21.38
341.131	21.56
341.342	21.2
341.553	21.51
341.764	21.2
341.975	21.38
342.185	20.99
342.396	21.31
342.607	21.24
342.818	21.59
343.029	21.51
343.239	21.37
343.45	21.24
343.661	20.56
343.872	20.77
344.082	21.57
344.293	21.17
344.504	21.7
344.714	21.69
344.925	21.64
345.136	21.64
345.346	21.51
345.557	21.58
345.768	21.35
345.978	22.07
346.189	21.74
346.399	21.48
346.61	21.25
346.821	21.13
347.031	21.7
347.242	20.57
347.452	21.47
347.663	22.22
347.873	23
348.084	23.36
348.294	23.43
348.504	23.11
348.715	23.18
348.925	23.58
349.136	22.68
349.346	22.94
349.557	23.37
349.767	21.67
349.977	21.42
350.188	20.61
350.398	20.64
350.608	20.17
350.819	21.45
351.029	21.7
351.239	21.96
351.449	23.23
351.66	22.92
351.87	22.91
352.08	23.07
352.29	22.11
352.501	21.62
352.711	21.62
352.921	21.36
353.131	20.48
353.341	20.2
353.552	19.51
353.762	18.71
353.972	18.66
354.182	20.17
354.392	20.86
354.602	20.96
354.812	21.42
355.022	20.72
355.232	20.91
355.442	21.23
355.652	21.66
355.862	21.79
356.072	21.99
356.282	21.17
356.492	20
356.702	19.69
356.912	19.81
357.122	19.45
357.332	19.4
357.542	19.66
357.752	19.54
357.962	19.09
358.171	19.4
358.381	19.08
358.591	18.71
358.801	19.36
359.011	19.35
359.221	19.56
359.43	19.85
359.64	19.74
359.85	19.52
360.06	19.17
360.269	18.67
360.479	18
360.689	17.9
360.899	18.54
361.108	18.14
361.318	18.49
361.528	18.44
361.737	18.21
361.947	18.13
362.156	18.04
362.366	17.98
362.576	18.15
362.785	18.68
362.995	19.37
363.204	19.15
363.414	19.35
363.623	18.88
363.833	18.63
364.042	18.68
364.252	18.9
364.461	19.16
364.671	18.75
364.88	18.6
365.09	18.76
365.299	18.23
365.509	18.41
365.718	17.76
365.927	18.15
366.137	18.26
366.346	18.07
366.555	17.67
366.765	17.39
366.974	18.06
367.183	18.3
367.393	17.61
367.602	17.58
367.811	17.4
368.021	17.48
368.23	17.16
368.439	17.1
368.648	17.38
368.857	17.89
369.067	17.8
369.276	17.41
369.485	17.24
369.694	17.13
369.903	16.85
370.112	17.05
370.321	16.63
370.531	16.66
370.74	16.2
370.949	16
371.158	15.69
371.367	15.12
371.576	15.94
371.785	16.04
371.994	16.16
372.203	16.15
372.412	15.88
372.621	16.32
372.83	16.06
373.039	16.64
373.248	16.53
373.457	16.55
373.666	17.03
373.874	16.06
374.083	16.16
374.292	15.9
374.501	15.79
374.71	15.45
374.919	14.88
375.128	14.93
375.336	14.31
375.545	14.57
375.754	14.68
375.963	14.61
376.171	15.16
376.38	15.12
376.589	14.96
376.798	14.72
377.006	15.22
377.215	15.64
377.424	15.54
377.632	16.06
377.841	15.27
378.05	15.64
378.258	15.97
378.467	15.58
378.675	15.63
378.884	15.89
379.093	16.62
379.301	16.68
379.51	16.43
379.718	16.54
379.927	16.51
380.135	16.98
380.344	16.54
380.552	16.29
380.761	16.51
380.969	16.15
381.177	16.31
381.386	16.06
381.594	15.68
381.803	15.64
382.011	15.68
382.219	15.27
382.428	15.34
382.636	15.33
382.845	15.31
383.053	15.59
383.261	15.58
383.469	15.3
383.678	15.14
383.886	14.9
384.094	14.94
384.302	14.81
384.511	14.61
384.719	14.53
384.927	14.39
385.135	13.89
385.343	13.21
385.552	12.93
385.76	13.16
385.968	13.25
386.176	13.12
386.384	13.02
386.592	12.98
386.8	13.03
387.008	12.83
387.216	12.58
387.424	12.71
387.633	12.97
387.841	12.94
388.049	13.11
388.257	12.66
388.465	13.19
388.672	13.31
388.88	13.37
389.088	13.24
389.296	13.43
389.504	13.42
389.712	13.75
389.92	13.36
390.128	13.56
390.336	12.96
390.544	12.77
390.751	12.61
390.959	12.38
391.167	12.06
391.375	12.29
391.583	12.08
391.79	12.14
391.998	11.97
392.206	12.31
392.414	12.22
392.621	12.06
392.829	12.42
393.037	12.05
393.244	12.2
393.452	12.15
393.66	12.09
393.867	11.99
394.075	12.14
394.283	12.43
394.49	12.15
394.698	12.38
394.905	12.66
395.113	12.45
395.32	12.69
395.528	12.69
395.735	12.94
395.943	13.01
396.15	13.05
396.358	12.79
396.565	12.28
396.773	12.21
396.98	11.75
397.188	11.55
397.395	11.65
397.602	11.83
397.81	11.7
398.017	11.49
398.225	11.54
398.432	11.5
398.639	11.76
398.847	12.08
399.054	12.22
399.261	12.4
399.468	12.23
399.676	12.27
399.883	12.14
400.09	12.16
400.297	12.4
400.505	11.99
400.712	12.08
400.919	11.8
401.126	11.72
401.333	11.95
401.54	12.36
401.748	12.39
401.955	12.18
402.162	11.99
402.369	11.99
402.576	11.73
402.783	11.45
402.99	11.57
403.197	11.7
403.404	11.66
403.611	11.65
403.818	11.55
404.025	11.9
404.232	11.8
404.439	11.78
404.646	11.5
404.853	11.5
405.06	11.72
405.267	11.57
405.474	11.46
405.681	11.48
405.887	11.18
406.094	10.91
406.301	10.64
406.508	10.86
406.715	10.93
406.922	11.15
407.128	10.99
407.335	11.14
407.542	11.13
407.749	11.03
407.955	10.98
408.162	10.85
408.369	10.93
408.575	10.9
408.782	10.6
408.989	10.49
409.195	10.3
409.402	10.65
409.609	10.83
409.815	11.01
410.022	11.04
410.228	11.01
410.435	11.44
410.642	11.14
410.848	11.07
411.055	11.23
411.261	11.32
411.468	11.34
411.674	11.24
411.881	11.07
412.087	10.84
412.294	11.02
412.5	10.78
412.706	10.58
412.913	10.91
413.119	11.09
413.326	11.34
413.532	11.6
413.738	11.83
413.945	11.5
414.151	11.52
414.357	11.58
414.564	11.63
414.77	11.77
414.976	11.75
415.182	11.94
415.389	11.91
415.595	11.57
415.801	11.39
416.007	11.21
416.214	11.26
416.42	11.04
416.626	11.1
416.832	10.89
417.038	10.98
417.244	10.9
417.45	10.61
417.657	10.49
417.863	10.53
418.069	10.26
418.275	10.47
418.481	10.67
418.687	10.73
418.893	10.54
419.099	10.62
419.305	10.53
419.511	10.55
419.717	10.49
419.923	10.52
420.129	10.3
420.335	10.47
420.541	10.31
420.746	10.14
420.952	10.08
421.158	10.04
421.364	9.9
421.57	9.84
421.776	9.74
421.982	9.81
422.187	9.78
422.393	9.93
422.599	9.88
422.805	9.84
423.01	9.82
423.216	9.9
423.422	9.98
423.628	10.16
423.833	10.36
424.039	10.55
424.245	10.54
424.45	10.47
424.656	10.45
424.862	10.35
425.067	10.48
425.273	10.36
425.478	10.32
425.684	10.32
425.889	10.17
426.095	9.95
426.301	9.71
426.506	9.7
426.712	9.71
426.917	9.76
427.123	9.7
427.328	9.57
427.533	9.83
427.739	9.73
427.944	9.83
428.15	9.77
428.355	9.8
428.561	9.82
428.766	9.58
428.971	9.63
429.177	9.5
429.382	9.7
429.587	9.76
429.793	9.83
429.998	10.04
430.203	9.94
430.408	10.23
430.614	10.13
430.819	10.08
431.024	10.33
431.229	10.33
431.434	10.43
431.64	10.5
431.845	10.43
432.05	10.37
432.255	10.29
432.46	10.36
432.665	10.08
432.87	10.21
433.076	10.33
433.281	10.27
433.486	10.25
433.691	10.22
433.896	10.13
434.101	10.12
434.306	10.01
434.511	9.87
434.716	9.73
434.921	9.79
435.126	9.79
435.331	9.63
435.535	9.63
435.74	9.75
435.945	9.69
436.15	9.73
436.355	9.72
436.56	9.79
436.765	10.01
436.97	10.08
437.174	10.06
437.379	10.11
437.584	10.25
437.789	10.22
437.993	10.17
438.198	10.21
438.403	10.07
438.608	10.03
438.812	10.08
439.017	9.76
439.222	9.84
439.426	9.83
439.631	9.72
439.836	9.56
440.04	9.68
440.245	9.55
440.45	9.55
440.654	9.6
440.859	9.66
441.063	9.63
441.268	9.84
441.472	9.71
441.677	9.8
441.881	9.8
442.086	10.03
442.29	9.91
442.495	10.07
442.699	10.08
442.904	9.96
443.108	9.87
443.312	9.8
443.517	9.79
443.721	9.8
443.925	9.72
444.13	9.79
444.334	9.69
444.538	9.75
444.743	9.78
444.947	9.7
445.151	9.83
445.356	9.84
445.56	9.89
445.764	9.86
445.968	9.88
446.173	9.78
446.377	9.69
446.581	9.7
446.785	9.69
446.989	9.65
447.193	9.8
447.398	9.73
447.602	9.83
447.806	9.87
448.01	10.01
448.214	9.99
448.418	10.15
448.622	10.23
448.826	10.16
449.03	10.04
449.234	9.84
449.438	9.67
449.642	9.57
449.846	9.31
450.05	9.08
450.254	8.78
450.458	8.73
450.662	8.7
450.866	8.6
451.069	8.56
451.273	8.64
451.477	8.92
451.681	9.08
451.885	9.31
452.089	9.58
452.292	9.73
452.496	9.86
452.7	9.92
452.904	9.88
453.107	10.04
453.311	10.11
453.515	10.22
453.719	10.21
453.922	10.14
454.126	10.04
454.33	10.08
454.533	10.23
454.737	10.07
454.94	10
455.144	9.93
455.348	9.86
455.551	9.96
455.755	9.85
455.958	9.88
456.162	9.83
456.365	9.83
456.569	9.73
456.772	9.69
456.976	9.84
457.179	9.95
457.383	9.9
457.586	9.84
457.79	9.68
457.993	9.74
458.196	9.71
458.4	9.71
458.603	9.77
458.807	9.74
459.01	9.73
459.213	9.71
459.417	9.6
459.62	9.73
459.823	9.65
460.026	9.7
460.23	9.6
460.433	9.53
460.636	9.54
460.839	9.5
461.042	9.38
461.246	9.37
461.449	9.31
461.652	9.34
461.855	9.32
462.058	9.36
462.261	9.29
462.464	9.33
462.668	9.33
462.871	9.21
463.074	9.17
463.277	9.29
463.48	9.32
463.683	9.46
463.886	9.41
464.089	9.35
464.292	9.4
464.495	9.3
464.698	9.19
464.901	9.31
465.104	9.7
465.306	9.95
465.509	9.96
465.712	9.7
465.915	9.6
466.118	9.71
466.321	9.76
466.524	9.78
466.726	9.97
466.929	10.15
467.132	9.97
467.335	9.78
467.538	9.47
467.74	9.52
467.943	9.66
468.146	9.7
468.348	9.74
468.551	9.65
468.754	9.59
468.956	9.53
469.159	9.54
469.362	9.6
469.564	9.64
469.767	9.86
469.969	9.67
470.172	9.73
470.375	9.67
470.577	9.54
470.78	9.56
470.982	9.58
471.185	9.52
471.387	9.33
471.59	9.3
471.792	9.11
471.995	8.98
472.197	8.94
472.399	8.86
472.602	9.01
472.804	8.98
473.007	9.03
473.209	9.02
473.411	8.94
473.614	9
473.816	8.97
474.018	9.05
474.22	8.9
474.423	9.12
474.625	9.2
474.827	8.91
475.03	9.02
475.232	9.1
475.434	9.18
475.636	9.26
475.838	9.33
476.04	9.48
476.243	9.72
476.445	9.91
476.647	9.92
476.849	9.82
477.051	10.03
477.253	10.02
477.455	9.87
477.657	9.91
477.859	10
478.061	9.98
478.263	9.92
478.465	9.7
478.667	9.57
478.869	9.61
479.071	9.54
479.273	9.45
479.475	9.53
479.677	9.51
479.879	9.48
480.081	9.5
480.283	9.56
480.485	9.54
480.686	9.52
480.888	9.69
481.09	9.59
481.292	9.57
481.494	9.65
481.695	9.59
481.897	9.58
482.099	9.53
482.301	9.45
482.502	9.41
482.704	9.41
482.906	9.49
483.107	9.39
483.309	9.35
483.511	9.35
483.712	9.27
483.914	9.19
484.115	9.21
484.317	9.19
484.519	9.2
484.72	9.14
484.922	9.09
485.123	8.97
485.325	9.02
485.526	9.01
485.728	9
485.929	9
486.131	9.06
486.332	9.03
486.534	8.97
486.735	8.96
486.936	8.98
487.138	9.02
487.339	9.07
487.541	9.07
487.742	9.1
487.943	9.09
488.144	9.1
488.346	9.12
488.547	9.13
488.748	9.22
488.95	9.2
489.151	9.26
489.352	9.24
489.553	9.28
489.755	9.24
489.956	9.3
490.157	9.39
490.358	9.38
490.559	9.29
490.76	9.23
490.961	9.13
491.163	9.15
491.364	9.1
491.565	9.1
491.766	9.09
491.967	9.11
492.168	8.98
492.369	8.91
492.57	8.96
492.771	8.96
492.972	9.01
493.173	9.09
493.374	9.14
493.575	9.26
493.776	9.43
493.976	9.46
494.177	9.45
494.378	9.64
494.579	9.69
494.78	9.55
494.981	9.5
495.182	9.44
495.382	9.59
495.583	9.54
495.784	9.59
495.985	9.64
496.185	9.7
496.386	9.73
496.587	9.76
496.788	9.75
496.988	9.94
497.189	10.11
497.39	10.19
497.59	10.04
497.791	10.12
497.992	10.06
498.192	10.02
498.393	9.96
498.593	9.91
498.794	9.82
498.994	9.84
499.195	9.8
499.395	9.84
499.596	10.06
499.796	10.05
499.997	10.01
500.197	9.96
500.398	9.82
500.598	9.8
500.799	9.78
500.999	9.8
501.199	9.93
501.4	9.9
501.6	9.82
501.801	9.52
502.001	9.59
502.201	9.54
502.402	9.65
502.602	9.72
502.802	9.78
503.002	9.85
503.203	9.78
503.403	9.71
503.603	9.78
503.803	9.83
504.003	9.96
504.204	10.1
504.404	10.18
504.604	10.09
504.804	10.11
505.004	10.19
505.204	10.16
505.404	10.38
505.604	10.39
505.804	10.42
506.005	10.47
506.205	10.41
506.405	10.3
506.605	10.31
506.805	10.38
507.005	10.51
507.204	10.53
507.404	10.64
507.604	10.52
507.804	10.59
508.004	10.58
508.204	10.5
508.404	10.57
508.604	10.64
508.804	10.66
509.003	10.61
509.203	10.58
509.403	10.51
509.603	10.32
509.803	10.5
510.002	10.48
510.202	10.5
510.402	10.52
510.602	10.44
510.801	10.39
511.001	10.34
511.201	10.37
511.4	10.37
511.6	10.46
511.8	10.5
511.999	10.47
512.199	10.46
512.398	10.52
512.598	10.67
512.797	10.84
512.997	10.93
513.197	10.91
513.396	10.96
513.596	10.93
513.795	10.98
513.994	11.11
514.194	11.19
514.393	11.29
514.593	11.45
514.792	11.39
514.992	11.35
515.191	11.41
515.39	11.51
515.59	11.65
515.789	11.82
515.988	11.9
516.188	11.92
516.387	11.9
516.586	11.87
516.786	11.75
516.985	11.77
517.184	11.84
517.383	11.78
517.582	11.78
517.782	11.76
517.981	11.6
518.18	11.47
518.379	11.49
518.578	11.39
518.777	11.42
518.976	11.47
519.176	11.51
519.375	11.46
519.574	11.57
519.773	11.49
519.972	11.44
520.171	11.45
520.37	11.64
520.569	11.7
520.768	11.86
520.967	11.85
521.166	11.79
521.365	11.74
521.564	11.82
521.762	11.74
521.961	11.88
522.16	11.94
522.359	12.09
522.558	11.95
522.757	11.95
522.956	11.91
523.154	11.96
523.353	12.03
523.552	12.05
523.751	12.11
523.949	12.17
524.148	12.33
524.347	12.29
524.546	12.26
524.744	12.29
524.943	12.39
525.142	12.31
525.34	12.32
525.539	12.35
525.737	12.38
525.936	12.33
526.135	12.39
526.333	12.29
526.532	12.27
526.73	12.31
526.929	12.39
527.127	12.37
527.326	12.45
527.524	12.44
527.723	12.46
527.921	12.55
528.12	12.55
528.318	12.44
528.516	12.45
528.715	12.44
528.913	12.43
529.112	12.43
529.31	12.43
529.508	12.4
529.707	12.46
529.905	12.44
530.103	12.46
530.301	12.5
530.5	12.56
530.698	12.55
530.896	12.7
531.094	12.76
531.293	12.84
531.491	12.84
531.689	12.95
531.887	13.01
532.085	13.08
532.283	13.07
532.481	13.12
532.68	13.25
532.878	13.36
533.076	13.29
533.274	13.35
533.472	13.32
533.67	13.32
533.868	13.35
534.066	13.27
534.264	13.27
534.462	13.25
534.66	13.22
534.858	13.21
535.056	13.18
535.253	13.24
535.451	13.31
535.649	13.36
535.847	13.53
536.045	13.51
536.243	13.65
536.441	13.74
536.638	13.83
536.836	13.83
537.034	13.8
537.232	13.9
537.43	13.91
537.627	13.85
537.825	13.84
538.023	13.78
538.22	13.89
538.418	13.92
538.616	13.93
538.813	14
539.011	14.08
539.209	14.2
539.406	14.23
539.604	14.36
539.801	14.37
539.999	14.37
540.196	14.48
540.394	14.53
540.591	14.68
540.789	14.74
540.986	14.78
541.184	14.87
541.381	14.86
541.579	14.91
541.776	14.81
541.974	14.77
542.171	14.85
542.368	14.88
542.566	14.9
542.763	14.81
542.96	14.8
543.158	14.75
543.355	14.75
543.552	14.76
543.75	14.83
543.947	14.97
544.144	15.13
544.341	15.15
544.539	15.15
544.736	15.2
544.933	15.28
545.13	15.38
545.327	15.41
545.524	15.54
545.722	15.71
545.919	15.68
546.116	15.74
546.313	15.75
546.51	15.79
546.707	15.8
546.904	15.76
547.101	15.79
547.298	15.92
547.495	16
547.692	15.96
547.889	15.87
548.086	15.85
548.283	15.95
548.48	16.07
548.677	16.19
548.874	16.45
549.07	16.62
549.267	16.58
549.464	16.57
549.661	16.58
549.858	16.65
550.055	16.91
550.251	16.98
550.448	16.95
550.645	17.02
550.842	17.1
551.038	16.96
551.235	17.11
551.432	17.25
551.628	17.41
551.825	17.64
552.022	17.75
552.218	17.74
552.415	18.01
552.612	18.27
552.808	18.24
553.005	18.23
553.201	18.31
553.398	18.2
553.594	18.32
553.791	18.24
553.987	18.16
554.184	18.19
554.38	18.35
554.577	18.3
554.773	18.25
554.97	18.35
555.166	18.58
555.362	18.79
555.559	18.98
555.755	19.08
555.952	19.21
556.148	19.51
556.344	19.66
556.541	19.64
556.737	19.51
556.933	19.69
557.129	19.72
557.326	19.66
557.522	19.61
557.718	19.71
557.914	19.93
558.11	20.04
558.307	20.13
558.503	20.13
558.699	20.24
558.895	20.66
559.091	20.61
559.287	20.98
559.483	21.21
559.679	21.29
559.876	21.41
560.072	21.19
560.268	21.32
560.464	21.29
560.66	21.34
560.856	21.39
561.052	21.3
561.247	21.36
561.443	21.14
561.639	21.06
561.835	20.87
562.031	20.99
562.227	21.15
562.423	21.01
562.619	20.98
562.815	21.06
563.01	21.31
563.206	21.38
563.402	21.44
563.598	21.71
563.793	21.74
563.989	21.93
564.185	21.92
564.381	21.95
564.576	22.05
564.772	22.27
564.968	22.39
565.163	22.29
565.359	22.36
565.555	22.55
565.75	22.68
565.946	22.79
566.141	23.03
566.337	23.05
566.532	23.06
566.728	23.14
566.923	23.07
567.119	23.04
567.314	23.05
567.51	23.2
567.705	23.14
567.901	22.91
568.096	22.99
568.292	23.02
568.487	23.11
568.682	23.27
568.878	23.26
569.073	23.41
569.268	23.58
569.464	23.78
569.659	23.86
569.854	23.93
570.05	24.11
570.245	24.04
570.44	24.01
570.635	23.96
570.831	24.11
571.026	24.28
571.221	24.35
571.416	24.28
571.611	24.09
571.806	24.01
572.002	24.05
572.197	24.12
572.392	24.15
572.587	24.17
572.782	24.23
572.977	24.3
573.172	24.15
573.367	24.21
573.562	24.33
573.757	24.43
573.952	24.42
574.147	24.54
574.342	24.44
574.537	24.56
574.732	24.59
574.927	24.6
575.121	24.64
575.316	24.68
575.511	24.74
575.706	24.62
575.901	24.78
576.096	24.83
576.29	24.72
576.485	24.95
576.68	24.97
576.875	25.09
577.069	24.99
577.264	24.96
577.459	25.35
577.654	25.11
577.848	25.23
578.043	25.21
578.238	25.45
578.432	25.61
578.627	25.49
578.821	25.56
579.016	25.72
579.21	26.08
579.405	25.98
579.6	25.84
579.794	26.24
579.989	26.33
580.183	26.23
580.378	26.05
580.572	26.18
580.766	26.4
580.961	26.48
581.155	26.3
581.35	26.41
581.544	26.45
581.738	26.32
581.933	26.07
582.127	26.03
582.321	26.17
582.516	26.4
582.71	26.21
582.904	26.2
583.099	26.27
583.293	26.54
583.487	26.48
583.681	26.54
583.875	26.51
584.07	26.43
584.264	26.59
584.458	26.9
584.652	26.87
584.846	26.95
585.04	27.06
585.234	27.21
585.428	27.23
585.623	27.23
585.817	27.37
586.011	27.53
586.205	27.87
586.399	27.77
586.593	27.64
586.787	27.6
586.981	27.86
587.174	27.89
587.368	27.76
587.562	27.76
587.756	27.82
587.95	27.88
588.144	28.05
588.338	28.32
588.532	28.44
588.725	28.54
588.919	28.73
589.113	28.55
589.307	28.73
589.501	28.8
589.694	28.81
589.888	28.94
590.082	29.05
590.275	28.89
590.469	28.94
590.663	29.2
590.856	29.16
591.05	29.21
591.244	29.58
591.437	29.31
591.631	29.37
591.824	29.23
592.018	29.53
592.212	29.77
592.405	29.88
592.599	29.58
592.792	29.49
592.986	29.5
593.179	29.32
593.372	29.09
593.566	29.26
593.759	29.26
593.953	29.42
594.146	29.2
594.339	29.03
594.533	29.13
594.726	29.18
594.92	29.18
595.113	29.26
595.306	29.39
595.499	29.32
595.693	29.39
595.886	29.44
596.079	29.48
596.272	29.36
596.466	29.23
596.659	29.27
596.852	29.54
597.045	29.62
597.238	29.67
597.431	29.86
597.624	29.83
597.818	29.81
598.011	29.75
598.204	29.8
598.397	29.85
598.59	30.06
598.783	30.06
598.976	29.93
599.169	29.97
599.362	29.94
599.555	29.89
599.748	30.14
599.941	30.09
600.134	30.27
600.326	30.37
600.519	30.7
600.712	31.08
600.905	31.15
601.098	31.33
601.291	31.39
601.483	31.61
601.676	31.64
601.869	31.75
602.062	32.06
602.255	32.05
602.447	31.79
602.64	31.82
602.833	31.37
603.025	31.36
603.218	31.16
603.411	31.03
603.603	31.09
603.796	31.12
603.989	30.92
604.181	30.73
604.374	30.78
604.566	30.98
604.759	30.92
604.951	30.89
605.144	31.04
605.336	31.19
605.529	31.33
605.721	31.22
605.914	31.21
606.106	31.46
606.299	31.69
606.491	31.66
606.683	31.58
606.876	31.65
607.068	31.92
607.26	31.93
607.453	32.03
607.645	31.99
607.837	31.99
608.03	32.15
608.222	32.2
608.414	31.97
608.606	31.96
608.799	32.14
608.991	31.92
609.183	31.77
609.375	31.46
609.567	31.42
609.759	31.35
609.952	31.59
610.144	31.51
610.336	31.39
610.528	31.32
610.72	31.41
610.912	31.42
611.104	31.63
611.296	31.72
611.488	32.13
611.68	32.17
611.872	32.27
612.064	32.27
612.256	32.36
612.448	32.4
612.64	32.55
612.832	32.53
613.023	32.64
613.215	32.51
613.407	32.52
613.599	32.62
613.791	32.48
613.983	32.46
614.174	32.19
614.366	32.01
614.558	31.99
614.75	32.23
614.941	32.24
615.133	32.19
615.325	32.29
615.516	32.29
615.708	32.08
615.9	32.17
616.091	32.35
616.283	32.5
616.475	32.45
616.666	32.71
616.858	32.56
617.049	32.38
617.241	32.38
617.432	32.28
617.624	32.35
617.815	32.51
618.007	32.59
618.198	32.41
618.39	32.12
618.581	32.2
618.773	31.94
618.964	32.1
619.155	32.55
619.347	32.26
619.538	32.35
619.729	32.3
619.921	32.27
620.112	32.15
620.303	32.07
620.494	32.26
620.686	32.37
620.877	32.54
621.068	32.48
621.259	32.24
621.451	32.37
621.642	32.26
621.833	32.14
622.024	32.06
622.215	32.25
622.406	32.44
622.597	32.48
622.788	32.35
622.98	32.32
623.171	32.19
623.362	32.46
623.553	32.81
623.744	33.01
623.935	33.16
624.126	32.98
624.317	33.04
624.508	33.19
624.698	33.17
624.889	33.16
625.08	33.11
625.271	33.3
625.462	33.23
625.653	33.17
625.844	33.08
626.034	32.74
626.225	32.86
626.416	32.69
626.607	32.68
626.798	32.87
626.988	33.06
627.179	32.88
627.37	32.86
627.56	32.67
627.751	32.26
627.942	32.4
628.132	32.65
628.323	32.69
628.514	32.8
628.704	32.79
628.895	32.58
629.085	32.51
629.276	32.91
629.466	32.98
629.657	33.02
629.847	33.45
630.038	33.41
630.228	33.66
630.419	33.78
630.609	33.6
630.8	33.5
630.99	33.75
631.181	33.8
631.371	33.75
631.561	33.63
631.752	33.73
631.942	33.83
632.132	33.81
632.323	33.82
632.513	33.75
632.703	33.58
632.893	33.55
633.084	33.32
633.274	33.26
633.464	33.03
633.654	33.15
633.844	33.18
634.034	33.11
634.225	32.89
634.415	32.99
634.605	33.19
634.795	33.42
634.985	33.39
635.175	33.51
635.365	33.3
635.555	33.55
635.745	33.47
635.935	33.46
636.125	32.98
636.315	33.01
636.505	33.05
636.695	32.82
636.885	32.87
637.075	32.97
637.265	33.07
637.455	33.42
637.644	33.45
637.834	33.35
638.024	33.29
638.214	34.02
638.404	34.04
638.593	34.04
638.783	33.79
638.973	33.74
639.163	33.67
639.352	33.33
639.542	33.26
639.732	33.13
639.921	33.41
640.111	33.51
640.301	33.17
640.49	33.5
640.68	33.2
640.87	33.14
641.059	33.52
641.249	33.85
641.438	34.25
641.628	34.46
641.817	34.48
642.007	34.41
642.196	34.43
642.386	34.58
642.575	34.45
642.764	34.38
642.954	34.82
643.143	34.56
643.333	34.39
643.522	34
643.711	33.69
643.901	33.43
644.09	33.32
644.279	33.45
644.469	33.45
644.658	33.37
644.847	33.48
645.036	33.19
645.226	33.58
645.415	33.77
645.604	34.07
645.793	34.41
645.982	34.49
646.171	34.49
646.361	33.94
646.55	33.56
646.739	33.81
646.928	33.79
647.117	34
647.306	33.8
647.495	33.39
647.684	33.33
647.873	33.28
648.062	33.76
648.251	34
648.44	34.44
648.629	34.5
648.818	34.53
649.007	34.65
649.196	34.74
649.384	34.48
649.573	34.85
649.762	34.92
649.951	34.78
650.14	34.64
650.328	34.6
650.517	34.58
650.706	34.94
650.895	34.91
651.083	34.95
651.272	34.68
651.461	34.74
651.65	34.87
651.838	35.23
652.027	35.12
652.216	35.09
652.404	35.02
652.593	35.1
652.781	35.17
652.97	35.2
653.158	35.23
653.347	35.39
653.535	35.65
653.724	35.63
653.912	35.51
654.101	35.44
654.289	35.41
654.478	35.75
654.666	35.83
654.855	35.38
655.043	35.08
655.231	35.03
655.42	35.07
655.608	34.89
655.796	34.97
655.985	34.93
656.173	34.86
656.361	34.76
656.55	34.36
656.738	33.93
656.926	34.14
657.114	34.34
657.302	34.25
657.491	34.18
657.679	33.82
657.867	33.76
658.055	33.56
658.243	33.59
658.431	33.86
658.619	33.8
658.807	34.14
658.996	34.13
659.184	34.05
659.372	34.29
659.56	34.3
659.748	34.58
659.936	34.82
660.124	34.74
660.311	35.15
660.499	34.9
660.687	34.94
660.875	35.05
661.063	35.23
661.251	35.5
661.439	35.28
661.627	35.42
661.814	35.36
662.002	34.94
662.19	35.15
662.378	34.93
662.565	35.11
662.753	35.12
662.941	34.76
663.129	34.6
663.316	34.27
663.504	34.4
663.692	34.67
663.879	34.89
664.067	34.95
664.254	34.95
664.442	35.19
664.63	35.1
664.817	35.01
665.005	35.43
665.192	35.16
665.38	35.61
665.567	35.34
665.755	34.95
665.942	34.83
666.13	34.8
666.317	34.64
666.504	34.15
666.692	34.31
666.879	34.39
667.067	33.97
667.254	34.26
667.441	33.94
667.629	34.38
667.816	34.63
668.003	34.94
668.19	35.08
668.378	34.99
668.565	35.39
668.752	35.19
668.939	35.38
669.127	35.13
669.314	35.21
669.501	34.73
669.688	34.67
669.875	34.73
670.062	34.86
670.249	35.08
670.436	35.35
670.623	35.45
670.81	35.65
670.997	35.51
671.184	36.33
671.371	36.36
671.558	36.92
671.745	36.87
671.932	36.59
672.119	36.28
672.306	36.01
672.493	35.92
672.68	35.68
672.867	35.29
673.054	35.18
673.24	34.62
673.427	34.52
673.614	34.58
673.801	34.72
673.988	35.02
674.174	35.31
674.361	35.42
674.548	35.08
674.734	34.91
674.921	35.52
675.108	35.99
675.294	36.36
675.481	36.27
675.668	36.69
675.854	36.56
676.041	36.17
676.227	35.72
676.414	35.65
676.601	36.25
676.787	36.18
676.974	36.21
677.16	36.2
677.347	36.2
677.533	36.62
677.719	36.11
677.906	35.92
678.092	36.12
678.279	36.14
678.465	36.07
678.651	35.61
678.838	35.67
679.024	35.19
679.21	34.76
679.397	34.4
679.583	34.38
679.769	34.33
679.955	34.48
680.142	34.33
680.328	34.41
680.514	34.33
680.7	34.6
680.886	34.5
681.073	34.64
681.259	35.18
681.445	35.57
681.631	35.39
681.817	35.05
682.003	35.15
682.189	35.18
682.375	35.47
682.561	35.42
682.747	35.62
682.933	35.99
683.119	35.69
683.305	35.32
683.491	35.11
683.677	35.04
683.863	35.75
684.049	35.68
684.235	35.84
684.42	35.79
684.606	35.59
684.792	35.67
684.978	35.4
685.164	35.51
685.349	35.66
685.535	35.68
685.721	36.19
685.907	35.96
686.092	36.15
686.278	36.38
686.464	35.8
686.649	35.85
686.835	35.56
687.021	35.85
687.206	36.2
687.392	36.02
687.577	35.91
687.763	35.44
687.948	35.75
688.134	35.22
688.319	35.31
688.505	35.88
688.69	35.63
688.876	35.8
689.061	35.45
689.247	35.68
689.432	35.61
689.618	35.75
689.803	35.61
689.988	35.51
690.174	36.07
690.359	35.77
690.544	35.72
690.73	36.62
690.915	36.59
691.1	36.71
691.285	36.5
691.471	36.68
691.656	36.65
691.841	36.93
692.026	36.61
692.211	36.75
692.396	36.91
692.582	36.43
692.767	35.99
692.952	36.17
693.137	36.07
693.322	36.25
693.507	36.28
693.692	36.35
693.877	36.16
694.062	36.63
694.247	36.39
694.432	36.02
694.617	36.42
694.802	36.77
694.987	36.87
695.172	37.46
695.357	36.98
695.541	37.51
695.726	37.63
695.911	37.98
696.096	37.44
696.281	37.18
696.466	37.63
696.65	37.46
696.835	37.62
697.02	36.8
697.204	36.48
697.389	36.9
697.574	36.44
697.759	36.33
697.943	36.38
698.128	36.24
698.312	36.47
698.497	35.77
698.682	35.63
698.866	35.25
699.051	35.56
699.235	35.44
699.42	35.21
699.604	34.9
699.789	34.9
699.973	34.55
700.158	34.74
700.342	34.82
700.527	35.58
700.711	35.86
700.895	36.02
701.08	35.91
701.264	36.19
701.448	36.42
701.633	36.65
701.817	36.84
702.001	37.08
702.186	37.38
702.37	37.38
702.554	36.73
702.738	36.59
702.923	35.98
703.107	35.98
703.291	35.7
703.475	35.47
703.659	35.41
703.843	35.4
704.027	35.74
704.212	35.11
704.396	34.65
704.58	34.85
704.764	34.84
704.948	35.54
705.132	35.93
705.316	36.06
705.5	35.93
705.684	36.1
705.868	35.74
706.052	35.75
706.235	36.59
706.419	36.83
706.603	37.38
706.787	37.44
706.971	37.16
707.155	36.67
707.339	36.69
707.522	37.04
707.706	37.17
707.89	36.94
708.074	37
708.257	36.92
708.441	36.44
708.625	36.25
708.808	36.55
708.992	36.71
709.176	37.34
709.359	38.15
709.543	37.82
709.727	38.13
709.91	37.97
710.094	37.91
710.277	37.35
710.461	37.73
710.644	37.91
710.828	37.76
711.011	37.74
711.195	37.18
711.378	36.13
711.562	35.86
711.745	35.75
711.928	36.65
712.112	36.85
712.295	37.05
712.478	37.09
712.662	37.06
712.845	37.41
713.028	37.33
713.212	37.31
713.395	37.55
713.578	37.72
713.761	37.36
713.945	36.84
714.128	36.41
714.311	36.67
714.494	36.97
714.677	36.49
714.86	35.95
715.043	36.12
715.227	36.34
715.41	36.62
715.593	36.98
715.776	37
715.959	36.73
716.142	35.92
716.325	35.65
716.508	34.98
716.691	35.46
716.874	35.53
717.057	35.41
717.239	35.49
717.422	35.42
717.605	35.62
717.788	35.01
717.971	36.19
718.154	36.87
718.337	36.48
718.519	36.91
718.702	36.31
718.885	36.11
719.068	36.27
719.25	36.34
719.433	35.5
719.616	35.01
719.798	35.73
719.981	35.34
720.164	35.38
720.346	35.92
720.529	35.87
720.712	35.96
720.894	36.54
721.077	36.43
721.259	36.17
721.442	37.49
721.624	37.55
721.807	38.07
721.989	37.32
722.172	37.72
722.354	37.35
722.537	37.2
722.719	37.16
722.901	36.47
723.084	35.95
723.266	36.87
723.448	36.5
723.631	36.57
723.813	36.21
723.995	37.24
724.178	37.23
724.36	37.83
724.542	37.23
724.724	37.57
724.907	38.12
725.089	38.11
725.271	37.65
725.453	37.66
725.635	37.64
725.817	37.72
725.999	37.75
726.181	37.96
726.364	38.12
726.546	38.08
726.728	37.97
726.91	38.67
727.092	38.67
727.274	38.45
727.456	38.05
727.638	37.64
727.819	37.47
728.001	36.55
728.183	36.39
728.365	36.01
728.547	37.1
728.729	37.43
728.911	36.05
729.093	36.53
729.274	36.03
729.456	36.28
729.638	36.95
729.82	37.42
730.001	37.99
730.183	38.14
730.365	37.36
730.546	37.19
730.728	36.94
730.91	37.3
731.091	38.14
731.273	38.45
731.455	38.66
731.636	38.05
731.818	37.53
731.999	37.14
732.181	37.06
732.362	38.43
732.544	38.46
732.725	39.05
732.907	38.69
733.088	37.89
733.27	37.72
733.451	37.65
733.633	38.25
733.814	38.87
733.995	39.2
734.177	39.62
734.358	38.92
734.539	38.5
734.721	37.96
734.902	38.55
735.083	38.95
735.264	39.81
735.446	40.56
735.627	39.68
735.808	38.48
735.989	37.93
736.17	37.01
736.351	37.57
736.533	37.43
736.714	38.06
736.895	38.23
737.076	37.97
737.257	37.84
737.438	36.94
737.619	37.47
737.8	37.69
737.981	37.96
738.162	38.4
738.343	38.02
738.524	38.56
738.705	37.31
738.886	37.42
739.067	37.2
739.247	36.47
739.428	37.11
739.609	37.31
739.79	38.78
739.971	38.02
740.151	37.85
740.332	38.31
740.513	38
740.694	38.23
740.874	39.03
741.055	39.82
741.236	39.42
741.417	37.98
741.597	37.56
741.778	36.52
741.958	36.69
742.139	36.89
742.32	36.01
742.5	37.35
742.681	38.09
742.861	36.52
743.042	36.09
743.222	36.98
743.403	37.24
743.583	37.7
743.764	38.6
743.944	39.51
744.124	39.73
744.305	40.14
744.485	39.79
744.666	39.55
744.846	39.47
745.026	39
745.207	39.26
745.387	40.52
745.567	41.17
745.747	40.31
745.928	40.47
746.108	39.44
746.288	39.46
746.468	39.2
746.648	39.52
746.829	40.56
747.009	41.53
747.189	40.91
747.369	40.27
747.549	39.96
747.729	39.26
747.909	38.88
748.089	39.2
748.269	38.98
748.449	38.63
748.629	37.71
748.809	37.08
748.989	37.23
749.169	36.33
749.349	37.11
749.529	36.18
749.709	36.39
749.889	35.76
750.068	36.06
750.248	36.95
750.428	36.25
750.608	36.76
750.788	36.88
750.967	36.26
751.147	37.42
751.327	36.71
751.507	36.39
751.686	36.84
751.866	37.69
752.046	38.24
752.225	37.99
752.405	38.02
752.585	38.1
752.764	38.29
752.944	36.86
753.123	36.41
753.303	36.76
753.482	37.38
753.662	37.28
753.841	36.92
754.021	36.71
754.2	36.25
754.38	37.43
754.559	37.28
754.739	36.92
754.918	37.47
755.097	38.06
755.277	38.14
755.456	38.5
755.635	38.8
755.815	38.9
755.994	39.05
756.173	39.19
756.352	37.77
756.532	37.24
756.711	37.25
756.89	38.04
757.069	37.98
757.248	38.07
757.427	38.13
757.607	38.09
757.786	38.71
757.965	37.52
758.144	36.73
758.323	38.14
758.502	37.91
758.681	37.66
758.86	37.33
759.039	36.81
759.218	36.56
759.397	36.84
759.576	36.85
759.755	35.72
759.934	36.22
760.113	37.6
760.291	36.35
760.47	37.48
760.649	38.39
760.828	38.46
761.007	38.96
761.186	39.26
761.364	38.9
761.543	39.31
761.722	39.97
761.901	40.15
762.079	39.25
762.258	39.48
762.437	40.32
762.615	39.74
762.794	40.28
762.972	39.39
763.151	39.04
763.33	38.9
763.508	38.65
763.687	38.19
763.865	37.52
764.044	37.23
764.222	37.9
764.401	36.82
764.579	37.01
764.758	36.3
764.936	36.93
765.114	36.58
765.293	36.68
765.471	36.5
765.65	36.99
765.828	38.26
766.006	38.67
766.184	38.16
766.363	38.72
766.541	38.38
766.719	38.73
766.898	38.96
767.076	39.73
767.254	40.04
767.432	39.72
767.61	38.62
767.788	39.03
767.967	39.88
768.145	39.94
768.323	39.71
768.501	41.09
768.679	41.66
768.857	41.06
769.035	41.79
769.213	41.06
769.391	42.19
769.569	44.27
769.747	42.66
769.925	42.52
770.103	42.8
770.281	42.64
770.459	40.74
770.636	40.27
770.814	40.18
770.992	39.87
771.17	40.89
771.348	40.18
771.525	39.61
771.703	39.52
771.881	39.49
772.059	40.21
772.236	39.65
772.414	41.66
772.592	42.34
772.769	43.16
772.947	43.37
773.125	42.86
773.302	42.57
773.48	42.36
773.657	43.52
773.835	43.55
774.013	41.66
774.19	42.34
774.368	39.41
774.545	38.4
774.723	38.81
774.9	36.02
775.077	36.94
775.255	37.58
775.432	39.12
775.61	39.19
775.787	38.73
775.964	40.54
776.142	40.8
776.319	42.88
776.496	43.24
776.674	43.5
776.851	45.3
777.028	45.08
777.205	46.36
777.382	45.85
777.56	44.73
777.737	46.34
777.914	44.71
778.091	44.12
778.268	42.35
778.445	42.25
778.622	41.64
778.8	41.71
778.977	40.8
779.154	42.13
779.331	40.51
779.508	40.15
779.685	36.71
779.862	37.56
780.038	36.65
780.215	38.17
780.392	37.68
780.569	38.02
780.746	38.51
780.923	38.97
781.1	35.19
781.277	35.87
781.453	36.31
781.63	38.36
781.807	39.64
781.984	41.09
782.16	41.55
782.337	41.76
782.514	42.74
782.691	43.4
782.867	43.32
783.044	45.46
783.221	46.74
783.397	47.42
783.574	46.79
783.75	46.72
783.927	46.22
784.103	45.69
784.28	45.24
784.456	45.25
784.633	44.78
784.809	45.22
784.986	43.18
785.162	41.52
785.339	40.77
785.515	43.32
785.692	40.99
785.868	41.26
786.044	41.58
786.221	42.78
786.397	40.57
786.573	39.73
786.749	39.11
786.926	39.35
787.102	39.24
787.278	39.46
787.454	38.23
787.631	39.42
787.807	38.91
787.983	37.78
788.159	37.68
788.335	38.57
788.511	39.35
788.687	38.44
788.863	38.36
789.039	37.47
789.216	36.74
789.392	36.14
789.568	36.73
789.744	39.09
789.919	40.41
790.095	40.38
790.271	40.75
790.447	39.18
790.623	39.84
790.799	41.41
790.975	42.67
791.151	43.61
791.327	44.04
791.502	43.29
791.678	41.29
791.854	41.64
792.03	40.44
792.205	39.94
792.381	42.15
792.557	42.22
792.733	41.05
792.908	40.64
793.084	40.47
793.259	39.19
793.435	40.19
793.611	41.11
793.786	39.52
793.962	40.59
794.137	38.75
794.313	38.98
794.488	42.23
794.664	43.08
794.839	44.24
795.015	43.82
795.19	43.45
795.366	40.99
795.541	39.71
795.716	37.59
795.892	37.83
796.067	40.39
796.242	36.53
796.418	36.15
796.593	36.4
796.768	37.73
796.944	38.23
797.119	39.56
797.294	40.83
797.469	39.79
797.644	43.48
797.82	42.32
797.995	40.76
798.17	42.86
798.345	41.37
798.52	41.07
798.695	38.75
798.87	38.57
799.045	36.36
799.22	35.95
799.395	39.53
799.57	37.5
799.745	38.04
799.92	38.83
800.095	41.45
800.27	39.59
800.445	38.09
800.62	39.57
800.795	40.27
800.97	41.31
801.145	40.66
801.319	39.07
801.494	37.84
801.669	38.82
801.844	38.06
802.018	36.03
802.193	37.26
802.368	35.76
802.543	36.7
802.717	35.9
802.892	36.86
803.067	39.07
803.241	40.45
803.416	41.72
803.59	41.17
803.765	44.13
803.94	42.08
804.114	40.76
804.289	43.02
804.463	43.53
804.638	42.63
804.812	42.96
804.986	43.94
805.161	44.6
805.335	47.16
805.51	47.49
805.684	44.3
805.858	45.57
806.033	46.09
806.207	47.7
806.381	45.17
806.556	46.38
806.73	44.52
806.904	42.24
807.078	41.78
807.253	42.26
807.427	42.17
807.601	44.56
807.775	45.67
807.949	47.12
808.123	46.58
808.298	46.2
808.472	47.03
808.646	50.39
808.82	50.76
808.994	48.65
809.168	47.17
809.342	48.5
809.516	46.92
809.69	46.92
809.864	44.27
810.038	45.09
810.212	45.28
810.385	44.26
810.559	41.52
810.733	42.21
810.907	40.94
811.081	39.16
811.255	37.97
811.428	37.85
811.602	37.28
811.776	38.02
811.95	37.74
812.123	40.55
812.297	40.82
812.471	43.16
812.644	43.2
812.818	45.08
812.992	47.62
813.165	49.21
813.339	46.14
813.512	44.59
813.686	46.83
813.86	44.87
814.033	43.27
814.207	44.21
814.38	41.96
814.554	42.55
814.727	42.65
814.9	39.97
815.074	36.36
815.247	39.11
815.421	39.95
815.594	37.93
815.767	38.76
815.941	37.53
816.114	35.53
816.287	38.21
816.46	37.36
816.634	34.51
816.807	35.69
816.98	37.12
817.153	36.95
817.327	34.21
817.5	34.45
817.673	33.37
817.846	35.58
818.019	36.43
818.192	35.77
818.365	38.18
818.538	40.75
818.711	39.9
818.884	37.97
819.057	38.43
819.23	40.54
819.403	40.96
819.576	42.58
819.749	41.49
819.922	41.88
820.095	41.48
820.268	40.9
820.441	41.16
820.614	41.94
820.786	42.75
820.959	42.87
821.132	42.39
821.305	41.99
821.477	40.43
821.65	39.53
821.823	38.94
821.996	38.64
822.168	37.87
822.341	36.6
822.514	36.5
822.686	36.51
822.859	36.33
823.031	35.71
823.204	35.3
823.376	35.15
823.549	34.95
823.722	34.81
823.894	34.71
824.067	34.8
824.239	35.16
824.411	35.49
824.584	35.99
824.756	35.9
824.929	36.52
825.101	37.4
825.273	37.49
825.446	38.74
825.618	38.81
825.79	39.32
825.963	39.25
826.135	39.53
826.307	39.3
826.479	38.8
826.652	39.56
826.824	40.11
826.996	39.39
827.168	40.11
827.34	39.94
827.512	39.88
827.684	39.18
827.856	39.67
828.029	39.69
828.201	39.59
828.373	39.68
828.545	39.38
828.717	37.82
828.889	38.22
829.061	38.73
829.232	39.06
829.404	39.83
829.576	41.08
829.748	41.13
829.92	42.18
830.092	43.06
830.264	42.58
830.436	43.09
830.607	44.51
830.779	44.93
830.951	46.34
831.123	46.29
831.294	46.86
831.466	47.04
831.638	46.18
831.809	46.57
831.981	45.23
832.153	47.62
832.324	47.2
832.496	47.14
832.667	47.19
832.839	45.47
833.011	44.58
833.182	44.24
833.354	40.63
833.525	41.05
833.697	39.83
833.868	37.38
834.039	35.62
834.211	35.3
834.382	36.44
834.554	36.51
834.725	37.42
834.896	37.76
835.068	37.68
835.239	39.3
835.41	40.87
835.581	41.64
835.753	44.15
835.924	45.67
836.095	44.88
836.266	44.04
836.438	43.75
836.609	41.58
836.78	39.68
836.951	40.88
837.122	40.68
837.293	40.56
837.464	38.69
837.635	39.45
837.806	36.88
837.977	39.76
838.148	40.81
838.319	40.89
838.49	42.86
838.661	45.94
838.832	43.47
839.003	46.13
839.174	45.59
839.345	48.72
839.516	47.09
839.687	49.67
839.857	46.54
840.028	44.12
840.199	43.37
840.37	43.66
840.54	44.24
840.711	46.43
840.882	43
841.053	41.42
841.223	38.5
841.394	36.78
841.564	37.75
841.735	39.53
841.906	44.58
842.076	48.74
842.247	49.97
842.417	48.56
842.588	46.2
842.758	47.88
842.929	46.53
843.099	49.02
843.27	54.99
843.44	53.9
843.611	55.2
843.781	51.18
843.951	51.51
844.122	49.93
844.292	44.99
844.462	48.57
844.633	49.16
844.803	46.73
844.973	45.88
845.144	45.8
845.314	45.23
845.484	47.78
845.654	50.92
845.824	50.98
845.995	44.75
846.165	60.37
846.335	57.17
846.505	60.09
846.675	75.82
846.845	90.85
847.015	85.9
847.185	94.45
847.355	88.64
847.525	88.16
847.695	87.81
847.865	97
848.035	86.75
848.205	92.38
848.375	84.22
848.545	72.61
848.715	56.65
848.884	58.11
849.054	52.5
849.224	57.42
849.394	55.66
849.564	53.4
849.733	49.46
849.903	56.18
850.073	57.85
850.243	65.48
850.412	65.71
850.582	62.72
850.752	65.58
850.921	57.74
851.091	59.91
851.26	68.88
851.43	74.38
851.599	76.26
851.769	74.59
851.939	66.97
852.108	70.84
852.278	72.5
852.447	78.13
852.616	76.06
852.786	81.97
852.955	78.82
853.125	79.59
853.294	77.95
853.463	72.03
853.633	66.89
853.802	76.46
853.971	69.92
854.141	79.67
854.31	75.52
854.479	84.77
854.648	100.83
854.818	99.46
854.987	93.16
855.156	94.78
855.325	102.27
855.494	103.73
855.663	90.97
855.832	86.79
856.001	79.28
856.171	82.38
856.34	74.38
856.509	69.46
856.678	68.77
856.847	65.01
857.016	61.09
857.185	61.79
857.353	61.96
857.522	63.47
857.691	65.21
857.86	66.68
858.029	74.99
858.198	71.46
858.367	65.34
858.535	66.35
858.704	63.89
858.873	60.89
859.042	51.86
859.21	55.87
859.379	57.27
859.548	61.22
859.717	54.6
859.885	50.85
860.054	50.43
860.222	50.75
860.391	43.54
860.56	50.49
860.728	44.57
860.897	48.09
861.065	46.27
861.234	48.4
861.402	47.17
861.571	50.64
861.739	47.38
861.908	55.18
862.076	55.86
862.244	61.28
862.413	59.13
862.581	81.2
862.749	90.73
862.918	89.86
863.086	100.45
863.254	80.97
863.423	80.55
863.591	82.12
863.759	75.59
863.927	79.09
864.096	77.69
864.264	85.18
864.432	69.98
864.6	65.38
864.768	77.6
864.936	74.1
865.104	78.38
865.272	90.31
865.44	84.41
865.608	82.16
865.776	78.91
865.944	79.33
866.112	68.69
866.28	63.89
866.448	52.01
866.616	52.35
866.784	47.96
866.952	45.1
867.12	36.06
867.288	46.07
867.455	53.45
867.623	49.3
867.791	46.22
867.959	44.44
868.127	47.43
868.294	51.41
868.462	45.99
868.63	48.03
868.797	47.28
868.965	54.2
869.133	48.04
869.3	51.97
869.468	52.95
869.636	51.89
869.803	52.27
869.971	54.91
870.138	51.52
870.306	54.61
870.473	61.51
870.641	62.84
870.808	61.41
870.975	59.93
871.143	53.79
871.31	49.19
871.478	67.24
871.645	76.47
871.812	72.49
871.98	83.53
872.147	80.4
872.314	75.92
872.482	89.71
872.649	89.05
872.816	91.93
872.983	90.9
873.15	95.78
873.318	83.33
873.485	88.87
873.652	75.47
873.819	75.71
873.986	81.64
874.153	77.67
874.32	74.83
874.487	70
874.654	63.01
874.821	58.92
874.988	51.29
875.155	51.15
875.322	42.14
875.489	54.53
875.656	54.16
875.823	45.01
875.99	45.77
876.157	42.78
876.324	47.14
876.49	57.74
876.657	61.23
876.824	76.08
876.991	74.5
877.157	83.29
877.324	78.83
877.491	68.49
877.658	73.6
877.824	62.15
877.991	52.06
878.157	49.47
878.324	43.93
878.491	43.64
878.657	46.59
878.824	53.58
878.99	48.09
879.157	41.31
879.323	45.14
879.49	41.15
879.656	51.35
879.823	57.37
879.989	62.93
880.156	70.24
880.322	66.95
880.488	65.12
880.655	60.91
880.821	61.35
880.987	60.1
881.154	59.48
881.32	58.64
881.486	58.01
881.652	55.53
881.819	49.62
881.985	43.49
882.151	44.21
882.317	42.12
882.483	40.52
882.649	40.73
882.816	43.26
882.982	42.84
883.148	41.92
883.314	39.46
883.48	39.6
883.646	39.39
883.812	39.48
883.978	41.44
884.144	41.24
884.31	41.88
884.476	42.02
884.642	39.86
884.807	40.18
884.973	39.09
885.139	39.76
885.305	40.67
885.471	41.35
885.637	40.46
885.802	38.69
885.968	39.56
886.134	40.12
886.3	39.55
886.465	43.34
886.631	41.79
886.797	45.38
886.962	45.78
887.128	44.76
887.293	47.16
887.459	50.11
887.625	48.2
887.79	46.19
887.956	42.2
888.121	42.55
888.287	39.36
888.452	40.97
888.618	38
888.783	37.73
