Data from LC_214__Reflection_1.txt Node
Date: Thu Nov 19 12:51:58 EST 2015
User: robert
Spectrometer: USB4E03001
Autoset integration time: false
Trigger mode: 4
Integration Time (sec): 1.000000E-1
Scans to average: 15
Electric dark correction enabled: true
Nonlinearity correction enabled: false
Boxcar width: 5
Stray light correction enabled: false
XAxis mode: Wavelengths
Stop averaging: false
Number of Pixels in Spectrum: 3648
>>>>>Begin Spectral Data<<<<<
177.566	12.42
177.785	35.19
178.005	-6.44
178.225	-16.28
178.445	-131.28
178.665	-48900
178.885	102.85
179.105	-223.21
179.324	171.33
179.544	464.53
179.764	137.48
179.984	21.76
180.204	38.33
180.423	99.77
180.643	476.85
180.863	625.24
181.083	130.94
181.302	154.87
181.522	68.05
181.742	-60.06
181.961	338.94
182.181	275.54
182.401	83.15
182.621	92.23
182.84	269.88
183.06	599.91
183.279	632.55
183.499	258.09
183.719	356.4
183.938	177.99
184.158	213.61
184.377	255.47
184.597	152.16
184.816	534.29
185.036	3750
185.256	116.63
185.475	54.49
185.695	40.07
185.914	34.44
186.134	29.67
186.353	31.96
186.572	35.16
186.792	33.55
187.011	-117.32
187.231	91.79
187.45	3.52
187.67	-58.32
187.889	-2868.18
188.108	12.25
188.328	-278.46
188.547	52.81
188.766	52.03
188.986	-4.03
189.205	-9.48
189.424	71.97
189.644	-84.17
189.863	144.26
190.082	122.9
190.302	-29.98
190.521	51.41
190.74	-54.61
190.959	-1330.99
191.178	2648.31
191.398	-65.61
191.617	54.26
191.836	573.15
192.055	-58.35
192.274	22.66
192.494	7.99
192.713	-58.87
192.932	-24.18
193.151	-25.71
193.37	-85.77
193.589	-19.41
193.808	-68.6
194.027	-98.4
194.246	-305.43
194.465	-364.84
194.685	19545
194.904	324.09
195.123	171.73
195.342	102.55
195.561	73.8
195.78	73.07
195.999	99.57
196.218	185.62
196.436	248.67
196.655	202.83
196.874	129.88
197.093	168.83
197.312	405.66
197.531	533.82
197.75	1051.61
197.969	-393.3
198.188	-516.11
198.407	-3550.58
198.625	201.61
198.844	302.1
199.063	465.82
199.282	419.26
199.501	-68.88
199.719	-294.07
199.938	-410.93
200.157	891.73
200.376	356.43
200.594	209.27
200.813	196.49
201.032	137.74
201.251	186.4
201.469	300.97
201.688	240.57
201.907	223.56
202.125	199.09
202.344	140.93
202.563	108.1
202.781	126.11
203	92.18
203.218	101.16
203.437	184.18
203.656	139.64
203.874	96.66
204.093	125.96
204.311	140.53
204.53	162.8
204.748	209.08
204.967	222.03
205.185	142
205.404	193.84
205.622	308.62
205.841	228
206.059	183.07
206.278	234.86
206.496	218.76
206.715	205.33
206.933	98.06
207.151	177.58
207.37	133.39
207.588	159.78
207.806	450.1
208.025	211.91
208.243	-346.74
208.461	-379.6
208.68	-1079.08
208.898	1194.71
209.116	410.4
209.335	1285.15
209.553	522.41
209.771	1210.12
209.989	-687.35
210.208	-168.14
210.426	68.14
210.644	330.14
210.862	159.29
211.081	214.41
211.299	120.76
211.517	130.67
211.735	169.65
211.953	409.62
212.171	-101.91
212.39	-62.16
212.608	-53.54
212.826	16.94
213.044	34.34
213.262	38.52
213.48	12.57
213.698	7.99
213.916	29.11
214.134	19.57
214.352	31.11
214.57	418.75
214.788	-118.09
215.006	-600.73
215.224	269.5
215.442	88.84
215.66	110.3
215.878	46.49
216.096	38.71
216.314	39.35
216.532	73.07
216.75	74.12
216.968	87.27
217.185	83.47
217.403	68.98
217.621	73.18
217.839	82.69
218.057	76.12
218.275	75.76
218.492	124.39
218.71	71.09
218.928	48.83
219.146	33.44
219.363	-13.18
219.581	-32.4
219.799	-125.38
220.017	12.56
220.234	14.75
220.452	-38.54
220.67	-11.7
220.887	-10.2
221.105	-8.31
221.323	-7.8
221.54	17.59
221.758	57.52
221.976	82.83
222.193	77.79
222.411	67.53
222.629	73.72
222.846	101.02
223.064	107.18
223.281	95.31
223.499	68.17
223.716	63.42
223.934	62.72
224.151	62.49
224.369	32.91
224.586	28.38
224.804	39.47
225.021	42.28
225.239	46.2
225.456	25.01
225.674	33.31
225.891	48.09
226.108	40.66
226.326	30.22
226.543	31.4
226.76	39.55
226.978	42.93
227.195	41.14
227.413	36.22
227.63	32.98
227.847	39.57
228.064	31.15
228.282	28.05
228.499	28.91
228.716	30.15
228.934	25.55
229.151	24.01
229.368	22.94
229.585	20.78
229.802	19.91
230.02	18.9
230.237	14.52
230.454	16.01
230.671	15.36
230.888	16.02
231.105	14.15
231.323	13.35
231.54	15.14
231.757	14.45
231.974	14.35
232.191	19.06
232.408	23.21
232.625	26.7
232.842	26.25
233.059	20.61
233.276	19.44
233.493	22.59
233.71	26.26
233.927	20.83
234.144	21.61
234.361	22.48
234.578	17.87
234.795	11.37
235.012	8.54
235.229	4.85
235.446	8.99
235.663	8.61
235.879	8.16
236.096	14.7
236.313	18.79
236.53	11.81
236.747	13.67
236.964	14.47
237.181	15.82
237.397	19.7
237.614	21.9
237.831	19.75
238.048	20.1
238.264	18.18
238.481	15.15
238.698	11.16
238.915	11.02
239.131	0.91
239.348	-1.18
239.565	-0.73
239.781	-1.18
239.998	3.81
240.215	10.56
240.431	11.35
240.648	12.82
240.865	9.12
241.081	10.5
241.298	14.41
241.514	17.45
241.731	21.28
241.947	20.47
242.164	19.56
242.38	18.15
242.597	17.76
242.814	17.21
243.03	17.43
243.246	18.72
243.463	20.2
243.679	19.08
243.896	19.33
244.112	17.9
244.329	18.43
244.545	20.18
244.762	21.87
244.978	20.02
245.194	20.07
245.411	18.48
245.627	16.18
245.843	14.18
246.06	15.46
246.276	15.61
246.492	14.91
246.709	15.58
246.925	15.75
247.141	14.25
247.357	13.78
247.574	14.21
247.79	15.05
248.006	15.69
248.222	15.21
248.439	14.88
248.655	14.12
248.871	14.28
249.087	14.11
249.303	13.25
249.519	13.69
249.736	13.69
249.952	12.31
250.168	10.42
250.384	10.48
250.6	11.57
250.816	11.31
251.032	12.11
251.248	10.32
251.464	10.7
251.68	10.54
251.896	7.22
252.112	8.08
252.328	7.53
252.544	9.03
252.76	8.9
252.976	7.18
253.192	8.12
253.408	7.13
253.624	8.82
253.84	7.46
254.056	10.87
254.272	15.64
254.487	16.54
254.703	17.59
254.919	20.16
255.135	21.9
255.351	24.2
255.567	22.95
255.782	23.03
255.998	22.26
256.214	21.15
256.43	18.82
256.646	18.85
256.861	14.94
257.077	19.1
257.293	14.12
257.508	12.36
257.724	10.6
257.94	12.47
258.155	14.64
258.371	14.56
258.587	15.55
258.802	14.01
259.018	13.93
259.234	13.74
259.449	11.71
259.665	12.36
259.88	11.58
260.096	12.14
260.312	11.17
260.527	10.6
260.743	9.65
260.958	8.65
261.174	8.92
261.389	9.07
261.605	9.13
261.82	8.89
262.036	7.9
262.251	7.47
262.466	6.77
262.682	7.19
262.897	6.6
263.113	6.64
263.328	7.49
263.543	7.83
263.759	6.77
263.974	6.21
264.189	7.14
264.405	8.82
264.62	12.01
264.835	11.07
265.051	11.8
265.266	10.96
265.481	11.92
265.696	10.63
265.912	9.86
266.127	8.98
266.342	9.08
266.557	9.14
266.773	7.88
266.988	8.46
267.203	7.99
267.418	8.03
267.633	8.38
267.848	9.04
268.064	11.03
268.279	10.93
268.494	12.77
268.709	14.17
268.924	15.07
269.139	16.51
269.354	15.86
269.569	18.3
269.784	16.98
269.999	18.18
270.214	17.7
270.429	18.43
270.644	19.28
270.859	18.07
271.074	18.58
271.289	17.59
271.504	15.76
271.719	15.15
271.934	13.83
272.149	13.98
272.363	13.86
272.578	13.72
272.793	11.36
273.008	10.24
273.223	9.66
273.438	9.22
273.653	9.34
273.867	10.6
274.082	10.67
274.297	12.29
274.512	11.36
274.726	11.09
274.941	11.6
275.156	13.43
275.371	13.39
275.585	14.78
275.8	15.39
276.015	14.85
276.229	15.73
276.444	16.57
276.659	15.86
276.873	17.79
277.088	15.53
277.302	15.44
277.517	15.28
277.732	15.1
277.946	15.32
278.161	14.89
278.375	15.26
278.59	13.51
278.804	12.13
279.019	11.85
279.233	11.75
279.448	14.05
279.662	13.11
279.877	11.89
280.091	12.17
280.306	10.99
280.52	9.63
280.735	8.19
280.949	8.99
281.163	9.9
281.378	8.27
281.592	8.08
281.806	9.03
282.021	10.91
282.235	11.4
282.449	11.36
282.664	10.83
282.878	11.9
283.092	12.8
283.307	12.21
283.521	10.75
283.735	11.63
283.949	11.64
284.164	10.04
284.378	8.11
284.592	7.89
284.806	7.67
285.02	8.12
285.234	6.69
285.449	8.47
285.663	8.96
285.877	8.59
286.091	8.41
286.305	9.4
286.519	9.49
286.733	8.7
286.947	9.08
287.161	10.21
287.375	10.4
287.589	11.42
287.803	9.76
288.017	10.29
288.231	12.68
288.445	12.97
288.659	11.94
288.873	12.45
289.087	14.23
289.301	13.6
289.515	12.22
289.729	11.14
289.943	10.95
290.157	11.42
290.371	10.23
290.584	8.82
290.798	8.76
291.012	8.6
291.226	8.5
291.44	7.8
291.654	6.73
291.867	6.33
292.081	8.07
292.295	8.6
292.509	6.69
292.722	7.41
292.936	7.64
293.15	9.2
293.364	8.73
293.577	7.78
293.791	7.44
294.005	8.75
294.218	7.8
294.432	6.92
294.645	5.1
294.859	6.44
295.073	5.95
295.286	6.49
295.5	5.84
295.713	5.24
295.927	5.68
296.14	6.43
296.354	7.27
296.568	8.6
296.781	8.38
296.994	8.76
297.208	8.46
297.421	8.9
297.635	8.89
297.848	8.79
298.062	10.12
298.275	10.14
298.489	10.4
298.702	10.52
298.915	10.33
299.129	11.85
299.342	13.05
299.555	14.37
299.769	15.22
299.982	15.77
300.195	15.66
300.409	14.91
300.622	15.67
300.835	16.69
301.048	16.18
301.262	15.71
301.475	14.42
301.688	13.81
301.901	12.54
302.115	11.07
302.328	10.07
302.541	8.31
302.754	9.31
302.967	8.62
303.18	7.57
303.393	7.56
303.607	7.74
303.82	6.51
304.033	7.55
304.246	9.22
304.459	10.59
304.672	10.39
304.885	11
305.098	10.31
305.311	11.02
305.524	11.14
305.737	12.15
305.95	12.64
306.163	13.82
306.376	12.87
306.589	12.63
306.802	12.73
307.015	13.51
307.228	15.25
307.44	14.65
307.653	14.67
307.866	14.99
308.079	13.76
308.292	13.77
308.505	13.99
308.718	13.63
308.93	13.11
309.143	12.74
309.356	12.09
309.569	12.21
309.781	12.94
309.994	12.44
310.207	11.45
310.42	11.12
310.632	11.13
310.845	11.26
311.058	11.09
311.27	10.51
311.483	10.76
311.696	10.65
311.908	9.86
312.121	10.27
312.333	10.38
312.546	11.77
312.759	12.28
312.971	11.9
313.184	11.28
313.396	12.24
313.609	12.41
313.821	11.89
314.034	13.01
314.246	13.93
314.459	11.96
314.671	12.77
314.884	11.29
315.096	11.86
315.309	12.46
315.521	12.61
315.733	12.19
315.946	12.2
316.158	13.2
316.371	12.65
316.583	11.93
316.795	13.16
317.008	11.53
317.22	10.98
317.432	10.36
317.644	10.42
317.857	9.72
318.069	10.5
318.281	11.48
318.494	10.7
318.706	10.56
318.918	10.53
319.13	10.16
319.342	12.2
319.555	12.28
319.767	12.34
319.979	11.5
320.191	12.53
320.403	9.96
320.615	8.15
320.827	7.21
321.039	6.02
321.252	6.72
321.464	7.17
321.676	7.21
321.888	8.34
322.1	8.44
322.312	8.67
322.524	8.96
322.736	9.43
322.948	10.94
323.16	10.41
323.372	10.55
323.584	10.63
323.796	9.17
324.007	8.33
324.219	7.98
324.431	7.61
324.643	8.68
324.855	7.81
325.067	8.56
325.279	7.69
325.491	9.07
325.702	9.51
325.914	8.66
326.126	10.02
326.338	9.88
326.55	9.63
326.761	10.88
326.973	9.93
327.185	10.1
327.396	10.48
327.608	11.74
327.82	10.99
328.032	11.22
328.243	11.85
328.455	11.89
328.666	12.17
328.878	12.57
329.09	12.06
329.301	12.29
329.513	12.65
329.725	12.28
329.936	11.89
330.148	11.87
330.359	12.85
330.571	12.69
330.782	12.9
330.994	13.72
331.205	12.95
331.417	12.03
331.628	11.08
331.84	10.62
332.051	9.88
332.262	8.81
332.474	7.94
332.685	7.05
332.897	6.81
333.108	5.89
333.319	5.52
333.531	6.09
333.742	6.48
333.953	7.36
334.165	7.96
334.376	8.23
334.587	8.63
334.799	10.24
335.01	10.36
335.221	10.75
335.432	10.5
335.644	10.83
335.855	11.58
336.066	11.99
336.277	12.3
336.488	12.52
336.7	12.73
336.911	12.68
337.122	12.22
337.333	12.2
337.544	12.28
337.755	12.98
337.966	12.87
338.177	12.59
338.388	12.38
338.599	12.33
338.811	12.37
339.022	12.51
339.233	12.54
339.444	12.57
339.655	12.31
339.866	11.52
340.076	10.56
340.287	10.04
340.498	10.04
340.709	9.73
340.92	8.79
341.131	8.53
341.342	9.27
341.553	9.41
341.764	9.27
341.975	8.98
342.185	9.7
342.396	10.07
342.607	10.58
342.818	10.67
343.029	10.09
343.239	11.21
343.45	11.07
343.661	10.24
343.872	10.55
344.082	10.08
344.293	10.5
344.504	10.32
344.714	10.79
344.925	10.55
345.136	10.31
345.346	10.82
345.557	10.44
345.768	10.68
345.978	10.26
346.189	9.6
346.399	10.27
346.61	9.63
346.821	9.76
347.031	10.25
347.242	9.58
347.452	9.92
347.663	10.69
347.873	10.96
348.084	10.68
348.294	11.14
348.504	11.11
348.715	10.76
348.925	11.35
349.136	11.79
349.346	11.37
349.557	11.84
349.767	11.14
349.977	11.32
350.188	10.56
350.398	10.26
350.608	11.44
350.819	11.81
351.029	12.61
351.239	11.98
351.449	11
351.66	10.93
351.87	10.61
352.08	10.47
352.29	9.6
352.501	9.26
352.711	10.18
352.921	9.36
353.131	9.05
353.341	8.13
353.552	8.55
353.762	9.05
353.972	9.61
354.182	10.38
354.392	10.48
354.602	10.32
354.812	10.94
355.022	10.18
355.232	9.68
355.442	9.52
355.652	9.74
355.862	9.52
356.072	9.37
356.282	8.13
356.492	7.56
356.702	7.67
356.912	8.38
357.122	8.45
357.332	8.25
357.542	8.16
357.752	8.42
357.962	8.63
358.171	8.93
358.381	8.56
358.591	8.18
358.801	8.27
359.011	8.42
359.221	8.33
359.43	8.86
359.64	9.12
359.85	9.63
360.06	9.55
360.269	9.12
360.479	8.63
360.689	8.9
360.899	9.46
361.108	9.44
361.318	9.3
361.528	8.86
361.737	8.14
361.947	7.98
362.156	7.68
362.366	7.7
362.576	7.95
362.785	8.57
362.995	9.03
363.204	8.81
363.414	8.82
363.623	9.07
363.833	9.03
364.042	9.32
364.252	9.53
364.461	9.96
364.671	9.78
364.88	9.58
365.09	9.28
365.299	9
365.509	9.45
365.718	9.96
365.927	9.26
366.137	9.56
366.346	9.61
366.555	9.59
366.765	8.84
366.974	9.37
367.183	9.51
367.393	8.96
367.602	8.75
367.811	8.75
368.021	8.16
368.23	8.68
368.439	8.41
368.648	8.21
368.857	7.54
369.067	8.11
369.276	6.96
369.485	6.75
369.694	6.55
369.903	6.1
370.112	5.87
370.321	5.9
370.531	5.43
370.74	5.35
370.949	5.04
371.158	5.43
371.367	5.34
371.576	6.3
371.785	6.1
371.994	6.81
372.203	6.51
372.412	6.42
372.621	6.27
372.83	6.41
373.039	6.6
373.248	6.98
373.457	6.87
373.666	6.85
373.874	6.2
374.083	6.58
374.292	6.2
374.501	6.5
374.71	6.7
374.919	6.77
375.128	6.77
375.336	6.82
375.545	6.86
375.754	7.28
375.963	7.53
376.171	8.09
376.38	8.54
376.589	8.88
376.798	8.92
377.006	9.2
377.215	9.48
377.424	9.64
377.632	9.63
377.841	9.44
378.05	9.4
378.258	9.17
378.467	8.81
378.675	8.24
378.884	7.77
379.093	7.68
379.301	7.53
379.51	7.28
379.718	6.98
379.927	7.09
380.135	7.02
380.344	6.9
380.552	6.82
380.761	7.28
380.969	7.58
381.177	7.89
381.386	8.2
381.594	7.93
381.803	7.45
382.011	7.76
382.219	7.5
382.428	7.37
382.636	7.23
382.845	7.23
383.053	7.34
383.261	6.96
383.469	7.18
383.678	7.08
383.886	6.61
384.094	6.71
384.302	6.48
384.511	6.48
384.719	6.43
384.927	6.57
385.135	6.35
385.343	6.27
385.552	6.05
385.76	5.59
385.968	5.67
386.176	5.83
386.384	5.68
386.592	6.01
386.8	5.91
387.008	6.03
387.216	6.1
387.424	6.27
387.633	5.84
387.841	6.02
388.049	6.66
388.257	6.34
388.465	6.64
388.672	7.03
388.88	7.05
389.088	7.27
389.296	7.27
389.504	6.98
389.712	7.06
389.92	6.95
390.128	7.23
390.336	6.69
390.544	6.75
390.751	7.23
390.959	7.3
391.167	7.05
391.375	6.91
391.583	6.99
391.79	7.07
391.998	7.18
392.206	7.59
392.414	7.44
392.621	7.28
392.829	7.33
393.037	6.63
393.244	6.4
393.452	6.43
393.66	6.41
393.867	6.31
394.075	6.35
394.283	6.16
394.49	5.8
394.698	6.11
394.905	6.34
395.113	6.34
395.32	6.69
395.528	6.76
395.735	6.75
395.943	6.97
396.15	6.78
396.358	6.71
396.565	6.84
396.773	7.15
396.98	6.65
397.188	6.56
397.395	6.71
397.602	6.8
397.81	6.78
398.017	6.78
398.225	6.39
398.432	6.85
398.639	6.81
398.847	6.89
399.054	6.7
399.261	6.97
399.468	6.61
399.676	6.21
399.883	6.18
400.09	6.01
400.297	6.27
400.505	6.4
400.712	6.26
400.919	6.52
401.126	6.61
401.333	6.69
401.54	6.57
401.748	6.92
401.955	7.33
402.162	7.04
402.369	7.16
402.576	6.88
402.783	6.61
402.99	6.95
403.197	6.85
403.404	6.6
403.611	6.63
403.818	6.63
404.025	6.7
404.232	6.6
404.439	6.82
404.646	6.65
404.853	6.67
405.06	6.75
405.267	6.54
405.474	6.2
405.681	6.33
405.887	6.19
406.094	6.18
406.301	6.15
406.508	5.93
406.715	5.84
406.922	6.01
407.128	5.96
407.335	6.15
407.542	6.21
407.749	6.21
407.955	6.12
408.162	6
408.369	5.93
408.575	6.1
408.782	6.14
408.989	6.25
409.195	6.01
409.402	6.08
409.609	6.18
409.815	6.04
410.022	6.1
410.228	5.98
410.435	6.52
410.642	6.44
410.848	6.38
411.055	6.44
411.261	6.25
411.468	6.33
411.674	6.05
411.881	5.79
412.087	5.53
412.294	5.88
412.5	5.86
412.706	5.4
412.913	5.71
413.119	5.55
413.326	5.88
413.532	6.29
413.738	6.45
413.945	6.53
414.151	6.55
414.357	6.91
414.564	6.74
414.77	6.77
414.976	6.83
415.182	6.64
415.389	6.54
415.595	6.35
415.801	6.11
416.007	6.25
416.214	6.4
416.42	6.52
416.626	6.42
416.832	6.38
417.038	6.48
417.244	6.35
417.45	6.45
417.657	6.57
417.863	6.56
418.069	6.37
418.275	6.36
418.481	6.32
418.687	6.38
418.893	6.28
419.099	6.3
419.305	6.2
419.511	6.31
419.717	6.09
419.923	6.03
420.129	5.94
420.335	5.94
420.541	5.82
420.746	5.82
420.952	5.71
421.158	5.72
421.364	5.72
421.57	5.71
421.776	5.62
421.982	5.72
422.187	5.82
422.393	5.88
422.599	5.9
422.805	5.9
423.01	5.97
423.216	6.03
423.422	6.16
423.628	6.15
423.833	6.27
424.039	6.47
424.245	6.55
424.45	6.35
424.656	6.25
424.862	6.18
425.067	6.17
425.273	5.97
425.478	6.04
425.684	5.91
425.889	5.89
426.095	5.78
426.301	5.63
426.506	5.5
426.712	5.61
426.917	5.71
427.123	5.76
427.328	5.8
427.533	5.98
427.739	5.72
427.944	5.77
428.15	5.78
428.355	5.89
428.561	5.89
428.766	5.69
428.971	5.72
429.177	5.73
429.382	5.73
429.587	5.76
429.793	5.81
429.998	5.88
430.203	5.89
430.408	5.9
430.614	5.72
430.819	5.65
431.024	5.95
431.229	6.15
431.434	6.33
431.64	6.55
431.845	6.73
432.05	6.61
432.255	6.71
432.46	6.75
432.665	6.54
432.87	6.61
433.076	6.71
433.281	6.58
433.486	6.35
433.691	6.26
433.896	6.32
434.101	6.06
434.306	5.9
434.511	5.75
434.716	5.63
434.921	5.83
435.126	5.78
435.331	5.62
435.535	5.69
435.74	5.84
435.945	5.67
436.15	5.71
436.355	5.72
436.56	5.94
436.765	6.04
436.97	5.89
437.174	5.9
437.379	5.93
437.584	6.07
437.789	6
437.993	5.84
438.198	5.96
438.403	5.58
438.608	5.64
438.812	5.72
439.017	5.73
439.222	5.93
439.426	5.83
439.631	5.81
439.836	5.77
440.04	5.84
440.245	5.86
440.45	5.82
440.654	5.99
440.859	5.87
441.063	5.75
441.268	5.8
441.472	5.69
441.677	5.76
441.881	5.9
442.086	6.01
442.29	6.04
442.495	6.13
442.699	6.16
442.904	6
443.108	6.15
443.312	6.17
443.517	6.22
443.721	6.33
443.925	6.21
444.13	6.15
444.334	6.07
444.538	6.01
444.743	6.06
444.947	6.04
445.151	6.14
445.356	6.13
445.56	6.28
445.764	6.2
445.968	6.11
446.173	6.15
446.377	6.14
446.581	6.06
446.785	6.11
446.989	6.01
447.193	5.97
447.398	6.04
447.602	6.09
447.806	5.97
448.01	5.9
448.214	5.91
448.418	6.04
448.622	6.02
448.826	5.98
449.03	5.95
449.234	5.87
449.438	5.94
449.642	5.8
449.846	5.81
450.05	5.81
450.254	5.99
450.458	6.04
450.662	5.88
450.866	5.84
451.069	5.95
451.273	5.88
451.477	6.13
451.681	6.25
451.885	6.33
452.089	6.27
452.292	6.3
452.496	6.04
452.7	6.17
452.904	6.19
453.107	6.24
453.311	6.24
453.515	6.37
453.719	6.2
453.922	6.06
454.126	6.05
454.33	6.12
454.533	6.25
454.737	6.3
454.94	6.11
455.144	6.11
455.348	6.11
455.551	6.27
455.755	6.14
455.958	6.25
456.162	6.18
456.365	6.18
456.569	6.14
456.772	6.04
456.976	6.06
457.179	6.08
457.383	6.16
457.586	6.02
457.79	5.83
457.993	5.89
458.196	5.82
458.4	5.95
458.603	5.92
458.807	5.89
459.01	5.82
459.213	5.84
459.417	5.73
459.62	5.66
459.823	5.67
460.026	5.71
460.23	5.7
460.433	5.74
460.636	5.59
460.839	5.47
461.042	5.36
461.246	5.29
461.449	5.2
461.652	5.29
461.855	5.38
462.058	5.31
462.261	5.16
462.464	5.11
462.668	5
462.871	5.12
463.074	5.3
463.277	5.37
463.48	5.45
463.683	5.48
463.886	5.44
464.089	5.5
464.292	5.59
464.495	5.65
464.698	5.56
464.901	5.63
465.104	5.78
465.306	5.84
465.509	5.91
465.712	5.92
465.915	5.94
466.118	6.04
466.321	5.98
466.524	6.07
466.726	6.04
466.929	6.13
467.132	5.99
467.335	5.86
467.538	5.75
467.74	5.8
467.943	5.81
468.146	5.84
468.348	5.84
468.551	5.53
468.754	5.43
468.956	5.59
469.159	5.68
469.362	5.77
469.564	5.83
469.767	5.84
469.969	5.86
470.172	5.89
470.375	5.93
470.577	5.89
470.78	5.97
470.982	5.9
471.185	5.78
471.387	5.59
471.59	5.56
471.792	5.44
471.995	5.43
472.197	5.22
472.399	5.14
472.602	5.25
472.804	5.12
473.007	5.13
473.209	5.16
473.411	5.2
473.614	5.22
473.816	5.29
474.018	5.39
474.22	5.35
474.423	5.56
474.625	5.64
474.827	5.38
475.03	5.36
475.232	5.63
475.434	5.73
475.636	5.76
475.838	5.81
476.04	5.85
476.243	5.84
476.445	5.8
476.647	5.79
476.849	5.73
477.051	5.74
477.253	5.91
477.455	5.84
477.657	5.81
477.859	5.69
478.061	5.66
478.263	5.55
478.465	5.52
478.667	5.59
478.869	5.63
479.071	5.7
479.273	5.71
479.475	5.76
479.677	5.72
479.879	5.75
480.081	5.82
480.283	5.83
480.485	5.82
480.686	5.79
480.888	5.83
481.09	5.72
481.292	5.59
481.494	5.74
481.695	5.79
481.897	5.75
482.099	5.68
482.301	5.63
482.502	5.6
482.704	5.6
482.906	5.69
483.107	5.61
483.309	5.6
483.511	5.65
483.712	5.58
483.914	5.46
484.115	5.47
484.317	5.51
484.519	5.49
484.72	5.51
484.922	5.54
485.123	5.5
485.325	5.56
485.526	5.59
485.728	5.6
485.929	5.68
486.131	5.78
486.332	5.77
486.534	5.68
486.735	5.79
486.936	5.81
487.138	5.76
487.339	5.76
487.541	5.8
487.742	5.76
487.943	5.76
488.144	5.68
488.346	5.72
488.547	5.75
488.748	5.81
488.95	5.74
489.151	5.73
489.352	5.78
489.553	5.78
489.755	5.73
489.956	5.69
490.157	5.72
490.358	5.7
490.559	5.61
490.76	5.55
490.961	5.58
491.163	5.65
491.364	5.67
491.565	5.61
491.766	5.62
491.967	5.58
492.168	5.6
492.369	5.56
492.57	5.59
492.771	5.49
492.972	5.49
493.173	5.47
493.374	5.45
493.575	5.3
493.776	5.33
493.976	5.21
494.177	5.29
494.378	5.38
494.579	5.24
494.78	5.1
494.981	5.2
495.182	5.18
495.382	5.3
495.583	5.27
495.784	5.53
495.985	5.53
496.185	5.6
496.386	5.47
496.587	5.44
496.788	5.54
496.988	5.75
497.189	5.93
497.39	6.04
497.59	5.86
497.791	5.96
497.992	5.8
498.192	5.92
498.393	5.96
498.593	6.03
498.794	5.92
498.994	5.94
499.195	5.97
499.395	5.89
499.596	6
499.796	6.02
499.997	5.96
500.197	6.1
500.398	6.11
500.598	6.11
500.799	6.09
500.999	6.18
501.199	6.31
501.4	6.24
501.6	6.22
501.801	6.13
502.001	6.11
502.201	6.11
502.402	6.07
502.602	5.95
502.802	5.94
503.002	6
503.203	6.08
503.403	5.86
503.603	5.99
503.803	6.08
504.003	6
504.204	6.06
504.404	5.95
504.604	5.91
504.804	5.93
505.004	6.05
505.204	5.99
505.404	6.11
505.604	6.3
505.804	6.17
506.005	6.35
506.205	6.5
506.405	6.61
506.605	6.81
506.805	6.94
507.005	7.08
507.204	7.11
507.404	7.13
507.604	7.02
507.804	7.05
508.004	6.92
508.204	6.75
508.404	6.64
508.604	6.52
508.804	6.52
509.003	6.46
509.203	6.44
509.403	6.42
509.603	6.32
509.803	6.41
510.002	6.34
510.202	6.45
510.402	6.54
510.602	6.67
510.801	6.81
511.001	6.66
511.201	6.68
511.4	6.59
511.6	6.68
511.8	6.74
511.999	6.71
512.199	6.72
512.398	6.83
512.598	6.89
512.797	6.82
512.997	6.79
513.197	6.82
513.396	6.79
513.596	6.87
513.795	6.77
513.994	6.83
514.194	6.84
514.393	6.93
514.593	6.89
514.792	6.89
514.992	6.95
515.191	6.9
515.39	7.04
515.59	7.36
515.789	7.39
515.988	7.48
516.188	7.49
516.387	7.53
516.586	7.56
516.786	7.6
516.985	7.54
517.184	7.58
517.383	7.78
517.582	7.89
517.782	7.7
517.981	7.63
518.18	7.55
518.379	7.69
518.578	7.62
518.777	7.63
518.976	7.62
519.176	7.71
519.375	7.71
519.574	7.63
519.773	7.59
519.972	7.66
520.171	7.68
520.37	7.78
520.569	7.82
520.768	7.92
520.967	7.92
521.166	7.94
521.365	7.81
521.564	7.88
521.762	7.92
521.961	7.93
522.16	7.89
522.359	7.99
522.558	8.05
522.757	7.98
522.956	8.02
523.154	8.08
523.353	8.13
523.552	8.31
523.751	8.38
523.949	8.28
524.148	8.38
524.347	8.44
524.546	8.41
524.744	8.3
524.943	8.44
525.142	8.46
525.34	8.45
525.539	8.41
525.737	8.32
525.936	8.33
526.135	8.57
526.333	8.55
526.532	8.48
526.73	8.53
526.929	8.66
527.127	8.64
527.326	8.64
527.524	8.7
527.723	8.79
527.921	8.85
528.12	8.85
528.318	8.77
528.516	8.73
528.715	8.8
528.913	8.84
529.112	8.81
529.31	8.81
529.508	8.8
529.707	8.84
529.905	8.81
530.103	8.83
530.301	8.83
530.5	8.81
530.698	8.91
530.896	8.95
531.094	8.98
531.293	9.1
531.491	9.14
531.689	9.21
531.887	9.21
532.085	9.31
532.283	9.35
532.481	9.43
532.68	9.57
532.878	9.53
533.076	9.51
533.274	9.53
533.472	9.51
533.67	9.52
533.868	9.55
534.066	9.59
534.264	9.62
534.462	9.62
534.66	9.64
534.858	9.64
535.056	9.83
535.253	9.91
535.451	9.95
535.649	10.03
535.847	10.11
536.045	10.14
536.243	10.23
536.441	10.25
536.638	10.36
536.836	10.28
537.034	10.4
537.232	10.3
537.43	10.3
537.627	10.27
537.825	10.31
538.023	10.38
538.22	10.46
538.418	10.48
538.616	10.61
538.813	10.68
539.011	10.76
539.209	10.78
539.406	10.88
539.604	11
539.801	11.11
539.999	11.18
540.196	11.35
540.394	11.46
540.591	11.47
540.789	11.52
540.986	11.55
541.184	11.71
541.381	11.75
541.579	11.76
541.776	11.82
541.974	11.86
542.171	11.88
542.368	11.86
542.566	11.87
542.763	11.84
542.96	11.8
543.158	11.84
543.355	11.84
543.552	11.81
543.75	11.89
543.947	11.95
544.144	12.09
544.341	12.12
544.539	12.11
544.736	12.15
544.933	12.31
545.13	12.52
545.327	12.56
545.524	12.63
545.722	12.83
545.919	12.89
546.116	12.87
546.313	12.86
546.51	12.85
546.707	12.96
546.904	13
547.101	13.08
547.298	13.11
547.495	13.17
547.692	13.25
547.889	13.25
548.086	13.18
548.283	13.38
548.48	13.47
548.677	13.7
548.874	13.8
549.07	13.97
549.267	14.05
549.464	14.1
549.661	14.18
549.858	14.26
550.055	14.38
550.251	14.6
550.448	14.46
550.645	14.47
550.842	14.47
551.038	14.59
551.235	14.58
551.432	14.62
551.628	14.86
551.825	14.97
552.022	15.03
552.218	15.08
552.415	15.24
552.612	15.58
552.808	15.63
553.005	15.75
553.201	15.85
553.398	15.92
553.594	16.05
553.791	16.08
553.987	16.09
554.184	16.03
554.38	16.06
554.577	16.23
554.773	16.25
554.97	16.51
555.166	16.7
555.362	16.73
555.559	16.95
555.755	17.11
555.952	17.03
556.148	17.31
556.344	17.62
556.541	17.88
556.737	17.68
556.933	17.68
557.129	17.6
557.326	17.67
557.522	17.8
557.718	17.8
557.914	17.94
558.11	18.25
558.307	18.4
558.503	18.56
558.699	18.7
558.895	19.23
559.091	19.21
559.287	19.38
559.483	19.51
559.679	19.68
559.876	19.78
560.072	19.74
560.268	19.86
560.464	19.77
560.66	19.75
560.856	19.62
561.052	19.61
561.247	19.76
561.443	19.78
561.639	19.74
561.835	19.67
562.031	19.89
562.227	20
562.423	19.86
562.619	19.88
562.815	20.08
563.01	20.2
563.206	20.17
563.402	20.25
563.598	20.51
563.793	20.76
563.989	20.92
564.185	20.87
564.381	21.02
564.576	21.28
564.772	21.62
564.968	21.67
565.163	21.86
565.359	21.92
565.555	22.08
565.75	22.12
565.946	22.16
566.141	22.24
566.337	22.46
566.532	22.47
566.728	22.51
566.923	22.46
567.119	22.38
567.314	22.54
567.51	22.76
567.705	22.74
567.901	22.9
568.096	22.92
568.292	22.91
568.487	23.13
568.682	23.31
568.878	23.54
569.073	23.71
569.268	24.02
569.464	24.02
569.659	23.97
569.854	24.13
570.05	24.2
570.245	24.25
570.44	24.38
570.635	24.17
570.831	24.35
571.026	24.33
571.221	24.51
571.416	24.48
571.611	24.43
571.806	24.48
572.002	24.52
572.197	24.44
572.392	24.47
572.587	24.52
572.782	24.57
572.977	24.7
573.172	24.71
573.367	24.63
573.562	24.85
573.757	24.99
573.952	25.21
574.147	25.57
574.342	25.68
574.537	25.83
574.732	26.01
574.927	26.12
575.121	26.19
575.316	26.35
575.511	26.47
575.706	26.51
575.901	26.76
576.096	26.77
576.29	26.64
576.485	26.87
576.68	26.95
576.875	27.09
577.069	27.2
577.264	27.19
577.459	27.27
577.654	27.29
577.848	27.24
578.043	27.11
578.238	27.29
578.432	27.26
578.627	27.31
578.821	27.52
579.016	27.47
579.21	27.61
579.405	27.34
579.6	27.17
579.794	27.25
579.989	27.38
580.183	27.21
580.378	27.22
580.572	27.41
580.766	27.42
580.961	27.41
581.155	27.55
581.35	27.66
581.544	27.93
581.738	28.24
581.933	28.44
582.127	28.3
582.321	28.67
582.516	28.56
582.71	28.6
582.904	28.58
583.099	28.56
583.293	28.57
583.487	28.54
583.681	28.58
583.875	28.53
584.07	28.38
584.264	28.6
584.458	28.59
584.652	28.96
584.846	28.95
585.04	29.02
585.234	29.18
585.428	29.27
585.623	29.35
585.817	29.46
586.011	29.67
586.205	29.81
586.399	29.84
586.593	29.86
586.787	29.59
586.981	29.81
587.174	29.83
587.368	29.84
587.562	29.75
587.756	29.81
587.95	30
588.144	30.05
588.338	30.09
588.532	30.19
588.725	30.52
588.919	30.7
589.113	30.51
589.307	30.45
589.501	30.35
589.694	30.46
589.888	30.56
590.082	30.52
590.275	30.5
590.469	30.66
590.663	30.64
590.856	30.67
591.05	30.83
591.244	31.23
591.437	31.39
591.631	31.55
591.824	31.45
592.018	31.4
592.212	31.46
592.405	31.48
592.599	31.43
592.792	31.46
592.986	31.4
593.179	31.07
593.372	30.87
593.566	30.96
593.759	31.06
593.953	31.4
594.146	31.48
594.339	31.73
594.533	31.78
594.726	31.79
594.92	32
595.113	31.85
595.306	32.15
595.499	31.98
595.693	32.01
595.886	32.12
596.079	32.13
596.272	32.21
596.466	32
596.659	32.01
596.852	31.97
597.045	32.02
597.238	32.1
597.431	32.19
597.624	32.21
597.818	32.27
598.011	32.08
598.204	32.02
598.397	31.9
598.59	32.1
598.783	32.18
598.976	32.13
599.169	32.08
599.362	32.09
599.555	32.05
599.748	32.43
599.941	32.68
600.134	32.95
600.326	33.12
600.519	33.39
600.712	33.58
600.905	33.57
601.098	33.9
601.291	33.86
601.483	33.91
601.676	33.85
601.869	33.7
602.062	33.76
602.255	33.68
602.447	33.58
602.64	33.51
602.833	33.22
603.025	33.17
603.218	33.14
603.411	33.14
603.603	33.24
603.796	33.31
603.989	33.48
604.181	33.3
604.374	33.36
604.566	33.5
604.759	33.64
604.951	33.77
605.144	33.86
605.336	34
605.529	34.37
605.721	34.37
605.914	34.3
606.106	34.22
606.299	34.43
606.491	34.18
606.683	34.19
606.876	34.16
607.068	34.17
607.26	34.19
607.453	34.12
607.645	33.89
607.837	33.92
608.03	33.94
608.222	34.1
608.414	34.04
608.606	34.38
608.799	34.29
608.991	34.26
609.183	34.27
609.375	34.26
609.567	34.49
609.759	34.54
609.952	34.6
610.144	34.73
610.336	34.74
610.528	34.47
610.72	34.58
610.912	34.73
611.104	34.74
611.296	34.69
611.488	34.92
611.68	34.57
611.872	34.51
612.064	34.65
612.256	34.71
612.448	34.75
612.64	35.09
612.832	35.04
613.023	35.01
613.215	35.15
613.407	35.24
613.599	35.23
613.791	35.5
613.983	35.64
614.174	35.51
614.366	35.59
614.558	35.69
614.75	35.76
614.941	35.81
615.133	35.84
615.325	35.89
615.516	35.92
615.708	35.89
615.9	35.83
616.091	35.84
616.283	35.81
616.475	35.78
616.666	35.83
616.858	35.71
617.049	35.83
617.241	35.69
617.432	35.62
617.624	35.77
617.815	35.74
618.007	35.8
618.198	35.46
618.39	35.32
618.581	35.52
618.773	35.31
618.964	35.53
619.155	35.52
619.347	35.62
619.538	35.57
619.729	35.4
619.921	35.39
620.112	35.51
620.303	35.82
620.494	35.97
620.686	35.88
620.877	35.97
621.068	35.8
621.259	35.79
621.451	35.87
621.642	36.05
621.833	36.21
622.024	36.31
622.215	36.46
622.406	36.46
622.597	36.35
622.788	36.44
622.98	36.4
623.171	36.45
623.362	36.71
623.553	36.68
623.744	36.5
623.935	36.54
624.126	36.46
624.317	36.44
624.508	36.47
624.698	36.8
624.889	36.79
625.08	36.86
625.271	36.9
625.462	36.58
625.653	36.76
625.844	36.77
626.034	36.53
626.225	36.81
626.416	36.72
626.607	36.67
626.798	36.39
626.988	36.38
627.179	36.56
627.37	36.48
627.56	36.52
627.751	36.26
627.942	36.37
628.132	36.4
628.323	36.29
628.514	36.36
628.704	36.37
628.895	36.67
629.085	36.51
629.276	36.68
629.466	37.07
629.657	36.85
629.847	37.19
630.038	37.37
630.228	37.65
630.419	37.43
630.609	37.3
630.8	37.3
630.99	37.44
631.181	37.63
631.371	37.26
631.561	37.19
631.752	37.44
631.942	37.58
632.132	37.61
632.323	37.54
632.513	37.86
632.703	37.52
632.893	37.69
633.084	37.68
633.274	37.79
633.464	37.69
633.654	37.81
633.844	37.97
634.034	37.75
634.225	37.6
634.415	37.79
634.605	37.82
634.795	38.12
634.985	38.13
635.175	38.01
635.365	37.8
635.555	37.97
635.745	37.71
635.935	37.6
636.125	37.48
636.315	37.66
636.505	37.74
636.695	37.52
636.885	37.92
637.075	38
637.265	38.12
637.455	38.35
637.644	38.32
637.834	38.24
638.024	38.37
638.214	38.71
638.404	38.8
638.593	38.9
638.783	39.15
638.973	39.17
639.163	39.01
639.352	39.12
639.542	39.29
639.732	39.43
639.921	39.9
640.111	40.07
640.301	39.96
640.49	40.17
640.68	39.93
640.87	39.6
641.059	39.48
641.249	39.67
641.438	39.61
641.628	39.56
641.817	39.73
642.007	39.55
642.196	39.68
642.386	39.85
642.575	39.36
642.764	38.95
642.954	39.01
643.143	39.38
643.333	39.51
643.522	39.33
643.711	39.41
643.901	39.36
644.09	39.28
644.279	39.08
644.469	39.19
644.658	39.22
644.847	39.44
645.036	39.59
645.226	39.29
645.415	39.26
645.604	39.37
645.793	39.41
645.982	39.57
646.171	39.7
646.361	39.51
646.55	39.49
646.739	39.65
646.928	39.7
647.117	39.94
647.306	39.89
647.495	39.36
647.684	39.28
647.873	38.97
648.062	38.94
648.251	39.05
648.44	39.04
648.629	38.86
648.818	39.09
649.007	39.08
649.196	39.43
649.384	39.39
649.573	39.71
649.762	40.05
649.951	40.36
650.14	40.51
650.328	40.4
650.517	40.79
650.706	40.94
650.895	40.43
651.083	41.02
651.272	40.51
651.461	40.33
651.65	40.45
651.838	40.42
652.027	40.3
652.216	39.84
652.404	40.05
652.593	40.14
652.781	40.14
652.97	40.61
653.158	40.02
653.347	40.17
653.535	40.35
653.724	40.43
653.912	40.7
654.101	40.79
654.289	40.95
654.478	41.1
654.666	41.01
654.855	40.82
655.043	40.95
655.231	41.16
655.42	41.44
655.608	41.38
655.796	41.47
655.985	41.2
656.173	41.26
656.361	41.23
656.55	40.92
656.738	40.94
656.926	41.23
657.114	40.84
657.302	40.94
657.491	40.66
657.679	40.61
657.867	40.35
658.055	40.62
658.243	40.39
658.431	40.57
658.619	40.44
658.807	40.36
658.996	40.25
659.184	40.31
659.372	40.5
659.56	40.52
659.748	40.5
659.936	40.86
660.124	40.36
660.311	40.54
660.499	40.34
660.687	40.45
660.875	40.49
661.063	40.42
661.251	41.07
661.439	41.07
661.627	40.92
661.814	41.05
662.002	40.66
662.19	41.01
662.378	40.96
662.565	41.34
662.753	41.4
662.941	41.03
663.129	41.21
663.316	40.63
663.504	40.71
663.692	41.3
663.879	41.27
664.067	41.48
664.254	41.38
664.442	41.55
664.63	41.26
664.817	41.03
665.005	41.34
665.192	40.98
665.38	40.88
665.567	40.47
665.755	40.13
665.942	40.38
666.13	40.61
666.317	40.42
666.504	40.53
666.692	40.55
666.879	40.57
667.067	40.46
667.254	41.18
667.441	40.84
667.629	41.14
667.816	41.23
668.003	41.12
668.19	40.85
668.378	40.91
668.565	40.65
668.752	40.93
668.939	41.19
669.127	41.15
669.314	40.87
669.501	41.41
669.688	41.43
669.875	41.27
670.062	41.44
670.249	41.73
670.436	42.11
670.623	42.32
670.81	42.36
670.997	42.08
671.184	42.28
671.371	42.21
671.558	42.19
671.745	41.85
671.932	42.01
672.119	41.96
672.306	41.74
672.493	41.61
672.68	41.76
672.867	41.39
673.054	41.43
673.24	41.62
673.427	41.45
673.614	41.48
673.801	41.64
673.988	41.74
674.174	41.82
674.361	41.79
674.548	41.65
674.734	41.19
674.921	41.49
675.108	42.17
675.294	42.32
675.481	42.75
675.668	43.18
675.854	43.34
676.041	43.11
676.227	42.81
676.414	42.99
676.601	43.04
676.787	43.35
676.974	43.68
677.16	43.55
677.347	43.47
677.533	43.52
677.719	43
677.906	42.78
678.092	42.92
678.279	43.23
678.465	43.11
678.651	43.24
678.838	43.26
679.024	42.91
679.21	42.51
679.397	42.11
679.583	41.81
679.769	41.84
679.955	42.16
680.142	42.09
680.328	41.99
680.514	42.2
680.7	42.12
680.886	42.05
681.073	41.94
681.259	42.22
681.445	42.62
681.631	42.78
681.817	42.48
682.003	42.59
682.189	42.44
682.375	42.59
682.561	42.67
682.747	43.18
682.933	43.18
683.119	42.97
683.305	42.78
683.491	42.56
683.677	42.23
683.863	42.41
684.049	42.24
684.235	42.32
684.42	42.71
684.606	42.43
684.792	41.97
684.978	41.9
685.164	42.55
685.349	42.87
685.535	43.28
685.721	43.83
685.907	44.18
686.092	44.3
686.278	44.7
686.464	44.27
686.649	44.31
686.835	44.51
687.021	44.88
687.206	44.86
687.392	44.72
687.577	44.35
687.763	44.56
687.948	44.12
688.134	43.78
688.319	43.55
688.505	43.82
688.69	43.97
688.876	44.34
689.061	43.6
689.247	43.46
689.432	43.15
689.618	43.47
689.803	43.22
689.988	43.36
690.174	43.31
690.359	43.16
690.544	43.25
690.73	43.48
690.915	43.1
691.1	43.82
691.285	43.79
691.471	43.84
691.656	43.52
691.841	43.81
692.026	44.07
692.211	44.24
692.396	44.9
692.582	44.55
692.767	44.03
692.952	44.1
693.137	43.78
693.322	44.19
693.507	43.87
693.692	43.99
693.877	43.74
694.062	43.94
694.247	44.32
694.432	43.75
694.617	43.52
694.802	43.71
694.987	43.49
695.172	44.25
695.357	43.94
695.541	44.84
695.726	45.09
695.911	44.8
696.096	44.48
696.281	43.64
696.466	44.09
696.65	44.17
696.835	44.25
697.02	44.29
697.204	43.87
697.389	44.07
697.574	44.06
697.759	44.26
697.943	44.26
698.128	44.48
698.312	44.85
698.497	44.38
698.682	44.49
698.866	44.1
699.051	44.04
699.235	44.12
699.42	44.01
699.604	43.85
699.789	43.55
699.973	43.46
700.158	43.57
700.342	43.57
700.527	44.09
700.711	44.19
700.895	44.98
701.08	45.31
701.264	45.36
701.448	45.58
701.633	45.29
701.817	45.45
702.001	45.46
702.186	45.26
702.37	45.59
702.554	44.91
702.738	44.46
702.923	43.88
703.107	43.28
703.291	43.22
703.475	42.54
703.659	42.91
703.843	42.99
704.027	43.53
704.212	43.15
704.396	42.85
704.58	43.48
704.764	44.3
704.948	44.88
705.132	45.12
705.316	44.86
705.5	45.33
705.684	45.1
705.868	45.19
706.052	45.05
706.235	45.67
706.419	45.31
706.603	45.47
706.787	45.08
706.971	44.59
707.155	44.89
707.339	44.88
707.522	44.91
707.706	45.05
707.89	44.96
708.074	44.68
708.257	44.86
708.441	45.42
708.625	45.19
708.808	44.75
708.992	44.32
709.176	44.43
709.359	44.83
709.543	44.5
709.727	45.03
709.91	44.72
710.094	44.61
710.277	44.41
710.461	44.28
710.644	44.39
710.828	44.52
711.011	45.21
711.195	44.67
711.378	44.07
711.562	44.28
711.745	43.93
711.928	44.34
712.112	44.98
712.295	44.38
712.478	44.68
712.662	44.59
712.845	45.5
713.028	45.85
713.212	45.93
713.395	46.52
713.578	46.4
713.761	45.84
713.945	45.17
714.128	45.1
714.311	45.41
714.494	45.13
714.677	44.72
714.86	43.71
715.043	43.33
715.227	43.85
715.41	43.63
715.593	43.42
715.776	43.76
715.959	43.81
716.142	43.72
716.325	43.89
716.508	44.1
716.691	44.74
716.874	45.29
717.057	45.47
717.239	45.21
717.422	45
717.605	45.39
717.788	45.79
717.971	45.83
718.154	45.74
718.337	45.44
718.519	45.33
718.702	44.66
718.885	44.14
719.068	43.76
719.25	43.63
719.433	43.91
719.616	44.09
719.798	43.82
719.981	44.73
720.164	44.57
720.346	44.88
720.529	44.45
720.712	44.62
720.894	45.72
721.077	45.75
721.259	45.37
721.442	45.16
721.624	44.68
721.807	45.01
721.989	44.27
722.172	44.72
722.354	44.17
722.537	45.08
722.719	45.58
722.901	44.19
723.084	44.57
723.266	45.59
723.448	46.34
723.631	46.38
723.813	46.56
723.995	46.98
724.178	46.5
724.36	47.1
724.542	46.09
724.724	46.09
724.907	46.96
725.089	46.41
725.271	46.13
725.453	45.08
725.635	45.11
725.817	45.01
725.999	44.5
726.181	44.94
726.364	45.22
726.546	44.96
726.728	44.99
726.91	45.01
727.092	44.88
727.274	45.29
727.456	45.69
727.638	45.12
727.819	44.68
728.001	44.35
728.183	44.26
728.365	44.17
728.547	45.07
728.729	44.95
728.911	44.34
729.093	44.72
729.274	44.12
729.456	44.03
729.638	44.57
729.82	44.63
730.001	45.28
730.183	44.85
730.365	44.02
730.546	43.8
730.728	43.61
730.91	43.8
731.091	44.04
731.273	43.94
731.455	44.14
731.636	44.11
731.818	44.01
731.999	44.42
732.181	44.95
732.362	45.79
732.544	45.98
732.725	46.34
732.907	46.08
733.088	46.39
733.27	47.07
733.451	47.04
733.633	47.88
733.814	48.34
733.995	48.19
734.177	48.12
734.358	48.2
734.539	48.24
734.721	48.46
734.902	48.25
735.083	48.39
735.264	48.11
735.446	48.58
735.627	47.35
735.808	46.86
735.989	46.26
736.17	46.43
736.351	45.31
736.533	45.26
736.714	45.5
736.895	45.85
737.076	44.79
737.257	44.81
737.438	44.84
737.619	44.93
737.8	44.23
737.981	45.03
738.162	45.03
738.343	45.51
738.524	45.63
738.705	44.63
738.886	45.55
739.067	45.48
739.247	45.25
739.428	45.29
739.609	46.41
739.79	47.53
739.971	47.16
740.151	47.29
740.332	47.61
740.513	47.96
740.694	48.25
740.874	48.22
741.055	48.6
741.236	48.05
741.417	47.67
741.597	47.01
741.778	46.23
741.958	46.26
742.139	45.74
742.32	45.59
742.5	45
742.681	45.22
742.861	45.41
743.042	45.22
743.222	45.16
743.403	45.08
743.583	45.11
743.764	45.46
743.944	46.14
744.124	46.04
744.305	46.24
744.485	46.58
744.666	46.05
744.846	45.23
745.026	45.66
745.207	46.98
745.387	47.75
745.567	47.9
745.747	47.82
745.928	47.18
746.108	47.62
746.288	47.83
746.468	48.06
746.648	48.34
746.829	49.28
747.009	49.22
747.189	48.6
747.369	47.74
747.549	47.4
747.729	47.7
747.909	47.76
748.089	46.92
748.269	46.04
748.449	45.16
748.629	45.01
748.809	43.71
748.989	44.1
749.169	44.05
749.349	44.09
749.529	44.57
749.709	44.86
749.889	45.2
750.068	45.87
750.248	45.8
750.428	46.04
750.608	46.56
750.788	47.35
750.967	46.99
751.147	46.58
751.327	46.38
751.507	45.67
751.686	45.56
751.866	45.91
752.046	46.65
752.225	47.57
752.405	46.79
752.585	46.62
752.764	47.16
752.944	46.34
753.123	46.68
753.303	46.47
753.482	46.53
753.662	46.5
753.841	46.4
754.021	46.42
754.2	46.63
754.38	47.5
754.559	47.3
754.739	47.43
754.918	48.43
755.097	48.14
755.277	48.94
755.456	49.39
755.635	49.48
755.815	48.58
755.994	47.77
756.173	47.54
756.352	47.98
756.532	47.08
756.711	46.06
756.89	45.66
757.069	46.25
757.248	46.26
757.427	45.98
757.607	46.02
757.786	46.88
757.965	46.34
758.144	46.12
758.323	45.11
758.502	46.59
758.681	46.25
758.86	46
759.039	46.03
759.218	45.85
759.397	47.15
759.576	47.3
759.755	45.75
759.934	45.74
760.113	46.05
760.291	46.67
760.47	46.98
760.649	47.6
760.828	48.2
761.007	48.08
761.186	48.41
761.364	47.51
761.543	47.75
761.722	49.38
761.901	49.64
762.079	49.47
762.258	49.45
762.437	50.17
762.615	50.08
762.794	49.67
762.972	49.42
763.151	49.26
763.33	49.13
763.508	48.88
763.687	48.49
763.865	48.05
764.044	48.17
764.222	47.83
764.401	46.74
764.579	46.51
764.758	46.22
764.936	46.41
765.114	45.62
765.293	45.52
765.471	46.03
765.65	45.27
765.828	46.8
766.006	46.81
766.184	47.8
766.363	48.51
766.541	48.64
766.719	48.75
766.898	47.96
767.076	48.89
767.254	50.27
767.432	49.64
767.61	49.49
767.788	48.72
767.967	48.95
768.145	47.29
768.323	46.8
768.501	47.41
768.679	48.38
768.857	49.21
769.035	49.4
769.213	47.63
769.391	47.54
769.569	50.36
769.747	49.51
769.925	48.81
770.103	50.89
770.281	50.01
770.459	48.8
770.636	49.07
770.814	48.3
770.992	47.22
771.17	48.37
771.348	48.86
771.525	46.97
771.703	47.52
771.881	48.69
772.059	48.26
772.236	47.68
772.414	47.87
772.592	47.79
772.769	50.66
772.947	51.65
773.125	51.71
773.302	51.15
773.48	49.7
773.657	51.22
773.835	50.26
774.013	49.32
774.19	49.87
774.368	49.45
774.545	47.2
774.723	45.34
774.9	44.19
775.077	44.05
775.255	44.47
775.432	46.45
775.61	44.82
775.787	45.03
775.964	44.22
776.142	44.43
776.319	45.5
776.496	47.3
776.674	47.34
776.851	48.99
777.028	48.28
777.205	48.07
777.382	50.3
777.56	50.9
777.737	49.96
777.914	50.69
778.091	50.16
778.268	49.41
778.445	49.48
778.622	50.53
778.8	51.15
778.977	52.31
779.154	54.03
779.331	51.83
779.508	50.79
779.685	50.77
779.862	51
780.038	52.15
780.215	52.15
780.392	50.12
780.569	49.58
780.746	47.63
780.923	46.2
781.1	43.9
781.277	43.5
781.453	43.5
781.63	43.63
781.807	44.51
781.984	43.42
782.16	43.74
782.337	44.99
782.514	45.41
782.691	47.72
782.867	48.26
783.044	48.71
783.221	48.37
783.397	48.28
783.574	48.12
783.75	47.92
783.927	48.59
784.103	49.51
784.28	50.32
784.456	49.94
784.633	48.45
784.809	48.03
784.986	48.04
785.162	47.73
785.339	49.42
785.515	50.16
785.692	49.02
785.868	48.07
786.044	47.26
786.221	46.46
786.397	46.34
786.573	45.45
786.749	46.54
786.926	44.93
787.102	44.25
787.278	43.49
787.454	44.3
787.631	44.46
787.807	45.76
787.983	46.19
788.159	46.49
788.335	46.34
788.511	47.99
788.687	48.07
788.863	49.02
789.039	50.51
789.216	50.37
789.392	48.9
789.568	49.2
789.744	49.67
789.919	49.3
790.095	48.33
790.271	48.23
790.447	46.03
790.623	45.35
790.799	47.33
790.975	46.72
791.151	45.52
791.327	47.61
791.502	47.15
791.678	45.39
791.854	46.4
792.03	46.92
792.205	45.6
792.381	46.93
792.557	44.64
792.733	43.42
792.908	43.94
793.084	44.73
793.259	42.54
793.435	44.54
793.611	46.48
793.786	44.84
793.962	46.31
794.137	47.93
794.313	48.9
794.488	52.53
794.664	54.48
794.839	55.37
795.015	55.53
795.19	57.02
795.366	57.63
795.541	56.58
795.716	55.03
795.892	54.05
796.067	51.6
796.242	50.89
796.418	50.13
796.593	48.71
796.768	49.67
796.944	49.9
797.119	50.22
797.294	48.98
797.469	48.31
797.644	50.48
797.82	50.37
797.995	53.03
798.17	52.83
798.345	51.75
798.52	51.75
798.695	50.41
798.87	48.97
799.045	49.01
799.22	49.05
799.395	50.3
799.57	50.69
799.745	51.19
799.92	49.64
800.095	51.04
800.27	52.54
800.445	53.51
800.62	53.87
800.795	57.08
800.97	56.68
801.145	55.68
801.319	55.2
801.494	52.7
801.669	51.67
801.844	53.96
802.018	52.39
802.193	52.32
802.368	48.59
802.543	49.17
802.717	45.77
802.892	44.51
803.067	45.64
803.241	47.88
803.416	49.69
803.59	50.5
803.765	49.11
803.94	47.98
804.114	44.67
804.289	46.55
804.463	46.39
804.638	46.62
804.812	48.43
804.986	49.82
805.161	49.19
805.335	49.48
805.51	48.17
805.684	46.6
805.858	47.37
806.033	50.21
806.207	51.1
806.381	48.19
806.556	49.6
806.73	49.64
806.904	47.11
807.078	46.97
807.253	46.82
807.427	48.66
807.601	50.04
807.775	51.38
807.949	50.33
808.123	49.83
808.298	50.1
808.472	51.03
808.646	50.32
808.82	51.47
808.994	50.26
809.168	51.14
809.342	49.7
809.516	48.68
809.69	47.86
809.864	45.9
810.038	45.23
810.212	44.83
810.385	44.35
810.559	43.62
810.733	45.61
810.907	45.78
811.081	45.13
811.255	46.33
811.428	46.96
811.602	47.98
811.776	50.78
811.95	52.79
812.123	56.35
812.297	55.08
812.471	56.78
812.644	54.52
812.818	54.83
812.992	56.25
813.165	56.8
813.339	57
813.512	55.34
813.686	54.87
813.86	52.78
814.033	51.66
814.207	51.46
814.38	49.69
814.554	49.95
814.727	49.83
814.9	46.23
815.074	44.33
815.247	45.34
815.421	44.19
815.594	44.29
815.767	45.73
815.941	45.58
816.114	45.43
816.287	45.32
816.46	44.34
816.634	45.26
816.807	49.33
816.98	49.1
817.153	47.38
817.327	46.9
817.5	44.96
817.673	48.52
817.846	47.23
818.019	45.71
818.192	46.83
818.365	48.94
818.538	47.42
818.711	43.99
818.884	46.92
819.057	49
819.23	48.08
819.403	48.71
819.576	44.9
819.749	46.65
819.922	46.79
820.095	46.76
820.268	46.05
820.441	46.76
820.614	49.61
820.786	50.71
820.959	49.73
821.132	52.77
821.305	52.28
821.477	50.96
821.65	49.86
821.823	50.14
821.996	49.98
822.168	49.28
822.341	48.93
822.514	48.86
822.686	48.18
822.859	48.44
823.031	47.8
823.204	47.77
823.376	48.12
823.549	48.6
823.722	49.02
823.894	48.79
824.067	48.61
824.239	48.26
824.411	48.35
824.584	48.47
824.756	48.14
824.929	47.69
825.101	48.12
825.273	47.89
825.446	47.4
825.618	45.94
825.79	46.04
825.963	46.56
826.135	47.28
826.307	46.78
826.479	46.3
826.652	46.54
826.824	47.46
826.996	46.98
827.168	47.7
827.34	47.93
827.512	48.49
827.684	48.56
827.856	48.6
828.029	49.13
828.201	49.06
828.373	49.36
828.545	49.37
828.717	48.05
828.889	48.95
829.061	48.48
829.232	49.31
829.404	49.96
829.576	51.18
829.748	51.29
829.92	50.16
830.092	50.67
830.264	50.05
830.436	49.86
830.607	51.47
830.779	50.61
830.951	52.18
831.123	52.16
831.294	51.98
831.466	51.87
831.638	51.48
831.809	51.19
831.981	51.68
832.153	52.04
832.324	51.34
832.496	50.71
832.667	50.08
832.839	46.63
833.011	45.7
833.182	47.51
833.354	47.81
833.525	48.63
833.697	51.17
833.868	49.34
834.039	51.01
834.211	51.5
834.382	52.26
834.554	52.36
834.725	53.37
834.896	53.52
835.068	52.94
835.239	51.71
835.41	51.21
835.581	48.75
835.753	49.99
835.924	48.27
836.095	48.35
836.266	47.62
836.438	48.29
836.609	48.1
836.78	48.34
836.951	47.32
837.122	47.16
837.293	47.42
837.464	50.37
837.635	49.79
837.806	50.87
837.977	50.84
838.148	49.59
838.319	49.67
838.49	51.24
838.661	48.74
838.832	48.12
839.003	49.75
839.174	49.15
839.345	48.66
839.516	49.54
839.687	50.47
839.857	49.64
840.028	49.9
840.199	48.49
840.37	47.15
840.54	49.13
840.711	51.88
840.882	52.43
841.053	55.72
841.223	51.11
841.394	48.78
841.564	50.56
841.735	50.34
841.906	54.54
842.076	54.53
842.247	52.08
842.417	52.58
842.588	54.05
842.758	53.89
842.929	52.5
843.099	57.62
843.27	60.46
843.44	59.19
843.611	56.83
843.781	54.04
843.951	56.99
844.122	60.53
844.292	59.66
844.462	56.84
844.633	51.17
844.803	44.98
844.973	44.24
845.144	39.12
845.314	36.36
845.484	40.89
845.654	43.17
845.824	45.47
845.995	44.88
846.165	45.26
846.335	44.15
846.505	45.41
846.675	52.13
846.845	65.3
847.015	74.59
847.185	78.53
847.355	80.43
847.525	78.12
847.695	77.77
847.865	70.98
848.035	73.1
848.205	80.77
848.375	81.82
848.545	83.1
848.715	61.69
848.884	56.79
849.054	51.12
849.224	57.89
849.394	55.39
849.564	51.41
849.733	57.16
849.903	65.01
850.073	65.53
850.243	68.89
850.412	64.72
850.582	70.03
850.752	66.67
850.921	72.39
851.091	58.12
851.26	66.06
851.43	61.76
851.599	59.82
851.769	60.66
851.939	58.45
852.108	60.25
852.278	55.66
852.447	54.76
852.616	54.36
852.786	55.61
852.955	58.54
853.125	55.72
853.294	53.78
853.463	42.91
853.633	34.96
853.802	32.49
853.971	25.56
854.141	37.25
854.31	41.2
854.479	53.53
854.648	45.53
854.818	52.85
854.987	55.56
855.156	60.44
855.325	76.11
855.494	73.37
855.663	67.11
855.832	68.47
856.001	72.45
856.171	69.58
856.34	61.19
856.509	72.68
856.678	69.25
856.847	65.59
857.016	65.5
857.185	68.9
857.353	75.98
857.522	75.34
857.691	85.56
857.86	77.81
858.029	82.89
858.198	89.49
858.367	83.12
858.535	78.09
858.704	79.24
858.873	74.77
859.042	63.97
859.21	56.01
859.379	59.57
859.548	53.96
859.717	52.81
859.885	46.89
860.054	38.03
860.222	32.13
860.391	38.4
860.56	36.79
860.728	37.73
860.897	44.92
861.065	50.69
861.234	52.13
861.402	52.64
861.571	56.53
861.739	54.81
861.908	56.44
862.076	63.16
862.244	60
862.413	59.68
862.581	65.14
862.749	70.48
862.918	66.94
863.086	79.12
863.254	70.33
863.423	62.84
863.591	68.11
863.759	70.28
863.927	63.49
864.096	72.08
864.264	90.03
864.432	92.37
864.6	84.23
864.768	88.35
864.936	77.52
865.104	79.6
865.272	96.01
865.44	85.66
865.608	92.25
865.776	87.89
865.944	80.4
866.112	63.8
866.28	53.39
866.448	50.39
866.616	46.84
866.784	51.39
866.952	45.12
867.12	38.01
867.288	38.22
867.455	32.67
867.623	34.04
867.791	34.95
867.959	34.25
868.127	44.89
868.294	42.76
868.462	39.48
868.63	40.19
868.797	39.82
868.965	40.59
869.133	43.82
869.3	40.44
869.468	43.86
869.636	44
869.803	49.24
869.971	44.87
870.138	44.77
870.306	43.69
870.473	42.98
870.641	40.03
870.808	35.02
870.975	35.06
871.143	38
871.31	30.15
871.478	26.62
871.645	17.98
871.812	4.04
871.98	13.24
872.147	18.31
872.314	12.06
872.482	24.03
872.649	39.11
872.816	21.99
872.983	29.08
873.15	36.9
873.318	49.62
873.485	58.99
873.652	71.92
873.819	70.6
873.986	57.72
874.153	54.32
874.32	49.32
874.487	42.35
874.654	42.59
874.821	43.34
874.988	41.83
875.155	41.65
875.322	39.64
875.489	40.53
875.656	37.96
875.823	55.16
875.99	53.86
876.157	60.63
876.324	63.51
876.49	73.34
876.657	71.14
876.824	76.31
876.991	80.49
877.157	87.47
877.324	87.53
877.491	88.78
877.658	88.75
877.824	100.89
877.991	90.13
878.157	87.06
878.324	82.34
878.491	80.6
878.657	85.27
878.824	82.82
878.99	71.35
879.157	64.59
879.323	61.26
879.49	55.94
879.656	55.99
879.823	58.82
879.989	63.04
880.156	62.09
880.322	56.75
880.488	48.06
880.655	46.25
880.821	55.45
880.987	57.2
881.154	60.61
881.32	56.16
881.486	55.45
881.652	52
881.819	48.95
881.985	53.01
882.151	55.47
882.317	59.38
882.483	56.04
882.649	52.52
882.816	52.88
882.982	50.37
883.148	49.28
883.314	48.93
883.48	49.17
883.646	50.57
883.812	50.5
883.978	51.07
884.144	49.13
884.31	49.69
884.476	49.53
884.642	49.15
884.807	50.15
884.973	51.15
885.139	50.8
885.305	51.75
885.471	52.26
885.637	49.87
885.802	48.08
885.968	47.01
886.134	48.02
886.3	47.19
886.465	47.88
886.631	48.1
886.797	48.79
886.962	49.84
887.128	47.94
887.293	45.81
887.459	46.23
887.625	47.13
887.79	50.89
887.956	47.76
888.121	49.78
888.287	47.27
888.452	44.64
888.618	42.28
888.783	41.16
