Data from LC_236_Reflection_3.txt Node
Date: Thu Nov 19 22:08:11 EST 2015
User: robert
Spectrometer: USB4E03001
Autoset integration time: false
Trigger mode: 4
Integration Time (sec): 1.000000E-1
Scans to average: 15
Electric dark correction enabled: true
Nonlinearity correction enabled: false
Boxcar width: 5
Stray light correction enabled: false
XAxis mode: Wavelengths
Stop averaging: false
Number of Pixels in Spectrum: 3648
>>>>>Begin Spectral Data<<<<<
177.566	16.16
177.785	23
178.005	26.9
178.225	18.37
178.445	29.71
178.665	21.49
178.885	62.42
179.105	266.07
179.324	-51.21
179.544	-52.06
179.764	18.02
179.984	-55.11
180.204	-71.55
180.423	23.83
180.643	32.79
180.863	42.76
181.083	47.92
181.302	31.6
181.522	72.07
181.742	106.48
181.961	140.93
182.181	185.93
182.401	296.9
182.621	300.06
182.84	515.57
183.06	479.13
183.279	446.08
183.499	311.19
183.719	1020.61
183.938	2747.81
184.158	-809.04
184.377	-611.5
184.597	68.59
184.816	346.23
185.036	155.88
185.256	-1828.89
185.475	-103.76
185.695	-18.92
185.914	-22.24
186.134	-181.53
186.353	-36.85
186.572	8.71
186.792	79.48
187.011	-1674.7
187.231	-360.48
187.45	-757.57
187.67	-74.61
187.889	-72.6
188.108	-22.4
188.328	-31.06
188.547	-351.01
188.766	-623.12
188.986	-876.23
189.205	9453.92
189.424	270.36
189.644	214.07
189.863	143.4
190.082	113.69
190.302	141.77
190.521	151.24
190.74	155.36
190.959	149.64
191.178	117.35
191.398	108.42
191.617	79.61
191.836	300.24
192.055	171.06
192.274	220.94
192.494	215.33
192.713	107.97
192.932	94.18
193.151	116.04
193.37	123.82
193.589	156.08
193.808	133.71
194.027	149.41
194.246	120.39
194.465	132.57
194.685	109.98
194.904	98.44
195.123	91.46
195.342	75.62
195.561	44.21
195.78	61.95
195.999	61.68
196.218	71.02
196.436	82.21
196.655	83.84
196.874	75.73
197.093	108.44
197.312	141.68
197.531	201.92
197.75	357.15
197.969	396.14
198.188	-1000.3
198.407	-250.73
198.625	-355.89
198.844	-204.81
199.063	-1187.66
199.282	-125.45
199.501	-202.59
199.719	-283.22
199.938	-8.26
200.157	-15.24
200.376	109.3
200.594	-89.88
200.813	-431.13
201.032	-13.53
201.251	-357.25
201.469	-151.08
201.688	58.5
201.907	36.41
202.125	375.98
202.344	158.01
202.563	127.35
202.781	160.9
203	84.58
203.218	102.39
203.437	23.23
203.656	95.43
203.874	185.8
204.093	214.86
204.311	100.88
204.53	60.12
204.748	76.56
204.967	79.02
205.185	99.99
205.404	142.12
205.622	172.31
205.841	153.25
206.059	175.65
206.278	71.64
206.496	82.7
206.715	94.75
206.933	97.52
207.151	87.11
207.37	142.15
207.588	16.48
207.806	-4.81
208.025	28.65
208.243	-41.48
208.461	-95.64
208.68	-6.51
208.898	-13.69
209.116	-39.59
209.335	-34.73
209.553	-594.81
209.771	3356.3
209.989	-474.18
210.208	202.4
210.426	608.54
210.644	-87.36
210.862	-26.92
211.081	20.41
211.299	2.59
211.517	10.17
211.735	-13.22
211.953	5.02
212.171	6.69
212.39	31.01
212.608	24.32
212.826	45.39
213.044	35.16
213.262	19.66
213.48	6.03
213.698	9.89
213.916	19.14
214.134	12.17
214.352	39.04
214.57	87
214.788	278.89
215.006	308
215.224	205.43
215.442	424.24
215.66	251.93
215.878	429.62
216.096	465.61
216.314	321.62
216.532	498.39
216.75	588.42
216.968	1.05
217.185	190.95
217.403	618.66
217.621	533.73
217.839	-10.22
218.057	-3.34
218.275	45.92
218.492	65.32
218.71	61.36
218.928	61.68
219.146	77.85
219.363	77.44
219.581	95.19
219.799	105.99
220.017	99.41
220.234	103.26
220.452	110.68
220.67	106.77
220.887	80.87
221.105	106.87
221.323	105.85
221.54	92.18
221.758	86.38
221.976	65.87
222.193	56.71
222.411	37.11
222.629	25.08
222.846	6.48
223.064	23.76
223.281	29.47
223.499	10.01
223.716	11.63
223.934	3.37
224.151	16.98
224.369	16.53
224.586	17.53
224.804	43.57
225.021	60.93
225.239	69.55
225.456	59
225.674	39.33
225.891	40.41
226.108	32.64
226.326	37.73
226.543	31.48
226.76	50.28
226.978	47.87
227.195	32.72
227.413	23.21
227.63	19.15
227.847	18.81
228.064	23.51
228.282	21.41
228.499	21.24
228.716	20.13
228.934	18.08
229.151	15.41
229.368	12.76
229.585	12.82
229.802	13.13
230.02	13.65
230.237	13.32
230.454	12.98
230.671	10.07
230.888	11.53
231.105	9.25
231.323	10.08
231.54	9.61
231.757	9.16
231.974	11.13
232.191	11.32
232.408	9.43
232.625	12.09
232.842	14.7
233.059	20.25
233.276	21.62
233.493	27.03
233.71	25.31
233.927	32.89
234.144	34
234.361	28.75
234.578	29.92
234.795	30.03
235.012	27.54
235.229	22.93
235.446	22.43
235.663	18.59
235.879	18.85
236.096	18.84
236.313	9.05
236.53	14.26
236.747	15.59
236.964	14.95
237.181	12.03
237.397	11.1
237.614	10.36
237.831	16.94
238.048	23.4
238.264	18.57
238.481	15.98
238.698	17.78
238.915	20.6
239.131	19.86
239.348	19.46
239.565	20.57
239.781	22.56
239.998	20.64
240.215	17.25
240.431	12
240.648	16.56
240.865	18.78
241.081	18.9
241.298	15.48
241.514	15.19
241.731	13.98
241.947	14.98
242.164	13.68
242.38	15.34
242.597	15.03
242.814	15.94
243.03	15.78
243.246	15.16
243.463	13.9
243.679	14.16
243.896	14.95
244.112	17.07
244.329	16.52
244.545	17.89
244.762	15.23
244.978	14.6
245.194	13.06
245.411	10.25
245.627	9.98
245.843	11.2
246.06	12.84
246.276	11.98
246.492	10.52
246.709	10
246.925	9.03
247.141	10.24
247.357	10.17
247.574	10.29
247.79	10.36
248.006	10.35
248.222	9.49
248.439	8.13
248.655	8.25
248.871	8.56
249.087	8.53
249.303	8.92
249.519	8.5
249.736	8.67
249.952	8.82
250.168	8.8
250.384	9.05
250.6	10.44
250.816	10.82
251.032	11.02
251.248	10.3
251.464	10.01
251.68	9.18
251.896	8.95
252.112	9.56
252.328	10.04
252.544	8.88
252.76	10.26
252.976	10.6
253.192	9.95
253.408	10.82
253.624	12.77
253.84	12.22
254.056	12.97
254.272	13.2
254.487	12.11
254.703	12.79
254.919	14.5
255.135	12.79
255.351	12.41
255.567	14.35
255.782	10.94
255.998	10.42
256.214	12.17
256.43	10.14
256.646	12.5
256.861	13.43
257.077	11.89
257.293	13.04
257.508	13.75
257.724	12.82
257.94	12.81
258.155	14.15
258.371	13.3
258.587	12.47
258.802	12.56
259.018	11.49
259.234	10.68
259.449	11.1
259.665	10.62
259.88	10.09
260.096	10.13
260.312	8.94
260.527	8.88
260.743	8.31
260.958	8.66
261.174	8.81
261.389	8.47
261.605	9.56
261.82	8.51
262.036	8.31
262.251	6.94
262.466	7.84
262.682	9.19
262.897	9.84
263.113	8.66
263.328	9.27
263.543	10.18
263.759	10.88
263.974	9.93
264.189	10.55
264.405	9.6
264.62	10.94
264.835	10.66
265.051	10.11
265.266	8.9
265.481	12.76
265.696	11.44
265.912	9.5
266.127	10.28
266.342	9.74
266.557	10
266.773	9.92
266.988	9.71
267.203	9.11
267.418	9.3
267.633	9.1
267.848	7.32
268.064	7.71
268.279	7.45
268.494	7.21
268.709	7.14
268.924	6.91
269.139	8.23
269.354	8.01
269.569	7.07
269.784	7.19
269.999	6.67
270.214	6.96
270.429	6.16
270.644	7.47
270.859	7.32
271.074	6.34
271.289	7.05
271.504	6.78
271.719	7.83
271.934	7.92
272.149	8.31
272.363	9.62
272.578	10.05
272.793	10.45
273.008	10.13
273.223	9.94
273.438	11.45
273.653	10.94
273.867	10.47
274.082	9.17
274.297	10.08
274.512	9.17
274.726	8.41
274.941	7.47
275.156	7.28
275.371	7.31
275.585	7.73
275.8	5.79
276.015	6.89
276.229	8.51
276.444	9.67
276.659	8.29
276.873	8.53
277.088	8.61
277.302	8.17
277.517	8.31
277.732	8.27
277.946	8.1
278.161	8.94
278.375	8.14
278.59	6.73
278.804	7.28
279.019	8.16
279.233	7.96
279.448	8.88
279.662	10.95
279.877	11.42
280.091	12.01
280.306	10.62
280.52	10.44
280.735	10.54
280.949	10.72
281.163	9.59
281.378	9.37
281.592	10.76
281.806	10.5
282.021	9.99
282.235	8.81
282.449	7.9
282.664	8.26
282.878	8.5
283.092	7.96
283.307	8.71
283.521	9.37
283.735	8.99
283.949	7.51
284.164	6.67
284.378	5.98
284.592	5.95
284.806	6.69
285.02	6.26
285.234	7.16
285.449	7.37
285.663	6.35
285.877	6.82
286.091	7.68
286.305	7.45
286.519	7.58
286.733	7.34
286.947	8.02
287.161	6.98
287.375	7.46
287.589	6.45
287.803	6.54
288.017	7.06
288.231	6.99
288.445	6.17
288.659	7.44
288.873	6.82
289.087	6.59
289.301	6.76
289.515	7.87
289.729	7.66
289.943	7.81
290.157	8.01
290.371	7.61
290.584	6.71
290.798	6.42
291.012	5.79
291.226	6.72
291.44	7.87
291.654	7.24
291.867	6.89
292.081	6.81
292.295	6.25
292.509	5.87
292.722	6.64
292.936	7.46
293.15	8.09
293.364	9.56
293.577	9.64
293.791	9.43
294.005	9.82
294.218	10.5
294.432	10.75
294.645	11.17
294.859	10.45
295.073	9.31
295.286	9.15
295.5	8.47
295.713	7.11
295.927	6.56
296.14	6.72
296.354	5.96
296.568	5.84
296.781	6.13
296.994	6.17
297.208	6.59
297.421	7.58
297.635	8.06
297.848	8.52
298.062	9.11
298.275	8.99
298.489	8.96
298.702	10.84
298.915	11.15
299.129	11.64
299.342	12.21
299.555	12.2
299.769	11.08
299.982	10.08
300.195	10.35
300.409	9.98
300.622	10.13
300.835	10.08
301.048	9.03
301.262	8.43
301.475	7.82
301.688	6.79
301.901	7.67
302.115	8.24
302.328	8.69
302.541	7.41
302.754	7.26
302.967	7.96
303.18	7.97
303.393	7.13
303.607	7.89
303.82	7.16
304.033	7.97
304.246	8.02
304.459	8.22
304.672	8.32
304.885	9.19
305.098	9.07
305.311	8.33
305.524	8.35
305.737	8.68
305.95	8.09
306.163	8.91
306.376	8.12
306.589	7.66
306.802	7.08
307.015	6.53
307.228	6.2
307.44	6.4
307.653	7.28
307.866	6.87
308.079	7.36
308.292	7.28
308.505	7.5
308.718	7.19
308.93	6.64
309.143	6.84
309.356	7.19
309.569	8.35
309.781	8.71
309.994	8.01
310.207	8.22
310.42	8.76
310.632	8.58
310.845	8.78
311.058	9.48
311.27	9.66
311.483	9.79
311.696	9.84
311.908	8.99
312.121	8.26
312.333	8.53
312.546	7.93
312.759	6.53
312.971	6.4
313.184	5.84
313.396	6.17
313.609	6.08
313.821	5.68
314.034	6.68
314.246	7.09
314.459	7.41
314.671	7.47
314.884	8.39
315.096	9.69
315.309	10.38
315.521	10.66
315.733	11.17
315.946	11.65
316.158	12.45
316.371	11.6
316.583	11.65
316.795	11.51
317.008	11.48
317.22	11.42
317.432	10.31
317.644	10.48
317.857	9.16
318.069	7.79
318.281	7.83
318.494	8.33
318.706	7.51
318.918	7.14
319.13	7.64
319.342	7.44
319.555	6.73
319.767	7.42
319.979	7
320.191	7.8
320.403	8.31
320.615	7.15
320.827	6.43
321.039	5.49
321.252	6.01
321.464	6.17
321.676	6.06
321.888	5.4
322.1	5.13
322.312	4.76
322.524	6.55
322.736	5.95
322.948	7.53
323.16	7.68
323.372	8.44
323.584	8.75
323.796	8.58
324.007	8.24
324.219	8.96
324.431	9.2
324.643	9.07
324.855	8.14
325.067	8.84
325.279	7.71
325.491	8.42
325.702	8.89
325.914	7.99
326.126	9.3
326.338	10.59
326.55	10.6
326.761	10.38
326.973	10.33
327.185	9.36
327.396	9.61
327.608	11.16
327.82	11.4
328.032	11.72
328.243	12.62
328.455	11.44
328.666	10.72
328.878	10.73
329.09	11.26
329.301	12.37
329.513	14.16
329.725	13.76
329.936	12.09
330.148	11.5
330.359	11.56
330.571	11.56
330.782	11.43
330.994	12.02
331.205	12
331.417	12.57
331.628	11.91
331.84	11.79
332.051	12.01
332.262	13.38
332.474	13.77
332.685	13.9
332.897	14.73
333.108	14.72
333.319	14.31
333.531	14.2
333.742	13.41
333.953	13.98
334.165	13.83
334.376	14.17
334.587	13.68
334.799	12.51
335.01	11.88
335.221	10.81
335.432	11.14
335.644	10.97
335.855	11.08
336.066	11.41
336.277	11.12
336.488	10.84
336.7	9.95
336.911	9.62
337.122	10.27
337.333	11.36
337.544	10.87
337.755	10.86
337.966	10.73
338.177	11.58
338.388	11.74
338.599	11.1
338.811	11.6
339.022	11.92
339.233	12.44
339.444	13.2
339.655	12.84
339.866	13.44
340.076	13.16
340.287	13.06
340.498	12.43
340.709	12.24
340.92	11.83
341.131	11.14
341.342	11.32
341.553	11.42
341.764	10.33
341.975	10.12
342.185	10
342.396	10.27
342.607	10.9
342.818	10.98
343.029	11.77
343.239	12.44
343.45	13.03
343.661	13.07
343.872	12.91
344.082	13.28
344.293	13.99
344.504	14.61
344.714	14.46
344.925	14.61
345.136	15
345.346	14.69
345.557	14.72
345.768	14.47
345.978	14.46
346.189	13.8
346.399	13.81
346.61	12.89
346.821	12.37
347.031	12.59
347.242	12.9
347.452	12.97
347.663	12.38
347.873	13.67
348.084	13.74
348.294	13.38
348.504	14.03
348.715	14.26
348.925	14.8
349.136	15.06
349.346	15.01
349.557	14.53
349.767	14.39
349.977	14.6
350.188	13.36
350.398	12.81
350.608	13.74
350.819	13.98
351.029	13.44
351.239	13.64
351.449	12.7
351.66	12.4
351.87	12.16
352.08	11.99
352.29	12.37
352.501	13.16
352.711	14.22
352.921	13.96
353.131	13.46
353.341	13.11
353.552	12.97
353.762	12.95
353.972	13.74
354.182	13.55
354.392	13.06
354.602	11.88
354.812	11.49
355.022	10.78
355.232	10.91
355.442	11.32
355.652	11.53
355.862	11.37
356.072	12.14
356.282	12.03
356.492	11.95
356.702	12.4
356.912	12.88
357.122	13.07
357.332	13.14
357.542	12.41
357.752	12.07
357.962	12.67
358.171	12.82
358.381	13.46
358.591	12.91
358.801	13.28
359.011	13
359.221	12.72
359.43	12.15
359.64	11.99
359.85	12.02
360.06	12.57
360.269	12.39
360.479	12.1
360.689	11.45
360.899	11.45
361.108	11.2
361.318	11.11
361.528	11.05
361.737	11.32
361.947	11.37
362.156	11.33
362.366	11.21
362.576	11.09
362.785	11.05
362.995	10.76
363.204	10.6
363.414	10.62
363.623	10.89
363.833	11.28
364.042	11.33
364.252	11.4
364.461	11.3
364.671	10.77
364.88	11.13
365.09	10.82
365.299	11.18
365.509	11.8
365.718	12.06
365.927	12
366.137	12.19
366.346	12.09
366.555	11.95
366.765	12.26
366.974	12.39
367.183	11.68
367.393	11.64
367.602	12.39
367.811	12.48
368.021	12.41
368.23	11.85
368.439	11.33
368.648	11.28
368.857	11.8
369.067	12.06
369.276	12.72
369.485	12.66
369.694	12.7
369.903	11.33
370.112	10.72
370.321	10.52
370.531	11.08
370.74	11.2
370.949	11.25
371.158	10.65
371.367	10.35
371.576	9.56
371.785	10.1
371.994	10.05
372.203	10.3
372.412	10.57
372.621	10.39
372.83	9.91
373.039	9.94
373.248	9.9
373.457	10.09
373.666	10.57
373.874	10.74
374.083	10.23
374.292	10.48
374.501	10.64
374.71	10.74
374.919	10.41
375.128	10.85
375.336	10.62
375.545	10.4
375.754	10.44
375.963	9.98
376.171	10.02
376.38	10.23
376.589	10.14
376.798	10.05
377.006	9.94
377.215	10.63
377.424	10.3
377.632	10.36
377.841	10.31
378.05	10.35
378.258	10.13
378.467	10.13
378.675	9.6
378.884	9.58
379.093	9.69
379.301	9.88
379.51	9.53
379.718	9.76
379.927	9.88
380.135	10.19
380.344	9.81
380.552	10.11
380.761	10.09
380.969	10.67
381.177	10.63
381.386	10.67
381.594	10.41
381.803	10.26
382.011	9.71
382.219	9.81
382.428	9.7
382.636	9.82
382.845	9.96
383.053	9.5
383.261	9.21
383.469	9.57
383.678	9.17
383.886	8.92
384.094	9.13
384.302	9.72
384.511	9.5
384.719	9.14
384.927	8.85
385.135	8.83
385.343	9.09
385.552	8.98
385.76	8.85
385.968	9.06
386.176	9.04
386.384	8.78
386.592	8.72
386.8	8.71
387.008	8.89
387.216	8.95
387.424	8.5
387.633	8.45
387.841	8.58
388.049	8.79
388.257	8.75
388.465	8.56
388.672	8.55
388.88	8.24
389.088	8.39
389.296	8.29
389.504	8.64
389.712	8.74
389.92	8.9
390.128	8.98
390.336	8.56
390.544	8.42
390.751	8.5
390.959	8.58
391.167	8.81
391.375	8.61
391.583	8.52
391.79	8.06
391.998	8.28
392.206	8.35
392.414	8.39
392.621	8.24
392.829	8.32
393.037	8.5
393.244	8.64
393.452	8.48
393.66	8.44
393.867	8.76
394.075	9.04
394.283	8.64
394.49	8.21
394.698	8.05
394.905	8.25
395.113	8.24
395.32	8.31
395.528	8.29
395.735	8.36
395.943	8.42
396.15	7.99
396.358	8.05
396.565	8.32
396.773	8.58
396.98	8.79
397.188	8.92
397.395	8.73
397.602	8.51
397.81	8.13
398.017	8.13
398.225	7.99
398.432	8.11
398.639	7.89
398.847	7.85
399.054	7.83
399.261	7.85
399.468	7.47
399.676	7.81
399.883	7.82
400.09	7.91
400.297	7.87
400.505	7.92
400.712	8.08
400.919	8.11
401.126	8.24
401.333	8.02
401.54	7.58
401.748	7.95
401.955	7.83
402.162	7.58
402.369	7.73
402.576	7.87
402.783	7.78
402.99	7.77
403.197	7.87
403.404	7.96
403.611	8.12
403.818	8.52
404.025	8.39
404.232	8.3
404.439	8.62
404.646	8.61
404.853	8.54
405.06	8.83
405.267	9.05
405.474	9.08
405.681	8.89
405.887	9.08
406.094	8.65
406.301	8.72
406.508	8.92
406.715	8.72
406.922	8.45
407.128	8.14
407.335	7.8
407.542	7.44
407.749	7.17
407.955	7.21
408.162	7.11
408.369	7.42
408.575	7.31
408.782	7.01
408.989	7.32
409.195	7.43
409.402	7.82
409.609	8.01
409.815	8.13
410.022	8.38
410.228	8.52
410.435	8.37
410.642	8.32
410.848	8.18
411.055	8.04
411.261	7.88
411.468	7.92
411.674	7.9
411.881	7.97
412.087	7.84
412.294	7.78
412.5	7.35
412.706	7.26
412.913	7.27
413.119	7.34
413.326	7.44
413.532	7.48
413.738	7.41
413.945	7.08
414.151	7.09
414.357	7.13
414.564	6.93
414.77	7
414.976	7.05
415.182	7.1
415.389	6.89
415.595	6.98
415.801	6.87
416.007	6.95
416.214	7.22
416.42	7.19
416.626	7.19
416.832	7.35
417.038	7.63
417.244	7.57
417.45	7.63
417.657	7.79
417.863	7.99
418.069	8.04
418.275	8.09
418.481	8.02
418.687	7.86
418.893	7.95
419.099	7.79
419.305	7.73
419.511	7.73
419.717	7.67
419.923	7.57
420.129	7.3
420.335	7.18
420.541	7.2
420.746	7.05
420.952	7.13
421.158	7.01
421.364	6.93
421.57	6.86
421.776	6.96
421.982	6.86
422.187	6.98
422.393	6.93
422.599	6.93
422.805	6.76
423.01	6.79
423.216	6.68
423.422	6.58
423.628	6.68
423.833	6.63
424.039	6.5
424.245	6.48
424.45	6.5
424.656	6.66
424.862	6.73
425.067	6.78
425.273	6.82
425.478	6.86
425.684	7.04
425.889	7.13
426.095	7.21
426.301	7.16
426.506	7.19
426.712	7.09
426.917	7.2
427.123	7.19
427.328	7.12
427.533	7.17
427.739	7.3
427.944	7.27
428.15	7.23
428.355	7.08
428.561	7.2
428.766	7.24
428.971	7.2
429.177	7.1
429.382	7.15
429.587	7.36
429.793	7.22
429.998	7.12
430.203	6.92
430.408	6.86
430.614	7.07
430.819	7.01
431.024	7.07
431.229	6.96
431.434	6.65
431.64	6.51
431.845	6.62
432.05	6.88
432.255	6.77
432.46	6.81
432.665	6.81
432.87	6.66
433.076	6.68
433.281	6.52
433.486	6.69
433.691	6.75
433.896	6.77
434.101	6.65
434.306	6.48
434.511	6.59
434.716	6.68
434.921	6.74
435.126	7.02
435.331	6.96
435.535	7.03
435.74	6.89
435.945	7.06
436.15	7.13
436.355	7.16
436.56	7.2
436.765	7.09
436.97	6.96
437.174	6.9
437.379	6.55
437.584	6.54
437.789	6.74
437.993	6.8
438.198	6.72
438.403	6.66
438.608	6.69
438.812	6.64
439.017	6.72
439.222	6.82
439.426	6.78
439.631	6.87
439.836	7.05
440.04	6.88
440.245	6.86
440.45	6.82
440.654	6.85
440.859	6.81
441.063	6.92
441.268	7.04
441.472	6.95
441.677	6.88
441.881	6.88
442.086	6.62
442.29	6.6
442.495	6.53
442.699	6.64
442.904	6.61
443.108	6.58
443.312	6.52
443.517	6.37
443.721	6.51
443.925	6.68
444.13	6.73
444.334	6.98
444.538	7.07
444.743	7.22
444.947	7.1
445.151	7.09
445.356	7.1
445.56	7.04
445.764	7.11
445.968	7.17
446.173	7.16
446.377	7.1
446.581	7.06
446.785	7.08
446.989	7.1
447.193	7.02
447.398	6.96
447.602	7
447.806	7.02
448.01	6.85
448.214	6.67
448.418	6.54
448.622	6.54
448.826	6.4
449.03	6.24
449.234	6.06
449.438	6.21
449.642	6.29
449.846	6.16
450.05	6.25
450.254	6.41
450.458	6.44
450.662	6.29
450.866	6.32
451.069	6.45
451.273	6.53
451.477	6.53
451.681	6.43
451.885	6.38
452.089	6.44
452.292	6.26
452.496	6.14
452.7	6.04
452.904	6.16
453.107	6.18
453.311	6.39
453.515	6.4
453.719	6.47
453.922	6.57
454.126	6.56
454.33	6.51
454.533	6.53
454.737	6.54
454.94	6.79
455.144	6.89
455.348	6.89
455.551	6.73
455.755	6.68
455.958	6.68
456.162	6.62
456.365	6.6
456.569	6.68
456.772	6.72
456.976	6.93
457.179	6.8
457.383	6.79
457.586	6.8
457.79	6.72
457.993	6.71
458.196	6.7
458.4	6.75
458.603	6.83
458.807	6.88
459.01	6.88
459.213	6.79
459.417	6.83
459.62	6.77
459.823	6.75
460.026	6.65
460.23	6.67
460.433	6.63
460.636	6.55
460.839	6.53
461.042	6.45
461.246	6.43
461.449	6.38
461.652	6.34
461.855	6.46
462.058	6.38
462.261	6.45
462.464	6.47
462.668	6.43
462.871	6.51
463.074	6.43
463.277	6.39
463.48	6.42
463.683	6.5
463.886	6.57
464.089	6.49
464.292	6.48
464.495	6.63
464.698	6.59
464.901	6.82
465.104	6.87
465.306	6.97
465.509	6.99
465.712	7.02
465.915	6.85
466.118	6.8
466.321	6.77
466.524	6.87
466.726	6.78
466.929	6.79
467.132	6.67
467.335	6.64
467.538	6.47
467.74	6.5
467.943	6.46
468.146	6.47
468.348	6.43
468.551	6.41
468.754	6.36
468.956	6.38
469.159	6.39
469.362	6.3
469.564	6.26
469.767	6.57
469.969	6.52
470.172	6.45
470.375	6.47
470.577	6.54
470.78	6.65
470.982	6.68
471.185	6.74
471.387	6.71
471.59	6.82
471.792	6.9
471.995	6.75
472.197	6.67
472.399	6.82
472.602	6.85
472.804	6.78
473.007	6.6
473.209	6.43
473.411	6.31
473.614	6.37
473.816	6.25
474.018	6.18
474.22	6.11
474.423	6.25
474.625	6.11
474.827	6.08
475.03	6.02
475.232	6.2
475.434	6.51
475.636	6.49
475.838	6.55
476.04	6.58
476.243	6.45
476.445	6.52
476.647	6.5
476.849	6.57
477.051	6.54
477.253	6.63
477.455	6.55
477.657	6.32
477.859	6.26
478.061	6.13
478.263	6.02
478.465	6.06
478.667	6.05
478.869	6.16
479.071	6
479.273	6.02
479.475	5.87
479.677	5.82
479.879	5.91
480.081	6.02
480.283	6.04
480.485	6.09
480.686	6.15
480.888	6.11
481.09	6.05
481.292	6.26
481.494	6.3
481.695	6.38
481.897	6.44
482.099	6.41
482.301	6.47
482.502	6.46
482.704	6.49
482.906	6.51
483.107	6.55
483.309	6.49
483.511	6.43
483.712	6.36
483.914	6.39
484.115	6.36
484.317	6.37
484.519	6.35
484.72	6.37
484.922	6.34
485.123	6.34
485.325	6.3
485.526	6.28
485.728	6.32
485.929	6.41
486.131	6.34
486.332	6.37
486.534	6.31
486.735	6.29
486.936	6.29
487.138	6.32
487.339	6.27
487.541	6.26
487.742	6.26
487.943	6.21
488.144	6.16
488.346	6.17
488.547	6.21
488.748	6.28
488.95	6.31
489.151	6.29
489.352	6.29
489.553	6.38
489.755	6.36
489.956	6.38
490.157	6.37
490.358	6.44
490.559	6.52
490.76	6.52
490.961	6.51
491.163	6.45
491.364	6.48
491.565	6.52
491.766	6.49
491.967	6.61
492.168	6.62
492.369	6.65
492.57	6.63
492.771	6.61
492.972	6.59
493.173	6.56
493.374	6.6
493.575	6.58
493.776	6.51
493.976	6.47
494.177	6.34
494.378	6.38
494.579	6.4
494.78	6.54
494.981	6.43
495.182	6.45
495.382	6.39
495.583	6.34
495.784	6.37
495.985	6.61
496.185	6.57
496.386	6.61
496.587	6.65
496.788	6.64
496.988	6.63
497.189	6.62
497.39	6.73
497.59	6.86
497.791	6.94
497.992	6.86
498.192	6.81
498.393	6.91
498.593	7.01
498.794	6.96
498.994	6.94
499.195	6.84
499.395	6.92
499.596	6.81
499.796	6.75
499.997	6.75
500.197	6.7
500.398	6.57
500.598	6.53
500.799	6.44
500.999	6.4
501.199	6.44
501.4	6.44
501.6	6.53
501.801	6.55
502.001	6.55
502.201	6.5
502.402	6.85
502.602	6.95
502.802	6.97
503.002	6.96
503.203	7.01
503.403	7.06
503.603	7.06
503.803	7.05
504.003	7.03
504.204	7.13
504.404	7.13
504.604	7.01
504.804	7.13
505.004	7.23
505.204	7.34
505.404	7.39
505.604	7.46
505.804	7.58
506.005	7.5
506.205	7.61
506.405	7.7
506.605	7.81
506.805	7.71
507.005	7.64
507.204	7.6
507.404	7.37
507.604	7.36
507.804	7.34
508.004	7.37
508.204	7.5
508.404	7.53
508.604	7.5
508.804	7.54
509.003	7.69
509.203	7.61
509.403	7.58
509.603	7.74
509.803	7.79
510.002	7.75
510.202	7.52
510.402	7.51
510.602	7.5
510.801	7.42
511.001	7.37
511.201	7.35
511.4	7.48
511.6	7.62
511.8	7.71
511.999	7.65
512.199	7.78
512.398	7.9
512.598	8.02
512.797	8.02
512.997	8.04
513.197	8.11
513.396	8.17
513.596	8.13
513.795	8.02
513.994	7.94
514.194	8.08
514.393	8.08
514.593	8.19
514.792	8.07
514.992	8.02
515.191	8.12
515.39	8.16
515.59	8.21
515.789	8.32
515.988	8.41
516.188	8.42
516.387	8.5
516.586	8.55
516.786	8.55
516.985	8.61
517.184	8.6
517.383	8.64
517.582	8.71
517.782	8.62
517.981	8.63
518.18	8.56
518.379	8.69
518.578	8.67
518.777	8.59
518.976	8.63
519.176	8.62
519.375	8.73
519.574	8.64
519.773	8.66
519.972	8.77
520.171	8.79
520.37	8.86
520.569	8.82
520.768	8.8
520.967	8.96
521.166	8.97
521.365	9.12
521.564	9.02
521.762	9.08
521.961	9.13
522.16	9.09
522.359	9.12
522.558	9.25
522.757	9.22
522.956	9.39
523.154	9.21
523.353	9.29
523.552	9.24
523.751	9.46
523.949	9.54
524.148	9.47
524.347	9.55
524.546	9.58
524.744	9.71
524.943	9.87
525.142	9.85
525.34	10.04
525.539	9.95
525.737	9.99
525.936	9.95
526.135	10.01
526.333	10.03
526.532	10.07
526.73	10.08
526.929	9.97
527.127	9.9
527.326	9.86
527.524	9.87
527.723	9.94
527.921	10.05
528.12	10.05
528.318	10.06
528.516	10.07
528.715	10.09
528.913	10.1
529.112	10.13
529.31	10.16
529.508	10.19
529.707	10.2
529.905	10.23
530.103	10.22
530.301	10.26
530.5	10.3
530.698	10.37
530.896	10.41
531.094	10.41
531.293	10.41
531.491	10.49
531.689	10.55
531.887	10.59
532.085	10.61
532.283	10.61
532.481	10.63
532.68	10.64
532.878	10.68
533.076	10.7
533.274	10.78
533.472	10.77
533.67	10.74
533.868	10.68
534.066	10.64
534.264	10.62
534.462	10.64
534.66	10.71
534.858	10.64
535.056	10.58
535.253	10.54
535.451	10.62
535.649	10.81
535.847	10.97
536.045	11.14
536.243	11.35
536.441	11.51
536.638	11.58
536.836	11.62
537.034	11.86
537.232	12
537.43	12.12
537.627	12.12
537.825	12.05
538.023	11.98
538.22	11.98
538.418	11.87
538.616	11.78
538.813	11.82
539.011	11.85
539.209	11.92
539.406	12
539.604	12.03
539.801	12.12
539.999	12.26
540.196	12.31
540.394	12.38
540.591	12.52
540.789	12.5
540.986	12.45
541.184	12.47
541.381	12.42
541.579	12.38
541.776	12.43
541.974	12.45
542.171	12.39
542.368	12.47
542.566	12.5
542.763	12.5
542.96	12.58
543.158	12.71
543.355	12.81
543.552	12.88
543.75	12.99
543.947	13.03
544.144	12.98
544.341	13.23
544.539	13.16
544.736	13.2
544.933	13.28
545.13	13.43
545.327	13.39
545.524	13.41
545.722	13.42
545.919	13.42
546.116	13.44
546.313	13.52
546.51	13.51
546.707	13.6
546.904	13.65
547.101	13.68
547.298	13.67
547.495	13.72
547.692	13.74
547.889	13.79
548.086	13.89
548.283	13.95
548.48	14.14
548.677	14.07
548.874	14.24
549.07	14.42
549.267	14.35
549.464	14.44
549.661	14.44
549.858	14.62
550.055	14.62
550.251	14.73
550.448	14.83
550.645	14.96
550.842	15.1
551.038	14.94
551.235	14.94
551.432	15.13
551.628	15.14
551.825	15.28
552.022	15.25
552.218	15.37
552.415	15.32
552.612	15.24
552.808	15.17
553.005	15.13
553.201	15.36
553.398	15.45
553.594	15.17
553.791	15.33
553.987	15.54
554.184	15.52
554.38	15.45
554.577	15.56
554.773	15.8
554.97	16.01
555.166	16.19
555.362	16.05
555.559	16.02
555.755	16.33
555.952	16.26
556.148	16.17
556.344	16.41
556.541	16.58
556.737	16.66
556.933	16.73
557.129	16.36
557.326	16.36
557.522	16.57
557.718	16.49
557.914	16.64
558.11	16.66
558.307	16.68
558.503	16.4
558.699	16.36
558.895	16.18
559.091	16.24
559.287	16.48
559.483	16.53
559.679	16.53
559.876	16.85
560.072	16.7
560.268	16.79
560.464	16.94
560.66	17.1
560.856	17.35
561.052	17.51
561.247	17.33
561.443	17.4
561.639	17.21
561.835	17.41
562.031	17.35
562.227	17.53
562.423	17.72
562.619	17.75
562.815	17.94
563.01	17.94
563.206	18.11
563.402	18.4
563.598	18.58
563.793	18.89
563.989	18.88
564.185	18.98
564.381	19.19
564.576	19.17
564.772	19.35
564.968	19.36
565.163	19.44
565.359	19.37
565.555	19.32
565.75	19.29
565.946	19.31
566.141	19.37
566.337	19.32
566.532	19.33
566.728	19.39
566.923	19.27
567.119	19.31
567.314	19.34
567.51	19.49
567.705	19.58
567.901	19.56
568.096	19.84
568.292	19.86
568.487	19.76
568.682	19.88
568.878	20.01
569.073	20.13
569.268	20.07
569.464	20.1
569.659	20.09
569.854	20.05
570.05	20.12
570.245	19.97
570.44	20.02
570.635	20.31
570.831	20.33
571.026	20.34
571.221	20.39
571.416	20.47
571.611	20.6
571.806	20.77
572.002	20.97
572.197	21.1
572.392	21.25
572.587	21.48
572.782	21.6
572.977	21.65
573.172	21.71
573.367	21.78
573.562	21.98
573.757	22.05
573.952	22
574.147	22.13
574.342	22.32
574.537	22.37
574.732	22.28
574.927	22.2
575.121	22.26
575.316	22.43
575.511	22.49
575.706	22.61
575.901	22.6
576.096	22.64
576.29	22.59
576.485	22.56
576.68	22.45
576.875	22.53
577.069	22.55
577.264	22.59
577.459	22.54
577.654	22.69
577.848	22.56
578.043	22.71
578.238	22.77
578.432	22.85
578.627	22.94
578.821	23.16
579.016	23.01
579.21	23.26
579.405	23.33
579.6	23.35
579.794	23.36
579.989	23.38
580.183	23.33
580.378	23.49
580.572	23.44
580.766	23.46
580.961	23.3
581.155	23.53
581.35	23.55
581.544	23.74
581.738	23.63
581.933	23.58
582.127	23.5
582.321	23.52
582.516	23.61
582.71	23.81
582.904	23.87
583.099	23.99
583.293	24.2
583.487	24.1
583.681	24.01
583.875	24.29
584.07	24.39
584.264	24.65
584.458	24.87
584.652	24.71
584.846	24.7
585.04	24.82
585.234	24.98
585.428	24.89
585.623	25.08
585.817	25.15
586.011	25.34
586.205	25.39
586.399	25.43
586.593	25.25
586.787	25.34
586.981	25.56
587.174	25.39
587.368	25.34
587.562	25.24
587.756	25.34
587.95	25.34
588.144	25.16
588.338	25.33
588.532	25.46
588.725	25.66
588.919	25.72
589.113	25.39
589.307	25.55
589.501	25.44
589.694	25.66
589.888	25.86
590.082	25.93
590.275	25.93
590.469	25.79
590.663	25.95
590.856	25.9
591.05	26.04
591.244	26.38
591.437	26.32
591.631	26.7
591.824	26.74
592.018	26.43
592.212	26.48
592.405	26.58
592.599	26.55
592.792	26.62
592.986	26.92
593.179	26.86
593.372	26.81
593.566	27.03
593.759	27
593.953	27.04
594.146	27.13
594.339	27.21
594.533	27.23
594.726	27.49
594.92	27.4
595.113	27.15
595.306	27.31
595.499	27.26
595.693	27.38
595.886	27.47
596.079	27.64
596.272	27.82
596.466	28
596.659	27.9
596.852	27.87
597.045	27.88
597.238	28.01
597.431	27.91
597.624	28.02
597.818	28.03
598.011	27.95
598.204	27.94
598.397	27.86
598.59	27.68
598.783	27.74
598.976	27.52
599.169	27.58
599.362	27.53
599.555	27.59
599.748	27.8
599.941	27.64
600.134	27.73
600.326	27.59
600.519	27.69
600.712	27.63
600.905	27.85
601.098	28.2
601.291	28.17
601.483	28.42
601.676	28.7
601.869	28.33
602.062	28.33
602.255	28.39
602.447	28.49
602.64	28.72
602.833	28.79
603.025	28.93
603.218	28.84
603.411	28.82
603.603	28.75
603.796	28.66
603.989	28.81
604.181	28.88
604.374	28.98
604.566	29.01
604.759	28.76
604.951	28.95
605.144	28.94
605.336	28.98
605.529	29.05
605.721	29.2
605.914	29.15
606.106	29.15
606.299	29.23
606.491	29.07
606.683	28.96
606.876	29.06
607.068	28.97
607.26	28.79
607.453	28.89
607.645	28.96
607.837	28.7
608.03	28.86
608.222	29.04
608.414	28.97
608.606	29.44
608.799	29.62
608.991	29.87
609.183	29.89
609.375	30.12
609.567	30.29
609.759	30.14
609.952	30.37
610.144	30.43
610.336	30.44
610.528	30.55
610.72	30.34
610.912	30.48
611.104	30.51
611.296	30.46
611.488	30.55
611.68	30.48
611.872	30.72
612.064	30.53
612.256	30.27
612.448	30.31
612.64	30.48
612.832	30.62
613.023	30.5
613.215	30.35
613.407	30.54
613.599	30.2
613.791	30.25
613.983	30.36
614.174	30.52
614.366	30.76
614.558	30.57
614.75	30.46
614.941	30.6
615.133	30.49
615.325	30.51
615.516	30.67
615.708	30.94
615.9	30.88
616.091	31.01
616.283	31.13
616.475	31.39
616.666	31.76
616.858	31.8
617.049	31.57
617.241	31.84
617.432	31.91
617.624	32.01
617.815	32.16
618.007	32.08
618.198	31.86
618.39	31.72
618.581	31.88
618.773	31.67
618.964	31.76
619.155	31.79
619.347	31.81
619.538	31.9
619.729	31.62
619.921	31.55
620.112	31.75
620.303	31.88
620.494	31.99
620.686	31.69
620.877	31.8
621.068	31.62
621.259	31.82
621.451	31.85
621.642	31.72
621.833	32.01
622.024	31.92
622.215	31.84
622.406	31.96
622.597	31.95
622.788	32.18
622.98	31.96
623.171	32.34
623.362	32.37
623.553	32.21
623.744	32.7
623.935	32.51
624.126	32.82
624.317	33.04
624.508	32.99
624.698	33.1
624.889	33.06
625.08	33.34
625.271	33.49
625.462	33.5
625.653	33.67
625.844	33.47
626.034	33.31
626.225	33.42
626.416	33.3
626.607	33.36
626.798	33.39
626.988	33.31
627.179	33.01
627.37	32.76
627.56	32.75
627.751	32.81
627.942	32.86
628.132	33.16
628.323	33.12
628.514	33.07
628.704	33.15
628.895	33.04
629.085	33.23
629.276	33.77
629.466	34.03
629.657	34.08
629.847	34.04
630.038	34.09
630.228	34.09
630.419	34.01
630.609	34.2
630.8	33.98
630.99	34.37
631.181	34.52
631.371	34.36
631.561	34.29
631.752	34.26
631.942	34.2
632.132	34.1
632.323	34.14
632.513	34.08
632.703	33.96
632.893	33.95
633.084	33.93
633.274	33.79
633.464	33.85
633.654	33.87
633.844	33.76
634.034	33.93
634.225	33.95
634.415	33.99
634.605	34.02
634.795	34.09
634.985	34.18
635.175	33.81
635.365	33.93
635.555	33.98
635.745	33.95
635.935	34.23
636.125	34.29
636.315	34.2
636.505	34.26
636.695	34.41
636.885	34.57
637.075	34.67
637.265	35.03
637.455	34.92
637.644	34.89
637.834	34.64
638.024	34.36
638.214	34.27
638.404	34.8
638.593	34.51
638.783	34.6
638.973	34.38
639.163	34.66
639.352	34.85
639.542	34.73
639.732	34.73
639.921	35.12
640.111	35.34
640.301	35.26
640.49	35.17
640.68	34.98
640.87	35
641.059	35.33
641.249	35.22
641.438	34.96
641.628	35.02
641.817	35.09
642.007	35.14
642.196	35.08
642.386	35.11
642.575	35.23
642.764	35.85
642.954	35.66
643.143	35.8
643.333	35.92
643.522	36.05
643.711	36.17
643.901	36.21
644.09	36.53
644.279	36.67
644.469	36.87
644.658	36.87
644.847	36.79
645.036	37.09
645.226	37.01
645.415	36.71
645.604	36.65
645.793	37.07
645.982	36.98
646.171	36.71
646.361	36.91
646.55	36.99
646.739	36.74
646.928	36.88
647.117	36.96
647.306	36.94
647.495	37.16
647.684	37.16
647.873	37.06
648.062	37.12
648.251	37.25
648.44	36.78
648.629	36.7
648.818	36.87
649.007	36.59
649.196	36.62
649.384	36.48
649.573	36.38
649.762	36.42
649.951	36.44
650.14	36.86
650.328	36.67
650.517	37.24
650.706	37.06
650.895	36.99
651.083	37.22
651.272	36.78
651.461	36.89
651.65	36.95
651.838	37.1
652.027	36.91
652.216	36.83
652.404	36.94
652.593	36.59
652.781	36.81
652.97	36.76
653.158	36.74
653.347	36.94
653.535	36.99
653.724	37.41
653.912	37.44
654.101	37.74
654.289	37.52
654.478	37.6
654.666	37.62
654.855	37.85
655.043	37.95
655.231	37.92
655.42	37.99
655.608	37.79
655.796	37.01
655.985	37.32
656.173	37.3
656.361	37.49
656.55	37.22
656.738	37.53
656.926	37.27
657.114	37.41
657.302	37.38
657.491	37.36
657.679	37.6
657.867	38.19
658.055	37.92
658.243	37.94
658.431	38.02
658.619	38.39
658.807	38.29
658.996	38.71
659.184	38.49
659.372	38.78
659.56	39.02
659.748	39.17
659.936	39.18
660.124	39.11
660.311	39.16
660.499	38.76
660.687	38.73
660.875	39.03
661.063	38.8
661.251	38.9
661.439	38.68
661.627	38.83
661.814	38.78
662.002	38.52
662.19	38.8
662.378	38.67
662.565	38.78
662.753	38.54
662.941	38.23
663.129	38.45
663.316	38.48
663.504	38.49
663.692	38.32
663.879	38.05
664.067	38.32
664.254	38.21
664.442	38.39
664.63	38.67
664.817	38.79
665.005	38.96
665.192	38.64
665.38	38.41
665.567	38.75
665.755	38.92
665.942	39.49
666.13	39.45
666.317	39.47
666.504	39.25
666.692	39.07
666.879	39.45
667.067	39.49
667.254	39.89
667.441	40.48
667.629	40.17
667.816	39.89
668.003	39.67
668.19	40.05
668.378	40.42
668.565	40.44
668.752	40.98
668.939	40.5
669.127	40.32
669.314	40.56
669.501	40.38
669.688	40.5
669.875	40.61
670.062	40.74
670.249	40.22
670.436	39.86
670.623	40.36
670.81	40.26
670.997	40.53
671.184	40.54
671.371	40.22
671.558	40.34
671.745	40.29
671.932	40.35
672.119	40.14
672.306	40.36
672.493	40.01
672.68	39.7
672.867	40.11
673.054	39.96
673.24	40.59
673.427	40.56
673.614	40.7
673.801	40.87
673.988	41.06
674.174	41.26
674.361	41.4
674.548	41.71
674.734	41.74
674.921	41.42
675.108	41.62
675.294	41.14
675.481	41.25
675.668	40.98
675.854	41.32
676.041	41.33
676.227	41.49
676.414	41.67
676.601	41.85
676.787	41.9
676.974	41.72
677.16	41.56
677.347	41.81
677.533	41.46
677.719	41.63
677.906	40.89
678.092	40.66
678.279	40.84
678.465	40.72
678.651	40.7
678.838	40.81
679.024	40.99
679.21	40.89
679.397	40.85
679.583	41.08
679.769	41.24
679.955	41.48
680.142	41.67
680.328	41.61
680.514	41.29
680.7	40.86
680.886	40.67
681.073	40.24
681.259	40.52
681.445	40.37
681.631	40.36
681.817	40.36
682.003	40.77
682.189	40.63
682.375	40.35
682.561	40.75
682.747	41.09
682.933	41.09
683.119	41.75
683.305	41.77
683.491	41.68
683.677	41.97
683.863	41.73
684.049	41.86
684.235	41.76
684.42	41.73
684.606	42.02
684.792	42.5
684.978	42.95
685.164	42.68
685.349	42.56
685.535	42.43
685.721	42.25
685.907	42.48
686.092	41.85
686.278	41.84
686.464	42.45
686.649	41.9
686.835	41.64
687.021	41.03
687.206	41.01
687.392	40.92
687.577	41.28
687.763	41.09
687.948	41.23
688.134	41.41
688.319	41.57
688.505	41.23
688.69	41.94
688.876	42.1
689.061	41.93
689.247	42.18
689.432	42.33
689.618	42.6
689.803	43.08
689.988	42.78
690.174	42.95
690.359	43.08
690.544	42.92
690.73	42.47
690.915	42.38
691.1	42.6
691.285	42.78
691.471	42.89
691.656	42.49
691.841	42.66
692.026	42.8
692.211	42.86
692.396	42.86
692.582	42.73
692.767	43.09
692.952	43.07
693.137	44.02
693.322	43.83
693.507	43.77
693.692	43.96
693.877	43.07
694.062	43.33
694.247	43.32
694.432	43.73
694.617	44.4
694.802	44.21
694.987	44.9
695.172	44.32
695.357	44.13
695.541	44
695.726	44.08
695.911	44.85
696.096	43.96
696.281	43.53
696.466	43.34
696.65	43.33
696.835	43.69
697.02	43.58
697.204	43.67
697.389	43.79
697.574	44.31
697.759	44.24
697.943	44.08
698.128	44.37
698.312	44.55
698.497	43.99
698.682	43.93
698.866	43.81
699.051	43.55
699.235	43.64
699.42	43.29
699.604	43.09
699.789	42.78
699.973	42.76
700.158	42.81
700.342	42.82
700.527	43.35
700.711	43.21
700.895	43.18
701.08	43.22
701.264	43.12
701.448	43.62
701.633	43.43
701.817	44.03
702.001	43.82
702.186	43.82
702.37	43.93
702.554	44.13
702.738	43.97
702.923	43.34
703.107	43.32
703.291	43.64
703.475	43.84
703.659	44.59
703.843	44.86
704.027	44.79
704.212	44.84
704.396	44.74
704.58	44.2
704.764	44.35
704.948	44.26
705.132	44.75
705.316	44.06
705.5	43.68
705.684	43.97
705.868	43.64
706.052	43.98
706.235	44.62
706.419	44.66
706.603	44.97
706.787	45.07
706.971	45.78
707.155	45.81
707.339	46
707.522	46.57
707.706	46.11
707.89	45.71
708.074	45.6
708.257	44.92
708.441	45.64
708.625	45.98
708.808	45.84
708.992	45.75
709.176	45.4
709.359	45.69
709.543	45.1
709.727	45.03
709.91	45.03
710.094	45.16
710.277	45.03
710.461	44.02
710.644	43.56
710.828	43.41
711.011	43.5
711.195	43.55
711.378	43.96
711.562	44.23
711.745	44.26
711.928	44.36
712.112	44.44
712.295	45.12
712.478	44.74
712.662	45.44
712.845	45.66
713.028	45.76
713.212	45.55
713.395	44.8
713.578	44.99
713.761	45.19
713.945	45.42
714.128	45.42
714.311	45.51
714.494	46.22
714.677	45.47
714.86	45.78
715.043	45.96
715.227	45.48
715.41	46.04
715.593	45.85
715.776	45.45
715.959	45.36
716.142	45.3
716.325	45.33
716.508	45.63
716.691	46.47
716.874	46.46
717.057	46.27
717.239	46.96
717.422	46.1
717.605	46.97
717.788	47.32
717.971	47.41
718.154	47.71
718.337	47.36
718.519	46.85
718.702	46.41
718.885	46.65
719.068	46.28
719.25	46.73
719.433	47.51
719.616	46.87
719.798	46.76
719.981	47.59
720.164	47.18
720.346	47.64
720.529	47.07
720.712	46.33
720.894	45.54
721.077	45.33
721.259	44.95
721.442	44.31
721.624	43.92
721.807	44.28
721.989	43.78
722.172	44.33
722.354	44.28
722.537	45.23
722.719	46.07
722.901	45.91
723.084	46.42
723.266	46.34
723.448	47.1
723.631	47.78
723.813	46.57
723.995	46.65
724.178	46.18
724.36	46.01
724.542	45.92
724.724	45.64
724.907	47.27
725.089	47.51
725.271	47.03
725.453	46.87
725.635	46.39
725.817	48.36
725.999	48.15
726.181	48.62
726.364	47.66
726.546	47.62
726.728	48.26
726.91	47.18
727.092	46.51
727.274	47.08
727.456	46.39
727.638	45.64
727.819	44.23
728.001	44.95
728.183	43.91
728.365	44.63
728.547	45.15
728.729	44.75
728.911	45.27
729.093	45.57
729.274	46.07
729.456	46.8
729.638	46.87
729.82	47.47
730.001	46.9
730.183	47.25
730.365	47.14
730.546	47.16
730.728	47.04
730.91	47.05
731.091	46.85
731.273	45.76
731.455	45.28
731.636	45.86
731.818	45.84
731.999	45.74
732.181	46.49
732.362	46.55
732.544	45.87
732.725	46.42
732.907	46.14
733.088	46.48
733.27	46.87
733.451	47.35
733.633	46.82
733.814	46.72
733.995	46.38
734.177	45.97
734.358	46.12
734.539	46.67
734.721	46.02
734.902	45.64
735.083	45.63
735.264	45.86
735.446	45.46
735.627	46.65
735.808	46.06
735.989	46.4
736.17	46.44
736.351	46.42
736.533	46.43
736.714	46.74
736.895	46.51
737.076	46.74
737.257	46.39
737.438	46.78
737.619	46.16
737.8	45.98
737.981	45.75
738.162	45.8
738.343	45.67
738.524	45.59
738.705	45.68
738.886	45.96
739.067	45.16
739.247	45.94
739.428	45.56
739.609	45.59
739.79	46.27
739.971	46.76
740.151	46.28
740.332	46.89
740.513	46.95
740.694	46.89
740.874	46.28
741.055	47.44
741.236	46.61
741.417	47.68
741.597	48.19
741.778	47.87
741.958	47.22
742.139	47.76
742.32	46.9
742.5	45.91
742.681	45.49
742.861	47.2
743.042	47.02
743.222	47.56
743.403	46.43
743.583	46.22
743.764	46.51
743.944	47.2
744.124	47.2
744.305	47.73
744.485	48.81
744.666	48.35
744.846	48.12
745.026	48.73
745.207	47.84
745.387	48.23
745.567	48
745.747	48.18
745.928	47.29
746.108	47.59
746.288	47.35
746.468	47.64
746.648	47.89
746.829	47.21
747.009	46.55
747.189	47.23
747.369	47.83
747.549	47.81
747.729	48.1
747.909	49.1
748.089	49.77
748.269	49.78
748.449	49.34
748.629	50.04
748.809	49.69
748.989	48.43
749.169	48.37
749.349	48.22
749.529	48.28
749.709	48.02
749.889	47.14
750.068	46.32
750.248	46.35
750.428	46.26
750.608	46.73
750.788	47.65
750.967	49.1
751.147	49.5
751.327	48.77
751.507	48.18
751.686	47.97
751.866	48.31
752.046	47.97
752.225	47.98
752.405	48.59
752.585	47.35
752.764	45.97
752.944	44.79
753.123	44.5
753.303	45.35
753.482	45.5
753.662	45.6
753.841	45.45
754.021	45.69
754.2	46.4
754.38	45.92
754.559	46.07
754.739	46.72
754.918	47.35
755.097	46.69
755.277	46.7
755.456	46.76
755.635	46.56
755.815	46.75
755.994	47.29
756.173	46.57
756.352	46.78
756.532	47.85
756.711	48.4
756.89	48.87
757.069	49.27
757.248	48.27
757.427	48.26
757.607	47.99
757.786	48.97
757.965	48.03
758.144	48.48
758.323	48.39
758.502	46.72
758.681	46.8
758.86	46.52
759.039	46.74
759.218	46.74
759.397	47.73
759.576	48.09
759.755	47.08
759.934	47.56
760.113	46.25
760.291	46.22
760.47	46.78
760.649	46.43
760.828	46.28
761.007	46.52
761.186	47.15
761.364	46.02
761.543	46.24
761.722	46.5
761.901	46.43
762.079	47.01
762.258	46.56
762.437	47.29
762.615	47.41
762.794	47.92
762.972	48.24
763.151	48.07
763.33	48.22
763.508	47.95
763.687	48.47
763.865	48.52
764.044	48.73
764.222	48.64
764.401	48.57
764.579	48.13
764.758	46.93
764.936	46.66
765.114	46.53
765.293	46.44
765.471	46.29
765.65	45.45
765.828	45.67
766.006	45.45
766.184	45.3
766.363	45.84
766.541	45.63
766.719	46.76
766.898	46.72
767.076	46.82
767.254	47.43
767.432	48
767.61	48.91
767.788	48.69
767.967	49.06
768.145	49.83
768.323	49.19
768.501	50.07
768.679	50.05
768.857	49.13
769.035	49.23
769.213	49.04
769.391	49.33
769.569	48.12
769.747	48.71
769.925	48.27
770.103	46.97
770.281	48.52
770.459	47.59
770.636	47.49
770.814	48.11
770.992	46.64
771.17	46.03
771.348	44.19
771.525	44.26
771.703	44.09
771.881	44.97
772.059	47.77
772.236	44.94
772.414	47.23
772.592	47.34
772.769	47.4
772.947	49.68
773.125	50.51
773.302	52.81
773.48	53.26
773.657	52.77
773.835	52.44
774.013	50.85
774.19	50.49
774.368	49.67
774.545	50.19
774.723	49
774.9	48.72
775.077	48.34
775.255	47.89
775.432	48.95
775.61	49.84
775.787	48.17
775.964	47.81
776.142	49.38
776.319	48.31
776.496	47.01
776.674	48.73
776.851	48.27
777.028	48.12
777.205	48.78
777.382	48.25
777.56	48.3
777.737	49.2
777.914	49.47
778.091	50.16
778.268	52.15
778.445	53.78
778.622	54.7
778.8	55.66
778.977	56.02
779.154	65.58
779.331	65.6
779.508	65.3
779.685	66.12
779.862	66.9
780.038	66.83
780.215	66.31
780.392	64.56
780.569	63.65
780.746	63.7
780.923	62.55
781.1	51.06
781.277	50.07
781.453	48.33
781.63	48.74
781.807	49.23
781.984	49.94
782.16	49.63
782.337	50.58
782.514	50.41
782.691	51.33
782.867	52.25
783.044	52.23
783.221	52.28
783.397	54.67
783.574	54.72
783.75	53.72
783.927	53.77
784.103	54
784.28	54.13
784.456	54.64
784.633	53.04
784.809	53.93
784.986	53.59
785.162	54.4
785.339	53.04
785.515	54.35
785.692	55.98
785.868	54.14
786.044	51.78
786.221	52.08
786.397	52.47
786.573	52.72
786.749	51.32
786.926	49.71
787.102	49.86
787.278	50.13
787.454	49.1
787.631	47.85
787.807	48.08
787.983	48.02
788.159	47.29
788.335	46.89
788.511	47.64
788.687	48.55
788.863	50.43
789.039	50.76
789.216	51.37
789.392	51.93
789.568	51.93
789.744	52.17
789.919	54.48
790.095	55.1
790.271	55.32
790.447	54.18
790.623	53.9
790.799	54.86
790.975	54.8
791.151	53.96
791.327	53.46
791.502	53.56
791.678	53.49
791.854	53.54
792.03	52.95
792.205	52.81
792.381	53.84
792.557	54.64
792.733	52.71
792.908	53.58
793.084	53.74
793.259	53.7
793.435	54.53
793.611	55.33
793.786	54.38
793.962	54.38
794.137	54.2
794.313	54.32
794.488	54.34
794.664	55.93
794.839	53.83
795.015	52.9
795.19	51.43
795.366	50.79
795.541	51.04
795.716	51.23
795.892	51.22
796.067	52.67
796.242	51.16
796.418	50.67
796.593	49.13
796.768	50.46
796.944	52.44
797.119	51.34
797.294	51.54
797.469	51.36
797.644	52.89
797.82	53.57
797.995	51.42
798.17	52.1
798.345	51.25
798.52	52.57
798.695	50.92
798.87	51.58
799.045	53.34
799.22	53.46
799.395	52.82
799.57	50.69
799.745	50.64
799.92	50.47
800.095	49.44
800.27	48.39
800.445	47.19
800.62	47.6
800.795	45.65
800.97	43.42
801.145	40.35
801.319	39.43
801.494	40.44
801.669	40.78
801.844	41.98
802.018	42.35
802.193	45.05
802.368	45.06
802.543	44.89
802.717	43.7
802.892	46.87
803.067	49.5
803.241	50.69
803.416	51.16
803.59	50.68
803.765	50.27
803.94	51.1
804.114	51.15
804.289	51.82
804.463	52.33
804.638	52.48
804.812	53.24
804.986	55.21
805.161	55.81
805.335	52.65
805.51	52.32
805.684	52.04
805.858	53.49
806.033	55.53
806.207	54.34
806.381	55.52
806.556	56.51
806.73	56.52
806.904	55.33
807.078	56.75
807.253	59.73
807.427	58.57
807.601	61.52
807.775	59.14
807.949	54.75
808.123	54.67
808.298	55.3
808.472	55
808.646	52.99
808.82	55.04
808.994	53.43
809.168	52.88
809.342	54.09
809.516	54.37
809.69	53.6
809.864	56.61
810.038	58.49
810.212	56.24
810.385	57.92
810.559	58.99
810.733	54.4
810.907	53.74
811.081	55.68
811.255	54.14
811.428	53.36
811.602	55.27
811.776	55.52
811.95	55.57
812.123	54.91
812.297	53.06
812.471	52.66
812.644	53.99
812.818	56.45
812.992	54.72
813.165	56.72
813.339	54.97
813.512	55.35
813.686	51.98
813.86	51.6
814.033	50.67
814.207	52.32
814.38	52.18
814.554	52.83
814.727	51.34
814.9	52.93
815.074	52.25
815.247	52.74
815.421	49.82
815.594	48.46
815.767	48.53
815.941	49.83
816.114	48.02
816.287	47.65
816.46	47.22
816.634	47.43
816.807	41.62
816.98	43.5
817.153	42.65
817.327	45.24
817.5	48.07
817.673	49.25
817.846	51.51
818.019	53.55
818.192	55.59
818.365	55.52
818.538	55.03
818.711	56.79
818.884	54.86
819.057	54.58
819.23	54.37
819.403	53.45
819.576	53.51
819.749	53.17
819.922	51.9
820.095	50.08
820.268	49.57
820.441	49.2
820.614	48.86
820.786	49.88
820.959	48.24
821.132	48.2
821.305	47.66
821.477	46.63
821.65	45.62
821.823	45.57
821.996	45.84
822.168	46.41
822.341	46.38
822.514	45.99
822.686	45.76
822.859	45.84
823.031	45.71
823.204	46.59
823.376	46.33
823.549	46.52
823.722	46.56
823.894	46.09
824.067	45.74
824.239	45.02
824.411	45.22
824.584	45.19
824.756	45.22
824.929	45.16
825.101	44.65
825.273	45.3
825.446	45.22
825.618	44.81
825.79	45.15
825.963	45.47
826.135	46.79
826.307	46.84
826.479	47.47
826.652	48.17
826.824	48.37
826.996	47.64
827.168	47.65
827.34	48.21
827.512	48.68
827.684	48.53
827.856	47.99
828.029	48.05
828.201	48.38
828.373	47.76
828.545	47.83
828.717	48.62
828.889	48.69
829.061	48.46
829.232	48.54
829.404	49.13
829.576	50.14
829.748	50.96
829.92	49.97
830.092	50.83
830.264	50.29
830.436	49.92
830.607	48.57
830.779	49.55
830.951	48.79
831.123	47.25
831.294	45.47
831.466	44.73
831.638	43.5
831.809	44.3
831.981	43.4
832.153	43.29
832.324	43.95
832.496	45.23
832.667	46.97
832.839	46.72
833.011	46.35
833.182	46.64
833.354	47.71
833.525	47.53
833.697	46.18
833.868	47.08
834.039	48.81
834.211	48.4
834.382	47.85
834.554	46.68
834.725	46.37
834.896	47.04
835.068	46.28
835.239	45.67
835.41	46.43
835.581	47.86
835.753	47.87
835.924	48.25
836.095	47.22
836.266	47.1
836.438	47.38
836.609	50.11
836.78	50.81
836.951	52.64
837.122	52.45
837.293	51.28
837.464	50.82
837.635	50.77
837.806	50.43
837.977	51.26
838.148	50.59
838.319	49.86
838.49	48.41
838.661	48.88
838.832	49.47
839.003	50.51
839.174	54.18
839.345	57.67
839.516	55.66
839.687	54.69
839.857	56.86
840.028	59.26
840.199	56.79
840.37	56.24
840.54	53.42
840.711	54.96
840.882	61.39
841.053	62.84
841.223	59.56
841.394	59.91
841.564	57.88
841.735	54.52
841.906	57.43
842.076	62.82
842.247	68.32
842.417	70.89
842.588	68.71
842.758	59.82
842.929	53.57
843.099	53.16
843.27	59.49
843.44	60.02
843.611	60.37
843.781	55.28
843.951	52.39
844.122	45.93
844.292	42.72
844.462	41.42
844.633	41.64
844.803	44.04
844.973	44.77
845.144	41.73
845.314	42.54
845.484	43.05
845.654	46.6
845.824	50.81
845.995	51.16
846.165	51.3
846.335	57.33
846.505	65.86
846.675	62.29
846.845	72.54
847.015	64.86
847.185	64.78
847.355	71.2
847.525	72.66
847.695	70.87
847.865	76.05
848.035	77.04
848.205	69.46
848.375	62.47
848.545	71.34
848.715	55.69
848.884	61.35
849.054	61.39
849.224	59.81
849.394	67.07
849.564	71.97
849.733	71.21
849.903	72.01
850.073	78.64
850.243	80.15
850.412	82.71
850.582	88.7
850.752	83.29
850.921	85.25
851.091	81.84
851.26	72.29
851.43	74.03
851.599	67.22
851.769	71.36
851.939	69.05
852.108	71.79
852.278	64.39
852.447	59.64
852.616	69.38
852.786	73.85
852.955	71.24
853.125	74.92
853.294	70.11
853.463	67.04
853.633	67
853.802	68.18
853.971	72.74
854.141	83.76
854.31	81.28
854.479	68.49
854.648	51.35
854.818	54.97
854.987	48.16
855.156	44.87
855.325	54.89
855.494	47.48
855.663	48.26
855.832	34.83
856.001	26.87
856.171	29.9
856.34	38.38
856.509	45.1
856.678	50.62
856.847	62.61
857.016	72.18
857.185	72.08
857.353	70.64
857.522	70.59
857.691	74.18
857.86	71.61
858.029	73.83
858.198	72.36
858.367	68.86
858.535	69.04
858.704	69.45
858.873	61.06
859.042	57.26
859.21	57.94
859.379	54.9
859.548	49.97
859.717	59.85
859.885	58.62
860.054	55.47
860.222	56.57
860.391	53.63
860.56	52.81
860.728	57.38
860.897	61.89
861.065	58.28
861.234	56.05
861.402	61.8
861.571	57.9
861.739	54.7
861.908	54.2
862.076	50.31
862.244	55.16
862.413	52.69
862.581	48.87
862.749	58.82
862.918	67.19
863.086	76.86
863.254	75.6
863.423	77.24
863.591	76.86
863.759	77.01
863.927	88.14
864.096	83.92
864.264	85.88
864.432	85.21
864.6	72.15
864.768	70.66
864.936	64.12
865.104	61.66
865.272	61.62
865.44	67.99
865.608	61.76
865.776	58.5
865.944	63.11
866.112	58.13
866.28	59.44
866.448	57.76
866.616	59.65
866.784	48.15
866.952	49.01
867.12	45.66
867.288	46.65
867.455	62.77
867.623	54.18
867.791	48.53
867.959	53.61
868.127	51.18
868.294	61.2
868.462	62.89
868.63	75.45
868.797	80.26
868.965	87.4
869.133	77.35
869.3	71.16
869.468	73.65
869.636	79.2
869.803	74.52
869.971	78.71
870.138	66.54
870.306	65.44
870.473	53.46
870.641	49.81
870.808	55.1
870.975	62.38
871.143	55.73
871.31	58.37
871.478	62.43
871.645	67.35
871.812	62.79
871.98	72.79
872.147	68.75
872.314	79.84
872.482	70.73
872.649	64.45
872.816	63.27
872.983	63.85
873.15	61.89
873.318	60.06
873.485	52.24
873.652	55.64
873.819	48.35
873.986	55.03
874.153	56.4
874.32	53.21
874.487	55.92
874.654	51.97
874.821	50.82
874.988	51.91
875.155	39.12
875.322	54.63
875.489	50.35
875.656	46.85
875.823	39.22
875.99	40.14
876.157	43.09
876.324	42.54
876.49	46.04
876.657	43.99
876.824	51.52
876.991	64.96
877.157	59.62
877.324	56.24
877.491	57.99
877.658	58.47
877.824	72.07
877.991	78.31
878.157	73.37
878.324	84.42
878.491	82.87
878.657	78.25
878.824	80.26
878.99	80.57
879.157	90.55
879.323	86.25
879.49	86.68
879.656	72.09
879.823	65.06
879.989	71.5
880.156	60.84
880.322	74.82
880.488	62.58
880.655	49.54
880.821	42.01
880.987	38.42
881.154	45.55
881.32	49.2
881.486	47.37
881.652	48.07
881.819	47.39
881.985	49.19
882.151	47.99
882.317	50.88
882.483	53.66
882.649	54.72
882.816	52.57
882.982	52.32
883.148	50
883.314	49.72
883.48	51.11
883.646	50.13
883.812	50.12
883.978	48.77
884.144	48.45
884.31	47.93
884.476	46.86
884.642	47.66
884.807	46.6
884.973	47.42
885.139	47.46
885.305	45.31
885.471	45.87
885.637	46.55
885.802	47.67
885.968	46.62
886.134	47.5
886.3	49.04
886.465	48.24
886.631	49.99
886.797	51.56
886.962	52.17
887.128	56.71
887.293	57.06
887.459	59.41
887.625	59.21
887.79	65.25
887.956	65.78
888.121	68.11
888.287	73.2
888.452	73.4
888.618	68.4
888.783	72.43
