Data from LC_220__Reflection_4.txt Node
Date: Thu Nov 19 13:39:08 EST 2015
User: robert
Spectrometer: USB4E03001
Autoset integration time: false
Trigger mode: 4
Integration Time (sec): 1.000000E-1
Scans to average: 15
Electric dark correction enabled: true
Nonlinearity correction enabled: false
Boxcar width: 5
Stray light correction enabled: false
XAxis mode: Wavelengths
Stop averaging: false
Number of Pixels in Spectrum: 3648
>>>>>Begin Spectral Data<<<<<
177.566	237.21
177.785	472.42
178.005	396
178.225	69.98
178.445	334.57
178.665	-9600
178.885	8.16
179.105	294.2
179.324	-205.3
179.544	-898.56
179.764	-394.34
179.984	-461.39
180.204	-401.26
180.423	-368.31
180.643	-1861.72
180.863	-1782.47
181.083	-531.8
181.302	-495.62
181.522	-470.58
181.742	-3312.58
181.961	6398.82
182.181	4980.58
182.401	618.78
182.621	698.24
182.84	1121.75
183.06	2299.83
183.279	2037.8
183.499	1052.9
183.719	913.15
183.938	470.55
184.158	957.24
184.377	1107.21
184.597	767.43
184.816	6096.64
185.036	26390.22
185.256	1729.35
185.475	996.56
185.695	1013.23
185.914	717.18
186.134	513.58
186.353	476.23
186.572	366.35
186.792	448.5
187.011	3770.39
187.231	737.71
187.45	1025.16
187.67	2418.54
187.889	40193.94
188.108	1019.51
188.328	-4469.37
188.547	-598.07
188.766	-544.26
188.986	-783.76
189.205	-939.5
189.424	1372.18
189.644	2504.07
189.863	1185.33
190.082	1356.43
190.302	5335.97
190.521	-475.25
190.74	-1782.28
190.959	-18104.93
191.178	23572.03
191.398	-8815.44
191.617	1983.42
191.836	7020.72
192.055	-1835.54
192.274	-712.19
192.494	-1252.9
192.713	-728.85
192.932	-469.31
193.151	-466.29
193.37	-725.6
193.589	-575.09
193.808	-465.63
194.027	-542.08
194.246	-1255.7
194.465	-1147.27
194.685	69765
194.904	1047.46
195.123	565.72
195.342	373.63
195.561	293.15
195.78	352.93
195.999	466.98
196.218	845.39
196.436	1349.69
196.655	804.54
196.874	565.54
197.093	512.4
197.312	1502.77
197.531	1802.43
197.75	3298.62
197.969	-1343.93
198.188	-1585.92
198.407	-10413.13
198.625	647.11
198.844	933.28
199.063	2206.47
199.282	2183.47
199.501	-1298.54
199.719	-1956.92
199.938	-2862.37
200.157	2787.44
200.376	1030.8
200.594	691.57
200.813	679.53
201.032	492.05
201.251	611.12
201.469	1039.28
201.688	754.44
201.907	592.73
202.125	631.58
202.344	452.15
202.563	372.43
202.781	492.57
203	393.35
203.218	381.7
203.437	1037.59
203.656	647.01
203.874	400.06
204.093	449.32
204.311	413.75
204.53	320.98
204.748	353.08
204.967	392.29
205.185	269.21
205.404	356.55
205.622	505.44
205.841	334.06
206.059	327.84
206.278	390.14
206.496	535.48
206.715	857.79
206.933	1301.16
207.151	-2933.64
207.37	-2186.19
207.588	-6566.67
207.806	4929.56
208.025	1849.72
208.243	-2730.16
208.461	-2249.18
208.68	-4619.45
208.898	6729.1
209.116	2734.58
209.335	5308.17
209.553	1402.37
209.771	3556.54
209.989	-3125.03
210.208	-2085.27
210.426	-1148.16
210.644	-1239.13
210.862	-583.55
211.081	-575.75
211.299	-248.98
211.517	-380.58
211.735	-507.9
211.953	-1419.12
212.171	1039.9
212.39	1423.84
212.608	1483.89
212.826	649.65
213.044	315.61
213.262	268.48
213.48	311.01
213.698	324.56
213.916	398.78
214.134	535.76
214.352	956.97
214.57	-2593.6
214.788	1368.54
215.006	8149.27
215.224	-2200.41
215.442	-752.72
215.66	-863.32
215.878	1873.24
216.096	477.55
216.314	473.72
216.532	293.61
216.75	269.96
216.968	243.5
217.185	234.63
217.403	274.64
217.621	308.12
217.839	370.67
218.057	321.87
218.275	395.95
218.492	702.88
218.71	371.79
218.928	353.58
219.146	343.53
219.363	509.33
219.581	584.74
219.799	1243.87
220.017	448.79
220.234	397.71
220.452	552.43
220.67	417.42
220.887	470.08
221.105	858.85
221.323	929.53
221.54	794.58
221.758	487.74
221.976	396.54
222.193	280.19
222.411	319.15
222.629	322.49
222.846	336.03
223.064	318.97
223.281	288.22
223.499	259.84
223.716	305.38
223.934	266.02
224.151	295.51
224.369	280.22
224.586	266.39
224.804	265.28
225.021	213.78
225.239	190.57
225.456	204.15
225.674	177.24
225.891	176.1
226.108	164.29
226.326	154.06
226.543	144.13
226.76	140.79
226.978	151.38
227.195	137.74
227.413	120.29
227.63	105.21
227.847	90.88
228.064	85.74
228.282	77.56
228.499	70.4
228.716	63.77
228.934	58.62
229.151	54.77
229.368	46.54
229.585	44.92
229.802	46.11
230.02	44.76
230.237	43.31
230.454	42.58
230.671	44.03
230.888	44.84
231.105	48.27
231.323	48.21
231.54	53.47
231.757	57.39
231.974	62.57
232.191	66.01
232.408	74.42
232.625	80.6
232.842	82.67
233.059	78.19
233.276	87.3
233.493	90.62
233.71	87.72
233.927	83.06
234.144	82.25
234.361	73.94
234.578	78.41
234.795	67.07
235.012	69.85
235.229	67.63
235.446	70.44
235.663	67.12
235.879	63.73
236.096	71.18
236.313	75.14
236.53	68.53
236.747	75.4
236.964	72.06
237.181	71.15
237.397	65.53
237.614	68.4
237.831	68.66
238.048	67.71
238.264	64.45
238.481	55.96
238.698	56.27
238.915	59.26
239.131	47.96
239.348	47.59
239.565	46.89
239.781	48.31
239.998	42.78
240.215	44.92
240.431	41.98
240.648	44.57
240.865	40.34
241.081	36.02
241.298	34.71
241.514	35.28
241.731	33.73
241.947	32.7
242.164	29.21
242.38	28.67
242.597	25.81
242.814	26.2
243.03	23.9
243.246	26.31
243.463	26.53
243.679	30.47
243.896	30.82
244.112	31.34
244.329	33.61
244.545	36.36
244.762	37.82
244.978	41.85
245.194	40.03
245.411	42.03
245.627	37.4
245.843	35.03
246.06	29.04
246.276	28.4
246.492	25.69
246.709	23.23
246.925	22.12
247.141	20.62
247.357	17.51
247.574	18.45
247.79	17.48
248.006	17.53
248.222	16.98
248.439	17.88
248.655	16.84
248.871	18.2
249.087	18.81
249.303	19.02
249.519	19.49
249.736	23.58
249.952	22.93
250.168	27.88
250.384	31.43
250.6	33.13
250.816	34.73
251.032	35.67
251.248	33.36
251.464	33.1
251.68	32.54
251.896	32.64
252.112	30.01
252.328	27.64
252.544	25.7
252.76	23.93
252.976	24.94
253.192	23.76
253.408	24.16
253.624	28.43
253.84	29
254.056	31.91
254.272	32.41
254.487	35.17
254.703	37.45
254.919	38.45
255.135	41.01
255.351	38.39
255.567	40.56
255.782	40.47
255.998	37.18
256.214	36.63
256.43	36.05
256.646	38.97
256.861	35.76
257.077	37.42
257.293	36.79
257.508	34.77
257.724	33.2
257.94	30.63
258.155	28.99
258.371	27.36
258.587	26.14
258.802	22.9
259.018	19.5
259.234	17.92
259.449	16.01
259.665	14.51
259.88	14.4
260.096	14.11
260.312	13.59
260.527	12.97
260.743	12.11
260.958	11.35
261.174	12.24
261.389	14.08
261.605	15.06
261.82	15.73
262.036	16.66
262.251	17.26
262.466	18.43
262.682	20.36
262.897	21.49
263.113	22.78
263.328	26.05
263.543	27.46
263.759	26.21
263.974	26.08
264.189	25.51
264.405	27.52
264.62	26.74
264.835	25.35
265.051	27.02
265.266	27.52
265.481	28.05
265.696	28.5
265.912	25.7
266.127	24.94
266.342	23.72
266.557	24.09
266.773	20.81
266.988	21.99
267.203	21.57
267.418	19.83
267.633	20.35
267.848	20.38
268.064	18.52
268.279	17.66
268.494	17.81
268.709	18.89
268.924	19.97
269.139	22.13
269.354	23.02
269.569	23.74
269.784	23.36
269.999	23.01
270.214	23.29
270.429	24.09
270.644	25.99
270.859	25.5
271.074	26.25
271.289	26.31
271.504	24.13
271.719	21.83
271.934	22.19
272.149	21.77
272.363	20.44
272.578	19.48
272.793	17.97
273.008	17.09
273.223	16.57
273.438	15.66
273.653	15.36
273.867	16.52
274.082	15.87
274.297	15.74
274.512	16.95
274.726	18.29
274.941	18.78
275.156	20.71
275.371	21.52
275.585	23.24
275.8	23.23
276.015	22.08
276.229	23.14
276.444	24.67
276.659	25.82
276.873	25.09
277.088	24.9
277.302	25.12
277.517	23.88
277.732	23.6
277.946	23.73
278.161	26.08
278.375	27.69
278.59	25.51
278.804	24.55
279.019	23.88
279.233	23.56
279.448	23.08
279.662	22.12
279.877	22.02
280.091	21.56
280.306	20.21
280.52	17.79
280.735	15.03
280.949	15.25
281.163	15.63
281.378	14.81
281.592	14.02
281.806	14.9
282.021	15.22
282.235	16.24
282.449	17.66
282.664	17.04
282.878	16.33
283.092	16.97
283.307	18.72
283.521	19
283.735	19.52
283.949	21.36
284.164	20.95
284.378	19.6
284.592	17.47
284.806	16.03
285.02	16.36
285.234	16.26
285.449	17.22
285.663	16.44
285.877	15.99
286.091	16.65
286.305	15.99
286.519	16.69
286.733	16.38
286.947	18.25
287.161	18.03
287.375	18.54
287.589	19.61
287.803	19.44
288.017	20.57
288.231	20.34
288.445	19.24
288.659	20.12
288.873	19.72
289.087	21.8
289.301	22.15
289.515	22.2
289.729	21.88
289.943	21.19
290.157	21.95
290.371	21.12
290.584	21.18
290.798	21.72
291.012	21.2
291.226	21.17
291.44	21.14
291.654	19.19
291.867	19.02
292.081	18.41
292.295	19.54
292.509	18
292.722	17.79
292.936	18.64
293.15	19.36
293.364	19.65
293.577	19.16
293.791	19.19
294.005	21.65
294.218	21.59
294.432	21.71
294.645	22.6
294.859	22.55
295.073	22.32
295.286	22.79
295.5	22.08
295.713	21.2
295.927	21.13
296.14	21.17
296.354	19.94
296.568	18.95
296.781	19.48
296.994	17.4
297.208	17.07
297.421	16.8
297.635	15.91
297.848	15.29
298.062	15.05
298.275	14.95
298.489	14.83
298.702	15.56
298.915	16.91
299.129	17.3
299.342	18.92
299.555	20.87
299.769	22.28
299.982	23.88
300.195	24.16
300.409	25.57
300.622	26.21
300.835	27.08
301.048	25.98
301.262	26.12
301.475	25.51
301.688	25.05
301.901	22.36
302.115	21.85
302.328	20.42
302.541	21.33
302.754	21.36
302.967	21.34
303.18	19.87
303.393	20.47
303.607	19.89
303.82	19.96
304.033	20.63
304.246	23.56
304.459	24.13
304.672	24.93
304.885	24.89
305.098	24.47
305.311	24.45
305.524	25.69
305.737	26.66
305.95	28.5
306.163	28.22
306.376	28.03
306.589	27.4
306.802	26.45
307.015	26.86
307.228	27.51
307.44	27.48
307.653	27.55
307.866	27.75
308.079	27.54
308.292	25.8
308.505	26.67
308.718	26.52
308.93	26.6
309.143	26.21
309.356	25.87
309.569	25.08
309.781	25.59
309.994	26.03
310.207	24.51
310.42	24.15
310.632	23.98
310.845	22.41
311.058	21.67
311.27	21.25
311.483	21.16
311.696	20.78
311.908	20.58
312.121	20.09
312.333	20.33
312.546	20.95
312.759	19.84
312.971	19.61
313.184	21.83
313.396	23.07
313.609	22.4
313.821	22.96
314.034	24.43
314.246	25.55
314.459	25.23
314.671	24.9
314.884	25.08
315.096	27.35
315.309	29.07
315.521	28.47
315.733	28.09
315.946	28.23
316.158	28.77
316.371	28.25
316.583	27.87
316.795	28.01
317.008	26.16
317.22	26.08
317.432	24.71
317.644	25.01
317.857	24.24
318.069	23.42
318.281	24.35
318.494	24.06
318.706	23.6
318.918	23.47
319.13	23.35
319.342	24.2
319.555	23.81
319.767	24.54
319.979	24.16
320.191	24.65
320.403	25.09
320.615	23.2
320.827	23.8
321.039	22.94
321.252	23.55
321.464	23.42
321.676	26.23
321.888	26.38
322.1	26.08
322.312	25.19
322.524	26.9
322.736	25.71
322.948	27.08
323.16	25.97
323.372	26.52
323.584	25.84
323.796	27.4
324.007	25.58
324.219	27.5
324.431	28.11
324.643	28.28
324.855	27.58
325.067	28.76
325.279	28.44
325.491	28.48
325.702	29.09
325.914	29.2
326.126	28.62
326.338	28.52
326.55	27.41
326.761	28.43
326.973	28.71
327.185	28.91
327.396	29.9
327.608	31.22
327.82	32.86
328.032	33.56
328.243	34.79
328.455	35.74
328.666	37.21
328.878	38.78
329.09	38.44
329.301	39.15
329.513	39.08
329.725	39.56
329.936	39.71
330.148	38.97
330.359	39.48
330.571	40.14
330.782	40.46
330.994	41.42
331.205	41.45
331.417	42.63
331.628	42.92
331.84	44.65
332.051	44.4
332.262	47
332.474	47.32
332.685	47.54
332.897	47.26
333.108	47.33
333.319	47.3
333.531	47.89
333.742	46.88
333.953	46.25
334.165	45.83
334.376	47.28
334.587	44.73
334.799	45.79
335.01	45.85
335.221	46.37
335.432	45.86
335.644	44.83
335.855	44.51
336.066	46.04
336.277	47.37
336.488	46.21
336.7	45.06
336.911	45.76
337.122	46.08
337.333	46.4
337.544	47.44
337.755	48.3
337.966	49.47
338.177	48.84
338.388	48
338.599	47.77
338.811	49.47
339.022	50.23
339.233	50.46
339.444	50.73
339.655	49.62
339.866	48.56
340.076	48.91
340.287	48.76
340.498	49.5
340.709	49.85
340.92	49.22
341.131	48.6
341.342	49.07
341.553	49.41
341.764	48.72
341.975	50.03
342.185	50.46
342.396	50.16
342.607	50.73
342.818	50.61
343.029	50.65
343.239	52.03
343.45	50.82
343.661	49.72
343.872	49.46
344.082	49.48
344.293	48.92
344.504	48.95
344.714	49
344.925	48.42
345.136	48.34
345.346	48.85
345.557	48.39
345.768	49.24
345.978	49.53
346.189	50.06
346.399	50.1
346.61	50.58
346.821	49.74
347.031	50.84
347.242	50.63
347.452	51.38
347.663	51.41
347.873	51.64
348.084	51.94
348.294	52.69
348.504	52.44
348.715	52.54
348.925	51.39
349.136	51.31
349.346	50.18
349.557	50.58
349.767	50.21
349.977	49.51
350.188	49.47
350.398	49.69
350.608	48.77
350.819	48.35
351.029	48.21
351.239	48.94
351.449	49.16
351.66	49.12
351.87	48.59
352.08	47.68
352.29	47.68
352.501	46.73
352.711	46.87
352.921	46.71
353.131	46.49
353.341	46.55
353.552	46.45
353.762	45.78
353.972	46.17
354.182	46.69
354.392	47.38
354.602	46.85
354.812	47.32
355.022	46.95
355.232	46.83
355.442	47.57
355.652	47.41
355.862	46.73
356.072	47.71
356.282	46.59
356.492	46.32
356.702	45.31
356.912	45.9
357.122	46.18
357.332	45.88
357.542	45.74
357.752	45.78
357.962	45.63
358.171	46.04
358.381	46.11
358.591	45.73
358.801	45.52
359.011	46.16
359.221	46.34
359.43	46.03
359.64	45.87
359.85	46.6
360.06	45.83
360.269	45.77
360.479	45.77
360.689	45.01
360.899	45.6
361.108	45.74
361.318	45.61
361.528	44.89
361.737	44.72
361.947	44.61
362.156	44.05
362.366	43.93
362.576	43.99
362.785	44.17
362.995	44.36
363.204	44.63
363.414	44.49
363.623	43.88
363.833	44.58
364.042	44.58
364.252	44.53
364.461	44.59
364.671	44.75
364.88	44.74
365.09	44.78
365.299	44.88
365.509	44.39
365.718	44.18
365.927	44.27
366.137	43.53
366.346	42.48
366.555	42.19
366.765	42.11
366.974	42.44
367.183	41.89
367.393	41.18
367.602	40.92
367.811	40.72
368.021	40.75
368.23	41.07
368.439	40.76
368.648	41.51
368.857	41.98
369.067	41.8
369.276	40.74
369.485	41.26
369.694	41.35
369.903	40.87
370.112	41.02
370.321	40.36
370.531	40.01
370.74	40.43
370.949	39.99
371.158	39.51
371.367	38.96
371.576	39.23
371.785	38.64
371.994	38.49
372.203	38.44
372.412	38.01
372.621	38.21
372.83	38.37
373.039	37.92
373.248	38.01
373.457	38.22
373.666	38.54
373.874	38.45
374.083	38.1
374.292	37.64
374.501	37.16
374.71	36.93
374.919	36.91
375.128	36.72
375.336	36.74
375.545	37.28
375.754	37.22
375.963	37.15
376.171	36.82
376.38	37.28
376.589	37.77
376.798	38.12
377.006	38.72
377.215	38.34
377.424	38.02
377.632	37.88
377.841	37.14
378.05	36.95
378.258	37.2
378.467	37.18
378.675	36.75
378.884	36.41
379.093	36.55
379.301	36.16
379.51	36.24
379.718	36.11
379.927	36.39
380.135	35.94
380.344	35.65
380.552	35.02
380.761	34.98
380.969	34.85
381.177	34.66
381.386	34.63
381.594	34.13
381.803	33.54
382.011	33.92
382.219	33.66
382.428	33.75
382.636	33.82
382.845	33.8
383.053	34.01
383.261	33.85
383.469	33.63
383.678	33.24
383.886	33.12
384.094	33.57
384.302	32.91
384.511	32.84
384.719	32.72
384.927	32.66
385.135	32.47
385.343	32.14
385.552	32.07
385.76	32.11
385.968	32.16
386.176	31.98
386.384	31.65
386.592	31.75
386.8	31.29
387.008	31.36
387.216	30.81
387.424	30.93
387.633	30.77
387.841	30.44
388.049	30.52
388.257	29.61
388.465	29.4
388.672	29.45
388.88	29.79
389.088	29.7
389.296	29.73
389.504	29.78
389.712	29.93
389.92	29.53
390.128	29.75
390.336	29.36
390.544	30.01
390.751	30.33
390.959	30.01
391.167	29.35
391.375	29.51
391.583	29.24
391.79	29.3
391.998	29.13
392.206	29.57
392.414	29.22
392.621	28.59
392.829	28.55
393.037	28.36
393.244	28.57
393.452	28.59
393.66	28.41
393.867	28.3
394.075	28.04
394.283	27.79
394.49	27.36
394.698	27.39
394.905	27.74
395.113	27.67
395.32	27.48
395.528	27.24
395.735	27.1
395.943	26.76
396.15	26.65
396.358	26.55
396.565	26.55
396.773	26.31
396.98	26.53
397.188	26.56
397.395	26.25
397.602	26.37
397.81	26.08
398.017	26.4
398.225	26.31
398.432	26.59
398.639	26.7
398.847	26.75
399.054	26.85
399.261	26.49
399.468	26.15
399.676	26.41
399.883	26.04
400.09	26.4
400.297	26.56
400.505	26.69
400.712	26.61
400.919	26.55
401.126	26.25
401.333	26.37
401.54	26.47
401.748	26.92
401.955	26.53
402.162	26.47
402.369	25.88
402.576	25.29
402.783	24.9
402.99	24.73
403.197	24.64
403.404	24.63
403.611	24.53
403.818	24.76
404.025	24.4
404.232	24.35
404.439	24.54
404.646	24.55
404.853	24.52
405.06	24.89
405.267	24.84
405.474	24.86
405.681	24.83
405.887	24.79
406.094	24.77
406.301	25.1
406.508	25.31
406.715	25.31
406.922	25.7
407.128	25.48
407.335	25.36
407.542	25.51
407.749	25.43
407.955	25.55
408.162	25.39
408.369	25.26
408.575	25.19
408.782	24.93
408.989	24.61
409.195	23.93
409.402	24.5
409.609	24.47
409.815	24.16
410.022	24.1
410.228	24
410.435	24.25
410.642	23.8
410.848	23.72
411.055	23.74
411.261	24.02
411.468	24.41
411.674	23.89
411.881	23.83
412.087	23.68
412.294	23.72
412.5	23.62
412.706	23.33
412.913	23.46
413.119	23.3
413.326	23.33
413.532	23.26
413.738	23.23
413.945	23.31
414.151	23.24
414.357	23.46
414.564	23.55
414.77	23.25
414.976	23.36
415.182	23.72
415.389	23.71
415.595	23.49
415.801	23.43
416.007	23.55
416.214	23.5
416.42	23.6
416.626	23.43
416.832	23.24
417.038	23.21
417.244	23.15
417.45	22.82
417.657	22.71
417.863	22.77
418.069	22.62
418.275	22.43
418.481	22.15
418.687	22.18
418.893	21.99
419.099	21.92
419.305	21.92
419.511	21.75
419.717	21.56
419.923	21.47
420.129	21.21
420.335	21.16
420.541	21.09
420.746	21.21
420.952	21
421.158	21.12
421.364	21.03
421.57	20.99
421.776	20.98
421.982	21.11
422.187	21.08
422.393	21.04
422.599	21
422.805	20.96
423.01	20.92
423.216	20.96
423.422	20.72
423.628	20.82
423.833	20.73
424.039	20.77
424.245	20.71
424.45	20.69
424.656	20.76
424.862	20.69
425.067	20.75
425.273	20.67
425.478	20.56
425.684	20.63
425.889	20.75
426.095	20.81
426.301	20.78
426.506	20.78
426.712	20.78
426.917	20.96
427.123	20.84
427.328	20.71
427.533	20.76
427.739	20.8
427.944	20.92
428.15	20.77
428.355	20.64
428.561	20.7
428.766	20.45
428.971	20.63
429.177	20.48
429.382	20.73
429.587	20.89
429.793	21.3
429.998	21.34
430.203	21.33
430.408	21.06
430.614	21.2
430.819	20.93
431.024	21.1
431.229	20.89
431.434	20.96
431.64	21.08
431.845	21.16
432.05	20.92
432.255	20.85
432.46	20.7
432.665	20.69
432.87	20.78
433.076	21.11
433.281	20.97
433.486	20.92
433.691	21.01
433.896	20.71
434.101	20.58
434.306	20.43
434.511	20.33
434.716	20.35
434.921	20.35
435.126	20.27
435.331	19.9
435.535	19.92
435.74	19.97
435.945	19.72
436.15	20.1
436.355	20.13
436.56	20.17
436.765	20.42
436.97	20.4
437.174	20.55
437.379	20.46
437.584	20.75
437.789	20.46
437.993	20.5
438.198	20.58
438.403	20.32
438.608	20.17
438.812	20.09
439.017	19.94
439.222	20.03
439.426	19.91
439.631	19.88
439.836	19.84
440.04	20.12
440.245	20.08
440.45	20.01
440.654	20.06
440.859	20.14
441.063	20.05
441.268	19.99
441.472	20.04
441.677	20.21
441.881	20.37
442.086	20.29
442.29	20.4
442.495	20.4
442.699	20.45
442.904	20.45
443.108	20.4
443.312	20.5
443.517	20.69
443.721	20.65
443.925	20.41
444.13	20.32
444.334	20.24
444.538	20.07
444.743	20.26
444.947	20.16
445.151	20.11
445.356	20.2
445.56	20.31
445.764	20.09
445.968	20.02
446.173	20.02
446.377	19.84
446.581	19.91
446.785	19.89
446.989	19.76
447.193	19.82
447.398	19.92
447.602	19.8
447.806	19.76
448.01	19.84
448.214	19.91
448.418	19.95
448.622	20.06
448.826	20.04
449.03	20.03
449.234	19.9
449.438	19.73
449.642	19.62
449.846	19.72
450.05	19.72
450.254	19.76
450.458	19.69
450.662	19.65
450.866	19.52
451.069	19.52
451.273	19.44
451.477	19.59
451.681	19.75
451.885	19.82
452.089	19.82
452.292	19.62
452.496	19.49
452.7	19.48
452.904	19.41
453.107	19.58
453.311	19.6
453.515	19.87
453.719	19.73
453.922	19.63
454.126	19.34
454.33	19.22
454.533	19.28
454.737	19.14
454.94	19.21
455.144	19.34
455.348	19.36
455.551	19.33
455.755	19.15
455.958	19.6
456.162	19.69
456.365	19.97
456.569	19.85
456.772	19.84
456.976	20.05
457.179	20.04
457.383	19.92
457.586	19.68
457.79	19.58
457.993	19.76
458.196	19.51
458.4	19.53
458.603	19.46
458.807	19.47
459.01	19.49
459.213	19.37
459.417	19.35
459.62	19.4
459.823	19.45
460.026	19.48
460.23	19.29
460.433	19.26
460.636	19.09
460.839	19.04
461.042	18.96
461.246	18.8
461.449	18.82
461.652	18.67
461.855	18.51
462.058	18.58
462.261	18.39
462.464	18.4
462.668	18.31
462.871	18.61
463.074	18.66
463.277	18.72
463.48	19.01
463.683	19.17
463.886	19.32
464.089	19.63
464.292	19.55
464.495	19.54
464.698	19.52
464.901	19.69
465.104	19.77
465.306	19.93
465.509	19.97
465.712	20.05
465.915	19.99
466.118	20
466.321	19.93
466.524	19.93
466.726	20.13
466.929	20.2
467.132	20
467.335	19.79
467.538	19.69
467.74	19.79
467.943	19.64
468.146	19.67
468.348	19.59
468.551	19.56
468.754	19.63
468.956	19.61
469.159	19.73
469.362	19.98
469.564	19.96
469.767	20.08
469.969	20.17
470.172	20.19
470.375	20.23
470.577	20.28
470.78	20.24
470.982	20.3
471.185	20.31
471.387	20.04
471.59	19.87
471.792	19.92
471.995	19.89
472.197	19.64
472.399	19.61
472.602	19.68
472.804	19.91
473.007	19.9
473.209	19.77
473.411	19.76
473.614	19.91
473.816	19.87
474.018	19.91
474.22	19.91
474.423	20.11
474.625	20.14
474.827	20
475.03	19.75
475.232	19.89
475.434	20.05
475.636	19.93
475.838	20.01
476.04	19.94
476.243	19.93
476.445	19.74
476.647	19.78
476.849	19.78
477.051	19.8
477.253	19.91
477.455	19.84
477.657	19.79
477.859	19.94
478.061	19.87
478.263	19.72
478.465	19.63
478.667	19.66
478.869	19.52
479.071	19.49
479.273	19.54
479.475	19.49
479.677	19.46
479.879	19.32
480.081	19.26
480.283	19.36
480.485	19.43
480.686	19.46
480.888	19.53
481.09	19.5
481.292	19.47
481.494	19.38
481.695	19.37
481.897	19.29
482.099	19.29
482.301	19.25
482.502	18.99
482.704	19.03
482.906	18.94
483.107	18.81
483.309	18.69
483.511	18.6
483.712	18.53
483.914	18.4
484.115	18.34
484.317	18.3
484.519	18.22
484.72	18.22
484.922	18.17
485.123	18.15
485.325	18.16
485.526	18.19
485.728	18.24
485.929	18.29
486.131	18.36
486.332	18.44
486.534	18.42
486.735	18.45
486.936	18.55
487.138	18.57
487.339	18.6
487.541	18.63
487.742	18.63
487.943	18.59
488.144	18.51
488.346	18.61
488.547	18.57
488.748	18.59
488.95	18.6
489.151	18.55
489.352	18.57
489.553	18.61
489.755	18.64
489.956	18.75
490.157	18.84
490.358	18.97
490.559	18.84
490.76	18.83
490.961	18.87
491.163	18.96
491.364	19.05
491.565	18.99
491.766	18.92
491.967	18.97
492.168	18.87
492.369	18.78
492.57	18.73
492.771	18.85
492.972	18.91
493.173	18.97
493.374	19.03
493.575	19.06
493.776	19.3
493.976	19.5
494.177	19.7
494.378	19.86
494.579	20.05
494.78	20.03
494.981	19.87
495.182	19.88
495.382	19.98
495.583	19.93
495.784	20.05
495.985	20.01
496.185	20.02
496.386	19.67
496.587	19.9
496.788	19.98
496.988	20.23
497.189	20.33
497.39	20.53
497.59	20.53
497.791	20.72
497.992	20.48
498.192	20.51
498.393	20.54
498.593	20.58
498.794	20.45
498.994	20.43
499.195	20.46
499.395	20.59
499.596	20.69
499.796	20.64
499.997	20.46
500.197	20.71
500.398	20.57
500.598	20.77
500.799	21.19
500.999	21.28
501.199	21.52
501.4	21.51
501.6	21.63
501.801	21.57
502.001	21.77
502.201	21.98
502.402	22.11
502.602	22.37
502.802	22.14
503.002	22.05
503.203	22.09
503.403	21.96
503.603	22.14
503.803	22.18
504.003	22.41
504.204	22.45
504.404	22.55
504.604	22.59
504.804	22.7
505.004	22.88
505.204	22.85
505.404	23.1
505.604	23.25
505.804	23.34
506.005	23.39
506.205	23.28
506.405	23.48
506.605	23.54
506.805	23.7
507.005	23.88
507.204	24.06
507.404	24.14
507.604	24.15
507.804	24.33
508.004	24.37
508.204	24.4
508.404	24.46
508.604	24.43
508.804	24.59
509.003	24.66
509.203	24.65
509.403	24.7
509.603	24.71
509.803	24.71
510.002	24.68
510.202	24.75
510.402	24.92
510.602	25
510.801	25.18
511.001	25.12
511.201	25.11
511.4	25.02
511.6	25.02
511.8	25.1
511.999	25.44
512.199	25.54
512.398	25.59
512.598	25.68
512.797	25.92
512.997	25.9
513.197	26.02
513.396	26.2
513.596	26.45
513.795	26.69
513.994	26.97
514.194	26.97
514.393	27.16
514.593	27.54
514.792	27.64
514.992	27.85
515.191	28.14
515.39	28.4
515.59	28.57
515.789	28.78
515.988	28.99
516.188	29.06
516.387	29.18
516.586	29.26
516.786	29.16
516.985	29.19
517.184	29.24
517.383	29.27
517.582	29.34
517.782	29.24
517.981	29.19
518.18	28.99
518.379	29.09
518.578	29.06
518.777	29.08
518.976	29.18
519.176	29.28
519.375	29.2
519.574	29.21
519.773	29.19
519.972	29.41
520.171	29.57
520.37	29.86
520.569	30.03
520.768	30.23
520.967	30.37
521.166	30.57
521.365	30.62
521.564	30.88
521.762	31.07
521.961	31.28
522.16	31.24
522.359	31.31
522.558	31.36
522.757	31.42
522.956	31.38
523.154	31.6
523.353	31.62
523.552	31.86
523.751	31.9
523.949	31.95
524.148	32.02
524.347	32.2
524.546	32.25
524.744	32.41
524.943	32.39
525.142	32.5
525.34	32.52
525.539	32.48
525.737	32.46
525.936	32.51
526.135	32.53
526.333	32.61
526.532	32.7
526.73	32.75
526.929	32.77
527.127	32.89
527.326	32.89
527.524	32.88
527.723	33
527.921	33.13
528.12	33.08
528.318	33.07
528.516	33.02
528.715	32.95
528.913	32.99
529.112	32.93
529.31	32.85
529.508	32.83
529.707	32.9
529.905	32.91
530.103	32.88
530.301	32.97
530.5	33.06
530.698	33.21
530.896	33.34
531.094	33.42
531.293	33.64
531.491	33.85
531.689	34.08
531.887	34.19
532.085	34.36
532.283	34.47
532.481	34.61
532.68	34.71
532.878	34.65
533.076	34.75
533.274	34.77
533.472	34.79
533.67	34.81
533.868	34.9
534.066	34.89
534.264	34.92
534.462	34.99
534.66	35.06
534.858	35.07
535.056	35.2
535.253	35.21
535.451	35.44
535.649	35.54
535.847	35.66
536.045	35.7
536.243	36.04
536.441	36.08
536.638	36.25
536.836	36.21
537.034	36.27
537.232	36.32
537.43	36.45
537.627	36.4
537.825	36.53
538.023	36.47
538.22	36.55
538.418	36.48
538.616	36.56
538.813	36.46
539.011	36.63
539.209	36.81
539.406	36.98
539.604	37.1
539.801	37.2
539.999	37.04
540.196	37.24
540.394	37.23
540.591	37.09
540.789	37.1
540.986	37.21
541.184	37.22
541.381	37.16
541.579	37.04
541.776	37.03
541.974	36.98
542.171	37.13
542.368	37.19
542.566	37.25
542.763	37.33
542.96	37.39
543.158	37.38
543.355	37.41
543.552	37.51
543.75	37.79
543.947	37.9
544.144	38.05
544.341	38.17
544.539	38.24
544.736	38.37
544.933	38.51
545.13	38.62
545.327	38.74
545.524	38.91
545.722	39.07
545.919	39.02
546.116	39.04
546.313	39
546.51	39.04
546.707	39.04
546.904	39.02
547.101	39.2
547.298	39.31
547.495	39.34
547.692	39.49
547.889	39.45
548.086	39.49
548.283	39.72
548.48	39.96
548.677	40.14
548.874	40.39
549.07	40.55
549.267	40.59
549.464	40.57
549.661	40.67
549.858	40.68
550.055	40.91
550.251	41.03
550.448	40.83
550.645	41.02
550.842	41.14
551.038	41.16
551.235	41.52
551.432	41.66
551.628	41.91
551.825	42.21
552.022	42.32
552.218	42.38
552.415	42.52
552.612	42.76
552.808	42.67
553.005	42.49
553.201	42.58
553.398	42.43
553.594	42.49
553.791	42.46
553.987	42.42
554.184	42.24
554.38	42.34
554.577	42.44
554.773	42.64
554.97	42.78
555.166	43.01
555.362	43.03
555.559	43.02
555.755	43.05
555.952	43.07
556.148	43.15
556.344	43.42
556.541	43.42
556.737	43.37
556.933	43.43
557.129	43.58
557.326	43.68
557.522	43.62
557.718	43.84
557.914	43.99
558.11	44.17
558.307	44.12
558.503	44.13
558.699	44.35
558.895	44.42
559.091	44.21
559.287	44.38
559.483	44.32
559.679	44.55
559.876	44.69
560.072	44.46
560.268	44.62
560.464	44.68
560.66	44.76
560.856	44.64
561.052	44.81
561.247	44.9
561.443	44.92
561.639	45.04
561.835	44.98
562.031	45.02
562.227	45.06
562.423	44.65
562.619	44.86
562.815	44.92
563.01	45.29
563.206	45.35
563.402	45.47
563.598	45.5
563.793	45.46
563.989	45.56
564.185	45.7
564.381	45.9
564.576	46.33
564.772	46.46
564.968	46.4
565.163	46.01
565.359	45.88
565.555	45.97
565.75	45.96
565.946	46.16
566.141	46.1
566.337	46
566.532	46.05
566.728	45.88
566.923	45.73
567.119	45.83
567.314	45.97
567.51	46.33
567.705	46.32
567.901	46.45
568.096	46.46
568.292	46.65
568.487	46.56
568.682	46.71
568.878	47.02
569.073	47.16
569.268	47.15
569.464	47.37
569.659	47.38
569.854	47.35
570.05	47.24
570.245	47.35
570.44	47.41
570.635	47.54
570.831	47.57
571.026	47.54
571.221	47.56
571.416	47.6
571.611	47.41
571.806	47.27
572.002	47.34
572.197	47.27
572.392	47.1
572.587	46.96
572.782	47
572.977	47.07
573.172	47.21
573.367	47.39
573.562	47.56
573.757	47.73
573.952	47.77
574.147	48.11
574.342	48.26
574.537	48.31
574.732	48.35
574.927	48.48
575.121	48.47
575.316	48.34
575.511	48.32
575.706	48.34
575.901	48.41
576.096	48.67
576.29	48.45
576.485	48.49
576.68	48.81
576.875	48.96
577.069	49.05
577.264	49.23
577.459	49.66
577.654	49.39
577.848	49.37
578.043	49.45
578.238	49.6
578.432	49.65
578.627	49.79
578.821	49.89
579.016	49.95
579.21	50.01
579.405	49.86
579.6	49.54
579.794	49.79
579.989	50.06
580.183	50.28
580.378	50.07
580.572	50.29
580.766	50.48
580.961	50.4
581.155	50.33
581.35	50.61
581.544	50.77
581.738	50.96
581.933	51.01
582.127	51.04
582.321	50.83
582.516	51.07
582.71	50.8
582.904	50.71
583.099	50.85
583.293	51.28
583.487	51.49
583.681	51.69
583.875	51.48
584.07	51.74
584.264	51.85
584.458	51.99
584.652	51.8
584.846	52.08
585.04	52.08
585.234	52.03
585.428	51.67
585.623	51.15
585.817	50.84
586.011	51.05
586.205	51.09
586.399	50.97
586.593	51
586.787	51.25
586.981	51.44
587.174	51.67
587.368	51.97
587.562	52.27
587.756	52.43
587.95	52.63
588.144	52.55
588.338	52.58
588.532	52.51
588.725	52.53
588.919	52.57
589.113	52.22
589.307	51.87
589.501	51.67
589.694	51.77
589.888	52
590.082	51.96
590.275	51.8
590.469	51.95
590.663	52.18
590.856	52.13
591.05	52.09
591.244	52.48
591.437	52.93
591.631	52.81
591.824	52.68
592.018	52.68
592.212	52.89
592.405	53.24
592.599	53.08
592.792	52.87
592.986	52.86
593.179	52.53
593.372	52.33
593.566	52.21
593.759	52.55
593.953	52.44
594.146	52.36
594.339	52.24
594.533	52.47
594.726	52.62
594.92	52.7
595.113	52.68
595.306	53.06
595.499	53.12
595.693	52.98
595.886	52.92
596.079	53.08
596.272	52.9
596.466	52.9
596.659	52.73
596.852	52.53
597.045	52.66
597.238	52.82
597.431	52.62
597.624	52.48
597.818	52.73
598.011	52.63
598.204	52.68
598.397	52.76
598.59	52.76
598.783	52.81
598.976	52.73
599.169	52.47
599.362	52.42
599.555	52.61
599.748	53.02
599.941	52.88
600.134	52.92
600.326	53.19
600.519	53.65
600.712	53.93
600.905	53.8
601.098	54.3
601.291	54.81
601.483	54.82
601.676	54.86
601.869	54.72
602.062	54.69
602.255	54.57
602.447	53.89
602.64	53.65
602.833	53.34
603.025	53.37
603.218	53.17
603.411	52.86
603.603	52.81
603.796	52.88
603.989	52.5
604.181	52.52
604.374	52.62
604.566	52.81
604.759	52.89
604.951	52.94
605.144	52.91
605.336	53.12
605.529	53.27
605.721	53.29
605.914	53.14
606.106	53.36
606.299	53.65
606.491	53.33
606.683	53.28
606.876	53.15
607.068	53.17
607.26	53.16
607.453	53.07
607.645	53.21
607.837	53.23
608.03	53.25
608.222	53.26
608.414	53.04
608.606	53.37
608.799	53.81
608.991	53.69
609.183	53.56
609.375	53.66
609.567	53.6
609.759	53.42
609.952	53.4
610.144	53.56
610.336	53.72
610.528	53.67
610.72	53.8
610.912	53.69
611.104	54.02
611.296	54.29
611.488	54.65
611.68	54.7
611.872	54.79
612.064	55.23
612.256	55.22
612.448	55.46
612.64	55.65
612.832	55.99
613.023	56.18
613.215	55.94
613.407	55.75
613.599	55.61
613.791	55.83
613.983	55.59
614.174	55.2
614.366	55.43
614.558	55.07
614.75	55.1
614.941	54.73
615.133	54.67
615.325	54.71
615.516	55.05
615.708	54.95
615.9	54.65
616.091	55.07
616.283	55.12
616.475	54.97
616.666	55.56
616.858	55.55
617.049	55.6
617.241	55.3
617.432	55
617.624	55.04
617.815	55.1
618.007	55.27
618.198	55.07
618.39	55.28
618.581	55.11
618.773	54.69
618.964	54.66
619.155	54.75
619.347	54.82
619.538	55.27
619.729	55.18
619.921	55.25
620.112	55.3
620.303	55.38
620.494	55.35
620.686	55.53
620.877	55.53
621.068	55.56
621.259	55.64
621.451	55.95
621.642	56.1
621.833	55.92
622.024	55.82
622.215	55.82
622.406	56.02
622.597	55.99
622.788	56.2
622.98	56.28
623.171	56.03
623.362	56.16
623.553	56.46
623.744	56.15
623.935	56.34
624.126	56.36
624.317	56.54
624.508	56.61
624.698	56.49
624.889	56.2
625.08	56.37
625.271	56.69
625.462	56.29
625.653	55.94
625.844	55.73
626.034	55.65
626.225	55.47
626.416	55.2
626.607	54.84
626.798	55.08
626.988	55.06
627.179	55.06
627.37	54.89
627.56	55.1
627.751	54.82
627.942	54.93
628.132	55.04
628.323	55.22
628.514	55.47
628.704	55.69
628.895	55.45
629.085	55.49
629.276	55.57
629.466	55.72
629.657	55.47
629.847	55.81
630.038	55.88
630.228	56.09
630.419	56.26
630.609	56.14
630.8	56.4
630.99	56.63
631.181	56.9
631.371	56.74
631.561	56.88
631.752	56.99
631.942	57.17
632.132	57.89
632.323	57.78
632.513	57.87
632.703	57.63
632.893	57.72
633.084	57.75
633.274	57.63
633.464	57.33
633.654	57.31
633.844	57.5
634.034	57.42
634.225	56.56
634.415	56.51
634.605	56.35
634.795	56.41
634.985	56.37
635.175	56.41
635.365	56.05
635.555	56.49
635.745	56.39
635.935	56.59
636.125	56.41
636.315	56.96
636.505	57.09
636.695	57
636.885	57.25
637.075	56.96
637.265	56.86
637.455	57.77
637.644	57.69
637.834	57.97
638.024	57.65
638.214	57.97
638.404	57.69
638.593	57.8
638.783	58.01
638.973	58.43
639.163	58.43
639.352	58.31
639.542	58.01
639.732	58.19
639.921	57.93
640.111	58.34
640.301	57.98
640.49	58.26
640.68	57.96
640.87	57.71
641.059	57.15
641.249	57.86
641.438	58.2
641.628	57.94
641.817	57.99
642.007	58.01
642.196	58.06
642.386	58.18
642.575	58.7
642.764	58.69
642.954	58.81
643.143	58.99
643.333	58.72
643.522	58.54
643.711	58.62
643.901	58.19
644.09	58.46
644.279	58.44
644.469	58.43
644.658	57.73
644.847	58.07
645.036	57.8
645.226	58.1
645.415	58.17
645.604	57.95
645.793	58.03
645.982	57.97
646.171	57.36
646.361	57.06
646.55	57.15
646.739	57.49
646.928	57.24
647.117	57.58
647.306	57.33
647.495	56.75
647.684	57.09
647.873	57.04
648.062	57.72
648.251	58.14
648.44	58.05
648.629	57.63
648.818	57.71
649.007	57.86
649.196	57.94
649.384	57.77
649.573	58.08
649.762	57.95
649.951	58.02
650.14	57.91
650.328	57.93
650.517	57.6
650.706	58.39
650.895	58.12
651.083	58.57
651.272	58.75
651.461	58.88
651.65	58.95
651.838	59.11
652.027	58.83
652.216	58.49
652.404	58.55
652.593	59.29
652.781	59
652.97	59.44
653.158	58.89
653.347	58.97
653.535	59.22
653.724	58.91
653.912	59.47
654.101	59.64
654.289	59.94
654.478	60.14
654.666	59.9
654.855	59.56
655.043	59.05
655.231	58.65
655.42	58.92
655.608	58.55
655.796	58.82
655.985	58.38
656.173	58.5
656.361	58.57
656.55	58.05
656.738	58.04
656.926	58.51
657.114	58.89
657.302	59.3
657.491	58.49
657.679	58.24
657.867	58.19
658.055	57.82
658.243	57.62
658.431	57.4
658.619	57.74
658.807	57.77
658.996	57.41
659.184	57.4
659.372	57.32
659.56	57.35
659.748	57.55
659.936	57.87
660.124	57.79
660.311	58.1
660.499	58.41
660.687	58.03
660.875	58.18
661.063	58.11
661.251	58.14
661.439	58.42
661.627	59
661.814	58.85
662.002	58.06
662.19	58.63
662.378	58.3
662.565	58.08
662.753	58.49
662.941	58.17
663.129	58.25
663.316	58.12
663.504	58.12
663.692	58.02
663.879	58.59
664.067	58.96
664.254	58.54
664.442	58.95
664.63	59.07
664.817	59.02
665.005	59.07
665.192	59.03
665.38	59.51
665.567	59.45
665.755	59.09
665.942	58.59
666.13	58.61
666.317	59.07
666.504	58.74
666.692	58.52
666.879	58.6
667.067	58.69
667.254	59.03
667.441	58.59
667.629	58.7
667.816	59.02
668.003	59.64
668.19	59.74
668.378	59.29
668.565	59.26
668.752	59.38
668.939	59.2
669.127	59.23
669.314	58.98
669.501	58.8
669.688	58.91
669.875	58.63
670.062	58.55
670.249	58.92
670.436	58.85
670.623	58.96
670.81	58.86
670.997	58.91
671.184	58.78
671.371	59.16
671.558	59.36
671.745	58.95
671.932	59.52
672.119	59.65
672.306	59.87
672.493	60.05
672.68	60.34
672.867	60.42
673.054	60.53
673.24	60.98
673.427	61.15
673.614	61.04
673.801	61.04
673.988	60.57
674.174	60.62
674.361	60.54
674.548	60.22
674.734	59.74
674.921	59.97
675.108	59.83
675.294	59.6
675.481	59.73
675.668	60.25
675.854	60.57
676.041	60.01
676.227	59.47
676.414	59.52
676.601	60.07
676.787	60.44
676.974	60.62
677.16	61.03
677.347	61.2
677.533	61.08
677.719	60.4
677.906	60.3
678.092	61.03
678.279	61.2
678.465	60.44
678.651	60.3
678.838	60.54
679.024	59.84
679.21	59.27
679.397	58.56
679.583	58.23
679.769	58.4
679.955	58.01
680.142	57.82
680.328	57.69
680.514	58.04
680.7	58.12
680.886	57.85
681.073	58.39
681.259	58.49
681.445	58.92
681.631	58.84
681.817	58.42
682.003	59
682.189	58.93
682.375	58.92
682.561	58.83
682.747	58.93
682.933	58.88
683.119	58.53
683.305	58.63
683.491	58.55
683.677	58.71
683.863	59.16
684.049	59.17
684.235	59.24
684.42	59.46
684.606	58.9
684.792	59.35
684.978	59.18
685.164	59.68
685.349	59.87
685.535	60.06
685.721	60.11
685.907	60.35
686.092	59.76
686.278	59.84
686.464	59.56
686.649	60.22
686.835	59.73
687.021	60.19
687.206	59.51
687.392	59.21
687.577	59.21
687.763	59.67
687.948	59.19
688.134	59.37
688.319	59.47
688.505	59.81
688.69	59.8
688.876	59.63
689.061	59.41
689.247	60.04
689.432	60.05
689.618	59.4
689.803	58.84
689.988	59.33
690.174	59.47
690.359	59.58
690.544	59.42
690.73	59.9
690.915	59.95
691.1	59.89
691.285	59.45
691.471	60.1
691.656	60.57
691.841	61.14
692.026	60.97
692.211	61.12
692.396	61.17
692.582	61.23
692.767	60.22
692.952	60.25
693.137	60.23
693.322	60.59
693.507	60.12
693.692	60.61
693.877	60.1
694.062	60.22
694.247	60.66
694.432	60.4
694.617	60.24
694.802	61.14
694.987	61.44
695.172	61.94
695.357	61.69
695.541	62.18
695.726	61.95
695.911	62.54
696.096	62.22
696.281	61.64
696.466	61.84
696.65	61.91
696.835	61.59
697.02	60.57
697.204	60.73
697.389	60.94
697.574	60.21
697.759	60.02
697.943	59.61
698.128	59.5
698.312	59.64
698.497	58.96
698.682	59
698.866	58.73
699.051	58.99
699.235	58.69
699.42	58.23
699.604	58.35
699.789	57.97
699.973	57.91
700.158	58.08
700.342	58.23
700.527	59.15
700.711	59.17
700.895	59.39
701.08	59.99
701.264	60.19
701.448	60.7
701.633	60.9
701.817	62.04
702.001	62.18
702.186	62.25
702.37	61.91
702.554	61.41
702.738	61.56
702.923	61.65
703.107	61.26
703.291	61.28
703.475	61.55
703.659	61.61
703.843	61.25
704.027	61.75
704.212	61.29
704.396	61.58
704.58	62.3
704.764	62.69
704.948	62.65
705.132	62.43
705.316	62.06
705.5	61.95
705.684	61.72
705.868	61.91
706.052	61.66
706.235	63.2
706.419	63.69
706.603	64.02
706.787	63.24
706.971	63.43
707.155	63.8
707.339	63.61
707.522	63.45
707.706	63.81
707.89	63.96
708.074	64.65
708.257	63.38
708.441	63.19
708.625	62.32
708.808	62.53
708.992	62.66
709.176	62.57
709.359	62.75
709.543	62.45
709.727	62.69
709.91	62.24
710.094	61.78
710.277	62.19
710.461	62.07
710.644	62.73
710.828	63.21
711.011	63.18
711.195	62.7
711.378	63.28
711.562	63.39
711.745	63.17
711.928	63.09
712.112	62.61
712.295	62.22
712.478	61.78
712.662	61.41
712.845	61.42
713.028	61.33
713.212	61.92
713.395	61.33
713.578	61.56
713.761	61.48
713.945	61.73
714.128	62.12
714.311	62.64
714.494	62.5
714.677	61.71
714.86	61.42
715.043	61.53
715.227	61.48
715.41	61.28
715.593	61.2
715.776	61.34
715.959	61.02
716.142	60.65
716.325	60.15
716.508	60.49
716.691	61.38
716.874	61.32
717.057	61.24
717.239	61.03
717.422	61.05
717.605	61.26
717.788	61.18
717.971	62.77
718.154	63.19
718.337	63.84
718.519	64.09
718.702	64.3
718.885	63.8
719.068	63.71
719.25	64.4
719.433	64.13
719.616	64.11
719.798	64.34
719.981	63.86
720.164	63.57
720.346	62.94
720.529	63.66
720.712	63.27
720.894	64.04
721.077	63.32
721.259	63.44
721.442	64.39
721.624	64.66
721.807	64.58
721.989	63.23
722.172	63.67
722.354	64.68
722.537	63.78
722.719	63.1
722.901	62.89
723.084	63.58
723.266	62.98
723.448	62.38
723.631	62.12
723.813	62.56
723.995	63.22
724.178	63
724.36	63
724.542	62.65
724.724	63.03
724.907	62.77
725.089	62.88
725.271	63.8
725.453	62.91
725.635	62.96
725.817	63.13
725.999	62.48
726.181	61.84
726.364	62.11
726.546	62.33
726.728	62.5
726.91	62.61
727.092	62.94
727.274	62.21
727.456	63.85
727.638	63.11
727.819	62.05
728.001	61.87
728.183	62.69
728.365	62.23
728.547	62.35
728.729	63.78
728.911	63.7
729.093	63.72
729.274	62.88
729.456	62.27
729.638	63.06
729.82	63.61
730.001	63.41
730.183	64.1
730.365	63.99
730.546	63.81
730.728	63.02
730.91	63.15
731.091	62.9
731.273	63.43
731.455	63.48
731.636	63.08
731.818	62.99
731.999	63.27
732.181	62.91
732.362	63.31
732.544	63.98
732.725	62.96
732.907	62.65
733.088	63.1
733.27	63.81
733.451	63.71
733.633	64.07
733.814	64.15
733.995	65.18
734.177	65.9
734.358	64.5
734.539	63.68
734.721	64.85
734.902	65.46
735.083	65.14
735.264	64.91
735.446	66.36
735.627	65.91
735.808	64.81
735.989	63.85
736.17	62.57
736.351	63.47
736.533	64.18
736.714	63.88
736.895	63.49
737.076	62.96
737.257	62.19
737.438	61.04
737.619	61.01
737.8	61.28
737.981	62.89
738.162	64.19
738.343	63.55
738.524	63.47
738.705	63.08
738.886	64.34
739.067	64.53
739.247	64.73
739.428	64.66
739.609	64.48
739.79	66.17
739.971	64.22
740.151	63.82
740.332	64.63
740.513	65.18
740.694	64.96
740.874	64.26
741.055	64.53
741.236	65.18
741.417	64.94
741.597	65.99
741.778	65.79
741.958	65.83
742.139	65.38
742.32	65.74
742.5	66.1
742.681	66.48
742.861	66.66
743.042	66.41
743.222	66
743.403	65.98
743.583	66.22
743.764	66.34
743.944	67.4
744.124	67.06
744.305	67.12
744.485	66.15
744.666	66.4
744.846	66.45
745.026	67.81
745.207	67.5
745.387	69.17
745.567	69.34
745.747	68.34
745.928	68.58
746.108	68.05
746.288	68.02
746.468	67.4
746.648	67.14
746.829	67.42
747.009	68.05
747.189	69.01
747.369	68.59
747.549	68.26
747.729	69.18
747.909	68.63
748.089	69.35
748.269	69.65
748.449	70.31
748.629	69.64
748.809	68.93
748.989	68.42
749.169	66.78
749.349	65.48
749.529	64.99
749.709	63.54
749.889	63.2
750.068	62.53
750.248	62.13
750.428	62.36
750.608	63.08
750.788	63.54
750.967	62.65
751.147	64.06
751.327	65.2
751.507	65.18
751.686	66.05
751.866	67.48
752.046	68.08
752.225	67.93
752.405	68.26
752.585	68.15
752.764	67.43
752.944	67.02
753.123	67.13
753.303	66.77
753.482	67.1
753.662	66.64
753.841	65.84
754.021	66.68
754.2	67.52
754.38	67.02
754.559	67.57
754.739	67.3
754.918	68.27
755.097	66.82
755.277	65.61
755.456	65.88
755.635	65.94
755.815	66.83
755.994	66
756.173	64.46
756.352	64.25
756.532	62.85
756.711	63.7
756.89	63.48
757.069	64.38
757.248	64.34
757.427	62.99
757.607	63.71
757.786	62.65
757.965	61.77
758.144	62.22
758.323	62.86
758.502	63.3
758.681	62
758.86	61.54
759.039	61.73
759.218	62.15
759.397	63.03
759.576	62.32
759.755	61.54
759.934	62.07
760.113	63.04
760.291	60.98
760.47	62
760.649	63.23
760.828	63.71
761.007	62.97
761.186	63.94
761.364	64.19
761.543	64.83
761.722	64.51
761.901	63.55
762.079	62.17
762.258	63.3
762.437	63.16
762.615	62.61
762.794	62.44
762.972	62.42
763.151	61.57
763.33	60.97
763.508	60.14
763.687	60.38
763.865	61.04
764.044	61.41
764.222	61.72
764.401	61.34
764.579	60.88
764.758	60.63
764.936	60.96
765.114	61.52
765.293	62.36
765.471	63.84
765.65	64.8
765.828	64.69
766.006	64.98
766.184	65.09
766.363	64.67
766.541	65.56
766.719	65.79
766.898	65.36
767.076	65
767.254	64.45
767.432	63.59
767.61	62.77
767.788	64.46
767.967	64.06
768.145	63.93
768.323	65.22
768.501	66.43
768.679	66.5
768.857	67.72
769.035	69.65
769.213	71.01
769.391	70.93
769.569	73.25
769.747	72.11
769.925	73.03
770.103	73.17
770.281	72.51
770.459	71.38
770.636	70.63
770.814	71.21
770.992	69.73
771.17	70.48
771.348	71.04
771.525	68.94
771.703	68.44
771.881	68.59
772.059	69.72
772.236	69.44
772.414	70
772.592	72.21
772.769	73.93
772.947	73.96
773.125	73.43
773.302	72.8
773.48	73.77
773.657	74.09
773.835	73.39
774.013	70.96
774.19	72.89
774.368	72.63
774.545	70.2
774.723	69.56
774.9	69.14
775.077	68.54
775.255	68.48
775.432	68.77
775.61	69.68
775.787	70.23
775.964	71.22
776.142	69.39
776.319	69.74
776.496	70.73
776.674	68.97
776.851	68.98
777.028	69.41
777.205	68.46
777.382	68.87
777.56	69.19
777.737	74.19
777.914	74.83
778.091	76.14
778.268	73.98
778.445	73.72
778.622	72.99
778.8	74.93
778.977	74.33
779.154	81.94
779.331	80.59
779.508	78.71
779.685	73.9
779.862	73.98
780.038	72.89
780.215	75.26
780.392	76.61
780.569	79.37
780.746	79.51
780.923	79.95
781.1	73.39
781.277	74.39
781.453	75.72
781.63	74.32
781.807	75.75
781.984	74.92
782.16	73.77
782.337	73.03
782.514	73.19
782.691	73.39
782.867	73.78
783.044	74.21
783.221	73.46
783.397	75.29
783.574	75.78
783.75	75.23
783.927	76.34
784.103	77.92
784.28	76.53
784.456	76.5
784.633	75.92
784.809	74.55
784.986	74.15
785.162	74.04
785.339	71.06
785.515	73.44
785.692	69.81
785.868	70.2
786.044	69.84
786.221	69.84
786.397	68.71
786.573	66.36
786.749	66.49
786.926	68.18
787.102	67.56
787.278	67.74
787.454	67.01
787.631	70.16
787.807	70.75
787.983	70.68
788.159	70.97
788.335	71.51
788.511	73.82
788.687	73.47
788.863	74.07
789.039	74.72
789.216	74.83
789.392	73.65
789.568	73.15
789.744	73.26
789.919	72.46
790.095	72.41
790.271	71.25
790.447	69.74
790.623	69.73
790.799	69.05
790.975	69.76
791.151	70.2
791.327	72.09
791.502	71.96
791.678	71.73
791.854	72.32
792.03	72.06
792.205	72.92
792.381	72.89
792.557	72.33
792.733	70.88
792.908	70.1
793.084	72.03
793.259	69.41
793.435	71.22
793.611	70.1
793.786	69.14
793.962	70.45
794.137	69.38
794.313	70.26
794.488	71.65
794.664	71.48
794.839	72.06
795.015	70.1
795.19	70.2
795.366	70.46
795.541	69.4
795.716	68.98
795.892	70.48
796.067	70.78
796.242	69.9
796.418	70.45
796.593	72.63
796.768	73.42
796.944	72.86
797.119	75.24
797.294	74.46
797.469	76.89
797.644	78.39
797.82	76.03
797.995	75.35
798.17	77.95
798.345	77.25
798.52	75.21
798.695	72.18
798.87	72.03
799.045	69.98
799.22	68.42
799.395	68.47
799.57	69.22
799.745	69.46
799.92	70.41
800.095	71.47
800.27	71.6
800.445	71.09
800.62	74.08
800.795	75.89
800.97	79.27
801.145	79.82
801.319	76.74
801.494	75.13
801.669	77.1
801.844	76.08
802.018	71.53
802.193	72.07
802.368	68.73
802.543	69.31
802.717	68.09
802.892	65.48
803.067	66.22
803.241	70.08
803.416	72.31
803.59	71.05
803.765	76.24
803.94	78.68
804.114	76.96
804.289	83.12
804.463	80.82
804.638	81.28
804.812	81.6
804.986	81.63
805.161	82.97
805.335	81.83
805.51	80.9
805.684	76.36
805.858	76.41
806.033	76.75
806.207	75.82
806.381	76.05
806.556	77.74
806.73	78.05
806.904	75.82
807.078	73.32
807.253	73.1
807.427	73.16
807.601	74.66
807.775	74.26
807.949	75.13
808.123	72.56
808.298	71.44
808.472	72.27
808.646	73.17
808.82	73.41
808.994	73.32
809.168	73.51
809.342	76.75
809.516	76.93
809.69	80.24
809.864	76.92
810.038	82.9
810.212	84.43
810.385	82.28
810.559	82.46
810.733	85.46
810.907	85.29
811.081	86.85
811.255	85.97
811.428	85.49
811.602	82.7
811.776	85.58
811.95	79.35
812.123	83.36
812.297	84.24
812.471	81.31
812.644	79.85
812.818	79.67
812.992	77.83
813.165	76.78
813.339	74.21
813.512	75.35
813.686	75.06
813.86	77.98
814.033	74.64
814.207	72.01
814.38	71.32
814.554	72.39
814.727	72.72
814.9	70.86
815.074	69.35
815.247	71.06
815.421	67.23
815.594	71.21
815.767	70.28
815.941	71.09
816.114	72.67
816.287	78.44
816.46	78.09
816.634	79.21
816.807	82.86
816.98	86.8
817.153	90.03
817.327	89.07
817.5	84.55
817.673	83.44
817.846	83.63
818.019	82.56
818.192	78.71
818.365	77.2
818.538	77.6
818.711	76.13
818.884	72.72
819.057	72.13
819.23	73.76
819.403	73.02
819.576	72.69
819.749	71.34
819.922	71.87
820.095	72.91
820.268	72.97
820.441	72.19
820.614	70.92
820.786	70.14
820.959	69.04
821.132	68.88
821.305	68.81
821.477	66.5
821.65	63.68
821.823	61.81
821.996	60.89
822.168	60.65
822.341	58.38
822.514	58.29
822.686	58.29
822.859	57.71
823.031	57.06
823.204	56.34
823.376	56.29
823.549	56.97
823.722	57.25
823.894	57.35
824.067	56.82
824.239	57.29
824.411	57.11
824.584	57.5
824.756	57.55
824.929	57.45
825.101	58.01
825.273	58.15
825.446	58.19
825.618	57.92
825.79	57.3
825.963	57.76
826.135	58.8
826.307	59.91
826.479	59.66
826.652	59.29
826.824	60.25
826.996	59.59
827.168	59.93
827.34	60.48
827.512	60.57
827.684	60.93
827.856	60.96
828.029	60.07
828.201	58.63
828.373	59.63
828.545	60.84
828.717	60.11
828.889	61.42
829.061	61.02
829.232	60.88
829.404	61.23
829.576	61.82
829.748	61.87
829.92	63.66
830.092	65.37
830.264	63.92
830.436	63.45
830.607	64.41
830.779	65.25
830.951	67.61
831.123	69.1
831.294	70.46
831.466	71.65
831.638	71.74
831.809	69.47
831.981	70.47
832.153	72.85
832.324	74.13
832.496	73.57
832.667	75.7
832.839	75.6
833.011	72.85
833.182	73.85
833.354	71.7
833.525	71.72
833.697	73.18
833.868	71.21
834.039	68.67
834.211	66.84
834.382	67.21
834.554	64.83
834.725	65.07
834.896	65.13
835.068	63.71
835.239	64.08
835.41	65.58
835.581	65.24
835.753	64.8
835.924	66.46
836.095	66.37
836.266	66.76
836.438	66.36
836.609	64.69
836.78	64.46
836.951	66.01
837.122	64.68
837.293	63.19
837.464	64.75
837.635	68.64
837.806	66.88
837.977	68
838.148	69.63
838.319	70.45
838.49	73.54
838.661	72.15
838.832	74.32
839.003	77.36
839.174	81.03
839.345	80.59
839.516	79.1
839.687	84.57
839.857	85.19
840.028	80.92
840.199	81.32
840.37	83.76
840.54	93.39
840.711	87.1
840.882	85.53
841.053	84.77
841.223	83.38
841.394	83.81
841.564	86.34
841.735	87.23
841.906	90.4
842.076	89.15
842.247	85.08
842.417	80.55
842.588	84.04
842.758	88.62
842.929	87.57
843.099	87.8
843.27	90.6
843.44	88.24
843.611	92.92
843.781	89.6
843.951	92.47
844.122	92.89
844.292	92.83
844.462	95.4
844.633	91.68
844.803	88.06
844.973	85.79
845.144	87.08
845.314	80.03
845.484	82.25
845.654	90.4
845.824	99.95
845.995	108.82
846.165	116.38
846.335	117.11
846.505	124.27
846.675	136.8
846.845	161.95
847.015	162.88
847.185	171.44
847.355	160.29
847.525	158.16
847.695	146.94
847.865	145.27
848.035	143.42
848.205	152.15
848.375	147.68
848.545	135.68
848.715	114.1
848.884	108.95
849.054	109.99
849.224	117.02
849.394	115.81
849.564	124.67
849.733	132.95
849.903	135.84
850.073	134.87
850.243	143.76
850.412	140.36
850.582	136.57
850.752	160.5
850.921	152.68
851.091	148.42
851.26	151.61
851.43	137.34
851.599	130.32
851.769	129.12
851.939	115.69
852.108	107.49
852.278	118.63
852.447	133.26
852.616	125.87
852.786	117.93
852.955	119.12
853.125	126.03
853.294	122.07
853.463	118.83
853.633	117.29
853.802	137.48
853.971	145.32
854.141	147.89
854.31	143.39
854.479	145.17
854.648	178.35
854.818	176.2
854.987	157.41
855.156	177.31
855.325	172.8
855.494	176.96
855.663	151.43
855.832	143.46
856.001	139.48
856.171	134.32
856.34	121.15
856.509	122.02
856.678	125.63
856.847	121.92
857.016	112.09
857.185	113.02
857.353	111.67
857.522	118
857.691	120.36
857.86	116.23
858.029	123.56
858.198	127.96
858.367	119.96
858.535	112.03
858.704	109.79
858.873	112.09
859.042	105.47
859.21	111.68
859.379	117.07
859.548	119.56
859.717	118.32
859.885	112.26
860.054	117.72
860.222	117.49
860.391	115.27
860.56	121.72
860.728	118.54
860.897	124.03
861.065	117.9
861.234	108.24
861.402	120.01
861.571	121.37
861.739	130.84
861.908	124.46
862.076	123.02
862.244	122.64
862.413	123.22
862.581	127.03
862.749	127.49
862.918	129.82
863.086	141.58
863.254	117.8
863.423	118.87
863.591	107.29
863.759	105.19
863.927	103.91
864.096	110.32
864.264	118.51
864.432	131.14
864.6	131.48
864.768	129.16
864.936	133.6
865.104	125.02
865.272	143.72
865.44	149.79
865.608	150.37
865.776	138.59
865.944	138.72
866.112	133.67
866.28	132.98
866.448	117.76
866.616	117.74
866.784	115
866.952	113.49
867.12	94.71
867.288	87.78
867.455	96.79
867.623	100.12
867.791	95.01
867.959	97.89
868.127	96.22
868.294	100.44
868.462	98.39
868.63	89.78
868.797	91.19
868.965	97.63
869.133	106.3
869.3	97.49
869.468	94.85
869.636	100.69
869.803	91.97
869.971	94.92
870.138	101.58
870.306	99.45
870.473	107.08
870.641	104.56
870.808	108.7
870.975	108.97
871.143	122.91
871.31	119.82
871.478	117.6
871.645	120.54
871.812	110.66
871.98	117.9
872.147	125.21
872.314	127.45
872.482	145.29
872.649	148.39
872.816	142.19
872.983	144.03
873.15	149.83
873.318	154.42
873.485	161.69
873.652	152.48
873.819	142.93
873.986	134.71
874.153	125.6
874.32	125.7
874.487	116.77
874.654	116.12
874.821	111.79
874.988	107.75
875.155	110.47
875.322	99.46
875.489	113.61
875.656	124.52
875.823	146.26
875.99	153.2
876.157	153.42
876.324	147.9
876.49	150.23
876.657	149.8
876.824	175.1
876.991	175.7
877.157	200.27
877.324	183.31
877.491	166.19
877.658	140.61
877.824	153.69
877.991	140.42
878.157	150.13
878.324	143.08
878.491	140.13
878.657	132.95
878.824	126.34
878.99	100.91
879.157	95.62
879.323	96.28
879.49	95.94
879.656	95.9
879.823	101.5
879.989	96.53
880.156	98.24
880.322	90.6
880.488	85.63
880.655	91.45
880.821	106.22
880.987	110.66
881.154	108.92
881.32	107.29
881.486	105.69
881.652	95.15
881.819	92.89
881.985	91.04
882.151	93.17
882.317	87.03
882.483	82.09
882.649	78.04
882.816	76.3
882.982	75.12
883.148	72.19
883.314	67.15
883.48	69.35
883.646	68.74
883.812	66.94
883.978	65.76
884.144	65.25
884.31	64.69
884.476	63.42
884.642	62
884.807	62.99
884.973	63.24
885.139	64.57
885.305	65.1
885.471	64.99
885.637	63.37
885.802	62.98
885.968	64.23
886.134	66.65
886.3	67.78
886.465	72.07
886.631	70.38
886.797	75.02
886.962	75.67
887.128	75.47
887.293	77.23
887.459	80.36
887.625	81.26
887.79	83.92
887.956	81.63
888.121	84.03
888.287	79.78
888.452	79.69
888.618	73.9
888.783	74.89
