Data from LC_207__Reflection_3.txt Node
Date: Thu Nov 19 11:52:20 EST 2015
User: robert
Spectrometer: USB4E03001
Autoset integration time: false
Trigger mode: 4
Integration Time (sec): 1.000000E-1
Scans to average: 15
Electric dark correction enabled: true
Nonlinearity correction enabled: false
Boxcar width: 5
Stray light correction enabled: false
XAxis mode: Wavelengths
Stop averaging: false
Number of Pixels in Spectrum: 3648
>>>>>Begin Spectral Data<<<<<
177.566	35.73
177.785	46.89
178.005	45.31
178.225	49.91
178.445	28.51
178.665	-28.95
178.885	137.87
179.105	32.45
179.324	75.55
179.544	80.55
179.764	73.7
179.984	81.99
180.204	98.21
180.423	96.25
180.643	125.94
180.863	119.36
181.083	177.63
181.302	3025.32
181.522	-243.28
181.742	-20.13
181.961	25.11
182.181	28.38
182.401	29.01
182.621	47.46
182.84	37.53
183.06	44.3
183.279	53.56
183.499	54.52
183.719	42.58
183.938	61.72
184.158	64.34
184.377	31.97
184.597	66.12
184.816	50.21
185.036	6.46
185.256	16.75
185.475	-168.68
185.695	-297.7
185.914	-583.11
186.134	-984.06
186.353	1066.17
186.572	-3051.27
186.792	-278.76
187.011	-871.49
187.231	-327.83
187.45	-502.93
187.67	-332.04
187.889	14.03
188.108	72.86
188.328	44.92
188.547	37.55
188.766	-32.54
188.986	-1576.61
189.205	-51.83
189.424	806.25
189.644	-3.96
189.863	-30.21
190.082	-64.89
190.302	-71.09
190.521	-6.51
190.74	-48.46
190.959	-21.62
191.178	659.4
191.398	150.18
191.617	50.83
191.836	269.46
192.055	185.87
192.274	519.32
192.494	281.04
192.713	207.97
192.932	197.77
193.151	138.1
193.37	47.16
193.589	134.12
193.808	111.77
194.027	70.46
194.246	86.69
194.465	169.32
194.685	151.3
194.904	-181.5
195.123	-773.79
195.342	240.46
195.561	89.44
195.78	40.63
195.999	98.17
196.218	62.73
196.436	64.78
196.655	54.11
196.874	59.46
197.093	52.52
197.312	43.49
197.531	32.66
197.75	48.92
197.969	19.17
198.188	41.26
198.407	51.67
198.625	93.73
198.844	-25.98
199.063	67.72
199.282	-532.3
199.501	-40.64
199.719	-117.21
199.938	-152.78
200.157	-286.24
200.376	2469.7
200.594	1108.7
200.813	9619.86
201.032	1229.11
201.251	1063.98
201.469	374.17
201.688	875.55
201.907	348.91
202.125	230.09
202.344	218.1
202.563	108.64
202.781	-195.72
203	-75.64
203.218	-21.06
203.437	-71
203.656	-142.34
203.874	412.63
204.093	664.41
204.311	829.25
204.53	248.64
204.748	454.96
204.967	-1235.16
205.185	224.2
205.404	17.7
205.622	-10.7
205.841	-5.01
206.059	-62.7
206.278	-73.27
206.496	-73.86
206.715	-61.39
206.933	-45.14
207.151	-52.99
207.37	-37.07
207.588	-28.96
207.806	-34.03
208.025	-54.26
208.243	-72.84
208.461	-248.75
208.68	-485.04
208.898	-100.07
209.116	-163.82
209.335	2649.7
209.553	311.49
209.771	36445.45
209.989	275.73
210.208	-1753.12
210.426	-137.61
210.644	-3.84
210.862	1.19
211.081	-10.56
211.299	-72.13
211.517	-29.17
211.735	-14.09
211.953	9.89
212.171	17.56
212.39	40.86
212.608	18.02
212.826	32.22
213.044	13.41
213.262	31.13
213.48	14.16
213.698	31.01
213.916	39.42
214.134	26.8
214.352	35.62
214.57	30.43
214.788	18.94
215.006	19.57
215.224	17.81
215.442	4.58
215.66	-9.94
215.878	10.92
216.096	15.06
216.314	7.07
216.532	4.69
216.75	0.06
216.968	10
217.185	19.4
217.403	25.88
217.621	16.31
217.839	31.85
218.057	30.26
218.275	37.42
218.492	25.74
218.71	8.71
218.928	24.84
219.146	33.63
219.363	36.12
219.581	46.67
219.799	42.15
220.017	26.29
220.234	-14
220.452	-0.87
220.67	-82.99
220.887	-8
221.105	-12.78
221.323	-13.36
221.54	-44
221.758	-47.07
221.976	-117.55
222.193	-64.13
222.411	-63.05
222.629	2.89
222.846	-2.17
223.064	1.48
223.281	-19.44
223.499	15.37
223.716	15.49
223.934	3.31
224.151	16.1
224.369	10.62
224.586	-0.36
224.804	-1.36
225.021	7.42
225.239	-9.22
225.456	-4.71
225.674	-1.26
225.891	-7.34
226.108	-4.44
226.326	-11.33
226.543	-12.74
226.76	-3.01
226.978	-2.36
227.195	-3.44
227.413	-6.49
227.63	4.03
227.847	4.99
228.064	2.84
228.282	0.69
228.499	2.38
228.716	10.27
228.934	6.98
229.151	5.12
229.368	6.52
229.585	4.79
229.802	4.4
230.02	2.28
230.237	2.13
230.454	0.63
230.671	2.94
230.888	-1.69
231.105	-3.73
231.323	-3.81
231.54	-4.45
231.757	-8.97
231.974	-3.63
232.191	-6.42
232.408	-4.95
232.625	-8.58
232.842	-5.92
233.059	-5.39
233.276	-3.21
233.493	-8.45
233.71	-5.75
233.927	-3.76
234.144	-1.9
234.361	-3.04
234.578	-0.79
234.795	1.71
235.012	3.67
235.229	4.69
235.446	4.82
235.663	6.49
235.879	6.48
236.096	4.5
236.313	6.26
236.53	9.36
236.747	6.79
236.964	8.64
237.181	6.65
237.397	7.35
237.614	7.91
237.831	4.09
238.048	3.36
238.264	4.61
238.481	6.61
238.698	5.85
238.915	7.91
239.131	9.36
239.348	3.97
239.565	7.58
239.781	6.23
239.998	6.03
240.215	9.79
240.431	8.52
240.648	8.87
240.865	7.45
241.081	5.64
241.298	1.93
241.514	3.46
241.731	5.49
241.947	4.67
242.164	4.46
242.38	4.12
242.597	3.5
242.814	2.92
243.03	3.38
243.246	4.43
243.463	6
243.679	5.56
243.896	4.54
244.112	5.33
244.329	4.72
244.545	5.32
244.762	5.94
244.978	6.37
245.194	6.7
245.411	3.94
245.627	2.92
245.843	3.07
246.06	4.67
246.276	6.5
246.492	6.09
246.709	6.19
246.925	5.46
247.141	5.75
247.357	5.98
247.574	6.71
247.79	7.77
248.006	8.68
248.222	9.03
248.439	9.28
248.655	9.75
248.871	9.47
249.087	9.69
249.303	11.11
249.519	11.33
249.736	12.47
249.952	13.35
250.168	13.51
250.384	13.76
250.6	13.96
250.816	11.37
251.032	8.09
251.248	9.1
251.464	9.76
251.68	9.59
251.896	9.03
252.112	8.56
252.328	6.81
252.544	6.65
252.76	5.58
252.976	4.52
253.192	7.21
253.408	8.49
253.624	8.03
253.84	5.32
254.056	1.7
254.272	1.37
254.487	1.07
254.703	2.8
254.919	3.02
255.135	4.24
255.351	4.5
255.567	1.83
255.782	-0.38
255.998	-1.35
256.214	2.8
256.43	6.16
256.646	6.43
256.861	5.5
257.077	4.8
257.293	3.62
257.508	4.26
257.724	2.52
257.94	4.16
258.155	4.92
258.371	5.4
258.587	5.51
258.802	5.49
259.018	6.08
259.234	5.55
259.449	4.88
259.665	4.23
259.88	3.28
260.096	3.95
260.312	3.98
260.527	4.31
260.743	4.26
260.958	4.21
261.174	4.39
261.389	3.87
261.605	3.79
261.82	3.75
262.036	4
262.251	4.51
262.466	4.3
262.682	3.48
262.897	3.02
263.113	3.72
263.328	4.01
263.543	3.59
263.759	2.56
263.974	3.28
264.189	4.88
264.405	5.66
264.62	5.48
264.835	3.3
265.051	4.15
265.266	2.79
265.481	2.25
265.696	0.95
265.912	1.72
266.127	3.15
266.342	3.54
266.557	2.67
266.773	2.95
266.988	3.77
267.203	4.17
267.418	3.97
267.633	4.9
267.848	5.27
268.064	5.25
268.279	4.43
268.494	2.62
268.709	1.48
268.924	1.45
269.139	2.14
269.354	2.01
269.569	3.03
269.784	2.62
269.999	2.24
270.214	1.57
270.429	1.64
270.644	1.4
270.859	2.68
271.074	4.06
271.289	6.13
271.504	5.76
271.719	5.13
271.934	5.72
272.149	6.09
272.363	7.05
272.578	6.94
272.793	7.12
273.008	7.67
273.223	8.29
273.438	7.31
273.653	6.55
273.867	6.56
274.082	7.27
274.297	6.31
274.512	6.06
274.726	5.63
274.941	5.63
275.156	5.84
275.371	6.53
275.585	5.71
275.8	6.63
276.015	6.48
276.229	5.44
276.444	4.78
276.659	5.17
276.873	5
277.088	5.35
277.302	4.91
277.517	3.78
277.732	3.2
277.946	4.34
278.161	3.25
278.375	0.82
278.59	0.89
278.804	1.69
279.019	1.55
279.233	2.74
279.448	2.08
279.662	2.65
279.877	3.48
280.091	2.79
280.306	2.64
280.52	2.39
280.735	2.91
280.949	4.22
281.163	2.83
281.378	3.26
281.592	2.93
281.806	3.7
282.021	3.66
282.235	4.25
282.449	4.21
282.664	4.11
282.878	4.69
283.092	6.39
283.307	6.75
283.521	7.73
283.735	7.75
283.949	7.9
284.164	7.72
284.378	8.27
284.592	7.25
284.806	7.68
285.02	6.77
285.234	7.54
285.449	7.45
285.663	6.28
285.877	5.9
286.091	4.9
286.305	4.75
286.519	3.88
286.733	3.52
286.947	4.03
287.161	3.53
287.375	3.97
287.589	3.39
287.803	2.25
288.017	3
288.231	3.26
288.445	4.66
288.659	4.7
288.873	5.81
289.087	5
289.301	5.76
289.515	7.17
289.729	7.65
289.943	7.14
290.157	7.31
290.371	7.05
290.584	5.64
290.798	5.76
291.012	6.07
291.226	5.66
291.44	6.63
291.654	5.73
291.867	4.04
292.081	3.38
292.295	4.18
292.509	3.93
292.722	3.9
292.936	6.34
293.15	6.63
293.364	5.9
293.577	6.78
293.791	6.15
294.005	6.27
294.218	8.1
294.432	8.62
294.645	7.25
294.859	8.19
295.073	8.25
295.286	7.38
295.5	6.83
295.713	7.5
295.927	7.18
296.14	7.39
296.354	7.18
296.568	5.58
296.781	5.57
296.994	6
297.208	6
297.421	5.63
297.635	5.45
297.848	5.79
298.062	5.46
298.275	5.01
298.489	5.03
298.702	5.65
298.915	5.86
299.129	5.15
299.342	5.71
299.555	5.18
299.769	5.37
299.982	5.86
300.195	5.36
300.409	5.13
300.622	5.35
300.835	4.83
301.048	3.74
301.262	3.95
301.475	4.45
301.688	4.21
301.901	4.22
302.115	4.59
302.328	4.47
302.541	4.29
302.754	4.88
302.967	4.96
303.18	5.66
303.393	6.15
303.607	6.86
303.82	6.94
304.033	7.22
304.246	8.13
304.459	7.97
304.672	8.64
304.885	9.61
305.098	9.82
305.311	10.48
305.524	10.64
305.737	9.87
305.95	9.37
306.163	9.9
306.376	9.04
306.589	8.85
306.802	9.19
307.015	8.02
307.228	6.53
307.44	6.47
307.653	5.64
307.866	5.11
308.079	6.94
308.292	7.51
308.505	8.43
308.718	9.34
308.93	8.74
309.143	8.88
309.356	9.19
309.569	9.74
309.781	9.35
309.994	9.62
310.207	10.04
310.42	8.89
310.632	7.6
310.845	6.69
311.058	6.35
311.27	6.95
311.483	7.41
311.696	6.48
311.908	6.85
312.121	6.93
312.333	7.02
312.546	6.76
312.759	6.93
312.971	8.27
313.184	8.12
313.396	9.04
313.609	7.97
313.821	6.72
314.034	8.69
314.246	8.76
314.459	9.7
314.671	9.19
314.884	8.67
315.096	8.89
315.309	10.14
315.521	9.83
315.733	8.62
315.946	8.88
316.158	9.61
316.371	7.89
316.583	7.57
316.795	6.58
317.008	6.75
317.22	7.29
317.432	7.29
317.644	6.08
317.857	6.17
318.069	5.25
318.281	5.44
318.494	4.59
318.706	5.47
318.918	5.18
319.13	5.24
319.342	5.92
319.555	6.04
319.767	6.67
319.979	6.62
320.191	7.44
320.403	8.68
320.615	8.46
320.827	8.45
321.039	8.81
321.252	10.04
321.464	9.97
321.676	8.75
321.888	10.15
322.1	10.66
322.312	10.26
322.524	10.19
322.736	10.27
322.948	10.9
323.16	11.95
323.372	11.32
323.584	11.16
323.796	11.16
324.007	12.24
324.219	11.4
324.431	11.08
324.643	10.76
324.855	10.86
325.067	11.33
325.279	11.82
325.491	11.38
325.702	12.21
325.914	11.35
326.126	11.21
326.338	10.54
326.55	10.82
326.761	10.71
326.973	11.56
327.185	11.07
327.396	11.16
327.608	10.66
327.82	11.16
328.032	10.75
328.243	10.81
328.455	12.58
328.666	13.42
328.878	12.98
329.09	12.92
329.301	13.25
329.513	14.24
329.725	14.73
329.936	15.67
330.148	15.98
330.359	17.13
330.571	18.35
330.782	17.9
330.994	17.68
331.205	17.73
331.417	16.72
331.628	17.04
331.84	17.16
332.051	17.12
332.262	16.43
332.474	16.25
332.685	15.31
332.897	15.79
333.108	15.09
333.319	14.65
333.531	14.92
333.742	16.7
333.953	16.37
334.165	16.29
334.376	16.59
334.587	17.13
334.799	17.93
335.01	18.2
335.221	17.58
335.432	18.77
335.644	19.94
335.855	20.51
336.066	20.62
336.277	21.2
336.488	21.38
336.7	21.49
336.911	21.85
337.122	21.77
337.333	22.46
337.544	22.59
337.755	22.05
337.966	21.29
338.177	20.14
338.388	20.17
338.599	19.97
338.811	19.54
339.022	18.94
339.233	18.92
339.444	18.05
339.655	18.11
339.866	18.62
340.076	19.22
340.287	19.8
340.498	21.34
340.709	21.1
340.92	20.9
341.131	22.11
341.342	21.77
341.553	21.46
341.764	21.86
341.975	21.48
342.185	21.37
342.396	20.25
342.607	19.75
342.818	19.25
343.029	19.22
343.239	19.28
343.45	18.31
343.661	18.81
343.872	19.71
344.082	19.63
344.293	19.29
344.504	19.47
344.714	19.94
344.925	19.93
345.136	20.56
345.346	20.18
345.557	20.25
345.768	20.18
345.978	19.83
346.189	19.31
346.399	19.34
346.61	19.74
346.821	19.53
347.031	18.88
347.242	19.22
347.452	19.11
347.663	19.42
347.873	18.73
348.084	19.04
348.294	19.67
348.504	19.01
348.715	18.63
348.925	18.28
349.136	18.27
349.346	19.06
349.557	18.95
349.767	18.49
349.977	18.3
350.188	19.25
350.398	19.2
350.608	18.86
350.819	18.84
351.029	19.33
351.239	19.83
351.449	20.11
351.66	20.61
351.87	20.75
352.08	20.58
352.29	20.83
352.501	20.53
352.711	20.9
352.921	21.48
353.131	22.08
353.341	21.59
353.552	21.81
353.762	21.04
353.972	20.52
354.182	21.22
354.392	21.39
354.602	21.26
354.812	21.03
355.022	21.02
355.232	20.65
355.442	20.22
355.652	20.23
355.862	20.1
356.072	19.5
356.282	19.54
356.492	18.96
356.702	18.47
356.912	18.72
357.122	19.23
357.332	19.39
357.542	19.25
357.752	19.47
357.962	19.84
358.171	19.06
358.381	19.76
358.591	19.53
358.801	18.83
359.011	19.08
359.221	18.63
359.43	18.83
359.64	18.26
359.85	17.9
360.06	17.75
360.269	17.68
360.479	18.27
360.689	17.7
360.899	17.94
361.108	18.07
361.318	18.48
361.528	19
361.737	18.43
361.947	18.13
362.156	18.21
362.366	18.26
362.576	17.94
362.785	17.64
362.995	18.37
363.204	18.38
363.414	18.34
363.623	17.99
363.833	18
364.042	18.33
364.252	18.69
364.461	18.96
364.671	18.95
364.88	18.94
365.09	19.2
365.299	18.66
365.509	18.77
365.718	19.13
365.927	19.6
366.137	19.28
366.346	19.44
366.555	19.29
366.765	19.42
366.974	19.12
367.183	19.33
367.393	18.98
367.602	19.17
367.811	18.64
368.021	18.85
368.23	18.32
368.439	18.24
368.648	17.43
368.857	17.58
369.067	17.54
369.276	17.63
369.485	17.78
369.694	17.58
369.903	17.49
370.112	17.45
370.321	16.52
370.531	16.46
370.74	16.29
370.949	16.36
371.158	16.43
371.367	16.07
371.576	16.01
371.785	16.07
371.994	16.48
372.203	16.92
372.412	17.05
372.621	17.38
372.83	17.03
373.039	17.27
373.248	17.61
373.457	17.84
373.666	17.94
373.874	18.2
374.083	18.14
374.292	17.88
374.501	17.53
374.71	17.33
374.919	17.76
375.128	18.07
375.336	18.07
375.545	18.06
375.754	17.77
375.963	17.75
376.171	17.38
376.38	17.61
376.589	17.95
376.798	18
377.006	17.95
377.215	17.22
377.424	17.01
377.632	17.14
377.841	16.84
378.05	17.18
378.258	17.17
378.467	17.49
378.675	17.23
378.884	16.72
379.093	16.63
379.301	17.29
379.51	17.78
379.718	18.38
379.927	17.9
380.135	18.24
380.344	17.7
380.552	17.97
380.761	17.53
380.969	17.48
381.177	17.6
381.386	16.97
381.594	16.46
381.803	16.44
382.011	15.8
382.219	16.03
382.428	15.77
382.636	15.99
382.845	15.91
383.053	16.5
383.261	16.14
383.469	16.26
383.678	16.65
383.886	16.64
384.094	16.39
384.302	16.65
384.511	16.25
384.719	16.22
384.927	15.72
385.135	15.44
385.343	15.11
385.552	14.87
385.76	14.73
385.968	14.86
386.176	14.76
386.384	14.97
386.592	14.85
386.8	15.38
387.008	15.36
387.216	15.57
387.424	15.45
387.633	15.23
387.841	15.41
388.049	15.42
388.257	15.19
388.465	15.07
388.672	14.68
388.88	14.77
389.088	14.62
389.296	14.56
389.504	14.3
389.712	14.29
389.92	14.08
390.128	13.97
390.336	13.68
390.544	13.65
390.751	13.69
390.959	14.15
391.167	13.82
391.375	13.55
391.583	13.64
391.79	13.55
391.998	13.39
392.206	13.78
392.414	14.07
392.621	14.14
392.829	14.42
393.037	14.5
393.244	14.27
393.452	14.52
393.66	14.4
393.867	14.09
394.075	14.06
394.283	14.1
394.49	14.1
394.698	14.19
394.905	14.38
395.113	14.3
395.32	14.26
395.528	14.23
395.735	13.77
395.943	13.82
396.15	14.01
396.358	14.07
396.565	14.23
396.773	14.11
396.98	13.81
397.188	13.76
397.395	13.52
397.602	13.65
397.81	13.82
398.017	14.13
398.225	14.14
398.432	13.86
398.639	14.04
398.847	13.55
399.054	13.2
399.261	13.13
399.468	12.92
399.676	13.02
399.883	12.82
400.09	12.75
400.297	12.4
400.505	12.5
400.712	12.71
400.919	12.7
401.126	13.16
401.333	13.32
401.54	13.31
401.748	13.2
401.955	13.03
402.162	12.9
402.369	13.02
402.576	13.49
402.783	13.38
402.99	13.19
403.197	13.45
403.404	13.35
403.611	13.32
403.818	13.44
404.025	13.67
404.232	13.53
404.439	13.68
404.646	13.42
404.853	13.16
405.06	13.31
405.267	13.45
405.474	13.08
405.681	12.91
405.887	12.9
406.094	12.64
406.301	12.63
406.508	12.95
406.715	12.78
406.922	12.76
407.128	12.87
407.335	12.5
407.542	12.37
407.749	12.49
407.955	12.61
408.162	12.3
408.369	12.27
408.575	12.25
408.782	11.74
408.989	11.97
409.195	11.94
409.402	11.86
409.609	12.14
409.815	12.34
410.022	12.5
410.228	12.45
410.435	12.7
410.642	12.86
410.848	12.85
411.055	13.45
411.261	13.51
411.468	13.47
411.674	13.4
411.881	13.31
412.087	13.25
412.294	12.85
412.5	12.79
412.706	13.02
412.913	13.11
413.119	13.08
413.326	12.75
413.532	12.35
413.738	12.26
413.945	12.45
414.151	12.45
414.357	12.25
414.564	12.36
414.77	12.28
414.976	12.11
415.182	12.03
415.389	11.87
415.595	11.95
415.801	12.11
416.007	12.35
416.214	12.33
416.42	12.52
416.626	12.58
416.832	12.59
417.038	12.76
417.244	12.79
417.45	12.78
417.657	12.81
417.863	12.7
418.069	12.64
418.275	12.69
418.481	12.77
418.687	12.59
418.893	12.6
419.099	12.6
419.305	12.64
419.511	12.44
419.717	12.46
419.923	12.55
420.129	12.61
420.335	12.58
420.541	12.43
420.746	12.41
420.952	12.44
421.158	12.41
421.364	12.29
421.57	12.07
421.776	12.17
421.982	12.06
422.187	12
422.393	11.86
422.599	11.84
422.805	11.77
423.01	11.61
423.216	11.52
423.422	11.61
423.628	11.75
423.833	11.76
424.039	11.68
424.245	11.67
424.45	11.66
424.656	11.68
424.862	11.72
425.067	11.75
425.273	11.81
425.478	11.83
425.684	11.74
425.889	11.77
426.095	11.85
426.301	12
426.506	12.07
426.712	12.07
426.917	12.16
427.123	12.19
427.328	12.26
427.533	12.26
427.739	12.35
427.944	12.43
428.15	12.35
428.355	12.35
428.561	12.18
428.766	12.28
428.971	12.34
429.177	12.3
429.382	12.09
429.587	11.99
429.793	11.94
429.998	11.89
430.203	11.81
430.408	11.75
430.614	12.05
430.819	12.08
431.024	11.97
431.229	11.9
431.434	11.82
431.64	11.99
431.845	11.94
432.05	12.11
432.255	12.09
432.46	12.04
432.665	12.16
432.87	11.94
433.076	11.99
433.281	11.96
433.486	11.83
433.691	11.82
433.896	11.88
434.101	11.91
434.306	11.73
434.511	11.7
434.716	11.68
434.921	11.69
435.126	11.65
435.331	11.71
435.535	11.84
435.74	11.88
435.945	11.97
436.15	11.99
436.355	12.14
436.56	12.38
436.765	12.3
436.97	12.34
437.174	12.38
437.379	12.36
437.584	12.43
437.789	12.29
437.993	12.41
438.198	12.47
438.403	12.44
438.608	12.52
438.812	12.44
439.017	12.48
439.222	12.49
439.426	12.36
439.631	12.34
439.836	12.36
440.04	12.44
440.245	12.4
440.45	12.27
440.654	12.25
440.859	12.1
441.063	12.11
441.268	12.23
441.472	12.16
441.677	12.25
441.881	12.36
442.086	12.24
442.29	12.3
442.495	12.35
442.699	12.49
442.904	12.57
443.108	12.59
443.312	12.58
443.517	12.42
443.721	12.47
443.925	12.37
444.13	12.28
444.334	12.31
444.538	12.27
444.743	12.27
444.947	12.06
445.151	11.99
445.356	11.96
445.56	11.82
445.764	11.88
445.968	11.86
446.173	11.84
446.377	11.8
446.581	11.8
446.785	11.8
446.989	11.68
447.193	11.68
447.398	11.65
447.602	11.64
447.806	11.65
448.01	11.55
448.214	11.57
448.418	11.5
448.622	11.64
448.826	11.64
449.03	11.64
449.234	11.71
449.438	11.81
449.642	11.76
449.846	11.76
450.05	11.83
450.254	11.94
450.458	12.08
450.662	12.16
450.866	11.97
451.069	11.81
451.273	11.82
451.477	11.73
451.681	11.7
451.885	11.75
452.089	11.76
452.292	11.71
452.496	11.8
452.7	11.65
452.904	11.62
453.107	11.7
453.311	11.54
453.515	11.36
453.719	11.45
453.922	11.37
454.126	11.31
454.33	11.3
454.533	11.18
454.737	10.95
454.94	11.04
455.144	11.09
455.348	11.07
455.551	11.5
455.755	11.57
455.958	11.53
456.162	11.45
456.365	11.47
456.569	11.33
456.772	11.32
456.976	11.4
457.179	11.22
457.383	11.25
457.586	11.14
457.79	11.01
457.993	10.92
458.196	10.94
458.4	11.05
458.603	11.01
458.807	11.13
459.01	11.3
459.213	11.17
459.417	11.29
459.62	11.22
459.823	11.31
460.026	11.32
460.23	11.32
460.433	11.32
460.636	11.32
460.839	11.37
461.042	11.39
461.246	11.37
461.449	11.56
461.652	11.42
461.855	11.48
462.058	11.49
462.261	11.53
462.464	11.66
462.668	11.68
462.871	11.78
463.074	11.91
463.277	11.92
463.48	11.81
463.683	11.69
463.886	11.7
464.089	11.54
464.292	11.43
464.495	11.39
464.698	11.34
464.901	11.49
465.104	11.36
465.306	11.21
465.509	11.15
465.712	11.25
465.915	11.32
466.118	11.41
466.321	11.58
466.524	11.79
466.726	11.59
466.929	11.69
467.132	11.38
467.335	11.53
467.538	11.49
467.74	11.58
467.943	11.66
468.146	11.72
468.348	11.78
468.551	11.91
468.754	11.84
468.956	11.97
469.159	11.73
469.362	11.98
469.564	11.93
469.767	12.08
469.969	12.05
470.172	12.02
470.375	11.99
470.577	11.96
470.78	11.61
470.982	11.44
471.185	11.44
471.387	11.57
471.59	11.5
471.792	11.33
471.995	11.38
472.197	11.42
472.399	11.41
472.602	11.34
472.804	11.35
473.007	11.57
473.209	11.63
473.411	11.7
473.614	11.8
473.816	11.67
474.018	11.83
474.22	11.48
474.423	11.52
474.625	11.4
474.827	11.41
475.03	11.44
475.232	11.46
475.434	11.57
475.636	11.58
475.838	11.43
476.04	11.45
476.243	11.6
476.445	11.71
476.647	11.69
476.849	11.77
477.051	11.79
477.253	11.67
477.455	11.59
477.657	11.56
477.859	11.63
478.061	11.86
478.263	11.9
478.465	11.71
478.667	11.67
478.869	11.67
479.071	11.7
479.273	11.66
479.475	11.5
479.677	11.46
479.879	11.4
480.081	11.21
480.283	11.02
480.485	10.93
480.686	11.1
480.888	11.3
481.09	11.25
481.292	11.22
481.494	11.29
481.695	11.46
481.897	11.47
482.099	11.43
482.301	11.54
482.502	11.64
482.704	11.71
482.906	11.66
483.107	11.56
483.309	11.62
483.511	11.64
483.712	11.64
483.914	11.67
484.115	11.7
484.317	11.7
484.519	11.7
484.72	11.67
484.922	11.65
485.123	11.66
485.325	11.72
485.526	11.67
485.728	11.64
485.929	11.63
486.131	11.59
486.332	11.57
486.534	11.59
486.735	11.52
486.936	11.5
487.138	11.51
487.339	11.53
487.541	11.48
487.742	11.47
487.943	11.51
488.144	11.54
488.346	11.5
488.547	11.52
488.748	11.52
488.95	11.54
489.151	11.57
489.352	11.58
489.553	11.54
489.755	11.61
489.956	11.54
490.157	11.54
490.358	11.56
490.559	11.57
490.76	11.5
490.961	11.49
491.163	11.56
491.364	11.51
491.565	11.44
491.766	11.43
491.967	11.4
492.168	11.52
492.369	11.54
492.57	11.52
492.771	11.56
492.972	11.66
493.173	11.69
493.374	11.57
493.575	11.73
493.776	11.81
493.976	11.89
494.177	12.01
494.378	12.01
494.579	12.08
494.78	12.21
494.981	12.27
495.182	12.3
495.382	12.39
495.583	12.6
495.784	12.56
495.985	12.7
496.185	12.77
496.386	12.56
496.587	12.58
496.788	12.53
496.988	12.4
497.189	12.34
497.39	12.39
497.59	12.34
497.791	12.32
497.992	12.25
498.192	12.1
498.393	11.94
498.593	12.07
498.794	11.99
498.994	11.82
499.195	11.89
499.395	11.98
499.596	11.95
499.796	12.07
499.997	12.04
500.197	12.01
500.398	11.95
500.598	12.03
500.799	12.16
500.999	12.35
501.199	12.55
501.4	12.54
501.6	12.49
501.801	12.41
502.001	12.39
502.201	12.6
502.402	12.78
502.602	13.03
502.802	13.23
503.002	13.06
503.203	13.03
503.403	13.06
503.603	13.12
503.803	13.2
504.003	13.42
504.204	13.43
504.404	13.53
504.604	13.5
504.804	13.58
505.004	13.51
505.204	13.69
505.404	13.63
505.604	13.68
505.804	13.75
506.005	13.78
506.205	13.82
506.405	13.93
506.605	13.7
506.805	13.65
507.005	13.61
507.204	13.7
507.404	13.69
507.604	13.89
507.804	14.01
508.004	14.08
508.204	14.19
508.404	14.04
508.604	13.96
508.804	14.15
509.003	14.32
509.203	14.34
509.403	14.38
509.603	14.44
509.803	14.48
510.002	14.58
510.202	14.55
510.402	14.61
510.602	14.73
510.801	14.72
511.001	14.77
511.201	14.89
511.4	15.03
511.6	15.02
511.8	15.11
511.999	15.26
512.199	15.14
512.398	15.32
512.598	15.41
512.797	15.44
512.997	15.8
513.197	15.83
513.396	15.8
513.596	15.84
513.795	16.07
513.994	16.21
514.194	16.04
514.393	16.22
514.593	16.25
514.792	16.23
514.992	16.38
515.191	16.25
515.39	16.28
515.59	16.36
515.789	16.46
515.988	16.35
516.188	16.24
516.387	16.43
516.586	16.43
516.786	16.47
516.985	16.58
517.184	16.63
517.383	16.69
517.582	16.81
517.782	16.91
517.981	17.05
518.18	17.15
518.379	17.31
518.578	17.44
518.777	17.51
518.976	17.65
519.176	17.76
519.375	17.78
519.574	17.79
519.773	17.84
519.972	17.91
520.171	17.79
520.37	17.72
520.569	17.67
520.768	17.58
520.967	17.65
521.166	17.64
521.365	17.61
521.564	17.68
521.762	17.77
521.961	17.77
522.16	17.73
522.359	17.89
522.558	18.04
522.757	18.22
522.956	18.4
523.154	18.43
523.353	18.47
523.552	18.45
523.751	18.61
523.949	18.75
524.148	18.79
524.347	19.05
524.546	19.1
524.744	19.13
524.943	19.1
525.142	19.22
525.34	19.27
525.539	19.4
525.737	19.6
525.936	19.69
526.135	19.64
526.333	19.85
526.532	19.77
526.73	19.81
526.929	19.93
527.127	19.98
527.326	19.98
527.524	20.1
527.723	20.09
527.921	20.11
528.12	20.08
528.318	20.14
528.516	20.11
528.715	20.17
528.913	20.24
529.112	20.28
529.31	20.32
529.508	20.28
529.707	20.33
529.905	20.36
530.103	20.34
530.301	20.32
530.5	20.36
530.698	20.34
530.896	20.36
531.094	20.4
531.293	20.44
531.491	20.46
531.689	20.64
531.887	20.65
532.085	20.76
532.283	20.87
532.481	21.02
532.68	21.11
532.878	21.2
533.076	21.25
533.274	21.23
533.472	21.33
533.67	21.45
533.868	21.47
534.066	21.42
534.264	21.43
534.462	21.48
534.66	21.5
534.858	21.47
535.056	21.54
535.253	21.62
535.451	21.74
535.649	21.75
535.847	21.85
536.045	21.87
536.243	22.04
536.441	22.07
536.638	22.22
536.836	22.42
537.034	22.47
537.232	22.58
537.43	22.68
537.627	22.77
537.825	22.76
538.023	22.76
538.22	22.78
538.418	22.77
538.616	22.79
538.813	22.72
539.011	22.77
539.209	22.89
539.406	22.96
539.604	22.9
539.801	23
539.999	23.1
540.196	23.15
540.394	23.28
540.591	23.36
540.789	23.39
540.986	23.36
541.184	23.4
541.381	23.5
541.579	23.62
541.776	23.71
541.974	23.65
542.171	23.71
542.368	23.73
542.566	23.85
542.763	23.91
542.96	24.01
543.158	24.17
543.355	24.25
543.552	24.25
543.75	24.24
543.947	24.27
544.144	24.45
544.341	24.45
544.539	24.53
544.736	24.62
544.933	24.6
545.13	24.77
545.327	24.85
545.524	24.84
545.722	24.86
545.919	24.94
546.116	24.92
546.313	24.86
546.51	25.02
546.707	25.2
546.904	25.19
547.101	25.3
547.298	25.29
547.495	25.27
547.692	25.3
547.889	25.4
548.086	25.41
548.283	25.59
548.48	25.79
548.677	25.75
548.874	25.73
549.07	25.72
549.267	25.78
549.464	25.79
549.661	25.85
549.858	25.93
550.055	26.12
550.251	26.24
550.448	26.17
550.645	26.21
550.842	26.39
551.038	26.39
551.235	26.5
551.432	26.49
551.628	26.78
551.825	26.92
552.022	27.03
552.218	26.97
552.415	27.04
552.612	27.28
552.808	27.26
553.005	27.36
553.201	27.47
553.398	27.54
553.594	27.58
553.791	27.56
553.987	27.64
554.184	27.64
554.38	27.71
554.577	27.75
554.773	27.78
554.97	27.93
555.166	28.02
555.362	28.25
555.559	28.46
555.755	28.73
555.952	28.69
556.148	28.73
556.344	29.05
556.541	29.26
556.737	29.32
556.933	29.44
557.129	29.61
557.326	29.7
557.522	29.59
557.718	29.41
557.914	29.44
558.11	29.57
558.307	29.71
558.503	29.68
558.699	29.71
558.895	29.79
559.091	29.75
559.287	29.76
559.483	29.65
559.679	29.67
559.876	29.85
560.072	29.97
560.268	30.15
560.464	30.08
560.66	30
560.856	30.04
561.052	30.02
561.247	30.2
561.443	30.15
561.639	30.33
561.835	30.59
562.031	30.7
562.227	30.62
562.423	30.48
562.619	30.65
562.815	30.82
563.01	30.82
563.206	31.01
563.402	31.01
563.598	31.14
563.793	31.13
563.989	31.23
564.185	31.18
564.381	31.33
564.576	31.47
564.772	31.54
564.968	31.73
565.163	31.77
565.359	31.86
565.555	31.95
565.75	32.13
565.946	32.28
566.141	32.21
566.337	32.29
566.532	32.41
566.728	32.51
566.923	32.66
567.119	32.58
567.314	32.67
567.51	32.63
567.705	32.67
567.901	32.69
568.096	32.67
568.292	32.73
568.487	32.97
568.682	33.03
568.878	33.27
569.073	33.11
569.268	33.14
569.464	33.14
569.659	33.35
569.854	33.49
570.05	33.46
570.245	33.47
570.44	33.57
570.635	33.54
570.831	33.58
571.026	33.7
571.221	33.86
571.416	33.93
571.611	34.07
571.806	34.02
572.002	34
572.197	33.9
572.392	34.03
572.587	33.96
572.782	33.9
572.977	33.9
573.172	33.86
573.367	33.91
573.562	34.03
573.757	34.13
573.952	34.25
574.147	34.3
574.342	34.69
574.537	34.83
574.732	35.11
574.927	35.3
575.121	35.29
575.316	35.2
575.511	35.27
575.706	35.29
575.901	35.15
576.096	35.1
576.29	35.21
576.485	35.2
576.68	35.26
576.875	35.16
577.069	35.08
577.264	35.2
577.459	35.51
577.654	35.48
577.848	35.46
578.043	35.64
578.238	35.65
578.432	35.71
578.627	35.72
578.821	35.76
579.016	35.76
579.21	35.88
579.405	35.8
579.6	35.38
579.794	35.48
579.989	35.62
580.183	35.66
580.378	35.65
580.572	35.91
580.766	35.92
580.961	36.05
581.155	36.24
581.35	36.26
581.544	36.68
581.738	36.83
581.933	36.94
582.127	36.84
582.321	36.96
582.516	37.38
582.71	36.97
582.904	36.71
583.099	36.66
583.293	36.64
583.487	36.77
583.681	36.7
583.875	36.77
584.07	36.77
584.264	36.97
584.458	37.01
584.652	36.83
584.846	37.1
585.04	37.45
585.234	37.43
585.428	37.51
585.623	37.49
585.817	37.56
586.011	37.93
586.205	37.89
586.399	37.91
586.593	37.86
586.787	38.08
586.981	37.97
587.174	38.13
587.368	38.07
587.562	37.99
587.756	38.15
587.95	38.18
588.144	38.07
588.338	38.27
588.532	38.3
588.725	38.61
588.919	38.61
589.113	38.82
589.307	38.85
589.501	38.96
589.694	39.2
589.888	39.03
590.082	38.99
590.275	38.91
590.469	38.96
590.663	38.93
590.856	38.75
591.05	38.85
591.244	38.93
591.437	38.81
591.631	38.98
591.824	39.14
592.018	39.53
592.212	39.61
592.405	39.96
592.599	39.94
592.792	39.91
592.986	39.95
593.179	39.97
593.372	40.15
593.566	40.21
593.759	40.45
593.953	40.36
594.146	40.07
594.339	40.22
594.533	40.11
594.726	40.22
594.92	40.7
595.113	40.92
595.306	41.04
595.499	40.99
595.693	41.14
595.886	40.87
596.079	40.98
596.272	41.23
596.466	41.24
596.659	41.15
596.852	41
597.045	40.81
597.238	40.86
597.431	40.66
597.624	40.7
597.818	40.61
598.011	40.81
598.204	40.76
598.397	40.65
598.59	40.66
598.783	40.91
598.976	41.09
599.169	41.02
599.362	40.9
599.555	41.12
599.748	41.08
599.941	41.09
600.134	41.17
600.326	41.33
600.519	41.55
600.712	41.63
600.905	41.48
601.098	41.47
601.291	41.69
601.483	41.66
601.676	41.69
601.869	41.7
602.062	42.01
602.255	42.08
602.447	41.97
602.64	41.98
602.833	42.03
603.025	41.93
603.218	42.17
603.411	42.07
603.603	42.35
603.796	42.3
603.989	42.37
604.181	42.4
604.374	42.45
604.566	42.45
604.759	42.41
604.951	42.28
605.144	42.64
605.336	42.48
605.529	42.77
605.721	42.8
605.914	42.9
606.106	42.93
606.299	42.7
606.491	42.52
606.683	42.59
606.876	42.56
607.068	42.69
607.26	42.54
607.453	42.6
607.645	42.59
607.837	42.71
608.03	42.56
608.222	42.6
608.414	42.82
608.606	42.99
608.799	43.14
608.991	43.25
609.183	43.25
609.375	43.23
609.567	43.27
609.759	43.06
609.952	42.8
610.144	42.85
610.336	42.95
610.528	42.99
610.72	43.09
610.912	42.91
611.104	42.98
611.296	43.03
611.488	43.07
611.68	43.05
611.872	43.16
612.064	43.33
612.256	43.45
612.448	43.48
612.64	43.31
612.832	43.12
613.023	43.2
613.215	43.16
613.407	42.93
613.599	43.25
613.791	43.37
613.983	43.48
614.174	43.51
614.366	43.32
614.558	43.22
614.75	43.55
614.941	43.77
615.133	43.64
615.325	43.43
615.516	43.67
615.708	43.49
615.9	43.65
616.091	43.48
616.283	43.3
616.475	43.66
616.666	43.55
616.858	43.55
617.049	43.24
617.241	43.39
617.432	43.44
617.624	43.56
617.815	43.16
618.007	43.07
618.198	43.31
618.39	43.52
618.581	43.63
618.773	43.64
618.964	43.6
619.155	43.85
619.347	43.97
619.538	44.19
619.729	44.23
619.921	44.54
620.112	44.71
620.303	44.59
620.494	44.67
620.686	44.74
620.877	44.8
621.068	44.71
621.259	44.83
621.451	44.76
621.642	44.93
621.833	44.96
622.024	45.22
622.215	45.19
622.406	45.27
622.597	45.35
622.788	45.01
622.98	45.33
623.171	45.19
623.362	45.27
623.553	45.47
623.744	45.34
623.935	45.21
624.126	45.14
624.317	45.05
624.508	45.04
624.698	45.09
624.889	45.18
625.08	45.12
625.271	45.15
625.462	44.95
625.653	44.96
625.844	44.96
626.034	45.15
626.225	45.36
626.416	45.27
626.607	45.57
626.798	45.44
626.988	45.56
627.179	45.35
627.37	45.79
627.56	45.78
627.751	45.82
627.942	45.94
628.132	45.93
628.323	45.78
628.514	45.95
628.704	45.77
628.895	46.06
629.085	46.22
629.276	46.56
629.466	46.16
629.657	46.4
629.847	46.71
630.038	46.69
630.228	46.71
630.419	46.65
630.609	46.51
630.8	46.48
630.99	46.06
631.181	45.84
631.371	45.8
631.561	46.1
631.752	45.94
631.942	45.46
632.132	45.46
632.323	45.43
632.513	45.44
632.703	45.78
632.893	45.88
633.084	46.34
633.274	46.46
633.464	46.36
633.654	46.16
633.844	46.51
634.034	46.53
634.225	46.51
634.415	46.48
634.605	46.62
634.795	46.41
634.985	46.53
635.175	46.53
635.365	46.58
635.555	46.77
635.745	46.85
635.935	46.81
636.125	46.95
636.315	46.84
636.505	46.94
636.695	46.91
636.885	47.08
637.075	46.75
637.265	46.51
637.455	46.37
637.644	46.38
637.834	46.35
638.024	46.34
638.214	46.18
638.404	46.13
638.593	46.43
638.783	46.37
638.973	46.64
639.163	47.21
639.352	47.19
639.542	47.39
639.732	47.36
639.921	47.49
640.111	47.33
640.301	47.75
640.49	48.27
640.68	48.04
640.87	48.03
641.059	47.79
641.249	47.61
641.438	47.77
641.628	47.81
641.817	47.71
642.007	47.6
642.196	47.65
642.386	47.09
642.575	47.23
642.764	47.34
642.954	47.57
643.143	47.68
643.333	47.27
643.522	47.38
643.711	47.22
643.901	47.46
644.09	47.76
644.279	47.8
644.469	48.08
644.658	47.8
644.847	47.72
645.036	47.7
645.226	47.82
645.415	48.11
645.604	48.34
645.793	48.52
645.982	48.58
646.171	48.79
646.361	48.61
646.55	48.69
646.739	48.89
646.928	48.91
647.117	48.93
647.306	48.76
647.495	49.01
647.684	48.81
647.873	48.92
648.062	48.71
648.251	48.44
648.44	48.34
648.629	48.5
648.818	48.28
649.007	48.14
649.196	48.04
649.384	47.84
649.573	47.9
649.762	48.06
649.951	47.92
650.14	47.46
650.328	47.63
650.517	47.94
650.706	47.61
650.895	47.78
651.083	47.87
651.272	47.5
651.461	47.85
651.65	47.85
651.838	47.93
652.027	47.99
652.216	48.85
652.404	48.79
652.593	48.74
652.781	49.08
652.97	49.25
653.158	49.43
653.347	50.01
653.535	50.13
653.724	49.86
653.912	49.59
654.101	49.39
654.289	49.02
654.478	48.84
654.666	49.09
654.855	49.08
655.043	48.77
655.231	48.56
655.42	48.69
655.608	48.58
655.796	49.01
655.985	48.92
656.173	48.97
656.361	49.24
656.55	49.55
656.738	48.97
656.926	48.71
657.114	48.38
657.302	48.57
657.491	48.37
657.679	48.67
657.867	48.58
658.055	48.69
658.243	48.88
658.431	48.75
658.619	49
658.807	49.5
658.996	49.95
659.184	50.17
659.372	50.06
659.56	49.94
659.748	49.86
659.936	49.79
660.124	49.92
660.311	49.72
660.499	49.81
660.687	49.49
660.875	49.72
661.063	49.51
661.251	49.86
661.439	50.01
661.627	50.17
661.814	50.18
662.002	50.22
662.19	49.96
662.378	50.51
662.565	50.35
662.753	50.32
662.941	49.89
663.129	50.3
663.316	50.4
663.504	50.64
663.692	50.72
663.879	50.77
664.067	50.64
664.254	51.05
664.442	50.89
664.63	50.86
664.817	51.15
665.005	51.33
665.192	50.98
665.38	50.48
665.567	50.37
665.755	50.53
665.942	50.4
666.13	50.77
666.317	50.97
666.504	50.86
666.692	51.32
666.879	51.19
667.067	51.41
667.254	51.43
667.441	51.73
667.629	51.72
667.816	51.81
668.003	51.73
668.19	51.47
668.378	51.26
668.565	51.63
668.752	51.55
668.939	51.65
669.127	51.15
669.314	51.58
669.501	51.69
669.688	51.92
669.875	51.53
670.062	51.5
670.249	51.59
670.436	51.59
670.623	51.24
670.81	50.99
670.997	51.38
671.184	51.39
671.371	51.32
671.558	51.28
671.745	50.89
671.932	50.94
672.119	51.07
672.306	51.53
672.493	51.16
672.68	51.52
672.867	51.85
673.054	51.46
673.24	51.77
673.427	51.32
673.614	51.46
673.801	51.64
673.988	51.91
674.174	51.72
674.361	51.31
674.548	51.64
674.734	51.71
674.921	51.73
675.108	51.92
675.294	51.88
675.481	52.39
675.668	52.31
675.854	52.52
676.041	52.46
676.227	52.73
676.414	52.52
676.601	52.75
676.787	52.4
676.974	52.4
677.16	52.01
677.347	52.08
677.533	51.55
677.719	51.58
677.906	51.38
678.092	51.78
678.279	51.85
678.465	51.71
678.651	51.57
678.838	51.79
679.024	51.62
679.21	51.95
679.397	51.8
679.583	52.27
679.769	52.3
679.955	52.23
680.142	51.91
680.328	51.61
680.514	51.92
680.7	52.04
680.886	52.47
681.073	52.76
681.259	52.32
681.445	52.55
681.631	52.09
681.817	52.06
682.003	51.99
682.189	51.97
682.375	52.38
682.561	52.28
682.747	52.17
682.933	51.76
683.119	51.56
683.305	51.83
683.491	51.84
683.677	52.39
683.863	52.52
684.049	53
684.235	53.28
684.42	53.33
684.606	53.68
684.792	53.36
684.978	53.03
685.164	52.9
685.349	52.96
685.535	53.09
685.721	52.6
685.907	52.4
686.092	52.4
686.278	52.26
686.464	52.31
686.649	52.15
686.835	52.59
687.021	52.74
687.206	52.68
687.392	52.64
687.577	52.49
687.763	52.78
687.948	52.47
688.134	52.4
688.319	52.54
688.505	52.44
688.69	52.83
688.876	53.04
689.061	53.01
689.247	53.44
689.432	54.01
689.618	53.93
689.803	54.2
689.988	54.57
690.174	54.58
690.359	54.11
690.544	53.87
690.73	53.72
690.915	53.6
691.1	53.54
691.285	53.47
691.471	52.9
691.656	52.74
691.841	52.26
692.026	52.65
692.211	52.63
692.396	52.99
692.582	53.1
692.767	52.49
692.952	52.21
693.137	52.06
693.322	52
693.507	52.42
693.692	52.77
693.877	53.24
694.062	53
694.247	52.83
694.432	53.12
694.617	53.27
694.802	54.27
694.987	54.2
695.172	54.88
695.357	55.13
695.541	54.88
695.726	54.87
695.911	54.5
696.096	54.27
696.281	54.49
696.466	54.05
696.65	53.87
696.835	53.63
697.02	53.4
697.204	53.09
697.389	53
697.574	53.29
697.759	52.94
697.943	53.41
698.128	53.79
698.312	53.79
698.497	53.65
698.682	53.82
698.866	53.81
699.051	54.12
699.235	53.99
699.42	53.91
699.604	53.73
699.789	53.98
699.973	53.52
700.158	53.19
700.342	53.04
700.527	53.57
700.711	53.6
700.895	53.23
701.08	52.94
701.264	53.09
701.448	53.1
701.633	53.08
701.817	53.25
702.001	53.16
702.186	53.06
702.37	53.32
702.554	52.95
702.738	53.25
702.923	53.31
703.107	53.62
703.291	53.66
703.475	53.64
703.659	53.89
703.843	54.08
704.027	54.23
704.212	54.41
704.396	53.98
704.58	54.08
704.764	53.05
704.948	53.38
705.132	53.54
705.316	53.25
705.5	53.15
705.684	52.84
705.868	52.33
706.052	52.81
706.235	52.29
706.419	52.67
706.603	52.62
706.787	53.04
706.971	53.12
707.155	53.18
707.339	54.04
707.522	54.13
707.706	54.28
707.89	54.76
708.074	54.92
708.257	55.29
708.441	54.95
708.625	55.38
708.808	55.66
708.992	55.58
709.176	55.83
709.359	56.35
709.543	56.64
709.727	56.64
709.91	56.62
710.094	56.02
710.277	56.31
710.461	56.58
710.644	56.54
710.828	56.37
711.011	56.55
711.195	56.65
711.378	55.78
711.562	55.58
711.745	55.36
711.928	55.1
712.112	55.32
712.295	55.46
712.478	55.16
712.662	55.3
712.845	54.63
713.028	54.56
713.212	53.74
713.395	52.71
713.578	52.46
713.761	52.85
713.945	53.07
714.128	52.77
714.311	52.87
714.494	53.4
714.677	53.39
714.86	53.54
715.043	53.12
715.227	53.51
715.41	54.52
715.593	54.82
715.776	54.99
715.959	54.82
716.142	55.57
716.325	55.52
716.508	54.91
716.691	54.66
716.874	55.18
717.057	55.44
717.239	55.53
717.422	56.39
717.605	56.48
717.788	55.94
717.971	55.57
718.154	55.48
718.337	55.03
718.519	55.4
718.702	55.63
718.885	56.07
719.068	55.58
719.25	55.82
719.433	55.04
719.616	54.99
719.798	55.28
719.981	55.47
720.164	54.66
720.346	55.35
720.529	54.61
720.712	53.84
720.894	53.24
721.077	53.28
721.259	53.54
721.442	52.59
721.624	52.03
721.807	51.88
721.989	51.97
722.172	52.62
722.354	51.62
722.537	52.37
722.719	52.6
722.901	53.14
723.084	54.55
723.266	53.34
723.448	53.29
723.631	53.25
723.813	53.35
723.995	53.4
724.178	53.05
724.36	53.42
724.542	54.23
724.724	54.3
724.907	53.64
725.089	52.66
725.271	52.95
725.453	53.2
725.635	53.95
725.817	53.69
725.999	54
726.181	53.98
726.364	54.48
726.546	53.82
726.728	53.34
726.91	53.98
727.092	54.45
727.274	54.7
727.456	54.95
727.638	54.35
727.819	54.85
728.001	54.55
728.183	54.59
728.365	53.79
728.547	53.84
728.729	54.37
728.911	54.6
729.093	54.58
729.274	54.57
729.456	54.25
729.638	54.54
729.82	54.47
730.001	54.73
730.183	54.85
730.365	55.28
730.546	54.53
730.728	54.13
730.91	53.08
731.091	52.28
731.273	52.78
731.455	53.25
731.636	53.61
731.818	53.05
731.999	52.69
732.181	52.77
732.362	52.87
732.544	53.32
732.725	53.52
732.907	53.61
733.088	53.66
733.27	52.76
733.451	52.98
733.633	52.63
733.814	53.15
733.995	53.47
734.177	52.64
734.358	52.41
734.539	52.83
734.721	52.41
734.902	52.86
735.083	54.39
735.264	55.04
735.446	54.79
735.627	55.17
735.808	54.84
735.989	55.06
736.17	55.83
736.351	56.01
736.533	55.66
736.714	56.61
736.895	57.13
737.076	55.81
737.257	55.4
737.438	55.83
737.619	54.89
737.8	54.84
737.981	54.78
738.162	55.18
738.343	55.37
738.524	55.79
738.705	55.97
738.886	55.95
739.067	56.17
739.247	56.16
739.428	55.29
739.609	55.86
739.79	56.15
739.971	55.92
740.151	55.25
740.332	55.48
740.513	55.53
740.694	53.92
740.874	53.49
741.055	54.2
741.236	53.51
741.417	53.33
741.597	54.16
741.778	53.81
741.958	54.08
742.139	55.27
742.32	55.43
742.5	55.09
742.681	56.89
742.861	57.23
743.042	56.64
743.222	57.63
743.403	59.62
743.583	59.54
743.764	59.92
743.944	59.29
744.124	57.81
744.305	56.68
744.485	57.07
744.666	56.14
744.846	55.14
745.026	55.88
745.207	55.11
745.387	53.05
745.567	52.54
745.747	52.81
745.928	54.45
746.108	55.52
746.288	55.73
746.468	55.97
746.648	55.65
746.829	57.06
747.009	56.17
747.189	57.15
747.369	57.77
747.549	57.47
747.729	57.55
747.909	56.49
748.089	55.77
748.269	56.04
748.449	55.1
748.629	55.89
748.809	55.11
748.989	55.13
749.169	54.38
749.349	54.32
749.529	54.33
749.709	53.62
749.889	54.38
750.068	55.51
750.248	55.57
750.428	54.6
750.608	53.97
750.788	53.71
750.967	53.84
751.147	54.12
751.327	54.01
751.507	54.34
751.686	55.18
751.866	54.4
752.046	54.16
752.225	53.73
752.405	55.94
752.585	55.71
752.764	55.46
752.944	55.2
753.123	55.28
753.303	55.88
753.482	56.36
753.662	56.13
753.841	56.99
754.021	57.03
754.2	57.75
754.38	57.07
754.559	57.51
754.739	57.63
754.918	58.06
755.097	58.14
755.277	57.67
755.456	56.82
755.635	56.37
755.815	55.69
755.994	54.9
756.173	55.03
756.352	54.73
756.532	54.81
756.711	55.34
756.89	54.52
757.069	53.24
757.248	54.5
757.427	53.93
757.607	53.69
757.786	53.89
757.965	54.5
758.144	54.77
758.323	54.23
758.502	54.3
758.681	54.53
758.86	55.62
759.039	56.53
759.218	55.65
759.397	55.5
759.576	55.91
759.755	55.78
759.934	54.62
760.113	53.22
760.291	53.37
760.47	54.16
760.649	54.12
760.828	53.61
761.007	54.03
761.186	54.11
761.364	55.59
761.543	55.55
761.722	54.68
761.901	55.03
762.079	56.09
762.258	56.6
762.437	55.61
762.615	55.53
762.794	55.89
762.972	55.57
763.151	55.44
763.33	55.56
763.508	55.43
763.687	56.53
763.865	56.43
764.044	55.79
764.222	55.82
764.401	55.64
764.579	55.12
764.758	55.43
764.936	55.73
765.114	56.22
765.293	55.71
765.471	55.93
765.65	56.37
765.828	56.65
766.006	57.3
766.184	56.36
766.363	57.22
766.541	58.11
766.719	57.72
766.898	58.38
767.076	57.77
767.254	57.94
767.432	58.28
767.61	56.48
767.788	56.8
767.967	56.72
768.145	58.14
768.323	57.67
768.501	57.33
768.679	56.65
768.857	56.76
769.035	56.85
769.213	55.81
769.391	55.81
769.569	57.01
769.747	57.47
769.925	57.16
770.103	56.93
770.281	57.93
770.459	57.38
770.636	58.01
770.814	58.01
770.992	57.91
771.17	59.09
771.348	57.37
771.525	57.48
771.703	56.97
771.881	56.06
772.059	54.1
772.236	52.69
772.414	53.7
772.592	52.65
772.769	52.63
772.947	52.9
773.125	54.77
773.302	55.95
773.48	55.97
773.657	56.31
773.835	57.27
774.013	58.65
774.19	59.44
774.368	58.5
774.545	58.96
774.723	57.42
774.9	57.28
775.077	55.4
775.255	56.11
775.432	55.16
775.61	55.9
775.787	56.18
775.964	57.07
776.142	57.67
776.319	58.05
776.496	58.24
776.674	58.09
776.851	56.46
777.028	56.18
777.205	56.6
777.382	55.69
777.56	54.71
777.737	54.92
777.914	54.4
778.091	53.89
778.268	53.05
778.445	53.17
778.622	53.96
778.8	54.77
778.977	55.39
779.154	47.72
779.331	49.76
779.508	50.44
779.685	50.62
779.862	51.56
780.038	51.72
780.215	52.87
780.392	53.84
780.569	53.73
780.746	53.87
780.923	52.6
781.1	59.69
781.277	59.25
781.453	57.29
781.63	56.14
781.807	52.9
781.984	51.17
782.16	51.75
782.337	49.32
782.514	51.31
782.691	52.61
782.867	52.48
783.044	54.47
783.221	53.41
783.397	55.52
783.574	57.69
783.75	61.01
783.927	61.65
784.103	61.91
784.28	61.54
784.456	59.38
784.633	58.73
784.809	59.58
784.986	56.57
785.162	58.01
785.339	58.83
785.515	58.67
785.692	57.21
785.868	55.41
786.044	54.43
786.221	56.8
786.397	55.09
786.573	54.97
786.749	54.91
786.926	56.52
787.102	55.71
787.278	53.8
787.454	52.02
787.631	51.94
787.807	54.32
787.983	55.78
788.159	55
788.335	55.79
788.511	55.13
788.687	56.08
788.863	55.9
789.039	55.18
789.216	56.57
789.392	56.59
789.568	56.83
789.744	55.98
789.919	55.79
790.095	56.78
790.271	57.73
790.447	57.74
790.623	54.72
790.799	54.29
790.975	54.84
791.151	52.96
791.327	54.14
791.502	53.38
791.678	54.03
791.854	52.7
792.03	51.71
792.205	51.12
792.381	51.27
792.557	55.23
792.733	54.84
792.908	55.42
793.084	55.2
793.259	52.05
793.435	52.2
793.611	51.61
793.786	51.25
793.962	50.42
794.137	51.09
794.313	51.33
794.488	49.34
794.664	51.07
794.839	51.03
795.015	50.83
795.19	54.76
795.366	56.47
795.541	56.94
795.716	55.9
795.892	57.2
796.067	55.64
796.242	54.62
796.418	53.43
796.593	52.85
796.768	53.15
796.944	53.71
797.119	53.02
797.294	51.92
797.469	52.8
797.644	54.66
797.82	55.77
797.995	55.67
798.17	57.78
798.345	59.89
798.52	59.27
798.695	57.63
798.87	58.36
799.045	58.67
799.22	59.72
799.395	58.89
799.57	58.67
799.745	59.02
799.92	59.52
800.095	60.61
800.27	61.65
800.445	61.91
800.62	62.58
800.795	63.1
800.97	61.7
801.145	61.35
801.319	61.99
801.494	59.72
801.669	58.27
801.844	59.3
802.018	56.35
802.193	53.91
802.368	54.06
802.543	53.49
802.717	52.93
802.892	53.43
803.067	53.48
803.241	53.66
803.416	54.86
803.59	53.85
803.765	53.38
803.94	54.98
804.114	55.99
804.289	57.49
804.463	58.95
804.638	59.48
804.812	58.62
804.986	60.17
805.161	60.99
805.335	62.17
805.51	63.19
805.684	62.8
805.858	62.16
806.033	63.7
806.207	62.25
806.381	62.83
806.556	63
806.73	63.21
806.904	61.19
807.078	61.29
807.253	62.37
807.427	62.54
807.601	62.57
807.775	60.42
807.949	58.77
808.123	56.78
808.298	55.53
808.472	55.44
808.646	56.77
808.82	57.9
808.994	56.45
809.168	54.17
809.342	54.38
809.516	53.82
809.69	55.93
809.864	54.08
810.038	55.37
810.212	53.95
810.385	50.62
810.559	49.38
810.733	48.31
810.907	49.01
811.081	48.34
811.255	49.18
811.428	50.49
811.602	51.27
811.776	54.11
811.95	50.76
812.123	51.56
812.297	52.82
812.471	53.04
812.644	51.42
812.818	51.16
812.992	53.73
813.165	51.31
813.339	48.99
813.512	47.9
813.686	45.68
813.86	51.09
814.033	52.16
814.207	52.73
814.38	52.14
814.554	54.66
814.727	54.41
814.9	50.78
815.074	50.69
815.247	54.49
815.421	54.18
815.594	54.27
815.767	53.37
815.941	54.88
816.114	56.27
816.287	58.42
816.46	59.29
816.634	57.9
816.807	62.09
816.98	66.62
817.153	67.39
817.327	67.48
817.5	66.98
817.673	69.71
817.846	68.34
818.019	68.41
818.192	68.07
818.365	66.51
818.538	68.57
818.711	66.51
818.884	63.5
819.057	60.5
819.23	58.82
819.403	61.27
819.576	57.78
819.749	58.08
819.922	57.05
820.095	56.56
820.268	56.85
820.441	57.07
820.614	57.28
820.786	58.27
820.959	59.82
821.132	60.72
821.305	59.06
821.477	60
821.65	59.03
821.823	57.25
821.996	57.3
822.168	58.12
822.341	57.74
822.514	57.6
822.686	57.05
822.859	57.04
823.031	56.53
823.204	56.65
823.376	56.47
823.549	56.57
823.722	57.2
823.894	57.13
824.067	56.08
824.239	55.96
824.411	55.84
824.584	55.79
824.756	54.99
824.929	55.37
825.101	55.27
825.273	54.88
825.446	54.49
825.618	54.88
825.79	54.64
825.963	55.15
826.135	55.97
826.307	56.12
826.479	55.89
826.652	56.05
826.824	55.09
826.996	54.92
827.168	54.15
827.34	54.94
827.512	54.78
827.684	55
827.856	54.68
828.029	53.77
828.201	54.08
828.373	54.46
828.545	54.25
828.717	55.78
828.889	56.01
829.061	57.42
829.232	56.59
829.404	56.2
829.576	56.23
829.748	57.8
829.92	57.48
830.092	56.95
830.264	56.63
830.436	56.16
830.607	55.37
830.779	56.21
830.951	55.16
831.123	54.7
831.294	55.76
831.466	55.9
831.638	52.85
831.809	53.33
831.981	54.17
832.153	55.79
832.324	56.22
832.496	57.08
832.667	52.86
832.839	54
833.011	56.23
833.182	53.69
833.354	53.2
833.525	54.77
833.697	55.89
833.868	53.23
834.039	53.57
834.211	52.72
834.382	52.72
834.554	55.73
834.725	55.51
834.896	55.17
835.068	55.48
835.239	55.24
835.41	53.85
835.581	52.61
835.753	53.65
835.924	51.62
836.095	52.81
836.266	52.12
836.438	50.35
836.609	50.43
836.78	49.29
836.951	52.69
837.122	54.16
837.293	54.7
837.464	55.93
837.635	57.9
837.806	59.51
837.977	58.95
838.148	59.39
838.319	61.51
838.49	61.35
838.661	62.43
838.832	60.33
839.003	55.92
839.174	57.65
839.345	55.82
839.516	55.68
839.687	54.64
839.857	56.16
840.028	56.53
840.199	54.15
840.37	53.29
840.54	54.47
840.711	51.19
840.882	56.14
841.053	57.54
841.223	56.64
841.394	57.36
841.564	57.8
841.735	58.36
841.906	57.51
842.076	55.66
842.247	55.02
842.417	52.55
842.588	54.33
842.758	51.86
842.929	48.24
843.099	51.17
843.27	50.76
843.44	46.57
843.611	47.12
843.781	50.81
843.951	56.04
844.122	55.97
844.292	54.65
844.462	51.41
844.633	55.74
844.803	58.83
844.973	58.7
845.144	54.18
845.314	64.58
845.484	57.75
845.654	51.02
845.824	59.65
845.995	68.49
846.165	70.92
846.335	75.1
846.505	63.35
846.675	58.34
846.845	47.73
847.015	52.01
847.185	45.61
847.355	48.63
847.525	51.86
847.695	41.59
847.865	37.38
848.035	38.18
848.205	40.6
848.375	42.41
848.545	45.08
848.715	51.09
848.884	50.31
849.054	54.21
849.224	65.21
849.394	60.95
849.564	64.3
849.733	63.72
849.903	63.04
850.073	56.23
850.243	59.43
850.412	55.75
850.582	45.18
850.752	46.34
850.921	32.81
851.091	21.88
851.26	30.68
851.43	17.43
851.599	10.18
851.769	18.18
851.939	21.19
852.108	24.53
852.278	30.71
852.447	41.31
852.616	38.69
852.786	34.07
852.955	48.96
853.125	44.09
853.294	44.35
853.463	51.01
853.633	46.47
853.802	49.78
853.971	50.98
854.141	46.83
854.31	39.86
854.479	38.3
854.648	43.22
854.818	26.84
854.987	27.89
855.156	30.63
855.325	32.33
855.494	27.91
855.663	22.55
855.832	18.45
856.001	24.78
856.171	27.14
856.34	35.2
856.509	44.34
856.678	46.66
856.847	47.86
857.016	49.69
857.185	47.44
857.353	56.15
857.522	58.39
857.691	62.27
857.86	55.01
858.029	57.54
858.198	49.62
858.367	42.14
858.535	35.75
858.704	31.3
858.873	30.45
859.042	22.78
859.21	15.13
859.379	16.29
859.548	12.84
859.717	13.81
859.885	19.21
860.054	27.24
860.222	32.6
860.391	41.53
860.56	44.48
860.728	49.29
860.897	52.31
861.065	60.82
861.234	74.67
861.402	74.05
861.571	74.28
861.739	59.03
861.908	61.23
862.076	65.27
862.244	56.19
862.413	58.95
862.581	64.15
862.749	64.33
862.918	63.12
863.086	56.33
863.254	54.82
863.423	46.45
863.591	60.86
863.759	64.45
863.927	63.64
864.096	70.15
864.264	62.84
864.432	49.67
864.6	58.06
864.768	52.85
864.936	44.2
865.104	39.84
865.272	42.88
865.44	34.29
865.608	33.51
865.776	32.72
865.944	35.34
866.112	37.84
866.28	42.12
866.448	35.29
866.616	43.43
866.784	48.93
866.952	50.82
867.12	58.04
867.288	54.3
867.455	57.27
867.623	61.1
867.791	54.62
867.959	51.63
868.127	52.71
868.294	55.89
868.462	58.55
868.63	63.48
868.797	65
868.965	58.3
869.133	64.25
869.3	55.22
869.468	50.78
869.636	52.96
869.803	60.28
869.971	54.99
870.138	57.33
870.306	55.07
870.473	49.83
870.641	51.85
870.808	62.48
870.975	57.81
871.143	57.87
871.31	64.02
871.478	68.71
871.645	60.56
871.812	56.2
871.98	51.89
872.147	44.7
872.314	42.81
872.482	39.87
872.649	40.88
872.816	47.46
872.983	45.01
873.15	39.32
873.318	37.38
873.485	45.32
873.652	56.71
873.819	53.14
873.986	45.28
874.153	40.13
874.32	44.14
874.487	31.69
874.654	32.26
874.821	32.94
874.988	26.54
875.155	35.05
875.322	26.45
875.489	15.6
875.656	18.93
875.823	27.78
875.99	35.5
876.157	28.66
876.324	38.23
876.49	40.88
876.657	44.82
876.824	59.49
876.991	62.28
877.157	65.63
877.324	72.08
877.491	74.85
877.658	67.3
877.824	62.6
877.991	55.34
878.157	54.2
878.324	48.64
878.491	50.33
878.657	41.29
878.824	35.96
878.99	37.37
879.157	37.34
879.323	36.05
879.49	37.44
879.656	44.78
879.823	54.31
879.989	51.67
880.156	52.23
880.322	53.78
880.488	51.37
880.655	49.65
880.821	47.62
880.987	48.54
881.154	45.49
881.32	47.27
881.486	43.98
881.652	44.28
881.819	45.83
881.985	47.27
882.151	46.82
882.317	50.09
882.483	49.87
882.649	51.44
882.816	51.9
882.982	52.8
883.148	53.04
883.314	53.63
883.48	55.26
883.646	53.32
883.812	53.2
883.978	52.61
884.144	52.06
884.31	52.17
884.476	51.99
884.642	52.32
884.807	53.78
884.973	54.18
885.139	55.4
885.305	54.9
885.471	56.89
885.637	55.09
885.802	54.72
885.968	52.27
886.134	51.91
886.3	51.6
886.465	49.25
886.631	44.36
886.797	42.34
886.962	35.3
887.128	31.26
887.293	29.27
887.459	29.03
887.625	28.74
887.79	32.1
887.956	31.36
888.121	27.99
888.287	28.2
888.452	29.4
888.618	28.28
888.783	36.41
