Data from LC_210__Reflection_1.txt Node
Date: Thu Nov 19 12:16:06 EST 2015
User: robert
Spectrometer: USB4E03001
Autoset integration time: false
Trigger mode: 4
Integration Time (sec): 1.000000E-1
Scans to average: 15
Electric dark correction enabled: true
Nonlinearity correction enabled: false
Boxcar width: 5
Stray light correction enabled: false
XAxis mode: Wavelengths
Stop averaging: false
Number of Pixels in Spectrum: 3648
>>>>>Begin Spectral Data<<<<<
177.566	-624.41
177.785	633.6
178.005	-161.67
178.225	54.26
178.445	92.87
178.665	60.34
178.885	73.85
179.105	148.35
179.324	92.23
179.544	264.73
179.764	12.63
179.984	-796.25
180.204	-251.55
180.423	-89.09
180.643	20.1
180.863	55.71
181.083	52.75
181.302	13.1
181.522	19.93
181.742	24.76
181.961	7.17
182.181	-6.29
182.401	27.62
182.621	-29.65
182.84	16.74
183.06	17.89
183.279	13.92
183.499	29.77
183.719	42.4
183.938	16.02
184.158	-8.58
184.377	54.85
184.597	119.87
184.816	-173.12
185.036	-49.7
185.256	32.09
185.475	52.13
185.695	63.67
185.914	85.01
186.134	72.95
186.353	52.87
186.572	108.7
186.792	207.54
187.011	-726.68
187.231	-622.2
187.45	-325.87
187.67	-191.64
187.889	-137.45
188.108	-910.11
188.328	-78.45
188.547	-228.65
188.766	1170.49
188.986	201.84
189.205	177.47
189.424	133.67
189.644	182.89
189.863	251.99
190.082	174.81
190.302	137.62
190.521	239.9
190.74	211.95
190.959	1020.74
191.178	901.15
191.398	671
191.617	642.74
191.836	437.22
192.055	140.58
192.274	142.91
192.494	76.12
192.713	123.8
192.932	114.62
193.151	267.74
193.37	154.7
193.589	213.81
193.808	-463.77
194.027	1456.2
194.246	748.29
194.465	-924.68
194.685	4503.85
194.904	-273.84
195.123	-1515.57
195.342	-364.48
195.561	-194.37
195.78	-1521.3
195.999	-736.21
196.218	762.61
196.436	-9276.92
196.655	938.46
196.874	113.63
197.093	203.63
197.312	186.84
197.531	470.41
197.75	1126.35
197.969	321.86
198.188	-2795.38
198.407	-138.61
198.625	-74.36
198.844	-35.32
199.063	53.01
199.282	10.11
199.501	19.86
199.719	33.39
199.938	51.98
200.157	-8.85
200.376	-33.9
200.594	-56.38
200.813	-79.2
201.032	-85.03
201.251	-120.91
201.469	-212.78
201.688	-163.48
201.907	-128.47
202.125	-111.11
202.344	-47.71
202.563	-23.81
202.781	-7.09
203	-16.89
203.218	-24.13
203.437	-133.97
203.656	-192.79
203.874	-842.76
204.093	-338.81
204.311	46.43
204.53	64.33
204.748	78.11
204.967	55.34
205.185	72.66
205.404	71.66
205.622	106.22
205.841	98.29
206.059	180.43
206.278	-65.09
206.496	-0.37
206.715	1862.69
206.933	-63.7
207.151	23.37
207.37	42.26
207.588	66.46
207.806	27.85
208.025	49.14
208.243	-12.15
208.461	-224.42
208.68	-367.13
208.898	-140.09
209.116	4213.46
209.335	-66.57
209.553	177.41
209.771	195.14
209.989	360.89
210.208	59.97
210.426	8.61
210.644	79.07
210.862	118.29
211.081	52.67
211.299	92.77
211.517	75.08
211.735	1543.27
211.953	132.85
212.171	54.2
212.39	31.82
212.608	-11.93
212.826	-21.21
213.044	-115.41
213.262	-121.39
213.48	-45.32
213.698	-130.55
213.916	-53.52
214.134	-49.17
214.352	-50.78
214.57	-6.17
214.788	-157.72
215.006	778.37
215.224	30.83
215.442	-24.84
215.66	64.66
215.878	36.63
216.096	-8.66
216.314	-8.14
216.532	34.14
216.75	33.3
216.968	51.11
217.185	45.69
217.403	50.91
217.621	64.29
217.839	43.55
218.057	62.72
218.275	90.04
218.492	106.03
218.71	86.14
218.928	58.84
219.146	53.74
219.363	38.06
219.581	44.6
219.799	42.02
220.017	68.57
220.234	104.23
220.452	81.87
220.67	-19.49
220.887	44.07
221.105	52.51
221.323	70.21
221.54	45.1
221.758	104.53
221.976	62.13
222.193	63.07
222.411	48.91
222.629	43.26
222.846	53.33
223.064	68.76
223.281	69.34
223.499	101.56
223.716	123.95
223.934	163.94
224.151	139.51
224.369	151.06
224.586	151.38
224.804	303.77
225.021	197.1
225.239	142.06
225.456	103.46
225.674	113.13
225.891	63.59
226.108	72.83
226.326	52.09
226.543	47.67
226.76	53.75
226.978	21.91
227.195	24.93
227.413	15
227.63	21.88
227.847	22.45
228.064	19.38
228.282	17.07
228.499	14.25
228.716	15.02
228.934	17.27
229.151	15.5
229.368	20.07
229.585	24.13
229.802	26.23
230.02	24.87
230.237	26.45
230.454	26.19
230.671	23.63
230.888	25.6
231.105	25
231.323	26.5
231.54	28.73
231.757	31.03
231.974	31.25
232.191	36.51
232.408	33.22
232.625	34.25
232.842	42.6
233.059	43.06
233.276	44.38
233.493	46.26
233.71	46.26
233.927	39.23
234.144	35.25
234.361	29.11
234.578	19.89
234.795	25.74
235.012	26.02
235.229	17.19
235.446	19.06
235.663	9.68
235.879	18.87
236.096	15.5
236.313	19.77
236.53	17.99
236.747	25.62
236.964	25.59
237.181	29.21
237.397	26.96
237.614	31.06
237.831	30.98
238.048	37.67
238.264	29.79
238.481	34.73
238.698	37.61
238.915	42.58
239.131	37.77
239.348	40.44
239.565	39.9
239.781	38.33
239.998	36.15
240.215	36.47
240.431	35.14
240.648	32.58
240.865	31.51
241.081	30.31
241.298	26.88
241.514	25.27
241.731	24.45
241.947	23.27
242.164	21.18
242.38	21.24
242.597	19.74
242.814	20.34
243.03	19.06
243.246	16.12
243.463	15.12
243.679	15.67
243.896	17.48
244.112	18.44
244.329	17.86
244.545	20.77
244.762	18.92
244.978	21.52
245.194	20.1
245.411	20.54
245.627	23.38
245.843	25.06
246.06	24.13
246.276	21.29
246.492	19.73
246.709	18.92
246.925	18.04
247.141	17.69
247.357	16.89
247.574	16.73
247.79	16.5
248.006	15.58
248.222	14.21
248.439	13.23
248.655	13.6
248.871	14.12
249.087	13.51
249.303	13.17
249.519	13.37
249.736	12.23
249.952	12.77
250.168	14.62
250.384	15.48
250.6	17.26
250.816	18.05
251.032	18.22
251.248	16.17
251.464	16.52
251.68	17.64
251.896	18.22
252.112	18.14
252.328	16.69
252.544	15.36
252.76	16.25
252.976	17.41
253.192	17.51
253.408	18.58
253.624	19.37
253.84	19.54
254.056	20.41
254.272	21.3
254.487	22.43
254.703	22.85
254.919	23.58
255.135	24.15
255.351	20.8
255.567	18.07
255.782	16.77
255.998	14.42
256.214	12.75
256.43	16.1
256.646	16.49
256.861	16.19
257.077	17.73
257.293	16.69
257.508	15.31
257.724	17.98
257.94	20.16
258.155	19.66
258.371	19.66
258.587	20.61
258.802	18.55
259.018	17.3
259.234	16.57
259.449	16.4
259.665	16.45
259.88	16.02
260.096	14.42
260.312	14.29
260.527	13.52
260.743	13.56
260.958	13.32
261.174	12.24
261.389	11.76
261.605	12.19
261.82	12.36
262.036	11.41
262.251	11.39
262.466	12.1
262.682	11.89
262.897	13.48
263.113	14.5
263.328	13.52
263.543	12.72
263.759	14.7
263.974	14.41
264.189	11.36
264.405	11.46
264.62	11.31
264.835	10.16
265.051	8.59
265.266	7.75
265.481	6.45
265.696	7.28
265.912	9.72
266.127	10.94
266.342	10.09
266.557	10.16
266.773	13.07
266.988	13.17
267.203	13.78
267.418	14.5
267.633	15.7
267.848	16.38
268.064	15.81
268.279	14.29
268.494	12.4
268.709	13.26
268.924	14.74
269.139	13.32
269.354	12.65
269.569	12.44
269.784	12.15
269.999	11.48
270.214	11.94
270.429	13.93
270.644	15.28
270.859	16.15
271.074	16.52
271.289	16.43
271.504	15.87
271.719	16.18
271.934	15.46
272.149	15.96
272.363	15.56
272.578	14.64
272.793	13.42
273.008	13.42
273.223	12.59
273.438	12.59
273.653	12
273.867	13.18
274.082	13.66
274.297	16.14
274.512	16.2
274.726	16.56
274.941	17.94
275.156	18.68
275.371	18.67
275.585	19.27
275.8	18
276.015	19.1
276.229	18.34
276.444	18.32
276.659	15.58
276.873	14.63
277.088	13.37
277.302	12.49
277.517	12.06
277.732	12.68
277.946	10.41
278.161	10.73
278.375	8.59
278.59	7.93
278.804	7.35
279.019	9.62
279.233	10.21
279.448	11.01
279.662	10.43
279.877	10.04
280.091	9.9
280.306	12.64
280.52	13.37
280.735	15.76
280.949	16.7
281.163	17.02
281.378	16.13
281.592	16.17
281.806	16.43
282.021	18.16
282.235	18.57
282.449	18.44
282.664	18.1
282.878	19.1
283.092	18.83
283.307	19.48
283.521	18.65
283.735	18.41
283.949	19.28
284.164	18.69
284.378	17.85
284.592	18.67
284.806	19.09
285.02	17.47
285.234	15.88
285.449	15.18
285.663	13.06
285.877	13.54
286.091	13.52
286.305	12.17
286.519	13
286.733	12.29
286.947	11.06
287.161	9.6
287.375	10.9
287.589	10.38
287.803	9.73
288.017	10.74
288.231	9.93
288.445	9.34
288.659	9.71
288.873	9.22
289.087	9.34
289.301	8.6
289.515	8.92
289.729	8.17
289.943	9.13
290.157	9.98
290.371	10.49
290.584	11.51
290.798	13.17
291.012	14.14
291.226	13.98
291.44	14.12
291.654	14.48
291.867	15.66
292.081	16.26
292.295	16.11
292.509	16.09
292.722	16.55
292.936	17.2
293.15	17.53
293.364	16.26
293.577	17.16
293.791	17.54
294.005	17.49
294.218	17.39
294.432	18.57
294.645	18.11
294.859	17.36
295.073	15.94
295.286	15.41
295.5	14.01
295.713	14.25
295.927	13.78
296.14	13.95
296.354	15.05
296.568	14.73
296.781	13.79
296.994	13.73
297.208	14.44
297.421	14.72
297.635	15.09
297.848	15.51
298.062	16.06
298.275	16.12
298.489	16.49
298.702	16.76
298.915	17.34
299.129	18.5
299.342	19.38
299.555	20.31
299.769	21.41
299.982	21.76
300.195	21.38
300.409	20.83
300.622	21.9
300.835	20.93
301.048	21.21
301.262	21.25
301.475	20.92
301.688	20.66
301.901	19.11
302.115	19.05
302.328	18.64
302.541	19.4
302.754	20.22
302.967	18.51
303.18	20.04
303.393	19.59
303.607	18.97
303.82	19.04
304.033	18.42
304.246	19.92
304.459	18.89
304.672	19.1
304.885	17.98
305.098	17.42
305.311	18.7
305.524	17.18
305.737	17.55
305.95	17.11
306.163	15.92
306.376	16.55
306.589	15.82
306.802	15.34
307.015	14.45
307.228	15.02
307.44	14.33
307.653	13.67
307.866	13.83
308.079	12.49
308.292	13.22
308.505	13.93
308.718	14.36
308.93	13.75
309.143	14.1
309.356	13.64
309.569	14.26
309.781	15.02
309.994	15.22
310.207	15.7
310.42	16.87
310.632	16.75
310.845	17.16
311.058	16.97
311.27	17.25
311.483	17.81
311.696	18.25
311.908	18.11
312.121	16.57
312.333	15.69
312.546	15.18
312.759	15.49
312.971	15.43
313.184	14.4
313.396	14.26
313.609	14.35
313.821	13.93
314.034	13.61
314.246	12.95
314.459	15.56
314.671	17.84
314.884	17.03
315.096	15.64
315.309	15.31
315.521	15.88
315.733	15.99
315.946	16.65
316.158	17.09
316.371	18.22
316.583	17.93
316.795	16.65
317.008	15.7
317.22	15.9
317.432	15.56
317.644	15.29
317.857	15.9
318.069	16.22
318.281	16.4
318.494	15.51
318.706	15.37
318.918	16.56
319.13	17.06
319.342	16.3
319.555	17.5
319.767	17.61
319.979	17.79
320.191	17.22
320.403	17.94
320.615	16.57
320.827	17.53
321.039	17.01
321.252	15.58
321.464	15.19
321.676	15.92
321.888	15.51
322.1	14.99
322.312	14.89
322.524	15.06
322.736	13.3
322.948	12.43
323.16	11.59
323.372	12.05
323.584	13.48
323.796	11.65
324.007	10.5
324.219	11.01
324.431	11.7
324.643	12.46
324.855	12.4
325.067	13.17
325.279	13.8
325.491	15.27
325.702	14.71
325.914	13.49
326.126	16.3
326.338	17.24
326.55	16.56
326.761	17.08
326.973	17.23
327.185	17.39
327.396	17.82
327.608	17.53
327.82	17.83
328.032	17.8
328.243	19.34
328.455	18.19
328.666	19.62
328.878	20.35
329.09	19.83
329.301	20.53
329.513	21.36
329.725	21.9
329.936	22.6
330.148	22.61
330.359	22.98
330.571	24.02
330.782	24.95
330.994	23.7
331.205	23.81
331.417	23.98
331.628	23.39
331.84	22.85
332.051	22.52
332.262	22.3
332.474	21.45
332.685	21.89
332.897	21.32
333.108	20.6
333.319	21.31
333.531	21.21
333.742	22.08
333.953	23.3
334.165	22.53
334.376	22.13
334.587	22.91
334.799	23.15
335.01	22.76
335.221	22.55
335.432	22.99
335.644	22.91
335.855	23.4
336.066	22.53
336.277	21.21
336.488	21.99
336.7	22.12
336.911	22.65
337.122	21.94
337.333	21.98
337.544	22.24
337.755	22.61
337.966	22.41
338.177	22.2
338.388	22.9
338.599	23.16
338.811	23.61
339.022	22.55
339.233	22.14
339.444	22.96
339.655	22.87
339.866	23
340.076	22.89
340.287	22.41
340.498	21.56
340.709	21.61
340.92	21.57
341.131	21.28
341.342	21.9
341.553	21.22
341.764	21.18
341.975	21.68
342.185	20.74
342.396	19.79
342.607	20.02
342.818	20.88
343.029	19.74
343.239	19.43
343.45	19.15
343.661	19.51
343.872	19.12
344.082	18.85
344.293	18.33
344.504	20.32
344.714	20.88
344.925	21.14
345.136	20.82
345.346	21.54
345.557	22.24
345.768	22.44
345.978	22.82
346.189	22.67
346.399	22.33
346.61	22.87
346.821	20.5
347.031	20.28
347.242	19.22
347.452	19.73
347.663	19.1
347.873	19.46
348.084	19.75
348.294	19.42
348.504	20.24
348.715	20.9
348.925	20.79
349.136	21.16
349.346	20.63
349.557	20.94
349.767	20.34
349.977	20.54
350.188	19.67
350.398	18.7
350.608	18.53
350.819	17.66
351.029	16.98
351.239	16.95
351.449	17.63
351.66	18.6
351.87	18.91
352.08	19.02
352.29	19.29
352.501	18.75
352.711	18.79
352.921	18.08
353.131	19.15
353.341	19.97
353.552	19.92
353.762	19.57
353.972	18.63
354.182	19.65
354.392	19.76
354.602	20.31
354.812	20.03
355.022	20.53
355.232	20.79
355.442	20.73
355.652	19.96
355.862	19.47
356.072	19.1
356.282	19.53
356.492	18.16
356.702	18.31
356.912	17.49
357.122	18.15
357.332	17.95
357.542	17.64
357.752	17.35
357.962	17.08
358.171	17.68
358.381	17.48
358.591	17.56
358.801	18.62
359.011	18.11
359.221	18.31
359.43	18.39
359.64	18.81
359.85	19.36
360.06	19.55
360.269	19.95
360.479	19.79
360.689	19.96
360.899	19.51
361.108	19.12
361.318	19.44
361.528	18.86
361.737	18.79
361.947	18.51
362.156	17.93
362.366	18.08
362.576	18.02
362.785	17.68
362.995	17.97
363.204	18.32
363.414	17.95
363.623	17.45
363.833	17.69
364.042	17.5
364.252	17.24
364.461	17.56
364.671	17.38
364.88	17.31
365.09	17.45
365.299	17.11
365.509	16.81
365.718	16.51
365.927	17.2
366.137	17.58
366.346	17.25
366.555	16.89
366.765	16.81
366.974	16.87
367.183	17.15
367.393	16.69
367.602	16.36
367.811	16.44
368.021	16.54
368.23	15.84
368.439	15.54
368.648	15.69
368.857	16.24
369.067	16.68
369.276	16.22
369.485	15.87
369.694	16.32
369.903	16.57
370.112	16.55
370.321	16.67
370.531	17.11
370.74	17
370.949	17.07
371.158	16.97
371.367	16.4
371.576	16.37
371.785	15.98
371.994	15.85
372.203	16.01
372.412	15.97
372.621	16.06
372.83	15.87
373.039	15.96
373.248	16.25
373.457	15.85
373.666	15.75
373.874	15.07
374.083	15.29
374.292	15.47
374.501	14.91
374.71	14.79
374.919	14.75
375.128	14.62
375.336	14.5
375.545	13.81
375.754	14.14
375.963	14.83
376.171	15.57
376.38	15.91
376.589	15.44
376.798	15.32
377.006	15.45
377.215	15.39
377.424	15.17
377.632	15.26
377.841	15.28
378.05	15.52
378.258	14.93
378.467	14.63
378.675	14.15
378.884	14.16
379.093	14.45
379.301	14.37
379.51	14.08
379.718	14.25
379.927	13.89
380.135	13.92
380.344	13.02
380.552	12.83
380.761	12.53
380.969	12.94
381.177	13.23
381.386	13.77
381.594	13.59
381.803	13.72
382.011	13.93
382.219	14.24
382.428	14.21
382.636	14.44
382.845	14.62
383.053	14.92
383.261	14.6
383.469	14
383.678	13.21
383.886	13.1
384.094	12.98
384.302	12.53
384.511	12.41
384.719	12.45
384.927	12.07
385.135	11.99
385.343	12.3
385.552	12.11
385.76	12.17
385.968	12.28
386.176	12.46
386.384	12.31
386.592	12.28
386.8	12.06
387.008	12.22
387.216	12.73
387.424	13.16
387.633	12.88
387.841	13.08
388.049	13.54
388.257	13.52
388.465	13.22
388.672	13.4
388.88	13.3
389.088	13.36
389.296	13
389.504	12.85
389.712	12.55
389.92	12.56
390.128	12.44
390.336	11.98
390.544	11.67
390.751	11.66
390.959	11.73
391.167	11.8
391.375	11.87
391.583	11.8
391.79	12.03
391.998	11.71
392.206	11.46
392.414	11.23
392.621	11.21
392.829	11.54
393.037	11.62
393.244	11.39
393.452	11.35
393.66	11.16
393.867	11.46
394.075	11.13
394.283	11.54
394.49	11.59
394.698	12.16
394.905	12.1
395.113	11.97
395.32	11.88
395.528	11.76
395.735	11.58
395.943	11.81
396.15	11.22
396.358	11.22
396.565	10.85
396.773	10.91
396.98	10.3
397.188	10.4
397.395	10.21
397.602	9.89
397.81	9.89
398.017	10.17
398.225	10.2
398.432	10.55
398.639	10.42
398.847	10.53
399.054	10.52
399.261	10.7
399.468	10.5
399.676	10.66
399.883	10.9
400.09	11.06
400.297	10.77
400.505	10.46
400.712	10.8
400.919	10.9
401.126	10.87
401.333	10.86
401.54	10.76
401.748	11.1
401.955	11.12
402.162	11.38
402.369	11.11
402.576	11.23
402.783	11.34
402.99	10.81
403.197	10.77
403.404	10.58
403.611	10.56
403.818	10.61
404.025	10.27
404.232	9.94
404.439	9.82
404.646	9.92
404.853	9.85
405.06	9.61
405.267	9.87
405.474	10.13
405.681	10.1
405.887	10.01
406.094	10.01
406.301	10.03
406.508	10
406.715	9.94
406.922	9.96
407.128	9.96
407.335	9.96
407.542	9.77
407.749	9.46
407.955	9.77
408.162	9.66
408.369	9.61
408.575	9.7
408.782	9.88
408.989	9.7
409.195	9.62
409.402	9.6
409.609	9.95
409.815	9.96
410.022	10.02
410.228	9.75
410.435	9.81
410.642	9.81
410.848	9.67
411.055	9.53
411.261	9.55
411.468	9.71
411.674	9.9
411.881	9.84
412.087	9.95
412.294	9.85
412.5	10.08
412.706	9.93
412.913	9.82
413.119	10.06
413.326	10.43
413.532	10.53
413.738	10.39
413.945	10.14
414.151	9.86
414.357	9.6
414.564	9.51
414.77	9.3
414.976	9.44
415.182	9.39
415.389	9.21
415.595	8.9
415.801	9.15
416.007	9.16
416.214	9.16
416.42	9.12
416.626	9.22
416.832	9.37
417.038	9.32
417.244	9.51
417.45	9.64
417.657	9.69
417.863	9.81
418.069	9.68
418.275	9.83
418.481	9.75
418.687	9.94
418.893	9.79
419.099	9.71
419.305	9.69
419.511	9.38
419.717	9.26
419.923	9.27
420.129	9.07
420.335	8.88
420.541	8.6
420.746	8.65
420.952	8.59
421.158	8.57
421.364	8.43
421.57	8.47
421.776	8.51
421.982	8.5
422.187	8.35
422.393	8.33
422.599	8.38
422.805	8.54
423.01	8.54
423.216	8.46
423.422	8.54
423.628	8.65
423.833	8.65
424.039	8.79
424.245	8.77
424.45	8.8
424.656	8.97
424.862	8.93
425.067	8.82
425.273	8.74
425.478	8.77
425.684	8.86
425.889	8.9
426.095	8.89
426.301	8.9
426.506	8.98
426.712	9.04
426.917	8.87
427.123	9.08
427.328	9.17
427.533	9.31
427.739	9.34
427.944	9.28
428.15	9.16
428.355	9.19
428.561	8.99
428.766	8.86
428.971	8.83
429.177	8.92
429.382	8.74
429.587	8.73
429.793	8.59
429.998	8.57
430.203	8.38
430.408	8.47
430.614	8.26
430.819	8.16
431.024	8.32
431.229	8.36
431.434	8.43
431.64	8.38
431.845	8.49
432.05	8.7
432.255	8.55
432.46	8.67
432.665	8.71
432.87	9.05
433.076	9.14
433.281	8.96
433.486	9.17
433.691	9.13
433.896	9.21
434.101	9.12
434.306	9.08
434.511	8.87
434.716	8.81
434.921	8.69
435.126	8.45
435.331	8.53
435.535	8.56
435.74	8.42
435.945	8.38
436.15	8.46
436.355	8.54
436.56	8.4
436.765	8.72
436.97	8.68
437.174	8.7
437.379	8.66
437.584	8.82
437.789	8.8
437.993	8.88
438.198	8.9
438.403	8.87
438.608	8.78
438.812	8.87
439.017	8.85
439.222	9.04
439.426	9.09
439.631	9.04
439.836	8.75
440.04	8.79
440.245	8.7
440.45	8.77
440.654	8.86
440.859	8.83
441.063	8.85
441.268	8.93
441.472	8.85
441.677	8.83
441.881	8.95
442.086	9.03
442.29	9.06
442.495	9.04
442.699	9.01
442.904	8.83
443.108	8.89
443.312	8.8
443.517	8.51
443.721	8.53
443.925	8.56
444.13	8.55
444.334	8.54
444.538	8.47
444.743	8.44
444.947	8.43
445.151	8.34
445.356	8.31
445.56	8.25
445.764	8.42
445.968	8.46
446.173	8.52
446.377	8.54
446.581	8.47
446.785	8.51
446.989	8.48
447.193	8.46
447.398	8.53
447.602	8.48
447.806	8.61
448.01	8.52
448.214	8.44
448.418	8.27
448.622	8.08
448.826	8.14
449.03	8.14
449.234	8.15
449.438	8.08
449.642	7.93
449.846	8.12
450.05	8
450.254	7.97
450.458	7.96
450.662	7.96
450.866	8.05
451.069	8.21
451.273	8.13
451.477	8.12
451.681	8.23
451.885	8.33
452.089	8.29
452.292	8.38
452.496	8.71
452.7	8.58
452.904	8.61
453.107	8.63
453.311	8.44
453.515	8.48
453.719	8.59
453.922	8.49
454.126	8.42
454.33	8.19
454.533	8.18
454.737	7.86
454.94	7.91
455.144	7.93
455.348	7.88
455.551	7.91
455.755	7.87
455.958	7.73
456.162	7.78
456.365	7.75
456.569	7.88
456.772	8.15
456.976	8.21
457.179	8.21
457.383	8.47
457.586	8.4
457.79	8.41
457.993	8.35
458.196	8.45
458.4	8.45
458.603	8.54
458.807	8.45
459.01	8.28
459.213	8.26
459.417	8.27
459.62	8.08
459.823	8.23
460.026	8.25
460.23	8.26
460.433	8.22
460.636	8.16
460.839	8.21
461.042	8.27
461.246	8.2
461.449	8.13
461.652	8.12
461.855	8.1
462.058	8.03
462.261	8.04
462.464	8.04
462.668	7.95
462.871	7.93
463.074	7.89
463.277	7.9
463.48	7.94
463.683	7.97
463.886	8.01
464.089	8.12
464.292	7.83
464.495	7.7
464.698	7.72
464.901	7.97
465.104	8.03
465.306	7.87
465.509	7.88
465.712	7.9
465.915	7.99
466.118	7.88
466.321	7.78
466.524	8.02
466.726	8.22
466.929	8.33
467.132	8.18
467.335	8.13
467.538	8.15
467.74	8.11
467.943	8.03
468.146	7.88
468.348	7.93
468.551	7.98
468.754	7.93
468.956	7.7
469.159	7.57
469.362	7.57
469.564	7.51
469.767	7.48
469.969	7.58
470.172	7.64
470.375	7.8
470.577	7.67
470.78	7.67
470.982	7.84
471.185	7.93
471.387	7.97
471.59	7.99
471.792	7.98
471.995	8.17
472.197	8.24
472.399	8.13
472.602	8.19
472.804	8.44
473.007	8.43
473.209	8.35
473.411	8.34
473.614	8.4
473.816	8.36
474.018	8.51
474.22	8.43
474.423	8.21
474.625	8.32
474.827	8.33
475.03	8.16
475.232	8.1
475.434	8.05
475.636	8.06
475.838	7.96
476.04	8.06
476.243	8.21
476.445	8.18
476.647	8.36
476.849	8.18
477.051	8.13
477.253	8.01
477.455	8.03
477.657	8.12
477.859	8.14
478.061	8.09
478.263	8.11
478.465	8.07
478.667	8.08
478.869	8
479.071	8.17
479.273	8.15
479.475	8.13
479.677	8.15
479.879	8.09
480.081	8.04
480.283	8.22
480.485	8.11
480.686	8.02
480.888	7.95
481.09	7.84
481.292	7.87
481.494	7.93
481.695	8.04
481.897	7.92
482.099	7.9
482.301	7.93
482.502	7.86
482.704	7.87
482.906	7.82
483.107	7.91
483.309	7.85
483.511	7.79
483.712	7.73
483.914	7.74
484.115	7.74
484.317	7.74
484.519	7.67
484.72	7.62
484.922	7.61
485.123	7.66
485.325	7.61
485.526	7.66
485.728	7.67
485.929	7.67
486.131	7.66
486.332	7.66
486.534	7.64
486.735	7.73
486.936	7.83
487.138	7.84
487.339	7.78
487.541	7.84
487.742	7.82
487.943	7.82
488.144	7.89
488.346	7.87
488.547	7.92
488.748	7.97
488.95	7.88
489.151	7.86
489.352	7.82
489.553	7.82
489.755	7.69
489.956	7.73
490.157	7.77
490.358	7.72
490.559	7.8
490.76	7.75
490.961	7.75
491.163	7.85
491.364	7.81
491.565	7.8
491.766	7.79
491.967	7.86
492.168	7.9
492.369	7.89
492.57	7.91
492.771	7.92
492.972	7.9
493.173	7.9
493.374	7.97
493.575	8
493.776	8.03
493.976	8.12
494.177	8.06
494.378	7.86
494.579	7.85
494.78	7.86
494.981	7.72
495.182	7.94
495.382	7.93
495.583	7.95
495.784	8
495.985	8.16
496.185	8.01
496.386	8.19
496.587	8.35
496.788	8.27
496.988	8.27
497.189	8.47
497.39	8.46
497.59	8.49
497.791	8.37
497.992	8.39
498.192	8.25
498.393	8.42
498.593	8.38
498.794	8.35
498.994	8.46
499.195	8.34
499.395	8.31
499.596	8.25
499.796	8.32
499.997	8.33
500.197	8.4
500.398	8.48
500.598	8.47
500.799	8.39
500.999	8.47
501.199	8.47
501.4	8.61
501.6	8.48
501.801	8.44
502.001	8.32
502.201	8.51
502.402	8.38
502.602	8.49
502.802	8.46
503.002	8.57
503.203	8.55
503.403	8.52
503.603	8.54
503.803	8.8
504.003	8.98
504.204	8.99
504.404	8.93
504.604	8.92
504.804	8.8
505.004	8.87
505.204	8.77
505.404	8.8
505.604	8.97
505.804	8.87
506.005	8.74
506.205	8.6
506.405	8.72
506.605	8.69
506.805	8.74
507.005	8.77
507.204	8.81
507.404	9.06
507.604	9.18
507.804	9.1
508.004	9.19
508.204	9.3
508.404	9.4
508.604	9.4
508.804	9.44
509.003	9.51
509.203	9.68
509.403	9.67
509.603	9.58
509.803	9.45
510.002	9.36
510.202	9.53
510.402	9.54
510.602	9.54
510.801	9.56
511.001	9.61
511.201	9.82
511.4	9.92
511.6	9.94
511.8	9.96
511.999	10.18
512.199	10.28
512.398	10.21
512.598	10.1
512.797	10.27
512.997	10.21
513.197	10.3
513.396	10.14
513.596	10.01
513.795	9.96
513.994	10.01
514.194	9.92
514.393	9.88
514.593	9.83
514.792	9.93
514.992	9.93
515.191	10.07
515.39	9.93
515.59	9.89
515.789	10.01
515.988	10.16
516.188	10.17
516.387	10.33
516.586	10.54
516.786	10.69
516.985	10.82
517.184	10.82
517.383	10.8
517.582	11.04
517.782	11.14
517.981	11.07
518.18	11.1
518.379	11.24
518.578	11.18
518.777	11.17
518.976	11.25
519.176	11.21
519.375	11.11
519.574	11.19
519.773	11.09
519.972	11.18
520.171	11.32
520.37	11.44
520.569	11.34
520.768	11.43
520.967	11.43
521.166	11.34
521.365	11.44
521.564	11.5
521.762	11.41
521.961	11.4
522.16	11.31
522.359	11.37
522.558	11.45
522.757	11.5
522.956	11.54
523.154	11.66
523.353	11.72
523.552	11.62
523.751	11.79
523.949	11.97
524.148	12.06
524.347	12.25
524.546	12.15
524.744	12.02
524.943	12.04
525.142	12.02
525.34	12.07
525.539	12.1
525.737	12.22
525.936	12.2
526.135	12.27
526.333	12.21
526.532	12.19
526.73	12.3
526.929	12.3
527.127	12.28
527.326	12.28
527.524	12.26
527.723	12.29
527.921	12.28
528.12	12.3
528.318	12.32
528.516	12.48
528.715	12.5
528.913	12.43
529.112	12.5
529.31	12.53
529.508	12.57
529.707	12.6
529.905	12.6
530.103	12.6
530.301	12.63
530.5	12.59
530.698	12.6
530.896	12.52
531.094	12.58
531.293	12.54
531.491	12.67
531.689	12.74
531.887	12.79
532.085	12.83
532.283	13
532.481	13.07
532.68	13.11
532.878	13.05
533.076	13.16
533.274	13.28
533.472	13.37
533.67	13.39
533.868	13.35
534.066	13.45
534.264	13.59
534.462	13.59
534.66	13.62
534.858	13.64
535.056	13.68
535.253	13.73
535.451	13.79
535.649	13.93
535.847	13.89
536.045	13.99
536.243	13.84
536.441	13.9
536.638	13.91
536.836	13.92
537.034	14.1
537.232	14.12
537.43	14.11
537.627	14.09
537.825	14.01
538.023	14.1
538.22	14.11
538.418	14.43
538.616	14.32
538.813	14.35
539.011	14.55
539.209	14.57
539.406	14.73
539.604	14.83
539.801	14.92
539.999	14.97
540.196	15.02
540.394	15.07
540.591	15.07
540.789	15.16
540.986	15.24
541.184	15.19
541.381	15.21
541.579	15.23
541.776	15.22
541.974	15.3
542.171	15.37
542.368	15.44
542.566	15.57
542.763	15.65
542.96	15.68
543.158	15.67
543.355	15.7
543.552	15.75
543.75	15.82
543.947	15.97
544.144	15.99
544.341	16.03
544.539	16.03
544.736	16.01
544.933	15.97
545.13	16.01
545.327	16.15
545.524	16.21
545.722	16.35
545.919	16.52
546.116	16.59
546.313	16.71
546.51	16.8
546.707	16.96
546.904	17.06
547.101	17.15
547.298	17.28
547.495	17.42
547.692	17.47
547.889	17.51
548.086	17.4
548.283	17.5
548.48	17.42
548.677	17.54
548.874	17.5
549.07	17.5
549.267	17.51
549.464	17.69
549.661	17.59
549.858	17.77
550.055	17.96
550.251	18.05
550.448	18.05
550.645	18.26
550.842	18.35
551.038	18.7
551.235	18.81
551.432	18.95
551.628	18.74
551.825	18.94
552.022	19.04
552.218	18.91
552.415	19.11
552.612	19.31
552.808	19.57
553.005	19.39
553.201	19.23
553.398	19.4
553.594	19.38
553.791	19.57
553.987	19.57
554.184	19.49
554.38	19.68
554.577	19.8
554.773	19.74
554.97	19.44
555.166	19.54
555.362	19.89
555.559	19.95
555.755	20.22
555.952	20.44
556.148	20.65
556.344	20.76
556.541	20.98
556.737	20.93
556.933	21.01
557.129	21.29
557.326	21.58
557.522	21.65
557.718	21.61
557.914	21.57
558.11	21.53
558.307	21.38
558.503	21.64
558.699	21.43
558.895	21.59
559.091	21.7
559.287	21.82
559.483	21.81
559.679	21.85
559.876	22.04
560.072	22.24
560.268	22.42
560.464	22.6
560.66	22.73
560.856	22.9
561.052	23.12
561.247	23.17
561.443	23.28
561.639	23.51
561.835	23.51
562.031	23.55
562.227	23.52
562.423	23.68
562.619	23.79
562.815	23.84
563.01	24.02
563.206	24.03
563.402	24.1
563.598	24.23
563.793	24.18
563.989	24.24
564.185	24.37
564.381	24.43
564.576	24.38
564.772	24.53
564.968	24.48
565.163	24.61
565.359	24.71
565.555	24.93
565.75	25.03
565.946	25.17
566.141	25.12
566.337	25.27
566.532	25.44
566.728	25.51
566.923	25.56
567.119	25.76
567.314	25.6
567.51	25.51
567.705	25.54
567.901	25.42
568.096	25.56
568.292	25.79
568.487	25.63
568.682	25.79
568.878	25.86
569.073	26.05
569.268	26.13
569.464	26.35
569.659	26.55
569.854	26.59
570.05	26.65
570.245	26.75
570.44	26.74
570.635	26.76
570.831	26.76
571.026	26.96
571.221	26.94
571.416	27.06
571.611	27.18
571.806	27.31
572.002	27.54
572.197	27.61
572.392	27.64
572.587	27.81
572.782	28.14
572.977	28.15
573.172	28.1
573.367	28.12
573.562	28.4
573.757	28.35
573.952	28.27
574.147	28.19
574.342	28.38
574.537	28.4
574.732	28.44
574.927	28.26
575.121	28.33
575.316	28.28
575.511	28.42
575.706	28.22
575.901	28.29
576.096	28.52
576.29	28.61
576.485	28.45
576.68	28.5
576.875	28.6
577.069	28.84
577.264	28.92
577.459	29.26
577.654	29.42
577.848	29.38
578.043	29.59
578.238	29.52
578.432	29.51
578.627	29.69
578.821	29.93
579.016	29.9
579.21	30.03
579.405	30.25
579.6	30.46
579.794	30.38
579.989	30.74
580.183	30.48
580.378	30.72
580.572	30.78
580.766	31.02
580.961	30.97
581.155	31.01
581.35	30.98
581.544	30.89
581.738	30.77
581.933	30.61
582.127	30.49
582.321	30.82
582.516	30.7
582.71	30.73
582.904	30.77
583.099	30.82
583.293	31.02
583.487	31.19
583.681	31.32
583.875	31.39
584.07	31.59
584.264	31.72
584.458	31.7
584.652	31.83
584.846	32.12
585.04	32.37
585.234	32.48
585.428	32.38
585.623	32.25
585.817	32.26
586.011	32.41
586.205	32.52
586.399	32.52
586.593	32.77
586.787	32.69
586.981	32.6
587.174	32.26
587.368	32.14
587.562	32.23
587.756	32.29
587.95	32.2
588.144	32.04
588.338	32.27
588.532	32.31
588.725	32.19
588.919	32.2
589.113	32.24
589.307	32.42
589.501	32.59
589.694	32.7
589.888	32.84
590.082	33
590.275	33.2
590.469	33.14
590.663	33.26
590.856	33.22
591.05	33.56
591.244	33.67
591.437	33.96
591.631	33.9
591.824	33.86
592.018	33.86
592.212	34.13
592.405	34.08
592.599	34.15
592.792	33.96
592.986	34.22
593.179	34.38
593.372	34.37
593.566	34.23
593.759	34.54
593.953	34.64
594.146	34.51
594.339	34.5
594.533	34.5
594.726	34.64
594.92	35.01
595.113	35.11
595.306	34.81
595.499	34.88
595.693	34.96
595.886	34.78
596.079	34.89
596.272	35
596.466	34.8
596.659	34.86
596.852	34.71
597.045	34.5
597.238	34.4
597.431	34.39
597.624	34.34
597.818	34.31
598.011	34.38
598.204	34.42
598.397	34.39
598.59	34.51
598.783	34.38
598.976	34.39
599.169	34.6
599.362	34.72
599.555	34.86
599.748	34.95
599.941	35.06
600.134	35.2
600.326	35.15
600.519	35.29
600.712	35.29
600.905	35.46
601.098	35.45
601.291	35.38
601.483	35.32
601.676	35.28
601.869	35.22
602.062	35.2
602.255	35.25
602.447	35.2
602.64	35.09
602.833	35.24
603.025	35.45
603.218	35.45
603.411	35.31
603.603	35.27
603.796	35.4
603.989	35.61
604.181	35.81
604.374	35.72
604.566	35.91
604.759	36.11
604.951	35.92
605.144	35.82
605.336	36
605.529	36.11
605.721	36.33
605.914	36.47
606.106	36.35
606.299	36.12
606.491	36.08
606.683	35.86
606.876	35.77
607.068	35.98
607.26	35.93
607.453	36.02
607.645	36.28
607.837	36.06
608.03	35.91
608.222	35.98
608.414	36.03
608.606	36.04
608.799	36.28
608.991	36.15
609.183	36.05
609.375	36.08
609.567	35.92
609.759	35.72
609.952	35.99
610.144	36.15
610.336	36.04
610.528	36.21
610.72	36.38
610.912	36.3
611.104	36.56
611.296	36.6
611.488	36.93
611.68	37.19
611.872	37.14
612.064	37.12
612.256	37.26
612.448	37.51
612.64	37.48
612.832	37.39
613.023	37.36
613.215	37.31
613.407	37.46
613.599	37.21
613.791	37.1
613.983	37.27
614.174	37.2
614.366	36.99
614.558	37.04
614.75	36.75
614.941	36.98
615.133	37.22
615.325	37.35
615.516	37.13
615.708	37.25
615.9	37.34
616.091	37.64
616.283	37.74
616.475	37.74
616.666	37.67
616.858	38.05
617.049	37.98
617.241	37.94
617.432	38.03
617.624	38.35
617.815	38.32
618.007	38.26
618.198	38.06
618.39	37.96
618.581	37.82
618.773	38.14
618.964	38.11
619.155	37.89
619.347	37.86
619.538	37.88
619.729	37.79
619.921	37.97
620.112	38.19
620.303	38.33
620.494	38.51
620.686	38.6
620.877	38.23
621.068	37.96
621.259	38.26
621.451	38.23
621.642	38.04
621.833	38.2
622.024	38.26
622.215	38.03
622.406	38.01
622.597	38.13
622.788	38.02
622.98	38.1
623.171	38.32
623.362	38.12
623.553	38.23
623.744	38.54
623.935	38.69
624.126	38.36
624.317	38.44
624.508	38.61
624.698	38.43
624.889	38.62
625.08	38.83
625.271	38.99
625.462	38.92
625.653	39.03
625.844	38.86
626.034	38.98
626.225	39.32
626.416	39.33
626.607	39.28
626.798	39.17
626.988	39.27
627.179	39.41
627.37	39.49
627.56	39.65
627.751	39.66
627.942	39.62
628.132	39.14
628.323	39.24
628.514	39.36
628.704	39.33
628.895	39.42
629.085	39.24
629.276	39.06
629.466	39.18
629.657	39.06
629.847	39.04
630.038	39.1
630.228	39.3
630.419	39.17
630.609	38.9
630.8	39.1
630.99	39.33
631.181	39.62
631.371	39.54
631.561	39.18
631.752	39.44
631.942	39.3
632.132	39.21
632.323	39.35
632.513	39.29
632.703	39.42
632.893	39.34
633.084	39.28
633.274	39.51
633.464	39.58
633.654	39.77
633.844	39.81
634.034	39.96
634.225	40.11
634.415	40.15
634.605	40.24
634.795	40.54
634.985	40.39
635.175	40.02
635.365	39.7
635.555	39.81
635.745	39.61
635.935	39.58
636.125	39.55
636.315	39.55
636.505	39.81
636.695	39.85
636.885	39.69
637.075	39.85
637.265	40.43
637.455	40.48
637.644	40.6
637.834	40.73
638.024	41.03
638.214	41.13
638.404	41.76
638.593	41.4
638.783	41.33
638.973	41.27
639.163	41.33
639.352	41.1
639.542	41.11
639.732	40.93
639.921	41.38
640.111	41.49
640.301	41.55
640.49	41.02
640.68	41.03
640.87	40.7
641.059	41.02
641.249	41.15
641.438	41.27
641.628	41.4
641.817	41.7
642.007	41.49
642.196	41.15
642.386	40.81
642.575	40.62
642.764	41.09
642.954	41.44
643.143	41.26
643.333	41.1
643.522	41.15
643.711	41.17
643.901	41.09
644.09	41.1
644.279	40.99
644.469	41.29
644.658	41.44
644.847	40.82
645.036	41.23
645.226	41.92
645.415	41.95
645.604	42
645.793	42.29
645.982	42.22
646.171	42.28
646.361	42.54
646.55	42.45
646.739	42.7
646.928	42.96
647.117	42.6
647.306	41.99
647.495	41.8
647.684	41.6
647.873	41.21
648.062	41.47
648.251	41.24
648.44	41.12
648.629	41.52
648.818	41.7
649.007	41.82
649.196	42.14
649.384	42.04
649.573	42.27
649.762	42.76
649.951	42.94
650.14	42.75
650.328	42.87
650.517	43.03
650.706	43.01
650.895	43
651.083	43.02
651.272	42.55
651.461	42.93
651.65	43.14
651.838	42.89
652.027	42.99
652.216	43.08
652.404	42.96
652.593	43.08
652.781	43.19
652.97	42.96
653.158	42.79
653.347	43.04
653.535	42.64
653.724	42.76
653.912	42.92
654.101	42.71
654.289	42.52
654.478	42.61
654.666	42.11
654.855	41.99
655.043	41.97
655.231	42.2
655.42	42.23
655.608	42.34
655.796	41.97
655.985	42.15
656.173	42.03
656.361	42.58
656.55	42.87
656.738	43.42
656.926	43.31
657.114	43.4
657.302	43.38
657.491	43.6
657.679	43.05
657.867	43.19
658.055	43.05
658.243	43.39
658.431	42.97
658.619	43.08
658.807	43.23
658.996	43.02
659.184	42.99
659.372	43.04
659.56	42.93
659.748	43.57
659.936	43.56
660.124	43.45
660.311	43.25
660.499	43.23
660.687	42.93
660.875	42.8
661.063	43.07
661.251	42.96
661.439	43.18
661.627	43.33
661.814	43.22
662.002	43.18
662.19	43.28
662.378	43.49
662.565	43.59
662.753	43.69
662.941	43.38
663.129	43.37
663.316	43.55
663.504	43.4
663.692	43.06
663.879	43.33
664.067	43.29
664.254	43.85
664.442	43.94
664.63	44.11
664.817	44.69
665.005	44.77
665.192	45.08
665.38	45.38
665.567	45.59
665.755	45.53
665.942	45.55
666.13	45.78
666.317	44.91
666.504	44.8
666.692	45.01
666.879	44.39
667.067	44.57
667.254	43.86
667.441	43.38
667.629	42.94
667.816	42.84
668.003	42.58
668.19	42.59
668.378	43.29
668.565	43.45
668.752	43.22
668.939	43.43
669.127	43.36
669.314	43.7
669.501	44.01
669.688	44.06
669.875	44.49
670.062	44.41
670.249	44.88
670.436	44.56
670.623	44.37
670.81	44.16
670.997	44.35
671.184	44.37
671.371	44.42
671.558	44.35
671.745	44.74
671.932	44.11
672.119	44.58
672.306	44.33
672.493	44.55
672.68	44.74
672.867	45.23
673.054	45.3
673.24	45.57
673.427	45.46
673.614	45.48
673.801	45.21
673.988	46.04
674.174	45.54
674.361	45.26
674.548	45.05
674.734	44.93
674.921	44.49
675.108	44.58
675.294	44.38
675.481	44.59
675.668	44.68
675.854	44.83
676.041	45.01
676.227	45.27
676.414	45.28
676.601	45.5
676.787	45.54
676.974	45.87
677.16	45.33
677.347	45.45
677.533	45.38
677.719	45.68
677.906	45.48
678.092	45.23
678.279	45.06
678.465	45.24
678.651	45.44
678.838	45.66
679.024	45.5
679.21	45.88
679.397	45.91
679.583	45.95
679.769	45.66
679.955	45.84
680.142	45.65
680.328	45.91
680.514	46.02
680.7	45.84
680.886	45.63
681.073	45.8
681.259	45.67
681.445	45.72
681.631	45.39
681.817	45.09
682.003	45.04
682.189	45.38
682.375	45.5
682.561	45.44
682.747	45.61
682.933	45.74
683.119	45.68
683.305	45.78
683.491	45.86
683.677	46.78
683.863	47.01
684.049	47.31
684.235	47.04
684.42	47
684.606	46.55
684.792	46.43
684.978	46.29
685.164	46.79
685.349	46.19
685.535	45.98
685.721	45.13
685.907	45.33
686.092	45.23
686.278	45.29
686.464	44.95
686.649	45.62
686.835	45.54
687.021	45.94
687.206	45.67
687.392	46.46
687.577	46.54
687.763	46.85
687.948	46.89
688.134	46.56
688.319	46.66
688.505	47
688.69	46.68
688.876	46.75
689.061	46.6
689.247	46.53
689.432	46.43
689.618	46.53
689.803	46.7
689.988	46.91
690.174	47.36
690.359	47.2
690.544	47.23
690.73	47.71
690.915	47.81
691.1	47.4
691.285	47.36
691.471	47.55
691.656	47.62
691.841	47.48
692.026	47.6
692.211	47.92
692.396	47.7
692.582	47.41
692.767	46.91
692.952	46.6
693.137	46.99
693.322	46.63
693.507	46.58
693.692	46.41
693.877	46.85
694.062	46.39
694.247	45.82
694.432	45.9
694.617	46.6
694.802	46.6
694.987	46.52
695.172	46.62
695.357	47.15
695.541	47.27
695.726	47.46
695.911	46.95
696.096	47.75
696.281	47.84
696.466	48.26
696.65	47.75
696.835	48.24
697.02	48.8
697.204	48.77
697.389	48.8
697.574	48.46
697.759	48.64
697.943	48.56
698.128	48.19
698.312	48.3
698.497	48.3
698.682	48.65
698.866	48.42
699.051	48.13
699.235	48.22
699.42	48.05
699.604	47.95
699.789	47.93
699.973	48.22
700.158	48.1
700.342	48.05
700.527	48.32
700.711	47.98
700.895	48.16
701.08	48.09
701.264	47.81
701.448	47.89
701.633	48.13
701.817	48.06
702.001	47.48
702.186	47.67
702.37	47.65
702.554	47.61
702.738	47.75
702.923	47.6
703.107	47.7
703.291	47.92
703.475	47.82
703.659	48.22
703.843	48.19
704.027	48.36
704.212	48.53
704.396	48.81
704.58	48.4
704.764	48.31
704.948	48.62
705.132	48.78
705.316	49.23
705.5	49.31
705.684	49.46
705.868	49.25
706.052	49.69
706.235	49.66
706.419	49.56
706.603	49.66
706.787	49.07
706.971	49.03
707.155	49.29
707.339	49.35
707.522	49.59
707.706	49.42
707.89	49.38
708.074	49.81
708.257	50.1
708.441	49.86
708.625	49.9
708.808	50.39
708.992	49.53
709.176	49.11
709.359	49.02
709.543	48.8
709.727	48.58
709.91	49.09
710.094	48.25
710.277	48.07
710.461	48.11
710.644	48.25
710.828	48.14
711.011	48.74
711.195	49.33
711.378	49.19
711.562	49.28
711.745	49.37
711.928	49.06
712.112	49.55
712.295	49.24
712.478	49.19
712.662	48.82
712.845	48.98
713.028	48.88
713.212	48.49
713.395	48.15
713.578	48.27
713.761	48.32
713.945	48.25
714.128	48.11
714.311	48.83
714.494	48.8
714.677	48.77
714.86	49.05
715.043	48.96
715.227	49.07
715.41	48.99
715.593	49.13
715.776	49.43
715.959	49.14
716.142	49.02
716.325	48.66
716.508	49.21
716.691	49.55
716.874	49.55
717.057	50
717.239	50.2
717.422	49.83
717.605	49.57
717.788	49.39
717.971	49.85
718.154	50.17
718.337	50.46
718.519	50.21
718.702	49.67
718.885	48.98
719.068	48.84
719.25	48.32
719.433	49.27
719.616	49.74
719.798	49.81
719.981	50.4
720.164	50.42
720.346	49.28
720.529	49.41
720.712	49.97
720.894	51.06
721.077	50.4
721.259	51.34
721.442	51.12
721.624	50.95
721.807	50.22
721.989	49.53
722.172	49.18
722.354	49.43
722.537	49.24
722.719	49.44
722.901	48.94
723.084	49.32
723.266	48.44
723.448	48.16
723.631	48.27
723.813	48.95
723.995	48.65
724.178	49.11
724.36	49.26
724.542	49.55
724.724	49.61
724.907	49.25
725.089	49.63
725.271	49.62
725.453	50.62
725.635	50.42
725.817	50.78
725.999	51.9
726.181	51.92
726.364	52.05
726.546	51.28
726.728	50.98
726.91	51.5
727.092	51.77
727.274	51.92
727.456	51.51
727.638	51.25
727.819	50.02
728.001	49.06
728.183	49.55
728.365	48.89
728.547	49.88
728.729	50.29
728.911	50.35
729.093	50.26
729.274	50.5
729.456	49.98
729.638	50.09
729.82	50.98
730.001	51.44
730.183	50.67
730.365	51.81
730.546	51.67
730.728	51.61
730.91	51.59
731.091	51.51
731.273	51.04
731.455	51.58
731.636	51.4
731.818	50.81
731.999	51.26
732.181	51.58
732.362	51.26
732.544	50.75
732.725	50.78
732.907	50.57
733.088	50.69
733.27	51.08
733.451	50.04
733.633	50.95
733.814	50.84
733.995	49.92
734.177	49.85
734.358	49.75
734.539	49.89
734.721	49.25
734.902	49.32
735.083	49.08
735.264	49.46
735.446	50.38
735.627	50.07
735.808	50
735.989	51.3
736.17	50.84
736.351	51.44
736.533	51.8
736.714	52.23
736.895	51.7
737.076	51.08
737.257	51.03
737.438	50.82
737.619	50.85
737.8	51.32
737.981	50.42
738.162	50.59
738.343	50.08
738.524	50.29
738.705	49.83
738.886	50.5
739.067	51.86
739.247	51.26
739.428	51.44
739.609	50.98
739.79	50.99
739.971	51.03
740.151	51.25
740.332	51.53
740.513	50.65
740.694	50.77
740.874	50.52
741.055	49.79
741.236	50.1
741.417	50.21
741.597	49.74
741.778	49.73
741.958	49
742.139	48.96
742.32	49.13
742.5	48.28
742.681	48.55
742.861	48.74
743.042	47.99
743.222	48.25
743.403	47.92
743.583	48.53
743.764	48.32
743.944	49.42
744.124	49.57
744.305	48.93
744.485	51.11
744.666	50.35
744.846	50.24
745.026	50.77
745.207	49.69
745.387	50.09
745.567	50.65
745.747	51.09
745.928	50.37
746.108	49.87
746.288	49.18
746.468	48.94
746.648	49.15
746.829	48.98
747.009	49.33
747.189	49.29
747.369	49.4
747.549	48.63
747.729	48.08
747.909	47.76
748.089	48.05
748.269	48.5
748.449	48
748.629	48.95
748.809	49.81
748.989	50.52
749.169	51.19
749.349	51.02
749.529	51.29
749.709	51.35
749.889	53.32
750.068	53.23
750.248	53.82
750.428	53.76
750.608	53.2
750.788	51.9
750.967	50.42
751.147	50.59
751.327	51.31
751.507	51.43
751.686	52.08
751.866	51.22
752.046	51.65
752.225	51.71
752.405	52.54
752.585	52.5
752.764	53.82
752.944	54.43
753.123	54.16
753.303	53.42
753.482	53.1
753.662	52.75
753.841	52.58
754.021	53.27
754.2	53.62
754.38	52.16
754.559	51.66
754.739	50.8
754.918	50.8
755.097	51.28
755.277	50.3
755.456	50.66
755.635	51.45
755.815	51.75
755.994	50.67
756.173	50.44
756.352	51.77
756.532	52.65
756.711	52.64
756.89	53.09
757.069	52.61
757.248	53.53
757.427	53.06
757.607	51.87
757.786	51.34
757.965	50.77
758.144	51
758.323	50.69
758.502	50.49
758.681	49.92
758.86	49.21
759.039	49.83
759.218	50.14
759.397	49.96
759.576	51.41
759.755	50.98
759.934	51.7
760.113	51.8
760.291	51.92
760.47	52.79
760.649	53.73
760.828	54.16
761.007	53.41
761.186	53
761.364	53.45
761.543	53.06
761.722	53.45
761.901	53.43
762.079	52.48
762.258	52.81
762.437	51.96
762.615	51.95
762.794	51.7
762.972	52.05
763.151	52.18
763.33	51.61
763.508	51.6
763.687	51.83
763.865	51.69
764.044	52.24
764.222	51.51
764.401	51.39
764.579	51.36
764.758	51.48
764.936	51.7
765.114	52.3
765.293	53.11
765.471	52.3
765.65	51.85
765.828	52.48
766.006	52.83
766.184	52.81
766.363	53.34
766.541	53.34
766.719	53.13
766.898	52.17
767.076	51.91
767.254	51.51
767.432	52.37
767.61	53.49
767.788	53.69
767.967	53.47
768.145	52.97
768.323	52.58
768.501	52.84
768.679	54.15
768.857	54.42
769.035	54.38
769.213	54.93
769.391	54.63
769.569	54.97
769.747	55.04
769.925	54.78
770.103	56.46
770.281	56.6
770.459	57.84
770.636	57.15
770.814	58.92
770.992	58.76
771.17	57.54
771.348	58.38
771.525	56.74
771.703	56.53
771.881	57.12
772.059	56.46
772.236	55.49
772.414	53.53
772.592	52.09
772.769	51.01
772.947	50.94
773.125	51.52
773.302	50.89
773.48	51.27
773.657	49.79
773.835	49.9
774.013	49.45
774.19	50.65
774.368	50.83
774.545	51.99
774.723	51.79
774.9	52.09
775.077	52.87
775.255	53.07
775.432	52.53
775.61	51.38
775.787	51.19
775.964	51.42
776.142	51.24
776.319	51.48
776.496	51.13
776.674	50.98
776.851	51.14
777.028	50.26
777.205	51.39
777.382	52.47
777.56	55.36
777.737	55.41
777.914	54.46
778.091	54.5
778.268	54.76
778.445	54.75
778.622	55.56
778.8	55.14
778.977	54.65
779.154	58.71
779.331	58.52
779.508	57.53
779.685	57.25
779.862	59.78
780.038	60.29
780.215	59.87
780.392	60.89
780.569	60.51
780.746	60.67
780.923	61.71
781.1	55.3
781.277	55.94
781.453	56.49
781.63	55.7
781.807	55.2
781.984	54.77
782.16	54.65
782.337	56.09
782.514	55.48
782.691	53.22
782.867	53.5
783.044	54.57
783.221	55.15
783.397	54.63
783.574	54.3
783.75	53.49
783.927	53.43
784.103	55
784.28	52.08
784.456	54.23
784.633	57.06
784.809	56
784.986	54.12
785.162	52.24
785.339	52.02
785.515	52.31
785.692	54.54
785.868	56.43
786.044	52.57
786.221	53.7
786.397	51.95
786.573	51.14
786.749	52.24
786.926	53.07
787.102	54.18
787.278	55.26
787.454	55.75
787.631	53.59
787.807	52.16
787.983	52.59
788.159	53.4
788.335	53.87
788.511	54.08
788.687	53.06
788.863	53.88
789.039	54.03
789.216	53.35
789.392	53.04
789.568	52.61
789.744	51.84
789.919	53.74
790.095	53.8
790.271	52.84
790.447	53.33
790.623	52.5
790.799	53.01
790.975	51.37
791.151	50.58
791.327	51.6
791.502	53.52
791.678	55.6
791.854	56.39
792.03	55.13
792.205	56.34
792.381	57.38
792.557	59.5
792.733	61.77
792.908	62.08
793.084	62.87
793.259	62.99
793.435	62.56
793.611	62.94
793.786	61.29
793.962	60.65
794.137	61.27
794.313	58.58
794.488	57.5
794.664	54.29
794.839	54.17
795.015	55.2
795.19	53.96
795.366	55.46
795.541	52.52
795.716	53.52
795.892	52.71
796.067	51.23
796.242	52.33
796.418	51.8
796.593	53.68
796.768	54.51
796.944	55.1
797.119	55.53
797.294	54.23
797.469	55.79
797.644	55.2
797.82	56.66
797.995	56.54
798.17	56.44
798.345	56.21
798.52	54.59
798.695	54.57
798.87	54.27
799.045	54.29
799.22	53.88
799.395	52.34
799.57	52.82
799.745	52.99
799.92	53.35
800.095	52.93
800.27	54.54
800.445	53.25
800.62	52.88
800.795	51.3
800.97	51.63
801.145	50.45
801.319	51.84
801.494	52.69
801.669	54.3
801.844	55.79
802.018	56.04
802.193	57.16
802.368	59.8
802.543	61.38
802.717	61.27
802.892	63.7
803.067	65.28
803.241	63.31
803.416	62.65
803.59	58.87
803.765	59.35
803.94	61.7
804.114	61.4
804.289	60.49
804.463	58.94
804.638	60.87
804.812	57.06
804.986	55.81
805.161	60.12
805.335	58.07
805.51	59.47
805.684	58
805.858	55.01
806.033	53.63
806.207	52.24
806.381	51.3
806.556	51.16
806.73	51.02
806.904	52.39
807.078	50.52
807.253	51.45
807.427	51.17
807.601	51.83
807.775	52.14
807.949	52.66
808.123	53.09
808.298	54.3
808.472	52.35
808.646	53.47
808.82	54.34
808.994	52.35
809.168	52.62
809.342	50.53
809.516	52.67
809.69	52.77
809.864	52.35
810.038	52.45
810.212	52.34
810.385	52.35
810.559	52.94
810.733	50.24
810.907	53.43
811.081	52.67
811.255	56.94
811.428	53.53
811.602	54.36
811.776	55.03
811.95	55.14
812.123	53.27
812.297	54.28
812.471	54.26
812.644	56.28
812.818	54.48
812.992	55.65
813.165	56.85
813.339	54.58
813.512	50.79
813.686	50.57
813.86	51.88
814.033	57.97
814.207	58.35
814.38	58.62
814.554	57.98
814.727	59.17
814.9	58.42
815.074	56.02
815.247	57.23
815.421	61.19
815.594	61.9
815.767	60.75
815.941	58.84
816.114	58.69
816.287	57.54
816.46	58.37
816.634	55.75
816.807	54.32
816.98	52.5
817.153	51.86
817.327	52.05
817.5	49.53
817.673	49.49
817.846	47.61
818.019	46.91
818.192	46.68
818.365	48.28
818.538	52
818.711	55.01
818.884	55.44
819.057	56.93
819.23	54.73
819.403	54.8
819.576	55.34
819.749	55.08
819.922	55.17
820.095	58.93
820.268	57
820.441	56.2
820.614	55.87
820.786	57.38
820.959	57.61
821.132	59.29
821.305	59.39
821.477	58.73
821.65	58.23
821.823	56.83
821.996	55.3
822.168	54.97
822.341	54.77
822.514	53.9
822.686	53.34
822.859	52.41
823.031	51.52
823.204	51.79
823.376	51.81
823.549	51.09
823.722	51.28
823.894	51.5
824.067	51.86
824.239	51.86
824.411	52.14
824.584	52.02
824.756	52.84
824.929	53.31
825.101	53.18
825.273	53.07
825.446	53.89
825.618	53.9
825.79	53.51
825.963	52.8
826.135	52.85
826.307	52.59
826.479	53.34
826.652	53.07
826.824	53.01
826.996	52.78
827.168	53.22
827.34	53.62
827.512	54.35
827.684	54.58
827.856	55.04
828.029	54.01
828.201	54.9
828.373	55.04
828.545	55.35
828.717	55.55
828.889	56.12
829.061	54.69
829.232	54.67
829.404	54.95
829.576	54.49
829.748	54.22
829.92	55.59
830.092	54.48
830.264	54.57
830.436	54.71
830.607	55.53
830.779	54.96
830.951	56.07
831.123	55.94
831.294	54.03
831.466	54.63
831.638	55.31
831.809	54.81
831.981	57.08
832.153	55.9
832.324	54.81
832.496	55.03
832.667	55.79
832.839	56.83
833.011	57.65
833.182	58.06
833.354	58.24
833.525	58.78
833.697	56.53
833.868	54.55
834.039	53.51
834.211	54.09
834.382	51.75
834.554	50.42
834.725	51.13
834.896	50.44
835.068	49.35
835.239	49.8
835.41	49.85
835.581	50.98
835.753	51.49
835.924	51.06
836.095	50.16
836.266	53.04
836.438	52.6
836.609	53.07
836.78	54.35
836.951	55.73
837.122	54.67
837.293	54.05
837.464	55.44
837.635	55.78
837.806	57.94
837.977	58.45
838.148	57.62
838.319	61.58
838.49	59.64
838.661	59.1
838.832	63.33
839.003	64.35
839.174	63.96
839.345	64
839.516	64.53
839.687	64.29
839.857	62.93
840.028	61.23
840.199	59.11
840.37	59.09
840.54	60
840.711	56.11
840.882	55.11
841.053	57.15
841.223	55.33
841.394	55.14
841.564	57.39
841.735	62.86
841.906	63.6
842.076	66.39
842.247	63.96
842.417	58.37
842.588	62.64
842.758	64.14
842.929	60.17
843.099	58.73
843.27	58.26
843.44	55.63
843.611	51.12
843.781	48.61
843.951	44.97
844.122	46.5
844.292	48.47
844.462	47.95
844.633	48.66
844.803	53.07
844.973	52.91
845.144	54.81
845.314	53.27
845.484	51.29
845.654	55.34
845.824	56.3
845.995	57.89
846.165	56.23
846.335	54.9
846.505	55.9
846.675	52.9
846.845	55.36
847.015	52.26
847.185	55.82
847.355	61.22
847.525	58.61
847.695	62.3
847.865	60.72
848.035	68.94
848.205	62.76
848.375	65.29
848.545	72.21
848.715	75.78
848.884	76.55
849.054	74.3
849.224	70.8
849.394	73.44
849.564	64.34
849.733	69.83
849.903	63.26
850.073	58.99
850.243	57.35
850.412	54.22
850.582	48.69
850.752	48.77
850.921	43.72
851.091	52.82
851.26	49.43
851.43	56.71
851.599	51.56
851.769	53.41
851.939	56.73
852.108	49.35
852.278	50.93
852.447	55.95
852.616	60.93
852.786	64.32
852.955	46.85
853.125	39.85
853.294	43.03
853.463	40.94
853.633	43.13
853.802	51.7
853.971	46.72
854.141	47.99
854.31	44.45
854.479	38.92
854.648	46.3
854.818	66.48
854.987	75.15
855.156	76.27
855.325	83.08
855.494	85.48
855.663	81.44
855.832	96.03
856.001	86.77
856.171	85.58
856.34	88.74
856.509	94.88
856.678	81.55
856.847	89.14
857.016	83.65
857.185	76.49
857.353	75.55
857.522	79.41
857.691	66.31
857.86	77.66
858.029	79.52
858.198	78.94
858.367	74.12
858.535	80.98
858.704	73.43
858.873	71.17
859.042	75.34
859.21	72.26
859.379	70.39
859.548	77.54
859.717	71.56
859.885	70.3
860.054	77.59
860.222	77.35
860.391	72.12
860.56	68.68
860.728	71.48
860.897	71.87
861.065	67.8
861.234	64.31
861.402	57.41
861.571	57.98
861.739	59.03
861.908	50.64
862.076	51.19
862.244	60.73
862.413	66.61
862.581	61.37
862.749	53.92
862.918	73.97
863.086	85.57
863.254	90.45
863.423	86.27
863.591	83.76
863.759	86.53
863.927	89.42
864.096	75
864.264	77.06
864.432	79.82
864.6	88.85
864.768	66.21
864.936	52.57
865.104	55.82
865.272	54.65
865.44	61.95
865.608	52.79
865.776	56.67
865.944	57.56
866.112	51.75
866.28	52.17
866.448	46.96
866.616	48.91
866.784	56.94
866.952	52.88
867.12	66.4
867.288	54.5
867.455	54.58
867.623	44.64
867.791	45.75
867.959	48.64
868.127	52.62
868.294	56.25
868.462	63.2
868.63	60.16
868.797	62.25
868.965	56.29
869.133	54.67
869.3	57.93
869.468	59.37
869.636	57.29
869.803	58
869.971	50.43
870.138	51.95
870.306	54.17
870.473	59.94
870.641	62.28
870.808	59.58
870.975	65.49
871.143	66.64
871.31	74.8
871.478	79.69
871.645	82.45
871.812	80.45
871.98	75.96
872.147	66.47
872.314	65.83
872.482	67.67
872.649	66.32
872.816	65.14
872.983	60.98
873.15	49.08
873.318	48.77
873.485	38.95
873.652	35.54
873.819	35.76
873.986	45.05
874.153	37.2
874.32	31.24
874.487	34.54
874.654	34.93
874.821	39.98
874.988	49.88
875.155	51.28
875.322	51.2
875.489	60.44
875.656	50.89
875.823	52.72
875.99	47.95
876.157	44.96
876.324	41.8
876.49	46.1
876.657	47.27
876.824	40.49
876.991	35.34
877.157	32.28
877.324	20.85
877.491	33.1
877.658	37.17
877.824	39.49
877.991	44.7
878.157	48.62
878.324	47.35
878.491	39.8
878.657	47.11
878.824	48.33
878.99	57.48
879.157	60.81
879.323	63.38
879.49	57.09
879.656	66.77
879.823	69.8
879.989	78.67
880.156	79.35
880.322	75.44
880.488	71.9
880.655	70.92
880.821	58.56
880.987	57.95
881.154	58.11
881.32	56.41
881.486	52.7
881.652	55.94
881.819	50.99
881.985	47.6
882.151	48.85
882.317	48.78
882.483	47.18
882.649	50.47
882.816	50.48
882.982	51.15
883.148	52.33
883.314	51.66
883.48	50.28
883.646	49.83
883.812	51.83
883.978	51.46
884.144	50.7
884.31	52.55
884.476	52.61
884.642	53.53
884.807	52.12
884.973	51.68
885.139	50.73
885.305	51.03
885.471	53.1
885.637	49.04
885.802	49.74
885.968	51.44
886.134	50.35
886.3	53.87
886.465	51.58
886.631	53.82
886.797	53.66
886.962	55.59
887.128	57.03
887.293	56.2
887.459	59.66
887.625	58.92
887.79	54.34
887.956	53.8
888.121	45.83
888.287	48.04
888.452	44.27
888.618	43.08
888.783	41.88
