Data from LC_218__Reflection_2.txt Node
Date: Thu Nov 19 13:22:09 EST 2015
User: robert
Spectrometer: USB4E03001
Autoset integration time: false
Trigger mode: 4
Integration Time (sec): 1.000000E-1
Scans to average: 15
Electric dark correction enabled: true
Nonlinearity correction enabled: false
Boxcar width: 5
Stray light correction enabled: false
XAxis mode: Wavelengths
Stop averaging: false
Number of Pixels in Spectrum: 3648
>>>>>Begin Spectral Data<<<<<
177.566	74.46
177.785	-24.86
178.005	-104.66
178.225	-68.39
178.445	-162.96
178.665	130800
178.885	103.13
179.105	161.09
179.324	-62.99
179.544	-316.37
179.764	-18.33
179.984	2.67
180.204	89.84
180.423	252.63
180.643	1251.34
180.863	752.41
181.083	198.37
181.302	89.42
181.522	100.85
181.742	620.13
181.961	-975.52
182.181	-627.82
182.401	-10.03
182.621	-32.03
182.84	84.14
183.06	289.08
183.279	152.55
183.499	30.8
183.719	8.94
183.938	20.9
184.158	12.14
184.377	72.63
184.597	46.66
184.816	-238.13
185.036	3626.09
185.256	113.21
185.475	-23.73
185.695	40.63
185.914	71.14
186.134	71.58
186.353	83.18
186.572	88.85
186.792	62.07
187.011	433.24
187.231	147.44
187.45	-7.8
187.67	-27.49
187.889	2572.73
188.108	86.71
188.328	234.78
188.547	70.76
188.766	51.23
188.986	51.65
189.205	-66.28
189.424	24.42
189.644	-291.15
189.863	-58.78
190.082	-117.94
190.302	-1351.08
190.521	171.02
190.74	203.69
190.959	1880.28
191.178	-1392.37
191.398	1374.74
191.617	-393.22
191.836	-835.81
192.055	173.38
192.274	42.07
192.494	28.11
192.713	-6.67
192.932	22.59
193.151	48.63
193.37	12.01
193.589	66.6
193.808	-9.93
194.027	-48.31
194.246	-118.48
194.465	-132.09
194.685	6000
194.904	202.68
195.123	80.53
195.342	48.14
195.561	62.09
195.78	44.28
195.999	92.56
196.218	107.5
196.436	240.76
196.655	140.23
196.874	96.62
197.093	124.82
197.312	204.37
197.531	532.49
197.75	1060.89
197.969	-329.79
198.188	-405.37
198.407	-2577.99
198.625	151.23
198.844	81.59
199.063	95.45
199.282	67.89
199.501	139.47
199.719	16.75
199.938	438.89
200.157	20.38
200.376	96.69
200.594	81.45
200.813	45.53
201.032	45.81
201.251	94.47
201.469	150.45
201.688	91.31
201.907	97.84
202.125	83.14
202.344	86.59
202.563	48.95
202.781	31.34
203	20.03
203.218	28.26
203.437	-37.85
203.656	-50.64
203.874	4.05
204.093	12.97
204.311	30.47
204.53	26.63
204.748	-26.98
204.967	-43.74
205.185	8.27
205.404	-13.28
205.622	-50.84
205.841	4.86
206.059	-14.2
206.278	-29.66
206.496	-11.27
206.715	-101.2
206.933	-153.43
207.151	437.83
207.37	492.13
207.588	1752.62
207.806	-1028.98
208.025	-181.3
208.243	278.61
208.461	240.71
208.68	220.37
208.898	-751.06
209.116	-322.26
209.335	-612.62
209.553	-12.5
209.771	357.59
209.989	-174.55
210.208	-7.03
210.426	101.08
210.644	190.36
210.862	113.59
211.081	138.58
211.299	84.05
211.517	78.52
211.735	101.14
211.953	228.68
212.171	-74.23
212.39	-165.83
212.608	-130.68
212.826	-47.79
213.044	-13.18
213.262	18.59
213.48	-3.59
213.698	-10.01
213.916	-19.78
214.134	-28.75
214.352	-51.24
214.57	437.21
214.788	-83.46
215.006	-575.91
215.224	378.52
215.442	148.56
215.66	107.2
215.878	-119.51
216.096	-6.49
216.314	-16.92
216.532	4.64
216.75	2.73
216.968	10.96
217.185	-5.69
217.403	24.17
217.621	41.56
217.839	41.18
218.057	38.79
218.275	71.13
218.492	111.62
218.71	69.56
218.928	68.34
219.146	50.09
219.363	51.27
219.581	66
219.799	-68.63
220.017	-21.33
220.234	-1.05
220.452	-76.84
220.67	-86.29
220.887	-106.63
221.105	-250.08
221.323	-317.44
221.54	-164.44
221.758	-97.91
221.976	-38.02
222.193	-27.33
222.411	-46.98
222.629	-104.15
222.846	-82.18
223.064	-34.72
223.281	-13.84
223.499	14.23
223.716	9.36
223.934	-0.84
224.151	34.4
224.369	23.11
224.586	49.51
224.804	68.49
225.021	89.13
225.239	77.16
225.456	77.29
225.674	70.45
225.891	66.42
226.108	59.7
226.326	47.76
226.543	37.01
226.76	30.47
226.978	29.56
227.195	34.51
227.413	31.15
227.63	28.96
227.847	26.07
228.064	21.99
228.282	18.21
228.499	22.38
228.716	24.78
228.934	25.07
229.151	26.31
229.368	25.33
229.585	22.27
229.802	21.42
230.02	19.71
230.237	17.74
230.454	20.83
230.671	20.47
230.888	18.18
231.105	18.59
231.323	11.82
231.54	13.82
231.757	11.87
231.974	11.74
232.191	18.33
232.408	21.19
232.625	27.53
232.842	26.07
233.059	17.82
233.276	19.87
233.493	13.69
233.71	20.63
233.927	10.09
234.144	14.26
234.361	14.2
234.578	11.83
234.795	10.51
235.012	7.77
235.229	10.85
235.446	17.26
235.663	17.39
235.879	21.24
236.096	21.32
236.313	23.94
236.53	21.14
236.747	23.06
236.964	19.56
237.181	17.35
237.397	17.79
237.614	10.71
237.831	7.37
238.048	2.03
238.264	2.51
238.481	6.88
238.698	7.14
238.915	2.39
239.131	-3.99
239.348	-0.32
239.565	-1.78
239.781	-4.22
239.998	0.53
240.215	3.66
240.431	7.31
240.648	7.65
240.865	4.98
241.081	6.17
241.298	8.86
241.514	11.76
241.731	11.89
241.947	11.28
242.164	10.61
242.38	11
242.597	12.96
242.814	13.2
243.03	13.01
243.246	14.61
243.463	13.62
243.679	14.65
243.896	14.59
244.112	12.67
244.329	14.3
244.545	15.89
244.762	15.63
244.978	14.45
245.194	15.76
245.411	15.71
245.627	12.51
245.843	16.17
246.06	12.97
246.276	11.88
246.492	13
246.709	13.72
246.925	14.34
247.141	13.37
247.357	12.52
247.574	12.54
247.79	12.82
248.006	13.51
248.222	12.29
248.439	13.61
248.655	12.96
248.871	12.7
249.087	13.43
249.303	12.68
249.519	12.5
249.736	12.58
249.952	11.02
250.168	11.75
250.384	12.52
250.6	12.02
250.816	11.98
251.032	15.92
251.248	15.1
251.464	12.3
251.68	12.37
251.896	11.78
252.112	11.31
252.328	10.13
252.544	8.56
252.76	8.42
252.976	8.48
253.192	7.58
253.408	3.82
253.624	5.61
253.84	5.56
254.056	7.2
254.272	9.92
254.487	10.83
254.703	10.08
254.919	11.83
255.135	11.56
255.351	10.26
255.567	12.05
255.782	14.59
255.998	13.52
256.214	13.02
256.43	10.4
256.646	10.09
256.861	7.22
257.077	11.74
257.293	10.44
257.508	9.97
257.724	10.5
257.94	8.94
258.155	9.63
258.371	9.54
258.587	11.54
258.802	10.72
259.018	10.7
259.234	12.06
259.449	10.38
259.665	10.87
259.88	11.33
260.096	11.4
260.312	11.43
260.527	11
260.743	10.63
260.958	9.1
261.174	9.17
261.389	8.83
261.605	8.21
261.82	8.38
262.036	7.9
262.251	7.19
262.466	6.98
262.682	6.7
262.897	7.21
263.113	7.03
263.328	9.95
263.543	10.77
263.759	11.46
263.974	11.18
264.189	11.13
264.405	11.96
264.62	13.42
264.835	14.02
265.051	15.63
265.266	14.58
265.481	14.78
265.696	14.8
265.912	14.25
266.127	13.86
266.342	14.63
266.557	15.83
266.773	14.72
266.988	14.79
267.203	13.72
267.418	11.07
267.633	11.98
267.848	12.21
268.064	10.91
268.279	11.59
268.494	11.85
268.709	12.8
268.924	13.1
269.139	14.93
269.354	15.56
269.569	15.44
269.784	16.19
269.999	16.32
270.214	16.56
270.429	17.63
270.644	17.09
270.859	16.29
271.074	16.46
271.289	16.4
271.504	14.13
271.719	11.79
271.934	11.1
272.149	11.72
272.363	10.93
272.578	11.29
272.793	9.71
273.008	8.92
273.223	8.67
273.438	8.21
273.653	6.31
273.867	6.27
274.082	6.38
274.297	8.3
274.512	8.08
274.726	7.79
274.941	7.95
275.156	9.07
275.371	9.77
275.585	11.39
275.8	10.81
276.015	12.33
276.229	14.34
276.444	14.58
276.659	15.4
276.873	15.42
277.088	14.74
277.302	12.97
277.517	12.26
277.732	12.49
277.946	12.5
278.161	12.6
278.375	13.56
278.59	11.18
278.804	10.24
279.019	8.99
279.233	8.8
279.448	9.53
279.662	9.29
279.877	7.74
280.091	6.54
280.306	6.51
280.52	6.67
280.735	3.9
280.949	5.04
281.163	6.8
281.378	5.21
281.592	5.2
281.806	6.39
282.021	8
282.235	9.96
282.449	9.33
282.664	8.15
282.878	7.62
283.092	9.38
283.307	9.35
283.521	8.86
283.735	10.03
283.949	9.55
284.164	9.15
284.378	7.96
284.592	7.04
284.806	8.33
285.02	9.33
285.234	9.2
285.449	10.4
285.663	10.78
285.877	10.65
286.091	10.98
286.305	11.91
286.519	10.77
286.733	10.73
286.947	11.3
287.161	11.68
287.375	11.18
287.589	12.23
287.803	10.16
288.017	11.55
288.231	11.82
288.445	11.11
288.659	10.81
288.873	11.59
289.087	12.85
289.301	12.25
289.515	11.47
289.729	11.36
289.943	10.54
290.157	11.41
290.371	9.21
290.584	9.07
290.798	9.28
291.012	9.83
291.226	10.1
291.44	9.84
291.654	9.31
291.867	9.02
292.081	8.82
292.295	9.51
292.509	8.31
292.722	9.16
292.936	10.64
293.15	11.91
293.364	10.8
293.577	11.12
293.791	9.87
294.005	11.14
294.218	10.81
294.432	10.9
294.645	9.9
294.859	11.44
295.073	11.33
295.286	11.11
295.5	10.17
295.713	9.86
295.927	10.16
296.14	10.57
296.354	11.64
296.568	12.12
296.781	12.4
296.994	12.85
297.208	12.69
297.421	13.06
297.635	11.88
297.848	11.8
298.062	12.62
298.275	11.4
298.489	12.44
298.702	11.91
298.915	12.23
299.129	12.77
299.342	14.19
299.555	14.59
299.769	14.54
299.982	16.37
300.195	17.6
300.409	17.04
300.622	18.04
300.835	17.76
301.048	17.24
301.262	17.01
301.475	16.86
301.688	14.96
301.901	13.5
302.115	12.98
302.328	11.85
302.541	11.13
302.754	11.6
302.967	12.23
303.18	12.24
303.393	12.8
303.607	12.72
303.82	12.37
304.033	13.45
304.246	15.8
304.459	16.61
304.672	17.04
304.885	16.33
305.098	16.26
305.311	16.05
305.524	15.87
305.737	16.11
305.95	15.63
306.163	16.14
306.376	15.09
306.589	12.99
306.802	12.43
307.015	13.12
307.228	14.39
307.44	13.98
307.653	14.06
307.866	14.68
308.079	14
308.292	14.64
308.505	13.96
308.718	13.86
308.93	14.72
309.143	14.7
309.356	13.63
309.569	13.03
309.781	14.42
309.994	14.56
310.207	13.49
310.42	13.92
310.632	13.47
310.845	12.96
311.058	12.83
311.27	12.09
311.483	13.13
311.696	13.41
311.908	12.85
312.121	12.06
312.333	12.59
312.546	12.87
312.759	12.88
312.971	13.15
313.184	14.64
313.396	15.49
313.609	15.26
313.821	13.06
314.034	13.66
314.246	14.39
314.459	14.15
314.671	12.89
314.884	11.82
315.096	12.41
315.309	12.88
315.521	11.01
315.733	10.54
315.946	10.17
316.158	11.3
316.371	10.32
316.583	10.39
316.795	10.4
317.008	10.54
317.22	11.09
317.432	10.06
317.644	11.58
317.857	12.63
318.069	13.39
318.281	15.64
318.494	15.47
318.706	15.96
318.918	16.14
319.13	16.19
319.342	15.06
319.555	14.18
319.767	14.24
319.979	12.6
320.191	12.15
320.403	10.52
320.615	7.64
320.827	8.16
321.039	7.87
321.252	7.16
321.464	7.78
321.676	9.19
321.888	10.31
322.1	9.41
322.312	10.62
322.524	11.14
322.736	10.96
322.948	12.64
323.16	12.17
323.372	11.6
323.584	12.03
323.796	10.35
324.007	10.1
324.219	10.74
324.431	12.13
324.643	11.57
324.855	11.15
325.067	10.69
325.279	9.88
325.491	10.19
325.702	9.98
325.914	9.86
326.126	11.53
326.338	11.71
326.55	12.04
326.761	12.35
326.973	11.97
327.185	12.51
327.396	14.31
327.608	15.38
327.82	14.91
328.032	15.7
328.243	16.1
328.455	15.08
328.666	15.87
328.878	15.82
329.09	15.62
329.301	16.75
329.513	16.92
329.725	17.45
329.936	16.84
330.148	16.33
330.359	17.38
330.571	16.15
330.782	17.86
330.994	18.45
331.205	17.54
331.417	17.49
331.628	16.3
331.84	16.02
332.051	14.84
332.262	15.41
332.474	15.91
332.685	14.98
332.897	15.69
333.108	15.51
333.319	14.67
333.531	15.4
333.742	14.74
333.953	15.26
334.165	16.57
334.376	17.46
334.587	16.81
334.799	17.25
335.01	17.09
335.221	17.14
335.432	15.87
335.644	16.04
335.855	15.64
336.066	16.77
336.277	17.66
336.488	16.29
336.7	15.79
336.911	15.7
337.122	15.57
337.333	15.59
337.544	16.92
337.755	17.56
337.966	17.66
338.177	16.95
338.388	16.18
338.599	15.42
338.811	16.39
339.022	17.01
339.233	17.84
339.444	17.63
339.655	17.93
339.866	16.81
340.076	16.3
340.287	15.76
340.498	16.6
340.709	16.23
340.92	15.74
341.131	15.02
341.342	14.44
341.553	14.16
341.764	14.46
341.975	14.61
342.185	14.64
342.396	14.88
342.607	14.97
342.818	15.29
343.029	15.44
343.239	16.52
343.45	16.19
343.661	16.81
343.872	17.22
344.082	16.89
344.293	17.13
344.504	17.55
344.714	17.98
344.925	18.34
345.136	18.4
345.346	18.24
345.557	17.63
345.768	18.26
345.978	16.85
346.189	16.31
346.399	17.03
346.61	16.35
346.821	16
347.031	16.18
347.242	15.61
347.452	15.8
347.663	16
347.873	16.64
348.084	16.48
348.294	17.13
348.504	17.41
348.715	17.01
348.925	16.88
349.136	16.45
349.346	15.62
349.557	16.39
349.767	15.02
349.977	15.07
350.188	14.63
350.398	13.92
350.608	14.05
350.819	14.19
351.029	14.55
351.239	15.8
351.449	15.72
351.66	16.07
351.87	16.03
352.08	16.16
352.29	15.4
352.501	14.6
352.711	15.49
352.921	15.4
353.131	14.87
353.341	14.36
353.552	13.8
353.762	13.87
353.972	13.87
354.182	13.97
354.392	14.86
354.602	15.51
354.812	15.85
355.022	14.61
355.232	14.55
355.442	14.98
355.652	14.94
355.862	14.52
356.072	14.82
356.282	14.26
356.492	14.1
356.702	13.98
356.912	14.21
357.122	14.21
357.332	15
357.542	15.2
357.752	15.76
357.962	16.16
358.171	15.81
358.381	15.7
358.591	15.66
358.801	15.36
359.011	15.2
359.221	15.6
359.43	16.2
359.64	16.04
359.85	15.92
360.06	15.11
360.269	14.8
360.479	14.8
360.689	14.88
360.899	14.92
361.108	14.94
361.318	14.9
361.528	14.36
361.737	13.92
361.947	14.12
362.156	13.97
362.366	13.86
362.576	13.63
362.785	14.2
362.995	14.54
363.204	14.81
363.414	15.12
363.623	15.01
363.833	14.92
364.042	15.15
364.252	15.03
364.461	15.2
364.671	15.43
364.88	15.87
365.09	15.58
365.299	15.01
365.509	14.83
365.718	14.53
365.927	14.33
366.137	14.32
366.346	13.4
366.555	13.43
366.765	13.75
366.974	13.91
367.183	13.42
367.393	13.21
367.602	13.21
367.811	13.38
368.021	12.74
368.23	13.22
368.439	13.31
368.648	13.69
368.857	13.42
369.067	12.88
369.276	12.34
369.485	12.56
369.694	12.25
369.903	12.11
370.112	11.82
370.321	11.81
370.531	11.58
370.74	11.41
370.949	11.25
371.158	11.28
371.367	10.84
371.576	11.49
371.785	11.03
371.994	11.46
372.203	11.5
372.412	11.61
372.621	12.19
372.83	12.36
373.039	12.67
373.248	12.73
373.457	12.53
373.666	12.92
373.874	12.38
374.083	12.75
374.292	12.2
374.501	11.78
374.71	11.83
374.919	11.45
375.128	11.2
375.336	10.76
375.545	11.04
375.754	11.3
375.963	11.69
376.171	12.01
376.38	12.15
376.589	12.85
376.798	13.4
377.006	13.8
377.215	13.91
377.424	13.87
377.632	14.17
377.841	13.85
378.05	13.91
378.258	13.56
378.467	13.25
378.675	13
378.884	12.52
379.093	12.48
379.301	12.38
379.51	12.28
379.718	12.19
379.927	12.07
380.135	11.82
380.344	11.91
380.552	12.12
380.761	12.44
380.969	12.62
381.177	12.67
381.386	12.63
381.594	11.88
381.803	11.78
382.011	12.22
382.219	12.29
382.428	12.27
382.636	12.17
382.845	11.81
383.053	11.81
383.261	11.25
383.469	11.43
383.678	11.3
383.886	11.23
384.094	11.47
384.302	11.06
384.511	11.01
384.719	11.08
384.927	11.04
385.135	10.88
385.343	10.83
385.552	10.94
385.76	10.79
385.968	10.99
386.176	11.1
386.384	10.53
386.592	10.48
386.8	10.13
387.008	10.07
387.216	9.87
387.424	9.98
387.633	9.67
387.841	9.53
388.049	9.73
388.257	9.22
388.465	9.23
388.672	9.58
388.88	9.64
389.088	9.71
389.296	10.01
389.504	9.84
389.712	10.07
389.92	9.95
390.128	10.33
390.336	9.65
390.544	9.68
390.751	9.9
390.959	9.73
391.167	9.62
391.375	9.82
391.583	9.55
391.79	9.64
391.998	9.37
392.206	9.75
392.414	9.82
392.621	9.8
392.829	9.8
393.037	9.76
393.244	9.96
393.452	9.84
393.66	9.76
393.867	9.94
394.075	9.89
394.283	10.26
394.49	9.95
394.698	9.88
394.905	10.26
395.113	10.26
395.32	10.19
395.528	10.29
395.735	10.69
395.943	10.55
396.15	10.25
396.358	10.4
396.565	10.18
396.773	10.2
396.98	10.01
397.188	9.86
397.395	10.13
397.602	10.28
397.81	10.14
398.017	10.06
398.225	9.91
398.432	10.2
398.639	10.17
398.847	10.01
399.054	9.85
399.261	9.97
399.468	10.09
399.676	9.9
399.883	9.88
400.09	9.62
400.297	9.53
400.505	9.68
400.712	9.63
400.919	9.5
401.126	9.6
401.333	9.86
401.54	10.09
401.748	10.12
401.955	10.17
402.162	9.86
402.369	9.97
402.576	9.88
402.783	9.76
402.99	9.82
403.197	9.88
403.404	9.85
403.611	9.6
403.818	9.48
404.025	9.43
404.232	9.25
404.439	9.38
404.646	9.14
404.853	9.09
405.06	9.14
405.267	9.19
405.474	9
405.681	9.03
405.887	9.1
406.094	9.11
406.301	8.95
406.508	8.9
406.715	8.84
406.922	9.17
407.128	9.18
407.335	9.16
407.542	9.09
407.749	8.92
407.955	9.08
408.162	9.05
408.369	9.09
408.575	9.24
408.782	9.14
408.989	9.06
409.195	8.68
409.402	8.76
409.609	8.82
409.815	8.91
410.022	9.07
410.228	8.9
410.435	9.14
410.642	8.78
410.848	8.6
411.055	8.79
411.261	8.96
411.468	9.03
411.674	8.82
411.881	8.77
412.087	8.42
412.294	8.62
412.5	8.42
412.706	8.31
412.913	8.49
413.119	8.76
413.326	8.93
413.532	9.19
413.738	9.32
413.945	9.41
414.151	9.39
414.357	9.67
414.564	9.37
414.77	9.29
414.976	9.08
415.182	9.4
415.389	9.11
415.595	8.95
415.801	8.74
416.007	8.66
416.214	8.84
416.42	8.91
416.626	9.04
416.832	9.15
417.038	9.33
417.244	9.54
417.45	9.35
417.657	9.26
417.863	9.29
418.069	9.2
418.275	9.38
418.481	9.29
418.687	9.43
418.893	9.25
419.099	9.34
419.305	9.34
419.511	9.3
419.717	9.15
419.923	9.27
420.129	9.23
420.335	9.28
420.541	9.2
420.746	9.3
420.952	9.05
421.158	9.02
421.364	8.94
421.57	8.84
421.776	8.83
421.982	8.82
422.187	8.7
422.393	8.67
422.599	8.58
422.805	8.5
423.01	8.43
423.216	8.57
423.422	8.64
423.628	8.79
423.833	8.92
424.039	8.97
424.245	9.03
424.45	9.1
424.656	9.16
424.862	9.09
425.067	9.32
425.273	9.19
425.478	9.13
425.684	9.15
425.889	8.96
426.095	8.78
426.301	8.71
426.506	8.85
426.712	8.85
426.917	8.81
427.123	8.77
427.328	8.54
427.533	8.58
427.739	8.61
427.944	8.75
428.15	8.91
428.355	8.91
428.561	8.82
428.766	8.5
428.971	8.6
429.177	8.66
429.382	8.82
429.587	8.85
429.793	8.92
429.998	8.99
430.203	8.91
430.408	9.02
430.614	9.12
430.819	9.2
431.024	9.34
431.229	9.37
431.434	9.54
431.64	9.59
431.845	9.75
432.05	9.8
432.255	9.63
432.46	9.42
432.665	9.01
432.87	9
433.076	8.94
433.281	8.73
433.486	8.67
433.691	8.53
433.896	8.43
434.101	8.3
434.306	8.18
434.511	8.26
434.716	8.15
434.921	8.35
435.126	8.35
435.331	8.29
435.535	8.42
435.74	8.45
435.945	8.3
436.15	8.42
436.355	8.5
436.56	8.69
436.765	8.76
436.97	8.79
437.174	8.84
437.379	8.85
437.584	8.85
437.789	8.77
437.993	8.76
438.198	9.01
438.403	8.95
438.608	8.95
438.812	8.8
439.017	8.69
439.222	8.9
439.426	8.85
439.631	8.94
439.836	9.02
440.04	9.26
440.245	9.22
440.45	8.93
440.654	9.08
440.859	8.93
441.063	8.94
441.268	9.12
441.472	9.04
441.677	9.05
441.881	9.01
442.086	8.99
442.29	8.94
442.495	9.08
442.699	9.29
442.904	8.98
443.108	8.94
443.312	8.8
443.517	8.62
443.721	8.74
443.925	8.72
444.13	8.66
444.334	8.64
444.538	8.66
444.743	8.62
444.947	8.61
445.151	8.81
445.356	9.03
445.56	9.23
445.764	9.17
445.968	9.04
446.173	9.09
446.377	8.98
446.581	8.99
446.785	8.84
446.989	8.78
447.193	8.74
447.398	8.76
447.602	8.75
447.806	8.77
448.01	8.85
448.214	9
448.418	9.09
448.622	9.27
448.826	9.28
449.03	9.34
449.234	9.25
449.438	9.24
449.642	9.27
449.846	9.1
450.05	8.98
450.254	8.98
450.458	8.85
450.662	8.75
450.866	8.7
451.069	8.79
451.273	8.83
451.477	9
451.681	9.18
451.885	9.1
452.089	9.25
452.292	9.36
452.496	9.33
452.7	9.27
452.904	9.11
453.107	9.07
453.311	9.11
453.515	9.36
453.719	9.32
453.922	9.27
454.126	9.19
454.33	9.11
454.533	9.06
454.737	8.93
454.94	9.01
455.144	9.2
455.348	9.3
455.551	9.27
455.755	9.06
455.958	9.22
456.162	9.2
456.365	9.31
456.569	9.45
456.772	9.33
456.976	9.34
457.179	9.22
457.383	9.18
457.586	9.05
457.79	8.9
457.993	8.88
458.196	8.69
458.4	8.69
458.603	8.76
458.807	8.63
459.01	8.7
459.213	8.69
459.417	8.74
459.62	8.69
459.823	8.72
460.026	8.73
460.23	8.84
460.433	8.91
460.636	8.74
460.839	8.69
461.042	8.6
461.246	8.58
461.449	8.64
461.652	8.7
461.855	8.61
462.058	8.61
462.261	8.6
462.464	8.53
462.668	8.55
462.871	8.75
463.074	8.71
463.277	8.87
463.48	8.89
463.683	8.94
463.886	8.91
464.089	9.16
464.292	9.2
464.495	9.18
464.698	9.09
464.901	9.11
465.104	9.13
465.306	9.16
465.509	9.03
465.712	8.92
465.915	8.85
466.118	8.77
466.321	8.7
466.524	8.69
466.726	8.64
466.929	8.64
467.132	8.47
467.335	8.31
467.538	8.26
467.74	8.38
467.943	8.5
468.146	8.69
468.348	8.67
468.551	8.67
468.754	8.61
468.956	8.89
469.159	8.94
469.362	8.87
469.564	9.07
469.767	9.15
469.969	9.11
470.172	9.1
470.375	8.94
470.577	8.94
470.78	8.97
470.982	8.96
471.185	8.77
471.387	8.51
471.59	8.43
471.792	8.28
471.995	8.26
472.197	8.17
472.399	8.1
472.602	8.27
472.804	8.27
473.007	8.15
473.209	8.2
473.411	8.26
473.614	8.32
473.816	8.47
474.018	8.65
474.22	8.56
474.423	8.67
474.625	8.78
474.827	8.6
475.03	8.61
475.232	8.69
475.434	8.8
475.636	8.72
475.838	8.85
476.04	8.88
476.243	8.95
476.445	8.83
476.647	8.79
476.849	8.59
477.051	8.51
477.253	8.54
477.455	8.58
477.657	8.34
477.859	8.37
478.061	8.33
478.263	8.18
478.465	8.04
478.667	8.04
478.869	8.26
479.071	8.25
479.273	8.4
479.475	8.41
479.677	8.36
479.879	8.52
480.081	8.52
480.283	8.49
480.485	8.64
480.686	8.69
480.888	8.8
481.09	8.66
481.292	8.72
481.494	8.74
481.695	8.87
481.897	8.91
482.099	8.81
482.301	8.76
482.502	8.78
482.704	8.79
482.906	8.78
483.107	8.74
483.309	8.65
483.511	8.65
483.712	8.63
483.914	8.52
484.115	8.51
484.317	8.54
484.519	8.5
484.72	8.51
484.922	8.49
485.123	8.44
485.325	8.46
485.526	8.48
485.728	8.44
485.929	8.43
486.131	8.44
486.332	8.44
486.534	8.34
486.735	8.43
486.936	8.36
487.138	8.39
487.339	8.41
487.541	8.43
487.742	8.46
487.943	8.53
488.144	8.55
488.346	8.62
488.547	8.59
488.748	8.68
488.95	8.66
489.151	8.71
489.352	8.67
489.553	8.69
489.755	8.7
489.956	8.76
490.157	8.78
490.358	8.77
490.559	8.69
490.76	8.69
490.961	8.71
491.163	8.72
491.364	8.72
491.565	8.69
491.766	8.73
491.967	8.73
492.168	8.64
492.369	8.56
492.57	8.49
492.771	8.49
492.972	8.48
493.173	8.57
493.374	8.52
493.575	8.47
493.776	8.53
493.976	8.48
494.177	8.55
494.378	8.6
494.579	8.66
494.78	8.6
494.981	8.51
495.182	8.45
495.382	8.39
495.583	8.43
495.784	8.57
495.985	8.6
496.185	8.69
496.386	8.6
496.587	8.7
496.788	8.67
496.988	8.85
497.189	9.03
497.39	9.11
497.59	9.02
497.791	9
497.992	8.93
498.192	8.88
498.393	8.84
498.593	8.75
498.794	8.66
498.994	8.7
499.195	8.75
499.395	8.85
499.596	8.98
499.796	9
499.997	9.02
500.197	8.96
500.398	9.01
500.598	8.99
500.799	9.08
500.999	9.14
501.199	9.21
501.4	9.08
501.6	8.89
501.801	8.82
502.001	8.77
502.201	8.78
502.402	9.05
502.602	8.95
502.802	8.9
503.002	9.02
503.203	8.96
503.403	8.76
503.603	8.91
503.803	9.03
504.003	8.96
504.204	9.13
504.404	9.15
504.604	8.98
504.804	9.08
505.004	9.19
505.204	9.05
505.404	9.1
505.604	9.3
505.804	9.2
506.005	9.22
506.205	9.32
506.405	9.26
506.605	9.22
506.805	9.3
507.005	9.4
507.204	9.56
507.404	9.61
507.604	9.66
507.804	9.68
508.004	9.82
508.204	9.84
508.404	9.79
508.604	9.84
508.804	9.88
509.003	9.83
509.203	9.72
509.403	9.61
509.603	9.45
509.803	9.45
510.002	9.42
510.202	9.3
510.402	9.25
510.602	9.25
510.801	9.26
511.001	9.26
511.201	9.27
511.4	9.23
511.6	9.23
511.8	9.4
511.999	9.58
512.199	9.55
512.398	9.43
512.598	9.45
512.797	9.39
512.997	9.32
513.197	9.36
513.396	9.37
513.596	9.5
513.795	9.52
513.994	9.54
514.194	9.38
514.393	9.47
514.593	9.77
514.792	9.82
514.992	9.96
515.191	9.92
515.39	10.01
515.59	10.17
515.789	10.16
515.988	10.22
516.188	10.17
516.387	10.19
516.586	10.16
516.786	10.11
516.985	10.02
517.184	10.03
517.383	10.07
517.582	10.07
517.782	9.92
517.981	9.95
518.18	9.85
518.379	10.01
518.578	9.99
518.777	10
518.976	9.9
519.176	9.9
519.375	9.91
519.574	9.98
519.773	9.98
519.972	10.11
520.171	10.04
520.37	10
520.569	9.95
520.768	10.01
520.967	10.08
521.166	10.23
521.365	10.33
521.564	10.26
521.762	10.29
521.961	10.32
522.16	10.09
522.359	10.19
522.558	10.24
522.757	10.2
522.956	10.22
523.154	10.22
523.353	10.26
523.552	10.17
523.751	10.37
523.949	10.34
524.148	10.39
524.347	10.55
524.546	10.61
524.744	10.69
524.943	10.78
525.142	10.82
525.34	10.78
525.539	10.73
525.737	10.78
525.936	10.78
526.135	10.91
526.333	10.91
526.532	10.85
526.73	10.86
526.929	10.97
527.127	11
527.326	10.98
527.524	10.99
527.723	11.09
527.921	11.14
528.12	11.11
528.318	11.06
528.516	11.04
528.715	11.08
528.913	11.09
529.112	11.04
529.31	11.05
529.508	10.99
529.707	11.1
529.905	11.01
530.103	10.98
530.301	11.02
530.5	11.05
530.698	11.13
530.896	11.22
531.094	11.28
531.293	11.4
531.491	11.39
531.689	11.51
531.887	11.45
532.085	11.57
532.283	11.69
532.481	11.66
532.68	11.68
532.878	11.67
533.076	11.69
533.274	11.69
533.472	11.66
533.67	11.64
533.868	11.74
534.066	11.8
534.264	11.86
534.462	11.81
534.66	11.84
534.858	11.88
535.056	11.9
535.253	11.87
535.451	11.9
535.649	11.93
535.847	12.04
536.045	12
536.243	12
536.441	12.02
536.638	12.12
536.836	12.11
537.034	12.22
537.232	12.24
537.43	12.32
537.627	12.25
537.825	12.27
538.023	12.31
538.22	12.35
538.418	12.36
538.616	12.41
538.813	12.42
539.011	12.57
539.209	12.55
539.406	12.58
539.604	12.63
539.801	12.73
539.999	12.81
540.196	12.83
540.394	12.99
540.591	13.05
540.789	13.2
540.986	13.23
541.184	13.33
541.381	13.38
541.579	13.41
541.776	13.43
541.974	13.48
542.171	13.49
542.368	13.64
542.566	13.65
542.763	13.65
542.96	13.58
543.158	13.59
543.355	13.54
543.552	13.59
543.75	13.67
543.947	13.78
544.144	13.89
544.341	13.93
544.539	13.79
544.736	13.79
544.933	13.91
545.13	14.08
545.327	14.12
545.524	14.3
545.722	14.43
545.919	14.41
546.116	14.54
546.313	14.53
546.51	14.61
546.707	14.81
546.904	14.95
547.101	15.07
547.298	15.13
547.495	15.39
547.692	15.33
547.889	15.33
548.086	15.5
548.283	15.52
548.48	15.66
548.677	15.83
548.874	15.95
549.07	16.08
549.267	16
549.464	16.03
549.661	15.87
549.858	15.96
550.055	15.99
550.251	15.99
550.448	16.13
550.645	16.33
550.842	16.49
551.038	16.49
551.235	16.61
551.432	16.71
551.628	16.79
551.825	17.06
552.022	17.25
552.218	17.39
552.415	17.68
552.612	17.76
552.808	17.59
553.005	17.59
553.201	17.69
553.398	17.73
553.594	17.94
553.791	17.94
553.987	17.81
554.184	17.75
554.38	17.87
554.577	17.81
554.773	17.86
554.97	18.16
555.166	18.34
555.362	18.5
555.559	18.53
555.755	18.72
555.952	18.82
556.148	19.21
556.344	19.29
556.541	19.47
556.737	19.45
556.933	19.65
557.129	19.61
557.326	19.75
557.522	19.79
557.718	19.96
557.914	20.03
558.11	20.28
558.307	20.4
558.503	20.65
558.699	20.6
558.895	20.95
559.091	20.99
559.287	21.34
559.483	21.38
559.679	21.48
559.876	21.5
560.072	21.39
560.268	21.54
560.464	21.47
560.66	21.55
560.856	21.67
561.052	21.68
561.247	21.71
561.443	21.56
561.639	21.72
561.835	21.68
562.031	22.04
562.227	22.14
562.423	22.07
562.619	22.26
562.815	22.29
563.01	22.57
563.206	22.75
563.402	22.95
563.598	23.08
563.793	23.11
563.989	23.34
564.185	23.15
564.381	23.3
564.576	23.37
564.772	23.55
564.968	23.68
565.163	23.57
565.359	23.55
565.555	23.56
565.75	23.75
565.946	23.88
566.141	23.97
566.337	24.11
566.532	24.26
566.728	24.45
566.923	24.47
567.119	24.58
567.314	24.61
567.51	24.8
567.705	24.74
567.901	24.81
568.096	24.89
568.292	24.99
568.487	25.18
568.682	25.37
568.878	25.47
569.073	25.63
569.268	25.62
569.464	25.86
569.659	25.99
569.854	26.35
570.05	26.47
570.245	26.44
570.44	26.52
570.635	26.54
570.831	26.4
571.026	26.47
571.221	26.45
571.416	26.68
571.611	26.64
571.806	26.55
572.002	26.55
572.197	26.55
572.392	26.67
572.587	26.58
572.782	26.62
572.977	26.81
573.172	26.86
573.367	26.97
573.562	27.12
573.757	27.32
573.952	27.62
574.147	27.77
574.342	27.98
574.537	28.04
574.732	28.38
574.927	28.48
575.121	28.6
575.316	28.6
575.511	28.77
575.706	28.76
575.901	28.69
576.096	28.62
576.29	28.54
576.485	28.48
576.68	28.61
576.875	28.46
577.069	28.39
577.264	28.25
577.459	28.55
577.654	28.35
577.848	28.36
578.043	28.36
578.238	28.49
578.432	28.59
578.627	28.49
578.821	28.43
579.016	28.58
579.21	28.93
579.405	29.05
579.6	28.83
579.794	29.05
579.989	29.15
580.183	29.18
580.378	29.23
580.572	29.47
580.766	29.89
580.961	30.01
581.155	30.26
581.35	30.52
581.544	30.63
581.738	30.81
581.933	30.98
582.127	31.17
582.321	31.48
582.516	31.57
582.71	31.19
582.904	31.06
583.099	31.1
583.293	30.99
583.487	30.68
583.681	30.58
583.875	30.38
584.07	30.38
584.264	30.24
584.458	30.26
584.652	30.02
584.846	30.14
585.04	30.2
585.234	30.46
585.428	30.62
585.623	30.53
585.817	30.59
586.011	30.97
586.205	30.81
586.399	30.6
586.593	30.69
586.787	30.81
586.981	31.13
587.174	31.24
587.368	31.13
587.562	31.09
587.756	31.36
587.95	31.71
588.144	31.6
588.338	31.87
588.532	32.13
588.725	32.42
588.919	32.6
589.113	32.61
589.307	32.65
589.501	32.64
589.694	32.81
589.888	32.86
590.082	32.77
590.275	32.54
590.469	32.64
590.663	32.84
590.856	32.53
591.05	32.4
591.244	32.48
591.437	32.4
591.631	32.47
591.824	32.17
592.018	32.11
592.212	32.15
592.405	32.4
592.599	32.22
592.792	31.84
592.986	32
593.179	32.11
593.372	31.93
593.566	32.17
593.759	32.3
593.953	32.37
594.146	32.44
594.339	32.49
594.533	32.57
594.726	32.73
594.92	33
595.113	33.2
595.306	33.51
595.499	33.59
595.693	33.57
595.886	33.49
596.079	33.63
596.272	33.74
596.466	33.74
596.659	33.64
596.852	33.67
597.045	33.73
597.238	33.35
597.431	33.23
597.624	33.32
597.818	33.39
598.011	33.47
598.204	33.5
598.397	33.36
598.59	33.36
598.783	33.47
598.976	33.34
599.169	33.48
599.362	33.67
599.555	33.59
599.748	33.68
599.941	33.55
600.134	33.51
600.326	33.66
600.519	33.83
600.712	34.14
600.905	34.22
601.098	34.53
601.291	34.28
601.483	34.42
601.676	34.28
601.869	34.27
602.062	34.56
602.255	34.53
602.447	34.45
602.64	34.58
602.833	34.17
603.025	34.24
603.218	34.17
603.411	34.21
603.603	34.17
603.796	34.4
603.989	34.3
604.181	33.94
604.374	34.1
604.566	34.28
604.759	34.17
604.951	34.42
605.144	34.43
605.336	34.51
605.529	34.7
605.721	34.76
605.914	34.71
606.106	34.81
606.299	35.16
606.491	34.92
606.683	34.54
606.876	34.51
607.068	34.54
607.26	34.59
607.453	34.61
607.645	34.46
607.837	34.53
608.03	34.34
608.222	34.48
608.414	34.42
608.606	34.71
608.799	34.93
608.991	34.83
609.183	34.77
609.375	34.54
609.567	34.49
609.759	34.64
609.952	34.7
610.144	34.91
610.336	34.98
610.528	34.82
610.72	34.82
610.912	34.81
611.104	34.95
611.296	35.04
611.488	35.38
611.68	35.14
611.872	34.9
612.064	35.05
612.256	35.04
612.448	34.86
612.64	34.87
612.832	34.86
613.023	34.77
613.215	34.87
613.407	34.82
613.599	34.82
613.791	35.22
613.983	35.3
614.174	35.15
614.366	35.26
614.558	35.06
614.75	35.48
614.941	35.36
615.133	35.56
615.325	35.7
615.516	35.65
615.708	35.7
615.9	35.46
616.091	35.52
616.283	35.48
616.475	35.41
616.666	35.64
616.858	35.53
617.049	35.61
617.241	35.48
617.432	35.3
617.624	35.31
617.815	35.33
618.007	35.74
618.198	35.72
618.39	35.82
618.581	35.7
618.773	35.55
618.964	35.32
619.155	35.36
619.347	35.41
619.538	35.54
619.729	35.48
619.921	35.5
620.112	35.32
620.303	35.31
620.494	35.05
620.686	35.16
620.877	35.21
621.068	35.37
621.259	35.51
621.451	35.57
621.642	35.45
621.833	35.25
622.024	35.16
622.215	35.26
622.406	35.35
622.597	35.53
622.788	35.49
622.98	35.52
623.171	35.48
623.362	35.38
623.553	35.5
623.744	35.47
623.935	35.74
624.126	35.62
624.317	35.73
624.508	35.69
624.698	35.6
624.889	35.69
625.08	35.74
625.271	35.86
625.462	35.77
625.653	35.9
625.844	35.78
626.034	35.69
626.225	35.83
626.416	35.63
626.607	35.61
626.798	35.75
626.988	35.66
627.179	35.9
627.37	35.93
627.56	36.07
627.751	35.71
627.942	35.88
628.132	35.92
628.323	35.84
628.514	35.95
628.704	35.91
628.895	35.84
629.085	35.87
629.276	35.73
629.466	35.85
629.657	35.68
629.847	36.09
630.038	36.06
630.228	36.29
630.419	36.38
630.609	36.36
630.8	36.5
630.99	36.63
631.181	36.79
631.371	37.13
631.561	36.86
631.752	37.02
631.942	36.95
632.132	37.23
632.323	37.1
632.513	37.16
632.703	36.89
632.893	36.84
633.084	36.92
633.274	36.71
633.464	36.28
633.654	36.35
633.844	36.32
634.034	36.36
634.225	36.24
634.415	36.28
634.605	36.32
634.795	36.73
634.985	36.82
635.175	36.71
635.365	36.65
635.555	36.78
635.745	36.91
635.935	36.73
636.125	36.41
636.315	36.43
636.505	36.47
636.695	36.28
636.885	36.08
637.075	35.96
637.265	36.07
637.455	36.42
637.644	36.46
637.834	36.47
638.024	36.55
638.214	37.1
638.404	36.98
638.593	36.85
638.783	36.87
638.973	36.94
639.163	36.85
639.352	36.83
639.542	36.83
639.732	36.95
639.921	36.98
640.111	37.12
640.301	36.78
640.49	37.07
640.68	37.21
640.87	37.16
641.059	37.33
641.249	37.82
641.438	38
641.628	37.94
641.817	37.69
642.007	37.74
642.196	37.93
642.386	38.42
642.575	38.49
642.764	38.45
642.954	38.76
643.143	38.55
643.333	38.37
643.522	38.05
643.711	37.84
643.901	37.94
644.09	37.91
644.279	37.56
644.469	37.1
644.658	36.66
644.847	36.49
645.036	36.24
645.226	36.39
645.415	36.47
645.604	36.42
645.793	36.85
645.982	36.9
646.171	36.63
646.361	36.64
646.55	36.51
646.739	36.93
646.928	37.22
647.117	37.42
647.306	37.33
647.495	36.96
647.684	36.94
647.873	36.48
648.062	36.44
648.251	36.57
648.44	36.68
648.629	36.69
648.818	36.47
649.007	36.49
649.196	36.47
649.384	36.38
649.573	36.48
649.762	36.42
649.951	36.53
650.14	36.98
650.328	37.18
650.517	37.14
650.706	37.2
650.895	37.08
651.083	37.27
651.272	37.28
651.461	37.55
651.65	37.52
651.838	38.26
652.027	38.28
652.216	38
652.404	38.15
652.593	38.16
652.781	38.13
652.97	38.22
653.158	37.95
653.347	37.77
653.535	37.35
653.724	37.36
653.912	37.13
654.101	37.24
654.289	37.1
654.478	36.97
654.666	37.41
654.855	37.32
655.043	37.77
655.231	37.97
655.42	37.77
655.608	37.8
655.796	38.07
655.985	38.01
656.173	38.29
656.361	38.29
656.55	38.32
656.738	37.94
656.926	38.1
657.114	37.9
657.302	37.71
657.491	38.52
657.679	38.56
657.867	38.36
658.055	38.28
658.243	38.07
658.431	38.37
658.619	38.37
658.807	38.74
658.996	38.76
659.184	38.71
659.372	38.93
659.56	38.57
659.748	38.84
659.936	39.14
660.124	38.81
660.311	38.75
660.499	38.54
660.687	38.32
660.875	38.07
661.063	38.29
661.251	38.46
661.439	38.4
661.627	38.8
661.814	38.51
662.002	38.14
662.19	38.36
662.378	38.58
662.565	38.68
662.753	38.91
662.941	38.58
663.129	38.3
663.316	38.37
663.504	38.31
663.692	38.11
663.879	38.04
664.067	38.31
664.254	38.11
664.442	37.9
664.63	38.07
664.817	37.57
665.005	38
665.192	37.84
665.38	37.87
665.567	37.79
665.755	37.79
665.942	38.27
666.13	38.16
666.317	38.35
666.504	38.42
666.692	38.24
666.879	38.68
667.067	38.44
667.254	38.84
667.441	38.59
667.629	38.58
667.816	38.34
668.003	38.19
668.19	38
668.378	37.82
668.565	37.88
668.752	37.92
668.939	38.16
669.127	38.55
669.314	38.41
669.501	38.11
669.688	38.57
669.875	38.6
670.062	38.63
670.249	38.78
670.436	39.05
670.623	39.26
670.81	39.61
670.997	39.31
671.184	39
671.371	39.1
671.558	39.13
671.745	38.72
671.932	38.73
672.119	38.86
672.306	38.89
672.493	38.85
672.68	38.7
672.867	37.87
673.054	37.92
673.24	37.79
673.427	37.36
673.614	37.57
673.801	37.44
673.988	37.15
674.174	36.98
674.361	37.2
674.548	36.9
674.734	36.59
674.921	37
675.108	37.5
675.294	37.63
675.481	38.17
675.668	38.27
675.854	38.57
676.041	38.66
676.227	38.53
676.414	38.49
676.601	39.01
676.787	39.17
676.974	39.6
677.16	39.29
677.347	39.98
677.533	39.84
677.719	39.87
677.906	39.56
678.092	39.98
678.279	40.33
678.465	40.34
678.651	40.38
678.838	40.45
679.024	40.07
679.21	39.93
679.397	39.13
679.583	39.35
679.769	39.5
679.955	39.57
680.142	39.32
680.328	39.22
680.514	39.27
680.7	39.46
680.886	39.81
681.073	39.92
681.259	40.02
681.445	40.08
681.631	39.86
681.817	39.24
682.003	39.44
682.189	39.81
682.375	40.18
682.561	40.03
682.747	39.73
682.933	39.55
683.119	39.32
683.305	39.11
683.491	39.34
683.677	39.13
683.863	40.09
684.049	39.89
684.235	39.48
684.42	39.46
684.606	39.32
684.792	39.12
684.978	38.83
685.164	39.02
685.349	39.44
685.535	39.61
685.721	40.02
685.907	39.48
686.092	39.49
686.278	39.73
686.464	39.54
686.649	39.51
686.835	39.87
687.021	39.93
687.206	39.93
687.392	39.56
687.577	39.12
687.763	39.01
687.948	38.96
688.134	38.89
688.319	38.47
688.505	38.4
688.69	38.49
688.876	38.49
689.061	38.57
689.247	38.5
689.432	38.47
689.618	38.7
689.803	38.82
689.988	38.94
690.174	39.32
690.359	39.76
690.544	39.84
690.73	40.18
690.915	40.3
691.1	40.36
691.285	40.55
691.471	40.63
691.656	40.81
691.841	40.67
692.026	40.66
692.211	40.6
692.396	40.86
692.582	40.71
692.767	40.48
692.952	40.29
693.137	39.91
693.322	40.01
693.507	40.45
693.692	40.34
693.877	40.77
694.062	41.11
694.247	41.05
694.432	40.74
694.617	40.49
694.802	40.79
694.987	40.91
695.172	41.04
695.357	40.59
695.541	40.35
695.726	40.84
695.911	40.52
696.096	40.38
696.281	40.22
696.466	40.34
696.65	40.25
696.835	40.4
697.02	40.47
697.204	41.17
697.389	41.13
697.574	40.94
697.759	40.78
697.943	40.53
698.128	40.22
698.312	39.91
698.497	39.62
698.682	39.78
698.866	39.15
699.051	38.79
699.235	38.24
699.42	38.39
699.604	38.59
699.789	37.98
699.973	37.76
700.158	37.95
700.342	38.32
700.527	38.47
700.711	38.45
700.895	39.17
701.08	39.36
701.264	39.62
701.448	39.68
701.633	39.12
701.817	39.79
702.001	40.39
702.186	40.2
702.37	40.01
702.554	39.75
702.738	39.66
702.923	39.36
703.107	39.5
703.291	38.99
703.475	38.52
703.659	38.58
703.843	38.89
704.027	38.57
704.212	38.84
704.396	39.57
704.58	40.09
704.764	40.03
704.948	39.64
705.132	39.55
705.316	39.79
705.5	39.99
705.684	40.1
705.868	39.62
706.052	39.66
706.235	39.87
706.419	38.91
706.603	38.57
706.787	38.9
706.971	38.44
707.155	38.56
707.339	38.35
707.522	38.66
707.706	38.75
707.89	38.95
708.074	39.33
708.257	38.69
708.441	38.92
708.625	38.51
708.808	38.45
708.992	38.87
709.176	39.14
709.359	39.79
709.543	39.99
709.727	40.22
709.91	40.15
710.094	39.87
710.277	40.16
710.461	40.36
710.644	40.8
710.828	41.02
711.011	41.31
711.195	41.08
711.378	41.08
711.562	40.81
711.745	40.84
711.928	40.67
712.112	40.97
712.295	40.92
712.478	41.51
712.662	42.05
712.845	42.06
713.028	42.22
713.212	42.02
713.395	41.85
713.578	41.58
713.761	41.84
713.945	41.79
714.128	41.37
714.311	41.58
714.494	40.67
714.677	40.06
714.86	39.78
715.043	39.71
715.227	40.11
715.41	39.98
715.593	39.98
715.776	40.3
715.959	40.54
716.142	40.63
716.325	40.48
716.508	40.4
716.691	40.71
716.874	40.78
717.057	40.66
717.239	40.52
717.422	40.72
717.605	41.35
717.788	40.66
717.971	40.91
718.154	40.54
718.337	40.33
718.519	40.55
718.702	40.18
718.885	39.99
719.068	39.62
719.25	39.6
719.433	39.55
719.616	39.05
719.798	39.03
719.981	38.91
720.164	39.39
720.346	39.03
720.529	39.24
720.712	38.95
720.894	38.77
721.077	39.12
721.259	39.57
721.442	40.2
721.624	40.08
721.807	40.65
721.989	40.06
722.172	40.25
722.354	40.28
722.537	40.12
722.719	41.14
722.901	41.42
723.084	41.02
723.266	40.74
723.448	40.24
723.631	40.47
723.813	40.14
723.995	40.37
724.178	40.04
724.36	40.61
724.542	40.22
724.724	39.58
724.907	39.61
725.089	40.81
725.271	40.95
725.453	40.4
725.635	40.29
725.817	40.82
725.999	41.14
726.181	41.14
726.364	41.66
726.546	41.54
726.728	41.2
726.91	41.4
727.092	40.46
727.274	39.87
727.456	40.19
727.638	39.81
727.819	39.31
728.001	39.49
728.183	39.85
728.365	39.14
728.547	39.47
728.729	40.07
728.911	39.81
729.093	40.14
729.274	39.62
729.456	40.65
729.638	41.68
729.82	41.33
730.001	40.54
730.183	40.3
730.365	40.32
730.546	41.13
730.728	40.92
730.91	40.95
731.091	41
731.273	41.77
731.455	41.56
731.636	41.05
731.818	41.35
731.999	42.32
732.181	42.74
732.362	43
732.544	42.78
732.725	42.97
732.907	42.1
733.088	41.66
733.27	41.65
733.451	40.58
733.633	40.31
733.814	40.56
733.995	39.78
734.177	39.83
734.358	40.03
734.539	39.24
734.721	39.35
734.902	40.74
735.083	40.9
735.264	41.22
735.446	42.77
735.627	42.43
735.808	42.09
735.989	41.95
736.17	41.61
736.351	41.43
736.533	42.08
736.714	41.4
736.895	40.72
737.076	40.87
737.257	41.05
737.438	39.37
737.619	39.69
737.8	39.63
737.981	40.56
738.162	40.21
738.343	39.91
738.524	40.21
738.705	40.27
738.886	40.4
739.067	40.29
739.247	39.6
739.428	39.52
739.609	39.41
739.79	39.64
739.971	39.31
740.151	39.87
740.332	40.37
740.513	40.28
740.694	40.63
740.874	41.63
741.055	41.91
741.236	41.71
741.417	42.7
741.597	42.62
741.778	42.51
741.958	42.66
742.139	42.6
742.32	42.55
742.5	42.41
742.681	41.55
742.861	40.67
743.042	40.15
743.222	41.36
743.403	40.39
743.583	40.99
743.764	41.94
743.944	41.53
744.124	41.19
744.305	41.05
744.485	39.96
744.666	40.45
744.846	40.26
745.026	41.46
745.207	40.84
745.387	41.94
745.567	42.66
745.747	41.27
745.928	41.87
746.108	41.87
746.288	42.59
746.468	43.74
746.648	44.05
746.829	44.47
747.009	43.6
747.189	43.36
747.369	43.17
747.549	41.88
747.729	41.48
747.909	41.09
748.089	41.3
748.269	40.29
748.449	40.24
748.629	40.49
748.809	40.39
748.989	40.76
749.169	40.24
749.349	40.31
749.529	40.57
749.709	41.37
749.889	41.28
750.068	41.24
750.248	41.66
750.428	40.45
750.608	40.12
750.788	40.54
750.967	39.94
751.147	39.79
751.327	39.32
751.507	39.19
751.686	39.11
751.866	38.52
752.046	38.72
752.225	38.86
752.405	40.08
752.585	39.65
752.764	38.89
752.944	38.49
753.123	39.45
753.303	39.23
753.482	40.26
753.662	39.87
753.841	40.68
754.021	40.11
754.2	40.15
754.38	40.58
754.559	41.57
754.739	41.65
754.918	42.54
755.097	42.06
755.277	42.84
755.456	41.96
755.635	42.38
755.815	41.98
755.994	42.63
756.173	41.97
756.352	41.69
756.532	41.21
756.711	40.17
756.89	40.31
757.069	40.28
757.248	39.8
757.427	39.79
757.607	40.56
757.786	41.49
757.965	41
758.144	42.29
758.323	42.34
758.502	42.07
758.681	43.12
758.86	43.01
759.039	41.94
759.218	41.16
759.397	41.76
759.576	40.98
759.755	40.07
759.934	40.57
760.113	40.01
760.291	39.24
760.47	39.67
760.649	39.94
760.828	39.74
761.007	40.48
761.186	41.63
761.364	41.71
761.543	42.14
761.722	42.46
761.901	41.43
762.079	41.75
762.258	42.46
762.437	43.19
762.615	42.95
762.794	42.94
762.972	42.99
763.151	42.89
763.33	42.94
763.508	42.51
763.687	42.52
763.865	42.55
764.044	42.12
764.222	42.12
764.401	41.89
764.579	41.21
764.758	41.39
764.936	41.67
765.114	41.17
765.293	41.24
765.471	42.08
765.65	41.57
765.828	42.53
766.006	42.94
766.184	42.71
766.363	42.45
766.541	43.62
766.719	42.98
766.898	43.21
767.076	43.33
767.254	42.5
767.432	40.68
767.61	40.54
767.788	40.37
767.967	38.87
768.145	38.25
768.323	37.79
768.501	36.77
768.679	37.78
768.857	36.46
769.035	37.7
769.213	36.09
769.391	37.1
769.569	39.37
769.747	38.94
769.925	40.02
770.103	41.57
770.281	40.18
770.459	40.46
770.636	40.34
770.814	40.74
770.992	39.71
771.17	42.31
771.348	41.78
771.525	39.74
771.703	39.18
771.881	39.56
772.059	38.52
772.236	39.9
772.414	40.5
772.592	40.4
772.769	41.69
772.947	41.66
773.125	40.94
773.302	41.15
773.48	41.35
773.657	41.79
773.835	39.87
774.013	40.47
774.19	39.7
774.368	40.15
774.545	39.14
774.723	39.4
774.9	38.72
775.077	38.53
775.255	37.07
775.432	37.5
775.61	37.32
775.787	38.8
775.964	38.8
776.142	39.34
776.319	39.58
776.496	40.52
776.674	39.38
776.851	40.15
777.028	40.75
777.205	43.01
777.382	43.55
777.56	43.41
777.737	44.18
777.914	43.91
778.091	42.73
778.268	41.28
778.445	41.98
778.622	42.3
778.8	44.36
778.977	44.41
779.154	38.32
779.331	38.11
779.508	36.63
779.685	35.73
779.862	35.44
780.038	37.57
780.215	38.46
780.392	37.2
780.569	36.26
780.746	34.8
780.923	35.51
781.1	40.87
781.277	39.46
781.453	42.14
781.63	42.03
781.807	42.76
781.984	40.92
782.16	39.64
782.337	39.96
782.514	41.56
782.691	41.82
782.867	39.48
783.044	40.64
783.221	40.96
783.397	40.7
783.574	41.68
783.75	42.74
783.927	42.32
784.103	43.75
784.28	44.4
784.456	45.54
784.633	46.2
784.809	47.44
784.986	47.28
785.162	47.14
785.339	46.29
785.515	43.64
785.692	42.87
785.868	44.65
786.044	43.93
786.221	42.14
786.397	41.08
786.573	38.78
786.749	38.77
786.926	39.56
787.102	38.7
787.278	38.82
787.454	41.67
787.631	39.12
787.807	37.19
787.983	37.44
788.159	39.69
788.335	38.88
788.511	41.56
788.687	42.63
788.863	41.25
789.039	42.04
789.216	41
789.392	39.58
789.568	41.1
789.744	43.1
789.919	45.13
790.095	43.36
790.271	43.74
790.447	41.02
790.623	40.67
790.799	41.89
790.975	42.93
791.151	43.39
791.327	44.05
791.502	43.69
791.678	42.97
791.854	40.23
792.03	39.72
792.205	39.03
792.381	38.78
792.557	37.25
792.733	38.29
792.908	38.43
793.084	39.58
793.259	39.5
793.435	40.39
793.611	42.01
793.786	42.69
793.962	43.02
794.137	42.48
794.313	43.61
794.488	47.04
794.664	45.8
794.839	46.01
795.015	45.87
795.19	44.89
795.366	43.21
795.541	42.15
795.716	41.24
795.892	41.89
796.067	43.1
796.242	43.36
796.418	40.57
796.593	42.19
796.768	42.91
796.944	42
797.119	42.62
797.294	44.13
797.469	43.55
797.644	46.15
797.82	45.48
797.995	45.63
798.17	46.91
798.345	47.28
798.52	47.11
798.695	46.5
798.87	47.37
799.045	47.96
799.22	48.57
799.395	48.73
799.57	46.6
799.745	46.57
799.92	46.34
800.095	47.02
800.27	46.29
800.445	45.16
800.62	45.19
800.795	46.13
800.97	46.48
801.145	43.32
801.319	43.38
801.494	41.63
801.669	42.73
801.844	41.59
802.018	39.13
802.193	39.79
802.368	33.97
802.543	35.1
802.717	33.15
802.892	32.55
803.067	35.51
803.241	38.18
803.416	39.9
803.59	39.61
803.765	41.8
803.94	41.38
804.114	39.49
804.289	46.64
804.463	46.2
804.638	48.12
804.812	48.12
804.986	48.65
805.161	46.84
805.335	47.17
805.51	46.26
805.684	45.85
805.858	47.18
806.033	48.43
806.207	47.72
806.381	45.56
806.556	45.44
806.73	45.11
806.904	45.49
807.078	45.03
807.253	46.18
807.427	47.37
807.601	46.43
807.775	44.58
807.949	43.88
808.123	43.36
808.298	44.89
808.472	45.22
808.646	46.07
808.82	45.87
808.994	46.81
809.168	45.44
809.342	46.76
809.516	47.42
809.69	49.59
809.864	50.3
810.038	49.91
810.212	49.23
810.385	46.42
810.559	46.48
810.733	45.69
810.907	46.03
811.081	45.86
811.255	43.33
811.428	40.38
811.602	39.84
811.776	39.77
811.95	40.92
812.123	41.22
812.297	44.86
812.471	44.63
812.644	43.92
812.818	42.11
812.992	41.48
813.165	42.44
813.339	44.83
813.512	43.23
813.686	44.61
813.86	42.13
814.033	42.56
814.207	38.1
814.38	34.32
814.554	35.47
814.727	33.85
814.9	33.84
815.074	33.73
815.247	34.53
815.421	34.35
815.594	34.26
815.767	35.83
815.941	31.15
816.114	32.76
816.287	38.07
816.46	35.21
816.634	38.04
816.807	39.22
816.98	38.84
817.153	38.57
817.327	40.38
817.5	36.86
817.673	37.45
817.846	40.57
818.019	42.32
818.192	41.82
818.365	41.65
818.538	40.97
818.711	40.11
818.884	40.02
819.057	38.61
819.23	36.46
819.403	37.76
819.576	36.39
819.749	34.44
819.922	34.22
820.095	32.33
820.268	33.69
820.441	34
820.614	36.73
820.786	37.11
820.959	39.41
821.132	41.7
821.305	42.24
821.477	42.1
821.65	42.4
821.823	42.99
821.996	44.1
822.168	44.12
822.341	43.62
822.514	42.78
822.686	43.54
822.859	43.67
823.031	43.49
823.204	43.61
823.376	44.13
823.549	44.24
823.722	43.64
823.894	43.3
824.067	43.7
824.239	43.79
824.411	43.98
824.584	43.69
824.756	42.79
824.929	42.62
825.101	42.57
825.273	41.7
825.446	42.3
825.618	42.87
825.79	42.83
825.963	42.4
826.135	42.38
826.307	42.66
826.479	42.41
826.652	43.31
826.824	43.76
826.996	43.27
827.168	43.99
827.34	44.28
827.512	43.69
827.684	43.65
827.856	43.89
828.029	43.9
828.201	42.48
828.373	42.22
828.545	41.88
828.717	41.43
828.889	42.24
829.061	42.08
829.232	41.76
829.404	41.82
829.576	41.94
829.748	41.03
829.92	41.59
830.092	43.38
830.264	42.64
830.436	43.19
830.607	42.05
830.779	41.02
830.951	43.11
831.123	43.64
831.294	45.07
831.466	46.44
831.638	47.12
831.809	47.34
831.981	46.3
832.153	47.24
832.324	45.21
832.496	46.98
832.667	46.43
832.839	45.77
833.011	43.24
833.182	43.78
833.354	41.26
833.525	40.88
833.697	41.04
833.868	42.19
834.039	41
834.211	42.67
834.382	41.38
834.554	42.63
834.725	41.84
834.896	41.4
835.068	41.24
835.239	41.09
835.41	41.25
835.581	40.97
835.753	40.52
835.924	41.85
836.095	41.66
836.266	41.99
836.438	41.43
836.609	39.5
836.78	41.12
836.951	41.05
837.122	42.19
837.293	42.97
837.464	41.76
837.635	43.68
837.806	42.59
837.977	41.78
838.148	43.07
838.319	40.86
838.49	44.39
838.661	40.56
838.832	38.96
839.003	38.82
839.174	40.13
839.345	42.34
839.516	37.73
839.687	38.15
839.857	35.94
840.028	33.29
840.199	39.05
840.37	37.55
840.54	40.92
840.711	39.86
840.882	41.71
841.053	40.6
841.223	39.38
841.394	41.55
841.564	43.76
841.735	44.94
841.906	47.28
842.076	45.83
842.247	45.83
842.417	43.81
842.588	45.67
842.758	48.86
842.929	52.25
843.099	56.05
843.27	58
843.44	59.84
843.611	59.85
843.781	57.3
843.951	58.43
844.122	58.28
844.292	62.06
844.462	63.87
844.633	58.77
844.803	50.82
844.973	47.66
845.144	43.43
845.314	35.88
845.484	37.53
845.654	43.63
845.824	45.8
845.995	38.69
846.165	43.08
846.335	38.41
846.505	39.81
846.675	46.32
846.845	64.51
847.015	65.51
847.185	63.76
847.355	63.41
847.525	63.07
847.695	53.26
847.865	67.71
848.035	58.71
848.205	67.39
848.375	65.5
848.545	56.92
848.715	35.84
848.884	43.52
849.054	47.48
849.224	47.34
849.394	43.71
849.564	41.7
849.733	32.51
849.903	35.9
850.073	31.99
850.243	28.06
850.412	25.42
850.582	27.87
850.752	15.05
850.921	12.63
851.091	14.6
851.26	16.58
851.43	24.16
851.599	24.51
851.769	24.14
851.939	23.65
852.108	28.98
852.278	34.35
852.447	33.82
852.616	32.22
852.786	38.58
852.955	37.05
853.125	36.74
853.294	33.44
853.463	28.33
853.633	22.47
853.802	24.47
853.971	20.94
854.141	28.07
854.31	32.18
854.479	36.65
854.648	27.8
854.818	33.58
854.987	34.51
855.156	42.21
855.325	42.85
855.494	53.06
855.663	51.58
855.832	51.76
856.001	41.84
856.171	38.14
856.34	39.1
856.509	42.49
856.678	43.06
856.847	37.59
857.016	31.22
857.185	35.39
857.353	35.59
857.522	34.02
857.691	33.45
857.86	42.89
858.029	48.22
858.198	41.77
858.367	44.59
858.535	36.12
858.704	33.54
858.873	33.06
859.042	30.54
859.21	28.06
859.379	31.35
859.548	33.69
859.717	27.39
859.885	20.83
860.054	19.85
860.222	12.52
860.391	19.17
860.56	30.27
860.728	33.18
860.897	35.91
861.065	34.02
861.234	28.78
861.402	27.09
861.571	31.78
861.739	29.6
861.908	35.53
862.076	33.76
862.244	37.06
862.413	35.51
862.581	45.64
862.749	51.61
862.918	55.18
863.086	72.23
863.254	62.58
863.423	55.5
863.591	55.74
863.759	59.4
863.927	68.14
864.096	74.26
864.264	71.9
864.432	64.34
864.6	55.72
864.768	58.94
864.936	50.63
865.104	46.81
865.272	48.94
865.44	55.35
865.608	57.09
865.776	45.11
865.944	25.68
866.112	29.36
866.28	19
866.448	16.78
866.616	12.65
866.784	16.73
866.952	9.97
867.12	14.36
867.288	14.9
867.455	16.18
867.623	23.27
867.791	27.78
867.959	27.22
868.127	33.09
868.294	41.55
868.462	43.27
868.63	38.8
868.797	39.96
868.965	42.48
869.133	37.04
869.3	37.15
869.468	33.16
869.636	35.07
869.803	34.28
869.971	34.32
870.138	28.38
870.306	28.89
870.473	30.21
870.641	31.76
870.808	36.49
870.975	42.07
871.143	44.27
871.31	47.96
871.478	60.21
871.645	51.54
871.812	50.09
871.98	51.74
872.147	54.62
872.314	55.23
872.482	63.13
872.649	53.59
872.816	49.5
872.983	41.38
873.15	47.97
873.318	45.79
873.485	60.8
873.652	50.81
873.819	52.71
873.986	53.68
874.153	58.2
874.32	50.31
874.487	48.59
874.654	46.19
874.821	44.1
874.988	34.87
875.155	33.32
875.322	31.05
875.489	37.8
875.656	37.06
875.823	34.95
875.99	29.71
876.157	37.98
876.324	49.08
876.49	56.85
876.657	52.58
876.824	74.32
876.991	75.94
877.157	81.46
877.324	78.75
877.491	74.46
877.658	69.98
877.824	72.07
877.991	58.91
878.157	54.01
878.324	52.5
878.491	62.48
878.657	49.25
878.824	45.73
878.99	39.18
879.157	36.08
879.323	33.47
879.49	31.72
879.656	36.67
879.823	38.33
879.989	42.22
880.156	43.44
880.322	42.55
880.488	40.16
880.655	43.21
880.821	45.17
880.987	43.76
881.154	45.86
881.32	46.68
881.486	46.77
881.652	42.78
881.819	37.39
881.985	38.54
882.151	36.39
882.317	39.43
882.483	38.59
882.649	39.28
882.816	42.22
882.982	43.76
883.148	44.33
883.314	43.18
883.48	44.23
883.646	45.42
883.812	44.01
883.978	45.26
884.144	44.19
884.31	44.1
884.476	44.08
884.642	42.43
884.807	42.27
884.973	41
885.139	41.31
885.305	42.31
885.471	41.86
885.637	40.84
885.802	39.08
885.968	40.04
886.134	40.44
886.3	39.79
886.465	41.89
886.631	41.64
886.797	45.26
886.962	45.46
887.128	43.51
887.293	44.1
887.459	44.14
887.625	46.03
887.79	46.88
887.956	47.7
888.121	48.76
888.287	47.05
888.452	45.44
888.618	40.6
888.783	38.66
