Data from LC_221__Reflection_3.txt Node
Date: Thu Nov 19 13:45:24 EST 2015
User: robert
Spectrometer: USB4E03001
Autoset integration time: false
Trigger mode: 4
Integration Time (sec): 1.000000E-1
Scans to average: 15
Electric dark correction enabled: true
Nonlinearity correction enabled: false
Boxcar width: 5
Stray light correction enabled: false
XAxis mode: Wavelengths
Stop averaging: false
Number of Pixels in Spectrum: 3648
>>>>>Begin Spectral Data<<<<<
177.566	407.53
177.785	800.45
178.005	532.96
178.225	389.59
178.445	1062.55
178.665	-160100
178.885	56.55
179.105	261.43
179.324	-121.05
179.544	-834.35
179.764	-443.93
179.984	-708.18
180.204	-596.28
180.423	-644.37
180.643	-3976.56
180.863	-3701.73
181.083	-1020.29
181.302	-683.81
181.522	-665.18
181.742	-4756.13
181.961	9360.18
182.181	7341.25
182.401	874.27
182.621	965.99
182.84	1476.41
183.06	3285.59
183.279	2766.04
183.499	1330.91
183.719	1243.09
183.938	668.44
184.158	1357.19
184.377	1438.27
184.597	985.05
184.816	7768.35
185.036	33373.91
185.256	2209.22
185.475	1167.76
185.695	1141.27
185.914	807.99
186.134	575.35
186.353	515.25
186.572	382.93
186.792	481.18
187.011	3785.34
187.231	743.54
187.45	975.28
187.67	2140.24
187.889	36180.3
188.108	891.04
188.328	-4192.49
188.547	-538.53
188.766	-455.11
188.986	-681.91
189.205	-870.82
189.424	1559.86
189.644	2717.81
189.863	1420.23
190.082	1611.07
190.302	7041.97
190.521	-748.96
190.74	-2526.86
190.959	-23526.76
191.178	31121.19
191.398	-12465.61
191.617	2656.67
191.836	9136.06
192.055	-2558.71
192.274	-932.56
192.494	-1619.05
192.713	-960.45
192.932	-585.07
193.151	-569.95
193.37	-929.7
193.589	-736.62
193.808	-572.14
194.027	-703.86
194.246	-1351.91
194.465	-1204.25
194.685	71982.5
194.904	1100
195.123	566.05
195.342	353.5
195.561	296.08
195.78	402.87
195.999	559.95
196.218	1057.02
196.436	1756.25
196.655	1102.27
196.874	717.49
197.093	635.2
197.312	1970.66
197.531	2147.51
197.75	4069.72
197.969	-1675.41
198.188	-1825.78
198.407	-11684.17
198.625	737.93
198.844	1033.86
199.063	2607.68
199.282	2950.11
199.501	-1989.87
199.719	-2496.98
199.938	-3836.74
200.157	3509.9
200.376	1155.13
200.594	755.61
200.813	710.9
201.032	474.84
201.251	573.3
201.469	997.77
201.688	773.5
201.907	623.14
202.125	645.47
202.344	454.3
202.563	369.29
202.781	534.76
203	430.91
203.218	417.49
203.437	1104.35
203.656	706.95
203.874	443.74
204.093	444.74
204.311	416.37
204.53	368.12
204.748	436.85
204.967	554.17
205.185	349.82
205.404	477.48
205.622	695.11
205.841	494.29
206.059	494.13
206.278	636.01
206.496	859.08
206.715	1335.84
206.933	1959.24
207.151	-4233.98
207.37	-3164.44
207.588	-10198.9
207.806	7400.38
208.025	2702.49
208.243	-3878.93
208.461	-3359.29
208.68	-6273.03
208.898	9450.26
209.116	3970.28
209.335	8211.39
209.553	2380.39
209.771	5889.35
209.989	-4990.51
210.208	-3538.21
210.426	-1917.15
210.644	-2128.98
210.862	-963.44
211.081	-910.34
211.299	-443.64
211.517	-637.77
211.735	-718.88
211.953	-1746.12
212.171	1252.91
212.39	1783.96
212.608	1893.38
212.826	873.12
213.044	423.51
213.262	379.14
213.48	437.01
213.698	421.27
213.916	509.96
214.134	690.57
214.352	1280.44
214.57	-3196.8
214.788	1549.29
215.006	8596.35
215.224	-2269.2
215.442	-826.07
215.66	-860.95
215.878	1810.05
216.096	499.64
216.314	533.28
216.532	405.21
216.75	351.65
216.968	325.48
217.185	325.28
217.403	366.73
217.621	441.3
217.839	507.34
218.057	451.36
218.275	637.64
218.492	1105
218.71	530.44
218.928	436.12
219.146	425.86
219.363	692.06
219.581	737.78
219.799	1487.28
220.017	468.93
220.234	441.59
220.452	552.5
220.67	410.49
220.887	448.47
221.105	890.39
221.323	1027.26
221.54	863.25
221.758	476.56
221.976	420.3
222.193	320.08
222.411	387.95
222.629	398.67
222.846	453.56
223.064	373.89
223.281	341.03
223.499	335.26
223.716	357.23
223.934	315.32
224.151	368.22
224.369	343.58
224.586	320.32
224.804	330.81
225.021	266.14
225.239	222.63
225.456	261.56
225.674	223.13
225.891	186.75
226.108	176.36
226.326	171.66
226.543	148
226.76	134.07
226.978	130.22
227.195	121.24
227.413	90.23
227.63	86.7
227.847	78.26
228.064	67.24
228.282	62.98
228.499	62.99
228.716	56.61
228.934	54.78
229.151	52.54
229.368	49.64
229.585	44.15
229.802	50.37
230.02	44.83
230.237	40.73
230.454	44.76
230.671	43.58
230.888	42.08
231.105	48.14
231.323	47.51
231.54	52.12
231.757	55.58
231.974	65.91
232.191	68.72
232.408	73.84
232.625	78.54
232.842	79.44
233.059	79.11
233.276	79.8
233.493	73.69
233.71	73.92
233.927	73.35
234.144	73.02
234.361	65.42
234.578	70.54
234.795	61.61
235.012	59.69
235.229	57.67
235.446	64.17
235.663	60.33
235.879	64.23
236.096	64.91
236.313	66.23
236.53	57.24
236.747	64.43
236.964	55.23
237.181	57.94
237.397	57.03
237.614	57.25
237.831	61.29
238.048	64.05
238.264	59.9
238.481	56.7
238.698	56.77
238.915	62.22
239.131	52.32
239.348	52.15
239.565	50.62
239.781	51.4
239.998	45.85
240.215	44.43
240.431	41.39
240.648	39.86
240.865	35.83
241.081	33.48
241.298	30.59
241.514	29.69
241.731	29.32
241.947	28.46
242.164	25.43
242.38	25.49
242.597	22.76
242.814	23.56
243.03	22.56
243.246	26.78
243.463	24.52
243.679	27.52
243.896	27.82
244.112	27.74
244.329	28.18
244.545	32.34
244.762	33.96
244.978	35.19
245.194	34.98
245.411	34.82
245.627	27.78
245.843	29.01
246.06	23.25
246.276	23.75
246.492	22.78
246.709	21.61
246.925	19.29
247.141	18.12
247.357	16.28
247.574	16.68
247.79	15.96
248.006	16.29
248.222	15.5
248.439	17.21
248.655	14.64
248.871	14.58
249.087	15.33
249.303	15.01
249.519	14.05
249.736	16.18
249.952	13.55
250.168	19.17
250.384	22.61
250.6	25.57
250.816	27.04
251.032	31.33
251.248	30.24
251.464	31.26
251.68	29.97
251.896	28.54
252.112	27.78
252.328	27.94
252.544	24.95
252.76	22.53
252.976	21.1
253.192	19.06
253.408	18.01
253.624	21.28
253.84	19.93
254.056	23.82
254.272	30.94
254.487	32.5
254.703	33.07
254.919	34.19
255.135	37.55
255.351	35.53
255.567	40.05
255.782	40.47
255.998	40.54
256.214	39.77
256.43	37.35
256.646	35.29
256.861	33.16
257.077	36.62
257.293	35.02
257.508	32.14
257.724	33.71
257.94	29.32
258.155	29.32
258.371	26.76
258.587	23.94
258.802	23.14
259.018	20.46
259.234	19.71
259.449	16.78
259.665	15.91
259.88	15.3
260.096	14.14
260.312	13.86
260.527	12.85
260.743	12.56
260.958	12.89
261.174	12.16
261.389	12.8
261.605	14.05
261.82	14.71
262.036	15.08
262.251	16.04
262.466	17.15
262.682	17.16
262.897	18.06
263.113	18.14
263.328	19.63
263.543	23.66
263.759	24.95
263.974	23.91
264.189	24.26
264.405	23.88
264.62	23.87
264.835	25.53
265.051	29.19
265.266	31.19
265.481	31.77
265.696	32.1
265.912	29.13
266.127	26.84
266.342	24.78
266.557	24.18
266.773	22.4
266.988	22.35
267.203	20.01
267.418	18.79
267.633	16.89
267.848	15.72
268.064	15.56
268.279	15.67
268.494	15.48
268.709	16.44
268.924	17.73
269.139	19.96
269.354	21.41
269.569	22.71
269.784	21.29
269.999	22.49
270.214	22.73
270.429	21.96
270.644	20.53
270.859	19.9
271.074	20
271.289	19.98
271.504	19.21
271.719	17.63
271.934	17.04
272.149	17.49
272.363	17.14
272.578	16.69
272.793	15.23
273.008	16.01
273.223	15.87
273.438	14.75
273.653	15.62
273.867	15.39
274.082	16.09
274.297	16.78
274.512	17.98
274.726	17.46
274.941	18.13
275.156	21.88
275.371	21.43
275.585	23.35
275.8	25.04
276.015	22.24
276.229	23.08
276.444	22.8
276.659	22.35
276.873	22
277.088	22.32
277.302	22.83
277.517	20.6
277.732	21.8
277.946	23.12
278.161	23.45
278.375	26.2
278.59	25.15
278.804	24.66
279.019	27.54
279.233	25.84
279.448	24.46
279.662	23
279.877	23
280.091	22.01
280.306	19.99
280.52	17.81
280.735	14.2
280.949	15.53
281.163	16.36
281.378	12.64
281.592	13.45
281.806	14.44
282.021	16.41
282.235	16.86
282.449	18.25
282.664	17.36
282.878	18.35
283.092	20.63
283.307	20.07
283.521	18.82
283.735	19.93
283.949	19.18
284.164	18.82
284.378	17.21
284.592	16.03
284.806	15.67
285.02	15.62
285.234	15.1
285.449	15.26
285.663	16.57
285.877	16.22
286.091	16.46
286.305	17.82
286.519	17.27
286.733	16.44
286.947	17.11
287.161	15.37
287.375	16.1
287.589	17.74
287.803	16.97
288.017	16.64
288.231	16.37
288.445	15.16
288.659	15.8
288.873	17.1
289.087	19.5
289.301	19.88
289.515	21.2
289.729	20.22
289.943	19.58
290.157	20.73
290.371	19.12
290.584	19.82
290.798	20.75
291.012	20.13
291.226	19.54
291.44	19.85
291.654	19.56
291.867	19.35
292.081	19.74
292.295	19.9
292.509	18.34
292.722	20.86
292.936	21.23
293.15	21.92
293.364	21.87
293.577	21.01
293.791	19.15
294.005	20.35
294.218	18.45
294.432	18.73
294.645	18.89
294.859	19.86
295.073	18.6
295.286	19.73
295.5	18.19
295.713	17.63
295.927	18.14
296.14	18.49
296.354	17.19
296.568	17.04
296.781	17.3
296.994	15.99
297.208	14.85
297.421	15.55
297.635	14.64
297.848	13.89
298.062	13.44
298.275	12.68
298.489	12.77
298.702	13.49
298.915	14.24
299.129	14.31
299.342	16.14
299.555	18.27
299.769	18.16
299.982	19.68
300.195	22.26
300.409	23.05
300.622	25.45
300.835	26.21
301.048	26.11
301.262	27.92
301.475	27.35
301.688	26.79
301.901	25.68
302.115	26.51
302.328	24.56
302.541	23.66
302.754	24.18
302.967	23.65
303.18	22.97
303.393	22.45
303.607	21.4
303.82	23.46
304.033	24.1
304.246	25.3
304.459	25.22
304.672	25.59
304.885	26.71
305.098	26.27
305.311	26.58
305.524	26.95
305.737	27.92
305.95	28.1
306.163	27.03
306.376	25.5
306.589	24.24
306.802	22.38
307.015	23.31
307.228	22.62
307.44	21.7
307.653	20.67
307.866	21.05
308.079	21.57
308.292	20.68
308.505	22.38
308.718	22.46
308.93	21.89
309.143	22.14
309.356	21.88
309.569	21.76
309.781	23.98
309.994	24.32
310.207	24.78
310.42	23.44
310.632	23.62
310.845	21.3
311.058	21.18
311.27	21.44
311.483	21.75
311.696	21.8
311.908	21.14
312.121	21.01
312.333	22.4
312.546	22.14
312.759	22.16
312.971	22.82
313.184	25.54
313.396	26.32
313.609	26.17
313.821	26.65
314.034	27.63
314.246	29.31
314.459	28.42
314.671	27.17
314.884	27.19
315.096	28.63
315.309	29.7
315.521	28.04
315.733	28.15
315.946	26.54
316.158	27.56
316.371	27.48
316.583	26.81
316.795	25.1
317.008	24.45
317.22	23.87
317.432	22.71
317.644	23.45
317.857	23.83
318.069	22.84
318.281	26.04
318.494	25.42
318.706	25.64
318.918	25.65
319.13	28.41
319.342	28.05
319.555	26.73
319.767	27.71
319.979	26.4
320.191	25.96
320.403	27
320.615	25.34
320.827	25.55
321.039	24.88
321.252	24.8
321.464	24.17
321.676	26.84
321.888	27.13
322.1	25.28
322.312	25.1
322.524	26.71
322.736	25.73
322.948	27.34
323.16	26.67
323.372	25.61
323.584	25.27
323.796	25.61
324.007	24.25
324.219	27.01
324.431	27.23
324.643	27.11
324.855	26.82
325.067	27.28
325.279	26.56
325.491	26.07
325.702	26.52
325.914	27.45
326.126	27.62
326.338	27.61
326.55	25.9
326.761	27.83
326.973	27.53
327.185	27.57
327.396	28.88
327.608	29.71
327.82	30.5
328.032	31.85
328.243	32.48
328.455	32.52
328.666	33.59
328.878	33.75
329.09	32.82
329.301	34.7
329.513	34.85
329.725	34.99
329.936	36.03
330.148	36.22
330.359	36.59
330.571	37.02
330.782	37.19
330.994	37.41
331.205	37.58
331.417	38.54
331.628	38.04
331.84	38.9
332.051	38.72
332.262	38.21
332.474	37.88
332.685	37.59
332.897	36.6
333.108	36.4
333.319	36.07
333.531	37.5
333.742	37.5
333.953	36.59
334.165	36.27
334.376	36.77
334.587	36.23
334.799	36.33
335.01	36.31
335.221	37.47
335.432	37.01
335.644	37.3
335.855	36.58
336.066	38.15
336.277	39.94
336.488	39.51
336.7	38.73
336.911	38.98
337.122	39.66
337.333	39.67
337.544	39.61
337.755	41.02
337.966	40.74
338.177	41.18
338.388	39.26
338.599	38.92
338.811	39.25
339.022	40.35
339.233	39.66
339.444	39.57
339.655	39.13
339.866	39
340.076	38.86
340.287	39.46
340.498	38.69
340.709	38.4
340.92	37.72
341.131	38.08
341.342	37.63
341.553	37.83
341.764	37.79
341.975	38.6
342.185	37.72
342.396	36.57
342.607	36.48
342.818	37.01
343.029	37.03
343.239	37.17
343.45	36.12
343.661	35.72
343.872	36.26
344.082	35.89
344.293	35.7
344.504	37.38
344.714	37.82
344.925	37.83
345.136	37.71
345.346	38.2
345.557	38.46
345.768	38.98
345.978	39.4
346.189	40.29
346.399	40.37
346.61	39.77
346.821	38.49
347.031	39.67
347.242	39.25
347.452	39.16
347.663	39.62
347.873	40.39
348.084	40.19
348.294	40.11
348.504	39.28
348.715	39.97
348.925	40.15
349.136	39.63
349.346	37.35
349.557	37.4
349.767	37.04
349.977	37.4
350.188	36.91
350.398	37.06
350.608	36.26
350.819	37.14
351.029	36.64
351.239	37.95
351.449	38.7
351.66	40.68
351.87	40.77
352.08	39.68
352.29	38.43
352.501	37.21
352.711	38
352.921	39.21
353.131	38.14
353.341	38.65
353.552	38.23
353.762	37.29
353.972	36.63
354.182	37.65
354.392	39.28
354.602	39.77
354.812	40.54
355.022	39.59
355.232	38.87
355.442	39.3
355.652	38.49
355.862	38.38
356.072	39.57
356.282	39.32
356.492	38.23
356.702	37.41
356.912	37.4
357.122	38.24
357.332	38.13
357.542	38.2
357.752	38.02
357.962	38.19
358.171	37.47
358.381	37.18
358.591	36.53
358.801	36.99
359.011	36.9
359.221	36.88
359.43	36.11
359.64	35.43
359.85	35.45
360.06	34.87
360.269	35.55
360.479	35.42
360.689	34.88
360.899	34.97
361.108	34.5
361.318	34.81
361.528	34.42
361.737	34.57
361.947	34.58
362.156	34.17
362.366	34.32
362.576	33.76
362.785	34.06
362.995	34.58
363.204	35.36
363.414	35.79
363.623	35.6
363.833	36.01
364.042	35.38
364.252	36.02
364.461	35.69
364.671	35.58
364.88	35.69
365.09	35.71
365.299	35.47
365.509	35.23
365.718	34.76
365.927	34.73
366.137	34.55
366.346	34.06
366.555	33.68
366.765	34.62
366.974	35.16
367.183	35.27
367.393	34.46
367.602	34.08
367.811	34
368.021	34.07
368.23	34.21
368.439	33.54
368.648	34.32
368.857	34.53
369.067	33.84
369.276	33.68
369.485	33.13
369.694	33.3
369.903	33.07
370.112	32.8
370.321	32.39
370.531	32.8
370.74	32.78
370.949	31.94
371.158	31.84
371.367	32.06
371.576	31.54
371.785	31.53
371.994	31.75
372.203	31.92
372.412	32.05
372.621	32.12
372.83	32.26
373.039	32.91
373.248	33.18
373.457	33.12
373.666	33.02
373.874	32.77
374.083	32.44
374.292	32.45
374.501	31.7
374.71	31.08
374.919	31.06
375.128	30.18
375.336	29.98
375.545	30.53
375.754	31.02
375.963	30.66
376.171	30.76
376.38	31.25
376.589	31.32
376.798	31.65
377.006	31.99
377.215	31.92
377.424	31.7
377.632	31.77
377.841	31.27
378.05	31.01
378.258	30.84
378.467	30.98
378.675	30.42
378.884	30.31
379.093	30.28
379.301	30.39
379.51	30.31
379.718	30.69
379.927	30.55
380.135	30.58
380.344	30.19
380.552	29.95
380.761	29.72
380.969	29.98
381.177	29.88
381.386	30.56
381.594	29.75
381.803	29.36
382.011	29.34
382.219	28.94
382.428	28.74
382.636	29.03
382.845	29.34
383.053	29.36
383.261	28.73
383.469	28.19
383.678	27.37
383.886	27.25
384.094	27.32
384.302	26.76
384.511	26.73
384.719	26.59
384.927	26.12
385.135	26.03
385.343	25.88
385.552	26.13
385.76	25.96
385.968	26.03
386.176	26.05
386.384	25.74
386.592	26.07
386.8	26.06
387.008	26.25
387.216	26.28
387.424	26.54
387.633	26.63
387.841	26.44
388.049	27.12
388.257	26.61
388.465	26.46
388.672	26.81
388.88	26.79
389.088	26.73
389.296	26.71
389.504	26.71
389.712	26.8
389.92	26.25
390.128	26.28
390.336	25.83
390.544	26.3
390.751	26.71
390.959	26.65
391.167	26.44
391.375	26.48
391.583	26.39
391.79	26.1
391.998	25.92
392.206	26.44
392.414	26.39
392.621	26.35
392.829	26.08
393.037	26.07
393.244	25.87
393.452	25.83
393.66	25.91
393.867	25.74
394.075	25.77
394.283	25.84
394.49	25.36
394.698	25.7
394.905	25.66
395.113	26.03
395.32	25.83
395.528	25.98
395.735	25.85
395.943	25.55
396.15	25.36
396.358	25.51
396.565	25.35
396.773	25.54
396.98	25.46
397.188	25.16
397.395	24.91
397.602	24.94
397.81	24.74
398.017	25.24
398.225	25.23
398.432	25.36
398.639	25.4
398.847	25.64
399.054	25.65
399.261	25.48
399.468	25.7
399.676	25.85
399.883	26.03
400.09	26.15
400.297	26.34
400.505	26.36
400.712	26.75
400.919	26.93
401.126	26.59
401.333	26.46
401.54	26.61
401.748	26.62
401.955	26.56
402.162	26.44
402.369	26.32
402.576	25.83
402.783	25.74
402.99	25.54
403.197	25.24
403.404	25.37
403.611	25.47
403.818	25.57
404.025	25.46
404.232	25.3
404.439	25.36
404.646	25.02
404.853	24.96
405.06	24.85
405.267	24.85
405.474	24.94
405.681	24.67
405.887	24.69
406.094	24.69
406.301	25.12
406.508	25.27
406.715	25.33
406.922	25.66
407.128	25.53
407.335	25.69
407.542	25.54
407.749	25.42
407.955	25.77
408.162	25.44
408.369	25.21
408.575	24.98
408.782	24.89
408.989	24.56
409.195	24.42
409.402	24.73
409.609	24.9
409.815	24.87
410.022	24.95
410.228	25.04
410.435	25.53
410.642	25.13
410.848	25.12
411.055	25.06
411.261	25.24
411.468	25.55
411.674	25.23
411.881	24.99
412.087	24.86
412.294	24.67
412.5	24.28
412.706	24.03
412.913	24.43
413.119	24.39
413.326	24.51
413.532	24.9
413.738	24.92
413.945	24.98
414.151	24.95
414.357	24.95
414.564	25.05
414.77	25.04
414.976	24.82
415.182	24.98
415.389	24.76
415.595	24.38
415.801	23.82
416.007	23.36
416.214	23.43
416.42	23.25
416.626	23.43
416.832	23.29
417.038	23.4
417.244	23.5
417.45	23.04
417.657	23
417.863	23.09
418.069	23.16
418.275	23.33
418.481	23.17
418.687	23.18
418.893	22.93
419.099	22.86
419.305	22.77
419.511	22.64
419.717	22.56
419.923	22.39
420.129	22.18
420.335	22.09
420.541	21.85
420.746	21.87
420.952	21.82
421.158	21.73
421.364	21.5
421.57	21.32
421.776	21.37
421.982	21.44
422.187	21.46
422.393	21.42
422.599	21.33
422.805	21.38
423.01	21.39
423.216	21.41
423.422	21.37
423.628	21.55
423.833	21.56
424.039	21.59
424.245	21.65
424.45	21.53
424.656	21.45
424.862	21.39
425.067	21.46
425.273	21.3
425.478	21.26
425.684	21.32
425.889	21.45
426.095	21.55
426.301	21.3
426.506	21.13
426.712	21.26
426.917	21.5
427.123	21.45
427.328	21.44
427.533	21.55
427.739	21.58
427.944	21.66
428.15	21.5
428.355	21.46
428.561	21.66
428.766	21.63
428.971	21.85
429.177	21.85
429.382	22.02
429.587	22.04
429.793	22.06
429.998	22.04
430.203	22.09
430.408	21.95
430.614	21.95
430.819	21.83
431.024	21.77
431.229	21.6
431.434	21.55
431.64	21.82
431.845	21.98
432.05	22.17
432.255	22.08
432.46	21.94
432.665	21.93
432.87	21.81
433.076	22
433.281	22.24
433.486	22.21
433.691	22.26
433.896	21.96
434.101	21.7
434.306	21.53
434.511	21.51
434.716	21.55
434.921	21.62
435.126	21.62
435.331	21.28
435.535	20.84
435.74	20.86
435.945	20.63
436.15	20.73
436.355	20.92
436.56	20.86
436.765	21.05
436.97	20.94
437.174	21.15
437.379	21.29
437.584	21.42
437.789	21.52
437.993	21.46
438.198	21.64
438.403	21.48
438.608	21.26
438.812	21.13
439.017	20.91
439.222	20.96
439.426	20.65
439.631	20.47
439.836	20.41
440.04	20.64
440.245	20.68
440.45	20.62
440.654	20.72
440.859	20.73
441.063	20.7
441.268	20.87
441.472	20.91
441.677	21.15
441.881	21.3
442.086	21.32
442.29	21.26
442.495	21.19
442.699	21.19
442.904	21.17
443.108	21.06
443.312	21.19
443.517	21.12
443.721	21.09
443.925	20.87
444.13	20.77
444.334	20.87
444.538	20.86
444.743	20.98
444.947	20.94
445.151	20.76
445.356	20.8
445.56	20.85
445.764	20.76
445.968	20.65
446.173	20.69
446.377	20.56
446.581	20.46
446.785	20.37
446.989	20.29
447.193	20.29
447.398	20.34
447.602	20.33
447.806	20.33
448.01	20.49
448.214	20.55
448.418	20.5
448.622	20.68
448.826	20.68
449.03	20.77
449.234	20.69
449.438	20.73
449.642	20.77
449.846	21.02
450.05	21
450.254	20.71
450.458	20.68
450.662	20.72
450.866	20.51
451.069	20.61
451.273	20.61
451.477	20.65
451.681	20.81
451.885	20.85
452.089	20.76
452.292	20.73
452.496	20.77
452.7	20.86
452.904	21.01
453.107	21.16
453.311	21.25
453.515	21.31
453.719	21.24
453.922	21.08
454.126	21.01
454.33	20.95
454.533	20.96
454.737	20.92
454.94	20.89
455.144	20.7
455.348	20.59
455.551	20.52
455.755	20.57
455.958	20.78
456.162	20.79
456.365	20.76
456.569	20.71
456.772	20.61
456.976	20.54
457.179	20.45
457.383	20.3
457.586	20.36
457.79	20.32
457.993	20.28
458.196	20.13
458.4	20.12
458.603	20.26
458.807	20.03
459.01	20.04
459.213	20.19
459.417	20.21
459.62	20.23
459.823	20.16
460.026	20.11
460.23	20.1
460.433	20.05
460.636	19.97
460.839	19.94
461.042	20.08
461.246	19.94
461.449	19.88
461.652	19.8
461.855	19.92
462.058	20.03
462.261	20.04
462.464	19.93
462.668	20
462.871	20.43
463.074	20.45
463.277	20.44
463.48	20.84
463.683	20.91
463.886	20.91
464.089	21.03
464.292	21.01
464.495	20.93
464.698	21.05
464.901	21.17
465.104	21.13
465.306	21.22
465.509	21.22
465.712	21.05
465.915	21
466.118	21
466.321	20.97
466.524	20.87
466.726	20.98
466.929	21.09
467.132	20.82
467.335	20.7
467.538	20.57
467.74	20.76
467.943	20.86
468.146	20.97
468.348	21.03
468.551	20.99
468.754	21.02
468.956	21.11
469.159	20.87
469.362	21.27
469.564	21.22
469.767	21.39
469.969	21.28
470.172	21.19
470.375	21.11
470.577	21.41
470.78	21.47
470.982	21.75
471.185	21.46
471.387	21.34
471.59	21.14
471.792	21.04
471.995	21.04
472.197	21.02
472.399	21.02
472.602	21.13
472.804	20.85
473.007	20.67
473.209	20.49
473.411	20.79
473.614	20.94
473.816	21
474.018	21.07
474.22	20.96
474.423	21.03
474.625	21.18
474.827	21.17
475.03	21.12
475.232	21.37
475.434	21.48
475.636	21.34
475.838	21.44
476.04	21.31
476.243	21.31
476.445	21.34
476.647	21.35
476.849	21.15
477.051	20.92
477.253	21.25
477.455	21.11
477.657	20.95
477.859	20.93
478.061	20.83
478.263	20.72
478.465	20.59
478.667	20.48
478.869	20.56
479.071	20.54
479.273	20.7
479.475	20.51
479.677	20.5
479.879	20.62
480.081	20.7
480.283	20.73
480.485	20.84
480.686	20.96
480.888	20.99
481.09	20.83
481.292	20.76
481.494	20.87
481.695	20.92
481.897	20.82
482.099	20.74
482.301	20.6
482.502	20.4
482.704	20.33
482.906	20.22
483.107	20.07
483.309	19.92
483.511	19.9
483.712	19.69
483.914	19.55
484.115	19.5
484.317	19.41
484.519	19.33
484.72	19.33
484.922	19.29
485.123	19.23
485.325	19.23
485.526	19.28
485.728	19.3
485.929	19.36
486.131	19.41
486.332	19.46
486.534	19.44
486.735	19.55
486.936	19.61
487.138	19.64
487.339	19.64
487.541	19.75
487.742	19.68
487.943	19.67
488.144	19.69
488.346	19.77
488.547	19.84
488.748	19.95
488.95	19.88
489.151	19.85
489.352	19.91
489.553	20.02
489.755	20.02
489.956	20.18
490.157	20.18
490.358	20.3
490.559	20.23
490.76	20.14
490.961	20.03
491.163	20.14
491.364	20.16
491.565	20.03
491.766	19.98
491.967	19.99
492.168	19.91
492.369	19.89
492.57	19.84
492.771	19.91
492.972	19.95
493.173	20.12
493.374	20.19
493.575	20.34
493.776	20.55
493.976	20.69
494.177	20.93
494.378	21.1
494.579	21.35
494.78	21.3
494.981	21.24
495.182	21.28
495.382	21.33
495.583	21.27
495.784	21.3
495.985	21.43
496.185	21.58
496.386	21.36
496.587	21.4
496.788	21.28
496.988	21.47
497.189	21.53
497.39	21.61
497.59	21.61
497.791	21.75
497.992	21.68
498.192	21.62
498.393	21.52
498.593	21.6
498.794	21.61
498.994	21.71
499.195	21.65
499.395	21.69
499.596	21.83
499.796	21.82
499.997	21.93
500.197	21.96
500.398	22.07
500.598	22.12
500.799	22.28
500.999	22.51
501.199	22.56
501.4	22.79
501.6	22.94
501.801	22.74
502.001	22.81
502.201	22.65
502.402	22.69
502.602	22.6
502.802	22.58
503.002	22.56
503.203	22.44
503.403	22.51
503.603	22.6
503.803	22.63
504.003	22.94
504.204	23
504.404	23.05
504.604	23.24
504.804	23.44
505.004	23.64
505.204	23.6
505.404	23.78
505.604	23.87
505.804	23.73
506.005	23.86
506.205	23.92
506.405	24.19
506.605	24.18
506.805	24.36
507.005	24.53
507.204	24.58
507.404	24.68
507.604	24.72
507.804	24.9
508.004	25.02
508.204	24.97
508.404	24.91
508.604	24.72
508.804	24.99
509.003	24.84
509.203	24.68
509.403	24.71
509.603	24.72
509.803	24.83
510.002	24.85
510.202	24.9
510.402	25
510.602	25.03
510.801	25.24
511.001	25.26
511.201	25.31
511.4	25.38
511.6	25.43
511.8	25.43
511.999	25.71
512.199	25.6
512.398	25.72
512.598	25.9
512.797	26.17
512.997	26.16
513.197	26.12
513.396	26.5
513.596	26.73
513.795	26.92
513.994	27.15
514.194	26.99
514.393	27.23
514.593	27.51
514.792	27.53
514.992	27.51
515.191	27.79
515.39	27.95
515.59	28
515.789	28.25
515.988	28.38
516.188	28.41
516.387	28.4
516.586	28.44
516.786	28.41
516.985	28.4
517.184	28.4
517.383	28.31
517.582	28.39
517.782	28.18
517.981	27.95
518.18	27.73
518.379	27.92
518.578	27.93
518.777	27.98
518.976	27.96
519.176	28.08
519.375	28.1
519.574	28.13
519.773	28.23
519.972	28.54
520.171	28.85
520.37	29.11
520.569	29.17
520.768	29.47
520.967	29.7
521.166	29.8
521.365	29.8
521.564	30.08
521.762	30.37
521.961	30.51
522.16	30.45
522.359	30.38
522.558	30.36
522.757	30.48
522.956	30.37
523.154	30.33
523.353	30.49
523.552	30.76
523.751	30.76
523.949	30.68
524.148	30.73
524.347	30.69
524.546	30.86
524.744	31.03
524.943	31
525.142	31.13
525.34	31.11
525.539	30.99
525.737	30.86
525.936	30.82
526.135	30.85
526.333	30.84
526.532	30.9
526.73	30.81
526.929	30.87
527.127	30.84
527.326	30.73
527.524	30.77
527.723	30.79
527.921	30.8
528.12	30.7
528.318	30.65
528.516	30.62
528.715	30.5
528.913	30.45
529.112	30.41
529.31	30.34
529.508	30.33
529.707	30.39
529.905	30.42
530.103	30.49
530.301	30.63
530.5	30.75
530.698	30.87
530.896	31.14
531.094	31.39
531.293	31.48
531.491	31.8
531.689	32.01
531.887	32.06
532.085	32.13
532.283	32.17
532.481	32.18
532.68	32.24
532.878	32.22
533.076	32.24
533.274	32.16
533.472	32.22
533.67	32.14
533.868	32.23
534.066	32.2
534.264	32.27
534.462	32.43
534.66	32.59
534.858	32.65
535.056	32.83
535.253	32.83
535.451	33.03
535.649	33.11
535.847	33.38
536.045	33.38
536.243	33.66
536.441	33.79
536.638	33.77
536.836	33.7
537.034	33.84
537.232	33.78
537.43	33.92
537.627	33.94
537.825	34.08
538.023	34
538.22	34.25
538.418	34.28
538.616	34.41
538.813	34.51
539.011	34.75
539.209	34.83
539.406	35.08
539.604	35.19
539.801	35.2
539.999	35.06
540.196	35.07
540.394	34.93
540.591	34.9
540.789	34.79
540.986	34.82
541.184	34.73
541.381	34.65
541.579	34.51
541.776	34.51
541.974	34.52
542.171	34.57
542.368	34.67
542.566	34.68
542.763	34.62
542.96	34.71
543.158	34.66
543.355	34.79
543.552	34.93
543.75	35.24
543.947	35.38
544.144	35.56
544.341	35.67
544.539	35.77
544.736	35.95
544.933	36.17
545.13	36.39
545.327	36.58
545.524	36.67
545.722	36.82
545.919	36.68
546.116	36.61
546.313	36.4
546.51	36.54
546.707	36.59
546.904	36.58
547.101	36.73
547.298	36.9
547.495	37.05
547.692	37.13
547.889	37.16
548.086	37.18
548.283	37.55
548.48	37.81
548.677	38
548.874	38.25
549.07	38.48
549.267	38.64
549.464	38.6
549.661	38.64
549.858	38.83
550.055	39.09
550.251	39.38
550.448	39.28
550.645	39.5
550.842	39.61
551.038	39.5
551.235	39.69
551.432	39.67
551.628	39.75
551.825	40
552.022	40.04
552.218	39.93
552.415	40.11
552.612	40.28
552.808	40.41
553.005	40.33
553.201	40.49
553.398	40.58
553.594	40.65
553.791	40.76
553.987	40.74
554.184	40.65
554.38	40.94
554.577	40.94
554.773	41.23
554.97	41.33
555.166	41.81
555.362	41.82
555.559	41.98
555.755	42.14
555.952	42.15
556.148	42.28
556.344	42.61
556.541	42.53
556.737	42.47
556.933	42.4
557.129	42.21
557.326	42.05
557.522	42.16
557.718	42.17
557.914	42.23
558.11	42.28
558.307	42.36
558.503	42.27
558.699	42.46
558.895	42.76
559.091	42.85
559.287	43.42
559.483	43.61
559.679	43.8
559.876	43.75
560.072	43.74
560.268	43.84
560.464	43.74
560.66	43.99
560.856	43.83
561.052	43.67
561.247	43.56
561.443	43.47
561.639	43.45
561.835	43.2
562.031	43.47
562.227	43.49
562.423	43.36
562.619	43.61
562.815	43.75
563.01	44.13
563.206	44.58
563.402	44.59
563.598	44.37
563.793	44.26
563.989	44.4
564.185	44.21
564.381	44.08
564.576	44.45
564.772	44.51
564.968	44.23
565.163	43.91
565.359	43.46
565.555	43.61
565.75	43.87
565.946	44.04
566.141	44.15
566.337	44.19
566.532	44.4
566.728	44.31
566.923	44.19
567.119	44.28
567.314	44.48
567.51	44.78
567.705	44.54
567.901	44.63
568.096	44.72
568.292	44.88
568.487	44.93
568.682	45.12
568.878	45.14
569.073	45.26
569.268	45.4
569.464	45.55
569.659	45.63
569.854	45.92
570.05	45.87
570.245	45.96
570.44	45.92
570.635	45.91
570.831	46.04
571.026	46.05
571.221	46
571.416	45.74
571.611	45.42
571.806	45.3
572.002	45.43
572.197	45.07
572.392	44.65
572.587	44.51
572.782	44.71
572.977	44.54
573.172	44.53
573.367	44.72
573.562	45.1
573.757	45.35
573.952	45.34
574.147	45.41
574.342	45.83
574.537	46.03
574.732	46.05
574.927	45.95
575.121	46.09
575.316	46.25
575.511	46.32
575.706	46.23
575.901	46.19
576.096	46.27
576.29	46.29
576.485	46.32
576.68	46.7
576.875	46.86
577.069	46.96
577.264	47.01
577.459	47.24
577.654	46.97
577.848	46.95
578.043	47.03
578.238	47.29
578.432	47.22
578.627	47.2
578.821	47.19
579.016	47.21
579.21	47.31
579.405	47.14
579.6	46.96
579.794	47.38
579.989	47.47
580.183	47.42
580.378	47.38
580.572	47.7
580.766	47.89
580.961	47.81
581.155	47.84
581.35	48.31
581.544	48.52
581.738	48.62
581.933	48.39
582.127	48.78
582.321	48.79
582.516	49.09
582.71	48.8
582.904	48.96
583.099	48.95
583.293	49.22
583.487	49.12
583.681	49.19
583.875	49.05
584.07	48.86
584.264	48.57
584.458	49.04
584.652	48.88
584.846	48.93
585.04	48.73
585.234	49.03
585.428	49.02
585.623	48.57
585.817	48.69
586.011	48.93
586.205	49.35
586.399	49.41
586.593	49.31
586.787	49.31
586.981	49.37
587.174	49.48
587.368	49.49
587.562	49.5
587.756	49.67
587.95	49.46
588.144	49.24
588.338	49.36
588.532	49.36
588.725	49.3
588.919	49.15
589.113	49.02
589.307	49.07
589.501	48.67
589.694	48.62
589.888	48.48
590.082	48.4
590.275	48.45
590.469	48.5
590.663	48.58
590.856	48.38
591.05	48.47
591.244	48.57
591.437	48.52
591.631	48.79
591.824	48.84
592.018	49.02
592.212	49.35
592.405	49.4
592.599	49.21
592.792	49.2
592.986	49.26
593.179	49.12
593.372	49.15
593.566	49.15
593.759	49.36
593.953	49.33
594.146	49.24
594.339	49.13
594.533	49.34
594.726	49.16
594.92	49.29
595.113	49.47
595.306	49.83
595.499	49.73
595.693	49.48
595.886	49.35
596.079	49.23
596.272	49.27
596.466	49.08
596.659	48.95
596.852	49.17
597.045	49.02
597.238	48.93
597.431	48.82
597.624	48.87
597.818	49.18
598.011	49.16
598.204	49.11
598.397	49.03
598.59	49.18
598.783	49.14
598.976	49.12
599.169	49.07
599.362	49.01
599.555	48.89
599.748	49.15
599.941	49.23
600.134	49.16
600.326	49.71
600.519	50.23
600.712	50.46
600.905	50.43
601.098	50.37
601.291	50.51
601.483	50.96
601.676	51.15
601.869	50.9
602.062	50.82
602.255	50.87
602.447	50.44
602.64	50.15
602.833	49.9
603.025	49.94
603.218	49.93
603.411	49.72
603.603	49.14
603.796	49.08
603.989	48.88
604.181	48.56
604.374	48.6
604.566	48.67
604.759	48.67
604.951	48.62
605.144	48.5
605.336	48.92
605.529	49.18
605.721	49.45
605.914	49.38
606.106	49.52
606.299	49.83
606.491	49.69
606.683	49.59
606.876	49.68
607.068	49.77
607.26	49.89
607.453	49.52
607.645	49.47
607.837	49.53
608.03	49.68
608.222	49.7
608.414	49.54
608.606	49.56
608.799	50.06
608.991	49.74
609.183	49.88
609.375	49.88
609.567	49.61
609.759	49.47
609.952	49.47
610.144	49.44
610.336	49.49
610.528	49.59
610.72	49.8
610.912	49.47
611.104	49.95
611.296	49.97
611.488	50.29
611.68	50.57
611.872	50.61
612.064	51.06
612.256	51.31
612.448	51.53
612.64	51.59
612.832	51.7
613.023	52.02
613.215	52.03
613.407	51.95
613.599	51.75
613.791	52.23
613.983	52.43
614.174	52.04
614.366	52.02
614.558	51.85
614.75	51.92
614.941	51.82
615.133	51.89
615.325	52.03
615.516	51.91
615.708	51.94
615.9	51.49
616.091	51.51
616.283	51.28
616.475	51.11
616.666	51.44
616.858	51.55
617.049	51.38
617.241	51.29
617.432	50.79
617.624	51.05
617.815	51.17
618.007	51.32
618.198	51.26
618.39	51.59
618.581	51.48
618.773	51.24
618.964	51.21
619.155	51.44
619.347	51.21
619.538	51.55
619.729	51.57
619.921	51.47
620.112	51.54
620.303	51.44
620.494	51.1
620.686	51.35
620.877	51.51
621.068	51.4
621.259	51.71
621.451	52.01
621.642	51.75
621.833	51.56
622.024	51.52
622.215	51.28
622.406	51.39
622.597	51.9
622.788	51.76
622.98	51.8
623.171	51.85
623.362	51.62
623.553	51.52
623.744	51.53
623.935	51.63
624.126	51.57
624.317	51.65
624.508	51.69
624.698	51.55
624.889	51.54
625.08	51.76
625.271	52.01
625.462	51.93
625.653	52.12
625.844	51.9
626.034	51.49
626.225	51.51
626.416	51.56
626.607	51.6
626.798	51.61
626.988	51.53
627.179	51.48
627.37	50.89
627.56	50.92
627.751	50.43
627.942	50.69
628.132	50.71
628.323	50.58
628.514	50.71
628.704	50.72
628.895	50.37
629.085	50.27
629.276	50.1
629.466	50.74
629.657	50.65
629.847	51.12
630.038	51.1
630.228	51.76
630.419	52.32
630.609	52.3
630.8	52.38
630.99	52.63
631.181	53.21
631.371	53.36
631.561	53.35
631.752	53.43
631.942	53.33
632.132	53.52
632.323	53.35
632.513	53.05
632.703	52.79
632.893	52.9
633.084	53.03
633.274	52.61
633.464	52.16
633.654	52.01
633.844	51.93
634.034	51.72
634.225	51.31
634.415	51.11
634.605	51.2
634.795	51.43
634.985	51.31
635.175	51.23
635.365	51.21
635.555	51.62
635.745	51.57
635.935	51.65
636.125	51.64
636.315	51.93
636.505	52.2
636.695	52.13
636.885	51.92
637.075	51.76
637.265	51.75
637.455	52.23
637.644	52.15
637.834	52.27
638.024	52.11
638.214	52.54
638.404	52.44
638.593	52.35
638.783	52.46
638.973	52.93
639.163	52.92
639.352	53.02
639.542	52.9
639.732	53.13
639.921	53.16
640.111	53.19
640.301	53.01
640.49	53.45
640.68	53.37
640.87	52.94
641.059	52.41
641.249	52.87
641.438	52.96
641.628	52.89
641.817	52.88
642.007	52.9
642.196	53.29
642.386	53.17
642.575	53.26
642.764	52.95
642.954	53.13
643.143	53.68
643.333	53.57
643.522	53.36
643.711	53.14
643.901	52.66
644.09	52.85
644.279	52.91
644.469	53.08
644.658	52.79
644.847	53.55
645.036	53.67
645.226	53.41
645.415	53.38
645.604	52.87
645.793	53.3
645.982	53.61
646.171	53.32
646.361	53.03
646.55	53.08
646.739	52.97
646.928	52.42
647.117	52.73
647.306	52.25
647.495	51.95
647.684	52.39
647.873	52.13
648.062	52.31
648.251	52.76
648.44	52.81
648.629	52.48
648.818	52.22
649.007	52.38
649.196	52.27
649.384	52.38
649.573	52.57
649.762	52.72
649.951	52.78
650.14	52.84
650.328	52.61
650.517	52.39
650.706	52.99
650.895	53.49
651.083	53.83
651.272	53.48
651.461	53.78
651.65	53.99
651.838	53.76
652.027	53.31
652.216	52.95
652.404	52.89
652.593	53.23
652.781	52.83
652.97	53
653.158	52.56
653.347	52.78
653.535	52.69
653.724	52.37
653.912	52.78
654.101	53.17
654.289	53.2
654.478	53.35
654.666	53.55
654.855	53.78
655.043	53.24
655.231	53.38
655.42	53.69
655.608	54.12
655.796	54.03
655.985	53.83
656.173	53.89
656.361	53.95
656.55	53.52
656.738	52.86
656.926	52.99
657.114	53.08
657.302	52.78
657.491	52.45
657.679	51.98
657.867	52.22
658.055	52.08
658.243	51.82
658.431	51.88
658.619	51.96
658.807	52.21
658.996	51.8
659.184	51.97
659.372	52.19
659.56	52.15
659.748	52.08
659.936	52.24
660.124	52.21
660.311	52.21
660.499	52.08
660.687	51.94
660.875	52.24
661.063	52.47
661.251	52.53
661.439	52.64
661.627	53.12
661.814	53.13
662.002	52.91
662.19	52.99
662.378	53.4
662.565	53.33
662.753	53.68
662.941	53.19
663.129	53.06
663.316	52.92
663.504	52.72
663.692	52.98
663.879	53.42
664.067	53.38
664.254	53.08
664.442	53.83
664.63	54.33
664.817	54.43
665.005	54.25
665.192	54.29
665.38	54.72
665.567	54.64
665.755	54.24
665.942	54.16
666.13	54.1
666.317	54.5
666.504	53.25
666.692	53.2
666.879	53.38
667.067	53.78
667.254	54.12
667.441	53.71
667.629	54.42
667.816	54.37
668.003	54.25
668.19	54.4
668.378	54.01
668.565	54.23
668.752	54.22
668.939	54.04
669.127	53.84
669.314	53.6
669.501	53.43
669.688	53.58
669.875	53.42
670.062	53.95
670.249	54
670.436	54.56
670.623	54.83
670.81	54.72
670.997	54.25
671.184	54.42
671.371	54.76
671.558	55.09
671.745	54.26
671.932	54.49
672.119	54.21
672.306	54.36
672.493	54.21
672.68	54.29
672.867	53.89
673.054	54.05
673.24	54.03
673.427	53.61
673.614	53.86
673.801	54.25
673.988	54.03
674.174	54.33
674.361	54.23
674.548	54.15
674.734	53.54
674.921	53.9
675.108	54.33
675.294	54.32
675.481	54.51
675.668	54.65
675.854	54.71
676.041	54.32
676.227	53.67
676.414	53.73
676.601	53.95
676.787	54.28
676.974	54.67
677.16	54.76
677.347	55.12
677.533	55.29
677.719	54.78
677.906	54.4
678.092	55.14
678.279	55.17
678.465	54.93
678.651	55.13
678.838	55.24
679.024	54.35
679.21	53.83
679.397	53.26
679.583	53.05
679.769	52.89
679.955	52.88
680.142	52.33
680.328	52.5
680.514	52.4
680.7	51.99
680.886	52.13
681.073	52.75
681.259	52.49
681.445	52.98
681.631	52.65
681.817	52.26
682.003	52.7
682.189	52.51
682.375	52.65
682.561	52.97
682.747	52.89
682.933	52.7
683.119	52.78
683.305	53.35
683.491	52.88
683.677	53.05
683.863	53.57
684.049	53.26
684.235	53.29
684.42	53.43
684.606	52.89
684.792	53.69
684.978	53.67
685.164	53.11
685.349	53.18
685.535	53.42
685.721	53.56
685.907	53.32
686.092	53.34
686.278	53.79
686.464	53.33
686.649	53.57
686.835	53.25
687.021	53.53
687.206	53.88
687.392	53.26
687.577	53.1
687.763	53.08
687.948	53.09
688.134	52.65
688.319	52.71
688.505	53.11
688.69	53.04
688.876	52.82
689.061	52.07
689.247	52.11
689.432	52.54
689.618	52.55
689.803	52.92
689.988	53.35
690.174	53.83
690.359	53.32
690.544	53.07
690.73	53.77
690.915	53.97
691.1	54.32
691.285	54.34
691.471	54.51
691.656	54.5
691.841	54.28
692.026	53.93
692.211	54
692.396	54.72
692.582	54.35
692.767	53.43
692.952	53.36
693.137	53.34
693.322	53.62
693.507	53.77
693.692	54.05
693.877	53.7
694.062	54.26
694.247	54.1
694.432	54.14
694.617	54.49
694.802	55.2
694.987	55.01
695.172	55.65
695.357	54.55
695.541	54.12
695.726	54.49
695.911	55.32
696.096	54.63
696.281	54.28
696.466	54.04
696.65	53.98
696.835	53.61
697.02	53.36
697.204	53.47
697.389	53.79
697.574	53.91
697.759	53.33
697.943	52.49
698.128	52.57
698.312	52.9
698.497	52.4
698.682	52.07
698.866	51.83
699.051	51.82
699.235	51.17
699.42	51.17
699.604	50.99
699.789	50.86
699.973	50.97
700.158	51.2
700.342	51.15
700.527	51.96
700.711	52.29
700.895	53.19
701.08	53.75
701.264	54.52
701.448	54.63
701.633	55.07
701.817	55.97
702.001	56.33
702.186	56.59
702.37	56.76
702.554	56.04
702.738	56.28
702.923	55.66
703.107	55.73
703.291	55.4
703.475	55.8
703.659	55.15
703.843	55.12
704.027	55.92
704.212	55.04
704.396	55.26
704.58	56.26
704.764	56
704.948	56.07
705.132	55.52
705.316	55.96
705.5	56.06
705.684	56.28
705.868	55.99
706.052	55.62
706.235	56.89
706.419	56.6
706.603	56.68
706.787	56.33
706.971	56.82
707.155	56.89
707.339	56.24
707.522	56.23
707.706	56.75
707.89	57.03
708.074	56.57
708.257	55.48
708.441	55.84
708.625	55.02
708.808	55.4
708.992	55.79
709.176	56.4
709.359	56.77
709.543	56.85
709.727	56.55
709.91	56.07
710.094	56.24
710.277	56.55
710.461	56.5
710.644	56.94
710.828	57.3
711.011	56.59
711.195	56.03
711.378	56.07
711.562	55.27
711.745	55
711.928	55.2
712.112	54.8
712.295	54.91
712.478	54.36
712.662	55.02
712.845	55.24
713.028	55.26
713.212	55.16
713.395	55.32
713.578	56.03
713.761	56.1
713.945	55.94
714.128	56.09
714.311	56.69
714.494	56.87
714.677	55.84
714.86	55.26
715.043	55.2
715.227	55.94
715.41	55.03
715.593	55.43
715.776	55.55
715.959	54.98
716.142	54.71
716.325	53.48
716.508	53.47
716.691	53.05
716.874	53.09
717.057	52.72
717.239	52.53
717.422	52.77
717.605	51.91
717.788	51.69
717.971	53.88
718.154	54.47
718.337	55.36
718.519	55.54
718.702	56.18
718.885	56.09
719.068	56.19
719.25	56.66
719.433	56.59
719.616	56.7
719.798	57.28
719.981	56.58
720.164	56.34
720.346	55.96
720.529	55.74
720.712	55.57
720.894	56.16
721.077	56.14
721.259	55.6
721.442	56.85
721.624	57.32
721.807	57.62
721.989	56.36
722.172	56.92
722.354	57.79
722.537	57.84
722.719	57.87
722.901	56.85
723.084	57.35
723.266	56.66
723.448	56.07
723.631	55.86
723.813	55.64
723.995	55.93
724.178	56.14
724.36	55.41
724.542	55.03
724.724	55.74
724.907	56.15
725.089	56.04
725.271	56.15
725.453	55.29
725.635	55.36
725.817	55.96
725.999	56.6
726.181	56.09
726.364	56.49
726.546	56.64
726.728	56.08
726.91	56.37
727.092	56.06
727.274	57
727.456	57.84
727.638	57.52
727.819	56.65
728.001	54.63
728.183	54.32
728.365	54
728.547	54.57
728.729	56.1
728.911	56.14
729.093	57.03
729.274	55.81
729.456	56.04
729.638	56.62
729.82	57.58
730.001	58.08
730.183	59.23
730.365	59.11
730.546	58.93
730.728	57.98
730.91	58.06
731.091	58.19
731.273	58.03
731.455	57.95
731.636	57.66
731.818	57.28
731.999	58.12
732.181	57.65
732.362	58.66
732.544	59.33
732.725	58.51
732.907	57.72
733.088	57.62
733.27	59.31
733.451	58.93
733.633	59.49
733.814	59.35
733.995	59.71
734.177	59.98
734.358	59.25
734.539	58.5
734.721	59.57
734.902	60.63
735.083	60.15
735.264	59.52
735.446	60.95
735.627	59.81
735.808	59.21
735.989	58.84
736.17	58.61
736.351	58.66
736.533	58.52
736.714	58.27
736.895	57.74
737.076	57.56
737.257	57.58
737.438	56.83
737.619	57.64
737.8	57.05
737.981	57.53
738.162	57.57
738.343	57.67
738.524	58.22
738.705	58.5
738.886	59.8
739.067	59.87
739.247	58.65
739.428	57.84
739.609	57.59
739.79	58.86
739.971	57.82
740.151	58.19
740.332	58.35
740.513	58.4
740.694	58.01
740.874	57.46
741.055	57.63
741.236	58.8
741.417	58.82
741.597	59.44
741.778	59.03
741.958	59.02
742.139	58.86
742.32	58.51
742.5	59.7
742.681	59.83
742.861	60.18
743.042	60.05
743.222	60.43
743.403	61.3
743.583	61.69
743.764	62.91
743.944	64.35
744.124	64
744.305	63.66
744.485	63.36
744.666	62.68
744.846	63.01
745.026	64.15
745.207	63.97
745.387	64.94
745.567	65.12
745.747	63.88
745.928	62.87
746.108	62.82
746.288	63.87
746.468	64.03
746.648	64.45
746.829	63.9
747.009	64.71
747.189	64.58
747.369	64.47
747.549	64.23
747.729	64.67
747.909	65.75
748.089	65.22
748.269	64.88
748.449	63.72
748.629	63.46
748.809	62.88
748.989	62.19
749.169	61.05
749.349	60.14
749.529	60.11
749.709	60
749.889	59.63
750.068	60.52
750.248	60.64
750.428	60.28
750.608	60.58
750.788	61.11
750.967	60.12
751.147	60.77
751.327	61.07
751.507	60.79
751.686	62.37
751.866	62.64
752.046	62.91
752.225	62.33
752.405	63.9
752.585	64.07
752.764	64.66
752.944	64.22
753.123	65.45
753.303	64.82
753.482	64.71
753.662	63.26
753.841	62.7
754.021	63.24
754.2	65.12
754.38	64.79
754.559	65.76
754.739	65.17
754.918	66.2
755.097	65.25
755.277	65.26
755.456	65.95
755.635	66.24
755.815	66.72
755.994	66.05
756.173	63.98
756.352	62.97
756.532	61.41
756.711	60.73
756.89	60.49
757.069	60.69
757.248	59.8
757.427	58.96
757.607	59.48
757.786	59.17
757.965	58.35
758.144	57.85
758.323	58.46
758.502	59.42
758.681	59.15
758.86	59.02
759.039	57.87
759.218	58.26
759.397	57.61
759.576	56.16
759.755	55.57
759.934	55.5
760.113	57.18
760.291	56.46
760.47	56.49
760.649	57.27
760.828	57.27
761.007	56.74
761.186	57.61
761.364	57.48
761.543	57.25
761.722	56.7
761.901	55.85
762.079	55.12
762.258	55.41
762.437	55.57
762.615	54.53
762.794	55.1
762.972	55.43
763.151	54.44
763.33	54.36
763.508	54.33
763.687	54.64
763.865	54.95
764.044	54.59
764.222	54.66
764.401	54.03
764.579	54.17
764.758	52.91
764.936	53.31
765.114	53.75
765.293	54.78
765.471	55.73
765.65	56.43
765.828	57.27
766.006	58.38
766.184	58.51
766.363	59.17
766.541	60.16
766.719	61.06
766.898	61.96
767.076	62.96
767.254	62.34
767.432	61.92
767.61	61.64
767.788	62.46
767.967	61.9
768.145	61.79
768.323	62.46
768.501	63.18
768.679	64.07
768.857	63.92
769.035	64.74
769.213	65.36
769.391	65.73
769.569	67.21
769.747	66.97
769.925	67.37
770.103	67.31
770.281	64.98
770.459	63.79
770.636	63.42
770.814	63.22
770.992	63.27
771.17	64.95
771.348	65.34
771.525	64.21
771.703	63.15
771.881	63.85
772.059	65.03
772.236	65.06
772.414	66.57
772.592	67.69
772.769	70.3
772.947	68.72
773.125	68.07
773.302	68.36
773.48	69.47
773.657	70.84
773.835	70.72
774.013	70.3
774.19	72.77
774.368	70.53
774.545	69.18
774.723	69.34
774.9	68.61
775.077	69.09
775.255	68.32
775.432	69.68
775.61	69.54
775.787	69.29
775.964	69.83
776.142	69.04
776.319	71.15
776.496	72.12
776.674	69.56
776.851	70.81
777.028	69.92
777.205	70.02
777.382	68.57
777.56	69.68
777.737	74.32
777.914	75.04
778.091	74.77
778.268	72.58
778.445	72.06
778.622	71.74
778.8	72.68
778.977	72.76
779.154	68.14
779.331	66.99
779.508	63.02
779.685	58.18
779.862	57.08
780.038	56.9
780.215	58.09
780.392	57.76
780.569	59.97
780.746	58.2
780.923	58.78
781.1	62.85
781.277	63.84
781.453	66.59
781.63	65.58
781.807	68.04
781.984	68.38
782.16	68.4
782.337	68.17
782.514	67.97
782.691	69.43
782.867	69.39
783.044	71.4
783.221	71.74
783.397	74.58
783.574	74.17
783.75	73.15
783.927	72.55
784.103	73.05
784.28	73.1
784.456	72.88
784.633	73.52
784.809	73.43
784.986	70.72
785.162	68.55
785.339	64.17
785.515	66.92
785.692	64.96
785.868	66.6
786.044	67.73
786.221	67.39
786.397	67.2
786.573	65.28
786.749	64.78
786.926	69.11
787.102	69.8
787.278	70.95
787.454	69.63
787.631	71.11
787.807	68.79
787.983	68.17
788.159	67.97
788.335	66.32
788.511	67.17
788.687	68.83
788.863	68.56
789.039	68.69
789.216	68.55
789.392	67.55
789.568	68
789.744	70.2
789.919	70.81
790.095	70.32
790.271	70.38
790.447	69.1
790.623	67.66
790.799	67.83
790.975	69.83
791.151	69.45
791.327	71.06
791.502	68.59
791.678	67.81
791.854	66.57
792.03	67.17
792.205	67.22
792.381	67.75
792.557	67.76
792.733	66.36
792.908	64.76
793.084	67.06
793.259	65.94
793.435	68.48
793.611	70.27
793.786	70.22
793.962	70.67
794.137	70.07
794.313	70.62
794.488	70.04
794.664	69.2
794.839	69.98
795.015	69.45
795.19	69.09
795.366	70.16
795.541	66.51
795.716	64.35
795.892	66.69
796.067	67.47
796.242	65.25
796.418	65.31
796.593	68.6
796.768	70.41
796.944	69.12
797.119	71.2
797.294	68.84
797.469	71.59
797.644	73.07
797.82	70.4
797.995	71.32
798.17	74.66
798.345	75.33
798.52	71.86
798.695	70
798.87	70.64
799.045	67.84
799.22	68.22
799.395	67.66
799.57	67.55
799.745	68.3
799.92	68.8
800.095	70.91
800.27	69.73
800.445	70.46
800.62	70.62
800.795	70.17
800.97	72.16
801.145	70.15
801.319	67.96
801.494	65.79
801.669	67.57
801.844	67.37
802.018	62.99
802.193	64.72
802.368	60.89
802.543	61.27
802.717	63.2
802.892	62.35
803.067	64.74
803.241	66.28
803.416	69.02
803.59	66.66
803.765	68.05
803.94	65.91
804.114	62.37
804.289	68.68
804.463	68.76
804.638	67.77
804.812	66.63
804.986	66.07
805.161	68.66
805.335	68.99
805.51	68.41
805.684	67.87
805.858	71.31
806.033	74.77
806.207	73.51
806.381	71.7
806.556	72.81
806.73	75.58
806.904	75.57
807.078	72.69
807.253	74.93
807.427	74.13
807.601	73.4
807.775	72.33
807.949	72.21
808.123	71.28
808.298	72.26
808.472	72.42
808.646	73.18
808.82	73.06
808.994	72.67
809.168	69.28
809.342	74.59
809.516	73.87
809.69	75.85
809.864	72.48
810.038	76.54
810.212	75.82
810.385	74.11
810.559	73.01
810.733	74.54
810.907	73.41
811.081	75.33
811.255	70.56
811.428	73.14
811.602	74.53
811.776	76.66
811.95	73.45
812.123	77.1
812.297	78.93
812.471	77.92
812.644	76.42
812.818	77.22
812.992	77.61
813.165	79.92
813.339	76.13
813.512	74.05
813.686	73.61
813.86	71.31
814.033	70.2
814.207	66.56
814.38	64.7
814.554	66.72
814.727	71.03
814.9	72.13
815.074	68.39
815.247	69.41
815.421	67.17
815.594	72.83
815.767	74.22
815.941	73.7
816.114	78.65
816.287	83.3
816.46	81.76
816.634	79.32
816.807	77.49
816.98	83.11
817.153	88.15
817.327	84.35
817.5	80.76
817.673	84.01
817.846	82.19
818.019	80.41
818.192	79.94
818.365	80.13
818.538	79.64
818.711	75.34
818.884	70.26
819.057	65.78
819.23	69.52
819.403	68.35
819.576	65.65
819.749	65.91
819.922	65.27
820.095	64.54
820.268	63.53
820.441	64.39
820.614	66.54
820.786	67.83
820.959	68.76
821.132	67.17
821.305	66.24
821.477	64.65
821.65	61.35
821.823	60.57
821.996	59
822.168	58.3
822.341	55.07
822.514	54.46
822.686	53.89
822.859	52.72
823.031	52
823.204	51.65
823.376	50.93
823.549	50.86
823.722	50.7
823.894	50.81
824.067	50.72
824.239	51.57
824.411	51.62
824.584	52.05
824.756	51.96
824.929	52.67
825.101	52.99
825.273	53.55
825.446	54.65
825.618	54.25
825.79	54.07
825.963	53.29
826.135	54.26
826.307	54.5
826.479	54.07
826.652	54.55
826.824	54.8
826.996	54.16
827.168	54.19
827.34	54.44
827.512	54.1
827.684	54.77
827.856	56
828.029	55.92
828.201	55.04
828.373	55.62
828.545	57.13
828.717	56.55
828.889	56.73
829.061	57.32
829.232	58.67
829.404	60.01
829.576	60.49
829.748	61
829.92	61.81
830.092	64.14
830.264	63.9
830.436	64.2
830.607	65.34
830.779	66.86
830.951	69.4
831.123	69.62
831.294	70.09
831.466	72
831.638	71.45
831.809	69.51
831.981	70.23
832.153	69.31
832.324	67.73
832.496	68.34
832.667	69.25
832.839	69.23
833.011	66.19
833.182	67.2
833.354	63.36
833.525	64.94
833.697	66.15
833.868	63.19
834.039	63.94
834.211	63.85
834.382	62.81
834.554	61.79
834.725	60.71
834.896	59.95
835.068	58.3
835.239	57.59
835.41	57.22
835.581	57.22
835.753	57.29
835.924	57.99
836.095	57.3
836.266	58.23
836.438	57.2
836.609	55.21
836.78	55.86
836.951	56.42
837.122	58.17
837.293	59.59
837.464	62.07
837.635	65.51
837.806	63.95
837.977	66.99
838.148	67.89
838.319	71.72
838.49	73.7
838.661	73.85
838.832	80.35
839.003	81.46
839.174	80.8
839.345	76.3
839.516	74.83
839.687	79.19
839.857	73.85
840.028	70
840.199	70.48
840.37	77.97
840.54	84.02
840.711	73.57
840.882	74.17
841.053	72.53
841.223	71.59
841.394	69.03
841.564	71.95
841.735	76.72
841.906	81.7
842.076	81.79
842.247	73.86
842.417	71.53
842.588	77.33
842.758	80.45
842.929	83.54
843.099	88.44
843.27	94.35
843.44	93.4
843.611	94.5
843.781	93.01
843.951	91.83
844.122	97.25
844.292	100.36
844.462	104.97
844.633	99.54
844.803	94.44
844.973	92.01
845.144	95.63
845.314	100.14
845.484	105.06
845.654	108.83
845.824	116.53
845.995	119.76
846.165	122.65
846.335	121.67
846.505	132.98
846.675	143.39
846.845	168.41
847.015	171.11
847.185	168
847.355	162.57
847.525	161.49
847.695	160.5
847.865	161.58
848.035	157.24
848.205	166.42
848.375	156.79
848.545	153.42
848.715	137.86
848.884	126.95
849.054	122.67
849.224	120.7
849.394	124.56
849.564	125.32
849.733	132.13
849.903	137.12
850.073	130.66
850.243	148.46
850.412	139.25
850.582	128.31
850.752	140.64
850.921	131.85
851.091	144.2
851.26	137.91
851.43	126.41
851.599	119.22
851.769	116.71
851.939	109.89
852.108	99.99
852.278	105.99
852.447	115.78
852.616	122.69
852.786	116.95
852.955	111.28
853.125	113.92
853.294	118.78
853.463	115.38
853.633	114.45
853.802	133.14
853.971	138.82
854.141	139.87
854.31	139.03
854.479	134.12
854.648	166
854.818	160.6
854.987	150.69
855.156	155.57
855.325	159.14
855.494	166.13
855.663	149.22
855.832	132.72
856.001	139.67
856.171	134.82
856.34	131.65
856.509	129.72
856.678	129.69
856.847	125.68
857.016	128.83
857.185	118.72
857.353	117.94
857.522	120.49
857.691	128.15
857.86	126.45
858.029	130.67
858.198	123.07
858.367	119.05
858.535	119.46
858.704	121.99
858.873	122.38
859.042	125.11
859.21	130.97
859.379	132.06
859.548	135.06
859.717	128.41
859.885	122.44
860.054	133.85
860.222	130.79
860.391	133.04
860.56	139.33
860.728	131.66
860.897	130.33
861.065	127.31
861.234	120.68
861.402	129.05
861.571	131.12
861.739	144.75
861.908	134.87
862.076	132.73
862.244	129.5
862.413	126.91
862.581	138.67
862.749	147.97
862.918	153.6
863.086	179.53
863.254	159.14
863.423	159.71
863.591	145.45
863.759	143.98
863.927	153.16
864.096	145.03
864.264	151.55
864.432	139.44
864.6	137.71
864.768	133.75
864.936	126.82
865.104	124.91
865.272	136.19
865.44	137.27
865.608	148.52
865.776	133.37
865.944	139.16
866.112	131.53
866.28	141.69
866.448	132.62
866.616	119.3
866.784	123.66
866.952	125.03
867.12	109.78
867.288	104.68
867.455	103.8
867.623	110.91
867.791	108.29
867.959	111.54
868.127	105.09
868.294	108.02
868.462	109.47
868.63	96.47
868.797	95.67
868.965	98.22
869.133	103.99
869.3	99.59
869.468	91.69
869.636	82.51
869.803	81.58
869.971	83.36
870.138	94.79
870.306	96.3
870.473	106.6
870.641	108.01
870.808	113.53
870.975	103.95
871.143	103.07
871.31	99.55
871.478	119.14
871.645	119.28
871.812	122.83
871.98	122.62
872.147	129.56
872.314	116.9
872.482	122.68
872.649	120.7
872.816	125.83
872.983	147.44
873.15	157.58
873.318	165.5
873.485	162.9
873.652	150.65
873.819	137.92
873.986	120.04
874.153	118.87
874.32	122.4
874.487	116.47
874.654	116.44
874.821	112.38
874.988	111.78
875.155	99.17
875.322	90.99
875.489	104.78
875.656	106.88
875.823	125.23
875.99	130.22
876.157	123.15
876.324	123.32
876.49	129.16
876.657	119.83
876.824	144.76
876.991	164.25
877.157	186.83
877.324	176.21
877.491	178.78
877.658	163.99
877.824	176.03
877.991	168.53
878.157	172.93
878.324	156.33
878.491	154.02
878.657	143.9
878.824	138.37
878.99	117.9
879.157	111.35
879.323	100.11
879.49	97.11
879.656	99.92
879.823	106.85
879.989	107.86
880.156	115.43
880.322	110.28
880.488	102.44
880.655	99.11
880.821	109.14
880.987	104.84
881.154	107.65
881.32	104.14
881.486	94.01
881.652	87.82
881.819	82.82
881.985	77.28
882.151	78.12
882.317	73.56
882.483	69.44
882.649	67.23
882.816	68.18
882.982	65.99
883.148	63.94
883.314	62.7
883.48	61.92
883.646	60.51
883.812	60.47
883.978	62.03
884.144	61.67
884.31	61.7
884.476	59.27
884.642	57.23
884.807	57.68
884.973	57.81
885.139	58.66
885.305	60.94
885.471	63.98
885.637	62.69
885.802	61.12
885.968	63.53
886.134	65.74
886.3	67.72
886.465	72.09
886.631	72.97
886.797	77.57
886.962	80.32
887.128	78.65
887.293	76.82
887.459	78.12
887.625	77.89
887.79	79.05
887.956	78.2
888.121	81.77
888.287	78.99
888.452	77.48
888.618	73
888.783	70.41
