Data from LC_237_Reflection_1.txt Node
Date: Thu Nov 19 22:11:35 EST 2015
User: robert
Spectrometer: USB4E03001
Autoset integration time: false
Trigger mode: 4
Integration Time (sec): 1.000000E-1
Scans to average: 15
Electric dark correction enabled: true
Nonlinearity correction enabled: false
Boxcar width: 5
Stray light correction enabled: false
XAxis mode: Wavelengths
Stop averaging: false
Number of Pixels in Spectrum: 3648
>>>>>Begin Spectral Data<<<<<
177.566	86.83
177.785	73.42
178.005	46.96
178.225	46.93
178.445	33.32
178.665	23.33
178.885	39.35
179.105	-380.36
179.324	-289.18
179.544	-264.03
179.764	-101.01
179.984	-68
180.204	-154.6
180.423	43.81
180.643	-16.9
180.863	8.08
181.083	21.53
181.302	29.46
181.522	46.63
181.742	59.95
181.961	79.07
182.181	96.68
182.401	140.77
182.621	126.14
182.84	125.36
183.06	144
183.279	148.25
183.499	63
183.719	-136.54
183.938	-1760.94
184.158	1167.98
184.377	895.07
184.597	-602.79
184.816	7202.83
185.036	413.92
185.256	-5310.56
185.475	-245.6
185.695	-184.45
185.914	-198.71
186.134	-447.1
186.353	-125.51
186.572	-129.12
186.792	-492.02
187.011	4193.98
187.231	1907.5
187.45	1908.22
187.67	240.62
187.889	196.07
188.108	164.82
188.328	178.92
188.547	419.69
188.766	755.48
188.986	690.78
189.205	-4146.08
189.424	-44.7
189.644	13.12
189.863	21.12
190.082	40.53
190.302	23.06
190.521	42.42
190.74	51.69
190.959	66.93
191.178	56.39
191.398	20.34
191.617	-9.74
191.836	-172.76
192.055	-87.32
192.274	-45.5
192.494	-19.97
192.713	43.21
192.932	48.13
193.151	43.89
193.37	42.35
193.589	40.97
193.808	57.21
194.027	61.74
194.246	52.02
194.465	77.9
194.685	56.29
194.904	55.94
195.123	57.71
195.342	61.88
195.561	35
195.78	35.1
195.999	36.78
196.218	30.52
196.436	26.05
196.655	11.84
196.874	8.42
197.093	14.1
197.312	-4.65
197.531	-48.31
197.75	-68.74
197.969	-0.77
198.188	269.09
198.407	75.75
198.625	94.04
198.844	56.82
199.063	-473.08
199.282	-22.07
199.501	12.97
199.719	78.36
199.938	71.22
200.157	156.96
200.376	167.27
200.594	-155.95
200.813	-325.17
201.032	-159.92
201.251	-252.03
201.469	-361.65
201.688	-52.02
201.907	-16.82
202.125	-71.18
202.344	-10.44
202.563	-114.47
202.781	-139.86
203	-224.87
203.218	-159.99
203.437	-223.18
203.656	-150.82
203.874	-142.9
204.093	-354.83
204.311	-111.96
204.53	-88.71
204.748	-77.68
204.967	-26.59
205.185	-71.07
205.404	-76.75
205.622	-78.86
205.841	9.58
206.059	-35.87
206.278	-190.42
206.496	-142.17
206.715	-242.98
206.933	-213.48
207.151	-94.58
207.37	-134.08
207.588	-93.19
207.806	-10.2
208.025	-33.12
208.243	-261.1
208.461	-453.78
208.68	-258.24
208.898	-177.64
209.116	-126.38
209.335	-221.62
209.553	-990.6
209.771	6230.25
209.989	-919.28
210.208	998.46
210.426	1556.31
210.644	-322.35
210.862	-142.93
211.081	-55.38
211.299	-38.19
211.517	-26.85
211.735	-1.86
211.953	27.13
212.171	24.84
212.39	35.14
212.608	45.07
212.826	74.88
213.044	61.92
213.262	35.14
213.48	19.59
213.698	7.83
213.916	64.46
214.134	50.8
214.352	11.98
214.57	-60.83
214.788	-41.08
215.006	-80.02
215.224	-180.26
215.442	-530.43
215.66	-98.53
215.878	-381.21
216.096	-309.63
216.314	-623.56
216.532	-599.15
216.75	-1326.85
216.968	349.19
217.185	1249.83
217.403	1995.48
217.621	4334.94
217.839	-349.74
218.057	-228.45
218.275	-57.33
218.492	-108.2
218.71	-111.31
218.928	-147.99
219.146	-183.3
219.363	-84.19
219.581	-106.25
219.799	-98.13
220.017	-97.74
220.234	-77.79
220.452	-41.82
220.67	-70.17
220.887	-56.78
221.105	-2.03
221.323	4.31
221.54	23.33
221.758	28.13
221.976	26.52
222.193	31.57
222.411	30.12
222.629	33.9
222.846	25.98
223.064	35.1
223.281	34.28
223.499	10.46
223.716	12.32
223.934	-6.72
224.151	-4.52
224.369	-0.38
224.586	-10.21
224.804	2.66
225.021	0.82
225.239	-1.78
225.456	-17.4
225.674	-25.23
225.891	-10.42
226.108	-6.01
226.326	-0.72
226.543	2.45
226.76	-6.33
226.978	-3.95
227.195	-5.47
227.413	-8.41
227.63	-5.06
227.847	2.41
228.064	6.1
228.282	7.63
228.499	10.81
228.716	12.86
228.934	11.71
229.151	12.42
229.368	11.43
229.585	11.36
229.802	11.59
230.02	11.82
230.237	10.5
230.454	10.28
230.671	7.77
230.888	5.46
231.105	4.5
231.323	5.74
231.54	3.75
231.757	2.98
231.974	3.82
232.191	5.68
232.408	6.01
232.625	7.67
232.842	10.36
233.059	15.58
233.276	16.48
233.493	13.8
233.71	11.06
233.927	14.76
234.144	15.47
234.361	8.58
234.578	6.61
234.795	3.5
235.012	-0.03
235.229	-6.39
235.446	-9.3
235.663	-15.02
235.879	-17.05
236.096	-21.51
236.313	-28.33
236.53	-22.67
236.747	-21.01
236.964	-18.43
237.181	-16.66
237.397	-7.24
237.614	-3.45
237.831	-0.38
238.048	2.75
238.264	5.1
238.481	9.36
238.698	16.06
238.915	17.75
239.131	16.84
239.348	16.55
239.565	15.01
239.781	9.19
239.998	7.86
240.215	5.24
240.431	6.42
240.648	6.73
240.865	7.22
241.081	5.47
241.298	4.79
241.514	5.67
241.731	6.25
241.947	7.78
242.164	8.04
242.38	9.32
242.597	10.31
242.814	10.9
243.03	10.8
243.246	11.09
243.463	10.44
243.679	10.12
243.896	11.56
244.112	10.01
244.329	8.45
244.545	9.64
244.762	8.88
244.978	7.69
245.194	7.5
245.411	8.9
245.627	8.06
245.843	8.64
246.06	10.63
246.276	9.81
246.492	11.22
246.709	12.54
246.925	10.84
247.141	10.7
247.357	10.69
247.574	10.54
247.79	10.52
248.006	10.91
248.222	11.21
248.439	10.18
248.655	10.01
248.871	10.16
249.087	9.59
249.303	10
249.519	10.66
249.736	10.77
249.952	9.96
250.168	8.45
250.384	6.87
250.6	6.4
250.816	7.4
251.032	7.67
251.248	7.42
251.464	5.98
251.68	7.49
251.896	6.44
252.112	6.68
252.328	7.85
252.544	8.08
252.76	9.5
252.976	9.97
253.192	9.23
253.408	8.92
253.624	9.05
253.84	7.96
254.056	7.81
254.272	7.92
254.487	7.56
254.703	7.35
254.919	8.17
255.135	9.4
255.351	7.76
255.567	9.07
255.782	9.77
255.998	9.64
256.214	12.07
256.43	9.52
256.646	11.1
256.861	11.57
257.077	11.08
257.293	11.33
257.508	10.79
257.724	11.28
257.94	10.39
258.155	10.68
258.371	10.46
258.587	10.5
258.802	10.75
259.018	10.79
259.234	11.03
259.449	10.68
259.665	10.59
259.88	10.56
260.096	10.94
260.312	10.21
260.527	10.1
260.743	9.6
260.958	9.38
261.174	9.83
261.389	9.32
261.605	9.09
261.82	8.36
262.036	7.23
262.251	6.49
262.466	6
262.682	7.14
262.897	7.36
263.113	7.31
263.328	8.12
263.543	7.63
263.759	7.81
263.974	8.25
264.189	9.97
264.405	12.14
264.62	12.44
264.835	11.75
265.051	10.38
265.266	10.48
265.481	9.41
265.696	8.13
265.912	6.94
266.127	7.95
266.342	7.56
266.557	8
266.773	6.86
266.988	6.56
267.203	7.06
267.418	8.26
267.633	7.56
267.848	8.14
268.064	8.92
268.279	10.04
268.494	9.13
268.709	8.75
268.924	7.54
269.139	9.41
269.354	8.19
269.569	6.16
269.784	5.49
269.999	5.69
270.214	7.18
270.429	6.49
270.644	6.11
270.859	6.68
271.074	6.06
271.289	6.75
271.504	6.88
271.719	7.88
271.934	8.65
272.149	8.17
272.363	8.71
272.578	9.1
272.793	9.4
273.008	8.91
273.223	9.15
273.438	10.06
273.653	9.8
273.867	8.49
274.082	8.18
274.297	8.04
274.512	8.37
274.726	7.95
274.941	6.04
275.156	5.68
275.371	6.29
275.585	5.26
275.8	4.09
276.015	3.88
276.229	4.65
276.444	5.05
276.659	4.86
276.873	4.94
277.088	4.08
277.302	4.42
277.517	4.38
277.732	3.88
277.946	4.9
278.161	5.49
278.375	6.22
278.59	5.66
278.804	5.03
279.019	6.47
279.233	6.6
279.448	6.45
279.662	7.42
279.877	7.86
280.091	8.24
280.306	7.35
280.52	7.65
280.735	7.81
280.949	7.94
281.163	8.36
281.378	7.86
281.592	7.99
281.806	8.36
282.021	8.4
282.235	8.15
282.449	7.9
282.664	7.43
282.878	7.31
283.092	7.23
283.307	7.73
283.521	8.28
283.735	8.26
283.949	8.51
284.164	8.26
284.378	8.11
284.592	6.51
284.806	6.88
285.02	6.76
285.234	7.25
285.449	6.26
285.663	5.88
285.877	4.9
286.091	5.26
286.305	4.92
286.519	5.24
286.733	4.94
286.947	7.05
287.161	6.36
287.375	7.18
287.589	6.26
287.803	6.93
288.017	7.24
288.231	7.88
288.445	7.64
288.659	7.94
288.873	8.19
289.087	7.85
289.301	7.44
289.515	7.85
289.729	7.18
289.943	7.75
290.157	7.88
290.371	7.56
290.584	7.82
290.798	6.96
291.012	6.53
291.226	5.78
291.44	6.73
291.654	5.76
291.867	5.52
292.081	5.3
292.295	5.13
292.509	4.07
292.722	4.67
292.936	3.92
293.15	3.98
293.364	6.48
293.577	7.84
293.791	6.69
294.005	6.71
294.218	6.95
294.432	7.24
294.645	7.27
294.859	8.08
295.073	7.3
295.286	7.53
295.5	8.6
295.713	6.99
295.927	6.41
296.14	7.13
296.354	7.15
296.568	7.86
296.781	8.56
296.994	8.45
297.208	8.92
297.421	9.25
297.635	9.77
297.848	9.32
298.062	9.39
298.275	9.64
298.489	9.43
298.702	9.7
298.915	9.21
299.129	9.02
299.342	9.68
299.555	9.24
299.769	8.45
299.982	8.02
300.195	8.05
300.409	7.91
300.622	7.85
300.835	8.29
301.048	9.15
301.262	8.66
301.475	7.75
301.688	6.37
301.901	6.55
302.115	7.22
302.328	7.06
302.541	6.84
302.754	6.91
302.967	7.72
303.18	6.95
303.393	6.27
303.607	7.03
303.82	6.47
304.033	7.23
304.246	7.55
304.459	7.03
304.672	7.8
304.885	8.3
305.098	7.62
305.311	6.5
305.524	6.61
305.737	6.32
305.95	6
306.163	7.53
306.376	7.22
306.589	6.18
306.802	6.24
307.015	5.86
307.228	6.68
307.44	6.64
307.653	7.37
307.866	8.37
308.079	8.65
308.292	8.85
308.505	8.13
308.718	7.45
308.93	7.73
309.143	7.33
309.356	6.17
309.569	5.22
309.781	6.04
309.994	5.2
310.207	4.07
310.42	4.86
310.632	4.45
310.845	5.43
311.058	6.65
311.27	6.63
311.483	7.32
311.696	7.92
311.908	8.76
312.121	8.09
312.333	8.44
312.546	8.1
312.759	7.41
312.971	8.26
313.184	7.42
313.396	7.5
313.609	7.95
313.821	8.38
314.034	9.11
314.246	8.08
314.459	8.26
314.671	8.7
314.884	9.91
315.096	10.15
315.309	10.04
315.521	9.87
315.733	9.6
315.946	9.83
316.158	9.64
316.371	8.55
316.583	8.25
316.795	8.22
317.008	6.97
317.22	6.57
317.432	6.7
317.644	6.5
317.857	5.36
318.069	5.03
318.281	4.12
318.494	4.36
318.706	4.4
318.918	4.57
319.13	5.25
319.342	5.58
319.555	5.85
319.767	4.52
319.979	4.89
320.191	6.79
320.403	7.66
320.615	8.23
320.827	7.91
321.039	6.84
321.252	8.25
321.464	7.39
321.676	7.61
321.888	7.48
322.1	9
322.312	8.58
322.524	8.7
322.736	8
322.948	7.87
323.16	8.49
323.372	9.11
323.584	8.13
323.796	6.99
324.007	7.41
324.219	7.93
324.431	7.82
324.643	7.87
324.855	8.17
325.067	8.55
325.279	8.08
325.491	8.17
325.702	8.97
325.914	9.1
326.126	10.6
326.338	10.48
326.55	9.7
326.761	8.5
326.973	8.24
327.185	7.28
327.396	6.85
327.608	7.59
327.82	7.41
328.032	7.37
328.243	7.73
328.455	8.33
328.666	7.57
328.878	7.99
329.09	9.24
329.301	9.98
329.513	10.3
329.725	9.89
329.936	9.58
330.148	8.95
330.359	9.23
330.571	8.62
330.782	7.91
330.994	9.04
331.205	9.5
331.417	10.07
331.628	9.97
331.84	10.61
332.051	11.23
332.262	11.75
332.474	12.67
332.685	12.67
332.897	12.91
333.108	12.62
333.319	12.6
333.531	12.43
333.742	11.6
333.953	11.23
334.165	11.57
334.376	11.85
334.587	11.12
334.799	9.18
335.01	8.26
335.221	8.98
335.432	9.28
335.644	8.6
335.855	8.17
336.066	8.67
336.277	8.19
336.488	7.28
336.7	6.04
336.911	5.77
337.122	8.04
337.333	8.74
337.544	7.25
337.755	6.81
337.966	7.2
338.177	7.39
338.388	7.1
338.599	7.76
338.811	8.98
339.022	9.3
339.233	9.07
339.444	8.73
339.655	8.86
339.866	9.9
340.076	10.29
340.287	10.45
340.498	10.8
340.709	11.27
340.92	10.97
341.131	10.11
341.342	11.16
341.553	12.78
341.764	11.91
341.975	11.67
342.185	11.48
342.396	11.34
342.607	11.77
342.818	11.21
343.029	10.86
343.239	10.84
343.45	10.48
343.661	10.37
343.872	9.76
344.082	9.35
344.293	9.52
344.504	10.24
344.714	10.93
344.925	10.4
345.136	10.38
345.346	10.88
345.557	11.27
345.768	10.82
345.978	10.82
346.189	10.31
346.399	10.38
346.61	9.81
346.821	8.74
347.031	8.27
347.242	8.89
347.452	9.9
347.663	8.76
347.873	8.52
348.084	9.3
348.294	8.29
348.504	8.74
348.715	9.6
348.925	11.2
349.136	11.94
349.346	12.29
349.557	12.29
349.767	11.86
349.977	13.02
350.188	12.09
350.398	11.8
350.608	12.53
350.819	12.39
351.029	11.68
351.239	10.52
351.449	9.62
351.66	9
351.87	8.45
352.08	7.99
352.29	8.18
352.501	9.01
352.711	9.56
352.921	9.48
353.131	8.91
353.341	8.09
353.552	8.54
353.762	8.99
353.972	9.38
354.182	9.35
354.392	9.52
354.602	8.46
354.812	8.48
355.022	8.27
355.232	8.46
355.442	8.94
355.652	9.67
355.862	9.33
356.072	9.64
356.282	10.18
356.492	10.23
356.702	10.08
356.912	10.65
357.122	10.82
357.332	10.79
357.542	10.32
357.752	10.58
357.962	10.83
358.171	10.93
358.381	10.83
358.591	9.92
358.801	9.56
359.011	9.71
359.221	9.25
359.43	8.96
359.64	9.08
359.85	9.32
360.06	9.65
360.269	9.77
360.479	9.67
360.689	9.52
360.899	9.64
361.108	9.87
361.318	9.91
361.528	10.04
361.737	10.25
361.947	10.28
362.156	9.98
362.366	9.54
362.576	9.47
362.785	9.48
362.995	9.33
363.204	9.47
363.414	9.23
363.623	9.16
363.833	9.2
364.042	8.8
364.252	9.03
364.461	9.19
364.671	9.4
364.88	9.69
365.09	9.34
365.299	9.22
365.509	9.66
365.718	9.9
365.927	10.2
366.137	10.33
366.346	11.09
366.555	10.49
366.765	10.58
366.974	10.33
367.183	9.84
367.393	9.88
367.602	11.07
367.811	11.12
368.021	11.35
368.23	10.42
368.439	9.88
368.648	9.46
368.857	10.01
369.067	10.41
369.276	10.88
369.485	11
369.694	11.5
369.903	10.69
370.112	9.95
370.321	9.64
370.531	10.39
370.74	10.49
370.949	10.22
371.158	9.66
371.367	9.2
371.576	8.84
371.785	8.97
371.994	8.98
372.203	8.63
372.412	8.98
372.621	8.92
372.83	8.75
373.039	8.69
373.248	8.66
373.457	8.72
373.666	9.37
373.874	9.59
374.083	9.04
374.292	8.66
374.501	8.93
374.71	8.84
374.919	8.37
375.128	8.58
375.336	8.64
375.545	8.75
375.754	8.76
375.963	8.44
376.171	8.06
376.38	8.35
376.589	8.22
376.798	7.89
377.006	7.78
377.215	8.42
377.424	7.79
377.632	8.11
377.841	8.42
378.05	8.55
378.258	8.3
378.467	8.22
378.675	8.17
378.884	8.44
379.093	8.61
379.301	8.75
379.51	8.59
379.718	8.94
379.927	8.72
380.135	8.25
380.344	7.97
380.552	8.2
380.761	8.22
380.969	8.72
381.177	8.24
381.386	8.14
381.594	8.31
381.803	8.16
382.011	8.32
382.219	8.27
382.428	8.51
382.636	8.74
382.845	8.69
383.053	8.47
383.261	7.92
383.469	8.61
383.678	8.64
383.886	8.31
384.094	8.5
384.302	8.67
384.511	8.63
384.719	8.28
384.927	8.03
385.135	8.09
385.343	8.01
385.552	8.2
385.76	7.96
385.968	8.01
386.176	8.06
386.384	8.06
386.592	7.73
386.8	7.96
387.008	7.88
387.216	7.65
387.424	7.36
387.633	7.95
387.841	7.77
388.049	7.87
388.257	7.89
388.465	7.74
388.672	7.97
388.88	7.83
389.088	7.36
389.296	7.79
389.504	8.05
389.712	8.13
389.92	7.75
390.128	7.56
390.336	7.39
390.544	7.2
390.751	7.22
390.959	6.83
391.167	7.1
391.375	7.4
391.583	6.7
391.79	6.74
391.998	6.85
392.206	7.19
392.414	7.34
392.621	7.33
392.829	7.59
393.037	7.68
393.244	7.69
393.452	7.51
393.66	7.33
393.867	7.96
394.075	8.18
394.283	8.01
394.49	7.72
394.698	7.65
394.905	7.68
395.113	7.61
395.32	7.67
395.528	7.77
395.735	7.79
395.943	7.73
396.15	7.31
396.358	7.02
396.565	7.01
396.773	6.95
396.98	7.26
397.188	7.31
397.395	7.1
397.602	6.98
397.81	6.72
398.017	6.61
398.225	6.52
398.432	6.59
398.639	6.52
398.847	6.45
399.054	6.4
399.261	6.2
399.468	6.11
399.676	6.3
399.883	5.94
400.09	6.26
400.297	6.54
400.505	6.83
400.712	7.03
400.919	7.14
401.126	7.26
401.333	7.4
401.54	7.33
401.748	7.46
401.955	7.5
402.162	7.79
402.369	7.79
402.576	7.57
402.783	7.46
402.99	7.41
403.197	7.45
403.404	7.36
403.611	7.51
403.818	7.52
404.025	7.33
404.232	6.88
404.439	6.95
404.646	6.9
404.853	6.96
405.06	7.02
405.267	7.09
405.474	7.15
405.681	7.23
405.887	7.12
406.094	7.03
406.301	7.13
406.508	7.63
406.715	7.52
406.922	7.28
407.128	7.11
407.335	7.19
407.542	7.33
407.749	7.14
407.955	7.07
408.162	7.09
408.369	7.44
408.575	7.52
408.782	7.55
408.989	7.66
409.195	7.74
409.402	7.84
409.609	7.61
409.815	7.28
410.022	7.43
410.228	7.67
410.435	7.57
410.642	7.27
410.848	7.3
411.055	7.17
411.261	7.37
411.468	7.49
411.674	7.5
411.881	7.63
412.087	7.56
412.294	7.61
412.5	7.62
412.706	7.66
412.913	7.75
413.119	7.52
413.326	7.4
413.532	7.45
413.738	7.32
413.945	7.21
414.151	7.25
414.357	7.6
414.564	7.32
414.77	7
414.976	6.93
415.182	6.74
415.389	6.94
415.595	7.07
415.801	6.81
416.007	6.86
416.214	7
416.42	6.95
416.626	6.88
416.832	7.17
417.038	7.18
417.244	7.11
417.45	7.32
417.657	7.28
417.863	7.4
418.069	7.35
418.275	7.5
418.481	7.5
418.687	7.44
418.893	7.46
419.099	7.3
419.305	7.41
419.511	7.33
419.717	7.16
419.923	7.15
420.129	6.93
420.335	6.86
420.541	6.7
420.746	6.59
420.952	6.75
421.158	6.69
421.364	6.64
421.57	6.53
421.776	6.69
421.982	6.79
422.187	6.77
422.393	6.78
422.599	6.88
422.805	6.87
423.01	6.93
423.216	6.7
423.422	6.66
423.628	6.7
423.833	6.75
424.039	6.72
424.245	6.65
424.45	6.77
424.656	6.79
424.862	6.8
425.067	6.76
425.273	6.83
425.478	6.87
425.684	6.97
425.889	7.11
426.095	7.04
426.301	7.01
426.506	7.05
426.712	6.93
426.917	6.99
427.123	7
427.328	7.01
427.533	7
427.739	7.12
427.944	7.05
428.15	6.82
428.355	6.82
428.561	6.89
428.766	6.96
428.971	6.95
429.177	6.97
429.382	6.81
429.587	7.09
429.793	7.12
429.998	6.92
430.203	6.78
430.408	6.87
430.614	6.92
430.819	6.89
431.024	6.88
431.229	6.78
431.434	6.56
431.64	6.54
431.845	6.49
432.05	6.5
432.255	6.71
432.46	6.83
432.665	6.88
432.87	6.85
433.076	6.79
433.281	6.66
433.486	6.77
433.691	6.88
433.896	7.08
434.101	6.93
434.306	6.79
434.511	6.73
434.716	6.61
434.921	6.51
435.126	6.64
435.331	6.57
435.535	6.54
435.74	6.35
435.945	6.45
436.15	6.3
436.355	6.57
436.56	6.64
436.765	6.83
436.97	6.88
437.174	6.87
437.379	6.72
437.584	6.62
437.789	6.74
437.993	6.85
438.198	6.74
438.403	6.55
438.608	6.47
438.812	6.43
439.017	6.22
439.222	6.27
439.426	6.31
439.631	6.34
439.836	6.56
440.04	6.63
440.245	6.66
440.45	6.76
440.654	6.91
440.859	6.95
441.063	7.04
441.268	7.17
441.472	7.13
441.677	7.12
441.881	7.17
442.086	7.01
442.29	6.88
442.495	6.88
442.699	6.87
442.904	6.95
443.108	6.81
443.312	6.68
443.517	6.55
443.721	6.6
443.925	6.6
444.13	6.6
444.334	6.68
444.538	6.79
444.743	6.79
444.947	6.77
445.151	6.81
445.356	6.93
445.56	7.05
445.764	7.08
445.968	7.13
446.173	7.15
446.377	7.14
446.581	7.15
446.785	7.21
446.989	7.2
447.193	7.12
447.398	6.91
447.602	6.78
447.806	6.63
448.01	6.61
448.214	6.51
448.418	6.46
448.622	6.32
448.826	6.38
449.03	6.34
449.234	6.26
449.438	6.3
449.642	6.42
449.846	6.56
450.05	6.56
450.254	6.54
450.458	6.47
450.662	6.56
450.866	6.62
451.069	6.45
451.273	6.23
451.477	6.36
451.681	6.35
451.885	6.35
452.089	6.29
452.292	6.38
452.496	6.28
452.7	6.39
452.904	6.15
453.107	6.19
453.311	6.38
453.515	6.57
453.719	6.63
453.922	6.57
454.126	6.5
454.33	6.5
454.533	6.42
454.737	6.47
454.94	6.39
455.144	6.6
455.348	6.66
455.551	6.49
455.755	6.36
455.958	6.24
456.162	6.33
456.365	6.45
456.569	6.34
456.772	6.35
456.976	6.58
457.179	6.59
457.383	6.53
457.586	6.49
457.79	6.56
457.993	6.44
458.196	6.36
458.4	6.44
458.603	6.43
458.807	6.53
459.01	6.51
459.213	6.42
459.417	6.49
459.62	6.42
459.823	6.49
460.026	6.49
460.23	6.64
460.433	6.61
460.636	6.5
460.839	6.31
461.042	6.3
461.246	6.32
461.449	6.24
461.652	6.18
461.855	6.21
462.058	6.12
462.261	6.26
462.464	6.22
462.668	6.19
462.871	6.3
463.074	6.44
463.277	6.24
463.48	6.35
463.683	6.42
463.886	6.63
464.089	6.65
464.292	6.63
464.495	6.53
464.698	6.41
464.901	6.45
465.104	6.6
465.306	6.67
465.509	6.86
465.712	6.83
465.915	6.74
466.118	6.52
466.321	6.59
466.524	6.54
466.726	6.44
466.929	6.52
467.132	6.59
467.335	6.44
467.538	6.35
467.74	6.19
467.943	6.15
468.146	6.17
468.348	6.2
468.551	6.17
468.754	6.12
468.956	6.09
469.159	6.16
469.362	6.11
469.564	6.06
469.767	6.25
469.969	6.25
470.172	6.34
470.375	6.31
470.577	6.37
470.78	6.5
470.982	6.77
471.185	6.8
471.387	6.56
471.59	6.7
471.792	6.77
471.995	6.64
472.197	6.7
472.399	6.61
472.602	6.73
472.804	6.52
473.007	6.35
473.209	6
473.411	6.05
473.614	6.25
473.816	6.32
474.018	6.44
474.22	6.42
474.423	6.59
474.625	6.48
474.827	6.52
475.03	6.63
475.232	6.76
475.434	6.99
475.636	6.93
475.838	6.92
476.04	6.66
476.243	6.45
476.445	6.45
476.647	6.35
476.849	6.54
477.051	6.47
477.253	6.47
477.455	6.42
477.657	6.37
477.859	6.49
478.061	6.43
478.263	6.52
478.465	6.55
478.667	6.53
478.869	6.66
479.071	6.45
479.273	6.36
479.475	6.31
479.677	6.39
479.879	6.47
480.081	6.39
480.283	6.45
480.485	6.42
480.686	6.36
480.888	6.35
481.09	6.25
481.292	6.41
481.494	6.53
481.695	6.73
481.897	6.74
482.099	6.62
482.301	6.64
482.502	6.66
482.704	6.66
482.906	6.7
483.107	6.78
483.309	6.74
483.511	6.72
483.712	6.7
483.914	6.65
484.115	6.61
484.317	6.62
484.519	6.63
484.72	6.64
484.922	6.63
485.123	6.67
485.325	6.65
485.526	6.68
485.728	6.71
485.929	6.76
486.131	6.7
486.332	6.74
486.534	6.77
486.735	6.73
486.936	6.7
487.138	6.74
487.339	6.68
487.541	6.71
487.742	6.66
487.943	6.67
488.144	6.62
488.346	6.71
488.547	6.67
488.748	6.73
488.95	6.79
489.151	6.75
489.352	6.76
489.553	6.84
489.755	6.81
489.956	6.88
490.157	6.83
490.358	6.81
490.559	6.78
490.76	6.84
490.961	6.82
491.163	6.77
491.364	6.82
491.565	6.85
491.766	6.79
491.967	6.84
492.168	6.84
492.369	6.88
492.57	6.88
492.771	6.9
492.972	6.84
493.173	6.85
493.374	6.94
493.575	6.94
493.776	6.86
493.976	6.82
494.177	6.78
494.378	6.75
494.579	6.64
494.78	6.74
494.981	6.67
495.182	6.71
495.382	6.54
495.583	6.45
495.784	6.41
495.985	6.42
496.185	6.5
496.386	6.52
496.587	6.61
496.788	6.69
496.988	6.68
497.189	6.63
497.39	6.73
497.59	6.87
497.791	6.9
497.992	6.95
498.192	6.95
498.393	7.04
498.593	7.07
498.794	7.05
498.994	7
499.195	6.93
499.395	6.93
499.596	6.82
499.796	6.77
499.997	6.67
500.197	6.68
500.398	6.81
500.598	6.68
500.799	6.64
500.999	6.51
501.199	6.54
501.4	6.53
501.6	6.56
501.801	6.47
502.001	6.38
502.201	6.46
502.402	6.56
502.602	6.47
502.802	6.52
503.002	6.66
503.203	6.72
503.403	6.75
503.603	6.83
503.803	6.88
504.003	6.93
504.204	7.04
504.404	7
504.604	6.99
504.804	7.17
505.004	7.17
505.204	7.11
505.404	7.12
505.604	7.06
505.804	7.2
506.005	7.23
506.205	7.32
506.405	7.27
506.605	7.31
506.805	7.14
507.005	7.02
507.204	7.04
507.404	6.96
507.604	6.92
507.804	7.06
508.004	7.06
508.204	7.16
508.404	7.16
508.604	7.23
508.804	7.1
509.003	7.28
509.203	7.23
509.403	7.2
509.603	7.2
509.803	7.28
510.002	7.13
510.202	7
510.402	6.97
510.602	6.99
510.801	6.99
511.001	7.02
511.201	6.82
511.4	6.92
511.6	7.07
511.8	7.1
511.999	7.07
512.199	7.21
512.398	7.28
512.598	7.22
512.797	7.27
512.997	7.24
513.197	7.4
513.396	7.51
513.596	7.38
513.795	7.25
513.994	7.31
514.194	7.5
514.393	7.46
514.593	7.45
514.792	7.46
514.992	7.29
515.191	7.37
515.39	7.27
515.59	7.39
515.789	7.41
515.988	7.42
516.188	7.39
516.387	7.29
516.586	7.3
516.786	7.31
516.985	7.31
517.184	7.34
517.383	7.27
517.582	7.25
517.782	7.24
517.981	7.26
518.18	7.25
518.379	7.32
518.578	7.35
518.777	7.41
518.976	7.43
519.176	7.47
519.375	7.58
519.574	7.59
519.773	7.72
519.972	7.74
520.171	7.78
520.37	7.83
520.569	7.85
520.768	7.89
520.967	7.88
521.166	7.92
521.365	8.02
521.564	7.91
521.762	7.96
521.961	7.9
522.16	7.88
522.359	7.98
522.558	8.09
522.757	8.07
522.956	7.95
523.154	7.91
523.353	7.94
523.552	7.96
523.751	8.02
523.949	7.96
524.148	7.91
524.347	8.04
524.546	7.91
524.744	7.94
524.943	8.01
525.142	8.05
525.34	8.17
525.539	8.18
525.737	8.11
525.936	8.26
526.135	8.36
526.333	8.45
526.532	8.35
526.73	8.5
526.929	8.49
527.127	8.46
527.326	8.47
527.524	8.48
527.723	8.49
527.921	8.55
528.12	8.52
528.318	8.53
528.516	8.51
528.715	8.57
528.913	8.51
529.112	8.55
529.31	8.57
529.508	8.6
529.707	8.57
529.905	8.58
530.103	8.59
530.301	8.53
530.5	8.53
530.698	8.59
530.896	8.67
531.094	8.74
531.293	8.69
531.491	8.66
531.689	8.64
531.887	8.82
532.085	8.78
532.283	8.77
532.481	8.89
532.68	8.98
532.878	9.04
533.076	9.01
533.274	9.04
533.472	9.13
533.67	9.22
533.868	9.29
534.066	9.22
534.264	9.31
534.462	9.38
534.66	9.49
534.858	9.47
535.056	9.46
535.253	9.4
535.451	9.33
535.649	9.34
535.847	9.34
536.045	9.34
536.243	9.41
536.441	9.5
536.638	9.48
536.836	9.47
537.034	9.55
537.232	9.64
537.43	9.77
537.627	9.92
537.825	9.98
538.023	10.01
538.22	10.08
538.418	10.05
538.616	9.92
538.813	9.96
539.011	9.92
539.209	10.11
539.406	10.15
539.604	10.03
539.801	10.18
539.999	10.21
540.196	10.28
540.394	10.29
540.591	10.33
540.789	10.39
540.986	10.44
541.184	10.46
541.381	10.44
541.579	10.42
541.776	10.52
541.974	10.45
542.171	10.49
542.368	10.56
542.566	10.62
542.763	10.64
542.96	10.69
543.158	10.71
543.355	10.79
543.552	10.8
543.75	10.83
543.947	10.94
544.144	10.98
544.341	10.98
544.539	10.92
544.736	11.05
544.933	11.12
545.13	11.21
545.327	11.17
545.524	11.17
545.722	11.23
545.919	11.28
546.116	11.19
546.313	11.38
546.51	11.51
546.707	11.7
546.904	11.73
547.101	11.79
547.298	11.77
547.495	11.92
547.692	12.07
547.889	12.01
548.086	12.2
548.283	12.37
548.48	12.31
548.677	12.32
548.874	12.29
549.07	12.32
549.267	12.35
549.464	12.58
549.661	12.74
549.858	12.87
550.055	12.97
550.251	13
550.448	13.11
550.645	13.51
550.842	13.65
551.038	13.65
551.235	13.75
551.432	13.93
551.628	13.82
551.825	13.77
552.022	13.58
552.218	13.68
552.415	13.76
552.612	13.64
552.808	13.48
553.005	13.38
553.201	13.35
553.398	13.52
553.594	13.33
553.791	13.5
553.987	13.86
554.184	13.85
554.38	13.9
554.577	13.78
554.773	14
554.97	13.94
555.166	14.09
555.362	14.11
555.559	13.91
555.755	14.21
555.952	14.26
556.148	14
556.344	14.32
556.541	14.43
556.737	14.5
556.933	14.6
557.129	14.66
557.326	14.67
557.522	15.1
557.718	15.11
557.914	15.33
558.11	15.24
558.307	15.31
558.503	15.24
558.699	15.27
558.895	15.38
559.091	15.51
559.287	15.76
559.483	16.02
559.679	16.02
559.876	16.29
560.072	16.29
560.268	16.67
560.464	16.56
560.66	16.83
560.856	16.96
561.052	17.03
561.247	17.05
561.443	17.03
561.639	16.91
561.835	17.08
562.031	17.13
562.227	17.18
562.423	17.16
562.619	17.51
562.815	17.5
563.01	17.47
563.206	17.78
563.402	17.89
563.598	18.08
563.793	18.25
563.989	18.38
564.185	18.47
564.381	18.53
564.576	18.59
564.772	18.77
564.968	18.86
565.163	19.21
565.359	19.24
565.555	19.27
565.75	19.34
565.946	19.51
566.141	19.43
566.337	19.47
566.532	19.67
566.728	19.87
566.923	19.88
567.119	20.12
567.314	20.01
567.51	20.16
567.705	20.3
567.901	20.31
568.096	20.32
568.292	20.47
568.487	20.56
568.682	20.57
568.878	20.49
569.073	20.53
569.268	20.61
569.464	20.8
569.659	20.77
569.854	21
570.05	21.21
570.245	21.41
570.44	21.43
570.635	21.65
570.831	21.64
571.026	21.82
571.221	22.01
571.416	21.98
571.611	22.14
571.806	22.19
572.002	22.12
572.197	22.17
572.392	22.22
572.587	22.41
572.782	22.31
572.977	22.51
573.172	22.69
573.367	22.79
573.562	22.94
573.757	23.01
573.952	23.24
574.147	23.43
574.342	23.5
574.537	23.68
574.732	23.7
574.927	23.91
575.121	24.02
575.316	24.08
575.511	23.99
575.706	24.02
575.901	24.13
576.096	24.18
576.29	24.28
576.485	24.22
576.68	24
576.875	24.09
577.069	24.05
577.264	24.03
577.459	24.04
577.654	24.31
577.848	24.25
578.043	24.35
578.238	24.37
578.432	24.28
578.627	24.48
578.821	24.89
579.016	24.79
579.21	24.97
579.405	25.12
579.6	25.02
579.794	25.12
579.989	25.11
580.183	25
580.378	25.14
580.572	25.27
580.766	25.42
580.961	25.16
581.155	25.39
581.35	25.55
581.544	25.68
581.738	26.01
581.933	25.9
582.127	25.94
582.321	26.12
582.516	26.31
582.71	26.29
582.904	26.22
583.099	26.55
583.293	26.65
583.487	26.6
583.681	26.85
583.875	26.65
584.07	26.77
584.264	26.91
584.458	26.86
584.652	26.77
584.846	27.08
585.04	27.5
585.234	27.51
585.428	27.46
585.623	27.64
585.817	27.3
586.011	27.32
586.205	27.46
586.399	27.7
586.593	27.74
586.787	27.59
586.981	27.57
587.174	27.44
587.368	27.32
587.562	27.41
587.756	27.59
587.95	27.76
588.144	27.82
588.338	27.93
588.532	27.97
588.725	28.04
588.919	28.28
589.113	28.4
589.307	28.17
589.501	28.28
589.694	28.2
589.888	28.23
590.082	28.39
590.275	28.45
590.469	28.32
590.663	28.51
590.856	28.71
591.05	28.7
591.244	28.81
591.437	29.1
591.631	29.3
591.824	29.72
592.018	29.57
592.212	29.55
592.405	29.81
592.599	29.83
592.792	30.02
592.986	30.11
593.179	30.22
593.372	30.25
593.566	30.31
593.759	30.32
593.953	30.23
594.146	30.37
594.339	30.48
594.533	30.33
594.726	30.48
594.92	30.39
595.113	30.46
595.306	30.57
595.499	30.42
595.693	30.6
595.886	30.72
596.079	30.82
596.272	30.9
596.466	30.91
596.659	30.99
596.852	31.07
597.045	30.99
597.238	30.8
597.431	30.73
597.624	30.96
597.818	30.92
598.011	30.73
598.204	30.67
598.397	30.73
598.59	30.7
598.783	30.76
598.976	30.83
599.169	30.92
599.362	31.02
599.555	31.12
599.748	31.1
599.941	30.85
600.134	30.94
600.326	30.98
600.519	30.94
600.712	30.78
600.905	30.96
601.098	31.11
601.291	31.2
601.483	31.28
601.676	31.35
601.869	31.34
602.062	31.56
602.255	31.77
602.447	31.92
602.64	31.93
602.833	32.06
603.025	32.16
603.218	31.97
603.411	31.89
603.603	31.82
603.796	31.82
603.989	31.62
604.181	31.8
604.374	31.96
604.566	31.96
604.759	31.88
604.951	32.05
605.144	32.03
605.336	32.08
605.529	32.15
605.721	32.26
605.914	32.14
606.106	32.31
606.299	32.34
606.491	32.25
606.683	32.01
606.876	32.22
607.068	32.2
607.26	31.95
607.453	31.97
607.645	31.95
607.837	31.86
608.03	32.11
608.222	32.23
608.414	31.91
608.606	32.03
608.799	32.33
608.991	32.53
609.183	32.47
609.375	32.61
609.567	32.67
609.759	32.65
609.952	33
610.144	32.99
610.336	33.1
610.528	33.27
610.72	33.1
610.912	33.19
611.104	33.1
611.296	33.02
611.488	33.17
611.68	33.31
611.872	33.41
612.064	33.21
612.256	33.11
612.448	33.11
612.64	33.36
612.832	33.4
613.023	33.22
613.215	33.14
613.407	33.31
613.599	33.15
613.791	32.95
613.983	33.12
614.174	33.12
614.366	33.19
614.558	33.07
614.75	32.97
614.941	33.21
615.133	33.37
615.325	33.37
615.516	33.7
615.708	33.98
615.9	33.87
616.091	33.53
616.283	33.66
616.475	33.97
616.666	34.25
616.858	34.32
617.049	34.17
617.241	34.16
617.432	34.15
617.624	34.14
617.815	34.11
618.007	34.32
618.198	34.49
618.39	34.56
618.581	34.58
618.773	34.49
618.964	34.46
619.155	34.66
619.347	34.82
619.538	35.07
619.729	35.17
619.921	35.27
620.112	35.34
620.303	35.48
620.494	35.42
620.686	35.61
620.877	35.39
621.068	35.13
621.259	35.16
621.451	35.11
621.642	34.92
621.833	34.82
622.024	34.72
622.215	34.72
622.406	34.89
622.597	35.06
622.788	34.71
622.98	34.64
623.171	34.95
623.362	34.85
623.553	34.84
623.744	35.24
623.935	35.17
624.126	35.29
624.317	35.4
624.508	35.08
624.698	35.11
624.889	34.95
625.08	35.42
625.271	35.4
625.462	35.47
625.653	35.58
625.844	35.49
626.034	35.62
626.225	35.56
626.416	35.54
626.607	35.78
626.798	35.68
626.988	35.92
627.179	35.47
627.37	35.56
627.56	35.39
627.751	35.36
627.942	35.35
628.132	35.28
628.323	35.16
628.514	35.14
628.704	35.29
628.895	35.21
629.085	35.2
629.276	35.57
629.466	35.7
629.657	35.88
629.847	35.83
630.038	35.82
630.228	35.83
630.419	36.18
630.609	36.25
630.8	36.32
630.99	36.64
631.181	36.69
631.371	36.47
631.561	36.3
631.752	36.33
631.942	36.22
632.132	36.1
632.323	35.99
632.513	35.85
632.703	35.88
632.893	35.52
633.084	35.29
633.274	35.42
633.464	35.75
633.654	35.87
633.844	35.73
634.034	36.1
634.225	36.17
634.415	36.49
634.605	36.26
634.795	36.51
634.985	36.77
635.175	37.13
635.365	37.11
635.555	36.83
635.745	36.76
635.935	37.34
636.125	37.48
636.315	37.7
636.505	37.51
636.695	37.9
636.885	37.52
637.075	37.53
637.265	37.54
637.455	37.76
637.644	38.27
637.834	38.48
638.024	38.06
638.214	37.9
638.404	37.95
638.593	38.04
638.783	38.23
638.973	38.38
639.163	38.36
639.352	38.32
639.542	38.15
639.732	37.9
639.921	37.84
640.111	37.81
640.301	37.64
640.49	37.44
640.68	37.49
640.87	37.33
641.059	37.48
641.249	37.84
641.438	37.8
641.628	37.72
641.817	37.92
642.007	38.01
642.196	37.92
642.386	37.95
642.575	38.16
642.764	38.51
642.954	38.63
643.143	38.87
643.333	38.7
643.522	38.75
643.711	38.86
643.901	38.7
644.09	38.73
644.279	39.01
644.469	39.13
644.658	38.93
644.847	38.61
645.036	38.17
645.226	38.24
645.415	37.88
645.604	37.72
645.793	37.67
645.982	37.89
646.171	37.98
646.361	38.03
646.55	37.96
646.739	37.82
646.928	38.07
647.117	38.51
647.306	38.19
647.495	38.66
647.684	38.77
647.873	39.1
648.062	38.85
648.251	38.72
648.44	38.12
648.629	38.36
648.818	39.18
649.007	38.84
649.196	38.87
649.384	38.88
649.573	38.49
649.762	38.52
649.951	38.45
650.14	38.77
650.328	38.68
650.517	39.28
650.706	39.17
650.895	38.77
651.083	39.07
651.272	38.85
651.461	38.82
651.65	39.11
651.838	38.91
652.027	38.7
652.216	38.44
652.404	38.61
652.593	38.55
652.781	38.51
652.97	38.49
653.158	38.2
653.347	38.6
653.535	38.8
653.724	38.53
653.912	38.74
654.101	38.87
654.289	38.88
654.478	39.18
654.666	39.05
654.855	39.57
655.043	39.43
655.231	39.29
655.42	38.9
655.608	38.63
655.796	38.72
655.985	39.08
656.173	39.23
656.361	39.56
656.55	39.06
656.738	39.55
656.926	39.31
657.114	39.47
657.302	39.81
657.491	39.85
657.679	39.89
657.867	40.06
658.055	40.09
658.243	40.1
658.431	40.09
658.619	40.24
658.807	40.1
658.996	40.18
659.184	40.09
659.372	39.93
659.56	40.12
659.748	40.21
659.936	40.38
660.124	40.3
660.311	40.09
660.499	39.81
660.687	40.06
660.875	40.18
661.063	40.04
661.251	40.05
661.439	40.25
661.627	40.22
661.814	40.16
662.002	39.99
662.19	39.72
662.378	39.85
662.565	39.85
662.753	39.63
662.941	39.26
663.129	38.93
663.316	38.99
663.504	38.73
663.692	38.85
663.879	38.96
664.067	39.45
664.254	39.83
664.442	39.96
664.63	40.01
664.817	40.22
665.005	40.34
665.192	40.66
665.38	40.54
665.567	41.16
665.755	41.17
665.942	41.41
666.13	40.94
666.317	40.73
666.504	40.27
666.692	40.37
666.879	40.37
667.067	40.5
667.254	40.74
667.441	41.14
667.629	40.56
667.816	40.33
668.003	40.15
668.19	40.36
668.378	40.51
668.565	40.59
668.752	40.65
668.939	40.14
669.127	40.11
669.314	39.99
669.501	39.6
669.688	39.78
669.875	39.9
670.062	40.21
670.249	39.77
670.436	39.34
670.623	39.83
670.81	39.62
670.997	39.72
671.184	39.82
671.371	40.35
671.558	40.59
671.745	41.02
671.932	40.89
672.119	40.33
672.306	40.73
672.493	40.59
672.68	40.71
672.867	41.13
673.054	41.29
673.24	41.47
673.427	41.05
673.614	40.95
673.801	40.6
673.988	40.92
674.174	41.4
674.361	41.5
674.548	42.14
674.734	42.01
674.921	42.1
675.108	42.28
675.294	42.19
675.481	41.94
675.668	42.12
675.854	42.09
676.041	41.76
676.227	41.78
676.414	42.24
676.601	41.83
676.787	41.87
676.974	41.91
677.16	41.92
677.347	41.44
677.533	41.28
677.719	41.32
677.906	41.54
678.092	41.64
678.279	41.62
678.465	40.95
678.651	41.33
678.838	40.93
679.024	41.18
679.21	41.02
679.397	41.54
679.583	41.88
679.769	41.95
679.955	41.88
680.142	42.17
680.328	41.98
680.514	42.03
680.7	41.72
680.886	42
681.073	41.35
681.259	41.53
681.445	41.57
681.631	41.56
681.817	41.62
682.003	41.66
682.189	41.76
682.375	41.59
682.561	41.4
682.747	41.65
682.933	41.83
683.119	42.08
683.305	42.25
683.491	42.1
683.677	41.92
683.863	41.51
684.049	41.69
684.235	41.3
684.42	41.73
684.606	41.98
684.792	42.08
684.978	41.95
685.164	42.39
685.349	42.43
685.535	42.56
685.721	42.73
685.907	43.13
686.092	42.87
686.278	42.58
686.464	42.65
686.649	42.36
686.835	42.29
687.021	42.32
687.206	41.9
687.392	41.59
687.577	41.42
687.763	41.56
687.948	41.45
688.134	41.97
688.319	42.5
688.505	42.48
688.69	42.99
688.876	42.87
689.061	42.68
689.247	42.78
689.432	42.57
689.618	42.71
689.803	42.37
689.988	42.52
690.174	42.09
690.359	41.54
690.544	41.65
690.73	41.71
690.915	41.86
691.1	41.71
691.285	42.12
691.471	42.94
691.656	43.2
691.841	43.18
692.026	43.29
692.211	42.86
692.396	43.55
692.582	43.34
692.767	43.43
692.952	43.56
693.137	44.15
693.322	44.11
693.507	43.62
693.692	43.28
693.877	43.57
694.062	43.77
694.247	44.12
694.432	44.35
694.617	44.42
694.802	44.27
694.987	44.27
695.172	43.77
695.357	43.48
695.541	43.37
695.726	43.63
695.911	43.97
696.096	43.37
696.281	43.32
696.466	42.88
696.65	43.13
696.835	43
697.02	42.85
697.204	43.16
697.389	43.17
697.574	43.37
697.759	42.88
697.943	42.86
698.128	43.09
698.312	42.98
698.497	42.92
698.682	42.82
698.866	43.02
699.051	43.23
699.235	43.25
699.42	43.08
699.604	43.02
699.789	42.97
699.973	43.01
700.158	42.94
700.342	42.98
700.527	43.3
700.711	43
700.895	43
701.08	42.7
701.264	43.05
701.448	43.37
701.633	43.25
701.817	43.66
702.001	43.19
702.186	43.35
702.37	43.89
702.554	43.47
702.738	43.7
702.923	43.58
703.107	43.71
703.291	42.88
703.475	42.46
703.659	42.62
703.843	43
704.027	43.63
704.212	43.72
704.396	44.02
704.58	43.69
704.764	44.24
704.948	43.18
705.132	43.59
705.316	43.59
705.5	43.96
705.684	44.52
705.868	44.04
706.052	44.12
706.235	43.88
706.419	43.41
706.603	44.07
706.787	44.03
706.971	44.86
707.155	44.53
707.339	45.49
707.522	45.42
707.706	44.9
707.89	44.76
708.074	43.76
708.257	43.46
708.441	43.61
708.625	43.28
708.808	43.05
708.992	42.72
709.176	42.89
709.359	42.4
709.543	42.7
709.727	42.37
709.91	43
710.094	43.11
710.277	43.69
710.461	43.31
710.644	43.51
710.828	43.7
711.011	43.99
711.195	44.26
711.378	44.79
711.562	44.94
711.745	45.27
711.928	44.85
712.112	45.44
712.295	45.35
712.478	44.94
712.662	45.5
712.845	45.28
713.028	46
713.212	45.32
713.395	44.86
713.578	44.61
713.761	44.85
713.945	45.04
714.128	44.93
714.311	45.04
714.494	45.28
714.677	44.49
714.86	44.23
715.043	43.97
715.227	44.57
715.41	44.93
715.593	44.79
715.776	44.62
715.959	44.49
716.142	45.08
716.325	44.3
716.508	44.9
716.691	45.56
716.874	45.65
717.057	45.29
717.239	44.67
717.422	43.71
717.605	43.92
717.788	43.93
717.971	44.37
718.154	44.26
718.337	44.92
718.519	44.18
718.702	43.43
718.885	43.67
719.068	43.77
719.25	44.21
719.433	45.19
719.616	44.7
719.798	44.1
719.981	44.13
720.164	44.06
720.346	44.01
720.529	43.85
720.712	43.27
720.894	42.86
721.077	42.82
721.259	43.2
721.442	42.19
721.624	42.32
721.807	42.97
721.989	42.03
722.172	41.84
722.354	41.39
722.537	42.62
722.719	43.88
722.901	45.26
723.084	45.89
723.266	44.96
723.448	45.77
723.631	47.07
723.813	46.39
723.995	46.31
724.178	45.9
724.36	46.37
724.542	45.78
724.724	45.49
724.907	44.93
725.089	44.6
725.271	45.02
725.453	43.86
725.635	42.47
725.817	43.82
725.999	44.01
726.181	44.24
726.364	44.04
726.546	44.04
726.728	44.47
726.91	44.09
727.092	43.62
727.274	43.56
727.456	44.79
727.638	44.58
727.819	43.84
728.001	44.49
728.183	44.39
728.365	44.89
728.547	44.88
728.729	44.72
728.911	44.68
729.093	44.8
729.274	45.63
729.456	45.22
729.638	45.63
729.82	46.21
730.001	45.95
730.183	46.31
730.365	46.1
730.546	46.19
730.728	45.76
730.91	45.86
731.091	45.78
731.273	44.97
731.455	44.65
731.636	44.58
731.818	43.71
731.999	43.53
732.181	43.06
732.362	43.27
732.544	43.16
732.725	43.95
732.907	44.42
733.088	44.34
733.27	44.78
733.451	45.21
733.633	45.93
733.814	46.91
733.995	46.23
734.177	46.07
734.358	46.24
734.539	46.82
734.721	46.44
734.902	46.4
735.083	47.24
735.264	46.89
735.446	46.75
735.627	46.47
735.808	45.65
735.989	46.18
736.17	46.24
736.351	45.99
736.533	45.72
736.714	46.16
736.895	45.3
737.076	45.19
737.257	44.76
737.438	44.56
737.619	43.74
737.8	43.28
737.981	44.22
738.162	44.65
738.343	43.83
738.524	43.94
738.705	43.93
738.886	44.39
739.067	43.38
739.247	44.04
739.428	43.86
739.609	44.09
739.79	45.08
739.971	44.62
740.151	44.23
740.332	45.04
740.513	45.09
740.694	44.58
740.874	43.87
741.055	45.03
741.236	44.98
741.417	46.21
741.597	45.85
741.778	44.75
741.958	43.99
742.139	44.22
742.32	44.08
742.5	43.42
742.681	42.57
742.861	43.22
743.042	42.38
743.222	42.41
743.403	42.15
743.583	42.99
743.764	44.84
743.944	45.94
744.124	45.17
744.305	45.27
744.485	45.26
744.666	45.42
744.846	45.22
745.026	45.53
745.207	45.19
745.387	44.6
745.567	44.5
745.747	42.81
745.928	42.89
746.108	42.61
746.288	42.86
746.468	43.26
746.648	44.91
746.829	44.36
747.009	45.21
747.189	45.61
747.369	46.12
747.549	45.88
747.729	46.77
747.909	46.49
748.089	48.05
748.269	47.41
748.449	46.62
748.629	46.45
748.809	46.43
748.989	45.6
749.169	45.25
749.349	45.24
749.529	45.89
749.709	46.27
749.889	46.77
750.068	46.28
750.248	46.71
750.428	47.03
750.608	47.38
750.788	48.12
750.967	48.75
751.147	49.68
751.327	47.74
751.507	46.45
751.686	45.3
751.866	45.18
752.046	45.01
752.225	45.83
752.405	46.42
752.585	44.94
752.764	44.69
752.944	44.74
753.123	44.18
753.303	46.38
753.482	46.53
753.662	47.73
753.841	46.97
754.021	47.29
754.2	45.62
754.38	44.95
754.559	44.87
754.739	44.07
754.918	43.24
755.097	43.03
755.277	42.69
755.456	44.03
755.635	42.95
755.815	43.03
755.994	43.45
756.173	44.31
756.352	45.32
756.532	45.9
756.711	47.24
756.89	47.48
757.069	47.64
757.248	46.7
757.427	45.53
757.607	45.33
757.786	45.13
757.965	44.29
758.144	44.67
758.323	44.34
758.502	44.11
758.681	43.17
758.86	41.91
759.039	41
759.218	41.57
759.397	41.95
759.576	42.25
759.755	42
759.934	41.94
760.113	41
760.291	41.05
760.47	41.28
760.649	41.95
760.828	42.61
761.007	43.57
761.186	44.25
761.364	44.55
761.543	44.96
761.722	45.74
761.901	45.95
762.079	46.63
762.258	45.78
762.437	45.95
762.615	46.47
762.794	47.37
762.972	48.11
763.151	47.35
763.33	47.45
763.508	47.31
763.687	47.67
763.865	48.1
764.044	48.42
764.222	48.87
764.401	48.87
764.579	48.38
764.758	47.71
764.936	47.71
765.114	48.16
765.293	47.53
765.471	47.86
765.65	47.46
765.828	47.6
766.006	46.99
766.184	47.48
766.363	46.87
766.541	47.48
766.719	48.93
766.898	47.99
767.076	47.81
767.254	48.43
767.432	48.54
767.61	48.6
767.788	48.78
767.967	49.28
768.145	49.27
768.323	48.82
768.501	48.83
768.679	46.45
768.857	47
769.035	46.6
769.213	47.04
769.391	47.09
769.569	47.11
769.747	45.23
769.925	44.48
770.103	42.59
770.281	44.33
770.459	43.03
770.636	45.12
770.814	45.59
770.992	45.44
771.17	44.54
771.348	42.28
771.525	42.2
771.703	43.52
771.881	44.09
772.059	45.64
772.236	43.81
772.414	45.57
772.592	44.96
772.769	43.02
772.947	42.67
773.125	43.83
773.302	45.91
773.48	45.24
773.657	45.69
773.835	45.69
774.013	46.12
774.19	46.67
774.368	44.91
774.545	44.46
774.723	45.68
774.9	47.12
775.077	46.91
775.255	46.82
775.432	47.49
775.61	47.04
775.787	45.98
775.964	46.02
776.142	48.13
776.319	49.27
776.496	49.46
776.674	49.67
776.851	49.04
777.028	48.24
777.205	49.27
777.382	49.36
777.56	49.48
777.737	48.97
777.914	47.25
778.091	46.26
778.268	46.06
778.445	45.97
778.622	44.94
778.8	45.58
778.977	46.58
779.154	50.52
779.331	50.34
779.508	49.95
779.685	50.72
779.862	51.66
780.038	49.68
780.215	50.69
780.392	50.42
780.569	50.57
780.746	50.19
780.923	49.35
781.1	43.43
781.277	42.33
781.453	41.83
781.63	43.87
781.807	43.37
781.984	47.12
782.16	46.28
782.337	45.47
782.514	46.85
782.691	47.29
782.867	45.12
783.044	44.7
783.221	45.17
783.397	44.86
783.574	44.39
783.75	44.61
783.927	44.38
784.103	45.25
784.28	45.99
784.456	45.03
784.633	45.5
784.809	49.02
784.986	49.91
785.162	51.67
785.339	51.39
785.515	52.16
785.692	53.38
785.868	50.97
786.044	48.13
786.221	48.5
786.397	47.9
786.573	46.9
786.749	45.44
786.926	44.44
787.102	41.79
787.278	43.39
787.454	41.6
787.631	40.33
787.807	40.5
787.983	42.04
788.159	41.62
788.335	42.9
788.511	43.02
788.687	44.7
788.863	46.43
789.039	47.86
789.216	47.59
789.392	46.54
789.568	46.55
789.744	47.81
789.919	48.28
790.095	49.48
790.271	49.6
790.447	49.53
790.623	47.63
790.799	45.15
790.975	45.55
791.151	46.16
791.327	45.87
791.502	45.69
791.678	44.23
791.854	44.02
792.03	43.67
792.205	41.84
792.381	42.67
792.557	42.45
792.733	44.92
792.908	43.82
793.084	42.64
793.259	42.55
793.435	45.19
793.611	46.51
793.786	44.36
793.962	44.49
794.137	46.38
794.313	45.93
794.488	45.88
794.664	46.35
794.839	46.79
795.015	46.57
795.19	46.95
795.366	46.93
795.541	46.76
795.716	48.41
795.892	47.57
796.067	45.49
796.242	44.61
796.418	45.69
796.593	44.26
796.768	44.18
796.944	44.01
797.119	44.74
797.294	44.82
797.469	43.55
797.644	42.18
797.82	42.59
797.995	42.75
798.17	42.84
798.345	41.71
798.52	42.89
798.695	43.4
798.87	44.14
799.045	44.56
799.22	42.79
799.395	44.11
799.57	43.87
799.745	42.36
799.92	42.62
800.095	41.85
800.27	43.45
800.445	41.81
800.62	39.75
800.795	38.81
800.97	40.19
801.145	41.14
801.319	40.2
801.494	40.47
801.669	42.31
801.844	42.82
802.018	42.71
802.193	42.15
802.368	43.45
802.543	42.5
802.717	42.15
802.892	39.84
803.067	38.58
803.241	39.04
803.416	41.36
803.59	39.66
803.765	40.23
803.94	41.09
804.114	41.74
804.289	40.22
804.463	42.65
804.638	42.27
804.812	40.83
804.986	42.01
805.161	41.62
805.335	39.83
805.51	42.14
805.684	40
805.858	39.32
806.033	39.93
806.207	39.85
806.381	39.98
806.556	42.86
806.73	45.4
806.904	44.44
807.078	46
807.253	46.06
807.427	44.56
807.601	46
807.775	45.8
807.949	42.92
808.123	44.08
808.298	44.71
808.472	42.26
808.646	39.86
808.82	40.91
808.994	41.32
809.168	41.89
809.342	39.36
809.516	38.46
809.69	39.73
809.864	41.71
810.038	40.89
810.212	38.89
810.385	36.76
810.559	37.36
810.733	36.05
810.907	34.36
811.081	34.15
811.255	36.97
811.428	38.42
811.602	39.11
811.776	41.15
811.95	42.27
812.123	41.46
812.297	45
812.471	48.79
812.644	49.16
812.818	50.77
812.992	50.75
813.165	53.42
813.339	51.96
813.512	50.48
813.686	48.01
813.86	48.6
814.033	49.86
814.207	51.51
814.38	48.17
814.554	46.02
814.727	44.49
814.9	47.33
815.074	45.36
815.247	45.34
815.421	44.6
815.594	43.75
815.767	43.26
815.941	43.08
816.114	41.72
816.287	40.84
816.46	44.2
816.634	46.05
816.807	41.84
816.98	42.84
817.153	42.58
817.327	45.68
817.5	46.88
817.673	45.94
817.846	46.82
818.019	47.25
818.192	50.5
818.365	46.25
818.538	43.99
818.711	46.65
818.884	44.72
819.057	46.48
819.23	44.21
819.403	45.17
819.576	44.74
819.749	43.59
819.922	42.32
820.095	40.51
820.268	41.99
820.441	42.43
820.614	41.96
820.786	41.59
820.959	41
821.132	42.91
821.305	42.66
821.477	43.38
821.65	44.94
821.823	45.5
821.996	45.32
822.168	45.72
822.341	44.91
822.514	44.53
822.686	45.07
822.859	45.44
823.031	45.44
823.204	45.35
823.376	45.22
823.549	44.9
823.722	44.57
823.894	44.6
824.067	44.46
824.239	45.06
824.411	45.32
824.584	45.49
824.756	44.9
824.929	44.47
825.101	44.92
825.273	45.1
825.446	44.95
825.618	44.67
825.79	44.94
825.963	45.2
826.135	45.31
826.307	45.28
826.479	45.68
826.652	46.7
826.824	46.41
826.996	46.06
827.168	46.53
827.34	46.27
827.512	47.58
827.684	47.73
827.856	47.48
828.029	47.8
828.201	47.3
828.373	47.23
828.545	46.35
828.717	47.37
828.889	46.47
829.061	46.41
829.232	47.26
829.404	47.61
829.576	46.95
829.748	47.82
829.92	47.69
830.092	48.91
830.264	47.55
830.436	48.19
830.607	47.35
830.779	49.09
830.951	47.99
831.123	47.48
831.294	44.91
831.466	46.92
831.638	47.22
831.809	47.22
831.981	47.02
832.153	47.95
832.324	48.92
832.496	49.92
832.667	51.62
832.839	52.18
833.011	49.93
833.182	49.47
833.354	49.11
833.525	46.62
833.697	46.13
833.868	45.51
834.039	48.17
834.211	48.33
834.382	48.32
834.554	46.9
834.725	46.97
834.896	47.78
835.068	47.82
835.239	46.97
835.41	48.27
835.581	48.04
835.753	47.75
835.924	46.57
836.095	44.64
836.266	43.16
836.438	39.97
836.609	39.67
836.78	40.77
836.951	41.33
837.122	41.11
837.293	40.32
837.464	38.77
837.635	41.21
837.806	39.28
837.977	42.67
838.148	43.93
838.319	46.79
838.49	46.74
838.661	45.63
838.832	46.97
839.003	48.41
839.174	50.35
839.345	53.94
839.516	50.6
839.687	51.62
839.857	46
840.028	45.44
840.199	45.71
840.37	42.82
840.54	40.14
840.711	36.54
840.882	35.81
841.053	36
841.223	35.63
841.394	33.05
841.564	34.09
841.735	33.22
841.906	36.4
842.076	37.39
842.247	41.69
842.417	46.11
842.588	48.69
842.758	45.63
842.929	42.65
843.099	40.37
843.27	47.71
843.44	48.08
843.611	53.51
843.781	44.53
843.951	44.35
844.122	41.15
844.292	38.2
844.462	31.88
844.633	33.45
844.803	34.67
844.973	31.84
845.144	27.39
845.314	20.05
845.484	17.01
845.654	20.24
845.824	23.25
845.995	21.45
846.165	20.18
846.335	28.57
846.505	30.8
846.675	28.67
846.845	40.73
847.015	36.92
847.185	41.9
847.355	41.19
847.525	44.6
847.695	40.21
847.865	44.12
848.035	48.13
848.205	37.83
848.375	36.31
848.545	40.64
848.715	32.29
848.884	32.21
849.054	36.61
849.224	31.5
849.394	31.99
849.564	41.62
849.733	44.65
849.903	47.19
850.073	52.63
850.243	54.62
850.412	53.08
850.582	52.93
850.752	51.78
850.921	49.78
851.091	55.43
851.26	58.9
851.43	54.89
851.599	55.73
851.769	57.02
851.939	62.81
852.108	54.64
852.278	54.39
852.447	56.8
852.616	53.09
852.786	56.66
852.955	58.91
853.125	57.51
853.294	50.49
853.463	48.47
853.633	44.9
853.802	41.33
853.971	51.92
854.141	45.59
854.31	34.83
854.479	45.48
854.648	38.63
854.818	27.78
854.987	14.67
855.156	18.94
855.325	9.96
855.494	-0.89
855.663	2.56
855.832	-3.31
856.001	3.15
856.171	14.76
856.34	6.58
856.509	-8.84
856.678	-0.29
856.847	22.92
857.016	26.37
857.185	32.44
857.353	34.18
857.522	32.14
857.691	36.43
857.86	30.12
858.029	27.13
858.198	32.89
858.367	38.9
858.535	35.04
858.704	23.67
858.873	19.73
859.042	14.27
859.21	16
859.379	14.2
859.548	7.97
859.717	7.24
859.885	12.55
860.054	13.9
860.222	7.79
860.391	25.3
860.56	29.39
860.728	34.59
860.897	36.07
861.065	37.79
861.234	38.03
861.402	33.85
861.571	43.63
861.739	36.66
861.908	42.35
862.076	46.02
862.244	37.65
862.413	38.85
862.581	36.49
862.749	45.49
862.918	47.3
863.086	44.1
863.254	44.28
863.423	37.97
863.591	39.5
863.759	33.56
863.927	44.28
864.096	42.27
864.264	43.79
864.432	38.6
864.6	39.79
864.768	37.16
864.936	35.53
865.104	41.64
865.272	42.17
865.44	47.73
865.608	42.08
865.776	31.05
865.944	32.83
866.112	23.21
866.28	30.43
866.448	22.02
866.616	24.67
866.784	13.07
866.952	6.51
867.12	4.76
867.288	7.27
867.455	12.1
867.623	11.7
867.791	12.4
867.959	20.76
868.127	17.75
868.294	18.81
868.462	21.43
868.63	33.06
868.797	40.75
868.965	57
869.133	52.28
869.3	56.53
869.468	54.53
869.636	57.19
869.803	51.44
869.971	49.42
870.138	39.81
870.306	43.34
870.473	34.98
870.641	30.61
870.808	18.63
870.975	16.85
871.143	9.66
871.31	9.74
871.478	8.06
871.645	3.71
871.812	5.7
871.98	12.17
872.147	13.51
872.314	28.03
872.482	28.6
872.649	33.46
872.816	40.58
872.983	35.73
873.15	34.28
873.318	29.23
873.485	34.93
873.652	29.82
873.819	27.35
873.986	30.41
874.153	19.88
874.32	19.19
874.487	15.47
874.654	11.44
874.821	6.87
874.988	7.32
875.155	13.75
875.322	15.75
875.489	3.79
875.656	8.79
875.823	-6.55
875.99	0.21
876.157	2.57
876.324	7.84
876.49	7.32
876.657	17.26
876.824	24.1
876.991	26.08
877.157	26.86
877.324	34.31
877.491	36.59
877.658	44.24
877.824	53.35
877.991	56.63
878.157	49.29
878.324	50.9
878.491	38.58
878.657	31.78
878.824	27.52
878.99	14.86
879.157	24.77
879.323	12.37
879.49	16.79
879.656	15.62
879.823	13.49
879.989	11.63
880.156	18.73
880.322	23.59
880.488	24.12
880.655	20.27
880.821	23.3
880.987	15.5
881.154	25.21
881.32	30.22
881.486	33.24
881.652	33.46
881.819	37.59
881.985	34.73
882.151	37.01
882.317	37.81
882.483	41.45
882.649	42.52
882.816	44.73
882.982	44.83
883.148	44.2
883.314	44.3
883.48	44.62
883.646	45.37
883.812	46.93
883.978	47.61
884.144	46.75
884.31	44.59
884.476	44.01
884.642	43.6
884.807	43.17
884.973	43.51
885.139	43.72
885.305	42.33
885.471	42.24
885.637	41.56
885.802	40.4
885.968	43.18
886.134	44.53
886.3	45.38
886.465	46.09
886.631	45.07
886.797	43.44
886.962	43.94
887.128	46.6
887.293	45.97
887.459	45.86
887.625	47.47
887.79	45.86
887.956	44.82
888.121	44.15
888.287	42.01
888.452	45.73
888.618	49.74
888.783	42.82
