Data from LC_244_Reflection_3.txt Node
Date: Thu Nov 19 22:40:51 EST 2015
User: robert
Spectrometer: USB4E03001
Autoset integration time: false
Trigger mode: 4
Integration Time (sec): 1.000000E-1
Scans to average: 15
Electric dark correction enabled: true
Nonlinearity correction enabled: false
Boxcar width: 5
Stray light correction enabled: false
XAxis mode: Wavelengths
Stop averaging: false
Number of Pixels in Spectrum: 3648
>>>>>Begin Spectral Data<<<<<
177.566	-112.59
177.785	-57.22
178.005	-34.33
178.225	-74.18
178.445	-58.17
178.665	-42.96
178.885	10.9
179.105	950
179.324	600.69
179.544	470.77
179.764	230.82
179.984	186.37
180.204	357.98
180.423	311.31
180.643	267.12
180.863	166.55
181.083	246.93
181.302	160.68
181.522	94.85
181.742	113.68
181.961	128.26
182.181	152.98
182.401	257.09
182.621	256.18
182.84	430.06
183.06	340.4
183.279	297.07
183.499	203.26
183.719	570.13
183.938	2663.64
184.158	-1255.4
184.377	-1415.15
184.597	750.87
184.816	-5648.11
185.036	-268.31
185.256	4113.33
185.475	412.19
185.695	372.98
185.914	392.04
186.134	804.19
186.353	457.65
186.572	370.74
186.792	640.53
187.011	-4858.23
187.231	-1950.09
187.45	-2231.96
187.67	-200.3
187.889	-137.33
188.108	-78.21
188.328	-120.62
188.547	-414.56
188.766	-714.99
188.986	-890.7
189.205	11808.82
189.424	397.16
189.644	298.31
189.863	162.54
190.082	136.17
190.302	178.61
190.521	187.24
190.74	185.44
190.959	213.15
191.178	175.43
191.398	192.52
191.617	196.26
191.836	727.48
192.055	261.82
192.274	356.48
192.494	278.91
192.713	137.38
192.932	99.96
193.151	114.53
193.37	103.28
193.589	139.02
193.808	119.08
194.027	111.5
194.246	108.5
194.465	122.59
194.685	126.21
194.904	130.13
195.123	141.02
195.342	184.7
195.561	137.19
195.78	121.91
195.999	86.23
196.218	92.09
196.436	81.53
196.655	71.57
196.874	51.77
197.093	74.25
197.312	61.12
197.531	75.93
197.75	125.9
197.969	197.29
198.188	-516.34
198.407	-177.71
198.625	-214.07
198.844	-157.69
199.063	-1272.15
199.282	-214.75
199.501	-249.86
199.719	-410.82
199.938	-140.17
200.157	-291.94
200.376	-175.86
200.594	713.99
200.813	822.3
201.032	1054.36
201.251	1124.18
201.469	761.47
201.688	268.66
201.907	417.65
202.125	1471.81
202.344	330.27
202.563	416.41
202.781	415.93
203	337.33
203.218	279.14
203.437	300.38
203.656	287.66
203.874	404.96
204.093	571.42
204.311	155.66
204.53	119.53
204.748	134.98
204.967	139.11
205.185	156.63
205.404	160.54
205.622	169.19
205.841	112.73
206.059	88.5
206.278	18.03
206.496	60.25
206.715	121.2
206.933	180.4
207.151	146.71
207.37	128.3
207.588	132.53
207.806	184.49
208.025	175.51
208.243	248.98
208.461	529.58
208.68	387.42
208.898	234.8
209.116	130.9
209.335	136.57
209.553	329.17
209.771	-3152.1
209.989	448.83
210.208	-135.41
210.426	-119.93
210.644	120.71
210.862	72.76
211.081	137.65
211.299	121.89
211.517	167.59
211.735	119.99
211.953	96.08
212.171	82.92
212.39	76.86
212.608	68.35
212.826	90.11
213.044	115.45
213.262	93.38
213.48	89.94
213.698	84.53
213.916	108.32
214.134	108.97
214.352	173.31
214.57	297.41
214.788	706.13
215.006	642.83
215.224	438.4
215.442	862.98
215.66	367.26
215.878	628.87
216.096	732.74
216.314	807.55
216.532	1072.73
216.75	1737.42
216.968	-198.7
217.185	-524.97
217.403	-484.09
217.621	-2555.82
217.839	126.21
218.057	91.84
218.275	78.84
218.492	96.42
218.71	66.45
218.928	55.1
219.146	52.22
219.363	61.56
219.581	76.8
219.799	98.16
220.017	82.12
220.234	125.12
220.452	124.7
220.67	140.33
220.887	111.28
221.105	114.16
221.323	104.52
221.54	97.37
221.758	107.24
221.976	73.99
222.193	70.3
222.411	58.18
222.629	47.89
222.846	45.31
223.064	40.92
223.281	43.49
223.499	40.26
223.716	48.74
223.934	51.27
224.151	47.33
224.369	54.87
224.586	55.44
224.804	69.98
225.021	68.94
225.239	64.86
225.456	59.9
225.674	51.21
225.891	47.6
226.108	58.17
226.326	59.57
226.543	47.02
226.76	47.44
226.978	36.5
227.195	33.82
227.413	24.95
227.63	19.1
227.847	21.22
228.064	18.94
228.282	15.55
228.499	12.78
228.716	12.38
228.934	12.43
229.151	12
229.368	10.5
229.585	9.17
229.802	8.55
230.02	7.74
230.237	6.55
230.454	6.42
230.671	4.91
230.888	4.87
231.105	2.22
231.323	3.8
231.54	3
231.757	4.27
231.974	6.66
232.191	9.22
232.408	9.68
232.625	12.43
232.842	14.12
233.059	18.04
233.276	19.4
233.493	25.78
233.71	26.66
233.927	26.89
234.144	28.8
234.361	25.34
234.578	26.75
234.795	28.74
235.012	27.36
235.229	23.39
235.446	22.89
235.663	19.92
235.879	13.39
236.096	8.84
236.313	7.73
236.53	6.05
236.747	6.1
236.964	5.77
237.181	4.84
237.397	5.28
237.614	7.71
237.831	11.75
238.048	13.44
238.264	12.5
238.481	16.88
238.698	21.96
238.915	26.5
239.131	25.64
239.348	24.01
239.565	26.04
239.781	26.38
239.998	26.27
240.215	21.74
240.431	18.56
240.648	19.23
240.865	18.17
241.081	13.56
241.298	10.52
241.514	10.8
241.731	10.38
241.947	9.37
242.164	8.04
242.38	7.68
242.597	8.31
242.814	9.57
243.03	9.27
243.246	8.86
243.463	9.08
243.679	8.57
243.896	9.41
244.112	9.96
244.329	9.58
244.545	10.49
244.762	10.44
244.978	10.08
245.194	9.08
245.411	8.63
245.627	9.18
245.843	9.64
246.06	10.3
246.276	9.51
246.492	8.67
246.709	8.7
246.925	7.85
247.141	7.64
247.357	7.65
247.574	7.95
247.79	7.55
248.006	7.92
248.222	7.61
248.439	7.89
248.655	7.8
248.871	8.35
249.087	8.22
249.303	9.01
249.519	9.68
249.736	10.22
249.952	9.67
250.168	10.27
250.384	9.01
250.6	8.9
250.816	8.14
251.032	7.55
251.248	6.67
251.464	6.19
251.68	5.77
251.896	5.56
252.112	5.14
252.328	5.26
252.544	5.39
252.76	5.63
252.976	6.46
253.192	5.58
253.408	6.37
253.624	7.59
253.84	9
254.056	8.72
254.272	8.79
254.487	9.14
254.703	9.51
254.919	11.07
255.135	11.56
255.351	12.68
255.567	14.4
255.782	12.32
255.998	12.87
256.214	10.78
256.43	9.27
256.646	10.63
256.861	9.58
257.077	10.55
257.293	10.22
257.508	11.32
257.724	10.99
257.94	9.46
258.155	9.83
258.371	9.05
258.587	8.84
258.802	9.62
259.018	8.9
259.234	9.46
259.449	8.9
259.665	7.75
259.88	7.27
260.096	6.79
260.312	6.06
260.527	6.1
260.743	5.75
260.958	5.96
261.174	5.67
261.389	5.32
261.605	5.8
261.82	5.31
262.036	5.63
262.251	5.45
262.466	5.64
262.682	6.66
262.897	6.65
263.113	6.53
263.328	6.87
263.543	7.59
263.759	7.59
263.974	7.36
264.189	9.33
264.405	9.12
264.62	11.36
264.835	11.97
265.051	13.24
265.266	13.81
265.481	14.46
265.696	13.88
265.912	12.39
266.127	13.12
266.342	10.54
266.557	9.69
266.773	9.93
266.988	7.88
267.203	7.21
267.418	7.16
267.633	7.34
267.848	6.86
268.064	7.76
268.279	8.22
268.494	7.73
268.709	8.07
268.924	6.7
269.139	7
269.354	6.29
269.569	5.64
269.784	4.95
269.999	3.87
270.214	4.48
270.429	3.55
270.644	3.44
270.859	3.46
271.074	3.4
271.289	4.09
271.504	4.35
271.719	4.9
271.934	5.68
272.149	5.74
272.363	6.09
272.578	6.41
272.793	6.56
273.008	6.37
273.223	6.28
273.438	6.91
273.653	6.84
273.867	6.82
274.082	6.06
274.297	6.02
274.512	6.79
274.726	8.4
274.941	8.21
275.156	8.22
275.371	8.76
275.585	8.47
275.8	7.05
276.015	8.15
276.229	8.25
276.444	10.56
276.659	9.99
276.873	8.79
277.088	7.99
277.302	7.56
277.517	6.5
277.732	6.24
277.946	7.03
278.161	7.98
278.375	7
278.59	7.41
278.804	6.12
279.019	6.97
279.233	7.76
279.448	7.82
279.662	9.99
279.877	10.16
280.091	10.16
280.306	8.8
280.52	8.53
280.735	9.26
280.949	7.94
281.163	7.76
281.378	7.65
281.592	8.79
281.806	8.26
282.021	7.33
282.235	7.7
282.449	7.31
282.664	8.52
282.878	9.37
283.092	8.5
283.307	9.96
283.521	10.45
283.735	10.6
283.949	10.66
284.164	10.62
284.378	10
284.592	8.86
284.806	9.53
285.02	9.49
285.234	9.43
285.449	9.73
285.663	9.8
285.877	9.88
286.091	9.5
286.305	8.8
286.519	8.8
286.733	8.79
286.947	10.32
287.161	9.28
287.375	9.59
287.589	8.79
287.803	8.52
288.017	7.53
288.231	7.42
288.445	6.66
288.659	6.6
288.873	5.89
289.087	5.86
289.301	5.99
289.515	6.97
289.729	5.75
289.943	6.78
290.157	7.98
290.371	8.42
290.584	8.2
290.798	9.05
291.012	9.23
291.226	9.47
291.44	10.44
291.654	9.73
291.867	9.78
292.081	10.35
292.295	9.34
292.509	8.45
292.722	8.14
292.936	8
293.15	8.26
293.364	8.73
293.577	8.94
293.791	8.3
294.005	9.01
294.218	9.67
294.432	9.23
294.645	10.16
294.859	9.46
295.073	9.77
295.286	9.93
295.5	9.61
295.713	9.39
295.927	10.2
296.14	9.84
296.354	8.81
296.568	7.92
296.781	8.22
296.994	8.48
297.208	8.57
297.421	8.93
297.635	8.96
297.848	8.75
298.062	8.81
298.275	8.19
298.489	8.6
298.702	9.66
298.915	9.59
299.129	9.62
299.342	9.2
299.555	8.78
299.769	7.63
299.982	7.76
300.195	8.55
300.409	8.44
300.622	7.55
300.835	7.14
301.048	6.52
301.262	6.93
301.475	5.87
301.688	5.12
301.901	6
302.115	6.45
302.328	6.87
302.541	5.72
302.754	5.68
302.967	6.62
303.18	5.77
303.393	5.49
303.607	6.14
303.82	6.97
304.033	8.16
304.246	8.68
304.459	8.58
304.672	8.7
304.885	10.36
305.098	9.89
305.311	10.49
305.524	10.45
305.737	10.78
305.95	10.14
306.163	9.76
306.376	9.73
306.589	9.5
306.802	9.4
307.015	8.79
307.228	8.83
307.44	9.1
307.653	8.23
307.866	9.04
308.079	10.22
308.292	10.71
308.505	11.42
308.718	10.49
308.93	10.24
309.143	10.73
309.356	10.84
309.569	9.96
309.781	10.04
309.994	10.12
310.207	9.88
310.42	9.93
310.632	9.82
310.845	9.65
311.058	10.62
311.27	10.31
311.483	9.94
311.696	9.39
311.908	9.15
312.121	8.72
312.333	9.44
312.546	9.67
312.759	9.23
312.971	9.55
313.184	9.49
313.396	8.72
313.609	9.71
313.821	10.18
314.034	10.9
314.246	10.79
314.459	11.67
314.671	10.51
314.884	10.8
315.096	9.74
315.309	10.39
315.521	10.96
315.733	11.9
315.946	12.39
316.158	12.68
316.371	12.3
316.583	12.65
316.795	12.21
317.008	12.32
317.22	11.54
317.432	11.58
317.644	10.51
317.857	9.27
318.069	8.45
318.281	6.98
318.494	7.23
318.706	7.52
318.918	7.11
319.13	6.25
319.342	5.79
319.555	6.3
319.767	6.4
319.979	6.04
320.191	7.08
320.403	7.55
320.615	7.63
320.827	6.53
321.039	5.59
321.252	6.24
321.464	7.81
321.676	8.67
321.888	8.81
322.1	9.59
322.312	9.04
322.524	10.14
322.736	9.22
322.948	10.29
323.16	10.58
323.372	11.19
323.584	11.14
323.796	10.93
324.007	11.1
324.219	11.9
324.431	12.3
324.643	13.15
324.855	12.71
325.067	13.98
325.279	13.29
325.491	13.96
325.702	14.22
325.914	14.2
326.126	14.89
326.338	15.7
326.55	15.13
326.761	15.3
326.973	16.01
327.185	16.34
327.396	16.78
327.608	17.65
327.82	18.55
328.032	19.09
328.243	20.95
328.455	20.36
328.666	20.07
328.878	21.03
329.09	21.16
329.301	21.94
329.513	22.23
329.725	21.2
329.936	20.75
330.148	20.81
330.359	21.33
330.571	21.32
330.782	22.02
330.994	22.69
331.205	22.29
331.417	22.97
331.628	22.48
331.84	23.27
332.051	24.54
332.262	25.56
332.474	25.31
332.685	25.65
332.897	25.7
333.108	26.13
333.319	26.25
333.531	26.59
333.742	25.68
333.953	26.27
334.165	25.27
334.376	25.51
334.587	25.83
334.799	25.59
335.01	25.01
335.221	23.73
335.432	23.97
335.644	23.21
335.855	22.77
336.066	23.19
336.277	22.17
336.488	23
336.7	22.65
336.911	21.96
337.122	21.81
337.333	22.02
337.544	22.65
337.755	22.43
337.966	22.85
338.177	22.94
338.388	23.89
338.599	24.12
338.811	24.47
339.022	24.21
339.233	24.29
339.444	25.26
339.655	25.8
339.866	25.91
340.076	25.78
340.287	26.15
340.498	26.34
340.709	26.05
340.92	26.43
341.131	26.12
341.342	25.86
341.553	26.12
341.764	25.14
341.975	24.4
342.185	24.37
342.396	24.57
342.607	24.3
342.818	24.03
343.029	24.25
343.239	24.52
343.45	24.38
343.661	24.15
343.872	23.69
344.082	24.75
344.293	25.15
344.504	25.43
344.714	25.58
344.925	25.42
345.136	25.6
345.346	23.98
345.557	23.68
345.768	23.51
345.978	24.45
346.189	24.82
346.399	24.11
346.61	23.7
346.821	23.27
347.031	23
347.242	23.18
347.452	23.73
347.663	24.78
347.873	24.57
348.084	24.68
348.294	24.27
348.504	24.56
348.715	24.97
348.925	25.65
349.136	25.76
349.346	25.51
349.557	25.87
349.767	25.47
349.977	25.9
350.188	25.88
350.398	25.59
350.608	25.73
350.819	25.69
351.029	25.57
351.239	25.32
351.449	24.9
351.66	25.04
351.87	25.12
352.08	24.81
352.29	25.57
352.501	25.67
352.711	26.02
352.921	25.92
353.131	25.63
353.341	25.04
353.552	24.95
353.762	25.36
353.972	25.51
354.182	25.2
354.392	25.25
354.602	23.79
354.812	24.09
355.022	23.46
355.232	23.69
355.442	23.63
355.652	23.43
355.862	23.44
356.072	23.77
356.282	24.34
356.492	24.1
356.702	24.06
356.912	24.53
357.122	24.27
357.332	24.93
357.542	24.1
357.752	23.94
357.962	24.88
358.171	25.45
358.381	25.35
358.591	25.04
358.801	24.91
359.011	25.11
359.221	25.01
359.43	25.4
359.64	25.25
359.85	25.84
360.06	25.92
360.269	25.16
360.479	24.52
360.689	24.34
360.899	23.83
361.108	24.32
361.318	23.96
361.528	23.96
361.737	23.91
361.947	23.48
362.156	23.09
362.366	23.25
362.576	23.39
362.785	23.01
362.995	22.65
363.204	22.69
363.414	22.25
363.623	22.59
363.833	22.6
364.042	22
364.252	22.13
364.461	22.07
364.671	21.94
364.88	22.13
365.09	22.94
365.299	23.13
365.509	23.34
365.718	23.68
365.927	23.92
366.137	23.79
366.346	24.66
366.555	24.19
366.765	24.6
366.974	24.39
367.183	24.42
367.393	24.2
367.602	24.67
367.811	24.79
368.021	24.79
368.23	23.84
368.439	23.93
368.648	22.89
368.857	23.35
369.067	23.28
369.276	23.43
369.485	23.42
369.694	22.51
369.903	22.16
370.112	21.67
370.321	21.31
370.531	22
370.74	21.89
370.949	22.26
371.158	22.28
371.367	22.09
371.576	21.9
371.785	21.69
371.994	22.42
372.203	22.15
372.412	22.54
372.621	22.87
372.83	22.81
373.039	22.68
373.248	22.84
373.457	22.97
373.666	23.28
373.874	23.67
374.083	23.75
374.292	23.72
374.501	24.17
374.71	23.93
374.919	23.63
375.128	23.89
375.336	23.67
375.545	23.65
375.754	23.1
375.963	22.78
376.171	22.54
376.38	22.04
376.589	21.61
376.798	21.19
377.006	20.99
377.215	21.16
377.424	20.72
377.632	21
377.841	20.78
378.05	21.43
378.258	21.11
378.467	21.12
378.675	21.45
378.884	21.83
379.093	21.75
379.301	22.09
379.51	21.76
379.718	21.76
379.927	21.59
380.135	21.6
380.344	21.4
380.552	21.72
380.761	21.34
380.969	21.41
381.177	21.19
381.386	21.71
381.594	21.84
381.803	21.87
382.011	21.92
382.219	22.07
382.428	22.23
382.636	22.14
382.845	22.35
383.053	22.15
383.261	22.21
383.469	22.37
383.678	21.75
383.886	21.3
384.094	21.28
384.302	21.58
384.511	21.19
384.719	20.82
384.927	20.91
385.135	20.87
385.343	21.03
385.552	21.03
385.76	20.8
385.968	21.13
386.176	21.14
386.384	21.13
386.592	20.79
386.8	20.95
387.008	20.74
387.216	20.47
387.424	20.33
387.633	20.44
387.841	19.97
388.049	19.94
388.257	19.59
388.465	19.45
388.672	19.53
388.88	19.27
389.088	18.94
389.296	19.32
389.504	19.33
389.712	19.43
389.92	19.35
390.128	19.69
390.336	20.04
390.544	19.94
390.751	19.97
390.959	19.77
391.167	20
391.375	20.3
391.583	19.87
391.79	19.83
391.998	20.06
392.206	20.27
392.414	20.26
392.621	19.95
392.829	20
393.037	20.15
393.244	20.3
393.452	20.03
393.66	19.98
393.867	20.34
394.075	20.32
394.283	19.73
394.49	19.3
394.698	18.98
394.905	18.94
395.113	19.14
395.32	19.1
395.528	19.07
395.735	19.34
395.943	19.3
396.15	19.15
396.358	19.18
396.565	19.49
396.773	19.61
396.98	20.02
397.188	20.25
397.395	19.95
397.602	19.73
397.81	19.5
398.017	19.26
398.225	19.13
398.432	19.19
398.639	19.13
398.847	18.91
399.054	19.31
399.261	18.98
399.468	18.88
399.676	19.05
399.883	19.23
400.09	19.54
400.297	19.89
400.505	20.09
400.712	20.22
400.919	20.18
401.126	20.42
401.333	20.26
401.54	20.48
401.748	20.56
401.955	20.41
402.162	20.12
402.369	20.06
402.576	19.86
402.783	19.7
402.99	19.6
403.197	19.82
403.404	19.72
403.611	19.78
403.818	19.66
404.025	19.58
404.232	19.59
404.439	20.08
404.646	20.06
404.853	20.18
405.06	20.21
405.267	20.33
405.474	20.21
405.681	20.11
405.887	20.17
406.094	20.16
406.301	20.25
406.508	20.42
406.715	20.06
406.922	19.92
407.128	19.84
407.335	19.88
407.542	19.75
407.749	19.83
407.955	19.87
408.162	19.86
408.369	19.88
408.575	20.02
408.782	19.96
408.989	19.91
409.195	19.76
409.402	19.7
409.609	19.68
409.815	19.57
410.022	19.56
410.228	19.54
410.435	19.43
410.642	19.41
410.848	19.31
411.055	19.25
411.261	19.56
411.468	19.71
411.674	19.75
411.881	19.79
412.087	19.58
412.294	19.56
412.5	19.54
412.706	19.48
412.913	19.46
413.119	19.07
413.326	18.97
413.532	18.94
413.738	18.73
413.945	18.48
414.151	18.87
414.357	19.08
414.564	18.74
414.77	18.77
414.976	18.76
415.182	18.71
415.389	18.73
415.595	18.84
415.801	18.46
416.007	18.48
416.214	18.76
416.42	18.26
416.626	18.14
416.832	18.61
417.038	18.6
417.244	18.55
417.45	18.53
417.657	18.73
417.863	18.73
418.069	18.88
418.275	19.01
418.481	18.88
418.687	18.96
418.893	19.06
419.099	18.8
419.305	18.77
419.511	18.62
419.717	18.59
419.923	18.39
420.129	18.33
420.335	18.21
420.541	18.12
420.746	17.98
420.952	17.96
421.158	17.8
421.364	17.77
421.57	17.72
421.776	17.75
421.982	17.75
422.187	17.93
422.393	17.87
422.599	17.91
422.805	17.87
423.01	17.82
423.216	17.79
423.422	17.75
423.628	17.75
423.833	17.7
424.039	17.74
424.245	17.67
424.45	17.54
424.656	17.58
424.862	17.66
425.067	17.6
425.273	17.73
425.478	17.64
425.684	17.78
425.889	17.88
426.095	17.9
426.301	17.87
426.506	17.83
426.712	17.86
426.917	17.94
427.123	17.77
427.328	17.7
427.533	17.66
427.739	17.96
427.944	17.77
428.15	17.54
428.355	17.41
428.561	17.32
428.766	17.48
428.971	17.38
429.177	17.26
429.382	17.4
429.587	17.77
429.793	17.77
429.998	17.49
430.203	17.55
430.408	17.77
430.614	18.03
430.819	18.04
431.024	17.94
431.229	17.8
431.434	17.57
431.64	17.46
431.845	17.26
432.05	17.26
432.255	17.15
432.46	17.06
432.665	17.08
432.87	17.1
433.076	17.12
433.281	17.04
433.486	17.13
433.691	17.25
433.896	17.24
434.101	17.2
434.306	17.26
434.511	17.39
434.716	17.59
434.921	17.42
435.126	17.49
435.331	17.57
435.535	17.72
435.74	17.57
435.945	17.75
436.15	17.68
436.355	17.85
436.56	17.84
436.765	17.84
436.97	17.7
437.174	17.7
437.379	17.48
437.584	17.35
437.789	17.28
437.993	17.37
438.198	17.11
438.403	17.11
438.608	17.09
438.812	17.04
439.017	16.93
439.222	17.07
439.426	17
439.631	17.02
439.836	17.3
440.04	17.34
440.245	17.48
440.45	17.57
440.654	17.61
440.859	17.5
441.063	17.54
441.268	17.57
441.472	17.54
441.677	17.65
441.881	17.7
442.086	17.37
442.29	17.28
442.495	17.12
442.699	17.18
442.904	17.27
443.108	17.24
443.312	17.01
443.517	17.09
443.721	17.1
443.925	17.13
444.13	17.15
444.334	17.33
444.538	17.41
444.743	17.5
444.947	17.4
445.151	17.35
445.356	17.37
445.56	17.45
445.764	17.39
445.968	17.35
446.173	17.3
446.377	17.19
446.581	17.15
446.785	17.21
446.989	17.14
447.193	17.02
447.398	16.95
447.602	16.94
447.806	16.97
448.01	16.96
448.214	16.89
448.418	16.93
448.622	16.83
448.826	16.86
449.03	16.79
449.234	16.73
449.438	16.91
449.642	17
449.846	17.08
450.05	17.15
450.254	17.2
450.458	17.25
450.662	17.15
450.866	17.27
451.069	17.16
451.273	17.01
451.477	17.06
451.681	17.01
451.885	16.89
452.089	16.91
452.292	16.81
452.496	16.67
452.7	16.65
452.904	16.66
453.107	16.71
453.311	16.79
453.515	16.84
453.719	16.9
453.922	17.02
454.126	16.99
454.33	16.96
454.533	16.85
454.737	16.96
454.94	17.08
455.144	17.17
455.348	17.14
455.551	17.22
455.755	17.16
455.958	17.11
456.162	16.88
456.365	17.08
456.569	16.99
456.772	17.19
456.976	17.26
457.179	17.15
457.383	17.13
457.586	17.2
457.79	17.14
457.993	17.09
458.196	17.01
458.4	17.04
458.603	17
458.807	17
459.01	17.01
459.213	17.06
459.417	17.12
459.62	17.01
459.823	17.01
460.026	17.03
460.23	17.09
460.433	17.14
460.636	17.11
460.839	17.06
461.042	17.08
461.246	16.99
461.449	16.86
461.652	16.85
461.855	16.87
462.058	16.77
462.261	16.69
462.464	16.73
462.668	16.8
462.871	16.97
463.074	16.86
463.277	16.79
463.48	16.94
463.683	17.04
463.886	17
464.089	16.93
464.292	16.92
464.495	16.92
464.698	16.81
464.901	16.59
465.104	16.6
465.306	16.81
465.509	16.86
465.712	16.97
465.915	16.88
466.118	16.87
466.321	16.97
466.524	17.09
466.726	17.08
466.929	17.15
467.132	17.31
467.335	17.36
467.538	17.28
467.74	17.25
467.943	17.11
468.146	17.24
468.348	17.31
468.551	17.38
468.754	17.53
468.956	17.57
469.159	17.64
469.362	17.64
469.564	17.45
469.767	17.61
469.969	17.56
470.172	17.66
470.375	17.43
470.577	17.41
470.78	17.43
470.982	17.28
471.185	17.45
471.387	17.3
471.59	17.28
471.792	17.38
471.995	17.17
472.197	17.23
472.399	17.09
472.602	17.27
472.804	17.09
473.007	16.99
473.209	16.89
473.411	16.72
473.614	16.73
473.816	16.86
474.018	16.96
474.22	17.12
474.423	17.05
474.625	17
474.827	16.91
475.03	17.18
475.232	17.38
475.434	17.61
475.636	17.53
475.838	17.65
476.04	17.65
476.243	17.56
476.445	17.52
476.647	17.64
476.849	17.78
477.051	17.76
477.253	17.67
477.455	17.58
477.657	17.33
477.859	17.39
478.061	17.21
478.263	17.19
478.465	17.04
478.667	17.13
478.869	17.2
479.071	17.06
479.273	17.08
479.475	16.95
479.677	16.96
479.879	17.24
480.081	17.15
480.283	17.29
480.485	17.15
480.686	17.23
480.888	17.1
481.09	17.09
481.292	17.19
481.494	17.14
481.695	17.33
481.897	17.27
482.099	17.17
482.301	17.19
482.502	17.11
482.704	17.05
482.906	17.07
483.107	17.08
483.309	17.06
483.511	17.02
483.712	17.04
483.914	17
484.115	16.99
484.317	16.97
484.519	17.01
484.72	17.08
484.922	17.13
485.123	17.1
485.325	17.09
485.526	17.02
485.728	17.07
485.929	17.09
486.131	17.05
486.332	17.09
486.534	17.1
486.735	17.09
486.936	17.02
487.138	17.04
487.339	17.08
487.541	17.14
487.742	17.2
487.943	17.19
488.144	17.22
488.346	17.25
488.547	17.29
488.748	17.34
488.95	17.36
489.151	17.37
489.352	17.38
489.553	17.43
489.755	17.37
489.956	17.39
490.157	17.32
490.358	17.28
490.559	17.22
490.76	17.21
490.961	17.19
491.163	17.2
491.364	17.28
491.565	17.29
491.766	17.26
491.967	17.27
492.168	17.25
492.369	17.33
492.57	17.36
492.771	17.42
492.972	17.35
493.173	17.38
493.374	17.41
493.575	17.35
493.776	17.32
493.976	17.27
494.177	17.23
494.378	17.36
494.579	17.35
494.78	17.39
494.981	17.27
495.182	17.39
495.382	17.3
495.583	17.22
495.784	17.2
495.985	17.35
496.185	17.38
496.386	17.41
496.587	17.34
496.788	17.36
496.988	17.38
497.189	17.44
497.39	17.49
497.59	17.51
497.791	17.5
497.992	17.46
498.192	17.44
498.393	17.46
498.593	17.53
498.794	17.57
498.994	17.55
499.195	17.54
499.395	17.57
499.596	17.44
499.796	17.44
499.997	17.47
500.197	17.54
500.398	17.51
500.598	17.52
500.799	17.56
500.999	17.46
501.199	17.57
501.4	17.66
501.6	17.66
501.801	17.69
502.001	17.66
502.201	17.71
502.402	17.77
502.602	17.75
502.802	17.95
503.002	17.96
503.203	18
503.403	17.89
503.603	17.69
503.803	17.84
504.003	17.91
504.204	18.02
504.404	17.89
504.604	17.92
504.804	18.05
505.004	18.01
505.204	17.93
505.404	17.92
505.604	18.02
505.804	18.17
506.005	18.17
506.205	18.19
506.405	18.16
506.605	18.44
506.805	18.48
507.005	18.42
507.204	18.5
507.404	18.59
507.604	18.69
507.804	18.67
508.004	18.8
508.204	18.87
508.404	18.81
508.604	18.99
508.804	18.97
509.003	19.08
509.203	18.95
509.403	18.85
509.603	18.84
509.803	18.9
510.002	19
510.202	18.82
510.402	18.85
510.602	19.01
510.801	18.9
511.001	18.83
511.201	18.69
511.4	18.97
511.6	19.21
511.8	19.24
511.999	19.25
512.199	19.35
512.398	19.44
512.598	19.51
512.797	19.61
512.997	19.74
513.197	19.83
513.396	20
513.596	19.94
513.795	19.81
513.994	19.92
514.194	20.04
514.393	20
514.593	20.17
514.792	20.23
514.992	20.05
515.191	20.19
515.39	20.33
515.59	20.37
515.789	20.47
515.988	20.6
516.188	20.75
516.387	20.82
516.586	20.87
516.786	20.8
516.985	20.81
517.184	21.01
517.383	21.01
517.582	20.95
517.782	20.94
517.981	21.01
518.18	20.98
518.379	20.99
518.578	21.04
518.777	21.14
518.976	21.25
519.176	21.37
519.375	21.43
519.574	21.48
519.773	21.63
519.972	21.8
520.171	21.86
520.37	22.01
520.569	22.08
520.768	22.18
520.967	22.2
521.166	22.32
521.365	22.39
521.564	22.49
521.762	22.58
521.961	22.72
522.16	22.69
522.359	22.82
522.558	23.07
522.757	23.17
522.956	23.24
523.154	23.28
523.353	23.35
523.552	23.4
523.751	23.43
523.949	23.44
524.148	23.39
524.347	23.62
524.546	23.72
524.744	23.66
524.943	23.78
525.142	23.85
525.34	23.92
525.539	23.93
525.737	24
525.936	24.14
526.135	24.2
526.333	24.26
526.532	24.26
526.73	24.3
526.929	24.36
527.127	24.43
527.326	24.5
527.524	24.59
527.723	24.73
527.921	24.77
528.12	24.74
528.318	24.82
528.516	24.89
528.715	24.94
528.913	25
529.112	25.06
529.31	25.07
529.508	25.12
529.707	25.16
529.905	25.19
530.103	25.3
530.301	25.38
530.5	25.39
530.698	25.48
530.896	25.58
531.094	25.64
531.293	25.74
531.491	25.84
531.689	25.98
531.887	26.09
532.085	26.08
532.283	26.06
532.481	26.1
532.68	26.29
532.878	26.34
533.076	26.43
533.274	26.48
533.472	26.44
533.67	26.49
533.868	26.48
534.066	26.53
534.264	26.65
534.462	26.73
534.66	26.84
534.858	26.8
535.056	26.86
535.253	26.94
535.451	27
535.649	27.17
535.847	27.27
536.045	27.27
536.243	27.35
536.441	27.43
536.638	27.48
536.836	27.57
537.034	27.76
537.232	27.83
537.43	27.89
537.627	27.9
537.825	28.06
538.023	28.04
538.22	28.17
538.418	28.28
538.616	28.27
538.813	28.32
539.011	28.38
539.209	28.46
539.406	28.56
539.604	28.48
539.801	28.67
539.999	28.58
540.196	28.69
540.394	28.78
540.591	28.81
540.789	28.87
540.986	28.85
541.184	28.86
541.381	28.87
541.579	28.83
541.776	28.97
541.974	28.95
542.171	28.99
542.368	29.09
542.566	29.15
542.763	29.17
542.96	29.18
543.158	29.38
543.355	29.47
543.552	29.61
543.75	29.76
543.947	29.77
544.144	29.81
544.341	29.92
544.539	29.95
544.736	30.02
544.933	30.09
545.13	30.23
545.327	30.16
545.524	30.25
545.722	30.28
545.919	30.23
546.116	30.23
546.313	30.37
546.51	30.33
546.707	30.31
546.904	30.35
547.101	30.46
547.298	30.45
547.495	30.56
547.692	30.56
547.889	30.46
548.086	30.61
548.283	30.83
548.48	30.92
548.677	31.13
548.874	31.2
549.07	31.32
549.267	31.21
549.464	31.55
549.661	31.64
549.858	31.94
550.055	32.04
550.251	32.23
550.448	32.07
550.645	32.19
550.842	32.19
551.038	32.23
551.235	32.34
551.432	32.54
551.628	32.49
551.825	32.51
552.022	32.33
552.218	32.4
552.415	32.35
552.612	32.37
552.808	32.34
553.005	32.44
553.201	32.62
553.398	32.71
553.594	32.63
553.791	32.56
553.987	32.73
554.184	32.64
554.38	32.7
554.577	32.78
554.773	32.82
554.97	32.95
555.166	33.11
555.362	32.91
555.559	32.84
555.755	32.92
555.952	33.08
556.148	32.8
556.344	32.93
556.541	32.77
556.737	32.73
556.933	32.87
557.129	32.85
557.326	32.74
557.522	32.84
557.718	32.84
557.914	32.89
558.11	32.83
558.307	33.21
558.503	33.23
558.699	33.4
558.895	33.4
559.091	33.52
559.287	33.55
559.483	33.44
559.679	33.51
559.876	33.63
560.072	33.77
560.268	33.78
560.464	33.58
560.66	33.52
560.856	33.72
561.052	33.78
561.247	33.83
561.443	33.7
561.639	33.7
561.835	33.94
562.031	34.02
562.227	33.98
562.423	34.13
562.619	34.37
562.815	34.66
563.01	34.58
563.206	34.8
563.402	34.72
563.598	34.92
563.793	35.13
563.989	35.18
564.185	35.04
564.381	35.41
564.576	35.55
564.772	35.65
564.968	35.73
565.163	35.94
565.359	35.79
565.555	35.97
565.75	35.98
565.946	36.12
566.141	36.07
566.337	36.16
566.532	36.04
566.728	35.97
566.923	35.94
567.119	35.93
567.314	35.77
567.51	35.94
567.705	35.88
567.901	35.77
568.096	35.71
568.292	35.64
568.487	35.63
568.682	35.63
568.878	35.68
569.073	35.7
569.268	35.73
569.464	35.97
569.659	36.15
569.854	36.31
570.05	36.48
570.245	36.52
570.44	36.67
570.635	36.94
570.831	36.92
571.026	36.95
571.221	36.97
571.416	36.99
571.611	37.04
571.806	36.85
572.002	36.79
572.197	36.73
572.392	36.82
572.587	36.9
572.782	36.81
572.977	36.88
573.172	36.93
573.367	36.88
573.562	37.05
573.757	37.11
573.952	37.22
574.147	37.3
574.342	37.47
574.537	37.39
574.732	37.44
574.927	37.42
575.121	37.55
575.316	37.52
575.511	37.59
575.706	37.45
575.901	37.4
576.096	37.37
576.29	37.36
576.485	37.38
576.68	37.35
576.875	37.35
577.069	37.45
577.264	37.39
577.459	37.4
577.654	37.39
577.848	37.32
578.043	37.36
578.238	37.46
578.432	37.23
578.627	37.2
578.821	37.24
579.016	37.13
579.21	37
579.405	37.03
579.6	37.05
579.794	37.23
579.989	37.37
580.183	37.24
580.378	37.26
580.572	37.58
580.766	37.6
580.961	37.53
581.155	37.52
581.35	37.48
581.544	37.57
581.738	37.64
581.933	37.68
582.127	37.8
582.321	37.96
582.516	38.01
582.71	37.94
582.904	38.12
583.099	38.24
583.293	38.52
583.487	38.48
583.681	38.68
583.875	38.68
584.07	38.66
584.264	38.69
584.458	38.68
584.652	38.65
584.846	38.75
585.04	38.85
585.234	38.98
585.428	38.86
585.623	39.22
585.817	38.99
586.011	39.06
586.205	38.95
586.399	38.96
586.593	39.01
586.787	39.05
586.981	39.04
587.174	39.11
587.368	39.14
587.562	39.2
587.756	39.18
587.95	39.16
588.144	38.99
588.338	38.99
588.532	39.01
588.725	39.11
588.919	39
589.113	39.28
589.307	39.04
589.501	38.96
589.694	39.06
589.888	39.22
590.082	39.3
590.275	39.3
590.469	39.42
590.663	39.57
590.856	39.43
591.05	39.4
591.244	39.36
591.437	39.59
591.631	39.74
591.824	39.74
592.018	39.49
592.212	39.66
592.405	39.86
592.599	39.89
592.792	39.83
592.986	39.97
593.179	40.36
593.372	40.55
593.566	40.41
593.759	40.49
593.953	40.42
594.146	40.29
594.339	40.22
594.533	40.07
594.726	39.97
594.92	39.8
595.113	39.7
595.306	39.55
595.499	39.22
595.693	39.35
595.886	39.37
596.079	39.37
596.272	39.58
596.466	39.64
596.659	39.74
596.852	39.71
597.045	39.74
597.238	39.72
597.431	39.67
597.624	39.77
597.818	39.8
598.011	39.84
598.204	39.91
598.397	39.95
598.59	39.9
598.783	40.01
598.976	40.04
599.169	40.22
599.362	40.28
599.555	40.13
599.748	40.15
599.941	39.95
600.134	39.92
600.326	39.8
600.519	39.71
600.712	39.47
600.905	39.5
601.098	39.96
601.291	39.96
601.483	40.08
601.676	40.41
601.869	40.42
602.062	40.45
602.255	40.54
602.447	40.63
602.64	40.56
602.833	40.56
603.025	40.61
603.218	40.22
603.411	39.88
603.603	39.9
603.796	39.72
603.989	39.59
604.181	39.61
604.374	39.56
604.566	39.52
604.759	39.48
604.951	39.82
605.144	39.87
605.336	40.18
605.529	40.22
605.721	40.29
605.914	40.42
606.106	40.6
606.299	40.73
606.491	40.69
606.683	40.72
606.876	40.84
607.068	40.74
607.26	40.56
607.453	40.5
607.645	40.7
607.837	40.59
608.03	40.59
608.222	40.73
608.414	40.5
608.606	40.51
608.799	40.68
608.991	40.82
609.183	40.93
609.375	41.07
609.567	40.85
609.759	40.92
609.952	40.9
610.144	41.03
610.336	40.83
610.528	41.03
610.72	41.01
610.912	41.04
611.104	41.19
611.296	41.08
611.488	41.19
611.68	41.31
611.872	41.43
612.064	41.56
612.256	41.41
612.448	41.56
612.64	41.47
612.832	41.51
613.023	41.48
613.215	41.16
613.407	40.97
613.599	40.68
613.791	40.52
613.983	40.7
614.174	40.77
614.366	40.81
614.558	40.81
614.75	40.92
614.941	41.2
615.133	41.26
615.325	41.47
615.516	41.7
615.708	41.71
615.9	41.8
616.091	41.49
616.283	41.32
616.475	41.3
616.666	41.18
616.858	41.57
617.049	41.36
617.241	41.09
617.432	41.01
617.624	41.08
617.815	41.32
618.007	41.3
618.198	41.18
618.39	41.41
618.581	41.6
618.773	41.64
618.964	41.47
619.155	41.61
619.347	41.55
619.538	41.43
619.729	41.37
619.921	41.31
620.112	41.3
620.303	41.52
620.494	41.39
620.686	41.13
620.877	41.23
621.068	40.93
621.259	40.96
621.451	41.3
621.642	41.25
621.833	41.1
622.024	41.01
622.215	41.09
622.406	40.91
622.597	40.58
622.788	40.86
622.98	40.63
623.171	40.62
623.362	40.74
623.553	40.75
623.744	40.86
623.935	41.06
624.126	41.15
624.317	41.3
624.508	41.37
624.698	41.71
624.889	41.56
625.08	41.72
625.271	41.91
625.462	41.79
625.653	41.55
625.844	41.5
626.034	41.36
626.225	41.13
626.416	41.22
626.607	41.37
626.798	41.25
626.988	41.12
627.179	41
627.37	40.89
627.56	40.83
627.751	40.86
627.942	41.21
628.132	41.35
628.323	41.41
628.514	41.28
628.704	41.17
628.895	41.01
629.085	41.3
629.276	41.49
629.466	41.69
629.657	41.68
629.847	41.97
630.038	41.8
630.228	41.8
630.419	42
630.609	42.18
630.8	42.28
630.99	42.95
631.181	42.93
631.371	42.73
631.561	42.64
631.752	42.63
631.942	42.48
632.132	42.28
632.323	42.27
632.513	42.04
632.703	42.04
632.893	41.95
633.084	41.56
633.274	41.52
633.464	41.79
633.654	41.53
633.844	41.54
634.034	41.39
634.225	41.54
634.415	41.59
634.605	41.6
634.795	41.55
634.985	41.61
635.175	41.47
635.365	41.48
635.555	41.45
635.745	41.86
635.935	41.95
636.125	42.16
636.315	42.1
636.505	42.16
636.695	42.19
636.885	42.18
637.075	42.15
637.265	42.43
637.455	42.09
637.644	41.8
637.834	41.51
638.024	41.26
638.214	41.17
638.404	41.37
638.593	41.16
638.783	41.37
638.973	41.28
639.163	41.35
639.352	41.4
639.542	41.49
639.732	41.92
639.921	41.87
640.111	41.89
640.301	41.88
640.49	41.75
640.68	41.65
640.87	41.86
641.059	41.73
641.249	41.73
641.438	41.48
641.628	41.72
641.817	41.36
642.007	41.16
642.196	41.27
642.386	41.42
642.575	41.66
642.764	42.33
642.954	41.93
643.143	42.39
643.333	42.33
643.522	42.33
643.711	42.46
643.901	42.34
644.09	42.74
644.279	43.1
644.469	42.98
644.658	42.92
644.847	42.56
645.036	42.69
645.226	42.5
645.415	41.82
645.604	41.87
645.793	42.05
645.982	42.31
646.171	42.22
646.361	41.95
646.55	41.73
646.739	41.68
646.928	41.71
647.117	41.91
647.306	41.69
647.495	42.41
647.684	42.52
647.873	42.34
648.062	42.44
648.251	42.55
648.44	42.35
648.629	42.61
648.818	42.67
649.007	42.6
649.196	42.33
649.384	42.32
649.573	42.6
649.762	42.89
649.951	42.87
650.14	42.94
650.328	42.74
650.517	42.82
650.706	42.67
650.895	42.68
651.083	42.6
651.272	42.03
651.461	42.22
651.65	41.8
651.838	41.58
652.027	41.22
652.216	41.15
652.404	41.46
652.593	41.73
652.781	41.57
652.97	41.47
653.158	41.35
653.347	41.87
653.535	41.4
653.724	41.68
653.912	41.8
654.101	42.39
654.289	42.61
654.478	42.37
654.666	42.24
654.855	42.43
655.043	42.48
655.231	42.74
655.42	42.91
655.608	43.51
655.796	43.48
655.985	43.25
656.173	43.24
656.361	43.2
656.55	43.1
656.738	42.96
656.926	43.06
657.114	43.06
657.302	42.81
657.491	42.49
657.679	42.01
657.867	42.04
658.055	42.22
658.243	42.43
658.431	42.47
658.619	42.69
658.807	42.61
658.996	43.02
659.184	42.72
659.372	42.74
659.56	42.89
659.748	43.01
659.936	42.9
660.124	42.67
660.311	42.47
660.499	41.91
660.687	42.04
660.875	42.2
661.063	41.8
661.251	41.89
661.439	42.05
661.627	42.24
661.814	42.29
662.002	42.46
662.19	42.3
662.378	42.33
662.565	42.84
662.753	42.58
662.941	42.67
663.129	42.31
663.316	42.22
663.504	42.16
663.692	42.02
663.879	42.19
664.067	41.9
664.254	42.31
664.442	42.21
664.63	42.01
664.817	42.32
665.005	42.16
665.192	42.57
665.38	42.61
665.567	42.89
665.755	43.03
665.942	43
666.13	43.09
666.317	43.02
666.504	42.97
666.692	43.17
666.879	42.9
667.067	42.91
667.254	42.8
667.441	43.06
667.629	42.49
667.816	42.39
668.003	42.53
668.19	43.2
668.378	43.4
668.565	43.18
668.752	43.3
668.939	43.17
669.127	43.2
669.314	43.45
669.501	43.18
669.688	43.22
669.875	43.05
670.062	43.03
670.249	42.2
670.436	42.05
670.623	42.08
670.81	42.27
670.997	42.43
671.184	42.63
671.371	42.7
671.558	42.87
671.745	43.21
671.932	43.58
672.119	43.15
672.306	43.39
672.493	43.36
672.68	43.61
672.867	43.53
673.054	43.49
673.24	43.64
673.427	43.53
673.614	43.56
673.801	43.53
673.988	43.59
674.174	43.91
674.361	44.05
674.548	44.2
674.734	43.96
674.921	43.86
675.108	43.92
675.294	43.6
675.481	43.53
675.668	43.47
675.854	43.43
676.041	43.58
676.227	43.68
676.414	43.74
676.601	43.37
676.787	43.34
676.974	42.89
677.16	42.54
677.347	42.76
677.533	42.61
677.719	42.52
677.906	42.76
678.092	41.94
678.279	41.71
678.465	41.53
678.651	41.66
678.838	41.64
679.024	41.93
679.21	42.29
679.397	41.99
679.583	42.17
679.769	42.43
679.955	42.26
680.142	42.52
680.328	42.94
680.514	42.95
680.7	42.88
680.886	43.11
681.073	43.09
681.259	42.98
681.445	43.17
681.631	43.1
681.817	43.33
682.003	43.33
682.189	43.73
682.375	43.3
682.561	43.24
682.747	43.48
682.933	43.36
683.119	43.39
683.305	43.59
683.491	43.19
683.677	43.49
683.863	42.98
684.049	43.12
684.235	43.02
684.42	43.09
684.606	43.3
684.792	43.48
684.978	43.91
685.164	44.29
685.349	44.48
685.535	44.83
685.721	44.46
685.907	44.76
686.092	44.94
686.278	45
686.464	45.38
686.649	45.07
686.835	44.75
687.021	44.57
687.206	43.89
687.392	43.53
687.577	43.55
687.763	43.73
687.948	43.15
688.134	43.3
688.319	42.62
688.505	41.93
688.69	42.34
688.876	42.05
689.061	41.63
689.247	42.25
689.432	42.18
689.618	42.08
689.803	41.96
689.988	42.44
690.174	41.71
690.359	42.15
690.544	42.65
690.73	42.6
690.915	42.87
691.1	42.72
691.285	42.77
691.471	42.96
691.656	43.25
691.841	43.43
692.026	43.06
692.211	43.42
692.396	43.14
692.582	42.93
692.767	42.91
692.952	43.09
693.137	43.35
693.322	43.24
693.507	43.25
693.692	43.23
693.877	43.25
694.062	43.65
694.247	43.25
694.432	43.76
694.617	44.01
694.802	44.01
694.987	44.2
695.172	44.82
695.357	44.4
695.541	43.98
695.726	44.08
695.911	44.2
696.096	44.23
696.281	44.55
696.466	44.31
696.65	44.13
696.835	43.75
697.02	43.33
697.204	42.92
697.389	43.36
697.574	43.87
697.759	43.41
697.943	43.29
698.128	42.96
698.312	42.77
698.497	42.77
698.682	42.96
698.866	43.39
699.051	43.58
699.235	43.71
699.42	43.53
699.604	42.95
699.789	43.08
699.973	43.31
700.158	43.75
700.342	44.11
700.527	44.65
700.711	44.42
700.895	44.17
701.08	44.1
701.264	44.1
701.448	44.29
701.633	44.96
701.817	45.46
702.001	45.11
702.186	45.06
702.37	45.01
702.554	43.93
702.738	44.2
702.923	44.59
703.107	44.9
703.291	44.55
703.475	44.15
703.659	43.97
703.843	43.97
704.027	44.4
704.212	43.99
704.396	44.09
704.58	44.73
704.764	44.95
704.948	44.12
705.132	43.83
705.316	43.54
705.5	43.83
705.684	44.21
705.868	44.08
706.052	44.01
706.235	44.34
706.419	44.21
706.603	44.57
706.787	44.53
706.971	45.19
707.155	45.28
707.339	45.87
707.522	45.65
707.706	45.21
707.89	44.69
708.074	44.12
708.257	43.82
708.441	44.15
708.625	43.49
708.808	43.48
708.992	43.31
709.176	43.11
709.359	43.36
709.543	43.55
709.727	43.55
709.91	43.64
710.094	44.05
710.277	44.73
710.461	43.95
710.644	44.14
710.828	43.9
711.011	44.23
711.195	44.27
711.378	44.44
711.562	44.89
711.745	44.96
711.928	45.13
712.112	44.46
712.295	44.19
712.478	44.28
712.662	44.46
712.845	44.42
713.028	43.82
713.212	43.56
713.395	43.29
713.578	42.75
713.761	42.61
713.945	42.34
714.128	43.27
714.311	43.39
714.494	43.74
714.677	43.21
714.86	43.59
715.043	43.5
715.227	43.31
715.41	43.08
715.593	43.49
715.776	43.92
715.959	44.44
716.142	44.37
716.325	44.14
716.508	44.45
716.691	45.08
716.874	44.73
717.057	45.34
717.239	45.51
717.422	45.73
717.605	45.63
717.788	45.46
717.971	45.24
718.154	44.91
718.337	45.1
718.519	44.17
718.702	43.68
718.885	43.62
719.068	43.42
719.25	44.62
719.433	44.87
719.616	44.31
719.798	43.82
719.981	44.55
720.164	44.78
720.346	44.89
720.529	44.44
720.712	44.37
720.894	44.57
721.077	44.3
721.259	43.94
721.442	43.26
721.624	43.98
721.807	45.01
721.989	44.7
722.172	45.29
722.354	44.4
722.537	45.81
722.719	46.57
722.901	46.7
723.084	47.04
723.266	47.2
723.448	47.19
723.631	47.97
723.813	47.29
723.995	46.7
724.178	45.64
724.36	46.35
724.542	45.52
724.724	45.35
724.907	45.86
725.089	46
725.271	45.59
725.453	45.33
725.635	43.64
725.817	44.76
725.999	44.93
726.181	45.6
726.364	45.46
726.546	46.26
726.728	47.11
726.91	46.71
727.092	45.84
727.274	45.62
727.456	45.65
727.638	45.94
727.819	45.62
728.001	45.61
728.183	44.67
728.365	44.69
728.547	45.23
728.729	44.7
728.911	44.93
729.093	45.44
729.274	45.73
729.456	46.29
729.638	46.59
729.82	46.49
730.001	45.99
730.183	46.89
730.365	47.22
730.546	46.72
730.728	46.1
730.91	45.55
731.091	44.89
731.273	44.87
731.455	45.08
731.636	44.99
731.818	44.75
731.999	44.88
732.181	44.54
732.362	44.86
732.544	44.7
732.725	45.01
732.907	45.66
733.088	46.5
733.27	46.36
733.451	45.96
733.633	45.69
733.814	45.16
733.995	45.26
734.177	45.01
734.358	45.34
734.539	45.19
734.721	45.16
734.902	44.58
735.083	44.09
735.264	44.3
735.446	44.45
735.627	45.3
735.808	45.35
735.989	46.03
736.17	47.06
736.351	45.95
736.533	46.78
736.714	46.95
736.895	47.08
737.076	47.55
737.257	46.86
737.438	46.97
737.619	45.68
737.8	45.74
737.981	45.01
738.162	44.21
738.343	44.75
738.524	44.6
738.705	45.2
738.886	45.21
739.067	44.8
739.247	45.02
739.428	44.42
739.609	44.32
739.79	44.94
739.971	45.65
740.151	45.46
740.332	45.14
740.513	44.84
740.694	44.09
740.874	43.78
741.055	45.04
741.236	45.23
741.417	45.73
741.597	45.95
741.778	44.99
741.958	44.31
742.139	44.12
742.32	43.98
742.5	44.24
742.681	44.21
742.861	44.6
743.042	43.71
743.222	44.14
743.403	43.95
743.583	44.35
743.764	45.23
743.944	45.58
744.124	45.5
744.305	46.48
744.485	45.7
744.666	45.98
744.846	46.1
745.026	46.18
745.207	45.96
745.387	45.9
745.567	47.34
745.747	46.76
745.928	47.06
746.108	47.48
746.288	46.66
746.468	46.87
746.648	46.69
746.829	46.5
747.009	45.93
747.189	45.61
747.369	46
747.549	44.31
747.729	45.14
747.909	45.7
748.089	45.41
748.269	45.58
748.449	46.66
748.629	45.96
748.809	45.86
748.989	45.79
749.169	46.24
749.349	46.19
749.529	47.33
749.709	47.16
749.889	46.15
750.068	47.18
750.248	47.41
750.428	46.58
750.608	47.77
750.788	47.48
750.967	48.45
751.147	48.14
751.327	47.72
751.507	46.61
751.686	46.41
751.866	46.63
752.046	46.7
752.225	47.58
752.405	47.43
752.585	46.27
752.764	47.19
752.944	46.81
753.123	46.31
753.303	47.3
753.482	48.02
753.662	47.52
753.841	47.62
754.021	47.46
754.2	45.98
754.38	45.86
754.559	46.4
754.739	45.39
754.918	45.63
755.097	45.95
755.277	45.13
755.456	44.19
755.635	44.94
755.815	44.67
755.994	43.76
756.173	43.29
756.352	43.64
756.532	43.78
756.711	45.52
756.89	45.42
757.069	46.12
757.248	46.5
757.427	47.73
757.607	47.09
757.786	47.51
757.965	48.44
758.144	49.39
758.323	48.86
758.502	48.22
758.681	47.69
758.86	47.05
759.039	47.25
759.218	47.2
759.397	46.88
759.576	47.79
759.755	46.72
759.934	45.51
760.113	45
760.291	45.47
760.47	45.79
760.649	45.85
760.828	45.99
761.007	45.4
761.186	45.87
761.364	45
761.543	44.84
761.722	45.51
761.901	45.64
762.079	45.44
762.258	44.59
762.437	44.81
762.615	44.67
762.794	44.53
762.972	45
763.151	44.57
763.33	44.52
763.508	44.03
763.687	44.01
763.865	44.41
764.044	44.86
764.222	45.54
764.401	45.54
764.579	44.86
764.758	45.32
764.936	45.25
765.114	45.5
765.293	46.34
765.471	46.77
765.65	46.68
765.828	47.26
766.006	47.1
766.184	47.02
766.363	47.24
766.541	47.47
766.719	47.58
766.898	47.42
767.076	47.34
767.254	47.11
767.432	47.1
767.61	47.12
767.788	46.09
767.967	46.31
768.145	46.23
768.323	45.41
768.501	45.59
768.679	44.94
768.857	45.43
769.035	45.07
769.213	45.82
769.391	46.64
769.569	46.71
769.747	47.62
769.925	47.38
770.103	46.11
770.281	46.81
770.459	46.83
770.636	47.14
770.814	46.59
770.992	46
771.17	45.43
771.348	43.78
771.525	42.92
771.703	42.8
771.881	43.11
772.059	45.71
772.236	44.79
772.414	46.14
772.592	46.42
772.769	45.24
772.947	47.12
773.125	47.24
773.302	48.62
773.48	49.81
773.657	50.54
773.835	50.91
774.013	50.6
774.19	50.69
774.368	50.56
774.545	49.93
774.723	50.41
774.9	50.23
775.077	50.68
775.255	49.62
775.432	49.56
775.61	48.37
775.787	46.29
775.964	45.23
776.142	46.65
776.319	46.86
776.496	46.56
776.674	46.95
776.851	47.45
777.028	47.32
777.205	48.42
777.382	49.04
777.56	49.75
777.737	51.46
777.914	50.78
778.091	50.85
778.268	49.78
778.445	51.48
778.622	52.58
778.8	54.38
778.977	53.17
779.154	61.33
779.331	60.97
779.508	60.79
779.685	60.39
779.862	61.77
780.038	60.47
780.215	61.78
780.392	58.71
780.569	57.66
780.746	53.63
780.923	54.21
781.1	45.51
781.277	45.93
781.453	45.29
781.63	46.21
781.807	47.02
781.984	49.67
782.16	49.32
782.337	52.81
782.514	54.23
782.691	55.49
782.867	55.38
783.044	54.01
783.221	53.89
783.397	54.61
783.574	54.57
783.75	54.81
783.927	52.78
784.103	51.53
784.28	49.42
784.456	47.69
784.633	47.39
784.809	48.85
784.986	50.27
785.162	50.51
785.339	50.09
785.515	51.28
785.692	51.09
785.868	49.2
786.044	48.53
786.221	49.88
786.397	49.58
786.573	49.98
786.749	47.99
786.926	46.59
787.102	46.79
787.278	47.26
787.454	46.58
787.631	46.62
787.807	49.68
787.983	50.09
788.159	50.65
788.335	52.46
788.511	53.18
788.687	53.75
788.863	54.39
789.039	54.6
789.216	53.98
789.392	53
789.568	52.49
789.744	53.2
789.919	55.71
790.095	54.96
790.271	53.46
790.447	52.41
790.623	52.83
790.799	52.52
790.975	51.44
791.151	51.69
791.327	50.98
791.502	49.37
791.678	47.05
791.854	45.77
792.03	45.27
792.205	44.27
792.381	44.21
792.557	43.27
792.733	43.31
792.908	44.48
793.084	44.14
793.259	43.19
793.435	45.28
793.611	46.2
793.786	45.74
793.962	45.16
794.137	46.69
794.313	46.69
794.488	47.63
794.664	49.25
794.839	47.76
795.015	48.85
795.19	50.49
795.366	49.78
795.541	49.06
795.716	47.83
795.892	48.35
796.067	48.18
796.242	47.7
796.418	47.54
796.593	45.62
796.768	46.46
796.944	46.83
797.119	47.23
797.294	47.33
797.469	48.77
797.644	50.79
797.82	51.8
797.995	51.29
798.17	52.33
798.345	52.33
798.52	52.83
798.695	51.41
798.87	51.54
799.045	50.68
799.22	50.24
799.395	49.81
799.57	50.14
799.745	49.64
799.92	48.84
800.095	48.76
800.27	47.7
800.445	49.14
800.62	49.2
800.795	48.83
800.97	49.45
801.145	50.03
801.319	47.88
801.494	46.82
801.669	45.39
801.844	48
802.018	46.78
802.193	46.35
802.368	45.78
802.543	46.9
802.717	45.18
802.892	47.16
803.067	46.92
803.241	48.32
803.416	48.12
803.59	50.87
803.765	50.08
803.94	51.52
804.114	54.1
804.289	52.52
804.463	52.78
804.638	52.65
804.812	48.77
804.986	48.92
805.161	48.64
805.335	50.29
805.51	48.99
805.684	47.51
805.858	46.67
806.033	45.07
806.207	44.75
806.381	44.28
806.556	46.76
806.73	48.8
806.904	49.03
807.078	50.96
807.253	50.89
807.427	50.23
807.601	51.8
807.775	51.73
807.949	51.67
808.123	53.93
808.298	55.28
808.472	54.5
808.646	53.76
808.82	55.49
808.994	55.18
809.168	54.25
809.342	54.21
809.516	53.53
809.69	53.67
809.864	57.1
810.038	55.87
810.212	55.2
810.385	56.09
810.559	56.37
810.733	52.56
810.907	52.26
811.081	51.81
811.255	52.59
811.428	53.41
811.602	54.59
811.776	52.11
811.95	51.68
812.123	50.36
812.297	47.63
812.471	48.05
812.644	50.33
812.818	51.36
812.992	51.84
813.165	53.27
813.339	50.43
813.512	49.39
813.686	46.92
813.86	47.49
814.033	49.14
814.207	50.93
814.38	51.11
814.554	50.02
814.727	49.76
814.9	49.85
815.074	50.5
815.247	51.57
815.421	49.4
815.594	49.2
815.767	49.05
815.941	47.59
816.114	48.89
816.287	47.55
816.46	48.81
816.634	46.2
816.807	44.95
816.98	45.83
817.153	45.72
817.327	46.69
817.5	49.72
817.673	51.73
817.846	51.82
818.019	50.22
818.192	53.31
818.365	49.78
818.538	50.13
818.711	51.28
818.884	48.99
819.057	49.18
819.23	49.87
819.403	49.54
819.576	49.44
819.749	49.8
819.922	50.46
820.095	49.94
820.268	50.77
820.441	50.31
820.614	49.34
820.786	47.43
820.959	47.46
821.132	47.59
821.305	46.03
821.477	44.87
821.65	44.52
821.823	43.62
821.996	43.44
822.168	43.26
822.341	43.36
822.514	43.22
822.686	43.55
822.859	43.38
823.031	43.27
823.204	44.36
823.376	44.56
823.549	44.79
823.722	45.21
823.894	44.85
824.067	45.34
824.239	45.43
824.411	45.62
824.584	45.65
824.756	45.76
824.929	45.45
825.101	45.14
825.273	44.96
825.446	45.08
825.618	45.28
825.79	45.61
825.963	45.48
826.135	45.34
826.307	45.16
826.479	46.04
826.652	46.06
826.824	46.11
826.996	45.93
827.168	46.63
827.34	45.89
827.512	45.7
827.684	46.49
827.856	46.69
828.029	47.17
828.201	47.05
828.373	46.35
828.545	46.6
828.717	47.97
828.889	47.2
829.061	47.41
829.232	48.43
829.404	49.79
829.576	49.57
829.748	49.32
829.92	49.08
830.092	51.54
830.264	52.04
830.436	52.07
830.607	50.95
830.779	51.98
830.951	51.76
831.123	51.19
831.294	49.38
831.466	50.05
831.638	49.82
831.809	51.4
831.981	50.08
832.153	49.04
832.324	50.77
832.496	52.82
832.667	54.09
832.839	53.68
833.011	53.63
833.182	50.95
833.354	49.41
833.525	50.74
833.697	49.75
833.868	48.54
834.039	48.84
834.211	47.5
834.382	45.66
834.554	44.84
834.725	44.78
834.896	45.2
835.068	45.4
835.239	44.38
835.41	44.2
835.581	44.86
835.753	45.26
835.924	45.12
836.095	44.88
836.266	45.62
836.438	44.61
836.609	44.21
836.78	44.37
836.951	44.34
837.122	43.26
837.293	44.24
837.464	41.7
837.635	42.53
837.806	44.07
837.977	45.72
838.148	45.32
838.319	46.63
838.49	47.26
838.661	48.98
838.832	51.41
839.003	55.84
839.174	57.11
839.345	62.93
839.516	61.36
839.687	61.42
839.857	59.96
840.028	60.88
840.199	61.36
840.37	59.98
840.54	56.81
840.711	55.77
840.882	55.95
841.053	53.39
841.223	48.83
841.394	48.42
841.564	47.29
841.735	50.44
841.906	53.87
842.076	55.36
842.247	58.08
842.417	61.76
842.588	63.72
842.758	61.46
842.929	60.31
843.099	61.18
843.27	63.31
843.44	67.78
843.611	64.91
843.781	61.2
843.951	59.13
844.122	57.46
844.292	54.69
844.462	50.58
844.633	50.93
844.803	50.51
844.973	49.02
845.144	51.78
845.314	47.11
845.484	49.68
845.654	50.78
845.824	53.92
845.995	47.89
846.165	53
846.335	67.8
846.505	69.55
846.675	69.75
846.845	69.98
847.015	61.08
847.185	59.66
847.355	58.44
847.525	61.97
847.695	58.4
847.865	67.76
848.035	54.88
848.205	40.16
848.375	37.6
848.545	40.58
848.715	42.9
848.884	48.52
849.054	54.17
849.224	56.42
849.394	55.45
849.564	57.8
849.733	61.07
849.903	67.61
850.073	69.64
850.243	75.54
850.412	74.59
850.582	82.45
850.752	78.49
850.921	77.69
851.091	73.24
851.26	66.13
851.43	61.52
851.599	60.24
851.769	62.65
851.939	69.13
852.108	64.47
852.278	64.05
852.447	61.62
852.616	60.29
852.786	63.56
852.955	66.43
853.125	68.69
853.294	79.73
853.463	72.66
853.633	68.59
853.802	67.04
853.971	71.4
854.141	80.95
854.31	79.72
854.479	86.37
854.648	75.22
854.818	73.63
854.987	71.13
855.156	70.61
855.325	85.68
855.494	85.69
855.663	78.06
855.832	72
856.001	62.99
856.171	63.5
856.34	63.89
856.509	63.12
856.678	64.28
856.847	73.19
857.016	68.68
857.185	65.9
857.353	62.47
857.522	56.66
857.691	60.96
857.86	59.03
858.029	58.93
858.198	57.52
858.367	56.79
858.535	54.75
858.704	52.36
858.873	49.26
859.042	45.64
859.21	47.21
859.379	55.25
859.548	50.9
859.717	49.16
859.885	45.1
860.054	50.6
860.222	53.04
860.391	65.06
860.56	65.91
860.728	65.76
860.897	67.41
861.065	58.95
861.234	57.1
861.402	59.9
861.571	66.26
861.739	67.81
861.908	67.94
862.076	67.03
862.244	60.15
862.413	63.36
862.581	66.94
862.749	71.42
862.918	79.48
863.086	89.33
863.254	79.63
863.423	73.14
863.591	82.58
863.759	79.07
863.927	85
864.096	83.73
864.264	81.16
864.432	73.04
864.6	75.57
864.768	69.79
864.936	59.81
865.104	66.24
865.272	78.94
865.44	71.84
865.608	66.38
865.776	57.59
865.944	57.28
866.112	59.3
866.28	67.07
866.448	63.4
866.616	77.54
866.784	74.14
866.952	75.44
867.12	57.96
867.288	59.31
867.455	72.34
867.623	72.39
867.791	71.83
867.959	70.89
868.127	68.16
868.294	77.93
868.462	77.97
868.63	83.03
868.797	85.18
868.965	106.87
869.133	101.33
869.3	93.03
869.468	96.73
869.636	99.21
869.803	92.38
869.971	91.27
870.138	75.32
870.306	80.53
870.473	71.77
870.641	74.62
870.808	65.22
870.975	71.74
871.143	78.16
871.31	73.58
871.478	77.67
871.645	86.98
871.812	88.6
871.98	93.69
872.147	73.61
872.314	80.92
872.482	67.9
872.649	64.32
872.816	59.22
872.983	56.77
873.15	56.45
873.318	50.08
873.485	46.35
873.652	46.69
873.819	45.64
873.986	46.02
874.153	52.33
874.32	52.69
874.487	53.92
874.654	54.03
874.821	35.13
874.988	39.03
875.155	50.04
875.322	44.14
875.489	35.23
875.656	32.46
875.823	41.48
875.99	44.31
876.157	53.38
876.324	61.61
876.49	64.2
876.657	74.46
876.824	89.25
876.991	78.48
877.157	87.15
877.324	90
877.491	85.74
877.658	90.87
877.824	93.61
877.991	93.11
878.157	87.27
878.324	87.84
878.491	82.74
878.657	66.02
878.824	75.33
878.99	76.75
879.157	67.77
879.323	73.1
879.49	61.25
879.656	54.09
879.823	50.08
879.989	43.51
880.156	46.97
880.322	57
880.488	54.76
880.655	50.84
880.821	45.26
880.987	52.16
881.154	48.69
881.32	52.7
881.486	49.21
881.652	46.09
881.819	48.78
881.985	46.08
882.151	48.18
882.317	49.18
882.483	48.55
882.649	50.01
882.816	48.72
882.982	48.6
883.148	47.73
883.314	49.54
883.48	49.07
883.646	48.1
883.812	49.81
883.978	48.01
884.144	47.8
884.31	48.85
884.476	47.6
884.642	47.34
884.807	46.87
884.973	47.58
885.139	46.01
885.305	45.5
885.471	46.85
885.637	44.86
885.802	44.62
885.968	44.31
886.134	43.34
886.3	44.95
886.465	45.38
886.631	45.22
886.797	46.87
886.962	48.97
887.128	52.66
887.293	51.14
887.459	56.11
887.625	58.95
887.79	63.15
887.956	61.75
888.121	62.18
888.287	64.24
888.452	68.67
888.618	62.93
888.783	62.83
