Data from LC_211__Reflection_4.txt Node
Date: Thu Nov 19 12:28:28 EST 2015
User: robert
Spectrometer: USB4E03001
Autoset integration time: false
Trigger mode: 4
Integration Time (sec): 1.000000E-1
Scans to average: 15
Electric dark correction enabled: true
Nonlinearity correction enabled: false
Boxcar width: 5
Stray light correction enabled: false
XAxis mode: Wavelengths
Stop averaging: false
Number of Pixels in Spectrum: 3648
>>>>>Begin Spectral Data<<<<<
177.566	779.26
177.785	-404.05
178.005	137.38
178.225	128.82
178.445	154.71
178.665	94.33
178.885	-10.19
179.105	-310.99
179.324	-60.5
179.544	-178.24
179.764	242.02
179.984	918.15
180.204	509.07
180.423	236.31
180.643	159.34
180.863	144.37
181.083	197.35
181.302	295.12
181.522	496.1
181.742	225.06
181.961	261.09
182.181	239.35
182.401	173
182.621	172.87
182.84	127.31
183.06	144.12
183.279	166.91
183.499	109.91
183.719	128.37
183.938	147.35
184.158	421.15
184.377	350.3
184.597	1119.52
184.816	-1327.45
185.036	-734.66
185.256	-484.26
185.475	-256.29
185.695	-189.48
185.914	-92.48
186.134	-98.02
186.353	-80.74
186.572	-320.04
186.792	-356.91
187.011	768.25
187.231	461.54
187.45	255.03
187.67	135.45
187.889	98.95
188.108	628.79
188.328	188.41
188.547	247.16
188.766	-698.12
188.986	34.91
189.205	34.6
189.424	1.26
189.644	-4.87
189.863	-187.12
190.082	-175.87
190.302	-171.62
190.521	-263.52
190.74	-286.77
190.959	-1713.21
191.178	-1729.95
191.398	-1302.81
191.617	-4292.88
191.836	-3661.54
192.055	-912.66
192.274	-469.65
192.494	-129.42
192.713	-227.74
192.932	-165.32
193.151	-286.9
193.37	-109.99
193.589	-263.51
193.808	946.9
194.027	-269.54
194.246	-84.41
194.465	307.58
194.685	-1057.69
194.904	149.56
195.123	773.99
195.342	330.53
195.561	263.74
195.78	1650.3
195.999	592.43
196.218	-897.44
196.436	26253.85
196.655	-1133.59
196.874	-71.98
197.093	-127.27
197.312	-76.56
197.531	-3.14
197.75	-375.19
197.969	-127.9
198.188	2660.77
198.407	594.36
198.625	259.18
198.844	180.36
199.063	190.01
199.282	137.2
199.501	135.35
199.719	158.34
199.938	160.14
200.157	188.99
200.376	171.16
200.594	125.92
200.813	144.43
201.032	155.28
201.251	189.71
201.469	87.44
201.688	128.67
201.907	142.15
202.125	83.88
202.344	133.22
202.563	101.65
202.781	110.33
203	154.92
203.218	152
203.437	227.53
203.656	493.85
203.874	2238.46
204.093	812.45
204.311	-962.74
204.53	-143.72
204.748	-68.48
204.967	-67.86
205.185	-88.91
205.404	-96.7
205.622	-82.68
205.841	-176.22
206.059	-448.58
206.278	-6754.44
206.496	-585.78
206.715	-3130.38
206.933	317.9
207.151	131.46
207.37	123.37
207.588	132.95
207.806	119.43
208.025	146.07
208.243	124.94
208.461	343.85
208.68	625.17
208.898	337.31
209.116	-15001.92
209.335	576.53
209.553	-267.59
209.771	-191.56
209.989	-815.76
210.208	-306.37
210.426	-501.55
210.644	495.2
210.862	415.5
211.081	848.72
211.299	454.45
211.517	370.69
211.735	8925.96
211.953	805.47
212.171	347.4
212.39	213.43
212.608	131.69
212.826	188.42
213.044	327.41
213.262	207.45
213.48	146.27
213.698	173.96
213.916	137.68
214.134	153.46
214.352	172.36
214.57	212.34
214.788	526.63
215.006	-4344.23
215.224	-343.26
215.442	-212.89
215.66	-79.18
215.878	-98.02
216.096	-142.98
216.314	-131.35
216.532	-62.94
216.75	-57.09
216.968	6.98
217.185	18.18
217.403	21.71
217.621	-0.47
217.839	-49.08
218.057	-61.14
218.275	-2.41
218.492	43.62
218.71	50.66
218.928	10.93
219.146	22.7
219.363	23.57
219.581	33.48
219.799	18.86
220.017	1
220.234	-15.3
220.452	-32.77
220.67	-201.42
220.887	-231.47
221.105	-143.69
221.323	-79.07
221.54	-94.9
221.758	-117.87
221.976	-126.71
222.193	-68.69
222.411	-34.2
222.629	-15.33
222.846	-13.65
223.064	-10.38
223.281	-17.07
223.499	-44.79
223.716	-22.97
223.934	-28.05
224.151	-85.34
224.369	-69.89
224.586	-33.59
224.804	-244.54
225.021	-181.31
225.239	-205.83
225.456	-305.46
225.674	-286.04
225.891	-103.92
226.108	-117.13
226.326	-67.05
226.543	-39.32
226.76	-69.73
226.978	-115.97
227.195	-64.59
227.413	-60.13
227.63	-43.91
227.847	-29.34
228.064	-23.81
228.282	-21.06
228.499	-17.32
228.716	-17.77
228.934	-14
229.151	-5.14
229.368	0.02
229.585	-1.22
229.802	-0.57
230.02	0.44
230.237	2.11
230.454	1.72
230.671	-1.13
230.888	-0.99
231.105	-5.68
231.323	-7.23
231.54	-6.88
231.757	-10.23
231.974	-8.56
232.191	-5.36
232.408	-6.07
232.625	-7.15
232.842	-1.04
233.059	6.17
233.276	12.77
233.493	14.7
233.71	17.32
233.927	6.76
234.144	10.28
234.361	10.44
234.578	4.49
234.795	-2.57
235.012	3.04
235.229	-1.87
235.446	-4.86
235.663	-11.93
235.879	-8.14
236.096	-12.44
236.313	-7.85
236.53	-15.67
236.747	-10.01
236.964	-5.28
237.181	1.43
237.397	-4.25
237.614	-1.47
237.831	-5.71
238.048	-4.83
238.264	-7.51
238.481	-1.17
238.698	1.05
238.915	9.95
239.131	0.52
239.348	1.84
239.565	2.03
239.781	2.23
239.998	5.38
240.215	8.35
240.431	11.26
240.648	12.35
240.865	13.42
241.081	12.5
241.298	11.68
241.514	14
241.731	13.51
241.947	13.34
242.164	12.54
242.38	10.86
242.597	8.12
242.814	7.4
243.03	6.72
243.246	5.11
243.463	4.23
243.679	4.84
243.896	4.18
244.112	5.87
244.329	2.38
244.545	3.67
244.762	3.72
244.978	7.56
245.194	7.94
245.411	6.71
245.627	6.93
245.843	9.39
246.06	8.5
246.276	7.3
246.492	5.73
246.709	7.78
246.925	7.11
247.141	7.04
247.357	7.47
247.574	8.04
247.79	8.85
248.006	8.69
248.222	7.38
248.439	6.62
248.655	7.28
248.871	8.15
249.087	7.59
249.303	7.31
249.519	7.48
249.736	5.82
249.952	4.81
250.168	3.37
250.384	2.49
250.6	5.04
250.816	5.91
251.032	3.81
251.248	1.59
251.464	3.41
251.68	4.84
251.896	5.4
252.112	7.4
252.328	6.73
252.544	7.35
252.76	8.53
252.976	6.91
253.192	5.36
253.408	8.05
253.624	8.76
253.84	6.38
254.056	7.6
254.272	5.52
254.487	1.65
254.703	2.07
254.919	-0.99
255.135	-1.23
255.351	0.19
255.567	3.53
255.782	0.98
255.998	-1.39
256.214	-0.64
256.43	-0.68
256.646	2.46
256.861	4.06
257.077	1.86
257.293	4.91
257.508	5.34
257.724	6.61
257.94	6.27
258.155	6.29
258.371	7.22
258.587	8.42
258.802	9.12
259.018	8.5
259.234	8.97
259.449	10.18
259.665	9.41
259.88	9.44
260.096	7.83
260.312	7.2
260.527	6.61
260.743	7.37
260.958	7.55
261.174	6.46
261.389	5.81
261.605	5.33
261.82	5.04
262.036	4.13
262.251	3.26
262.466	3.41
262.682	5.17
262.897	5.49
263.113	4.19
263.328	4.02
263.543	2.85
263.759	4.8
263.974	3.29
264.189	0.44
264.405	0.69
264.62	-0.3
264.835	-0.66
265.051	-5.32
265.266	-5.14
265.481	-5.05
265.696	-7.43
265.912	-5.63
266.127	-3.7
266.342	-1.66
266.557	0.13
266.773	2.48
266.988	3.81
267.203	5.22
267.418	6.83
267.633	7.91
267.848	7.5
268.064	7.89
268.279	7.76
268.494	4.75
268.709	6.43
268.924	7.15
269.139	6.11
269.354	5.43
269.569	4.69
269.784	4.26
269.999	4.02
270.214	4.61
270.429	6.4
270.644	6.96
270.859	7.58
271.074	6.7
271.289	5.82
271.504	6.66
271.719	6.58
271.934	6.37
272.149	6.86
272.363	7.47
272.578	7.21
272.793	6.44
273.008	7.14
273.223	7.86
273.438	7.61
273.653	7.55
273.867	7.61
274.082	8.34
274.297	10.27
274.512	10.55
274.726	10.86
274.941	11.8
275.156	11.52
275.371	11.49
275.585	10.51
275.8	9.55
276.015	9.23
276.229	9.71
276.444	8.87
276.659	6.2
276.873	4.82
277.088	2.45
277.302	3.06
277.517	2.76
277.732	1.86
277.946	0.41
278.161	-0.05
278.375	1.12
278.59	1.81
278.804	2.73
279.019	4.05
279.233	5.98
279.448	6.78
279.662	6.03
279.877	7.26
280.091	7.21
280.306	9.72
280.52	10.94
280.735	10.77
280.949	10.43
281.163	9.01
281.378	7.6
281.592	6.93
281.806	7.08
282.021	6.51
282.235	5.59
282.449	5.88
282.664	4.84
282.878	5.44
283.092	6.08
283.307	6
283.521	6.35
283.735	7.27
283.949	7.28
284.164	7.56
284.378	7.1
284.592	8.85
284.806	10.57
285.02	9.69
285.234	8.98
285.449	8.24
285.663	7.36
285.877	7.34
286.091	7.56
286.305	7.3
286.519	7.88
286.733	7.97
286.947	7.57
287.161	5.69
287.375	6.81
287.589	6.17
287.803	6.11
288.017	6.51
288.231	6.07
288.445	5.54
288.659	5.49
288.873	4.5
289.087	6.36
289.301	6.1
289.515	6.33
289.729	6.58
289.943	6.87
290.157	7.54
290.371	7.7
290.584	8.76
290.798	9.85
291.012	11.06
291.226	10.65
291.44	9.18
291.654	8.65
291.867	8.01
292.081	7.67
292.295	6.96
292.509	6.8
292.722	6.01
292.936	6.62
293.15	7.44
293.364	4.63
293.577	4.3
293.791	5.13
294.005	4.74
294.218	6.59
294.432	7.65
294.645	9.66
294.859	8.13
295.073	7.82
295.286	7.51
295.5	5.72
295.713	7.49
295.927	7.6
296.14	7.23
296.354	7.99
296.568	7.18
296.781	6.21
296.994	5.66
297.208	6.36
297.421	6.53
297.635	7.05
297.848	7.84
298.062	8.16
298.275	8.64
298.489	8.96
298.702	8.12
298.915	7.57
299.129	8.18
299.342	8.47
299.555	9.15
299.769	10.23
299.982	10.14
300.195	9.3
300.409	8.01
300.622	9.1
300.835	7.92
301.048	9.17
301.262	10.16
301.475	10.34
301.688	9.04
301.901	9.02
302.115	8.64
302.328	7.84
302.541	8.74
302.754	9.68
302.967	8.32
303.18	9.84
303.393	8.78
303.607	7.96
303.82	8.34
304.033	8.6
304.246	9.32
304.459	9.09
304.672	10.2
304.885	9.31
305.098	9.11
305.311	8.93
305.524	8.24
305.737	9.56
305.95	9.91
306.163	7.66
306.376	8.21
306.589	5.69
306.802	4.55
307.015	2.68
307.228	3.96
307.44	3.59
307.653	4.32
307.866	4.43
308.079	3.83
308.292	4.27
308.505	5.94
308.718	5.52
308.93	6.55
309.143	7.68
309.356	7.58
309.569	7.25
309.781	7.83
309.994	8.43
310.207	8.63
310.42	8.55
310.632	8.85
310.845	9.25
311.058	9.05
311.27	9.72
311.483	9.62
311.696	9.94
311.908	10.32
312.121	10.07
312.333	9.86
312.546	8.91
312.759	9.27
312.971	9.2
313.184	8.74
313.396	9.28
313.609	8.73
313.821	8.68
314.034	9.07
314.246	8.76
314.459	8.79
314.671	8.34
314.884	8.13
315.096	7.67
315.309	6.39
315.521	6.01
315.733	6.48
315.946	6.49
316.158	7.17
316.371	7.34
316.583	7.08
316.795	6.75
317.008	7.15
317.22	7.82
317.432	7.11
317.644	6.28
317.857	7.68
318.069	8.17
318.281	7.75
318.494	7.02
318.706	6.83
318.918	7.09
319.13	8.11
319.342	8.16
319.555	9.06
319.767	9.25
319.979	9.95
320.191	9.88
320.403	10.22
320.615	9.4
320.827	8.91
321.039	9
321.252	8.24
321.464	7.28
321.676	6.18
321.888	4.58
322.1	4.14
322.312	4.93
322.524	4.36
322.736	3.68
322.948	4.24
323.16	4.32
323.372	4.52
323.584	4.31
323.796	2.52
324.007	3.5
324.219	4.24
324.431	4.8
324.643	4.44
324.855	3.83
325.067	3.4
325.279	3.19
325.491	3.81
325.702	3.1
325.914	3.28
326.126	6.13
326.338	5.21
326.55	6.47
326.761	7.17
326.973	8.13
327.185	8.28
327.396	8.51
327.608	9.24
327.82	9.57
328.032	10.63
328.243	11.54
328.455	10.44
328.666	11.55
328.878	10.32
329.09	9.79
329.301	10.05
329.513	10.02
329.725	9.73
329.936	8.95
330.148	9.26
330.359	8.04
330.571	8.16
330.782	8.06
330.994	7.65
331.205	8.05
331.417	8
331.628	7.58
331.84	8.84
332.051	9.82
332.262	10.65
332.474	9.36
332.685	10.66
332.897	9.92
333.108	10.89
333.319	11.64
333.531	10.8
333.742	11.4
333.953	10.86
334.165	10.27
334.376	10.12
334.587	10.08
334.799	11.37
335.01	10.92
335.221	12.06
335.432	11.35
335.644	10.77
335.855	10.89
336.066	10.9
336.277	10.69
336.488	10.54
336.7	10.01
336.911	10.3
337.122	9.62
337.333	9.37
337.544	8.42
337.755	9
337.966	8.3
338.177	8.79
338.388	8.07
338.599	8.68
338.811	9.22
339.022	9.27
339.233	9.34
339.444	9.48
339.655	9.28
339.866	9.78
340.076	8.87
340.287	9.33
340.498	8.3
340.709	9.03
340.92	9.42
341.131	8.79
341.342	9.34
341.553	8.9
341.764	9.37
341.975	9.3
342.185	9.33
342.396	9.55
342.607	9.52
342.818	10.89
343.029	10.18
343.239	9.47
343.45	9.91
343.661	8.86
343.872	8.65
344.082	7.71
344.293	8.4
344.504	10
344.714	10.43
344.925	10.88
345.136	10.4
345.346	10.83
345.557	10.9
345.768	10.93
345.978	11.24
346.189	11.06
346.399	10.74
346.61	10.78
346.821	9.34
347.031	9.14
347.242	8.1
347.452	8.43
347.663	7.71
347.873	7.75
348.084	7.5
348.294	7.7
348.504	8.6
348.715	10.11
348.925	9.56
349.136	8.66
349.346	8.39
349.557	8.85
349.767	8.63
349.977	9.78
350.188	10.01
350.398	9.56
350.608	9.43
350.819	8.5
351.029	6.74
351.239	6.15
351.449	7.21
351.66	6.96
351.87	6.99
352.08	6.88
352.29	6.34
352.501	6.18
352.711	6.15
352.921	5.94
353.131	6.21
353.341	7.5
353.552	7.56
353.762	6.88
353.972	7.2
354.182	7.18
354.392	7.06
354.602	7.37
354.812	6.77
355.022	7.13
355.232	8.1
355.442	8.82
355.652	8.43
355.862	8.87
356.072	8.46
356.282	8.65
356.492	8.14
356.702	7.83
356.912	7.94
357.122	8.16
357.332	8.19
357.542	6.77
357.752	5.99
357.962	5.79
358.171	5.89
358.381	6.08
358.591	5.86
358.801	6.88
359.011	6.91
359.221	6.64
359.43	7.08
359.64	6.9
359.85	8.53
360.06	9.4
360.269	9.84
360.479	9.87
360.689	10.17
360.899	9.61
361.108	9.71
361.318	9.9
361.528	9.43
361.737	8.83
361.947	8.93
362.156	8.07
362.366	7.17
362.576	7.28
362.785	6.92
362.995	7.06
363.204	7.57
363.414	6.93
363.623	6.86
363.833	7.06
364.042	7.63
364.252	7.57
364.461	7.95
364.671	8.25
364.88	7.57
365.09	7.55
365.299	7.12
365.509	6.68
365.718	6.6
365.927	7.6
366.137	7.27
366.346	6.3
366.555	5.59
366.765	5.39
366.974	5.15
367.183	5.7
367.393	5.81
367.602	5.6
367.811	5.74
368.021	5.82
368.23	4.32
368.439	4.16
368.648	4.63
368.857	5.29
369.067	5.38
369.276	5.66
369.485	5.28
369.694	5.41
369.903	5.79
370.112	6.08
370.321	6.11
370.531	6.9
370.74	7.71
370.949	7.73
371.158	7.61
371.367	7.92
371.576	7.99
371.785	7.44
371.994	7.44
372.203	7.54
372.412	7.63
372.621	7.97
372.83	8.07
373.039	7.66
373.248	7.95
373.457	8.52
373.666	7.81
373.874	7.34
374.083	8.25
374.292	8.4
374.501	8.1
374.71	7.79
374.919	7.66
375.128	7.19
375.336	7.35
375.545	7.38
375.754	6.83
375.963	7.05
376.171	7.56
376.38	7.28
376.589	6.9
376.798	6.67
377.006	7.04
377.215	6.74
377.424	6.78
377.632	6.66
377.841	6.29
378.05	6.37
378.258	6.27
378.467	6.24
378.675	6.26
378.884	6.32
379.093	6.82
379.301	6.64
379.51	6.39
379.718	6.67
379.927	6.32
380.135	6.36
380.344	6.57
380.552	6.67
380.761	6.51
380.969	7
381.177	7.13
381.386	7.22
381.594	6.97
381.803	7.37
382.011	6.95
382.219	7.27
382.428	7.44
382.636	7.02
382.845	6.95
383.053	6.89
383.261	6.58
383.469	6.42
383.678	6.01
383.886	6.02
384.094	5.57
384.302	5.36
384.511	5.25
384.719	5.06
384.927	5.05
385.135	4.95
385.343	5.39
385.552	4.87
385.76	5.01
385.968	5.02
386.176	5.29
386.384	5.49
386.592	5.83
386.8	6.05
387.008	6.31
387.216	6.43
387.424	6.93
387.633	6.67
387.841	6.92
388.049	7.11
388.257	7.25
388.465	7.11
388.672	7.42
388.88	7.3
389.088	7.06
389.296	6.81
389.504	6.81
389.712	6.34
389.92	6.43
390.128	6.36
390.336	6.09
390.544	5.77
390.751	5.47
390.959	5.26
391.167	5.59
391.375	5.63
391.583	5.87
391.79	6.04
391.998	6.1
392.206	5.93
392.414	5.93
392.621	6.2
392.829	6.36
393.037	7.03
393.244	6.87
393.452	6.95
393.66	6.76
393.867	6.61
394.075	6.5
394.283	6.59
394.49	6.44
394.698	6.8
394.905	6.23
395.113	6.04
395.32	5.42
395.528	5.31
395.735	4.96
395.943	5.28
396.15	5.02
396.358	4.83
396.565	4.66
396.773	4.89
396.98	4.7
397.188	4.94
397.395	5.14
397.602	5.31
397.81	5.56
398.017	5.79
398.225	5.93
398.432	6.49
398.639	6.29
398.847	6.51
399.054	6.13
399.261	6.01
399.468	5.92
399.676	5.86
399.883	5.74
400.09	5.82
400.297	5.82
400.505	5.47
400.712	5.4
400.919	5.32
401.126	5.07
401.333	5.53
401.54	5.61
401.748	5.89
401.955	5.77
402.162	6.04
402.369	6.07
402.576	5.82
402.783	6.08
402.99	5.6
403.197	5.94
403.404	6.02
403.611	5.92
403.818	5.95
404.025	5.73
404.232	5.85
404.439	5.67
404.646	5.74
404.853	5.76
405.06	5.45
405.267	5.86
405.474	5.72
405.681	5.66
405.887	5.4
406.094	5.53
406.301	5.64
406.508	5.58
406.715	5.76
406.922	5.69
407.128	5.62
407.335	5.61
407.542	5.43
407.749	5.66
407.955	5.93
408.162	6.18
408.369	5.88
408.575	6.01
408.782	5.93
408.989	5.56
409.195	5.32
409.402	5.18
409.609	5.34
409.815	5.24
410.022	5.16
410.228	4.87
410.435	4.6
410.642	4.69
410.848	4.62
411.055	4.28
411.261	4.41
411.468	4.7
411.674	4.96
411.881	5.28
412.087	5.43
412.294	5.42
412.5	5.68
412.706	5.61
412.913	5.26
413.119	5.26
413.326	5.72
413.532	5.8
413.738	5.72
413.945	5.41
414.151	5.12
414.357	4.99
414.564	4.89
414.77	4.63
414.976	4.81
415.182	5.09
415.389	5.16
415.595	5.15
415.801	5.3
416.007	5.33
416.214	5.54
416.42	5.48
416.626	5.6
416.832	5.72
417.038	5.77
417.244	6.08
417.45	6.05
417.657	5.96
417.863	6.01
418.069	6
418.275	5.97
418.481	5.97
418.687	6.06
418.893	5.93
419.099	5.86
419.305	6.01
419.511	5.65
419.717	5.6
419.923	5.57
420.129	5.5
420.335	5.33
420.541	5.26
420.746	5.32
420.952	5.2
421.158	5.21
421.364	5.12
421.57	4.93
421.776	5
421.982	5.08
422.187	5.13
422.393	5.2
422.599	5.15
422.805	5.12
423.01	5
423.216	5.03
423.422	5.06
423.628	5.19
423.833	5.2
424.039	5.32
424.245	5.28
424.45	5.21
424.656	5.2
424.862	5.33
425.067	5.22
425.273	5.17
425.478	5.2
425.684	5.3
425.889	5.28
426.095	5.28
426.301	5.27
426.506	5.24
426.712	5.3
426.917	5.18
427.123	5.14
427.328	5.32
427.533	5.4
427.739	5.54
427.944	5.38
428.15	5.3
428.355	5.32
428.561	5.24
428.766	5.21
428.971	5.22
429.177	5.29
429.382	5.22
429.587	5.16
429.793	5.18
429.998	4.98
430.203	4.86
430.408	4.7
430.614	4.64
430.819	4.5
431.024	4.75
431.229	4.77
431.434	4.82
431.64	4.74
431.845	4.96
432.05	5.05
432.255	5
432.46	5.21
432.665	5.42
432.87	5.66
433.076	5.76
433.281	5.54
433.486	5.66
433.691	5.62
433.896	5.64
434.101	5.52
434.306	5.56
434.511	5.42
434.716	5.21
434.921	5.12
435.126	4.95
435.331	4.98
435.535	4.82
435.74	4.7
435.945	4.73
436.15	4.88
436.355	5.04
436.56	4.82
436.765	5.09
436.97	5.35
437.174	5.48
437.379	5.5
437.584	5.58
437.789	5.73
437.993	5.85
438.198	5.76
438.403	5.77
438.608	5.69
438.812	5.65
439.017	5.68
439.222	5.59
439.426	5.43
439.631	5.34
439.836	5.26
440.04	5.37
440.245	5.16
440.45	5.23
440.654	5.25
440.859	5.08
441.063	5.14
441.268	5.09
441.472	5.07
441.677	5.17
441.881	5.19
442.086	5.18
442.29	5.17
442.495	5.25
442.699	5.18
442.904	5.15
443.108	5.24
443.312	5.2
443.517	5.14
443.721	5.02
443.925	4.95
444.13	5.04
444.334	5.15
444.538	5.06
444.743	4.9
444.947	4.83
445.151	4.7
445.356	4.79
445.56	4.89
445.764	4.95
445.968	5.02
446.173	5.05
446.377	4.99
446.581	4.85
446.785	4.85
446.989	4.95
447.193	5.02
447.398	5.07
447.602	5.02
447.806	5.06
448.01	5.04
448.214	5.05
448.418	5.06
448.622	5.05
448.826	5.07
449.03	5.03
449.234	5.07
449.438	5.01
449.642	4.91
449.846	5.02
450.05	5.01
450.254	4.92
450.458	4.87
450.662	4.82
450.866	4.88
451.069	5.15
451.273	5.12
451.477	5
451.681	5.13
451.885	5.21
452.089	5.23
452.292	5.15
452.496	5.3
452.7	5.43
452.904	5.37
453.107	5.33
453.311	5.17
453.515	5.13
453.719	5.21
453.922	5.1
454.126	5.1
454.33	4.99
454.533	4.81
454.737	4.57
454.94	4.5
455.144	4.57
455.348	4.64
455.551	4.54
455.755	4.65
455.958	4.62
456.162	4.66
456.365	4.53
456.569	4.63
456.772	4.89
456.976	4.99
457.179	5.08
457.383	5.19
457.586	5.13
457.79	5.2
457.993	5.19
458.196	5.07
458.4	5.01
458.603	5.21
458.807	5.04
459.01	5.04
459.213	5.07
459.417	5
459.62	4.77
459.823	4.81
460.026	4.8
460.23	4.75
460.433	4.84
460.636	4.82
460.839	4.65
461.042	4.69
461.246	4.52
461.449	4.44
461.652	4.41
461.855	4.51
462.058	4.41
462.261	4.3
462.464	4.36
462.668	4.26
462.871	4.2
463.074	4.38
463.277	4.36
463.48	4.42
463.683	4.55
463.886	4.6
464.089	4.61
464.292	4.45
464.495	4.44
464.698	4.31
464.901	4.52
465.104	4.6
465.306	4.44
465.509	4.43
465.712	4.68
465.915	4.53
466.118	4.39
466.321	4.44
466.524	4.51
466.726	4.52
466.929	4.51
467.132	4.42
467.335	4.45
467.538	4.48
467.74	4.53
467.943	4.42
468.146	4.44
468.348	4.43
468.551	4.38
468.754	4.46
468.956	4.47
469.159	4.5
469.362	4.5
469.564	4.42
469.767	4.44
469.969	4.52
470.172	4.37
470.375	4.38
470.577	4.3
470.78	4.37
470.982	4.56
471.185	4.55
471.387	4.64
471.59	4.63
471.792	4.67
471.995	4.76
472.197	4.77
472.399	4.66
472.602	4.75
472.804	4.79
473.007	4.84
473.209	4.68
473.411	4.73
473.614	4.7
473.816	4.71
474.018	4.71
474.22	4.56
474.423	4.49
474.625	4.58
474.827	4.61
475.03	4.66
475.232	4.6
475.434	4.54
475.636	4.53
475.838	4.59
476.04	4.6
476.243	4.69
476.445	4.79
476.647	4.87
476.849	4.86
477.051	4.88
477.253	4.88
477.455	4.88
477.657	4.92
477.859	5.02
478.061	4.83
478.263	4.76
478.465	4.8
478.667	4.85
478.869	4.78
479.071	4.89
479.273	4.98
479.475	4.86
479.677	4.88
479.879	4.91
480.081	4.81
480.283	4.98
480.485	5.01
480.686	5
480.888	4.86
481.09	4.69
481.292	4.73
481.494	4.7
481.695	4.79
481.897	4.72
482.099	4.75
482.301	4.91
482.502	4.89
482.704	4.94
482.906	4.9
483.107	4.96
483.309	5
483.511	4.98
483.712	4.94
483.914	4.99
484.115	5.05
484.317	5.05
484.519	4.98
484.72	4.95
484.922	4.94
485.123	4.96
485.325	4.95
485.526	4.98
485.728	4.99
485.929	4.99
486.131	4.97
486.332	4.95
486.534	4.94
486.735	5
486.936	5.11
487.138	5.1
487.339	5.11
487.541	5.22
487.742	5.18
487.943	5.19
488.144	5.22
488.346	5.2
488.547	5.19
488.748	5.22
488.95	5.14
489.151	5.07
489.352	5.01
489.553	5
489.755	4.82
489.956	4.88
490.157	4.81
490.358	4.73
490.559	4.69
490.76	4.72
490.961	4.67
491.163	4.68
491.364	4.74
491.565	4.84
491.766	4.92
491.967	4.94
492.168	4.95
492.369	4.94
492.57	4.9
492.771	5
492.972	4.94
493.173	5.03
493.374	5.16
493.575	5.16
493.776	5.13
493.976	5.05
494.177	4.99
494.378	4.92
494.579	4.95
494.78	5.05
494.981	4.94
495.182	5.05
495.382	4.91
495.583	4.8
495.784	4.69
495.985	4.73
496.185	4.7
496.386	4.87
496.587	4.9
496.788	4.93
496.988	5.05
497.189	5.21
497.39	5.24
497.59	5.3
497.791	5.35
497.992	5.45
498.192	5.4
498.393	5.49
498.593	5.43
498.794	5.42
498.994	5.42
499.195	5.33
499.395	5.24
499.596	5.09
499.796	5.1
499.997	5.06
500.197	5.11
500.398	5.06
500.598	5.1
500.799	5.2
500.999	5.18
501.199	5.36
501.4	5.61
501.6	5.42
501.801	5.51
502.001	5.7
502.201	5.83
502.402	5.73
502.602	5.78
502.802	5.75
503.002	5.76
503.203	5.85
503.403	5.73
503.603	5.59
503.803	5.89
504.003	5.97
504.204	5.7
504.404	5.86
504.604	5.9
504.804	6.01
505.004	6.07
505.204	6.03
505.404	5.99
505.604	6.11
505.804	6.17
506.005	6.15
506.205	6.27
506.405	6.42
506.605	6.12
506.805	6.16
507.005	6.13
507.204	5.97
507.404	5.98
507.604	6.03
507.804	5.95
508.004	6.02
508.204	6.05
508.404	5.78
508.604	5.77
508.804	5.92
509.003	5.95
509.203	5.96
509.403	6.14
509.603	6.32
509.803	6.34
510.002	6.29
510.202	6.22
510.402	6.28
510.602	6.5
510.801	6.59
511.001	6.64
511.201	6.77
511.4	6.82
511.6	6.64
511.8	6.52
511.999	6.62
512.199	6.63
512.398	6.71
512.598	6.64
512.797	6.65
512.997	6.58
513.197	6.64
513.396	6.65
513.596	6.73
513.795	6.83
513.994	6.77
514.194	6.72
514.393	6.67
514.593	6.69
514.792	6.69
514.992	6.7
515.191	6.81
515.39	6.79
515.59	6.71
515.789	6.68
515.988	6.78
516.188	6.91
516.387	6.99
516.586	7.12
516.786	7.18
516.985	7.3
517.184	7.34
517.383	7.33
517.582	7.46
517.782	7.44
517.981	7.5
518.18	7.57
518.379	7.66
518.578	7.72
518.777	7.89
518.976	7.96
519.176	7.84
519.375	7.76
519.574	7.78
519.773	7.71
519.972	7.75
520.171	7.78
520.37	7.83
520.569	7.81
520.768	7.73
520.967	7.67
521.166	7.64
521.365	7.74
521.564	7.92
521.762	8.02
521.961	8.01
522.16	8
522.359	7.98
522.558	7.96
522.757	8.01
522.956	8
523.154	8.03
523.353	8.07
523.552	8.18
523.751	8.23
523.949	8.32
524.148	8.38
524.347	8.53
524.546	8.64
524.744	8.71
524.943	8.69
525.142	8.65
525.34	8.73
525.539	8.72
525.737	8.69
525.936	8.69
526.135	8.7
526.333	8.74
526.532	8.8
526.73	8.81
526.929	8.78
527.127	8.77
527.326	8.89
527.524	8.93
527.723	9.06
527.921	9.15
528.12	9.15
528.318	9.13
528.516	9.21
528.715	9.2
528.913	9.16
529.112	9.2
529.31	9.27
529.508	9.36
529.707	9.33
529.905	9.28
530.103	9.24
530.301	9.32
530.5	9.37
530.698	9.37
530.896	9.46
531.094	9.45
531.293	9.45
531.491	9.59
531.689	9.6
531.887	9.7
532.085	9.73
532.283	9.83
532.481	9.79
532.68	9.81
532.878	9.79
533.076	9.8
533.274	9.98
533.472	10.02
533.67	9.99
533.868	10.01
534.066	10.06
534.264	10.07
534.462	10.07
534.66	10.13
534.858	10.11
535.056	10.18
535.253	10.17
535.451	10.25
535.649	10.33
535.847	10.33
536.045	10.25
536.243	10.21
536.441	10.26
536.638	10.38
536.836	10.34
537.034	10.51
537.232	10.57
537.43	10.55
537.627	10.53
537.825	10.54
538.023	10.61
538.22	10.66
538.418	10.82
538.616	10.78
538.813	10.76
539.011	11.01
539.209	10.91
539.406	10.88
539.604	11.03
539.801	11.1
539.999	11.15
540.196	11.22
540.394	11.33
540.591	11.38
540.789	11.59
540.986	11.76
541.184	11.75
541.381	11.91
541.579	12.05
541.776	12.01
541.974	12.01
542.171	12.06
542.368	12.04
542.566	12.12
542.763	12.2
542.96	12.17
543.158	12.15
543.355	12.13
543.552	12.12
543.75	12.12
543.947	12.26
544.144	12.35
544.341	12.44
544.539	12.59
544.736	12.65
544.933	12.75
545.13	12.77
545.327	12.83
545.524	12.95
545.722	13
545.919	13.11
546.116	13.22
546.313	13.34
546.51	13.4
546.707	13.5
546.904	13.57
547.101	13.6
547.298	13.86
547.495	13.87
547.692	13.88
547.889	13.98
548.086	13.82
548.283	13.91
548.48	13.84
548.677	13.87
548.874	13.84
549.07	13.85
549.267	13.87
549.464	13.84
549.661	13.97
549.858	14
550.055	14.01
550.251	14.29
550.448	14.11
550.645	14.23
550.842	14.47
551.038	14.66
551.235	14.83
551.432	14.83
551.628	14.75
551.825	14.85
552.022	15.02
552.218	15.21
552.415	15.33
552.612	15.54
552.808	15.65
553.005	15.49
553.201	15.42
553.398	15.6
553.594	15.75
553.791	15.75
553.987	15.75
554.184	15.89
554.38	15.76
554.577	15.74
554.773	15.95
554.97	15.93
555.166	16.16
555.362	16.34
555.559	16.27
555.755	16.33
555.952	16.66
556.148	16.76
556.344	16.68
556.541	17.02
556.737	17.04
556.933	16.92
557.129	17.15
557.326	17.3
557.522	17.42
557.718	17.52
557.914	17.55
558.11	17.48
558.307	17.55
558.503	17.87
558.699	17.72
558.895	18.01
559.091	18.19
559.287	18.21
559.483	18.19
559.679	18.29
559.876	18.39
560.072	18.56
560.268	18.76
560.464	18.91
560.66	19.05
560.856	19.33
561.052	19.34
561.247	19.37
561.443	19.49
561.639	19.56
561.835	19.4
562.031	19.51
562.227	19.5
562.423	19.64
562.619	19.69
562.815	19.65
563.01	19.7
563.206	19.8
563.402	19.94
563.598	20.17
563.793	20.33
563.989	20.52
564.185	20.59
564.381	20.6
564.576	20.73
564.772	20.91
564.968	20.97
565.163	21.09
565.359	20.99
565.555	21.06
565.75	21.21
565.946	21.36
566.141	21.37
566.337	21.55
566.532	21.56
566.728	21.54
566.923	21.52
567.119	21.67
567.314	21.75
567.51	22
567.705	22.08
567.901	21.8
568.096	21.87
568.292	22.19
568.487	22.05
568.682	22.41
568.878	22.63
569.073	22.85
569.268	22.7
569.464	22.74
569.659	22.84
569.854	22.89
570.05	23.13
570.245	23.2
570.44	23.15
570.635	23.2
570.831	23.19
571.026	23.24
571.221	23.32
571.416	23.5
571.611	23.44
571.806	23.43
572.002	23.52
572.197	23.56
572.392	23.66
572.587	23.88
572.782	24.05
572.977	23.94
573.172	23.78
573.367	23.81
573.562	24.05
573.757	24.22
573.952	24.49
574.147	24.67
574.342	24.77
574.537	24.75
574.732	24.7
574.927	24.82
575.121	25.15
575.316	25.45
575.511	25.38
575.706	25.45
575.901	25.42
576.096	25.27
576.29	25.31
576.485	25.33
576.68	25.36
576.875	25.49
577.069	25.53
577.264	25.65
577.459	25.59
577.654	25.76
577.848	25.63
578.043	25.78
578.238	25.88
578.432	25.85
578.627	25.79
578.821	26.04
579.016	26.09
579.21	26.3
579.405	26.22
579.6	26.51
579.794	26.49
579.989	26.86
580.183	26.89
580.378	27.12
580.572	27.1
580.766	27.5
580.961	27.43
581.155	27.37
581.35	27.32
581.544	27.44
581.738	27.05
581.933	27.21
582.127	27.05
582.321	27.11
582.516	26.94
582.71	26.86
582.904	26.93
583.099	26.84
583.293	26.91
583.487	26.81
583.681	26.97
583.875	27.32
584.07	27.12
584.264	27.11
584.458	27.23
584.652	27.49
584.846	27.97
585.04	27.91
585.234	28.09
585.428	28.1
585.623	28.08
585.817	27.87
586.011	27.91
586.205	28.35
586.399	28.52
586.593	28.66
586.787	28.59
586.981	28.7
587.174	28.78
587.368	28.84
587.562	28.91
587.756	29
587.95	29.09
588.144	28.81
588.338	28.75
588.532	28.88
588.725	28.88
588.919	28.91
589.113	28.64
589.307	28.76
589.501	28.78
589.694	28.76
589.888	28.83
590.082	28.94
590.275	29.23
590.469	29.33
590.663	29.3
590.856	29.25
591.05	29.43
591.244	29.43
591.437	29.52
591.631	29.4
591.824	29.41
592.018	29.4
592.212	29.5
592.405	29.49
592.599	29.48
592.792	29.55
592.986	29.9
593.179	30.13
593.372	30.33
593.566	30.25
593.759	30.67
593.953	30.87
594.146	30.8
594.339	30.78
594.533	30.91
594.726	31.04
594.92	31.28
595.113	31.29
595.306	31.18
595.499	31.28
595.693	31.46
595.886	31.38
596.079	31.49
596.272	31.77
596.466	31.84
596.659	31.88
596.852	31.92
597.045	31.73
597.238	31.67
597.431	31.62
597.624	31.83
597.818	31.76
598.011	31.91
598.204	31.91
598.397	31.69
598.59	31.66
598.783	31.7
598.976	31.6
599.169	31.71
599.362	31.75
599.555	31.93
599.748	31.72
599.941	31.67
600.134	31.75
600.326	31.89
600.519	32.24
600.712	32.2
600.905	32.22
601.098	32.14
601.291	31.92
601.483	31.79
601.676	31.79
601.869	31.78
602.062	32
602.255	31.8
602.447	31.66
602.64	31.66
602.833	31.99
603.025	32.23
603.218	32.49
603.411	32.56
603.603	32.68
603.796	32.81
603.989	32.89
604.181	33.1
604.374	33.27
604.566	33.51
604.759	33.57
604.951	33.41
605.144	33.33
605.336	33.4
605.529	33.44
605.721	33.48
605.914	33.43
606.106	33.33
606.299	33.11
606.491	33
606.683	32.77
606.876	32.7
607.068	32.75
607.26	32.84
607.453	32.78
607.645	33.01
607.837	32.91
608.03	32.87
608.222	33
608.414	32.99
608.606	32.96
608.799	33.08
608.991	33.11
609.183	32.96
609.375	32.99
609.567	32.69
609.759	32.77
609.952	32.98
610.144	33.11
610.336	33.02
610.528	32.99
610.72	33.08
610.912	33.13
611.104	33.35
611.296	33.55
611.488	33.6
611.68	34.1
611.872	34.1
612.064	33.88
612.256	33.79
612.448	33.92
612.64	33.9
612.832	33.83
613.023	33.76
613.215	33.45
613.407	33.53
613.599	33.41
613.791	33.33
613.983	33.15
614.174	33.26
614.366	33.45
614.558	33.65
614.75	33.81
614.941	34.12
615.133	34.34
615.325	34.65
615.516	34.3
615.708	34.44
615.9	34.51
616.091	34.67
616.283	34.82
616.475	34.65
616.666	34.59
616.858	34.69
617.049	34.63
617.241	34.63
617.432	34.71
617.624	35
617.815	35.04
618.007	34.9
618.198	34.75
618.39	34.86
618.581	34.61
618.773	34.65
618.964	34.73
619.155	34.65
619.347	34.43
619.538	34.41
619.729	34.64
619.921	34.45
620.112	34.52
620.303	34.44
620.494	34.43
620.686	34.97
620.877	35.13
621.068	34.93
621.259	35.19
621.451	35.31
621.642	35.21
621.833	35.08
622.024	35.17
622.215	35.17
622.406	35.41
622.597	35.55
622.788	35.14
622.98	35
623.171	35.19
623.362	35.15
623.553	35.3
623.744	35.45
623.935	35.41
624.126	35.36
624.317	35.35
624.508	35.62
624.698	35.49
624.889	35.62
625.08	35.78
625.271	35.76
625.462	35.64
625.653	35.46
625.844	35.29
626.034	35.41
626.225	35.49
626.416	35.67
626.607	35.51
626.798	35.4
626.988	35.56
627.179	35.6
627.37	35.56
627.56	35.64
627.751	35.86
627.942	36.02
628.132	35.7
628.323	35.85
628.514	35.61
628.704	35.5
628.895	35.57
629.085	35.33
629.276	35.24
629.466	35.28
629.657	35.16
629.847	35.05
630.038	35.02
630.228	35.33
630.419	35.24
630.609	35.26
630.8	35.52
630.99	35.69
631.181	35.87
631.371	35.8
631.561	35.38
631.752	35.51
631.942	35.61
632.132	35.41
632.323	35.45
632.513	35.46
632.703	35.54
632.893	35.55
633.084	35.6
633.274	35.76
633.464	35.67
633.654	36.26
633.844	36.15
634.034	36.35
634.225	36.65
634.415	36.74
634.605	36.63
634.795	36.75
634.985	36.55
635.175	36.38
635.365	36.27
635.555	36.48
635.745	36.43
635.935	36.73
636.125	36.64
636.315	36.55
636.505	36.54
636.695	36.68
636.885	36.64
637.075	37.06
637.265	37.45
637.455	37.43
637.644	37.61
637.834	37.53
638.024	37.51
638.214	37.46
638.404	37.63
638.593	37.7
638.783	37.54
638.973	37.39
639.163	36.97
639.352	36.51
639.542	36.78
639.732	36.76
639.921	36.79
640.111	36.77
640.301	36.68
640.49	36.38
640.68	36.41
640.87	36.66
641.059	37.05
641.249	37.18
641.438	37.68
641.628	37.46
641.817	37.35
642.007	37.63
642.196	37.8
642.386	37.82
642.575	38.12
642.764	38.13
642.954	38.19
643.143	37.89
643.333	38.19
643.522	37.7
643.711	37.87
643.901	37.95
644.09	37.65
644.279	37.45
644.469	37.75
644.658	38
644.847	37.53
645.036	37.54
645.226	37.85
645.415	37.82
645.604	38.02
645.793	38.06
645.982	37.89
646.171	37.86
646.361	37.72
646.55	37.73
646.739	37.27
646.928	37.98
647.117	37.73
647.306	37.77
647.495	37.54
647.684	37.5
647.873	37.48
648.062	37.81
648.251	38
648.44	37.94
648.629	37.89
648.818	38.13
649.007	37.54
649.196	37.8
649.384	37.74
649.573	37.9
649.762	38.15
649.951	38.04
650.14	37.88
650.328	37.95
650.517	38.15
650.706	38.06
650.895	38.08
651.083	38.57
651.272	38.64
651.461	38.68
651.65	38.73
651.838	38.75
652.027	39.08
652.216	38.99
652.404	38.79
652.593	38.95
652.781	39.07
652.97	39.16
653.158	38.86
653.347	39.09
653.535	38.83
653.724	38.82
653.912	38.58
654.101	38.41
654.289	38.36
654.478	38.11
654.666	37.76
654.855	37.58
655.043	37.45
655.231	37.47
655.42	37.34
655.608	37.39
655.796	37.35
655.985	37.64
656.173	37.25
656.361	37.63
656.55	38.44
656.738	38.83
656.926	38.85
657.114	39.16
657.302	39.21
657.491	39.34
657.679	39.46
657.867	39.54
658.055	39.49
658.243	40.07
658.431	39.87
658.619	39.87
658.807	39.7
658.996	39.75
659.184	39.59
659.372	39.64
659.56	39.57
659.748	39.88
659.936	40.13
660.124	40.18
660.311	40.15
660.499	40.09
660.687	39.88
660.875	40.07
661.063	39.99
661.251	39.74
661.439	39.85
661.627	40.16
661.814	39.97
662.002	39.82
662.19	39.79
662.378	39.78
662.565	39.65
662.753	39.74
662.941	39.46
663.129	39.48
663.316	39.78
663.504	39.6
663.692	39.01
663.879	38.58
664.067	38.48
664.254	38.48
664.442	38.26
664.63	38.47
664.817	38.37
665.005	38.31
665.192	38.73
665.38	38.58
665.567	38.59
665.755	38.79
665.942	39.46
666.13	39.05
666.317	39.08
666.504	38.79
666.692	39.17
666.879	39.17
667.067	39.55
667.254	39.29
667.441	38.82
667.629	38.68
667.816	38.57
668.003	38.5
668.19	38.7
668.378	38.89
668.565	39.12
668.752	39.06
668.939	39.09
669.127	38.96
669.314	39.02
669.501	39.4
669.688	39.63
669.875	39.89
670.062	39.75
670.249	39.99
670.436	39.66
670.623	39.73
670.81	39.72
670.997	39.68
671.184	39.81
671.371	39.86
671.558	40.3
671.745	40.63
671.932	40.1
672.119	40.69
672.306	40.81
672.493	40.85
672.68	40.92
672.867	40.66
673.054	40.95
673.24	40.76
673.427	41.02
673.614	40.57
673.801	40.42
673.988	41.45
674.174	40.42
674.361	40.06
674.548	40.17
674.734	39.55
674.921	39.46
675.108	39.44
675.294	39.72
675.481	39.33
675.668	39.73
675.854	39.84
676.041	39.24
676.227	39.35
676.414	39.46
676.601	39.26
676.787	39.88
676.974	39.76
677.16	39.76
677.347	39.37
677.533	39.5
677.719	39.31
677.906	39.29
678.092	39.21
678.279	39.7
678.465	39.49
678.651	40.1
678.838	40.15
679.024	40.76
679.21	40.87
679.397	41.16
679.583	41.2
679.769	41.36
679.955	41.32
680.142	41.2
680.328	41.28
680.514	41.71
680.7	41.59
680.886	41.68
681.073	41.53
681.259	41.48
681.445	41.25
681.631	41.27
681.817	41.06
682.003	41.19
682.189	41.47
682.375	41.31
682.561	41.23
682.747	41.41
682.933	41.25
683.119	40.9
683.305	40.85
683.491	40.97
683.677	41.49
683.863	41.87
684.049	42.07
684.235	42.03
684.42	42.21
684.606	41.89
684.792	41.58
684.978	41.96
685.164	42.36
685.349	42.25
685.535	42.69
685.721	41.83
685.907	41.7
686.092	41.38
686.278	41.67
686.464	41.6
686.649	42.09
686.835	41.99
687.021	41.92
687.206	41.8
687.392	42.13
687.577	42.01
687.763	42.54
687.948	42.81
688.134	42.49
688.319	42.44
688.505	42.44
688.69	42.11
688.876	41.8
689.061	41.75
689.247	42.09
689.432	42.16
689.618	42.22
689.803	41.74
689.988	41.48
690.174	41.94
690.359	41.43
690.544	41.66
690.73	41.95
690.915	42.03
691.1	41.59
691.285	41.36
691.471	40.62
691.656	40.3
691.841	40.77
692.026	41.37
692.211	41.41
692.396	41.59
692.582	41.57
692.767	41.27
692.952	41.47
693.137	41.6
693.322	41.77
693.507	42.18
693.692	42.52
693.877	42.34
694.062	41.66
694.247	41.47
694.432	41.62
694.617	41.86
694.802	41.94
694.987	42.49
695.172	42.78
695.357	42.36
695.541	42.52
695.726	42.51
695.911	42.58
696.096	42.66
696.281	42.77
696.466	42.98
696.65	42.45
696.835	42.61
697.02	42.21
697.204	42.28
697.389	42.58
697.574	42.4
697.759	42.14
697.943	42.06
698.128	42.12
698.312	42.04
698.497	42
698.682	42.23
698.866	41.85
699.051	41.81
699.235	41.97
699.42	42.1
699.604	42.3
699.789	42.52
699.973	42.58
700.158	42.28
700.342	42.14
700.527	42.14
700.711	42.23
700.895	42.83
701.08	43.05
701.264	42.56
701.448	42.6
701.633	42.07
701.817	41.84
702.001	41.78
702.186	42.01
702.37	42.13
702.554	42.29
702.738	41.63
702.923	41.28
703.107	41.29
703.291	41.85
703.475	41.32
703.659	41.44
703.843	41.94
704.027	41.66
704.212	41.78
704.396	41.91
704.58	41.72
704.764	42.4
704.948	42.03
705.132	42.05
705.316	42.37
705.5	43.08
705.684	43.38
705.868	43.19
706.052	43.16
706.235	42.97
706.419	42.49
706.603	42.5
706.787	41.62
706.971	41.81
707.155	41.89
707.339	41.73
707.522	40.58
707.706	40.57
707.89	40
708.074	40.34
708.257	40.7
708.441	41.58
708.625	41.72
708.808	42.22
708.992	42.33
709.176	41.88
709.359	41.55
709.543	42.15
709.727	41.95
709.91	42.31
710.094	42.6
710.277	42.88
710.461	42.39
710.644	42.68
710.828	42.65
711.011	42.77
711.195	43.09
711.378	43.35
711.562	43.55
711.745	44.01
711.928	43.78
712.112	43.65
712.295	43.31
712.478	43.45
712.662	42.92
712.845	43.22
713.028	43.63
713.212	43.59
713.395	43.28
713.578	43.47
713.761	43.1
713.945	43.25
714.128	43.07
714.311	43.17
714.494	43.09
714.677	43.25
714.86	43.07
715.043	42.28
715.227	42.54
715.41	41.78
715.593	41.62
715.776	42.23
715.959	42.05
716.142	42.87
716.325	42.59
716.508	42.93
716.691	43.06
716.874	42.64
717.057	43.26
717.239	43.06
717.422	43.54
717.605	43.39
717.788	42.51
717.971	42.5
718.154	41.88
718.337	41.86
718.519	41.76
718.702	41.13
718.885	41.06
719.068	41.31
719.25	40.9
719.433	41.6
719.616	41.64
719.798	41.59
719.981	42.52
720.164	42.17
720.346	42.31
720.529	41.9
720.712	42.34
720.894	42.18
721.077	41.37
721.259	42.66
721.442	42.29
721.624	42.07
721.807	42.66
721.989	41.63
722.172	42.29
722.354	42.3
722.537	42.23
722.719	42.14
722.901	42.37
723.084	42.35
723.266	41.16
723.448	41.14
723.631	41.35
723.813	41.32
723.995	41.06
724.178	40.22
724.36	40.02
724.542	40.17
724.724	41.37
724.907	41.31
725.089	41.37
725.271	42.34
725.453	41.8
725.635	42.17
725.817	42.74
725.999	43.39
726.181	43.1
726.364	43.22
726.546	43.38
726.728	43.09
726.91	43.67
727.092	44.09
727.274	42.94
727.456	43.86
727.638	44.09
727.819	43.42
728.001	42.98
728.183	43.44
728.365	43.07
728.547	43.47
728.729	43.01
728.911	43.12
729.093	42.88
729.274	42.98
729.456	42.57
729.638	42.25
729.82	42.56
730.001	42.3
730.183	42.6
730.365	43.44
730.546	43.64
730.728	43.69
730.91	43.71
731.091	43.13
731.273	43.19
731.455	42.96
731.636	42.26
731.818	41.9
731.999	42.87
732.181	43.04
732.362	42.4
732.544	42.35
732.725	42.46
732.907	42.89
733.088	43.38
733.27	43.86
733.451	43.78
733.633	45.29
733.814	45.55
733.995	45.69
734.177	45.47
734.358	45.64
734.539	45.42
734.721	44.69
734.902	43.28
735.083	43.68
735.264	43.57
735.446	44.61
735.627	43.79
735.808	43.66
735.989	43.63
736.17	43.29
736.351	43.16
736.533	42.68
736.714	43.43
736.895	44.83
737.076	44.74
737.257	44.18
737.438	43.56
737.619	42.88
737.8	43.73
737.981	42.62
738.162	43.24
738.343	43.13
738.524	43.58
738.705	43.31
738.886	43.34
739.067	43.91
739.247	44.36
739.428	43.68
739.609	43.88
739.79	43.2
739.971	43.9
740.151	43.58
740.332	44.17
740.513	44.07
740.694	44.04
740.874	43.69
741.055	43.22
741.236	43.47
741.417	44.33
741.597	43.38
741.778	43.07
741.958	42.74
742.139	42.52
742.32	42.55
742.5	41.83
742.681	41.3
742.861	41.49
743.042	40.78
743.222	39.91
743.403	40.41
743.583	41.37
743.764	41.24
743.944	41.47
744.124	41.81
744.305	41.57
744.485	41.75
744.666	41.58
744.846	41.52
745.026	41.17
745.207	40.85
745.387	39.28
745.567	39.38
745.747	39.87
745.928	39.71
746.108	39.51
746.288	40.08
746.468	40.42
746.648	41.44
746.829	40.65
747.009	41.02
747.189	41.35
747.369	42.62
747.549	42.62
747.729	41.66
747.909	41.13
748.089	40.41
748.269	38.96
748.449	38.48
748.629	38.22
748.809	38.76
748.989	38.49
749.169	38.74
749.349	38.13
749.529	38.14
749.709	38.72
749.889	39.08
750.068	39.14
750.248	39.93
750.428	41.24
750.608	41.06
750.788	40.62
750.967	41.57
751.147	41.18
751.327	41.91
751.507	42.35
751.686	42.61
751.866	43.25
752.046	44.49
752.225	43.59
752.405	43.05
752.585	42.54
752.764	43.06
752.944	42.14
753.123	43.16
753.303	42.93
753.482	43.07
753.662	42.74
753.841	42.59
754.021	42.35
754.2	43.73
754.38	42.03
754.559	42.67
754.739	43.07
754.918	44.14
755.097	44.34
755.277	43.41
755.456	42.92
755.635	42.79
755.815	42.42
755.994	41.04
756.173	39.78
756.352	41.03
756.532	40.73
756.711	40.23
756.89	39.7
757.069	39.56
757.248	40.23
757.427	40.05
757.607	39.96
757.786	40.17
757.965	41.05
758.144	42.31
758.323	42.01
758.502	42.42
758.681	42.26
758.86	41.56
759.039	41.62
759.218	40.75
759.397	41.01
759.576	41.55
759.755	42.36
759.934	41.97
760.113	41.77
760.291	42.43
760.47	43.57
760.649	42.8
760.828	43.15
761.007	42.95
761.186	45.08
761.364	45.17
761.543	45.26
761.722	44.42
761.901	44.63
762.079	43.77
762.258	43.87
762.437	42.52
762.615	43.33
762.794	43.29
762.972	42.75
763.151	41.69
763.33	40.96
763.508	41.04
763.687	40.98
763.865	41.08
764.044	42.13
764.222	41.74
764.401	41.48
764.579	41.65
764.758	41.53
764.936	41.63
765.114	41.89
765.293	42.39
765.471	42.05
765.65	42.1
765.828	41.85
766.006	41.28
766.184	40.85
766.363	42
766.541	41.53
766.719	42.44
766.898	42.18
767.076	42.53
767.254	42.23
767.432	42.42
767.61	42.76
767.788	43.18
767.967	43.11
768.145	43.18
768.323	42.25
768.501	43.62
768.679	43.11
768.857	43.42
769.035	43.66
769.213	44.69
769.391	44.11
769.569	44.74
769.747	45.29
769.925	45.6
770.103	47.09
770.281	45.95
770.459	44.76
770.636	44.35
770.814	44.83
770.992	42.84
771.17	42
771.348	41.96
771.525	41.16
771.703	41.3
771.881	41.21
772.059	39.83
772.236	40.09
772.414	39.71
772.592	40.36
772.769	39.8
772.947	40.81
773.125	42
773.302	42.62
773.48	40.44
773.657	40.02
773.835	38.43
774.013	38.48
774.19	40.03
774.368	40.51
774.545	40.07
774.723	40.16
774.9	40.67
775.077	40.18
775.255	40.25
775.432	42.64
775.61	41.81
775.787	43.38
775.964	43.87
776.142	43.4
776.319	42.87
776.496	42.28
776.674	42.02
776.851	41.52
777.028	40.62
777.205	39.92
777.382	39.45
777.56	39.95
777.737	40.44
777.914	39.45
778.091	38.87
778.268	38.36
778.445	38.52
778.622	39.59
778.8	40.17
778.977	40.3
779.154	42.02
779.331	42.19
779.508	43.4
779.685	42.58
779.862	44.26
780.038	44.61
780.215	46.37
780.392	47.15
780.569	46.44
780.746	45.46
780.923	46.46
781.1	46.63
781.277	46
781.453	45.35
781.63	45.62
781.807	44.59
781.984	45.09
782.16	44.17
782.337	45.3
782.514	45.93
782.691	46.36
782.867	44.62
783.044	43.7
783.221	44.48
783.397	43.1
783.574	41.12
783.75	40.9
783.927	40.69
784.103	40.81
784.28	38.73
784.456	38.18
784.633	38.29
784.809	38.44
784.986	36.1
785.162	35.82
785.339	35.44
785.515	37.01
785.692	37.8
785.868	38.07
786.044	37.99
786.221	37.33
786.397	36.78
786.573	35.15
786.749	37.53
786.926	40.07
787.102	39.98
787.278	42.57
787.454	43.87
787.631	44.01
787.807	42.76
787.983	42.37
788.159	41.27
788.335	41.31
788.511	42.24
788.687	41.88
788.863	41.4
789.039	42.69
789.216	39.66
789.392	38.16
789.568	37.51
789.744	36.14
789.919	37.06
790.095	40.2
790.271	39.36
790.447	37.75
790.623	36.52
790.799	37.62
790.975	35.7
791.151	36.37
791.327	36.11
791.502	38.47
791.678	40.68
791.854	40.1
792.03	39.8
792.205	42.05
792.381	43.01
792.557	42.77
792.733	41.66
792.908	42.34
793.084	43.63
793.259	44.92
793.435	43.1
793.611	43.85
793.786	45.03
793.962	42.15
794.137	40.6
794.313	39.77
794.488	41.32
794.664	41.53
794.839	42.58
795.015	41.15
795.19	40.84
795.366	40.94
795.541	39.4
795.716	36.83
795.892	37.93
796.067	37.38
796.242	37.81
796.418	36.38
796.593	37.58
796.768	38
796.944	37.89
797.119	40.03
797.294	39.8
797.469	42.19
797.644	44.39
797.82	45.03
797.995	46.98
798.17	48.14
798.345	50.6
798.52	48.91
798.695	45.84
798.87	45.97
799.045	44.21
799.22	43.93
799.395	42.96
799.57	41.74
799.745	42.26
799.92	40.8
800.095	41.14
800.27	38.66
800.445	36.17
800.62	37.68
800.795	38.6
800.97	38.01
801.145	38.27
801.319	37.62
801.494	37.24
801.669	37.28
801.844	39.08
802.018	38.33
802.193	37.78
802.368	38.77
802.543	40.04
802.717	39.23
802.892	39.97
803.067	38.2
803.241	37.42
803.416	37.93
803.59	37.07
803.765	36.23
803.94	36.53
804.114	37.22
804.289	40.33
804.463	40.58
804.638	40.39
804.812	41.02
804.986	41.75
805.161	44.05
805.335	43.43
805.51	44.21
805.684	45.74
805.858	44.29
806.033	44.26
806.207	43.34
806.381	42.18
806.556	44.7
806.73	42.14
806.904	42.78
807.078	42.8
807.253	41.83
807.427	40.21
807.601	36.7
807.775	38.37
807.949	38.66
808.123	37.26
808.298	38.61
808.472	36.49
808.646	38.13
808.82	39.5
808.994	38.9
809.168	40.58
809.342	39.58
809.516	41.9
809.69	40.9
809.864	40.39
810.038	41.06
810.212	40.7
810.385	39.83
810.559	38.77
810.733	37.16
810.907	36.96
811.081	35.78
811.255	39.43
811.428	38.53
811.602	37.21
811.776	36.08
811.95	33.43
812.123	32.57
812.297	31.6
812.471	31.29
812.644	32.52
812.818	31.52
812.992	32.75
813.165	31
813.339	28.8
813.512	28.49
813.686	30.5
813.86	33.39
814.033	33.86
814.207	34.38
814.38	35.71
814.554	35.99
814.727	34.06
814.9	33.39
815.074	33.43
815.247	32.95
815.421	32.62
815.594	33.45
815.767	34.7
815.941	31.3
816.114	32.55
816.287	31.48
816.46	29.07
816.634	29.16
816.807	28.86
816.98	29.56
817.153	29.14
817.327	32.76
817.5	30.79
817.673	29.01
817.846	31.58
818.019	31.16
818.192	30.44
818.365	32.61
818.538	36.74
818.711	36.5
818.884	35.18
819.057	37.26
819.23	35.61
819.403	33.75
819.576	36.61
819.749	37.13
819.922	38.26
820.095	40.82
820.268	40.38
820.441	38.61
820.614	40.06
820.786	40.72
820.959	41.63
821.132	40.91
821.305	43.96
821.477	43.35
821.65	43.92
821.823	43.65
821.996	43.23
822.168	43.95
822.341	44.53
822.514	44.84
822.686	44.89
822.859	44.91
823.031	45.56
823.204	45.59
823.376	45.63
823.549	45.46
823.722	45.48
823.894	45.73
824.067	45.13
824.239	45.12
824.411	44.81
824.584	45.14
824.756	45.21
824.929	45.1
825.101	44.79
825.273	44.46
825.446	44.36
825.618	44.04
825.79	44.35
825.963	44.05
826.135	43.87
826.307	43.84
826.479	43.52
826.652	42.59
826.824	42.08
826.996	41.98
827.168	42.93
827.34	42.56
827.512	43.17
827.684	41.92
827.856	42.98
828.029	42.99
828.201	42.58
828.373	41.71
828.545	42.71
828.717	42.91
828.889	42.59
829.061	41.12
829.232	41.41
829.404	40.25
829.576	40.28
829.748	38.84
829.92	38.78
830.092	39.51
830.264	40.54
830.436	39.65
830.607	39.13
830.779	38.56
830.951	40.5
831.123	41.12
831.294	41.27
831.466	41.57
831.638	42.5
831.809	40.73
831.981	42.64
832.153	42.1
832.324	42
832.496	43.75
832.667	46.04
832.839	43.87
833.011	41.55
833.182	43.01
833.354	42.46
833.525	43.72
833.697	42.65
833.868	38.7
834.039	38.88
834.211	39.22
834.382	36.99
834.554	35.65
834.725	36.09
834.896	36.84
835.068	35.43
835.239	37.71
835.41	36.25
835.581	37.94
835.753	37.78
835.924	36.82
836.095	36.12
836.266	38.32
836.438	38.77
836.609	39.36
836.78	37.64
836.951	39.55
837.122	34.89
837.293	33.47
837.464	34.41
837.635	36.51
837.806	36.98
837.977	36.09
838.148	35.41
838.319	35.5
838.49	33.8
838.661	35.42
838.832	36.04
839.003	39.39
839.174	41.49
839.345	37.78
839.516	36.02
839.687	33.7
839.857	35.49
840.028	35.18
840.199	31.61
840.37	31.51
840.54	32.82
840.711	28.76
840.882	29.64
841.053	28.71
841.223	29.3
841.394	29.36
841.564	32.44
841.735	32.75
841.906	34.64
842.076	37.91
842.247	35.11
842.417	30.53
842.588	33.61
842.758	34.59
842.929	34.32
843.099	32.77
843.27	35.48
843.44	32.88
843.611	31.51
843.781	23.29
843.951	22.8
844.122	22.2
844.292	27.51
844.462	26.57
844.633	21
844.803	28.39
844.973	27.27
845.144	27.26
845.314	28.17
845.484	25.47
845.654	32.63
845.824	27.24
845.995	29.5
846.165	23.8
846.335	21.47
846.505	27.73
846.675	21.41
846.845	26.54
847.015	26.1
847.185	31.77
847.355	31.33
847.525	30.73
847.695	37.79
847.865	37.9
848.035	43.76
848.205	37.72
848.375	28.2
848.545	29.7
848.715	28.73
848.884	25.44
849.054	24.85
849.224	30.71
849.394	30.5
849.564	19.41
849.733	20.53
849.903	16.07
850.073	13.56
850.243	17.93
850.412	15.24
850.582	2.29
850.752	6.22
850.921	-8.61
851.091	-5.5
851.26	-6.41
851.43	-2.09
851.599	1.05
851.769	7.35
851.939	13.3
852.108	11.65
852.278	14.04
852.447	24.9
852.616	19.3
852.786	19.29
852.955	8.62
853.125	7.77
853.294	10.55
853.463	-0.27
853.633	3.36
853.802	6.83
853.971	-0.35
854.141	-5.61
854.31	-24.15
854.479	-22.35
854.648	-0.96
854.818	18.21
854.987	19.77
855.156	16.92
855.325	23.43
855.494	9.38
855.663	11.62
855.832	11.07
856.001	17.31
856.171	15.05
856.34	13.07
856.509	6.71
856.678	0.04
856.847	-7.1
857.016	-5.74
857.185	-7.12
857.353	-1.4
857.522	-1.48
857.691	7.95
857.86	7.37
858.029	11.73
858.198	16.5
858.367	15.56
858.535	17.95
858.704	22.35
858.873	23.19
859.042	25.27
859.21	27.17
859.379	26.46
859.548	19.25
859.717	9.3
859.885	7.95
860.054	2.12
860.222	8.26
860.391	0.75
860.56	-1.51
860.728	9.18
860.897	14.74
861.065	8.1
861.234	5.13
861.402	8.27
861.571	20.59
861.739	25.25
861.908	27.81
862.076	16.69
862.244	18.26
862.413	25.08
862.581	15.76
862.749	1.74
862.918	16.48
863.086	16.9
863.254	13.06
863.423	-2.63
863.591	3.29
863.759	4.06
863.927	6.54
864.096	6.76
864.264	6.94
864.432	11.95
864.6	13.53
864.768	4.32
864.936	1.44
865.104	13.63
865.272	19.1
865.44	12.48
865.608	12.99
865.776	11.13
865.944	10.39
866.112	1.2
866.28	-5.09
866.448	-0.49
866.616	-3.28
866.784	3.73
866.952	-3.47
867.12	0.77
867.288	4.04
867.455	-2.67
867.623	2.52
867.791	4.64
867.959	8.06
868.127	5.76
868.294	6.87
868.462	9.51
868.63	5.14
868.797	8.41
868.965	9.28
869.133	4.31
869.3	11.03
869.468	12.31
869.636	9.58
869.803	8.04
869.971	14.04
870.138	10.02
870.306	9.71
870.473	22.17
870.641	22.64
870.808	13.29
870.975	20.98
871.143	26.49
871.31	24.66
871.478	27.05
871.645	29.55
871.812	32.35
871.98	36.94
872.147	40.78
872.314	33.02
872.482	30.6
872.649	38.01
872.816	34.37
872.983	23.91
873.15	17.56
873.318	21.59
873.485	22.68
873.652	13.92
873.819	18.21
873.986	17.92
874.153	7.99
874.32	18.85
874.487	9.78
874.654	9.59
874.821	3.81
874.988	8.11
875.155	12
875.322	8.92
875.489	17.56
875.656	3.4
875.823	1.3
875.99	4.23
876.157	-3.51
876.324	-0.05
876.49	3.92
876.657	5.84
876.824	5.59
876.991	-4.83
877.157	-2.84
877.324	-18.24
877.491	-5.97
877.658	-17.7
877.824	-2.42
877.991	-10.67
878.157	-4.59
878.324	-6.81
878.491	-3.85
878.657	-1.28
878.824	10.83
878.99	21.99
879.157	28.42
879.323	33.48
879.49	37.69
879.656	30.51
879.823	34.56
879.989	32.58
880.156	38.79
880.322	44.03
880.488	43
880.655	35.65
880.821	26.94
880.987	27.37
881.154	28.65
881.32	34.81
881.486	37.04
881.652	42.98
881.819	41.92
881.985	40.1
882.151	40.02
882.317	42.7
882.483	45.39
882.649	47.42
882.816	45.95
882.982	44.71
883.148	43.44
883.314	43.37
883.48	43.84
883.646	44
883.812	45.6
883.978	45.96
884.144	45.27
884.31	44.12
884.476	44.5
884.642	44.64
884.807	42.24
884.973	42.45
885.139	40.89
885.305	38.6
885.471	39.01
885.637	36.88
885.802	34.28
885.968	32.76
886.134	34.72
886.3	32.79
886.465	30.22
886.631	33.16
886.797	31.19
886.962	29.2
887.128	29.62
887.293	27.51
887.459	24.69
887.625	23.44
887.79	23.35
887.956	14.28
888.121	10.46
888.287	12.5
888.452	7.61
888.618	-0.23
888.783	4.83
