Data from LC_219__Reflection_2.txt Node
Date: Thu Nov 19 13:31:30 EST 2015
User: robert
Spectrometer: USB4E03001
Autoset integration time: false
Trigger mode: 4
Integration Time (sec): 1.000000E-1
Scans to average: 15
Electric dark correction enabled: true
Nonlinearity correction enabled: false
Boxcar width: 5
Stray light correction enabled: false
XAxis mode: Wavelengths
Stop averaging: false
Number of Pixels in Spectrum: 3648
>>>>>Begin Spectral Data<<<<<
177.566	340.8
177.785	524.4
178.005	342.18
178.225	216.76
178.445	293.42
178.665	-7100
178.885	111.67
179.105	438.23
179.324	-84.04
179.544	-589.57
179.764	-231.3
179.984	-288
180.204	-87.32
180.423	54.05
180.643	225.52
180.863	106.36
181.083	-28.19
181.302	-63.58
181.522	-68.37
181.742	-972.01
181.961	1689.38
182.181	1080.34
182.401	223.45
182.621	306.2
182.84	551.62
183.06	1249.52
183.279	1021.18
183.499	440.6
183.719	408.74
183.938	227.76
184.158	456.29
184.377	479.76
184.597	354.78
184.816	2957.07
185.036	13459.78
185.256	854.44
185.475	375.12
185.695	371.22
185.914	252.26
186.134	209.17
186.353	218.97
186.572	187.74
186.792	225.44
187.011	1887.43
187.231	335.87
187.45	335.85
187.67	674.14
187.889	12813.64
188.108	375.5
188.328	-1920.55
188.547	-208.51
188.766	-124.33
188.986	-126.27
189.205	-268.64
189.424	446.19
189.644	681.84
189.863	484.32
190.082	576.66
190.302	2586.09
190.521	-229.73
190.74	-853.33
190.959	-8061.27
191.178	11750
191.398	-4755.44
191.617	804.82
191.836	2778.01
192.055	-736.55
192.274	-224.53
192.494	-459.43
192.713	-225.65
192.932	-143.78
193.151	-147.34
193.37	-288.04
193.589	-206.74
193.808	-180.35
194.027	-278.03
194.246	-536.7
194.465	-486.29
194.685	32810
194.904	538.3
195.123	345.85
195.342	195.78
195.561	159.17
195.78	187.69
195.999	264.98
196.218	392.87
196.436	593.44
196.655	438.27
196.874	354.65
197.093	333.48
197.312	804.74
197.531	871.33
197.75	1888.19
197.969	-720.84
198.188	-773.75
198.407	-4530.12
198.625	392.07
198.844	530.87
199.063	1240.24
199.282	1345.89
199.501	-973.99
199.719	-1492.82
199.938	-2160.93
200.157	2038.4
200.376	795.11
200.594	503.36
200.813	455.82
201.032	283.23
201.251	356.51
201.469	576.51
201.688	361.47
201.907	263.78
202.125	333.08
202.344	263.22
202.563	209.83
202.781	248.53
203	228.2
203.218	235.82
203.437	629.01
203.656	416.54
203.874	277.52
204.093	307.22
204.311	290.34
204.53	212.31
204.748	237.62
204.967	282.46
205.185	181.82
205.404	233.17
205.622	311.89
205.841	186.11
206.059	159.67
206.278	187.4
206.496	244.7
206.715	361.59
206.933	399.45
207.151	-810.53
207.37	-486.86
207.588	-1892.84
207.806	1481
208.025	681.99
208.243	-1124.17
208.461	-1031.67
208.68	-2403.3
208.898	3485.71
209.116	1297.85
209.335	2910.64
209.553	850.36
209.771	2276.79
209.989	-2012.65
210.208	-991.63
210.426	-398.42
210.644	-355.3
210.862	-109.05
211.081	-73.77
211.299	-10.53
211.517	-46.42
211.735	-56.44
211.953	-126.32
212.171	231.01
212.39	160.48
212.608	361.1
212.826	263.41
213.044	131.73
213.262	139.02
213.48	147.15
213.698	157.17
213.916	213.31
214.134	289.86
214.352	595.36
214.57	-1164.97
214.788	854.52
215.006	4566.79
215.224	-954.31
215.442	-343.45
215.66	-315.31
215.878	637.55
216.096	164.32
216.314	203.51
216.532	144.78
216.75	117.38
216.968	130.08
217.185	115.78
217.403	149.01
217.621	181.89
217.839	185.96
218.057	180.07
218.275	267.73
218.492	453.64
218.71	201.46
218.928	183.65
219.146	149.44
219.363	191.58
219.581	162.41
219.799	91.52
220.017	56.23
220.234	75.83
220.452	38.8
220.67	54.99
220.887	76.25
221.105	130.42
221.323	144.33
221.54	236.96
221.758	175.47
221.976	188.12
222.193	160.72
222.411	171.1
222.629	190.64
222.846	248.14
223.064	212.17
223.281	202.84
223.499	192.38
223.716	239.72
223.934	219.89
224.151	240.55
224.369	220.53
224.586	204.82
224.804	205.85
225.021	167.47
225.239	132.71
225.456	133.4
225.674	114.29
225.891	108.93
226.108	90.88
226.326	83.78
226.543	69.9
226.76	61.73
226.978	56.82
227.195	58.21
227.413	49.25
227.63	44.14
227.847	42.63
228.064	38.08
228.282	36.08
228.499	36.76
228.716	34.89
228.934	32.57
229.151	32.29
229.368	32.76
229.585	30.87
229.802	35.82
230.02	33.33
230.237	30.79
230.454	31.58
230.671	32.4
230.888	30.12
231.105	33.55
231.323	32.98
231.54	35.38
231.757	34.85
231.974	39.57
232.191	36.13
232.408	41.13
232.625	46.18
232.842	45.21
233.059	39.28
233.276	38.88
233.493	30.78
233.71	40.93
233.927	38.38
234.144	38.45
234.361	35.84
234.578	30.59
234.795	26.64
235.012	25.67
235.229	24.35
235.446	26.65
235.663	31.11
235.879	30.57
236.096	30.48
236.313	34.34
236.53	30.28
236.747	28.47
236.964	26.71
237.181	29.12
237.397	23.59
237.614	26.75
237.831	31.82
238.048	33.43
238.264	34.13
238.481	29.76
238.698	27.24
238.915	31.8
239.131	25.89
239.348	27.76
239.565	24.69
239.781	36.51
239.998	32.69
240.215	31.72
240.431	27.76
240.648	29.29
240.865	27.94
241.081	28.09
241.298	25.26
241.514	27.22
241.731	27.81
241.947	25.96
242.164	20.02
242.38	19.45
242.597	19.31
242.814	20.03
243.03	19.02
243.246	21.26
243.463	19.09
243.679	20.08
243.896	18.39
244.112	16.81
244.329	19.1
244.545	22.21
244.762	23.31
244.978	23.18
245.194	23.36
245.411	21.26
245.627	18.74
245.843	19.64
246.06	15.86
246.276	18.19
246.492	17.08
246.709	14.86
246.925	15.49
247.141	14.72
247.357	13.14
247.574	13.1
247.79	13.67
248.006	12.93
248.222	12.37
248.439	13.34
248.655	11.64
248.871	12.1
249.087	12.87
249.303	11.69
249.519	11.58
249.736	12.86
249.952	10.52
250.168	10.98
250.384	13.49
250.6	13.13
250.816	12.94
251.032	15.16
251.248	12.58
251.464	13.93
251.68	13.62
251.896	13.44
252.112	13.65
252.328	13.56
252.544	15.14
252.76	13.95
252.976	13.2
253.192	16.18
253.408	14.56
253.624	16.86
253.84	15.08
254.056	17.99
254.272	18.66
254.487	18
254.703	19.4
254.919	18.24
255.135	19.87
255.351	20.43
255.567	17.75
255.782	19.18
255.998	19.83
256.214	21.96
256.43	19.98
256.646	23.13
256.861	21.61
257.077	23.76
257.293	22.4
257.508	20.13
257.724	22.16
257.94	20.49
258.155	19.88
258.371	18.26
258.587	16.72
258.802	15.05
259.018	13.38
259.234	12.52
259.449	11.29
259.665	11.44
259.88	11.07
260.096	9.97
260.312	9.75
260.527	10.06
260.743	9.89
260.958	9.65
261.174	10.02
261.389	11.49
261.605	12.23
261.82	11.13
262.036	10.27
262.251	10.85
262.466	10.97
262.682	10.98
262.897	9.9
263.113	9.16
263.328	10.01
263.543	11.44
263.759	10.09
263.974	9.48
264.189	11.79
264.405	13.36
264.62	15.5
264.835	16.09
265.051	18.59
265.266	19.02
265.481	20.03
265.696	20.6
265.912	18.5
266.127	16.99
266.342	16.68
266.557	16.96
266.773	15.8
266.988	14.79
267.203	14.2
267.418	14.12
267.633	14.4
267.848	13.58
268.064	14.08
268.279	14.36
268.494	13.57
268.709	15.29
268.924	16.37
269.139	17.64
269.354	17.99
269.569	18.59
269.784	17.66
269.999	17.64
270.214	17.77
270.429	16.94
270.644	17.04
270.859	16.96
271.074	15.97
271.289	14.74
271.504	13.29
271.719	12.37
271.934	12.14
272.149	12.29
272.363	11.92
272.578	12.37
272.793	11.8
273.008	11.33
273.223	10.79
273.438	10.17
273.653	9.62
273.867	9.81
274.082	9.43
274.297	9.14
274.512	8.31
274.726	8.94
274.941	9.09
275.156	10.81
275.371	10.84
275.585	13.74
275.8	15.04
276.015	15.3
276.229	17.27
276.444	18.23
276.659	20.98
276.873	21.05
277.088	20.75
277.302	21.89
277.517	21.5
277.732	21.9
277.946	20.68
278.161	20.21
278.375	21.16
278.59	18.13
278.804	17.94
279.019	16.32
279.233	17.19
279.448	16.99
279.662	13.84
279.877	11.43
280.091	10.82
280.306	9.51
280.52	8.06
280.735	6.49
280.949	6.64
281.163	7.01
281.378	5.95
281.592	5.17
281.806	6.17
282.021	8.9
282.235	10.9
282.449	11.9
282.664	11.85
282.878	12.5
283.092	12.93
283.307	13.71
283.521	13.53
283.735	14.45
283.949	15.63
284.164	15.29
284.378	14.15
284.592	12.45
284.806	11.02
285.02	12.16
285.234	10.96
285.449	11.88
285.663	13.15
285.877	12.32
286.091	13.05
286.305	13.44
286.519	12.93
286.733	11.83
286.947	13.12
287.161	13.59
287.375	14.57
287.589	16.95
287.803	15.74
288.017	15.12
288.231	15.12
288.445	13.74
288.659	12.78
288.873	12.98
289.087	14.41
289.301	14.59
289.515	15.67
289.729	13.67
289.943	12.21
290.157	13.49
290.371	12.85
290.584	13.1
290.798	13.28
291.012	13.65
291.226	13.19
291.44	13.7
291.654	12.68
291.867	11.64
292.081	11.34
292.295	12.92
292.509	11.81
292.722	12.55
292.936	12.87
293.15	13.78
293.364	13.34
293.577	13.2
293.791	12.31
294.005	12.7
294.218	10.98
294.432	11.41
294.645	11.16
294.859	12.47
295.073	12.69
295.286	13.8
295.5	13.12
295.713	13.7
295.927	15.47
296.14	14.87
296.354	14.6
296.568	15.16
296.781	14.63
296.994	13.5
297.208	12.27
297.421	12.18
297.635	11.81
297.848	11.71
298.062	10.26
298.275	9.72
298.489	10.27
298.702	10.63
298.915	10.72
299.129	12.21
299.342	13.62
299.555	15.1
299.769	15.37
299.982	16.66
300.195	17
300.409	18.88
300.622	18.56
300.835	18.86
301.048	17.43
301.262	19.3
301.475	18.95
301.688	19.12
301.901	18.4
302.115	18.6
302.328	16.92
302.541	16.76
302.754	16.2
302.967	16.2
303.18	15.37
303.393	17.6
303.607	16.37
303.82	15.77
304.033	16.23
304.246	17.14
304.459	16.75
304.672	16.3
304.885	16.11
305.098	16.53
305.311	16.65
305.524	17.46
305.737	16.75
305.95	17.21
306.163	16.71
306.376	15.46
306.589	14.94
306.802	15.07
307.015	15.71
307.228	16.81
307.44	15.53
307.653	14.77
307.866	15.12
308.079	14.94
308.292	14.23
308.505	15.66
308.718	15.7
308.93	15.33
309.143	15.94
309.356	16.4
309.569	15.53
309.781	17.08
309.994	17.85
310.207	16.6
310.42	16.63
310.632	17.25
310.845	16.63
311.058	16.67
311.27	16.79
311.483	16.16
311.696	16.44
311.908	16.65
312.121	16.45
312.333	16.98
312.546	17.69
312.759	17.57
312.971	16.69
313.184	17.74
313.396	17.96
313.609	17.24
313.821	17.01
314.034	17.17
314.246	18.34
314.459	17.94
314.671	18.13
314.884	17.87
315.096	19.03
315.309	20.07
315.521	18.78
315.733	19.14
315.946	18.85
316.158	19.48
316.371	19.39
316.583	16.99
316.795	16.55
317.008	14.03
317.22	14.87
317.432	14.69
317.644	15.64
317.857	15.67
318.069	14.9
318.281	17
318.494	16.48
318.706	16.21
318.918	17.44
319.13	17.04
319.342	17.76
319.555	17
319.767	16.28
319.979	14.86
320.191	15.17
320.403	14.72
320.615	12.53
320.827	14.04
321.039	13.83
321.252	14.55
321.464	14.78
321.676	16.13
321.888	15.98
322.1	15.34
322.312	15.39
322.524	16.8
322.736	15.01
322.948	16.04
323.16	14.56
323.372	13.55
323.584	12.54
323.796	12.89
324.007	11.52
324.219	12.77
324.431	12.8
324.643	13.32
324.855	11.77
325.067	12.63
325.279	11.81
325.491	10.52
325.702	11.39
325.914	11.7
326.126	11.8
326.338	12.56
326.55	11.47
326.761	12.54
326.973	11.36
327.185	12.35
327.396	13.77
327.608	15.72
327.82	16.82
328.032	16.17
328.243	16.2
328.455	16.3
328.666	15.98
328.878	16.95
329.09	15.25
329.301	15.91
329.513	15.53
329.725	15.36
329.936	13.83
330.148	13.9
330.359	15.25
330.571	15.64
330.782	16.34
330.994	17.74
331.205	16.42
331.417	16.86
331.628	17.27
331.84	16.83
332.051	16.49
332.262	17.4
332.474	17.57
332.685	16.92
332.897	15.93
333.108	14.5
333.319	14.06
333.531	14.84
333.742	15.22
333.953	13.84
334.165	14.3
334.376	14.53
334.587	12.84
334.799	12.15
335.01	11.16
335.221	11.78
335.432	11.57
335.644	10.1
335.855	10.1
336.066	11.2
336.277	12.11
336.488	10.57
336.7	9.84
336.911	10.84
337.122	11.53
337.333	12.82
337.544	13.02
337.755	13.27
337.966	14.35
338.177	13.96
338.388	13.17
338.599	12.93
338.811	14.35
339.022	15.25
339.233	15.38
339.444	15.62
339.655	14.31
339.866	14.31
340.076	13.88
340.287	14.35
340.498	14.65
340.709	13.88
340.92	13.51
341.131	13.01
341.342	12.02
341.553	11.18
341.764	10.83
341.975	12.03
342.185	11.67
342.396	11.89
342.607	11.24
342.818	11.8
343.029	11.51
343.239	11.88
343.45	11.7
343.661	11.72
343.872	12.22
344.082	11.53
344.293	10.74
344.504	11.14
344.714	11.82
344.925	11.46
345.136	10.71
345.346	11.35
345.557	11.28
345.768	11.05
345.978	11.12
346.189	11.89
346.399	13.08
346.61	13.4
346.821	13.41
347.031	14.01
347.242	13.45
347.452	14.4
347.663	14.23
347.873	14.86
348.084	14.53
348.294	14.24
348.504	13.46
348.715	13.62
348.925	13.3
349.136	12.44
349.346	10.8
349.557	11.68
349.767	10.43
349.977	10.77
350.188	9.85
350.398	10.72
350.608	11.54
350.819	11.74
351.029	11.1
351.239	11.47
351.449	12
351.66	13.08
351.87	12.72
352.08	12.31
352.29	12.05
352.501	11.29
352.711	11.7
352.921	10.97
353.131	10.91
353.341	11.02
353.552	10.22
353.762	9.91
353.972	9.4
354.182	10.14
354.392	10.59
354.602	10.65
354.812	11.72
355.022	11.01
355.232	11.68
355.442	11.26
355.652	10.44
355.862	10.98
356.072	11.81
356.282	11.1
356.492	10.53
356.702	10.29
356.912	10.97
357.122	11.11
357.332	11.03
357.542	10.74
357.752	11.1
357.962	11.32
358.171	11.16
358.381	10.95
358.591	10.91
358.801	10.97
359.011	10.81
359.221	10.64
359.43	10.59
359.64	11
359.85	10.78
360.06	10.49
360.269	10.77
360.479	10.81
360.689	10.1
360.899	10.49
361.108	10.45
361.318	10.7
361.528	9.67
361.737	9.25
361.947	8.94
362.156	9
362.366	9.17
362.576	9.18
362.785	9.19
362.995	9.72
363.204	9.95
363.414	10.34
363.623	10.3
363.833	11.33
364.042	11.7
364.252	11.73
364.461	12.01
364.671	11.72
364.88	11.67
365.09	11.83
365.299	11.51
365.509	11.34
365.718	10.66
365.927	10.59
366.137	10.44
366.346	9.7
366.555	9.18
366.765	8.91
366.974	9.31
367.183	9.47
367.393	8.55
367.602	8.27
367.811	8.41
368.021	8.64
368.23	8.76
368.439	8.49
368.648	9.1
368.857	9.17
369.067	8.99
369.276	8.42
369.485	8.05
369.694	8.36
369.903	7.99
370.112	7.76
370.321	7.47
370.531	7.43
370.74	7.23
370.949	7.42
371.158	7.85
371.367	7.42
371.576	7.99
371.785	7.71
371.994	7.72
372.203	7.92
372.412	8.27
372.621	8.73
372.83	8.69
373.039	8.67
373.248	8.53
373.457	8.48
373.666	8.95
373.874	8.52
374.083	9.08
374.292	9.11
374.501	9.26
374.71	9.15
374.919	8.76
375.128	8.6
375.336	8.75
375.545	8.92
375.754	8.89
375.963	8.74
376.171	8.85
376.38	9
376.589	9.32
376.798	9.18
377.006	9.26
377.215	9.62
377.424	9.51
377.632	9.45
377.841	8.77
378.05	9.03
378.258	9.37
378.467	9.28
378.675	8.64
378.884	8.42
379.093	8.66
379.301	8.12
379.51	7.58
379.718	7.69
379.927	7.86
380.135	7.8
380.344	7.78
380.552	7.83
380.761	8.25
380.969	8.62
381.177	8.33
381.386	8.29
381.594	8.24
381.803	8.2
382.011	8.44
382.219	8.28
382.428	8.64
382.636	8.5
382.845	8.36
383.053	8.17
383.261	8
383.469	8.41
383.678	8.42
383.886	8.46
384.094	8.59
384.302	8.49
384.511	8.29
384.719	7.94
384.927	7.84
385.135	7.56
385.343	7.26
385.552	7.42
385.76	7.02
385.968	7.3
386.176	7.44
386.384	7.32
386.592	7.38
386.8	7.43
387.008	7.91
387.216	7.87
387.424	7.84
387.633	7.96
387.841	7.79
388.049	8.24
388.257	7.71
388.465	7.45
388.672	7.67
388.88	7.7
389.088	7.54
389.296	7.29
389.504	7.02
389.712	7.36
389.92	6.92
390.128	6.97
390.336	6.63
390.544	6.89
390.751	7.24
390.959	7.04
391.167	6.83
391.375	7.27
391.583	7.35
391.79	7.59
391.998	7.63
392.206	8.17
392.414	8.02
392.621	7.86
392.829	7.71
393.037	7.46
393.244	7.6
393.452	7.65
393.66	7.13
393.867	6.97
394.075	6.93
394.283	6.77
394.49	6.38
394.698	6.47
394.905	6.6
395.113	6.76
395.32	6.97
395.528	6.83
395.735	6.75
395.943	6.87
396.15	6.73
396.358	6.56
396.565	6.62
396.773	6.77
396.98	6.43
397.188	6.22
397.395	6.01
397.602	5.84
397.81	5.7
398.017	5.94
398.225	5.63
398.432	5.78
398.639	5.79
398.847	5.77
399.054	5.59
399.261	5.95
399.468	6.11
399.676	6.27
399.883	6.54
400.09	6.53
400.297	6.46
400.505	6.79
400.712	7.06
400.919	7.38
401.126	7.14
401.333	7.27
401.54	7.25
401.748	7.29
401.955	7.05
402.162	6.75
402.369	6.95
402.576	6.63
402.783	6.35
402.99	6.29
403.197	6.15
403.404	6.41
403.611	6.51
403.818	6.69
404.025	6.7
404.232	6.76
404.439	6.86
404.646	6.37
404.853	6.51
405.06	6.48
405.267	6.27
405.474	6.25
405.681	5.96
405.887	5.83
406.094	5.84
406.301	5.95
406.508	5.85
406.715	6.11
406.922	6.65
407.128	6.55
407.335	6.72
407.542	6.92
407.749	6.68
407.955	6.83
408.162	6.44
408.369	6.32
408.575	6.32
408.782	6.25
408.989	5.83
409.195	5.56
409.402	5.61
409.609	5.79
409.815	5.69
410.022	5.9
410.228	5.85
410.435	6.3
410.642	5.84
410.848	5.43
411.055	5.56
411.261	5.76
411.468	5.67
411.674	5.64
411.881	5.34
412.087	5.01
412.294	4.89
412.5	4.9
412.706	4.76
412.913	5.37
413.119	5.71
413.326	5.91
413.532	5.92
413.738	6.18
413.945	6.12
414.151	6.47
414.357	6.65
414.564	6.85
414.77	6.53
414.976	6.5
415.182	6.61
415.389	6.42
415.595	6.09
415.801	6.08
416.007	6.06
416.214	6.1
416.42	5.96
416.626	6.08
416.832	5.86
417.038	6.1
417.244	6.08
417.45	5.65
417.657	5.71
417.863	5.66
418.069	5.53
418.275	5.52
418.481	5.61
418.687	5.61
418.893	5.68
419.099	5.83
419.305	5.71
419.511	5.79
419.717	5.86
419.923	5.83
420.129	5.81
420.335	5.75
420.541	5.58
420.746	5.58
420.952	5.5
421.158	5.35
421.364	5.2
421.57	5.17
421.776	5.14
421.982	5.22
422.187	5.14
422.393	5.16
422.599	5.21
422.805	5.28
423.01	5.27
423.216	5.43
423.422	5.31
423.628	5.4
423.833	5.47
424.039	5.6
424.245	5.5
424.45	5.47
424.656	5.49
424.862	5.37
425.067	5.49
425.273	5.34
425.478	5.22
425.684	5.48
425.889	5.45
426.095	5.54
426.301	5.26
426.506	5.37
426.712	5.45
426.917	5.5
427.123	5.57
427.328	5.39
427.533	5.52
427.739	5.48
427.944	5.43
428.15	5.42
428.355	5.38
428.561	5.53
428.766	5.22
428.971	5.41
429.177	5.44
429.382	5.6
429.587	5.69
429.793	5.66
429.998	5.76
430.203	5.81
430.408	5.95
430.614	5.8
430.819	5.62
431.024	5.74
431.229	5.88
431.434	5.85
431.64	5.91
431.845	6.13
432.05	6.11
432.255	6.08
432.46	6.08
432.665	5.77
432.87	5.86
433.076	6.11
433.281	6.06
433.486	5.8
433.691	5.85
433.896	5.76
434.101	5.37
434.306	5.21
434.511	5.1
434.716	4.88
434.921	5.1
435.126	5.07
435.331	4.85
435.535	4.92
435.74	5.06
435.945	4.81
436.15	4.86
436.355	5.19
436.56	5.42
436.765	5.52
436.97	5.55
437.174	5.48
437.379	5.61
437.584	5.68
437.789	5.48
437.993	5.51
438.198	5.71
438.403	5.51
438.608	5.38
438.812	5.34
439.017	5.29
439.222	5.31
439.426	5.2
439.631	5.08
439.836	5.07
440.04	5.19
440.245	5.21
440.45	5.09
440.654	5.17
440.859	5.16
441.063	5.07
441.268	5.19
441.472	5.23
441.677	5.38
441.881	5.52
442.086	5.54
442.29	5.52
442.495	5.45
442.699	5.55
442.904	5.55
443.108	5.52
443.312	5.62
443.517	5.62
443.721	5.74
443.925	5.57
444.13	5.46
444.334	5.53
444.538	5.57
444.743	5.55
444.947	5.49
445.151	5.39
445.356	5.4
445.56	5.5
445.764	5.36
445.968	5.16
446.173	5.21
446.377	5.05
446.581	5
446.785	5.04
446.989	5.11
447.193	5.15
447.398	5.35
447.602	5.4
447.806	5.43
448.01	5.54
448.214	5.65
448.418	5.67
448.622	6.01
448.826	6.06
449.03	6
449.234	5.94
449.438	5.95
449.642	5.73
449.846	5.83
450.05	5.75
450.254	5.55
450.458	5.5
450.662	5.56
450.866	5.25
451.069	5.19
451.273	5.27
451.477	5.33
451.681	5.31
451.885	5.31
452.089	5.18
452.292	5.03
452.496	5.12
452.7	5.27
452.904	5.18
453.107	5.22
453.311	5.25
453.515	5.24
453.719	5.08
453.922	5.02
454.126	4.96
454.33	5.01
454.533	5.2
454.737	5.19
454.94	5.01
455.144	5.07
455.348	5.14
455.551	5.12
455.755	5.07
455.958	5.19
456.162	5.25
456.365	5.47
456.569	5.42
456.772	5.41
456.976	5.45
457.179	5.4
457.383	5.42
457.586	5.39
457.79	5.34
457.993	5.44
458.196	5.47
458.4	5.51
458.603	5.41
458.807	5.38
459.01	5.34
459.213	5.27
459.417	5.31
459.62	5.27
459.823	5.21
460.026	5.29
460.23	5.24
460.433	5.27
460.636	5.16
460.839	5.17
461.042	5.02
461.246	5.02
461.449	5.01
461.652	5.06
461.855	4.9
462.058	4.94
462.261	4.69
462.464	4.65
462.668	4.52
462.871	4.62
463.074	4.56
463.277	4.72
463.48	4.75
463.683	4.94
463.886	4.89
464.089	5.24
464.292	5.24
464.495	5.37
464.698	5.33
464.901	5.43
465.104	5.54
465.306	5.69
465.509	5.58
465.712	5.35
465.915	5.23
466.118	5.06
466.321	4.92
466.524	4.96
466.726	5.08
466.929	5.16
467.132	4.96
467.335	4.77
467.538	4.61
467.74	4.77
467.943	4.91
468.146	4.97
468.348	5.02
468.551	5.04
468.754	4.99
468.956	4.97
469.159	4.94
469.362	5.17
469.564	5.31
469.767	5.46
469.969	5.43
470.172	5.53
470.375	5.46
470.577	5.61
470.78	5.57
470.982	5.44
471.185	5.24
471.387	5.05
471.59	4.85
471.792	4.87
471.995	4.74
472.197	4.61
472.399	4.49
472.602	4.57
472.804	4.39
473.007	4.55
473.209	4.66
473.411	4.76
473.614	4.75
473.816	4.78
474.018	4.66
474.22	4.71
474.423	4.86
474.625	4.92
474.827	4.82
475.03	4.87
475.232	4.91
475.434	5.05
475.636	5.05
475.838	5.24
476.04	5.23
476.243	5.32
476.445	5.29
476.647	5.22
476.849	5.06
477.051	4.98
477.253	5.18
477.455	5.01
477.657	4.98
477.859	4.98
478.061	5.01
478.263	4.92
478.465	4.87
478.667	4.69
478.869	4.74
479.071	4.73
479.273	4.8
479.475	4.74
479.677	4.72
479.879	4.68
480.081	4.71
480.283	4.69
480.485	4.77
480.686	4.8
480.888	5.05
481.09	5
481.292	5.02
481.494	4.98
481.695	4.97
481.897	5.01
482.099	5
482.301	5.06
482.502	5.06
482.704	5.03
482.906	5.06
483.107	4.98
483.309	4.9
483.511	4.9
483.712	4.94
483.914	4.86
484.115	4.82
484.317	4.8
484.519	4.73
484.72	4.7
484.922	4.71
485.123	4.68
485.325	4.68
485.526	4.75
485.728	4.74
485.929	4.72
486.131	4.77
486.332	4.77
486.534	4.77
486.735	4.82
486.936	4.86
487.138	4.84
487.339	4.79
487.541	4.85
487.742	4.83
487.943	4.84
488.144	4.82
488.346	4.88
488.547	4.94
488.748	4.85
488.95	4.84
489.151	4.83
489.352	4.82
489.553	4.93
489.755	4.86
489.956	4.92
490.157	4.98
490.358	4.99
490.559	4.89
490.76	4.87
490.961	4.94
491.163	4.97
491.364	4.93
491.565	4.88
491.766	4.8
491.967	4.88
492.168	4.78
492.369	4.73
492.57	4.75
492.771	4.79
492.972	4.75
493.173	4.8
493.374	4.8
493.575	4.9
493.776	5.01
493.976	5.05
494.177	5.12
494.378	5.29
494.579	5.33
494.78	5.22
494.981	5.13
495.182	5.13
495.382	5.32
495.583	5.3
495.784	5.24
495.985	5.3
496.185	5.37
496.386	5.16
496.587	5.2
496.788	5.13
496.988	5.26
497.189	5.33
497.39	5.47
497.59	5.24
497.791	5.38
497.992	5.29
498.192	5.39
498.393	5.36
498.593	5.48
498.794	5.38
498.994	5.47
499.195	5.52
499.395	5.55
499.596	5.66
499.796	5.63
499.997	5.52
500.197	5.57
500.398	5.43
500.598	5.36
500.799	5.31
500.999	5.36
501.199	5.49
501.4	5.41
501.6	5.42
501.801	5.22
502.001	5.3
502.201	5.32
502.402	5.45
502.602	5.32
502.802	5.39
503.002	5.52
503.203	5.63
503.403	5.36
503.603	5.4
503.803	5.36
504.003	5.49
504.204	5.5
504.404	5.49
504.604	5.4
504.804	5.62
505.004	5.71
505.204	5.6
505.404	5.62
505.604	5.84
505.804	5.8
506.005	5.79
506.205	5.79
506.405	5.95
506.605	5.96
506.805	5.97
507.005	6.06
507.204	5.96
507.404	5.89
507.604	5.94
507.804	5.99
508.004	6.06
508.204	6.17
508.404	6.13
508.604	6.06
508.804	6.17
509.003	6.14
509.203	5.99
509.403	5.99
509.603	6.08
509.803	5.96
510.002	5.87
510.202	5.78
510.402	5.72
510.602	5.69
510.801	5.73
511.001	5.68
511.201	5.73
511.4	5.75
511.6	5.73
511.8	5.66
511.999	5.87
512.199	5.9
512.398	5.94
512.598	6.09
512.797	6.1
512.997	6.14
513.197	6.02
513.396	6.1
513.596	6.15
513.795	6.19
513.994	6.39
514.194	6.2
514.393	6.24
514.593	6.44
514.792	6.42
514.992	6.59
515.191	6.49
515.39	6.63
515.59	6.61
515.789	6.64
515.988	6.85
516.188	6.79
516.387	6.92
516.586	6.89
516.786	6.82
516.985	6.84
517.184	6.78
517.383	6.95
517.582	7.02
517.782	7
517.981	6.83
518.18	6.69
518.379	6.62
518.578	6.53
518.777	6.53
518.976	6.57
519.176	6.57
519.375	6.54
519.574	6.53
519.773	6.52
519.972	6.65
520.171	6.81
520.37	6.89
520.569	6.97
520.768	7.03
520.967	7.12
521.166	7.14
521.365	7.02
521.564	7.21
521.762	7.16
521.961	7.25
522.16	7.14
522.359	7.09
522.558	7.04
522.757	7.08
522.956	7.14
523.154	7.2
523.353	7.19
523.552	7.48
523.751	7.4
523.949	7.44
524.148	7.5
524.347	7.62
524.546	7.72
524.744	7.88
524.943	7.92
525.142	7.91
525.34	7.89
525.539	7.86
525.737	7.79
525.936	7.75
526.135	7.83
526.333	7.81
526.532	7.7
526.73	7.61
526.929	7.6
527.127	7.58
527.326	7.64
527.524	7.67
527.723	7.77
527.921	7.82
528.12	7.78
528.318	7.73
528.516	7.71
528.715	7.72
528.913	7.83
529.112	7.81
529.31	7.85
529.508	7.84
529.707	7.89
529.905	7.87
530.103	7.85
530.301	7.89
530.5	7.9
530.698	7.94
530.896	8.03
531.094	8.02
531.293	8.05
531.491	8.04
531.689	8.14
531.887	8.13
532.085	8.2
532.283	8.22
532.481	8.37
532.68	8.48
532.878	8.55
533.076	8.58
533.274	8.59
533.472	8.6
533.67	8.55
533.868	8.58
534.066	8.58
534.264	8.56
534.462	8.59
534.66	8.58
534.858	8.52
535.056	8.54
535.253	8.53
535.451	8.66
535.649	8.76
535.847	8.94
536.045	8.87
536.243	9.04
536.441	9.04
536.638	9.15
536.836	9.06
537.034	9.15
537.232	9.03
537.43	9.12
537.627	9.02
537.825	9.08
538.023	9.08
538.22	9.19
538.418	9.1
538.616	9.19
538.813	9.11
539.011	9.35
539.209	9.38
539.406	9.6
539.604	9.68
539.801	9.78
539.999	9.76
540.196	9.81
540.394	9.94
540.591	10.01
540.789	10.12
540.986	10.18
541.184	10.22
541.381	10.27
541.579	10.22
541.776	10.2
541.974	10.18
542.171	10.2
542.368	10.29
542.566	10.24
542.763	10.23
542.96	10.17
543.158	10.21
543.355	10.2
543.552	10.19
543.75	10.36
543.947	10.47
544.144	10.58
544.341	10.7
544.539	10.61
544.736	10.72
544.933	10.72
545.13	10.93
545.327	10.99
545.524	11.04
545.722	11.14
545.919	10.98
546.116	10.92
546.313	10.86
546.51	10.87
546.707	10.97
546.904	10.96
547.101	11.05
547.298	11.01
547.495	10.9
547.692	10.89
547.889	10.88
548.086	10.94
548.283	11.09
548.48	11.31
548.677	11.31
548.874	11.4
549.07	11.5
549.267	11.56
549.464	11.61
549.661	11.71
549.858	11.82
550.055	11.9
550.251	12.08
550.448	12.13
550.645	12.13
550.842	12.45
551.038	12.59
551.235	12.75
551.432	12.9
551.628	12.99
551.825	13.35
552.022	13.44
552.218	13.52
552.415	13.8
552.612	14.06
552.808	14.11
553.005	13.93
553.201	13.92
553.398	13.87
553.594	13.99
553.791	13.99
553.987	13.98
554.184	13.98
554.38	14.14
554.577	14.13
554.773	14.07
554.97	14.27
555.166	14.54
555.362	14.71
555.559	14.86
555.755	14.93
555.952	15.17
556.148	15.24
556.344	15.45
556.541	15.34
556.737	15.24
556.933	15.24
557.129	15.07
557.326	15.11
557.522	15.11
557.718	15.19
557.914	15.24
558.11	15.23
558.307	15.3
558.503	15.3
558.699	15.55
558.895	15.87
559.091	15.92
559.287	16.42
559.483	16.4
559.679	16.34
559.876	16.49
560.072	16.56
560.268	16.65
560.464	16.66
560.66	16.8
560.856	16.81
561.052	16.71
561.247	16.86
561.443	16.63
561.639	16.86
561.835	16.86
562.031	17.03
562.227	16.9
562.423	16.81
562.619	16.92
562.815	17.01
563.01	17.19
563.206	17.42
563.402	17.42
563.598	17.56
563.793	17.52
563.989	17.71
564.185	17.53
564.381	17.86
564.576	18.06
564.772	18.24
564.968	18.27
565.163	18.26
565.359	18.18
565.555	18.35
565.75	18.53
565.946	18.64
566.141	18.79
566.337	18.95
566.532	18.92
566.728	19.06
566.923	18.98
567.119	19.02
567.314	19.19
567.51	19.39
567.705	19.32
567.901	19.17
568.096	19.31
568.292	19.45
568.487	19.51
568.682	19.76
568.878	19.84
569.073	20.03
569.268	20.24
569.464	20.3
569.659	20.34
569.854	20.59
570.05	20.81
570.245	20.86
570.44	20.89
570.635	20.89
570.831	20.85
571.026	20.91
571.221	21.04
571.416	20.95
571.611	20.82
571.806	20.76
572.002	20.87
572.197	20.82
572.392	20.72
572.587	20.67
572.782	20.83
572.977	20.9
573.172	20.99
573.367	20.94
573.562	21.12
573.757	21.29
573.952	21.44
574.147	21.58
574.342	21.79
574.537	21.94
574.732	22.16
574.927	22.16
575.121	22.34
575.316	22.4
575.511	22.64
575.706	22.65
575.901	22.84
576.096	23.01
576.29	22.86
576.485	22.93
576.68	23.08
576.875	23.08
577.069	23.15
577.264	23.16
577.459	23.33
577.654	23.02
577.848	23.12
578.043	23.04
578.238	23.18
578.432	23.33
578.627	23.32
578.821	23.4
579.016	23.52
579.21	23.81
579.405	23.69
579.6	23.57
579.794	24.11
579.989	24.19
580.183	24.57
580.378	24.4
580.572	24.5
580.766	24.6
580.961	24.81
581.155	24.84
581.35	25.06
581.544	25.14
581.738	25.15
581.933	24.96
582.127	25.17
582.321	24.97
582.516	25.23
582.71	25.14
582.904	25.18
583.099	25.15
583.293	25.25
583.487	25.2
583.681	25.26
583.875	25.21
584.07	25.29
584.264	25.26
584.458	25.4
584.652	25.24
584.846	25.35
585.04	25.28
585.234	25.33
585.428	25.16
585.623	25.02
585.817	25.24
586.011	25.48
586.205	25.65
586.399	25.52
586.593	25.5
586.787	25.67
586.981	25.63
587.174	25.96
587.368	25.94
587.562	26.38
587.756	26.36
587.95	26.3
588.144	26.34
588.338	26.67
588.532	26.8
588.725	26.91
588.919	26.9
589.113	27.08
589.307	26.94
589.501	26.91
589.694	26.84
589.888	26.97
590.082	27.1
590.275	27.04
590.469	26.94
590.663	27.06
590.856	27.08
591.05	27.09
591.244	27.29
591.437	27.57
591.631	27.7
591.824	27.5
592.018	27.59
592.212	27.64
592.405	27.78
592.599	27.49
592.792	27.4
592.986	27.49
593.179	27.45
593.372	27.25
593.566	27.15
593.759	27.2
593.953	27.37
594.146	27.1
594.339	27.29
594.533	27.54
594.726	27.77
594.92	28.04
595.113	28.16
595.306	28.48
595.499	28.55
595.693	28.44
595.886	28.45
596.079	28.44
596.272	28.66
596.466	28.47
596.659	28.38
596.852	28.44
597.045	28.42
597.238	28.35
597.431	28.27
597.624	28.37
597.818	28.54
598.011	28.53
598.204	28.6
598.397	28.58
598.59	28.75
598.783	28.83
598.976	28.84
599.169	28.77
599.362	28.87
599.555	28.83
599.748	29.06
599.941	29.16
600.134	29.33
600.326	29.47
600.519	29.71
600.712	29.85
600.905	29.65
601.098	29.49
601.291	29.55
601.483	29.7
601.676	29.75
601.869	29.62
602.062	29.63
602.255	29.73
602.447	29.67
602.64	29.73
602.833	29.6
603.025	29.77
603.218	29.79
603.411	29.79
603.603	29.6
603.796	29.82
603.989	29.65
604.181	29.64
604.374	29.65
604.566	29.75
604.759	29.79
604.951	29.88
605.144	29.84
605.336	30.05
605.529	30.22
605.721	30.32
605.914	30.19
606.106	30.4
606.299	30.6
606.491	30.37
606.683	30.17
606.876	30.18
607.068	30.27
607.26	30.4
607.453	30.32
607.645	30.26
607.837	30.17
608.03	30.37
608.222	30.54
608.414	30.36
608.606	30.64
608.799	31.01
608.991	30.99
609.183	30.97
609.375	30.91
609.567	31.14
609.759	31.19
609.952	31.4
610.144	31.42
610.336	31.28
610.528	31.14
610.72	31.28
610.912	31.25
611.104	31.41
611.296	31.39
611.488	31.6
611.68	31.36
611.872	31.4
612.064	31.74
612.256	31.71
612.448	31.91
612.64	32.07
612.832	32.2
613.023	32.22
613.215	32.13
613.407	32.19
613.599	32.35
613.791	32.84
613.983	32.76
614.174	32.29
614.366	32.21
614.558	31.97
614.75	32.08
614.941	31.92
615.133	32.11
615.325	32.19
615.516	32.06
615.708	31.91
615.9	31.7
616.091	31.94
616.283	31.75
616.475	31.81
616.666	32.18
616.858	32.48
617.049	32.61
617.241	32.36
617.432	32.09
617.624	32.49
617.815	32.48
618.007	32.53
618.198	32.25
618.39	32.58
618.581	32.62
618.773	32.42
618.964	32.22
619.155	32.19
619.347	32.25
619.538	32.63
619.729	32.27
619.921	32.4
620.112	32.42
620.303	32.69
620.494	32.73
620.686	32.82
620.877	32.98
621.068	33.13
621.259	33.06
621.451	33.29
621.642	33.17
621.833	33.2
622.024	33.24
622.215	33.42
622.406	33.42
622.597	33.05
622.788	32.93
622.98	32.83
623.171	32.67
623.362	33.02
623.553	33.17
623.744	33.22
623.935	33.34
624.126	33.11
624.317	33.1
624.508	33.28
624.698	33.55
624.889	33.78
625.08	34.24
625.271	34.45
625.462	34.28
625.653	34.23
625.844	33.92
626.034	33.76
626.225	33.89
626.416	33.86
626.607	33.51
626.798	33.71
626.988	33.6
627.179	33.33
627.37	33.17
627.56	33.29
627.751	32.96
627.942	33.27
628.132	33.42
628.323	33.48
628.514	33.49
628.704	33.62
628.895	33.65
629.085	33.49
629.276	33.55
629.466	33.79
629.657	33.45
629.847	33.68
630.038	33.64
630.228	34.02
630.419	34.07
630.609	34.06
630.8	34.34
630.99	34.34
631.181	34.79
631.371	34.95
631.561	34.87
631.752	35.13
631.942	35.24
632.132	35.47
632.323	35.36
632.513	35.35
632.703	35.36
632.893	35.2
633.084	35.23
633.274	34.95
633.464	34.55
633.654	34.75
633.844	34.62
634.034	34.48
634.225	33.91
634.415	33.91
634.605	34.16
634.795	34.01
634.985	34.17
635.175	34.07
635.365	33.89
635.555	33.96
635.745	33.76
635.935	34.08
636.125	34.26
636.315	34.65
636.505	34.67
636.695	34.5
636.885	34.64
637.075	34.87
637.265	34.96
637.455	35.73
637.644	35.99
637.834	36.24
638.024	36.07
638.214	36.28
638.404	36.46
638.593	36.58
638.783	36.45
638.973	36.75
639.163	36.29
639.352	36.23
639.542	35.94
639.732	36.12
639.921	36.07
640.111	36.19
640.301	36.12
640.49	35.97
640.68	35.65
640.87	35.26
641.059	35.03
641.249	35.36
641.438	35.58
641.628	35.79
641.817	35.88
642.007	35.97
642.196	36.25
642.386	36.4
642.575	36.57
642.764	36.47
642.954	36.73
643.143	36.79
643.333	36.85
643.522	36.65
643.711	36.25
643.901	36.03
644.09	35.93
644.279	35.52
644.469	35.47
644.658	35.34
644.847	35.52
645.036	35.71
645.226	35.92
645.415	35.77
645.604	35.54
645.793	35.98
645.982	36.05
646.171	35.88
646.361	35.51
646.55	35.35
646.739	35.53
646.928	35.65
647.117	36.06
647.306	35.75
647.495	35.49
647.684	35.54
647.873	35.53
648.062	36.01
648.251	36.62
648.44	37.15
648.629	37.28
648.818	37.38
649.007	37.63
649.196	37.52
649.384	37.74
649.573	37.74
649.762	38.07
649.951	38.13
650.14	37.95
650.328	37.69
650.517	37.39
650.706	37.55
650.895	37.39
651.083	37.49
651.272	37.43
651.461	37.31
651.65	37.79
651.838	38.38
652.027	38.02
652.216	37.59
652.404	37.57
652.593	37.97
652.781	37.86
652.97	37.97
653.158	37.55
653.347	37.65
653.535	37.69
653.724	37.35
653.912	37.1
654.101	37.3
654.289	37.6
654.478	37.37
654.666	37.24
654.855	37
655.043	37.14
655.231	37.31
655.42	37.68
655.608	37.74
655.796	38.22
655.985	38.24
656.173	38.29
656.361	38.21
656.55	38.17
656.738	38.27
656.926	38.45
657.114	38.63
657.302	38.39
657.491	37.85
657.679	37.8
657.867	37.5
658.055	37.49
658.243	37.2
658.431	37.39
658.619	37.82
658.807	37.82
658.996	37.94
659.184	37.8
659.372	38.14
659.56	38.18
659.748	38.28
659.936	38.9
660.124	38.43
660.311	38.91
660.499	39.03
660.687	38.7
660.875	38.87
661.063	38.82
661.251	38.93
661.439	39.13
661.627	39.3
661.814	39.38
662.002	38.8
662.19	39.18
662.378	38.77
662.565	38.58
662.753	39.09
662.941	38.67
663.129	38.6
663.316	38.65
663.504	38.31
663.692	38.89
663.879	38.96
664.067	39.06
664.254	39.1
664.442	39.74
664.63	40.07
664.817	39.58
665.005	39.82
665.192	39.69
665.38	40.2
665.567	40.15
665.755	39.73
665.942	40.19
666.13	40.21
666.317	40.01
666.504	39.19
666.692	39.08
666.879	39.17
667.067	39.23
667.254	39.33
667.441	38.56
667.629	38.99
667.816	38.85
668.003	38.26
668.19	38
668.378	38.15
668.565	38.83
668.752	38.92
668.939	38.82
669.127	39.09
669.314	39.2
669.501	39.06
669.688	39.05
669.875	39.05
670.062	39.65
670.249	39.79
670.436	39.8
670.623	39.89
670.81	39.77
670.997	39.93
671.184	40.18
671.371	40.38
671.558	41
671.745	40.96
671.932	41.1
672.119	40.55
672.306	40.97
672.493	41.18
672.68	41.28
672.867	41.08
673.054	41.48
673.24	41.13
673.427	41.17
673.614	40.53
673.801	40.65
673.988	40.52
674.174	41.03
674.361	40.71
674.548	40.67
674.734	39.92
674.921	40.16
675.108	40.15
675.294	40.28
675.481	40.28
675.668	40.88
675.854	40.76
676.041	40.61
676.227	40.46
676.414	40.5
676.601	40.79
676.787	41.04
676.974	41.13
677.16	41.19
677.347	41.39
677.533	41.31
677.719	41.01
677.906	41.07
678.092	41.43
678.279	41.25
678.465	40.88
678.651	40.62
678.838	41.08
679.024	41.08
679.21	40.45
679.397	40.03
679.583	40.09
679.769	39.93
679.955	39.77
680.142	39.61
680.328	39.7
680.514	40.11
680.7	40.38
680.886	40.12
681.073	40.01
681.259	40.27
681.445	40.41
681.631	40.52
681.817	40.47
682.003	40.77
682.189	41.04
682.375	41.4
682.561	41.36
682.747	41.3
682.933	41.37
683.119	41.22
683.305	41.31
683.491	41.41
683.677	41.46
683.863	41.73
684.049	41.84
684.235	41.44
684.42	41.12
684.606	41.34
684.792	41.48
684.978	41.23
685.164	41.5
685.349	41.45
685.535	41.29
685.721	41.15
685.907	41.59
686.092	41.09
686.278	41.55
686.464	41.31
686.649	41.39
686.835	41.34
687.021	41.8
687.206	41.6
687.392	41.85
687.577	41.82
687.763	42.24
687.948	41.81
688.134	41.85
688.319	41.46
688.505	42.04
688.69	41.68
688.876	41.56
689.061	41.41
689.247	41.73
689.432	41.41
689.618	41.49
689.803	41.2
689.988	41.58
690.174	41.9
690.359	42.51
690.544	42.19
690.73	43.04
690.915	43.05
691.1	43.1
691.285	42.7
691.471	43.13
691.656	43.1
691.841	42.88
692.026	42.26
692.211	42.17
692.396	42.11
692.582	42.11
692.767	41.22
692.952	41.2
693.137	40.93
693.322	41.38
693.507	41.56
693.692	41.84
693.877	42.1
694.062	42.78
694.247	43.11
694.432	42.74
694.617	42.55
694.802	43.07
694.987	43.06
695.172	43.33
695.357	43.24
695.541	42.99
695.726	43.37
695.911	43.57
696.096	43.08
696.281	42.83
696.466	43.18
696.65	43.32
696.835	43.31
697.02	43.1
697.204	43.54
697.389	43.56
697.574	43.74
697.759	43.1
697.943	42.87
698.128	42.8
698.312	42.78
698.497	41.89
698.682	42.11
698.866	41.67
699.051	41.73
699.235	41.4
699.42	41.3
699.604	40.89
699.789	40.81
699.973	40.73
700.158	40.85
700.342	41.09
700.527	41.98
700.711	42.06
700.895	42.44
701.08	42.57
701.264	42.64
701.448	43.29
701.633	43.25
701.817	43.59
702.001	43.91
702.186	44.33
702.37	44.16
702.554	43.7
702.738	42.98
702.923	42.76
703.107	42.51
703.291	42.42
703.475	41.68
703.659	41.86
703.843	42.22
704.027	42.48
704.212	41.92
704.396	42.19
704.58	42.91
704.764	43.54
704.948	43.62
705.132	44.25
705.316	44.21
705.5	44.08
705.684	43.9
705.868	43.55
706.052	43.36
706.235	44.67
706.419	44.07
706.603	44.8
706.787	44.31
706.971	44.77
707.155	43.96
707.339	43.81
707.522	44.21
707.706	44.76
707.89	44.77
708.074	44.58
708.257	43.73
708.441	43.66
708.625	42.38
708.808	42.59
708.992	42.38
709.176	42.6
709.359	43.06
709.543	42.91
709.727	42.94
709.91	43.09
710.094	43.5
710.277	43.37
710.461	43.77
710.644	44.33
710.828	44.61
711.011	44.78
711.195	44.51
711.378	44.23
711.562	44.03
711.745	43.91
711.928	43.68
712.112	43.67
712.295	44.03
712.478	44.08
712.662	44
712.845	44.5
713.028	44.69
713.212	45.01
713.395	45.66
713.578	46.44
713.761	46.07
713.945	46.23
714.128	45.93
714.311	46
714.494	45.62
714.677	45.03
714.86	44.35
715.043	43.76
715.227	44.14
715.41	43.47
715.593	43.16
715.776	44.03
715.959	43.94
716.142	43.35
716.325	43.25
716.508	43.73
716.691	44.23
716.874	44.25
717.057	44.93
717.239	44.49
717.422	44.89
717.605	44.61
717.788	44.33
717.971	45.03
718.154	45.29
718.337	45.36
718.519	45
718.702	44.81
718.885	45.23
719.068	45.05
719.25	45.85
719.433	45.2
719.616	45.75
719.798	45.24
719.981	45.32
720.164	45.5
720.346	45.52
720.529	45.62
720.712	44.76
720.894	44.49
721.077	44.29
721.259	43.83
721.442	44.98
721.624	44.19
721.807	45.11
721.989	44.01
722.172	44.63
722.354	44.77
722.537	44.7
722.719	45.74
722.901	45.01
723.084	44.82
723.266	44.94
723.448	44.89
723.631	46.01
723.813	46.22
723.995	47.23
724.178	46.97
724.36	46.69
724.542	46.77
724.724	47.15
724.907	48.09
725.089	48.48
725.271	48.21
725.453	47.29
725.635	46.69
725.817	47.03
725.999	47.06
726.181	46.93
726.364	46.76
726.546	45.72
726.728	45.1
726.91	44.84
727.092	43.89
727.274	44.39
727.456	45.12
727.638	45.02
727.819	44.08
728.001	42.87
728.183	43.51
728.365	43.52
728.547	44.88
728.729	46.22
728.911	46.37
729.093	46.96
729.274	46.04
729.456	45.81
729.638	45.71
729.82	45.5
730.001	45.7
730.183	45.76
730.365	45.9
730.546	45.4
730.728	44.05
730.91	43.68
731.091	44.2
731.273	44.57
731.455	44.49
731.636	44.9
731.818	45.08
731.999	45.86
732.181	45.43
732.362	45.64
732.544	46.63
732.725	47.01
732.907	47.12
733.088	47.23
733.27	47.78
733.451	47.41
733.633	47.64
733.814	47.85
733.995	47.45
734.177	48.26
734.358	47.94
734.539	47.66
734.721	47.94
734.902	48.17
735.083	48.11
735.264	48.61
735.446	49.28
735.627	47.68
735.808	48.09
735.989	48.09
736.17	46.07
736.351	46.08
736.533	45.81
736.714	46.16
736.895	46.4
737.076	46.44
737.257	46.07
737.438	46.03
737.619	47.11
737.8	46.52
737.981	47.68
738.162	49.35
738.343	49.05
738.524	48.85
738.705	48.47
738.886	48.59
739.067	48.29
739.247	47.68
739.428	47.87
739.609	48.17
739.79	48.62
739.971	47.27
740.151	47.71
740.332	48.48
740.513	48.93
740.694	48.68
740.874	48.47
741.055	48.81
741.236	49.13
741.417	47.94
741.597	47.83
741.778	47.46
741.958	47.77
742.139	48.13
742.32	47.15
742.5	47.51
742.681	48.06
742.861	48.14
743.042	47.23
743.222	46.88
743.403	48.05
743.583	48.41
743.764	48.86
743.944	49.31
744.124	47.6
744.305	48.71
744.485	48.06
744.666	47.5
744.846	47.41
745.026	48.23
745.207	49.02
745.387	49.38
745.567	50.19
745.747	50.16
745.928	50.34
746.108	50.91
746.288	50.74
746.468	50.76
746.648	50.87
746.829	50.84
747.009	51.86
747.189	51.78
747.369	51.65
747.549	50.06
747.729	49.88
747.909	49.28
748.089	48.31
748.269	48.31
748.449	48.77
748.629	48.54
748.809	48.19
748.989	47.1
749.169	45.92
749.349	46.04
749.529	46.57
749.709	45.85
749.889	45.71
750.068	45.82
750.248	46.08
750.428	45.1
750.608	45.73
750.788	46.76
750.967	47.01
751.147	48.05
751.327	47.95
751.507	47.55
751.686	48.84
751.866	50.63
752.046	51.91
752.225	51.44
752.405	52.41
752.585	52.53
752.764	52.21
752.944	51
753.123	51.4
753.303	51.55
753.482	51.84
753.662	50.46
753.841	49.74
754.021	50.94
754.2	51.32
754.38	50.98
754.559	50.9
754.739	50.44
754.918	51.7
755.097	50.89
755.277	50.6
755.456	50.89
755.635	51.75
755.815	50.9
755.994	49.28
756.173	47.84
756.352	47.49
756.532	46.81
756.711	46.92
756.89	46.88
757.069	47.97
757.248	47.72
757.427	47.32
757.607	47.81
757.786	48.09
757.965	47.86
758.144	48.78
758.323	50.06
758.502	51.11
758.681	51.29
758.86	51.33
759.039	50.06
759.218	49.54
759.397	49.65
759.576	48.22
759.755	47.62
759.934	47.82
760.113	48.86
760.291	47.59
760.47	47.62
760.649	47.81
760.828	47.56
761.007	47.23
761.186	48.34
761.364	48.01
761.543	48.81
761.722	48.49
761.901	48.32
762.079	47.51
762.258	47.67
762.437	47.77
762.615	47.3
762.794	47.05
762.972	46.81
763.151	46.71
763.33	46.47
763.508	46.15
763.687	46.21
763.865	46.13
764.044	45.67
764.222	46.31
764.401	46.01
764.579	45.45
764.758	45.29
764.936	46.51
765.114	46.08
765.293	46.37
765.471	47.47
765.65	48.22
765.828	48.3
766.006	48.64
766.184	48.72
766.363	48.06
766.541	49.42
766.719	49.63
766.898	49.48
767.076	50.3
767.254	50.84
767.432	49.89
767.61	49.52
767.788	50.89
767.967	51.57
768.145	50.77
768.323	51.27
768.501	50.26
768.679	51.17
768.857	50.74
769.035	51.17
769.213	51.18
769.391	51.95
769.569	53.88
769.747	53.02
769.925	52.9
770.103	54.27
770.281	53.78
770.459	54.13
770.636	54.05
770.814	54.44
770.992	53.76
771.17	54.43
771.348	55.05
771.525	52.92
771.703	52.37
771.881	52.89
772.059	52.05
772.236	52.57
772.414	52.15
772.592	51.68
772.769	52.58
772.947	53.12
773.125	53.08
773.302	50.97
773.48	51.95
773.657	52.43
773.835	51.85
774.013	51.49
774.19	52.02
774.368	52.85
774.545	51.64
774.723	51.28
774.9	50.42
775.077	50.24
775.255	49.94
775.432	51.11
775.61	50.95
775.787	51.21
775.964	52.53
776.142	52.04
776.319	52.18
776.496	54.09
776.674	54.14
776.851	54.22
777.028	54.42
777.205	56.41
777.382	57.25
777.56	57.41
777.737	60.69
777.914	60
778.091	60.41
778.268	59.77
778.445	59.6
778.622	58.43
778.8	60.16
778.977	61.01
779.154	64.23
779.331	61.18
779.508	60.78
779.685	56.05
779.862	54.78
780.038	55.13
780.215	55.75
780.392	54.8
780.569	55.29
780.746	54.28
780.923	53.53
781.1	49.62
781.277	49.25
781.453	49.44
781.63	50.09
781.807	51.58
781.984	50.23
782.16	48.42
782.337	48.67
782.514	50.03
782.691	49.59
782.867	48.63
783.044	48.22
783.221	49.54
783.397	50.18
783.574	50.12
783.75	50.36
783.927	51.57
784.103	54.59
784.28	53.25
784.456	53.33
784.633	53.49
784.809	53.21
784.986	51.63
785.162	51.02
785.339	50.88
785.515	51.53
785.692	50.35
785.868	50.15
786.044	49.89
786.221	50.08
786.397	48.78
786.573	46.14
786.749	46.52
786.926	47.84
787.102	47.56
787.278	46.75
787.454	45.45
787.631	44.99
787.807	45.1
787.983	45.47
788.159	45.98
788.335	45.56
788.511	47.41
788.687	47.77
788.863	49.89
789.039	49.96
789.216	49.2
789.392	48.91
789.568	51.9
789.744	52.41
789.919	50.98
790.095	50.43
790.271	50.42
790.447	49.94
790.623	48.41
790.799	48.24
790.975	49.5
791.151	50.93
791.327	54.79
791.502	52.01
791.678	51.25
791.854	50.23
792.03	50.84
792.205	51.55
792.381	53
792.557	55.19
792.733	54.63
792.908	54.49
793.084	54.06
793.259	51.66
793.435	53.24
793.611	52.62
793.786	53.72
793.962	53.94
794.137	52.29
794.313	52.26
794.488	51.67
794.664	51.18
794.839	50.63
795.015	50.67
795.19	48.61
795.366	47.63
795.541	46.91
795.716	44.4
795.892	45.58
796.067	47.17
796.242	45.12
796.418	44.48
796.593	47.01
796.768	48.99
796.944	48.59
797.119	52.37
797.294	53.08
797.469	55.09
797.644	58.72
797.82	57.38
797.995	58.12
798.17	60.01
798.345	61.41
798.52	57.51
798.695	55.9
798.87	56
799.045	54.28
799.22	52.98
799.395	53.34
799.57	52.58
799.745	52.56
799.92	52.07
800.095	53.81
800.27	51.61
800.445	52.65
800.62	54.1
800.795	54.39
800.97	54.98
801.145	55.08
801.319	53.74
801.494	52.4
801.669	53.17
801.844	54.22
802.018	50.76
802.193	52.74
802.368	48.79
802.543	48.35
802.717	49.42
802.892	48.78
803.067	48.36
803.241	47.69
803.416	47.79
803.59	48.67
803.765	49.99
803.94	51.52
804.114	47.12
804.289	51.73
804.463	49.93
804.638	47.6
804.812	47.24
804.986	46.79
805.161	47.81
805.335	48.21
805.51	46.86
805.684	44.22
805.858	43.88
806.033	47.91
806.207	48.59
806.381	48.81
806.556	51.1
806.73	52.33
806.904	56.21
807.078	56.27
807.253	57.29
807.427	58.92
807.601	58.41
807.775	60.15
807.949	59.18
808.123	57.32
808.298	57.77
808.472	59.67
808.646	59.34
808.82	57.51
808.994	57.18
809.168	55.93
809.342	57.03
809.516	58.34
809.69	59.58
809.864	57.38
810.038	60.14
810.212	60.4
810.385	56
810.559	57.33
810.733	57.29
810.907	58.76
811.081	59.46
811.255	55.99
811.428	58
811.602	55.17
811.776	55.39
811.95	51.71
812.123	51.38
812.297	54.63
812.471	53.81
812.644	53.83
812.818	52.39
812.992	52.22
813.165	53.34
813.339	50.15
813.512	48.35
813.686	51
813.86	51.1
814.033	52.63
814.207	51.86
814.38	51.55
814.554	52.4
814.727	53.67
814.9	53.13
815.074	50.1
815.247	49.81
815.421	51.42
815.594	53.08
815.767	56.75
815.941	55.96
816.114	55.84
816.287	56.02
816.46	55.15
816.634	53.93
816.807	55.23
816.98	57.89
817.153	59.58
817.327	58.09
817.5	53.43
817.673	52.51
817.846	51.51
818.019	54.49
818.192	55.32
818.365	57.59
818.538	58.17
818.711	57.73
818.884	57.8
819.057	55.83
819.23	56.76
819.403	58.87
819.576	56.75
819.749	56.91
819.922	53.65
820.095	53.66
820.268	51.28
820.441	51.86
820.614	51.33
820.786	50.11
820.959	50.34
821.132	51.71
821.305	52.53
821.477	51.74
821.65	50.5
821.823	50.57
821.996	49.53
822.168	49.12
822.341	47.95
822.514	48.48
822.686	48.83
822.859	48.85
823.031	47.91
823.204	47.39
823.376	47.91
823.549	47.91
823.722	47.61
823.894	47.84
824.067	47.47
824.239	47.6
824.411	47.42
824.584	47.75
824.756	47.76
824.929	47.93
825.101	48.12
825.273	47.71
825.446	48.14
825.618	48.44
825.79	48.43
825.963	48.65
826.135	49.33
826.307	49.66
826.479	49.52
826.652	49.62
826.824	50.39
826.996	49.46
827.168	48.74
827.34	48.88
827.512	48.17
827.684	48.13
827.856	49.01
828.029	48.25
828.201	47.11
828.373	47.19
828.545	46.27
828.717	45.72
828.889	47.58
829.061	49.14
829.232	49.99
829.404	51.38
829.576	51.73
829.748	51.64
829.92	52.43
830.092	54.47
830.264	53.91
830.436	55.9
830.607	56.33
830.779	55.33
830.951	56.44
831.123	56.42
831.294	55.37
831.466	55.86
831.638	56.05
831.809	56.05
831.981	55.66
832.153	56.34
832.324	54.4
832.496	54.41
832.667	55.07
832.839	53.26
833.011	54.71
833.182	55.74
833.354	53.7
833.525	51.71
833.697	52.02
833.868	51.76
834.039	50.75
834.211	51.91
834.382	51.24
834.554	50.95
834.725	51.49
834.896	50
835.068	49.93
835.239	51.07
835.41	52.88
835.581	52.57
835.753	51.64
835.924	53.21
836.095	53.05
836.266	53.48
836.438	52.68
836.609	50.15
836.78	48.93
836.951	48.23
837.122	47.34
837.293	46.44
837.464	47.38
837.635	49.05
837.806	47.73
837.977	46.44
838.148	46.52
838.319	47.78
838.49	51.67
838.661	51.95
838.832	54.22
839.003	56.07
839.174	59.02
839.345	57.85
839.516	58.21
839.687	59.19
839.857	60.63
840.028	56.85
840.199	55.98
840.37	57.3
840.54	63.22
840.711	58.24
840.882	57.14
841.053	57.27
841.223	54.91
841.394	53.25
841.564	60.53
841.735	62.88
841.906	69.19
842.076	70.6
842.247	69.28
842.417	64.06
842.588	68.13
842.758	70.89
842.929	68.47
843.099	72.08
843.27	75.39
843.44	70.2
843.611	68.73
843.781	64.58
843.951	67.53
844.122	68.8
844.292	71.22
844.462	71.73
844.633	67.71
844.803	64.02
844.973	62.08
845.144	58.51
845.314	52.06
845.484	56.98
845.654	63.4
845.824	65.35
845.995	60.22
846.165	64.35
846.335	65.37
846.505	66.3
846.675	77.27
846.845	92.91
847.015	100.46
847.185	111.45
847.355	108.73
847.525	105.6
847.695	104.59
847.865	109.81
848.035	107.57
848.205	110.28
848.375	109.49
848.545	107.42
848.715	97.33
848.884	88.62
849.054	86.98
849.224	84.76
849.394	83.33
849.564	83.77
849.733	83.29
849.903	80.93
850.073	84.84
850.243	100.37
850.412	86.19
850.582	80.16
850.752	88.75
850.921	83.98
851.091	92.57
851.26	92.9
851.43	90.17
851.599	96.03
851.769	95.49
851.939	86.95
852.108	79.06
852.278	86.97
852.447	89.57
852.616	82.09
852.786	82.9
852.955	82.36
853.125	91.16
853.294	88.24
853.463	79.31
853.633	81.04
853.802	91.86
853.971	92.32
854.141	90.78
854.31	90.95
854.479	99.73
854.648	105.73
854.818	96.84
854.987	91.94
855.156	92.79
855.325	97.05
855.494	92.76
855.663	88.04
855.832	80.01
856.001	87.35
856.171	91.99
856.34	84.8
856.509	83.79
856.678	85.87
856.847	73.35
857.016	71.94
857.185	74.16
857.353	74.4
857.522	65.5
857.691	65.15
857.86	61.06
858.029	59.59
858.198	58.27
858.367	60.33
858.535	60.33
858.704	62.85
858.873	66.05
859.042	54.54
859.21	67.3
859.379	72.22
859.548	79.22
859.717	85.46
859.885	83.19
860.054	88.73
860.222	80.4
860.391	82.94
860.56	83.06
860.728	83.24
860.897	87.15
861.065	75.38
861.234	70.18
861.402	71.08
861.571	69.31
861.739	71.42
861.908	67.71
862.076	78.18
862.244	75.18
862.413	81.72
862.581	91.86
862.749	93.02
862.918	102.93
863.086	110.8
863.254	98.6
863.423	105.38
863.591	101.89
863.759	106.52
863.927	96.6
864.096	94.02
864.264	101.99
864.432	85.12
864.6	90.96
864.768	91.94
864.936	100.47
865.104	101.51
865.272	96.09
865.44	90.68
865.608	85.86
865.776	87.62
865.944	90.25
866.112	77.48
866.28	79.54
866.448	71.79
866.616	57.8
866.784	60.92
866.952	50.64
867.12	52.71
867.288	57.33
867.455	60.32
867.623	65.24
867.791	60.68
867.959	65.96
868.127	69.83
868.294	74
868.462	81.83
868.63	66.11
868.797	67.93
868.965	69.47
869.133	63.86
869.3	68.82
869.468	62.76
869.636	65.35
869.803	60.34
869.971	62.9
870.138	66.23
870.306	61.29
870.473	73.26
870.641	76.05
870.808	77.1
870.975	77.94
871.143	70.02
871.31	65.75
871.478	69.29
871.645	67.35
871.812	57.05
871.98	60.14
872.147	66.3
872.314	66.91
872.482	75.09
872.649	76.34
872.816	74.32
872.983	84.83
873.15	87.81
873.318	87.55
873.485	99.37
873.652	92.02
873.819	92.71
873.986	86.33
874.153	84.49
874.32	78.68
874.487	76.08
874.654	76.61
874.821	65.68
874.988	70.83
875.155	67.74
875.322	60.68
875.489	70.66
875.656	72.08
875.823	80.36
875.99	86.72
876.157	96.8
876.324	92.31
876.49	94.17
876.657	99.32
876.824	98.65
876.991	103.59
877.157	110.82
877.324	103.96
877.491	99.74
877.658	96.74
877.824	96.89
877.991	82.54
878.157	75.92
878.324	80.75
878.491	88.69
878.657	96.97
878.824	91
878.99	74.6
879.157	71.84
879.323	66.49
879.49	67.44
879.656	70.45
879.823	71.56
879.989	68.96
880.156	68.65
880.322	65.61
880.488	62.46
880.655	65.79
880.821	79.14
880.987	75.48
881.154	74.13
881.32	72.96
881.486	66.01
881.652	65.65
881.819	67.63
881.985	71.15
882.151	68.47
882.317	66.01
882.483	62.25
882.649	60.47
882.816	63.33
882.982	61.8
883.148	59.3
883.314	59.13
883.48	58.55
883.646	58.57
883.812	56.62
883.978	56.86
884.144	56.04
884.31	57.21
884.476	56.22
884.642	54.5
884.807	55.14
884.973	53.82
885.139	52.99
885.305	53.99
885.471	54.86
885.637	53.31
885.802	53.95
885.968	53.58
886.134	53.26
886.3	53.48
886.465	55.07
886.631	54.91
886.797	60
886.962	62.55
887.128	62.88
887.293	62.47
887.459	64.21
887.625	62.3
887.79	65.22
887.956	63.7
888.121	65.09
888.287	62.51
888.452	62.2
888.618	57.88
888.783	57.31
