Data from LC_264_Reflection_2.txt Node
Date: Sat Nov 21 11:47:33 EST 2015
User: robert
Spectrometer: USB4E03001
Autoset integration time: false
Trigger mode: 4
Integration Time (sec): 1.000000E-1
Scans to average: 15
Electric dark correction enabled: true
Nonlinearity correction enabled: false
Boxcar width: 5
Stray light correction enabled: false
XAxis mode: Wavelengths
Stop averaging: false
Number of Pixels in Spectrum: 3648
>>>>>Begin Spectral Data<<<<<
177.566	332.21
177.785	251.26
178.005	528.13
178.225	-75.16
178.445	-72.6
178.665	-340.59
178.885	-787.11
179.105	-260.1
179.324	-91.99
179.544	-80.72
179.764	-420.32
179.984	-36.55
180.204	-4.53
180.423	42.41
180.643	64.78
180.863	124.58
181.083	158.29
181.302	162.41
181.522	164.79
181.742	177.59
181.961	133.66
182.181	118.66
182.401	251.64
182.621	213.74
182.84	191.64
183.06	159.46
183.279	122.83
183.499	87.91
183.719	79.18
183.938	66.59
184.158	84.67
184.377	82.37
184.597	85
184.816	76.88
185.036	87.09
185.256	87.94
185.475	71.75
185.695	64.5
185.914	74.55
186.134	83
186.353	89.81
186.572	80.36
186.792	78.09
187.011	81.69
187.231	83.79
187.45	72.13
187.67	80.5
187.889	99.5
188.108	132.38
188.328	156.24
188.547	163.14
188.766	171.45
188.986	214.12
189.205	333.6
189.424	319.73
189.644	148.9
189.863	173.55
190.082	271.04
190.302	-730.66
190.521	-101.96
190.74	-65.83
190.959	-90.99
191.178	-92.33
191.398	-66.11
191.617	-58.86
191.836	-22.75
192.055	-50.66
192.274	-3.36
192.494	-16.79
192.713	-10.34
192.932	3.75
193.151	-9.24
193.37	12.18
193.589	36.66
193.808	52.66
194.027	51.06
194.246	51.33
194.465	59.11
194.685	83.99
194.904	86.81
195.123	101.45
195.342	123.95
195.561	141.06
195.78	91.53
195.999	85.91
196.218	107.64
196.436	143.06
196.655	103.21
196.874	105.67
197.093	100.85
197.312	140.64
197.531	122.61
197.75	68.15
197.969	82.72
198.188	114.18
198.407	109.59
198.625	77.77
198.844	76.88
199.063	93.66
199.282	99.2
199.501	90.89
199.719	88.21
199.938	92.31
200.157	99.1
200.376	102.24
200.594	108.39
200.813	79.2
201.032	99.47
201.251	74.23
201.469	80.24
201.688	101.26
201.907	100.66
202.125	65.56
202.344	68.85
202.563	96.31
202.781	70.26
203	55.71
203.218	82.62
203.437	104.62
203.656	232.08
203.874	203.52
204.093	131.52
204.311	133.95
204.53	243.46
204.748	253.31
204.967	246.56
205.185	192.24
205.404	204.22
205.622	433.1
205.841	332.94
206.059	234.87
206.278	257.34
206.496	207.34
206.715	285.91
206.933	174.5
207.151	131.53
207.37	84.71
207.588	109.69
207.806	130.18
208.025	72.67
208.243	51.75
208.461	63.08
208.68	89.67
208.898	134.89
209.116	118.46
209.335	135.02
209.553	123.37
209.771	173.75
209.989	156.66
210.208	156.01
210.426	175.31
210.644	190.71
210.862	218.97
211.081	87.82
211.299	47.84
211.517	66.49
211.735	30.79
211.953	68.33
212.171	65.27
212.39	71.78
212.608	67.31
212.826	77.32
213.044	75.4
213.262	75.42
213.48	83.76
213.698	77.48
213.916	76.45
214.134	81.33
214.352	83.63
214.57	72.95
214.788	70.13
215.006	82.49
215.224	77.73
215.442	74.71
215.66	97.54
215.878	82.84
216.096	101.9
216.314	114.05
216.532	111.05
216.75	95.85
216.968	107.23
217.185	104.86
217.403	99.42
217.621	102.11
217.839	105.78
218.057	92.24
218.275	81.07
218.492	70.36
218.71	53.73
218.928	65.79
219.146	66.49
219.363	63.1
219.581	57
219.799	31.78
220.017	33.19
220.234	34.93
220.452	19.43
220.67	63.44
220.887	79.77
221.105	80.69
221.323	87.78
221.54	76.97
221.758	55.35
221.976	64.09
222.193	65.61
222.411	74.27
222.629	66.17
222.846	94.24
223.064	62.97
223.281	48.92
223.499	32.39
223.716	39.12
223.934	40.15
224.151	50.37
224.369	29.09
224.586	36.06
224.804	30.83
225.021	26.86
225.239	24.44
225.456	27.38
225.674	30.44
225.891	38.88
226.108	36.13
226.326	42.09
226.543	35.67
226.76	40.17
226.978	37.2
227.195	38.08
227.413	34.2
227.63	32.28
227.847	30.88
228.064	30.24
228.282	27.41
228.499	23.79
228.716	20.85
228.934	19.08
229.151	20.25
229.368	17.44
229.585	17.53
229.802	19.85
230.02	19.3
230.237	20.79
230.454	21.1
230.671	22.53
230.888	23.7
231.105	25.27
231.323	28.14
231.54	29.59
231.757	34.38
231.974	34.91
232.191	30.97
232.408	33.23
232.625	29.57
232.842	27
233.059	24.09
233.276	25.28
233.493	28.61
233.71	33.95
233.927	26.28
234.144	24.44
234.361	28.22
234.578	29.79
234.795	26.95
235.012	29.69
235.229	35.11
235.446	34.27
235.663	32.76
235.879	24.7
236.096	19.07
236.313	26.69
236.53	25.59
236.747	21.27
236.964	19.96
237.181	20.47
237.397	18.31
237.614	9.19
237.831	9.98
238.048	11.75
238.264	17.83
238.481	18.89
238.698	12.81
238.915	12.5
239.131	9.4
239.348	10.87
239.565	11.12
239.781	11.46
239.998	13.18
240.215	11.23
240.431	5.46
240.648	3.83
240.865	3.98
241.081	4.08
241.298	7.47
241.514	11.73
241.731	11.87
241.947	14.55
242.164	15.86
242.38	15.59
242.597	17.66
242.814	18.23
243.03	19.58
243.246	20.14
243.463	20.23
243.679	21.45
243.896	20.36
244.112	21.51
244.329	20.84
244.545	20.86
244.762	23.71
244.978	22.55
245.194	22.36
245.411	22.17
245.627	21.64
245.843	20.64
246.06	19.12
246.276	18.32
246.492	17.7
246.709	16.29
246.925	16.15
247.141	15.31
247.357	15.41
247.574	15.22
247.79	14.05
248.006	14.23
248.222	14.1
248.439	14.33
248.655	14.84
248.871	14.87
249.087	16.08
249.303	15.5
249.519	14.66
249.736	15.65
249.952	17.61
250.168	19.17
250.384	18.2
250.6	18.68
250.816	17.86
251.032	18.91
251.248	18.61
251.464	17.69
251.68	19.75
251.896	20.39
252.112	18.16
252.328	16.04
252.544	16.29
252.76	16.24
252.976	16.65
253.192	17.33
253.408	17.07
253.624	16.73
253.84	18.83
254.056	16.74
254.272	14.45
254.487	14.93
254.703	17.59
254.919	18.27
255.135	20.31
255.351	21
255.567	17.79
255.782	14.36
255.998	16.21
256.214	10.97
256.43	14.22
256.646	15.99
256.861	14.22
257.077	14.03
257.293	15.22
257.508	14.29
257.724	15.3
257.94	16.84
258.155	18.85
258.371	16.88
258.587	16.73
258.802	15.05
259.018	15.71
259.234	15.61
259.449	14.98
259.665	13.83
259.88	14.19
260.096	13.35
260.312	13.79
260.527	13.07
260.743	13.39
260.958	13.26
261.174	12.72
261.389	12.56
261.605	13.21
261.82	13.46
262.036	14.34
262.251	12.68
262.466	13.25
262.682	10.6
262.897	10.07
263.113	10.65
263.328	12.63
263.543	14.16
263.759	13.53
263.974	13.96
264.189	14.13
264.405	14.04
264.62	16.43
264.835	16.26
265.051	19.15
265.266	20.42
265.481	18.16
265.696	17.83
265.912	17.75
266.127	16.46
266.342	15.58
266.557	15.17
266.773	14.34
266.988	14.29
267.203	14.04
267.418	11.93
267.633	11.22
267.848	11.78
268.064	10.93
268.279	9.96
268.494	11.28
268.709	12.56
268.924	11.67
269.139	11.92
269.354	10.56
269.569	9.85
269.784	11.79
269.999	11.02
270.214	12.26
270.429	12.81
270.644	13.03
270.859	11.84
271.074	9.76
271.289	9.69
271.504	9.07
271.719	10.25
271.934	12.28
272.149	11.2
272.363	11.64
272.578	10.49
272.793	10.57
273.008	11.77
273.223	12.43
273.438	13.65
273.653	15.58
273.867	16.61
274.082	17.07
274.297	14.82
274.512	15.6
274.726	16.17
274.941	16.94
275.156	17.36
275.371	15.68
275.585	15.99
275.8	14.65
276.015	13.04
276.229	12.5
276.444	12.38
276.659	13.29
276.873	13.68
277.088	13.04
277.302	12.19
277.517	12.25
277.732	12.36
277.946	10.91
278.161	10.85
278.375	10.62
278.59	10.87
278.804	10.18
279.019	10.54
279.233	10.33
279.448	10.31
279.662	10.64
279.877	9.34
280.091	10.35
280.306	10.81
280.52	11.24
280.735	11.55
280.949	10.12
281.163	10.14
281.378	9.01
281.592	8.28
281.806	8.88
282.021	9.06
282.235	9.76
282.449	10.01
282.664	10.37
282.878	11.35
283.092	12.1
283.307	12.67
283.521	12.01
283.735	12.56
283.949	13.23
284.164	12.27
284.378	12.1
284.592	10.79
284.806	10.6
285.02	10.98
285.234	10.58
285.449	9.21
285.663	9.63
285.877	10.45
286.091	11.89
286.305	11.44
286.519	12.51
286.733	12.71
286.947	13.41
287.161	13.53
287.375	12.74
287.589	12.91
287.803	13.6
288.017	13.86
288.231	13.46
288.445	12.3
288.659	12.17
288.873	11.24
289.087	10.69
289.301	11.08
289.515	10.8
289.729	12.24
289.943	12.1
290.157	12.28
290.371	12.42
290.584	13.02
290.798	12.95
291.012	13.43
291.226	13.79
291.44	14.09
291.654	14.02
291.867	14.44
292.081	14.34
292.295	14.89
292.509	15
292.722	14.64
292.936	14.02
293.15	14
293.364	13.98
293.577	14.16
293.791	14.4
294.005	14.42
294.218	13.58
294.432	12.21
294.645	11.7
294.859	11.39
295.073	10.21
295.286	10.32
295.5	11.54
295.713	11.2
295.927	10.75
296.14	11.09
296.354	11.37
296.568	11.77
296.781	12.85
296.994	12.81
297.208	12.33
297.421	13.88
297.635	13.81
297.848	12.83
298.062	13.44
298.275	13.49
298.489	13.45
298.702	12.85
298.915	12.89
299.129	12.59
299.342	12.25
299.555	12.45
299.769	11.81
299.982	12
300.195	12.22
300.409	11.55
300.622	12.17
300.835	12.52
301.048	13.29
301.262	12.95
301.475	12.74
301.688	13.24
301.901	14.37
302.115	14.65
302.328	15.1
302.541	15.4
302.754	16.22
302.967	16.13
303.18	16.82
303.393	16.57
303.607	16.51
303.82	16.79
304.033	15.84
304.246	15.74
304.459	16.26
304.672	16.14
304.885	17.25
305.098	16.96
305.311	16.66
305.524	15.1
305.737	15.4
305.95	15.58
306.163	14.95
306.376	16.05
306.589	16.12
306.802	15.13
307.015	13.73
307.228	12.64
307.44	12.11
307.653	13.16
307.866	14.74
308.079	13.38
308.292	12.76
308.505	13.87
308.718	14
308.93	13.97
309.143	12.82
309.356	13.3
309.569	12.86
309.781	13.32
309.994	13
310.207	12.37
310.42	13.07
310.632	13.27
310.845	12.7
311.058	12.38
311.27	12.2
311.483	13.36
311.696	13.46
311.908	13.86
312.121	13.02
312.333	13.83
312.546	14.35
312.759	15.37
312.971	16.37
313.184	17.09
313.396	17.67
313.609	16.92
313.821	16.19
314.034	17.62
314.246	18
314.459	20.04
314.671	18.44
314.884	17.7
315.096	16.94
315.309	15.27
315.521	14.92
315.733	15.65
315.946	17.44
316.158	17.26
316.371	16.83
316.583	16.29
316.795	15.54
317.008	16.3
317.22	16.27
317.432	16.31
317.644	17.54
317.857	17.56
318.069	15.81
318.281	14.47
318.494	15.53
318.706	14.75
318.918	15
319.13	13.84
319.342	14.06
319.555	14.09
319.767	13.45
319.979	14.04
320.191	13.83
320.403	14.39
320.615	13.99
320.827	13.66
321.039	13.52
321.252	12.58
321.464	12.71
321.676	11.88
321.888	13.06
322.1	12.72
322.312	12.2
322.524	11.78
322.736	12.12
322.948	14.4
323.16	14
323.372	13.65
323.584	14.53
323.796	15.53
324.007	15.87
324.219	14.76
324.431	15.52
324.643	16.02
324.855	16.09
325.067	16.69
325.279	16.14
325.491	16.88
325.702	17.41
325.914	17.08
326.126	16.27
326.338	16
326.55	15.95
326.761	15.53
326.973	15.58
327.185	16.34
327.396	15.68
327.608	14.59
327.82	14.06
328.032	14.28
328.243	14.26
328.455	15.3
328.666	15.8
328.878	17.38
329.09	17.58
329.301	17.21
329.513	17
329.725	18.12
329.936	19.02
330.148	19.52
330.359	20.3
330.571	20.6
330.782	20.5
330.994	20.32
331.205	20.11
331.417	20.53
331.628	20.88
331.84	21.87
332.051	21.38
332.262	21.31
332.474	21.39
332.685	20.52
332.897	21.23
333.108	20.77
333.319	21
333.531	20.42
333.742	20.05
333.953	19.49
334.165	18.66
334.376	17.8
334.587	18.23
334.799	18.68
335.01	19.22
335.221	18.96
335.432	19.07
335.644	19.11
335.855	19.74
336.066	20.89
336.277	21.52
336.488	21.89
336.7	22.08
336.911	21.73
337.122	21.24
337.333	21.66
337.544	21.56
337.755	21.91
337.966	21.93
338.177	21.68
338.388	20.89
338.599	20.67
338.811	20.49
339.022	21.15
339.233	21.71
339.444	21.69
339.655	21.46
339.866	21.65
340.076	21.11
340.287	20.96
340.498	20.65
340.709	21.16
340.92	21.34
341.131	21.39
341.342	22.02
341.553	21.69
341.764	21.49
341.975	21.28
342.185	20.33
342.396	21.01
342.607	21.28
342.818	21.36
343.029	21.01
343.239	21.45
343.45	20.31
343.661	20.19
343.872	19.97
344.082	20.45
344.293	20.64
344.504	21.65
344.714	20.97
344.925	20.66
345.136	20.63
345.346	20.81
345.557	20.39
345.768	21.42
345.978	20.2
346.189	19.93
346.399	19.67
346.61	20.24
346.821	20.08
347.031	20.38
347.242	20.78
347.452	20.43
347.663	20.69
347.873	20.88
348.084	21.25
348.294	21.66
348.504	21.85
348.715	21.87
348.925	20.53
349.136	19.89
349.346	20.3
349.557	19.61
349.767	19.82
349.977	19.19
350.188	18.3
350.398	17.59
350.608	17.5
350.819	18.24
351.029	17.91
351.239	18.22
351.449	19.18
351.66	18.81
351.87	19.56
352.08	19.73
352.29	19.98
352.501	19.93
352.711	19.95
352.921	20.17
353.131	19.45
353.341	20
353.552	19.6
353.762	18.57
353.972	18.69
354.182	18.21
354.392	18.16
354.602	18.15
354.812	18.41
355.022	18.64
355.232	18.55
355.442	18.8
355.652	18.56
355.862	19.02
356.072	19.35
356.282	18.18
356.492	18.09
356.702	17.76
356.912	18.02
357.122	18.16
357.332	17.66
357.542	17.59
357.752	17.85
357.962	17.85
358.171	17.88
358.381	17.84
358.591	18.49
358.801	19.03
359.011	19.43
359.221	18.62
359.43	18.46
359.64	19.02
359.85	18.75
360.06	18.38
360.269	18.58
360.479	18.22
360.689	17.75
360.899	18.3
361.108	17.49
361.318	17.21
361.528	17.69
361.737	17.4
361.947	17.51
362.156	17.97
362.366	17.81
362.576	17.16
362.785	17.26
362.995	18.08
363.204	17.46
363.414	17.88
363.623	18.31
363.833	18.06
364.042	18.63
364.252	18.38
364.461	18.09
364.671	18.19
364.88	18.62
365.09	18.29
365.299	17.85
365.509	18.1
365.718	18.34
365.927	18.27
366.137	17.79
366.346	17.88
366.555	17.7
366.765	17.84
366.974	18.21
367.183	18.15
367.393	18.61
367.602	18.78
367.811	19.1
368.021	18.82
368.23	18.53
368.439	18.63
368.648	18.09
368.857	17.85
369.067	17.46
369.276	17.71
369.485	17.7
369.694	17.53
369.903	17.07
370.112	16.88
370.321	16.93
370.531	16.25
370.74	16.59
370.949	16.93
371.158	17.25
371.367	17.38
371.576	16.78
371.785	16.9
371.994	16.87
372.203	16.67
372.412	16.78
372.621	16.43
372.83	16.39
373.039	16.62
373.248	16.59
373.457	16.43
373.666	16.16
373.874	15.21
374.083	14.8
374.292	14.47
374.501	14.95
374.71	14.19
374.919	14.17
375.128	14.99
375.336	14.65
375.545	14.47
375.754	14.37
375.963	14.61
376.171	15.06
376.38	15.34
376.589	15.29
376.798	14.8
377.006	15.1
377.215	14.99
377.424	14.88
377.632	15.04
377.841	14.95
378.05	14.85
378.258	14.67
378.467	14.79
378.675	14.77
378.884	14.76
379.093	15.05
379.301	15.08
379.51	15.45
379.718	15.9
379.927	15.91
380.135	15.85
380.344	15.98
380.552	15.83
380.761	15.81
380.969	15.76
381.177	15.87
381.386	15.79
381.594	15.87
381.803	15.49
382.011	14.67
382.219	14.57
382.428	14.56
382.636	14.33
382.845	14.29
383.053	14.4
383.261	14.57
383.469	14.57
383.678	14.57
383.886	14.34
384.094	14.19
384.302	13.96
384.511	13.83
384.719	13.73
384.927	14
385.135	14.21
385.343	14.12
385.552	14.07
385.76	14.21
385.968	14.05
386.176	14.07
386.384	14.32
386.592	14.4
386.8	14.14
387.008	14.46
387.216	14.44
387.424	14.36
387.633	14.12
387.841	13.74
388.049	13.6
388.257	13.3
388.465	13.1
388.672	12.98
388.88	12.7
389.088	12.56
389.296	12.31
389.504	11.72
389.712	11.52
389.92	11.51
390.128	11.23
390.336	11.18
390.544	11.48
390.751	11.69
390.959	11.91
391.167	12.36
391.375	12.46
391.583	12.18
391.79	12.45
391.998	12.57
392.206	12.74
392.414	12.68
392.621	12.4
392.829	12.12
393.037	12.12
393.244	12
393.452	11.61
393.66	11.82
393.867	12.06
394.075	12.37
394.283	12.1
394.49	12.11
394.698	12.45
394.905	12.62
395.113	12.72
395.32	12.73
395.528	12.51
395.735	12.33
395.943	12.28
396.15	12.17
396.358	11.69
396.565	12.09
396.773	12.22
396.98	12.32
397.188	12.38
397.395	12.31
397.602	12.22
397.81	12.53
398.017	12.86
398.225	12.86
398.432	13.04
398.639	13.08
398.847	12.83
399.054	12.64
399.261	12.58
399.468	12.75
399.676	12.97
399.883	12.81
400.09	12.81
400.297	12.91
400.505	12.52
400.712	12.33
400.919	12.06
401.126	12.27
401.333	12.33
401.54	12.35
401.748	12.07
401.955	12.13
402.162	12.44
402.369	12.04
402.576	11.63
402.783	11.99
402.99	11.9
403.197	12.23
403.404	12.12
403.611	11.88
403.818	11.83
404.025	11.74
404.232	11.68
404.439	11.43
404.646	11.51
404.853	11.93
405.06	11.96
405.267	12.35
405.474	12.27
405.681	12.28
405.887	12.35
406.094	12.38
406.301	12.34
406.508	12.15
406.715	12.2
406.922	12.24
407.128	12.2
407.335	12.08
407.542	11.97
407.749	12.02
407.955	11.84
408.162	11.71
408.369	11.57
408.575	11.66
408.782	11.78
408.989	11.78
409.195	11.65
409.402	11.55
409.609	11.66
409.815	11.02
410.022	11.29
410.228	11.44
410.435	11.47
410.642	11.47
410.848	11.61
411.055	11.68
411.261	11.53
411.468	11.52
411.674	11.3
411.881	11.02
412.087	11.32
412.294	11.37
412.5	11.31
412.706	11.36
412.913	11.25
413.119	11.24
413.326	11.12
413.532	11.24
413.738	11.55
413.945	11.86
414.151	12.15
414.357	12.26
414.564	12.16
414.77	12.3
414.976	12.34
415.182	12.36
415.389	12.35
415.595	12.35
415.801	12.09
416.007	11.74
416.214	11.67
416.42	11.48
416.626	11.71
416.832	11.47
417.038	11.36
417.244	11.38
417.45	11.39
417.657	11.18
417.863	11.26
418.069	11.6
418.275	11.75
418.481	11.64
418.687	11.56
418.893	11.22
419.099	11.06
419.305	10.96
419.511	10.96
419.717	11.02
419.923	11.16
420.129	11.15
420.335	11.05
420.541	11.02
420.746	11.01
420.952	11.04
421.158	11.12
421.364	11.27
421.57	11.36
421.776	11.31
421.982	11.28
422.187	11.17
422.393	11.13
422.599	11
422.805	11.16
423.01	11.2
423.216	11.3
423.422	11.3
423.628	11.32
423.833	11.28
424.039	11.42
424.245	11.43
424.45	11.55
424.656	11.5
424.862	11.6
425.067	11.46
425.273	11.52
425.478	11.53
425.684	11.6
425.889	11.55
426.095	11.61
426.301	11.54
426.506	11.49
426.712	11.23
426.917	11.18
427.123	11.08
427.328	11.14
427.533	11.2
427.739	11.17
427.944	11.03
428.15	11.02
428.355	11.12
428.561	11.27
428.766	11.41
428.971	11.68
429.177	11.88
429.382	12.19
429.587	11.97
429.793	11.86
429.998	12.01
430.203	12.08
430.408	12.04
430.614	11.75
430.819	11.49
431.024	11.43
431.229	11.3
431.434	11.09
431.64	10.79
431.845	10.89
432.05	10.86
432.255	10.66
432.46	10.67
432.665	10.62
432.87	10.56
433.076	10.6
433.281	10.51
433.486	10.52
433.691	10.72
433.896	10.83
434.101	10.7
434.306	10.68
434.511	10.73
434.716	10.64
434.921	10.71
435.126	10.95
435.331	11.03
435.535	11.14
435.74	11.06
435.945	11.04
436.15	10.94
436.355	11.14
436.56	11.24
436.765	11.29
436.97	11.26
437.174	11.39
437.379	11.36
437.584	11.2
437.789	11.02
437.993	11.22
438.198	11.11
438.403	11.14
438.608	11.18
438.812	11.08
439.017	10.96
439.222	11.19
439.426	11.07
439.631	11.1
439.836	11.19
440.04	11.28
440.245	11.29
440.45	11.32
440.654	11.3
440.859	11.17
441.063	11.11
441.268	11.12
441.472	11.06
441.677	11.14
441.881	11.16
442.086	11.08
442.29	11.19
442.495	11.16
442.699	11.12
442.904	11.2
443.108	11.23
443.312	11.28
443.517	11.34
443.721	11.33
443.925	11.12
444.13	10.84
444.334	10.87
444.538	10.74
444.743	10.6
444.947	10.61
445.151	10.49
445.356	10.42
445.56	10.44
445.764	10.36
445.968	10.36
446.173	10.47
446.377	10.65
446.581	10.69
446.785	10.74
446.989	10.78
447.193	10.91
447.398	10.95
447.602	10.97
447.806	10.97
448.01	11
448.214	10.94
448.418	10.82
448.622	10.82
448.826	10.72
449.03	10.68
449.234	10.56
449.438	10.39
449.642	10.35
449.846	10.45
450.05	10.51
450.254	10.5
450.458	10.51
450.662	10.83
450.866	10.64
451.069	10.78
451.273	10.8
451.477	10.9
451.681	10.84
451.885	10.85
452.089	10.61
452.292	10.63
452.496	10.57
452.7	10.63
452.904	10.29
453.107	10.31
453.311	10.27
453.515	10.13
453.719	10.24
453.922	10.47
454.126	10.41
454.33	10.7
454.533	10.6
454.737	10.72
454.94	10.81
455.144	11.04
455.348	11.12
455.551	11.06
455.755	11.12
455.958	11.1
456.162	10.94
456.365	10.95
456.569	10.9
456.772	10.79
456.976	10.78
457.179	10.57
457.383	10.51
457.586	10.42
457.79	10.4
457.993	10.38
458.196	10.31
458.4	10.37
458.603	10.47
458.807	10.43
459.01	10.56
459.213	10.55
459.417	10.58
459.62	10.59
459.823	10.72
460.026	10.74
460.23	10.68
460.433	10.72
460.636	10.76
460.839	10.72
461.042	10.82
461.246	10.74
461.449	10.79
461.652	10.78
461.855	10.84
462.058	10.74
462.261	10.77
462.464	10.91
462.668	10.9
462.871	10.89
463.074	10.81
463.277	10.74
463.48	10.75
463.683	10.63
463.886	10.72
464.089	10.68
464.292	10.58
464.495	10.41
464.698	10.53
464.901	10.53
465.104	10.6
465.306	10.83
465.509	10.82
465.712	11
465.915	10.99
466.118	10.88
466.321	10.75
466.524	10.93
466.726	11.04
466.929	10.96
467.132	10.94
467.335	10.85
467.538	10.72
467.74	10.68
467.943	10.72
468.146	10.9
468.348	10.94
468.551	11.02
468.754	11.06
468.956	11.08
469.159	11.14
469.362	11.18
469.564	11.11
469.767	11.23
469.969	11.23
470.172	11.02
470.375	10.82
470.577	10.95
470.78	10.85
470.982	10.78
471.185	10.82
471.387	10.81
471.59	10.74
471.792	10.7
471.995	10.63
472.197	10.62
472.399	10.78
472.602	10.81
472.804	10.62
473.007	10.57
473.209	10.6
473.411	10.51
473.614	10.44
473.816	10.54
474.018	10.59
474.22	10.5
474.423	10.55
474.625	10.46
474.827	10.56
475.03	10.76
475.232	10.96
475.434	10.79
475.636	10.76
475.838	10.8
476.04	10.7
476.243	10.65
476.445	10.62
476.647	10.68
476.849	10.61
477.051	10.61
477.253	10.54
477.455	10.44
477.657	10.48
477.859	10.6
478.061	10.52
478.263	10.57
478.465	10.65
478.667	10.72
478.869	10.7
479.071	10.77
479.273	10.64
479.475	10.63
479.677	10.56
479.879	10.7
480.081	10.56
480.283	10.67
480.485	10.76
480.686	10.8
480.888	10.8
481.09	10.68
481.292	10.66
481.494	10.66
481.695	10.67
481.897	10.8
482.099	10.75
482.301	10.85
482.502	10.79
482.704	10.75
482.906	10.69
483.107	10.64
483.309	10.65
483.511	10.66
483.712	10.66
483.914	10.67
484.115	10.58
484.317	10.54
484.519	10.5
484.72	10.44
484.922	10.36
485.123	10.34
485.325	10.36
485.526	10.37
485.728	10.34
485.929	10.34
486.131	10.24
486.332	10.28
486.534	10.34
486.735	10.35
486.936	10.4
487.138	10.45
487.339	10.51
487.541	10.5
487.742	10.56
487.943	10.59
488.144	10.57
488.346	10.6
488.547	10.63
488.748	10.58
488.95	10.54
489.151	10.58
489.352	10.5
489.553	10.47
489.755	10.46
489.956	10.38
490.157	10.36
490.358	10.43
490.559	10.44
490.76	10.42
490.961	10.46
491.163	10.42
491.364	10.42
491.565	10.52
491.766	10.49
491.967	10.5
492.168	10.5
492.369	10.52
492.57	10.52
492.771	10.55
492.972	10.51
493.173	10.49
493.374	10.55
493.575	10.49
493.776	10.5
493.976	10.61
494.177	10.71
494.378	10.82
494.579	10.95
494.78	10.91
494.981	11
495.182	11.07
495.382	11.2
495.583	11.14
495.784	11.2
495.985	11.28
496.185	11.23
496.386	11.06
496.587	10.9
496.788	10.68
496.988	10.68
497.189	10.61
497.39	10.69
497.59	10.7
497.791	10.84
497.992	10.86
498.192	10.95
498.393	10.96
498.593	11.1
498.794	11.2
498.994	11.26
499.195	11.28
499.395	11.46
499.596	11.47
499.796	11.49
499.997	11.47
500.197	11.61
500.398	11.26
500.598	11.36
500.799	11.32
500.999	11.33
501.199	11.43
501.4	11.45
501.6	11.44
501.801	11.52
502.001	11.55
502.201	11.62
502.402	11.59
502.602	11.93
502.802	11.93
503.002	12.03
503.203	12.14
503.403	12.12
503.603	12.32
503.803	12.28
504.003	12.31
504.204	12.33
504.404	12.41
504.604	12.33
504.804	12.4
505.004	12.4
505.204	12.41
505.404	12.31
505.604	12.21
505.804	12.14
506.005	12.1
506.205	12.09
506.405	12.08
506.605	11.99
506.805	12.12
507.005	12.06
507.204	12.08
507.404	12.12
507.604	12.25
507.804	12.34
508.004	12.24
508.204	12.33
508.404	12.3
508.604	12.2
508.804	12.3
509.003	12.29
509.203	12.33
509.403	12.4
509.603	12.42
509.803	12.42
510.002	12.42
510.202	12.52
510.402	12.42
510.602	12.42
510.801	12.53
511.001	12.54
511.201	12.53
511.4	12.59
511.6	12.52
511.8	12.54
511.999	12.52
512.199	12.65
512.398	12.71
512.598	12.94
512.797	13.07
512.997	13
513.197	12.96
513.396	13.03
513.596	13.04
513.795	13.14
513.994	13.13
514.194	13.32
514.393	13.35
514.593	13.38
514.792	13.37
514.992	13.43
515.191	13.53
515.39	13.6
515.59	13.71
515.789	13.71
515.988	13.73
516.188	13.82
516.387	13.84
516.586	13.93
516.786	14.05
516.985	14.08
517.184	14.08
517.383	14.26
517.582	14.39
517.782	14.47
517.981	14.65
518.18	14.62
518.379	14.68
518.578	14.55
518.777	14.57
518.976	14.6
519.176	14.61
519.375	14.68
519.574	14.61
519.773	14.58
519.972	14.4
520.171	14.41
520.37	14.5
520.569	14.64
520.768	14.89
520.967	14.94
521.166	14.9
521.365	14.9
521.564	14.93
521.762	14.95
521.961	14.95
522.16	15.16
522.359	15.11
522.558	15.1
522.757	14.92
522.956	14.89
523.154	14.98
523.353	15.06
523.552	15.15
523.751	15.19
523.949	15.3
524.148	15.43
524.347	15.49
524.546	15.56
524.744	15.62
524.943	15.72
525.142	15.73
525.34	15.78
525.539	15.81
525.737	15.84
525.936	15.95
526.135	16.06
526.333	16.12
526.532	16.18
526.73	16.27
526.929	16.36
527.127	16.51
527.326	16.5
527.524	16.46
527.723	16.55
527.921	16.56
528.12	16.6
528.318	16.58
528.516	16.57
528.715	16.57
528.913	16.59
529.112	16.62
529.31	16.57
529.508	16.63
529.707	16.72
529.905	16.76
530.103	16.82
530.301	16.8
530.5	16.9
530.698	17.02
530.896	17.18
531.094	17.21
531.293	17.28
531.491	17.35
531.689	17.41
531.887	17.55
532.085	17.57
532.283	17.67
532.481	17.76
532.68	17.82
532.878	17.9
533.076	17.99
533.274	18.1
533.472	18.17
533.67	18.16
533.868	18.23
534.066	18.29
534.264	18.34
534.462	18.41
534.66	18.5
534.858	18.53
535.056	18.57
535.253	18.41
535.451	18.53
535.649	18.6
535.847	18.76
536.045	18.88
536.243	18.98
536.441	19.09
536.638	19.18
536.836	19.24
537.034	19.31
537.232	19.34
537.43	19.6
537.627	19.58
537.825	19.71
538.023	19.81
538.22	19.87
538.418	19.88
538.616	20.01
538.813	20.17
539.011	20.34
539.209	20.4
539.406	20.57
539.604	20.72
539.801	20.87
539.999	20.95
540.196	21.01
540.394	21.11
540.591	21.16
540.789	21.24
540.986	21.23
541.184	21.31
541.381	21.4
541.579	21.43
541.776	21.35
541.974	21.4
542.171	21.49
542.368	21.63
542.566	21.68
542.763	21.73
542.96	21.81
543.158	21.92
543.355	21.97
543.552	22.11
543.75	22.23
543.947	22.51
544.144	22.71
544.341	22.79
544.539	22.89
544.736	22.95
544.933	23.11
545.13	23.24
545.327	23.36
545.524	23.51
545.722	23.58
545.919	23.65
546.116	23.7
546.313	23.68
546.51	23.76
546.707	23.81
546.904	24.04
547.101	24.16
547.298	24.15
547.495	24.15
547.692	24.16
547.889	24.2
548.086	24.31
548.283	24.28
548.48	24.4
548.677	24.47
548.874	24.47
549.07	24.67
549.267	24.82
549.464	25.01
549.661	25.22
549.858	25.36
550.055	25.45
550.251	25.72
550.448	25.97
550.645	26.11
550.842	26.23
551.038	26.45
551.235	26.4
551.432	26.39
551.628	26.55
551.825	26.69
552.022	26.87
552.218	27.03
552.415	27.18
552.612	27.29
552.808	27.44
553.005	27.53
553.201	27.62
553.398	27.68
553.594	27.8
553.791	27.98
553.987	28.04
554.184	27.96
554.38	28.36
554.577	28.27
554.773	28.23
554.97	28.39
555.166	28.56
555.362	28.77
555.559	28.73
555.755	28.82
555.952	28.85
556.148	29.13
556.344	29.43
556.541	29.18
556.737	29.34
556.933	29.63
557.129	29.63
557.326	29.62
557.522	29.79
557.718	30.06
557.914	30.11
558.11	30.3
558.307	30.24
558.503	30.34
558.699	30.71
558.895	30.85
559.091	30.98
559.287	30.98
559.483	31.2
559.679	31.3
559.876	31.71
560.072	31.98
560.268	32.13
560.464	32.42
560.66	32.51
560.856	32.53
561.052	32.77
561.247	33.07
561.443	33.46
561.639	33.69
561.835	34.01
562.031	33.89
562.227	33.87
562.423	33.93
562.619	33.95
562.815	34.21
563.01	34.29
563.206	34.28
563.402	34.15
563.598	34.07
563.793	33.99
563.989	33.8
564.185	34.02
564.381	34.15
564.576	34.27
564.772	34.33
564.968	34.34
565.163	34.23
565.359	34.39
565.555	34.39
565.75	34.59
565.946	34.67
566.141	34.75
566.337	34.73
566.532	34.77
566.728	34.78
566.923	34.98
567.119	34.99
567.314	35.14
567.51	35.13
567.705	35.22
567.901	35.15
568.096	35.31
568.292	35.49
568.487	35.48
568.682	35.79
568.878	35.88
569.073	35.79
569.268	35.84
569.464	35.87
569.659	36.15
569.854	36.26
570.05	36.51
570.245	36.45
570.44	36.44
570.635	36.55
570.831	36.6
571.026	36.7
571.221	36.79
571.416	36.88
571.611	37.11
571.806	37.05
572.002	37.11
572.197	37.1
572.392	37.12
572.587	37.07
572.782	37.01
572.977	36.97
573.172	37.03
573.367	37.06
573.562	37.07
573.757	36.98
573.952	36.97
574.147	37.08
574.342	37.02
574.537	37.2
574.732	37.44
574.927	37.82
575.121	37.78
575.316	37.76
575.511	37.99
575.706	38.16
575.901	38.29
576.096	38.47
576.29	38.64
576.485	38.72
576.68	38.78
576.875	38.71
577.069	38.61
577.264	38.81
577.459	38.71
577.654	38.52
577.848	38.5
578.043	38.59
578.238	38.44
578.432	38.3
578.627	38.31
578.821	38.48
579.016	38.46
579.21	38.38
579.405	38.19
579.6	38.49
579.794	38.68
579.989	38.7
580.183	38.91
580.378	39.11
580.572	39.13
580.766	39.39
580.961	39.29
581.155	39.54
581.35	39.83
581.544	40.05
581.738	39.99
581.933	40.01
582.127	40
582.321	39.87
582.516	39.97
582.71	39.72
582.904	39.56
583.099	39.47
583.293	39.52
583.487	39.36
583.681	39.22
583.875	39.36
584.07	39.71
584.264	39.77
584.458	39.8
584.652	39.67
584.846	40.01
585.04	40.13
585.234	40.22
585.428	40.13
585.623	40.39
585.817	40.62
586.011	40.65
586.205	40.53
586.399	40.66
586.593	40.7
586.787	40.79
586.981	40.66
587.174	40.79
587.368	40.86
587.562	41.05
587.756	40.91
587.95	40.94
588.144	40.98
588.338	40.68
588.532	40.56
588.725	40.47
588.919	40.65
589.113	40.89
589.307	40.93
589.501	41
589.694	40.64
589.888	40.84
590.082	40.79
590.275	40.64
590.469	40.61
590.663	40.66
590.856	40.85
591.05	40.93
591.244	41.13
591.437	41.25
591.631	41.46
591.824	41.88
592.018	41.7
592.212	41.86
592.405	41.81
592.599	42.21
592.792	42.26
592.986	42.31
593.179	42.27
593.372	42.05
593.566	41.97
593.759	41.92
593.953	42.04
594.146	42.03
594.339	42.2
594.533	42.74
594.726	42.69
594.92	42.62
595.113	42.72
595.306	42.65
595.499	42.62
595.693	42.48
595.886	42.33
596.079	42.05
596.272	42.3
596.466	42.17
596.659	42.02
596.852	42.08
597.045	42.27
597.238	42.15
597.431	42.37
597.624	42.56
597.818	42.72
598.011	42.8
598.204	42.99
598.397	42.9
598.59	42.75
598.783	42.67
598.976	42.6
599.169	42.69
599.362	42.64
599.555	42.38
599.748	42.26
599.941	42.2
600.134	42.44
600.326	42.34
600.519	42.33
600.712	42.5
600.905	42.59
601.098	42.48
601.291	42.31
601.483	42.28
601.676	42.18
601.869	42.25
602.062	42.34
602.255	42.29
602.447	42.36
602.64	42.32
602.833	42.4
603.025	42.75
603.218	43.04
603.411	43.09
603.603	43.2
603.796	43.28
603.989	43.39
604.181	43.44
604.374	43.36
604.566	43.41
604.759	43.34
604.951	43.28
605.144	42.83
605.336	42.93
605.529	42.91
605.721	43.04
605.914	43.16
606.106	43.03
606.299	42.82
606.491	42.71
606.683	42.75
606.876	42.97
607.068	43.03
607.26	43.2
607.453	42.85
607.645	42.88
607.837	42.87
608.03	42.67
608.222	42.76
608.414	43.07
608.606	43.27
608.799	43.23
608.991	43.26
609.183	43.35
609.375	43.41
609.567	43.32
609.759	43.36
609.952	43.44
610.144	43.58
610.336	43.57
610.528	43.48
610.72	43.36
610.912	43.37
611.104	43.34
611.296	43.15
611.488	43.25
611.68	43.3
611.872	43.49
612.064	43.33
612.256	43.19
612.448	43.23
612.64	43.32
612.832	43.32
613.023	43.52
613.215	43.35
613.407	43.65
613.599	43.5
613.791	43.72
613.983	43.59
614.174	43.72
614.366	44.08
614.558	43.94
614.75	43.8
614.941	43.96
615.133	43.92
615.325	44.3
615.516	44.08
615.708	44.08
615.9	44.1
616.091	44.11
616.283	43.94
616.475	44.12
616.666	44.26
616.858	44.33
617.049	44.33
617.241	44.27
617.432	44.05
617.624	44.27
617.815	44.21
618.007	44.34
618.198	44.29
618.39	44.42
618.581	44.38
618.773	44.22
618.964	44.14
619.155	44.13
619.347	43.95
619.538	43.89
619.729	43.68
619.921	43.92
620.112	43.83
620.303	43.88
620.494	43.94
620.686	43.78
620.877	44.07
621.068	44.02
621.259	43.95
621.451	43.97
621.642	44.14
621.833	44.44
622.024	44.6
622.215	44.34
622.406	44.3
622.597	44.31
622.788	44.21
622.98	44.2
623.171	44.27
623.362	44.44
623.553	44.61
623.744	44.68
623.935	44.46
624.126	44.32
624.317	44.68
624.508	44.47
624.698	44.38
624.889	44.25
625.08	44.14
625.271	44.31
625.462	43.98
625.653	43.85
625.844	43.78
626.034	43.6
626.225	43.83
626.416	43.67
626.607	43.82
626.798	43.98
626.988	44.41
627.179	44.58
627.37	44.68
627.56	44.92
627.751	44.92
627.942	44.77
628.132	45.01
628.323	44.83
628.514	45.01
628.704	45.17
628.895	45.17
629.085	44.87
629.276	44.7
629.466	44.48
629.657	44.22
629.847	44.17
630.038	44.27
630.228	43.95
630.419	43.78
630.609	43.56
630.8	43.71
630.99	43.83
631.181	43.62
631.371	43.54
631.561	43.95
631.752	44.23
631.942	44.42
632.132	44.59
632.323	44.85
632.513	45.23
632.703	45.25
632.893	44.97
633.084	44.61
633.274	44.72
633.464	44.83
633.654	44.32
633.844	44.64
634.034	44.9
634.225	44.99
634.415	45.21
634.605	44.88
634.795	44.85
634.985	44.95
635.175	45.14
635.365	45.25
635.555	45.11
635.745	45.27
635.935	45.01
636.125	44.61
636.315	44.59
636.505	44.42
636.695	44.55
636.885	44.57
637.075	44.41
637.265	44.6
637.455	44.78
637.644	44.91
637.834	44.79
638.024	44.79
638.214	45.19
638.404	45
638.593	45.03
638.783	45.17
638.973	45.42
639.163	45.5
639.352	45.2
639.542	45.21
639.732	45.3
639.921	45.51
640.111	45.44
640.301	45.42
640.49	45.81
640.68	45.95
640.87	45.84
641.059	45.65
641.249	45.87
641.438	45.66
641.628	44.96
641.817	44.91
642.007	44.85
642.196	44.8
642.386	44.32
642.575	43.77
642.764	43.83
642.954	43.87
643.143	43.86
643.333	43.6
643.522	43.85
643.711	44.29
643.901	44.43
644.09	44.55
644.279	44.64
644.469	45.09
644.658	45.23
644.847	45.13
645.036	45.13
645.226	44.96
645.415	44.98
645.604	44.79
645.793	44.9
645.982	44.99
646.171	45.06
646.361	44.77
646.55	44.73
646.739	44.9
646.928	44.74
647.117	44.87
647.306	45.29
647.495	45.04
647.684	45.42
647.873	45.58
648.062	45.63
648.251	45.64
648.44	45.66
648.629	45.4
648.818	45.19
649.007	45.4
649.196	45.19
649.384	44.88
649.573	45.28
649.762	45.07
649.951	44.79
650.14	44.58
650.328	44.43
650.517	44.67
650.706	44.83
650.895	44.77
651.083	44.75
651.272	44.65
651.461	44.92
651.65	44.98
651.838	45.07
652.027	45.13
652.216	44.92
652.404	45.04
652.593	45.21
652.781	45.08
652.97	45.19
653.158	45.14
653.347	45.33
653.535	45.15
653.724	45.4
653.912	45.56
654.101	45.34
654.289	45.61
654.478	45.17
654.666	45.04
654.855	45.14
655.043	45.51
655.231	45.62
655.42	45.59
655.608	45.89
655.796	45.61
655.985	45.38
656.173	45.71
656.361	45.54
656.55	45.93
656.738	45.98
656.926	45.71
657.114	45.55
657.302	45.39
657.491	45.65
657.679	45.54
657.867	45.57
658.055	45.91
658.243	45.81
658.431	45.82
658.619	45.99
658.807	45.97
658.996	46.53
659.184	46.54
659.372	46.39
659.56	46.07
659.748	46.02
659.936	45.98
660.124	45.96
660.311	45.9
660.499	45.96
660.687	45.77
660.875	45.94
661.063	45.68
661.251	45.53
661.439	45.84
661.627	46.11
661.814	45.86
662.002	45.99
662.19	45.62
662.378	45.92
662.565	46.35
662.753	46.15
662.941	45.95
663.129	45.94
663.316	45.75
663.504	45.4
663.692	45.46
663.879	45.95
664.067	45.89
664.254	46
664.442	46.04
664.63	45.76
664.817	45.9
665.005	45.96
665.192	45.69
665.38	45.74
665.567	46.08
665.755	45.95
665.942	45.93
666.13	45.92
666.317	45.95
666.504	45.81
666.692	45.71
666.879	45.61
667.067	45.65
667.254	45.47
667.441	45.8
667.629	45.58
667.816	45.44
668.003	45.05
668.19	44.67
668.378	44.88
668.565	44.87
668.752	44.94
668.939	45.25
669.127	45.19
669.314	45.8
669.501	45.65
669.688	45.71
669.875	45.62
670.062	45.91
670.249	46
670.436	46.08
670.623	46.04
670.81	45.55
670.997	45.22
671.184	45.17
671.371	44.58
671.558	44.53
671.745	44.52
671.932	44.89
672.119	44.85
672.306	45.03
672.493	44.87
672.68	44.96
672.867	45.49
673.054	45.46
673.24	45.46
673.427	45.74
673.614	46.14
673.801	46.64
673.988	46.62
674.174	46.65
674.361	46.4
674.548	46.36
674.734	46.38
674.921	46.39
675.108	46.59
675.294	46.49
675.481	46.67
675.668	46.54
675.854	46.42
676.041	46.6
676.227	46.39
676.414	46.71
676.601	46.88
676.787	47.34
676.974	47.47
677.16	47.59
677.347	47.56
677.533	47.18
677.719	47.26
677.906	46.81
678.092	46.18
678.279	46.45
678.465	46.19
678.651	45.99
678.838	45.64
679.024	45.28
679.21	45.12
679.397	45.4
679.583	45.63
679.769	45.58
679.955	45.57
680.142	45.41
680.328	45.25
680.514	45.4
680.7	45.26
680.886	45.15
681.073	45.34
681.259	45.61
681.445	45.33
681.631	45.34
681.817	45.16
682.003	45.21
682.189	45.28
682.375	45.15
682.561	45.24
682.747	45.6
682.933	45.41
683.119	45.04
683.305	44.69
683.491	44.9
683.677	44.82
683.863	44.75
684.049	45.05
684.235	45.53
684.42	45.57
684.606	45.18
684.792	44.82
684.978	45.33
685.164	45.17
685.349	45.61
685.535	45.47
685.721	45.66
685.907	45.59
686.092	45.46
686.278	45.12
686.464	45.45
686.649	45.44
686.835	45.26
687.021	45.46
687.206	46.02
687.392	45.65
687.577	45.61
687.763	45.21
687.948	45.38
688.134	45.71
688.319	46.09
688.505	46.32
688.69	46.58
688.876	46.82
689.061	46.51
689.247	46.86
689.432	47.11
689.618	47.2
689.803	47.01
689.988	47.3
690.174	46.57
690.359	46.55
690.544	46.29
690.73	46.42
690.915	46.6
691.1	46.47
691.285	46.08
691.471	45.88
691.656	45.91
691.841	46.08
692.026	45.98
692.211	46.18
692.396	46.38
692.582	46.02
692.767	46.04
692.952	46.49
693.137	46.22
693.322	46.16
693.507	46.35
693.692	46.38
693.877	46.8
694.062	46.61
694.247	47.22
694.432	46.93
694.617	47.27
694.802	47.72
694.987	47.11
695.172	47.49
695.357	47.68
695.541	47.74
695.726	47.74
695.911	48.04
696.096	47.9
696.281	47.46
696.466	47.79
696.65	47.46
696.835	46.72
697.02	46.71
697.204	46.96
697.389	47.1
697.574	46.56
697.759	46.57
697.943	45.81
698.128	45.51
698.312	45.46
698.497	45.02
698.682	45.41
698.866	45.6
699.051	45.57
699.235	45.1
699.42	44.81
699.604	45
699.789	44.87
699.973	45.21
700.158	45.24
700.342	45.36
700.527	45.61
700.711	45.61
700.895	45.62
701.08	45.4
701.264	45.61
701.448	45.53
701.633	45.23
701.817	45.38
702.001	45.69
702.186	45.6
702.37	45.12
702.554	44.63
702.738	44.3
702.923	44.46
703.107	44.67
703.291	44.67
703.475	44.48
703.659	44.38
703.843	44.42
704.027	44.41
704.212	44.87
704.396	44.9
704.58	45.64
704.764	45.47
704.948	44.93
705.132	44.51
705.316	44.47
705.5	45.45
705.684	46.66
705.868	46.61
706.052	46.34
706.235	46.38
706.419	46.51
706.603	46.77
706.787	46.77
706.971	47.37
707.155	48.21
707.339	47.98
707.522	47.46
707.706	46.71
707.89	46.73
708.074	46.72
708.257	46.3
708.441	47.12
708.625	46.47
708.808	46.41
708.992	46.47
709.176	45.94
709.359	46.16
709.543	45.85
709.727	46.45
709.91	46.6
710.094	46.79
710.277	47.66
710.461	47.09
710.644	47.5
710.828	47.85
711.011	47.08
711.195	46.54
711.378	46.66
711.562	46.87
711.745	46.6
711.928	46.57
712.112	46.34
712.295	45.86
712.478	46.23
712.662	45.73
712.845	45.51
713.028	45.88
713.212	47.13
713.395	47.01
713.578	47.45
713.761	47.37
713.945	47.11
714.128	47.58
714.311	48.14
714.494	48.07
714.677	48.11
714.86	47.87
715.043	48.35
715.227	47.87
715.41	47.98
715.593	47.35
715.776	47.55
715.959	47.94
716.142	47.51
716.325	46.78
716.508	46.41
716.691	46.84
716.874	47.33
717.057	47.36
717.239	47.44
717.422	47.43
717.605	48.19
717.788	47.64
717.971	47.5
718.154	47.56
718.337	48.43
718.519	48.31
718.702	48.22
718.885	48.14
719.068	47.9
719.25	47.78
719.433	47.64
719.616	47.01
719.798	47.38
719.981	47.9
720.164	47.24
720.346	46.48
720.529	46.07
720.712	45.84
720.894	45.38
721.077	45.35
721.259	45.43
721.442	45.62
721.624	45.8
721.807	46.14
721.989	45.72
722.172	46.77
722.354	47.14
722.537	47.67
722.719	47.72
722.901	48.01
723.084	47.48
723.266	47.37
723.448	47.42
723.631	47.28
723.813	46.93
723.995	46.82
724.178	46.13
724.36	45.74
724.542	46.03
724.724	46.09
724.907	46.45
725.089	46.23
725.271	46.4
725.453	46.62
725.635	47.09
725.817	47.74
725.999	47.39
726.181	47.96
726.364	47.78
726.546	48.09
726.728	48.44
726.91	48.23
727.092	48.99
727.274	49.12
727.456	49.3
727.638	49.28
727.819	49.09
728.001	49.58
728.183	49.74
728.365	50.38
728.547	49.91
728.729	49.07
728.911	48.94
729.093	48.73
729.274	49.38
729.456	48.49
729.638	48.1
729.82	47.49
730.001	46.8
730.183	46.28
730.365	46.25
730.546	46.14
730.728	47.03
730.91	46.8
731.091	46.53
731.273	46.01
731.455	45.81
731.636	46.33
731.818	46.21
731.999	46.81
732.181	46.69
732.362	45.75
732.544	46
732.725	45.5
732.907	46.16
733.088	46.18
733.27	46.41
733.451	46.44
733.633	46.55
733.814	46.55
733.995	46.15
734.177	46.47
734.358	47.24
734.539	47.68
734.721	47.57
734.902	47.64
735.083	47.78
735.264	47.92
735.446	48.92
735.627	48.43
735.808	49.27
735.989	49.21
736.17	49.25
736.351	49.26
736.533	49.3
736.714	48.95
736.895	48.48
737.076	48.4
737.257	48.11
737.438	47.34
737.619	47.61
737.8	46.7
737.981	47.58
738.162	47.76
738.343	48.01
738.524	46.8
738.705	47.55
738.886	46.77
739.067	47
739.247	47.12
739.428	47.42
739.609	47.55
739.79	47.34
739.971	47.48
740.151	47.21
740.332	46.67
740.513	47.9
740.694	47.33
740.874	47.92
741.055	47.81
741.236	46.75
741.417	46.67
741.597	45.83
741.778	46.73
741.958	45.95
742.139	46.96
742.32	46.93
742.5	46.35
742.681	46.15
742.861	46.25
743.042	46.44
743.222	47.54
743.403	47.04
743.583	47.33
743.764	47.34
743.944	47.72
744.124	45.94
744.305	47.4
744.485	48.5
744.666	49.19
744.846	49.43
745.026	49.4
745.207	49.87
745.387	51.41
745.567	51.09
745.747	50.67
745.928	50.45
746.108	51.68
746.288	50.66
746.468	50.3
746.648	49.96
746.829	49.51
747.009	49.3
747.189	48.78
747.369	48.07
747.549	49.06
747.729	48.6
747.909	47.83
748.089	47.59
748.269	47.7
748.449	47.67
748.629	47.05
748.809	46.87
748.989	47.26
749.169	46.76
749.349	46.53
749.529	45.61
749.709	45.78
749.889	46.7
750.068	46.37
750.248	46.13
750.428	45.91
750.608	46.22
750.788	47.32
750.967	47.3
751.147	48.66
751.327	48.9
751.507	49.67
751.686	50.39
751.866	50.42
752.046	50.12
752.225	49.76
752.405	49.73
752.585	49.69
752.764	49.09
752.944	49.23
753.123	48.12
753.303	47.55
753.482	47.35
753.662	47.01
753.841	46.72
754.021	47.49
754.2	48.12
754.38	48.43
754.559	49.56
754.739	49.76
754.918	49.26
755.097	48.66
755.277	49.53
755.456	49.25
755.635	48.68
755.815	48.89
755.994	48.37
756.173	48.11
756.352	47.98
756.532	46.82
756.711	46.44
756.89	46.73
757.069	47.19
757.248	47.33
757.427	47.66
757.607	47.88
757.786	47.44
757.965	47.63
758.144	46.83
758.323	46.04
758.502	47.31
758.681	47.71
758.86	47.8
759.039	47.87
759.218	47.17
759.397	46.18
759.576	45.32
759.755	45.81
759.934	46.69
760.113	48.3
760.291	48
760.47	47.09
760.649	46.82
760.828	45.07
761.007	44.94
761.186	44.99
761.364	45.39
761.543	46.68
761.722	46.11
761.901	45.25
762.079	44.78
762.258	45.25
762.437	44.93
762.615	45.7
762.794	46.45
762.972	46.42
763.151	46.66
763.33	46.97
763.508	47
763.687	47.51
763.865	47.35
764.044	47.22
764.222	47.1
764.401	47.35
764.579	46.91
764.758	47.02
764.936	47.33
765.114	46.8
765.293	46.86
765.471	47.09
765.65	46.88
765.828	46.72
766.006	46.89
766.184	47.14
766.363	47.66
766.541	47.16
766.719	47.52
766.898	47.32
767.076	47.17
767.254	47.37
767.432	46.77
767.61	46.71
767.788	47.56
767.967	47.21
768.145	47.01
768.323	46.51
768.501	46.88
768.679	46.45
768.857	46.98
769.035	48.41
769.213	48.11
769.391	49.36
769.569	50.1
769.747	50
769.925	50.65
770.103	51.24
770.281	51.04
770.459	51.16
770.636	50.83
770.814	51.03
770.992	50.01
771.17	50.26
771.348	49.75
771.525	48.48
771.703	48.11
771.881	47.15
772.059	46.67
772.236	47.25
772.414	47.61
772.592	49.31
772.769	47.64
772.947	48.68
773.125	48.73
773.302	48.18
773.48	49.4
773.657	48.86
773.835	49.74
774.013	50.11
774.19	49.85
774.368	48.88
774.545	47.43
774.723	46.67
774.9	46.92
775.077	45.5
775.255	44.61
775.432	44.17
775.61	44.64
775.787	43.05
775.964	43.08
776.142	42.91
776.319	43.25
776.496	44.14
776.674	44.64
776.851	43.72
777.028	45.39
777.205	47.06
777.382	46.54
777.56	45.92
777.737	48.9
777.914	49.73
778.091	50.66
778.268	50.52
778.445	50.4
778.622	51.78
778.8	51.53
778.977	50.14
779.154	55.35
779.331	55.66
779.508	56.62
779.685	54.48
779.862	53.67
780.038	52.6
780.215	54.14
780.392	54.24
780.569	54.09
780.746	54.12
780.923	55.2
781.1	48.97
781.277	50.99
781.453	50.65
781.63	50.09
781.807	49.31
781.984	47.82
782.16	46.59
782.337	47.46
782.514	48.28
782.691	48.46
782.867	49.36
783.044	48.73
783.221	46.35
783.397	46.34
783.574	46.59
783.75	47.35
783.927	48.31
784.103	48.82
784.28	48.81
784.456	46.57
784.633	46.33
784.809	44.7
784.986	45.35
785.162	46.49
785.339	47.52
785.515	49.36
785.692	50.3
785.868	52.44
786.044	50.72
786.221	50.51
786.397	51.04
786.573	52.57
786.749	51.8
786.926	50.44
787.102	52.21
787.278	52.18
787.454	51.17
787.631	50.5
787.807	48.33
787.983	50.01
788.159	48.91
788.335	49.74
788.511	51.39
788.687	51.68
788.863	52.67
789.039	49.76
789.216	49.95
789.392	50.56
789.568	51.14
789.744	51.25
789.919	52.36
790.095	52.9
790.271	52.43
790.447	49.42
790.623	49.34
790.799	49.44
790.975	50.45
791.151	47.38
791.327	46.9
791.502	46.59
791.678	46.66
791.854	45.85
792.03	45.4
792.205	46.54
792.381	47.08
792.557	47.64
792.733	46.71
792.908	46.21
793.084	48.16
793.259	47.7
793.435	47.67
793.611	48.1
793.786	46.12
793.962	46.29
794.137	45.95
794.313	47.47
794.488	47.9
794.664	48.66
794.839	47.86
795.015	46.64
795.19	47.92
795.366	48.04
795.541	46.51
795.716	46.91
795.892	46.8
796.067	46.7
796.242	44.68
796.418	42.95
796.593	43.25
796.768	42.76
796.944	44.36
797.119	43.82
797.294	43.99
797.469	46.55
797.644	46.46
797.82	47.35
797.995	47.95
798.17	48.23
798.345	48.31
798.52	48.44
798.695	50.33
798.87	49.17
799.045	47.89
799.22	45.63
799.395	44.01
799.57	43.89
799.745	44.41
799.92	44.16
800.095	44.66
800.27	45.06
800.445	44.23
800.62	44.44
800.795	44.63
800.97	44.89
801.145	45.72
801.319	46.44
801.494	46.8
801.669	44.44
801.844	42.3
802.018	40.02
802.193	38.95
802.368	39.92
802.543	37.43
802.717	39.14
802.892	40.92
803.067	41.92
803.241	42.11
803.416	43.57
803.59	44.35
803.765	44.98
803.94	46.53
804.114	49.26
804.289	49.42
804.463	51.2
804.638	52.09
804.812	49.05
804.986	48.09
805.161	47.67
805.335	45.17
805.51	47.09
805.684	48.4
805.858	49.53
806.033	48.95
806.207	49.57
806.381	48.59
806.556	45.83
806.73	48.11
806.904	50.13
807.078	52.71
807.253	52.88
807.427	50.46
807.601	48.62
807.775	47.95
807.949	47.24
808.123	45.71
808.298	47.01
808.472	45.89
808.646	44.61
808.82	43.56
808.994	40.96
809.168	43.14
809.342	44.51
809.516	44.02
809.69	42.83
809.864	45.93
810.038	45.59
810.212	44.89
810.385	46.29
810.559	47
810.733	47.13
810.907	49.1
811.081	45.23
811.255	45.83
811.428	50.18
811.602	49.83
811.776	46.69
811.95	46.86
812.123	50.62
812.297	52.06
812.471	52.56
812.644	53.04
812.818	50.84
812.992	52.68
813.165	53.31
813.339	47.94
813.512	50.28
813.686	51.83
813.86	52.04
814.033	48.44
814.207	49.83
814.38	52.72
814.554	51.09
814.727	50.39
814.9	50.05
815.074	48.82
815.247	49.69
815.421	48.23
815.594	47.17
815.767	47.16
815.941	47.48
816.114	43.55
816.287	41.93
816.46	39.39
816.634	39.76
816.807	40.65
816.98	40.37
817.153	43.38
817.327	46.35
817.5	47.95
817.673	48.38
817.846	48.63
818.019	51.65
818.192	50.95
818.365	51.65
818.538	53.08
818.711	53
818.884	53.48
819.057	52.39
819.23	51.02
819.403	47.71
819.576	50.31
819.749	49.21
819.922	48.22
820.095	48.12
820.268	49.27
820.441	48.47
820.614	48.25
820.786	48.79
820.959	48.62
821.132	46.71
821.305	46.15
821.477	43.73
821.65	43.39
821.823	44.31
821.996	43.81
822.168	43.56
822.341	42.92
822.514	42.96
822.686	42.83
822.859	42.22
823.031	42.33
823.204	42.67
823.376	42.87
823.549	42.87
823.722	42.05
823.894	42.22
824.067	41.88
824.239	41.93
824.411	41.96
824.584	41.6
824.756	41.92
824.929	41.72
825.101	41.8
825.273	41.6
825.446	42.1
825.618	42
825.79	41.86
825.963	42.72
826.135	42.81
826.307	42.9
826.479	43.52
826.652	43.73
826.824	43.91
826.996	44.03
827.168	43.98
827.34	43.02
827.512	42.81
827.684	42.61
827.856	42.63
828.029	43.23
828.201	43.04
828.373	42.71
828.545	42.51
828.717	43.24
828.889	43.05
829.061	42.88
829.232	43.52
829.404	44.03
829.576	44.13
829.748	43.7
829.92	43.02
830.092	43.59
830.264	43.81
830.436	43.9
830.607	41.31
830.779	41.22
830.951	43.12
831.123	42.32
831.294	44.31
831.466	46.06
831.638	46.13
831.809	47.19
831.981	47.99
832.153	47.45
832.324	46.65
832.496	49.35
832.667	50.72
832.839	48.93
833.011	47.46
833.182	47.73
833.354	45.8
833.525	46.2
833.697	44.45
833.868	44.19
834.039	44.7
834.211	44.71
834.382	44.62
834.554	43.41
834.725	44.13
834.896	46.79
835.068	47.2
835.239	47.55
835.41	47.16
835.581	48.21
835.753	48.69
835.924	49.43
836.095	52.13
836.266	52.75
836.438	52.94
836.609	52.19
836.78	50.57
836.951	47.71
837.122	46.95
837.293	45.72
837.464	46.86
837.635	44.49
837.806	44.19
837.977	42.95
838.148	42.37
838.319	44.35
838.49	44.54
838.661	46.25
838.832	48.15
839.003	49.74
839.174	53.54
839.345	50.27
839.516	50.7
839.687	49.28
839.857	46.79
840.028	45.96
840.199	45.76
840.37	45.87
840.54	46.48
840.711	48.67
840.882	47.4
841.053	47.78
841.223	44.01
841.394	46.79
841.564	44.02
841.735	46.06
841.906	46.54
842.076	45.44
842.247	48.63
842.417	47.27
842.588	46.61
842.758	50.75
842.929	48.34
843.099	53.55
843.27	54.05
843.44	58.29
843.611	59.06
843.781	60.06
843.951	63.26
844.122	64.37
844.292	69.21
844.462	66.41
844.633	62.75
844.803	64.33
844.973	69.49
845.144	69.01
845.314	70.31
845.484	69.55
845.654	67.71
845.824	67.7
845.995	64.41
846.165	67.24
846.335	67.03
846.505	68.61
846.675	69.21
846.845	65.47
847.015	63.89
847.185	63.71
847.355	64.67
847.525	69.27
847.695	67.48
847.865	65.59
848.035	58.62
848.205	58.18
848.375	56.54
848.545	53.02
848.715	53.58
848.884	55.83
849.054	54.48
849.224	56.36
849.394	57.41
849.564	61.57
849.733	58.31
849.903	63.99
850.073	64.22
850.243	65.42
850.412	72.66
850.582	74.78
850.752	70.4
850.921	67.68
851.091	66.48
851.26	60.86
851.43	55.05
851.599	61.74
851.769	55.81
851.939	53.52
852.108	55.2
852.278	56.44
852.447	53.98
852.616	56.54
852.786	59.11
852.955	53.5
853.125	57.96
853.294	55.53
853.463	51.45
853.633	53.43
853.802	54.96
853.971	47.36
854.141	41.54
854.31	42.26
854.479	31.69
854.648	31.91
854.818	38.09
854.987	31.89
855.156	39.22
855.325	38.19
855.494	35.51
855.663	43.08
855.832	40.46
856.001	38.13
856.171	40.73
856.34	45.98
856.509	41.09
856.678	41.07
856.847	40.03
857.016	39.03
857.185	53.06
857.353	55.73
857.522	47.56
857.691	55.71
857.86	54.36
858.029	52.6
858.198	57.13
858.367	65.48
858.535	55.98
858.704	52.77
858.873	49.6
859.042	41.85
859.21	43.26
859.379	48.07
859.548	49.14
859.717	55.25
859.885	62.28
860.054	63.07
860.222	57.6
860.391	70.91
860.56	80.13
860.728	77.71
860.897	81.73
861.065	82.9
861.234	81.55
861.402	78.24
861.571	72.33
861.739	67.43
861.908	59.94
862.076	65.72
862.244	56.25
862.413	59.24
862.581	58.68
862.749	58.48
862.918	57.05
863.086	57.15
863.254	55.28
863.423	62.44
863.591	59.62
863.759	60.38
863.927	58.43
864.096	68.28
864.264	65.94
864.432	71.08
864.6	67.47
864.768	63.91
864.936	57.88
865.104	58.16
865.272	60.98
865.44	67.21
865.608	68.47
865.776	63.59
865.944	55.32
866.112	56.8
866.28	48.31
866.448	44.8
866.616	51.22
866.784	64.97
866.952	65.4
867.12	57.86
867.288	58.09
867.455	55.65
867.623	56.35
867.791	62.96
867.959	64.14
868.127	69.14
868.294	76.77
868.462	66.85
868.63	60.76
868.797	61.46
868.965	62.21
869.133	56.5
869.3	61.79
869.468	60.07
869.636	54.66
869.803	52.68
869.971	56.35
870.138	55.05
870.306	58.95
870.473	55.68
870.641	55.37
870.808	63.76
870.975	72.61
871.143	72.61
871.31	71.03
871.478	73
871.645	79.59
871.812	85.63
871.98	80.08
872.147	79.59
872.314	79.74
872.482	85.85
872.649	73.36
872.816	59.77
872.983	60.77
873.15	61.55
873.318	60.85
873.485	50.86
873.652	47.37
873.819	47.65
873.986	53.76
874.153	56.54
874.32	49.32
874.487	52.45
874.654	52.74
874.821	50.3
874.988	51.85
875.155	54.66
875.322	61.98
875.489	49.03
875.656	56.46
875.823	45.16
875.99	42.94
876.157	43.3
876.324	45.26
876.49	52.02
876.657	48.05
876.824	41.82
876.991	40.95
877.157	39.41
877.324	47.65
877.491	42.75
877.658	48.88
877.824	47.81
877.991	53.54
878.157	55.27
878.324	59.94
878.491	59.78
878.657	71.55
878.824	73.67
878.99	70.61
879.157	71.07
879.323	73.3
879.49	65.48
879.656	64.13
879.823	59.21
879.989	53.83
880.156	44.98
880.322	45.69
880.488	40.63
880.655	35.61
880.821	43.21
880.987	42.17
881.154	37.31
881.32	38.11
881.486	36.06
881.652	36.05
881.819	35.45
881.985	38.56
882.151	40.75
882.317	40
882.483	40.72
882.649	40.16
882.816	40.36
882.982	41.98
883.148	43.93
883.314	43.97
883.48	43.75
883.646	44.36
883.812	42.7
883.978	43.32
884.144	44.63
884.31	44.26
884.476	44.09
884.642	45.53
884.807	46.53
884.973	45.3
885.139	44.57
885.305	45
885.471	44.7
885.637	45.99
885.802	45.06
885.968	45.24
886.134	44.48
886.3	45.15
886.465	42.57
886.631	42.32
886.797	42.27
886.962	44.3
887.128	45.23
887.293	47.43
887.459	48.68
887.625	51.3
887.79	51.83
887.956	56.87
888.121	55.68
888.287	59.67
888.452	59.03
888.618	62.93
888.783	64.64
