Data from LC_249_Reflection_1.txt Node
Date: Thu Nov 19 22:58:11 EST 2015
User: robert
Spectrometer: USB4E03001
Autoset integration time: false
Trigger mode: 4
Integration Time (sec): 1.000000E-1
Scans to average: 15
Electric dark correction enabled: true
Nonlinearity correction enabled: false
Boxcar width: 5
Stray light correction enabled: false
XAxis mode: Wavelengths
Stop averaging: false
Number of Pixels in Spectrum: 3648
>>>>>Begin Spectral Data<<<<<
177.566	39.77
177.785	47.91
178.005	64.97
178.225	75.14
178.445	76.97
178.665	75.01
178.885	83.3
179.105	-112.5
179.324	-124.28
179.544	-137.76
179.764	-18.56
179.984	87.16
180.204	126.9
180.423	102.64
180.643	112.53
180.863	88.95
181.083	131.12
181.302	93.64
181.522	107.48
181.742	127.32
181.961	140.37
182.181	172.8
182.401	211.38
182.621	215.22
182.84	378.82
183.06	272.63
183.279	222.08
183.499	149.9
183.719	471.52
183.938	1277.78
184.158	-500.39
184.377	-716.24
184.597	414.45
184.816	-1814.15
185.036	-28.16
185.256	851.67
185.475	140.42
185.695	162.39
185.914	152.73
186.134	318.42
186.353	238.08
186.572	167.1
186.792	287.86
187.011	-1988.76
187.231	-684.16
187.45	-847.85
187.67	-53.49
187.889	-33.31
188.108	-7.47
188.328	-30.91
188.547	-222.56
188.766	-398.36
188.986	-596.85
189.205	7467.65
189.424	292.53
189.644	296.45
189.863	196.35
190.082	160.95
190.302	247.99
190.521	235.77
190.74	268.92
190.959	268.65
191.178	222.41
191.398	231.82
191.617	259.53
191.836	846.62
192.055	267.87
192.274	331.3
192.494	241.44
192.713	105.38
192.932	108.91
193.151	107.63
193.37	99.6
193.589	105.36
193.808	99.51
194.027	103.07
194.246	100.37
194.465	113.34
194.685	94.85
194.904	96.28
195.123	95.38
195.342	74.28
195.561	64.09
195.78	67.05
195.999	74.69
196.218	82.57
196.436	74.86
196.655	72.81
196.874	70.8
197.093	103.27
197.312	98.81
197.531	90.99
197.75	195.39
197.969	207.72
198.188	-562.89
198.407	-182.49
198.625	-260.32
198.844	-168.77
199.063	-1817.38
199.282	-238.76
199.501	-275.3
199.719	-477
199.938	-235.44
200.157	-684.45
200.376	-673.01
200.594	3485.71
200.813	2218.1
201.032	1497.09
201.251	1235.29
201.469	562.68
201.688	177.59
201.907	290.71
202.125	1216.06
202.344	261.68
202.563	302.84
202.781	354.19
203	245.5
203.218	170.15
203.437	177.89
203.656	235.48
203.874	293.5
204.093	431.4
204.311	120.16
204.53	85.15
204.748	59.68
204.967	66.43
205.185	16.43
205.404	-19.32
205.622	16.2
205.841	47.38
206.059	5.99
206.278	1.37
206.496	53.73
206.715	116.16
206.933	155.69
207.151	157.94
207.37	190.3
207.588	243.87
207.806	247.1
208.025	263.8
208.243	306.06
208.461	545.06
208.68	415.18
208.898	168.86
209.116	127.72
209.335	138.9
209.553	561.43
209.771	-4041.18
209.989	599.77
210.208	-113.44
210.426	72.52
210.644	113.96
210.862	66.67
211.081	85.4
211.299	82.02
211.517	68.62
211.735	63.9
211.953	42.17
212.171	37.31
212.39	70.35
212.608	93.58
212.826	110.07
213.044	152.96
213.262	145.65
213.48	147.17
213.698	170.07
213.916	239.16
214.134	241.64
214.352	455.49
214.57	584.88
214.788	1023.61
215.006	698.04
215.224	630.8
215.442	1055.98
215.66	350.4
215.878	724.42
216.096	797.46
216.314	725.28
216.532	998.31
216.75	1620.47
216.968	-222.81
217.185	-470.45
217.403	-1172.1
217.621	-2745.78
217.839	262.08
218.057	237.19
218.275	127.1
218.492	151.4
218.71	149.25
218.928	138.18
219.146	125.92
219.363	98.74
219.581	117.44
219.799	117.66
220.017	120.75
220.234	138.51
220.452	130.87
220.67	165.05
220.887	123.66
221.105	121.52
221.323	108.9
221.54	105.04
221.758	113.44
221.976	90.92
222.193	87.01
222.411	71.12
222.629	67.84
222.846	58.18
223.064	51.2
223.281	51.81
223.499	45.49
223.716	50.96
223.934	27.18
224.151	28.9
224.369	31.58
224.586	9.24
224.804	17.91
225.021	17.17
225.239	14.44
225.456	2.76
225.674	-5.32
225.891	-3.06
226.108	-4.09
226.326	-7.92
226.543	-20.5
226.76	-15.69
226.978	6.08
227.195	-3.58
227.413	-6.29
227.63	-10.34
227.847	2.26
228.064	6.57
228.282	9.83
228.499	11.62
228.716	15.32
228.934	15.7
229.151	13.95
229.368	13.21
229.585	13.21
229.802	13.19
230.02	14.69
230.237	14.86
230.454	14.44
230.671	11.27
230.888	12.04
231.105	10.58
231.323	9.02
231.54	7.2
231.757	5.9
231.974	9.7
232.191	14.26
232.408	16.98
232.625	14.02
232.842	16.28
233.059	24.59
233.276	24.59
233.493	25.83
233.71	27.33
233.927	30.98
234.144	33.93
234.361	27.13
234.578	22.4
234.795	21.89
235.012	23.95
235.229	21.1
235.446	18.28
235.663	12.62
235.879	10.28
236.096	7.63
236.313	7.42
236.53	9.39
236.747	15.28
236.964	17.07
237.181	18
237.397	18.08
237.614	18.55
237.831	17.08
238.048	25.39
238.264	27.37
238.481	29.56
238.698	26.35
238.915	22.8
239.131	18.27
239.348	19.77
239.565	18.02
239.781	17.99
239.998	17.21
240.215	15.37
240.431	11.98
240.648	12.58
240.865	12.28
241.081	13.19
241.298	12.55
241.514	14.78
241.731	12.82
241.947	13.29
242.164	12.03
242.38	11.86
242.597	12.4
242.814	13.3
243.03	12.6
243.246	13.9
243.463	12.37
243.679	12.46
243.896	11.84
244.112	12.01
244.329	10.81
244.545	12.62
244.762	12.35
244.978	12.66
245.194	10.91
245.411	11.91
245.627	10.48
245.843	11.67
246.06	12.4
246.276	12.33
246.492	12.21
246.709	12.71
246.925	11.34
247.141	12.37
247.357	11.31
247.574	11.89
247.79	11.27
248.006	11.62
248.222	11.79
248.439	11.57
248.655	11.22
248.871	12.16
249.087	11.6
249.303	12.17
249.519	10.86
249.736	13.11
249.952	12.54
250.168	12.86
250.384	11.79
250.6	11.34
250.816	9.95
251.032	10.81
251.248	10.77
251.464	10.53
251.68	9.79
251.896	9.49
252.112	7.57
252.328	9.18
252.544	9.03
252.76	8.83
252.976	9.9
253.192	9.88
253.408	9.71
253.624	9.21
253.84	10.67
254.056	10.92
254.272	11.75
254.487	11.88
254.703	8.81
254.919	10.9
255.135	12.01
255.351	11.69
255.567	13.71
255.782	13.05
255.998	13.89
256.214	14
256.43	13.18
256.646	16.16
256.861	18.22
257.077	20.08
257.293	18.73
257.508	18.1
257.724	17.86
257.94	18.15
258.155	18.54
258.371	17.19
258.587	15.06
258.802	15.61
259.018	14.51
259.234	13.08
259.449	12.48
259.665	12.62
259.88	12.46
260.096	12.51
260.312	11.43
260.527	10.62
260.743	10.65
260.958	10.6
261.174	10.4
261.389	9.57
261.605	10.57
261.82	10.42
262.036	9.65
262.251	9.09
262.466	8.76
262.682	9.26
262.897	11.3
263.113	11.15
263.328	12.29
263.543	12.92
263.759	13.88
263.974	13.23
264.189	14.52
264.405	15.07
264.62	14.82
264.835	14.84
265.051	14.44
265.266	11.19
265.481	10.68
265.696	10.12
265.912	9.78
266.127	10.52
266.342	10.68
266.557	10.28
266.773	10.23
266.988	10.45
267.203	10.79
267.418	11.39
267.633	11.02
267.848	11.15
268.064	10.98
268.279	10.91
268.494	10.66
268.709	10.14
268.924	9.39
269.139	10.25
269.354	10.02
269.569	8.95
269.784	8.64
269.999	9.92
270.214	10.43
270.429	10.21
270.644	9.91
270.859	8.79
271.074	7.99
271.289	8.78
271.504	8.31
271.719	9.13
271.934	9.68
272.149	9.28
272.363	9.49
272.578	9.42
272.793	9.74
273.008	9.6
273.223	10.05
273.438	11.76
273.653	11.39
273.867	10.71
274.082	9.87
274.297	9.57
274.512	9.79
274.726	9.57
274.941	9.11
275.156	9.63
275.371	9.42
275.585	9.71
275.8	7.95
276.015	7.64
276.229	8.7
276.444	9.88
276.659	9.54
276.873	10.13
277.088	10.25
277.302	10.23
277.517	9.8
277.732	10.21
277.946	11.14
278.161	10.84
278.375	10.94
278.59	9.76
278.804	9.49
279.019	9.85
279.233	8.81
279.448	9.74
279.662	10.65
279.877	9.85
280.091	9.3
280.306	7.33
280.52	7.91
280.735	8.36
280.949	10.2
281.163	9.95
281.378	10.28
281.592	11.32
281.806	11.29
282.021	11.25
282.235	11.44
282.449	11.18
282.664	11.87
282.878	12.03
283.092	11.9
283.307	11.26
283.521	10.85
283.735	10.12
283.949	10.52
284.164	10.03
284.378	9.38
284.592	8.82
284.806	9.7
285.02	9.65
285.234	10.34
285.449	10
285.663	9.41
285.877	10.09
286.091	10.15
286.305	9.9
286.519	9.76
286.733	9.68
286.947	11.05
287.161	10.11
287.375	10.77
287.589	9.09
287.803	9.49
288.017	9.09
288.231	8.67
288.445	8.65
288.659	7.92
288.873	7.22
289.087	6.64
289.301	6.91
289.515	7.68
289.729	7.28
289.943	8.58
290.157	8.61
290.371	9.31
290.584	9.41
290.798	9.9
291.012	10.66
291.226	11.84
291.44	14.31
291.654	13.13
291.867	13.45
292.081	13.16
292.295	13.21
292.509	12.7
292.722	13.36
292.936	13.12
293.15	12.02
293.364	13.3
293.577	12.75
293.791	10.54
294.005	11.94
294.218	12.33
294.432	12.18
294.645	12.26
294.859	13.16
295.073	12.22
295.286	13.09
295.5	14.04
295.713	12.52
295.927	13.28
296.14	13.25
296.354	11.95
296.568	12.11
296.781	12.11
296.994	12.2
297.208	11.81
297.421	12.74
297.635	12.65
297.848	12.37
298.062	12.91
298.275	11.7
298.489	12.21
298.702	13.2
298.915	13.69
299.129	14.2
299.342	14.36
299.555	14.39
299.769	13.54
299.982	14.25
300.195	14.89
300.409	15.31
300.622	16.7
300.835	17.06
301.048	16.74
301.262	14.66
301.475	14.09
301.688	12.72
301.901	12.99
302.115	13.7
302.328	13.55
302.541	12.43
302.754	12.23
302.967	12.63
303.18	12.23
303.393	11.87
303.607	13.61
303.82	14.28
304.033	15.97
304.246	17.16
304.459	17.43
304.672	16.69
304.885	17.52
305.098	17.25
305.311	16.3
305.524	15.97
305.737	15.83
305.95	15.25
306.163	14.66
306.376	13.37
306.589	11.97
306.802	10.73
307.015	10.34
307.228	10.95
307.44	10.63
307.653	11.15
307.866	12.28
308.079	13.8
308.292	13.59
308.505	14.16
308.718	13.73
308.93	14.37
309.143	15.05
309.356	15.19
309.569	14.92
309.781	14.98
309.994	14.74
310.207	14.34
310.42	14.53
310.632	14.67
310.845	14.39
311.058	15.47
311.27	14.26
311.483	13.7
311.696	14.02
311.908	14.43
312.121	14.09
312.333	14.17
312.546	13.75
312.759	13.21
312.971	13.84
313.184	13.75
313.396	13.94
313.609	15.15
313.821	16.25
314.034	16.59
314.246	15.6
314.459	16.14
314.671	16.17
314.884	17.19
315.096	16.73
315.309	15.94
315.521	16.99
315.733	16.17
315.946	16.94
316.158	16.98
316.371	16.12
316.583	16.93
316.795	16.46
317.008	17.02
317.22	16.31
317.432	16.68
317.644	17.41
317.857	16.18
318.069	16.06
318.281	15.38
318.494	15.23
318.706	15.06
318.918	14.98
319.13	15.63
319.342	13.5
319.555	13.65
319.767	13.45
319.979	12.33
320.191	12.21
320.403	13.28
320.615	12.63
320.827	13.04
321.039	11.85
321.252	11.37
321.464	11.46
321.676	12.9
321.888	12.63
322.1	12.94
322.312	13.71
322.524	15.34
322.736	14.1
322.948	14.84
323.16	14.36
323.372	14.52
323.584	14.53
323.796	14.74
324.007	14.73
324.219	14.39
324.431	13.56
324.643	13.71
324.855	13.18
325.067	13.78
325.279	13.66
325.491	13.61
325.702	15
325.914	15.33
326.126	15.46
326.338	16.27
326.55	17
326.761	17.87
326.973	17.49
327.185	16.97
327.396	17.35
327.608	17.37
327.82	18.05
328.032	18.25
328.243	18.48
328.455	17.86
328.666	17.58
328.878	17.79
329.09	17.72
329.301	18.96
329.513	19.51
329.725	18.78
329.936	19.47
330.148	18.91
330.359	18.71
330.571	18.89
330.782	19.01
330.994	18.89
331.205	18.66
331.417	19.54
331.628	18.53
331.84	18.5
332.051	18.78
332.262	18.22
332.474	18.5
332.685	18.84
332.897	19.04
333.108	18.77
333.319	19.3
333.531	19.02
333.742	18.28
333.953	18.22
334.165	18.94
334.376	19.63
334.587	19.91
334.799	19.01
335.01	17.96
335.221	17.45
335.432	17.64
335.644	16.69
335.855	16.44
336.066	16.27
336.277	15.86
336.488	14.59
336.7	13.72
336.911	13.29
337.122	14.08
337.333	15.29
337.544	15.03
337.755	15.18
337.966	15.38
338.177	15.7
338.388	15.67
338.599	15.64
338.811	17.23
339.022	17.09
339.233	16.09
339.444	15.89
339.655	15.51
339.866	15.38
340.076	15.65
340.287	15.82
340.498	15.65
340.709	15.83
340.92	16.13
341.131	15.5
341.342	16.07
341.553	17.41
341.764	17.21
341.975	16.54
342.185	17.06
342.396	17.11
342.607	16.98
342.818	17.13
343.029	17.07
343.239	17.43
343.45	16.81
343.661	16.6
343.872	15.86
344.082	15.61
344.293	16
344.504	16.24
344.714	16.25
344.925	16.41
345.136	16.28
345.346	14.61
345.557	14.46
345.768	14.89
345.978	15
346.189	15.1
346.399	15.37
346.61	14.9
346.821	14.29
347.031	13.78
347.242	13.8
347.452	13.74
347.663	14.78
347.873	15.27
348.084	15.1
348.294	15.12
348.504	15.94
348.715	16.03
348.925	16.15
349.136	16.38
349.346	15.93
349.557	15.96
349.767	16.31
349.977	16.79
350.188	16.02
350.398	15.82
350.608	15.58
350.819	14.92
351.029	14.68
351.239	14.71
351.449	14.04
351.66	14.17
351.87	14.48
352.08	13.33
352.29	13.96
352.501	13.82
352.711	14.09
352.921	14.39
353.131	14.12
353.341	13.9
353.552	14.02
353.762	14.21
353.972	14.85
354.182	14.99
354.392	16.1
354.602	14.81
354.812	14.99
355.022	14.74
355.232	14.89
355.442	15.24
355.652	15.29
355.862	15.04
356.072	15.37
356.282	15.72
356.492	14.6
356.702	14.5
356.912	14.83
357.122	14.72
357.332	14.86
357.542	14.13
357.752	13.83
357.962	13.7
358.171	13.97
358.381	14.25
358.591	13.38
358.801	13.75
359.011	13.74
359.221	13.76
359.43	13.74
359.64	13.27
359.85	13.5
360.06	13.36
360.269	13.97
360.479	13.72
360.689	13.2
360.899	13.35
361.108	13.21
361.318	12.9
361.528	12.78
361.737	12.75
361.947	13.19
362.156	13.07
362.366	13.44
362.576	13.05
362.785	12.88
362.995	12.65
363.204	12.97
363.414	12.68
363.623	12.36
363.833	12.6
364.042	12.39
364.252	12.18
364.461	11.93
364.671	11.72
364.88	12.09
365.09	12.38
365.299	12.8
365.509	12.48
365.718	12.01
365.927	12.67
366.137	12.76
366.346	13.37
366.555	13.39
366.765	13.84
366.974	13.73
367.183	13.57
367.393	13.21
367.602	13.34
367.811	13.56
368.021	14.68
368.23	13.83
368.439	13.28
368.648	12.49
368.857	12.07
369.067	11.58
369.276	12.31
369.485	11.97
369.694	12.33
369.903	11.59
370.112	10.86
370.321	10.46
370.531	10.91
370.74	10.7
370.949	10.84
371.158	11.23
371.367	11.71
371.576	10.99
371.785	11.12
371.994	10.87
372.203	11.29
372.412	11.87
372.621	11.79
372.83	11.75
373.039	12.16
373.248	12.41
373.457	12.81
373.666	12.62
373.874	12.47
374.083	11.93
374.292	12.31
374.501	11.98
374.71	12.21
374.919	12.03
375.128	12.5
375.336	12.47
375.545	12.46
375.754	11.81
375.963	11.7
376.171	11.88
376.38	12.17
376.589	11.41
376.798	11.49
377.006	11.06
377.215	11.35
377.424	10.64
377.632	10.76
377.841	10.63
378.05	11.04
378.258	11.04
378.467	10.72
378.675	10.57
378.884	11.27
379.093	11.37
379.301	11.54
379.51	11.05
379.718	11.27
379.927	10.73
380.135	11
380.344	10.25
380.552	10.8
380.761	10.97
380.969	11.49
381.177	11.12
381.386	11.16
381.594	10.96
381.803	11.15
382.011	11.26
382.219	11.47
382.428	11.39
382.636	11.59
382.845	11.29
383.053	11.19
383.261	10.44
383.469	10.56
383.678	10.47
383.886	10.5
384.094	10.69
384.302	10.71
384.511	10.65
384.719	10.37
384.927	10.16
385.135	9.91
385.343	9.7
385.552	9.99
385.76	9.78
385.968	9.61
386.176	9.45
386.384	9.32
386.592	9.18
386.8	9.41
387.008	9.25
387.216	9.17
387.424	9.22
387.633	9.56
387.841	9.61
388.049	9.29
388.257	9.42
388.465	9.43
388.672	9.5
388.88	9.32
389.088	9.06
389.296	9.43
389.504	9.52
389.712	9.3
389.92	8.83
390.128	8.89
390.336	9.33
390.544	9.16
390.751	9.16
390.959	8.95
391.167	9.19
391.375	9.22
391.583	8.7
391.79	8.55
391.998	8.79
392.206	9.26
392.414	9.26
392.621	9.05
392.829	9.15
393.037	9.32
393.244	9.45
393.452	9.34
393.66	9.21
393.867	9.59
394.075	9.89
394.283	9.71
394.49	9.42
394.698	9.29
394.905	9.44
395.113	9.59
395.32	9.41
395.528	9.43
395.735	9.67
395.943	9.73
396.15	9.25
396.358	9.01
396.565	8.99
396.773	9.28
396.98	9.17
397.188	9.15
397.395	9.08
397.602	9.15
397.81	8.88
398.017	8.47
398.225	8.39
398.432	8.67
398.639	8.65
398.847	8.47
399.054	8.17
399.261	8.21
399.468	8.13
399.676	7.94
399.883	7.71
400.09	7.84
400.297	8.17
400.505	8.5
400.712	8.59
400.919	8.7
401.126	9.13
401.333	9.38
401.54	9.33
401.748	9.33
401.955	9.62
402.162	9.92
402.369	10.27
402.576	10.25
402.783	9.86
402.99	9.86
403.197	9.88
403.404	9.75
403.611	9.65
403.818	9.75
404.025	9.8
404.232	9.35
404.439	9.4
404.646	9.03
404.853	9.01
405.06	9.15
405.267	9.43
405.474	9.34
405.681	9.35
405.887	9.43
406.094	9.31
406.301	9.46
406.508	9.66
406.715	9.5
406.922	9.35
407.128	9.01
407.335	9.02
407.542	8.85
407.749	8.96
407.955	9.01
408.162	9.05
408.369	8.93
408.575	8.92
408.782	8.89
408.989	8.76
409.195	9.06
409.402	9.35
409.609	9.28
409.815	9.01
410.022	8.92
410.228	8.84
410.435	8.64
410.642	8.86
410.848	8.8
411.055	8.91
411.261	9.12
411.468	8.88
411.674	8.8
411.881	8.9
412.087	8.75
412.294	8.82
412.5	8.54
412.706	8.57
412.913	8.43
413.119	8.38
413.326	8.26
413.532	7.98
413.738	8.09
413.945	8.17
414.151	8.34
414.357	8.87
414.564	8.85
414.77	9.22
414.976	9.39
415.182	9.4
415.389	9.06
415.595	9.07
415.801	9.25
416.007	9.33
416.214	9.3
416.42	9.08
416.626	8.7
416.832	8.85
417.038	8.76
417.244	8.5
417.45	8.56
417.657	8.71
417.863	8.78
418.069	8.79
418.275	8.92
418.481	8.94
418.687	8.98
418.893	9.16
419.099	9.04
419.305	9.13
419.511	9.18
419.717	9.07
419.923	9.07
420.129	9.07
420.335	8.94
420.541	8.86
420.746	8.68
420.952	8.67
421.158	8.51
421.364	8.44
421.57	8.34
421.776	8.45
421.982	8.5
422.187	8.53
422.393	8.39
422.599	8.42
422.805	8.3
423.01	8.38
423.216	8.29
423.422	8.34
423.628	8.28
423.833	8.26
424.039	8.22
424.245	8.22
424.45	8.27
424.656	8.36
424.862	8.44
425.067	8.5
425.273	8.59
425.478	8.66
425.684	8.84
425.889	9.05
426.095	9.06
426.301	9.01
426.506	9.06
426.712	9.13
426.917	9.29
427.123	9.37
427.328	9.3
427.533	9.32
427.739	9.48
427.944	9.24
428.15	9.12
428.355	8.9
428.561	9.03
428.766	9.05
428.971	9.01
429.177	8.84
429.382	8.83
429.587	9.08
429.793	8.89
429.998	8.78
430.203	8.95
430.408	9.06
430.614	9.5
430.819	9.34
431.024	9.42
431.229	9.22
431.434	9.07
431.64	9.06
431.845	9.19
432.05	9.38
432.255	9.28
432.46	9.22
432.665	9.3
432.87	9.21
433.076	9.17
433.281	8.89
433.486	9.14
433.691	9.31
433.896	9.22
434.101	9.03
434.306	8.95
434.511	8.94
434.716	9.16
434.921	9.02
435.126	9.01
435.331	9.04
435.535	9.21
435.74	8.94
435.945	8.97
436.15	8.89
436.355	9.19
436.56	9.18
436.765	9.26
436.97	8.91
437.174	8.92
437.379	8.82
437.584	8.76
437.789	8.84
437.993	8.9
438.198	8.63
438.403	8.58
438.608	8.4
438.812	8.52
439.017	8.55
439.222	8.72
439.426	8.75
439.631	8.79
439.836	9
440.04	9
440.245	9.08
440.45	9.2
440.654	9.32
440.859	9.24
441.063	9.29
441.268	9.36
441.472	9.29
441.677	9.22
441.881	9.31
442.086	9.12
442.29	9.12
442.495	9.01
442.699	9
442.904	8.98
443.108	9.03
443.312	8.9
443.517	8.81
443.721	8.99
443.925	9.11
444.13	9.09
444.334	9.2
444.538	9.23
444.743	9.28
444.947	9.27
445.151	9.17
445.356	9.25
445.56	9.31
445.764	9.35
445.968	9.32
446.173	9.3
446.377	9.19
446.581	9.21
446.785	9.18
446.989	9.19
447.193	9.11
447.398	9.11
447.602	9.02
447.806	8.88
448.01	8.76
448.214	8.78
448.418	8.74
448.622	8.75
448.826	8.8
449.03	8.85
449.234	8.87
449.438	9.09
449.642	9.24
449.846	9.3
450.05	9.35
450.254	9.5
450.458	9.39
450.662	9.25
450.866	9.36
451.069	9.13
451.273	9.05
451.477	9.04
451.681	8.86
451.885	8.82
452.089	8.88
452.292	8.91
452.496	8.8
452.7	8.7
452.904	8.87
453.107	8.84
453.311	9
453.515	8.93
453.719	8.9
453.922	9.11
454.126	8.91
454.33	8.81
454.533	8.74
454.737	8.6
454.94	8.59
455.144	8.62
455.348	8.69
455.551	8.73
455.755	8.79
455.958	8.83
456.162	8.71
456.365	9
456.569	8.94
456.772	9.12
456.976	9.48
457.179	9.72
457.383	9.7
457.586	9.58
457.79	9.51
457.993	9.43
458.196	9.41
458.4	9.53
458.603	9.4
458.807	9.43
459.01	9.45
459.213	9.31
459.417	9.14
459.62	9.13
459.823	9.15
460.026	9.09
460.23	9.1
460.433	9.1
460.636	8.87
460.839	8.94
461.042	8.98
461.246	8.95
461.449	8.89
461.652	8.91
461.855	8.85
462.058	8.87
462.261	9.02
462.464	9.12
462.668	9.2
462.871	9.46
463.074	9.34
463.277	9.16
463.48	9.17
463.683	9.31
463.886	9.4
464.089	9.45
464.292	9.46
464.495	9.56
464.698	9.42
464.901	9.3
465.104	9.34
465.306	9.38
465.509	9.51
465.712	9.43
465.915	9.32
466.118	9.27
466.321	9.36
466.524	9.35
466.726	9.02
466.929	9.04
467.132	8.92
467.335	8.85
467.538	8.77
467.74	8.74
467.943	8.78
468.146	8.9
468.348	8.99
468.551	8.84
468.754	8.8
468.956	8.94
469.159	9.02
469.362	9.24
469.564	9.16
469.767	9.34
469.969	9.23
470.172	9.42
470.375	9.27
470.577	9.15
470.78	9.4
470.982	9.47
471.185	9.48
471.387	9.41
471.59	9.24
471.792	9.37
471.995	9.32
472.197	9.48
472.399	9.29
472.602	9.51
472.804	9.38
473.007	9.11
473.209	8.97
473.411	8.85
473.614	8.91
473.816	9.23
474.018	9.14
474.22	9.19
474.423	9.07
474.625	9.04
474.827	8.93
475.03	8.98
475.232	9.04
475.434	9.26
475.636	9.38
475.838	9.37
476.04	9.15
476.243	9.12
476.445	8.97
476.647	8.98
476.849	9.05
477.051	8.91
477.253	9.05
477.455	9.16
477.657	9.01
477.859	8.88
478.061	8.86
478.263	8.86
478.465	8.77
478.667	8.84
478.869	9.07
479.071	8.91
479.273	8.94
479.475	8.83
479.677	8.66
479.879	8.72
480.081	8.73
480.283	8.76
480.485	8.69
480.686	8.87
480.888	8.77
481.09	8.6
481.292	8.72
481.494	8.86
481.695	8.96
481.897	8.98
482.099	8.83
482.301	8.89
482.502	8.82
482.704	8.77
482.906	8.73
483.107	8.77
483.309	8.79
483.511	8.72
483.712	8.64
483.914	8.61
484.115	8.58
484.317	8.61
484.519	8.58
484.72	8.6
484.922	8.6
485.123	8.6
485.325	8.55
485.526	8.49
485.728	8.53
485.929	8.59
486.131	8.55
486.332	8.61
486.534	8.58
486.735	8.63
486.936	8.63
487.138	8.64
487.339	8.56
487.541	8.64
487.742	8.7
487.943	8.73
488.144	8.63
488.346	8.68
488.547	8.69
488.748	8.76
488.95	8.75
489.151	8.75
489.352	8.77
489.553	8.92
489.755	8.86
489.956	8.89
490.157	8.78
490.358	8.91
490.559	8.9
490.76	8.88
490.961	8.83
491.163	8.81
491.364	8.8
491.565	8.84
491.766	8.78
491.967	8.82
492.168	8.78
492.369	8.8
492.57	8.73
492.771	8.75
492.972	8.71
493.173	8.77
493.374	8.75
493.575	8.76
493.776	8.61
493.976	8.47
494.177	8.46
494.378	8.51
494.579	8.51
494.78	8.55
494.981	8.49
495.182	8.53
495.382	8.48
495.583	8.47
495.784	8.41
495.985	8.7
496.185	8.8
496.386	8.83
496.587	8.8
496.788	8.83
496.988	8.99
497.189	8.96
497.39	9.06
497.59	9.07
497.791	9.05
497.992	9.15
498.192	9.1
498.393	9.15
498.593	9.11
498.794	9.18
498.994	9.23
499.195	9.13
499.395	9.12
499.596	9.12
499.796	9.04
499.997	9.15
500.197	9.17
500.398	9.24
500.598	9.18
500.799	9.25
500.999	9
501.199	9.05
501.4	9.05
501.6	9.02
501.801	8.83
502.001	8.91
502.201	8.81
502.402	8.8
502.602	8.77
502.802	8.92
503.002	9.02
503.203	9.16
503.403	9.1
503.603	8.98
503.803	9.17
504.003	9.18
504.204	9.19
504.404	9.14
504.604	9.07
504.804	9.03
505.004	9.01
505.204	8.85
505.404	8.88
505.604	8.92
505.804	9
506.005	9.02
506.205	9.18
506.405	9.12
506.605	9.4
506.805	9.43
507.005	9.42
507.204	9.41
507.404	9.34
507.604	9.29
507.804	9.28
508.004	9.48
508.204	9.42
508.404	9.36
508.604	9.52
508.804	9.35
509.003	9.49
509.203	9.41
509.403	9.47
509.603	9.43
509.803	9.4
510.002	9.3
510.202	8.92
510.402	8.94
510.602	8.98
510.801	8.96
511.001	9.04
511.201	8.97
511.4	9.07
511.6	9.07
511.8	9.17
511.999	9.25
512.199	9.47
512.398	9.6
512.598	9.61
512.797	9.7
512.997	9.68
513.197	9.8
513.396	9.82
513.596	9.8
513.795	9.82
513.994	9.85
514.194	9.89
514.393	9.83
514.593	10.02
514.792	10.04
514.992	9.84
515.191	9.92
515.39	9.8
515.59	9.88
515.789	9.85
515.988	9.84
516.188	9.97
516.387	10.02
516.586	10.01
516.786	9.95
516.985	9.9
517.184	9.95
517.383	9.79
517.582	9.78
517.782	9.69
517.981	9.81
518.18	9.74
518.379	9.72
518.578	9.74
518.777	9.78
518.976	9.82
519.176	9.92
519.375	10.02
519.574	10.07
519.773	10.17
519.972	10.27
520.171	10.23
520.37	10.29
520.569	10.28
520.768	10.34
520.967	10.4
521.166	10.37
521.365	10.4
521.564	10.34
521.762	10.51
521.961	10.52
522.16	10.49
522.359	10.63
522.558	10.77
522.757	10.76
522.956	10.8
523.154	10.65
523.353	10.73
523.552	10.76
523.751	10.84
523.949	10.74
524.148	10.63
524.347	10.7
524.546	10.72
524.744	10.83
524.943	10.92
525.142	10.84
525.34	10.98
525.539	10.98
525.737	10.97
525.936	11.06
526.135	11.12
526.333	11.12
526.532	11.12
526.73	11.11
526.929	10.97
527.127	10.94
527.326	10.98
527.524	10.99
527.723	11
527.921	11.02
528.12	10.96
528.318	10.95
528.516	11
528.715	10.98
528.913	10.97
529.112	11.01
529.31	11.04
529.508	11.08
529.707	11.07
529.905	11.11
530.103	11.17
530.301	11.18
530.5	11.19
530.698	11.19
530.896	11.26
531.094	11.29
531.293	11.39
531.491	11.43
531.689	11.46
531.887	11.49
532.085	11.49
532.283	11.46
532.481	11.44
532.68	11.55
532.878	11.68
533.076	11.71
533.274	11.71
533.472	11.6
533.67	11.63
533.868	11.63
534.066	11.66
534.264	11.74
534.462	11.78
534.66	11.99
534.858	12.01
535.056	12
535.253	11.98
535.451	12.11
535.649	12.3
535.847	12.42
536.045	12.54
536.243	12.65
536.441	12.77
536.638	12.8
536.836	12.78
537.034	12.83
537.232	12.93
537.43	13.15
537.627	13.1
537.825	13.21
538.023	13.09
538.22	13.15
538.418	13.17
538.616	13.01
538.813	13.11
539.011	13.15
539.209	13.28
539.406	13.32
539.604	13.22
539.801	13.42
539.999	13.42
540.196	13.56
540.394	13.52
540.591	13.45
540.789	13.54
540.986	13.43
541.184	13.41
541.381	13.42
541.579	13.41
541.776	13.46
541.974	13.46
542.171	13.43
542.368	13.48
542.566	13.55
542.763	13.65
542.96	13.64
543.158	13.81
543.355	13.96
543.552	14.01
543.75	14.09
543.947	14.23
544.144	14.27
544.341	14.39
544.539	14.42
544.736	14.51
544.933	14.55
545.13	14.69
545.327	14.77
545.524	14.88
545.722	14.91
545.919	14.95
546.116	14.95
546.313	15.05
546.51	15.09
546.707	15.14
546.904	15.19
547.101	15.39
547.298	15.45
547.495	15.53
547.692	15.42
547.889	15.56
548.086	15.67
548.283	15.77
548.48	15.83
548.677	15.88
548.874	16.11
549.07	16.23
549.267	16.15
549.464	16.35
549.661	16.39
549.858	16.78
550.055	16.72
550.251	16.84
550.448	16.8
550.645	17.17
550.842	17.33
551.038	17.27
551.235	17.37
551.432	17.57
551.628	17.56
551.825	17.5
552.022	17.34
552.218	17.51
552.415	17.61
552.612	17.84
552.808	17.59
553.005	17.63
553.201	17.72
553.398	17.86
553.594	17.74
553.791	17.9
553.987	18.2
554.184	18.18
554.38	18.28
554.577	18.38
554.773	18.53
554.97	18.68
555.166	18.84
555.362	18.96
555.559	18.89
555.755	19.09
555.952	19.1
556.148	19.01
556.344	19.42
556.541	19.39
556.737	19.38
556.933	19.26
557.129	19.35
557.326	19.32
557.522	19.42
557.718	19.54
557.914	19.75
558.11	19.68
558.307	19.94
558.503	19.7
558.699	19.97
558.895	19.97
559.091	20.19
559.287	20.37
559.483	20.66
559.679	20.75
559.876	20.9
560.072	20.91
560.268	21.16
560.464	21.01
560.66	21.2
560.856	21.24
561.052	21.38
561.247	21.37
561.443	21.31
561.639	21.28
561.835	21.4
562.031	21.49
562.227	21.58
562.423	21.75
562.619	22.01
562.815	22.17
563.01	22.4
563.206	22.41
563.402	22.46
563.598	22.68
563.793	22.97
563.989	23.1
564.185	22.85
564.381	22.97
564.576	22.88
564.772	22.97
564.968	22.91
565.163	22.85
565.359	22.95
565.555	23.1
565.75	23.13
565.946	23.06
566.141	23.05
566.337	23.32
566.532	23.37
566.728	23.72
566.923	23.76
567.119	23.99
567.314	24.08
567.51	24.18
567.705	24.26
567.901	24.36
568.096	24.62
568.292	24.57
568.487	24.67
568.682	24.67
568.878	24.55
569.073	24.59
569.268	24.68
569.464	24.89
569.659	25.14
569.854	25.45
570.05	25.53
570.245	25.48
570.44	25.57
570.635	25.52
570.831	25.75
571.026	25.73
571.221	25.86
571.416	25.88
571.611	25.94
571.806	25.87
572.002	25.76
572.197	25.71
572.392	25.79
572.587	26.04
572.782	26.15
572.977	26.12
573.172	26.27
573.367	26.24
573.562	26.4
573.757	26.47
573.952	26.6
574.147	26.6
574.342	26.8
574.537	26.81
574.732	26.7
574.927	26.7
575.121	26.73
575.316	26.73
575.511	26.94
575.706	26.79
575.901	26.83
576.096	26.91
576.29	27.03
576.485	27
576.68	26.92
576.875	27.11
577.069	27.33
577.264	27.44
577.459	27.42
577.654	27.53
577.848	27.73
578.043	27.9
578.238	28.1
578.432	28.03
578.627	28.05
578.821	28.32
579.016	28.24
579.21	28.23
579.405	28.25
579.6	28.45
579.794	28.38
579.989	28.42
580.183	28.57
580.378	28.47
580.572	28.63
580.766	28.65
580.961	28.25
581.155	28.24
581.35	28.36
581.544	28.62
581.738	28.71
581.933	28.78
582.127	28.72
582.321	28.42
582.516	28.6
582.71	28.75
582.904	28.8
583.099	29.08
583.293	29.33
583.487	29.1
583.681	29.13
583.875	28.97
584.07	28.97
584.264	29.08
584.458	29.26
584.652	29.12
584.846	29.23
585.04	29.35
585.234	29.71
585.428	29.54
585.623	29.67
585.817	29.54
586.011	29.62
586.205	29.59
586.399	29.8
586.593	29.7
586.787	29.55
586.981	29.44
587.174	29.28
587.368	29.22
587.562	29.48
587.756	29.79
587.95	29.95
588.144	30.04
588.338	30.16
588.532	30.19
588.725	30.05
588.919	30.16
589.113	30.38
589.307	30.44
589.501	30.36
589.694	30.36
589.888	30.28
590.082	30.25
590.275	30.14
590.469	30.09
590.663	30.12
590.856	30.3
591.05	30.38
591.244	30.31
591.437	30.33
591.631	30.43
591.824	30.46
592.018	30.38
592.212	30.3
592.405	30.5
592.599	30.55
592.792	30.56
592.986	30.58
593.179	30.72
593.372	30.69
593.566	30.92
593.759	31.11
593.953	31.14
594.146	31.28
594.339	31.57
594.533	31.55
594.726	31.61
594.92	31.47
595.113	31.5
595.306	31.27
595.499	31.28
595.693	31.5
595.886	31.56
596.079	31.55
596.272	31.68
596.466	31.57
596.659	31.6
596.852	31.66
597.045	31.72
597.238	31.71
597.431	31.82
597.624	31.77
597.818	31.67
598.011	31.58
598.204	31.67
598.397	31.79
598.59	31.73
598.783	31.84
598.976	31.75
599.169	31.74
599.362	31.86
599.555	31.79
599.748	31.82
599.941	31.64
600.134	31.53
600.326	31.42
600.519	31.09
600.712	31.11
600.905	31.26
601.098	31.52
601.291	31.61
601.483	31.46
601.676	31.79
601.869	31.89
602.062	32.17
602.255	32.26
602.447	32.34
602.64	32.26
602.833	32.31
603.025	32.38
603.218	32.23
603.411	32.18
603.603	32.36
603.796	32.32
603.989	32.24
604.181	32.24
604.374	32.39
604.566	32.43
604.759	32.45
604.951	32.55
605.144	32.47
605.336	32.62
605.529	32.46
605.721	32.6
605.914	32.51
606.106	32.54
606.299	32.52
606.491	32.39
606.683	32.26
606.876	32.38
607.068	32.41
607.26	32.19
607.453	31.97
607.645	32.33
607.837	32.2
608.03	32.36
608.222	32.48
608.414	32.22
608.606	32.33
608.799	32.54
608.991	32.6
609.183	32.77
609.375	32.88
609.567	33.06
609.759	32.93
609.952	33.01
610.144	33.12
610.336	33.24
610.528	33.41
610.72	33.35
610.912	33.28
611.104	33.48
611.296	33.34
611.488	33.43
611.68	33.39
611.872	33.4
612.064	33.24
612.256	32.95
612.448	32.78
612.64	33.03
612.832	33.53
613.023	33.64
613.215	33.4
613.407	33.46
613.599	33.51
613.791	33.56
613.983	33.82
614.174	33.78
614.366	33.85
614.558	33.82
614.75	33.5
614.941	33.09
615.133	33.09
615.325	33.11
615.516	33.15
615.708	33
615.9	33.17
616.091	32.98
616.283	33.29
616.475	33.44
616.666	33.68
616.858	34.04
617.049	34.07
617.241	34.12
617.432	33.93
617.624	33.7
617.815	33.94
618.007	33.74
618.198	33.81
618.39	33.68
618.581	33.83
618.773	33.69
618.964	33.43
619.155	33.68
619.347	33.52
619.538	33.87
619.729	34.07
619.921	34.13
620.112	34.2
620.303	34.19
620.494	34.14
620.686	33.94
620.877	33.84
621.068	33.8
621.259	33.55
621.451	33.87
621.642	33.77
621.833	33.83
622.024	33.71
622.215	33.48
622.406	33.49
622.597	33.55
622.788	33.47
622.98	33.64
623.171	33.79
623.362	34.07
623.553	34.03
623.744	34.14
623.935	34.04
624.126	34.21
624.317	34.43
624.508	34.65
624.698	34.85
624.889	34.89
625.08	35.1
625.271	35.09
625.462	34.88
625.653	34.87
625.844	34.92
626.034	34.9
626.225	34.87
626.416	34.89
626.607	34.88
626.798	34.89
626.988	34.93
627.179	34.64
627.37	34.71
627.56	34.59
627.751	34.65
627.942	34.58
628.132	34.83
628.323	34.55
628.514	34.53
628.704	34.56
628.895	34.46
629.085	34.47
629.276	34.69
629.466	34.81
629.657	35.1
629.847	35.19
630.038	35.17
630.228	35.23
630.419	35.4
630.609	35.29
630.8	35.23
630.99	35.25
631.181	35.36
631.371	35.21
631.561	35.11
631.752	35.12
631.942	34.87
632.132	34.84
632.323	34.51
632.513	34.44
632.703	34.68
632.893	34.59
633.084	34.77
633.274	34.93
633.464	35.17
633.654	35.04
633.844	34.84
634.034	34.67
634.225	34.8
634.415	35.04
634.605	34.82
634.795	34.9
634.985	34.98
635.175	34.95
635.365	34.74
635.555	34.67
635.745	34.64
635.935	34.58
636.125	34.85
636.315	35.02
636.505	35
636.695	35.38
636.885	35.29
637.075	35.52
637.265	35.45
637.455	35.42
637.644	35.54
637.834	35.73
638.024	35.69
638.214	35.81
638.404	35.7
638.593	35.61
638.783	35.53
638.973	35.61
639.163	35.3
639.352	35.23
639.542	35.43
639.732	35.4
639.921	35.1
640.111	35.08
640.301	34.97
640.49	35.12
640.68	34.83
640.87	35.25
641.059	35.39
641.249	35.42
641.438	35.41
641.628	35.47
641.817	35.15
642.007	35.57
642.196	35.85
642.386	35.74
642.575	35.9
642.764	36.28
642.954	36.01
643.143	36.05
643.333	36.26
643.522	36.36
643.711	36.13
643.901	36.31
644.09	36.29
644.279	36.33
644.469	36.27
644.658	36.03
644.847	35.91
645.036	35.68
645.226	35.57
645.415	35.17
645.604	35.22
645.793	35.41
645.982	35.51
646.171	35.32
646.361	35.4
646.55	35.73
646.739	35.68
646.928	35.74
647.117	36.22
647.306	36.01
647.495	36.34
647.684	36.3
647.873	36.55
648.062	36.96
648.251	36.97
648.44	36.48
648.629	36.15
648.818	36.22
649.007	36.36
649.196	36.12
649.384	36.16
649.573	36.09
649.762	36.06
649.951	36.31
650.14	35.72
650.328	35.87
650.517	36.27
650.706	36.47
650.895	36.45
651.083	36.19
651.272	35.64
651.461	35.73
651.65	35.72
651.838	35.69
652.027	35.26
652.216	35.37
652.404	35.37
652.593	35.4
652.781	35.29
652.97	35.19
653.158	35.35
653.347	36.29
653.535	36.19
653.724	36.21
653.912	36.39
654.101	36.39
654.289	36.47
654.478	36.49
654.666	36.23
654.855	36.11
655.043	36.15
655.231	35.96
655.42	35.5
655.608	35.73
655.796	35.73
655.985	36.08
656.173	36.22
656.361	36.49
656.55	36.51
656.738	36.78
656.926	37.12
657.114	37.16
657.302	37.18
657.491	37.2
657.679	37.27
657.867	37.25
658.055	36.78
658.243	36.71
658.431	36.63
658.619	36.63
658.807	36.46
658.996	36.65
659.184	36.66
659.372	36.71
659.56	36.73
659.748	36.53
659.936	36.52
660.124	36.72
660.311	36.82
660.499	36.49
660.687	36.52
660.875	36.99
661.063	36.73
661.251	36.58
661.439	36.57
661.627	36.58
661.814	36.8
662.002	36.71
662.19	36.7
662.378	36.82
662.565	36.98
662.753	36.98
662.941	36.7
663.129	36.51
663.316	36.49
663.504	36.59
663.692	36.77
663.879	36.59
664.067	36.55
664.254	36.43
664.442	36.26
664.63	36.28
664.817	36.31
665.005	36.11
665.192	36.25
665.38	36.26
665.567	36.65
665.755	36.85
665.942	37.03
666.13	37.26
666.317	37.28
666.504	37.21
666.692	37.06
666.879	37.41
667.067	37.54
667.254	37.76
667.441	38.17
667.629	37.55
667.816	37.22
668.003	36.95
668.19	37.14
668.378	37.2
668.565	36.99
668.752	37.32
668.939	37.09
669.127	36.97
669.314	36.78
669.501	36.33
669.688	36.67
669.875	37.11
670.062	37.65
670.249	37.54
670.436	37.52
670.623	37.78
670.81	37.89
670.997	38.03
671.184	38.04
671.371	38.71
671.558	38.99
671.745	39.02
671.932	38.76
672.119	38.15
672.306	38.16
672.493	38.1
672.68	38.35
672.867	38.32
673.054	38.03
673.24	38.56
673.427	38.08
673.614	38.13
673.801	38.14
673.988	38.21
674.174	38.63
674.361	38.79
674.548	39.05
674.734	38.93
674.921	38.81
675.108	38.96
675.294	38.73
675.481	38.79
675.668	38.77
675.854	38.77
676.041	38.91
676.227	38.82
676.414	38.91
676.601	38.58
676.787	38.29
676.974	37.81
677.16	37.9
677.347	38.09
677.533	38.03
677.719	38.26
677.906	38.21
678.092	37.92
678.279	38.08
678.465	38.11
678.651	38.07
678.838	38.01
679.024	38.58
679.21	38.58
679.397	38.32
679.583	38.36
679.769	38.33
679.955	38.37
680.142	38.43
680.328	38.38
680.514	37.79
680.7	37.63
680.886	37.8
681.073	37.39
681.259	37.14
681.445	36.9
681.631	36.83
681.817	36.86
682.003	36.57
682.189	36.44
682.375	36.31
682.561	36.87
682.747	37.36
682.933	37.41
683.119	37.72
683.305	37.93
683.491	37.79
683.677	37.35
683.863	36.89
684.049	37.29
684.235	37.32
684.42	37.16
684.606	37.13
684.792	36.98
684.978	36.94
685.164	36.98
685.349	37.18
685.535	37.39
685.721	37.62
685.907	37.96
686.092	37.8
686.278	37.9
686.464	38.27
686.649	37.91
686.835	37.93
687.021	38.08
687.206	38.2
687.392	37.52
687.577	37.81
687.763	38.06
687.948	38.16
688.134	38.2
688.319	38.18
688.505	38.12
688.69	38.44
688.876	38.17
689.061	37.78
689.247	37.75
689.432	38.15
689.618	37.94
689.803	38.01
689.988	38.11
690.174	38.04
690.359	37.73
690.544	37.92
690.73	38.01
690.915	38.18
691.1	38.42
691.285	38.7
691.471	38.98
691.656	39.35
691.841	39.3
692.026	38.96
692.211	38.87
692.396	39.22
692.582	38.82
692.767	38.75
692.952	38.71
693.137	38.78
693.322	38.38
693.507	38.3
693.692	38.43
693.877	38.24
694.062	38.63
694.247	38.68
694.432	38.47
694.617	38.73
694.802	38.81
694.987	39.08
695.172	38.9
695.357	39.06
695.541	38.69
695.726	38.7
695.911	38.8
696.096	38.66
696.281	38.68
696.466	38.62
696.65	38.45
696.835	38.35
697.02	38.16
697.204	38.53
697.389	38.43
697.574	38.5
697.759	38.31
697.943	38.25
698.128	37.98
698.312	38.04
698.497	38.19
698.682	38.45
698.866	38.89
699.051	39.14
699.235	39.26
699.42	39.27
699.604	39.11
699.789	39.1
699.973	39.41
700.158	39.69
700.342	39.89
700.527	40.27
700.711	39.99
700.895	39.8
701.08	39.55
701.264	39
701.448	39.13
701.633	39.46
701.817	39.36
702.001	39.28
702.186	39.66
702.37	39.45
702.554	39.4
702.738	39.21
702.923	38.87
703.107	38.93
703.291	39.42
703.475	39.24
703.659	39.77
703.843	40.27
704.027	39.94
704.212	39.1
704.396	39.51
704.58	39.53
704.764	39.83
704.948	39.38
705.132	39.77
705.316	39.13
705.5	39.48
705.684	38.98
705.868	38.43
706.052	39.38
706.235	39.87
706.419	39.9
706.603	39.73
706.787	40.03
706.971	40.84
707.155	41
707.339	41.75
707.522	41.8
707.706	41.71
707.89	42.1
708.074	41.32
708.257	41.34
708.441	41.8
708.625	41.18
708.808	41.15
708.992	40.89
709.176	40.59
709.359	40.39
709.543	40.51
709.727	40.48
709.91	40.02
710.094	39.9
710.277	40.49
710.461	39.57
710.644	40.2
710.828	40.42
711.011	40.58
711.195	40.56
711.378	41.05
711.562	41.12
711.745	41.13
711.928	41.38
712.112	41.29
712.295	40.65
712.478	40.34
712.662	40.43
712.845	40.22
713.028	39.89
713.212	39.61
713.395	39.11
713.578	38.63
713.761	39.05
713.945	38.77
714.128	39.37
714.311	39.53
714.494	40.07
714.677	40.09
714.86	40.15
715.043	40.17
715.227	40.25
715.41	40.59
715.593	40.61
715.776	40.53
715.959	41.25
716.142	40.64
716.325	40.76
716.508	40.84
716.691	40.76
716.874	40.6
717.057	40.79
717.239	41.23
717.422	41.34
717.605	42.2
717.788	42.17
717.971	42.26
718.154	43.9
718.337	43.93
718.519	43.63
718.702	43.6
718.885	43.48
719.068	43.64
719.25	43.2
719.433	43.38
719.616	42.02
719.798	41.98
719.981	42.3
720.164	41.66
720.346	41.3
720.529	40.35
720.712	39.48
720.894	40.03
721.077	39.49
721.259	39.92
721.442	38.9
721.624	39.56
721.807	39.54
721.989	38.86
722.172	38.28
722.354	38.56
722.537	40.42
722.719	41.72
722.901	41.52
723.084	41.65
723.266	40.76
723.448	40.75
723.631	41.55
723.813	41.49
723.995	41.55
724.178	41.47
724.36	41.41
724.542	40.41
724.724	39.81
724.907	40.2
725.089	40.71
725.271	41.5
725.453	42.05
725.635	41.45
725.817	42.33
725.999	41.23
726.181	41.59
726.364	40.96
726.546	40.74
726.728	41.24
726.91	40.5
727.092	39.97
727.274	39.27
727.456	39.18
727.638	39.18
727.819	38.3
728.001	39.51
728.183	38.86
728.365	39.38
728.547	39.87
728.729	40
728.911	41.1
729.093	41.51
729.274	42.4
729.456	42.07
729.638	41.69
729.82	41.28
730.001	40.76
730.183	40.61
730.365	40.29
730.546	40.2
730.728	39.41
730.91	38.66
731.091	38.22
731.273	37.97
731.455	38.02
731.636	38.28
731.818	38.77
731.999	39.04
732.181	39.55
732.362	40.34
732.544	41.02
732.725	40.75
732.907	40.8
733.088	41.68
733.27	42
733.451	42.23
733.633	43.32
733.814	43.84
733.995	43.39
734.177	43.35
734.358	43.32
734.539	42.93
734.721	43.35
734.902	42.91
735.083	42.58
735.264	42.45
735.446	42.22
735.627	41.02
735.808	40.74
735.989	40.48
736.17	41.18
736.351	40.34
736.533	40.4
736.714	41.6
736.895	41.75
737.076	41.39
737.257	41.53
737.438	41.98
737.619	41.45
737.8	40.98
737.981	40.68
738.162	40.3
738.343	40.25
738.524	40.45
738.705	40
738.886	40.56
739.067	40.96
739.247	40.38
739.428	39.8
739.609	39.8
739.79	40.16
739.971	41.81
740.151	41.1
740.332	42.07
740.513	42.34
740.694	42.03
740.874	41.31
741.055	41.82
741.236	42.63
741.417	43.21
741.597	43.3
741.778	42.39
741.958	41.24
742.139	41.86
742.32	41.36
742.5	40.76
742.681	40.68
742.861	41.22
743.042	39.81
743.222	39.16
743.403	38.53
743.583	38.53
743.764	39.98
743.944	40.34
744.124	39.38
744.305	40.37
744.485	41.66
744.666	41.61
744.846	41.84
745.026	42.68
745.207	43.09
745.387	43.7
745.567	44.06
745.747	43.09
745.928	43.67
746.108	44.67
746.288	44.38
746.468	42.68
746.648	42.96
746.829	42.22
747.009	42.34
747.189	41.96
747.369	42.61
747.549	42.66
747.729	42.84
747.909	43.29
748.089	43.53
748.269	42.92
748.449	44.06
748.629	43.54
748.809	44.7
748.989	44.43
749.169	44.62
749.349	44.19
749.529	44.72
749.709	45.33
749.889	44.49
750.068	44.22
750.248	44.27
750.428	44.06
750.608	44.98
750.788	43.71
750.967	44.13
751.147	43.91
751.327	43.1
751.507	43.13
751.686	43.16
751.866	43.28
752.046	42.98
752.225	43.57
752.405	42.94
752.585	42.05
752.764	41.95
752.944	40.87
753.123	40.99
753.303	41.8
753.482	41.29
753.662	41.55
753.841	41.08
754.021	41.3
754.2	40.67
754.38	40.66
754.559	40.88
754.739	41.39
754.918	41.97
755.097	41.78
755.277	41.45
755.456	42.01
755.635	40.94
755.815	42.21
755.994	42.77
756.173	43.1
756.352	43.22
756.532	43.8
756.711	44.79
756.89	45.4
757.069	45.44
757.248	45.26
757.427	43.98
757.607	44.42
757.786	45.03
757.965	44.93
758.144	44.2
758.323	44.99
758.502	44.32
758.681	43.2
758.86	42.47
759.039	42.33
759.218	42.74
759.397	43.43
759.576	43.25
759.755	41.45
759.934	40.67
760.113	40.41
760.291	40.22
760.47	40.02
760.649	40.59
760.828	40.49
761.007	41.24
761.186	41.23
761.364	41.12
761.543	41.35
761.722	41.52
761.901	41.34
762.079	41.96
762.258	41.76
762.437	42.06
762.615	42.72
762.794	43.48
762.972	42.62
763.151	42.52
763.33	42.55
763.508	42.21
763.687	42.54
763.865	42.64
764.044	42.43
764.222	42.64
764.401	42.47
764.579	41.39
764.758	40.69
764.936	41.15
765.114	41.24
765.293	41.18
765.471	41.36
765.65	41.15
765.828	41.35
766.006	41.61
766.184	40.48
766.363	40.9
766.541	41.66
766.719	41.91
766.898	41.73
767.076	42
767.254	42.69
767.432	43.18
767.61	43.24
767.788	43.19
767.967	43.63
768.145	44.38
768.323	44.23
768.501	44.42
768.679	44.85
768.857	45.38
769.035	44.82
769.213	44.01
769.391	43.17
769.569	43.02
769.747	42.6
769.925	41.55
770.103	41.08
770.281	41.96
770.459	41.01
770.636	40.58
770.814	40.64
770.992	40.09
771.17	40.04
771.348	39.09
771.525	40.33
771.703	41.51
771.881	42.57
772.059	43.21
772.236	41.41
772.414	42.46
772.592	43.24
772.769	42.55
772.947	43.87
773.125	45.08
773.302	47.28
773.48	46.46
773.657	45.95
773.835	45.88
774.013	46.94
774.19	47.54
774.368	47.15
774.545	45.96
774.723	45.58
774.9	45.33
775.077	45.36
775.255	43.94
775.432	43.96
775.61	44.75
775.787	43.13
775.964	42.84
776.142	44.35
776.319	44.33
776.496	44.22
776.674	45.15
776.851	45.19
777.028	44.95
777.205	45.48
777.382	45.08
777.56	43.08
777.737	43.95
777.914	40.79
778.091	40.46
778.268	40.74
778.445	42.04
778.622	42.51
778.8	45.66
778.977	44.42
779.154	55.07
779.331	55.7
779.508	57.35
779.685	57.23
779.862	60.08
780.038	59.5
780.215	59.71
780.392	58.05
780.569	57.99
780.746	54.98
780.923	54.53
781.1	43.28
781.277	43.23
781.453	42.09
781.63	43.17
781.807	44.86
781.984	46.39
782.16	46.79
782.337	47.72
782.514	46.49
782.691	46.61
782.867	46.6
783.044	45.86
783.221	45.37
783.397	47.37
783.574	47.87
783.75	46.87
783.927	46.62
784.103	46.89
784.28	46.12
784.456	47.29
784.633	46.35
784.809	48.62
784.986	49.12
785.162	49.39
785.339	47.69
785.515	48.66
785.692	48.32
785.868	48.05
786.044	45.51
786.221	45.18
786.397	45.29
786.573	45.46
786.749	44.8
786.926	44.35
787.102	45.17
787.278	46.93
787.454	45.63
787.631	46.45
787.807	46.65
787.983	46.37
788.159	47.73
788.335	48.94
788.511	50.07
788.687	50.17
788.863	50.68
789.039	49.51
789.216	47.91
789.392	48.35
789.568	48.73
789.744	50.09
789.919	52.38
790.095	52.18
790.271	51.13
790.447	50.23
790.623	51.25
790.799	52.53
790.975	53.5
791.151	53.85
791.327	52.65
791.502	50.36
791.678	47.21
791.854	47.17
792.03	49.18
792.205	49.16
792.381	49.89
792.557	48.77
792.733	48.14
792.908	48.87
793.084	50.98
793.259	50.99
793.435	52.52
793.611	53.13
793.786	54.34
793.962	51.27
794.137	51.89
794.313	51
794.488	51.82
794.664	52.02
794.839	50.3
795.015	47.82
795.19	47.53
795.366	47.21
795.541	46.79
795.716	44.61
795.892	44.94
796.067	44.56
796.242	44.48
796.418	45.15
796.593	44.37
796.768	44.34
796.944	44.38
797.119	44.72
797.294	45.42
797.469	46.06
797.644	46.41
797.82	47.41
797.995	45.46
798.17	47.1
798.345	46.77
798.52	47.75
798.695	47.63
798.87	48.08
799.045	49.6
799.22	49.91
799.395	50.64
799.57	52.42
799.745	52.71
799.92	53.06
800.095	53.24
800.27	50.01
800.445	50.54
800.62	49.92
800.795	48.74
800.97	46.46
801.145	44.77
801.319	41.52
801.494	38.96
801.669	39.31
801.844	40.46
802.018	38.55
802.193	41.71
802.368	40.62
802.543	42.03
802.717	42.54
802.892	44.11
803.067	44.36
803.241	46.46
803.416	47.48
803.59	47.54
803.765	47.94
803.94	48.61
804.114	48.34
804.289	46.64
804.463	46.57
804.638	47.89
804.812	48.19
804.986	49.34
805.161	50.27
805.335	50.38
805.51	48.79
805.684	47.4
805.858	46.09
806.033	45.16
806.207	45.86
806.381	45.73
806.556	45.56
806.73	46.86
806.904	46.62
807.078	46.13
807.253	46.64
807.427	46.53
807.601	48.13
807.775	49.06
807.949	48.99
808.123	49.54
808.298	49.17
808.472	49.26
808.646	46.52
808.82	46.33
808.994	48.01
809.168	47.41
809.342	47.72
809.516	46.53
809.69	44.91
809.864	45.29
810.038	47.62
810.212	48.16
810.385	46.84
810.559	46.58
810.733	44.34
810.907	44.73
811.081	47.78
811.255	46.88
811.428	48.16
811.602	53.49
811.776	54.18
811.95	52.9
812.123	52.47
812.297	53.12
812.471	57.34
812.644	60.65
812.818	61.78
812.992	58.83
813.165	60.53
813.339	58.39
813.512	56.05
813.686	52.25
813.86	53.47
814.033	54.32
814.207	57.44
814.38	54.12
814.554	51.28
814.727	48.88
814.9	51.57
815.074	50.99
815.247	50.62
815.421	47.47
815.594	50.51
815.767	50.62
815.941	47.31
816.114	44.19
816.287	44.67
816.46	46.77
816.634	45.21
816.807	41.77
816.98	42.53
817.153	43.04
817.327	46.24
817.5	46.39
817.673	45.24
817.846	48.08
818.019	48.03
818.192	50.4
818.365	46.5
818.538	46.66
818.711	46.78
818.884	44.2
819.057	44.82
819.23	44.08
819.403	43.4
819.576	43.42
819.749	41.28
819.922	42.05
820.095	39.13
820.268	41.33
820.441	41.03
820.614	40.9
820.786	42.07
820.959	43.12
821.132	42.88
821.305	42.96
821.477	42.8
821.65	43.93
821.823	43.48
821.996	43.75
822.168	43.69
822.341	43.56
822.514	43.41
822.686	43.22
822.859	42.46
823.031	42.24
823.204	41.96
823.376	41.4
823.549	41.08
823.722	41.29
823.894	41.08
824.067	41.05
824.239	40.7
824.411	40.54
824.584	40.81
824.756	40.51
824.929	40.13
825.101	40.48
825.273	41.24
825.446	41.31
825.618	41.2
825.79	42.07
825.963	41.72
826.135	42.32
826.307	42.34
826.479	42.22
826.652	42.96
826.824	43.49
826.996	43.13
827.168	42.47
827.34	41.9
827.512	41.93
827.684	40.79
827.856	41.05
828.029	42.25
828.201	42.22
828.373	42.12
828.545	42.42
828.717	43.15
828.889	43.18
829.061	43.34
829.232	44.87
829.404	46.22
829.576	46.43
829.748	46.64
829.92	45.35
830.092	46.83
830.264	46.06
830.436	46.59
830.607	46.92
830.779	47.48
830.951	48.55
831.123	45.99
831.294	43.34
831.466	44.37
831.638	43.2
831.809	43.54
831.981	40.35
832.153	41.69
832.324	42.75
832.496	42.31
832.667	43.51
832.839	43.17
833.011	44.03
833.182	44.78
833.354	44.15
833.525	44.82
833.697	43.8
833.868	45.8
834.039	46.59
834.211	45.84
834.382	44.34
834.554	43.84
834.725	43.7
834.896	44.79
835.068	43.71
835.239	43.68
835.41	43.82
835.581	44.16
835.753	43.93
835.924	44.68
836.095	44.06
836.266	44.44
836.438	43.16
836.609	43.01
836.78	43.85
836.951	44.37
837.122	42.25
837.293	42.62
837.464	42.5
837.635	44.29
837.806	42.81
837.977	41.72
838.148	43.36
838.319	44.36
838.49	46.01
838.661	45.83
838.832	47.39
839.003	50.34
839.174	53.76
839.345	56.7
839.516	56.98
839.687	55.67
839.857	55.44
840.028	49.96
840.199	49.81
840.37	48.41
840.54	45.07
840.711	43.27
840.882	46.04
841.053	46.17
841.223	44.22
841.394	37.71
841.564	35.45
841.735	38.11
841.906	43.03
842.076	48.58
842.247	47
842.417	47.72
842.588	51.8
842.758	48.8
842.929	45.63
843.099	46.28
843.27	52.22
843.44	57.96
843.611	58
843.781	58.27
843.951	54.54
844.122	56.16
844.292	57.65
844.462	51.87
844.633	52.32
844.803	53.78
844.973	54.26
845.144	53.77
845.314	56.1
845.484	59.81
845.654	56.38
845.824	60.32
845.995	59.93
846.165	57.17
846.335	67.31
846.505	63.24
846.675	59.27
846.845	68.81
847.015	66.17
847.185	64.25
847.355	56.78
847.525	63.2
847.695	57.58
847.865	67.86
848.035	66.97
848.205	57.57
848.375	68.99
848.545	75.19
848.715	59.03
848.884	60.94
849.054	59.57
849.224	61.12
849.394	66.65
849.564	66.48
849.733	58.53
849.903	65.9
850.073	69.22
850.243	70.86
850.412	67.24
850.582	72.92
850.752	70.49
850.921	69.63
851.091	69.67
851.26	63.51
851.43	65.37
851.599	64.87
851.769	61.78
851.939	58.64
852.108	54.9
852.278	58.65
852.447	58.04
852.616	60.26
852.786	63.58
852.955	68.7
853.125	68.28
853.294	62.19
853.463	64.91
853.633	66.12
853.802	80.38
853.971	85.92
854.141	86.69
854.31	85.36
854.479	82.25
854.648	74.52
854.818	70.93
854.987	72.78
855.156	83.67
855.325	84
855.494	85.59
855.663	72.82
855.832	69.31
856.001	66.43
856.171	52.86
856.34	55.16
856.509	60.01
856.678	61.91
856.847	62.86
857.016	53.23
857.185	53.59
857.353	44.19
857.522	47.92
857.691	40.66
857.86	39.05
858.029	44.64
858.198	47.19
858.367	42.66
858.535	42.45
858.704	37.7
858.873	46.79
859.042	41.6
859.21	49.45
859.379	46.38
859.548	47
859.717	54.9
859.885	59.34
860.054	58.44
860.222	65.48
860.391	61.78
860.56	61.85
860.728	51.34
860.897	56.29
861.065	54.33
861.234	52.03
861.402	58.06
861.571	54.55
861.739	52.9
861.908	55.86
862.076	48.03
862.244	48.26
862.413	48.95
862.581	55.95
862.749	59.91
862.918	60.1
863.086	67.39
863.254	64.69
863.423	60.1
863.591	54.45
863.759	56.55
863.927	68.55
864.096	68.91
864.264	60.46
864.432	57.15
864.6	56.77
864.768	52.69
864.936	42.59
865.104	37.77
865.272	49.55
865.44	59.16
865.608	53.57
865.776	41.18
865.944	42.89
866.112	51.2
866.28	61.96
866.448	59.55
866.616	62.79
866.784	63.4
866.952	72.2
867.12	62.34
867.288	62.73
867.455	66.91
867.623	72.89
867.791	74.47
867.959	74.02
868.127	66.44
868.294	76.35
868.462	75.69
868.63	79.14
868.797	76.6
868.965	88.53
869.133	82.52
869.3	81.05
869.468	77.79
869.636	77.78
869.803	77.42
869.971	73.03
870.138	66.22
870.306	72.27
870.473	67.72
870.641	66.67
870.808	64.95
870.975	68.96
871.143	61.22
871.31	72.19
871.478	68
871.645	69.92
871.812	86.7
871.98	73.47
872.147	65.2
872.314	73.59
872.482	72.8
872.649	66.95
872.816	69.53
872.983	75.98
873.15	56.03
873.318	53.73
873.485	51.6
873.652	42.42
873.819	42.37
873.986	48.36
874.153	50.87
874.32	47.97
874.487	56.32
874.654	64.6
874.821	59.44
874.988	70.03
875.155	63.83
875.322	62.78
875.489	60.15
875.656	63.54
875.823	51.96
875.99	50.2
876.157	48.58
876.324	44.31
876.49	29.15
876.657	36.72
876.824	49.44
876.991	57.04
877.157	56.44
877.324	64.59
877.491	69.38
877.658	70.18
877.824	76.81
877.991	80.92
878.157	77.47
878.324	91.36
878.491	88.51
878.657	74.09
878.824	70.19
878.99	67.56
879.157	61.17
879.323	56.04
879.49	58.65
879.656	54.68
879.823	52.47
879.989	51.93
880.156	43.5
880.322	43.79
880.488	43.45
880.655	45.86
880.821	58.03
880.987	55.06
881.154	54.63
881.32	61.44
881.486	58.09
881.652	56.85
881.819	55.86
881.985	52.75
882.151	51.28
882.317	50.15
882.483	49.71
882.649	47.4
882.816	47.65
882.982	48.95
883.148	46.71
883.314	47.29
883.48	47.34
883.646	46.93
883.812	48.9
883.978	49.27
884.144	48.98
884.31	50.16
884.476	48.7
884.642	48.68
884.807	47.33
884.973	47.65
885.139	46.85
885.305	46.32
885.471	47.05
885.637	46.48
885.802	46.94
885.968	47.06
886.134	46.7
886.3	47.86
886.465	47.51
886.631	48.48
886.797	49.57
886.962	46.52
887.128	48.22
887.293	45.59
887.459	50.2
887.625	45.4
887.79	48.31
887.956	46.31
888.121	48.03
888.287	49.65
888.452	46.92
888.618	42.28
888.783	55.46
