Data from LC_214__Reflection_2.txt Node
Date: Thu Nov 19 12:52:15 EST 2015
User: robert
Spectrometer: USB4E03001
Autoset integration time: false
Trigger mode: 4
Integration Time (sec): 1.000000E-1
Scans to average: 15
Electric dark correction enabled: true
Nonlinearity correction enabled: false
Boxcar width: 5
Stray light correction enabled: false
XAxis mode: Wavelengths
Stop averaging: false
Number of Pixels in Spectrum: 3648
>>>>>Begin Spectral Data<<<<<
177.566	176.06
177.785	174.8
178.005	40.95
178.225	0.32
178.445	-20.78
178.665	14100
178.885	88.61
179.105	367.92
179.324	-222.03
179.544	-579.78
179.764	-170.21
179.984	-281.94
180.204	-167.3
180.423	-124.96
180.643	-1415.13
180.863	-1134.3
181.083	-392.15
181.302	-341.88
181.522	-309.03
181.742	-2011.01
181.961	3561.95
182.181	2789.69
182.401	360.27
182.621	343.58
182.84	580.42
183.06	1130.66
183.279	1039.84
183.499	455.75
183.719	333.8
183.938	173.06
184.158	299.78
184.377	374.33
184.597	286
184.816	2512.23
185.036	12446.74
185.256	788.4
185.475	483.4
185.695	468.57
185.914	347.06
186.134	250.46
186.353	235.37
186.572	186.23
186.792	210.75
187.011	1314.25
187.231	297
187.45	373.12
187.67	742.68
187.889	5807.58
188.108	199.34
188.328	-359.29
188.547	-20.34
188.766	-82.34
188.986	-163.45
189.205	-274.6
189.424	459.73
189.644	664.14
189.863	314.87
190.082	333.75
190.302	1396.16
190.521	-38.94
190.74	-324.06
190.959	-3623.94
191.178	3534.75
191.398	-1331.23
191.617	219.29
191.836	1050.13
192.055	-268.27
192.274	-106.22
192.494	-193.03
192.713	-171.96
192.932	-150.67
193.151	-153.03
193.37	-317.66
193.589	-177.44
193.808	-115.98
194.027	-142.06
194.246	-340.17
194.465	-171.03
194.685	12312.5
194.904	281.19
195.123	110.83
195.342	34.43
195.561	37.96
195.78	-8.35
195.999	47.93
196.218	154.46
196.436	232.11
196.655	103.53
196.874	165.4
197.093	207.91
197.312	496.37
197.531	596.53
197.75	1325.11
197.969	-612.54
198.188	-825.18
198.407	-5550.58
198.625	355.87
198.844	576.97
199.063	1553.49
199.282	1368.21
199.501	-682.5
199.719	-948.07
199.938	-1758.6
200.157	1628.06
200.376	461.51
200.594	255.02
200.813	255.63
201.032	151.52
201.251	178.28
201.469	247.36
201.688	182.5
201.907	131.22
202.125	161.83
202.344	141.88
202.563	125.2
202.781	165.27
203	129.44
203.218	124.49
203.437	343.76
203.656	189.48
203.874	138.24
204.093	195.73
204.311	199.54
204.53	138.73
204.748	145.73
204.967	158.01
205.185	143.64
205.404	180.77
205.622	229.52
205.841	127.9
206.059	106.64
206.278	159.32
206.496	129.75
206.715	208.69
206.933	317.7
207.151	-379.61
207.37	-35.73
207.588	-121.21
207.806	753.17
208.025	421.19
208.243	-835.4
208.461	-811.84
208.68	-1798.17
208.898	2503.17
209.116	800.34
209.335	1579.46
209.553	693.75
209.771	1953.05
209.989	-1292.57
210.208	-699.23
210.426	-256.65
210.644	-247.93
210.862	-128.33
211.081	-139.84
211.299	-86.97
211.517	-135.17
211.735	-199.34
211.953	-312.17
212.171	374.9
212.39	513.63
212.608	405.68
212.826	219.01
213.044	85.91
213.262	72.96
213.48	28.87
213.698	35.33
213.916	63.16
214.134	97.09
214.352	279.62
214.57	-235.9
214.788	234.17
215.006	2447.45
215.224	-350.15
215.442	-170.8
215.66	-168.64
215.878	485.07
216.096	134.06
216.314	168.96
216.532	122.1
216.75	103.38
216.968	100.52
217.185	110.54
217.403	97.91
217.621	121.28
217.839	140.02
218.057	139.92
218.275	187.05
218.492	340.92
218.71	157.54
218.928	132.48
219.146	128.22
219.363	190.15
219.581	175.33
219.799	331.32
220.017	136.2
220.234	105.24
220.452	77.53
220.67	66.83
220.887	36.72
221.105	35.01
221.323	91.44
221.54	110.37
221.758	76.2
221.976	84.5
222.193	79.84
222.411	105.79
222.629	109.92
222.846	140.33
223.064	130.97
223.281	125.31
223.499	127.74
223.716	132.33
223.934	96.03
224.151	155.08
224.369	125.2
224.586	127.85
224.804	128.95
225.021	110.28
225.239	98.32
225.456	89.37
225.674	88.04
225.891	89.53
226.108	69.82
226.326	69.67
226.543	54.37
226.76	60.1
226.978	54.67
227.195	48.57
227.413	46.31
227.63	38.95
227.847	40.99
228.064	35.53
228.282	30.08
228.499	32.02
228.716	31.94
228.934	26.51
229.151	25.18
229.368	23.64
229.585	23.12
229.802	21.32
230.02	19.37
230.237	19.24
230.454	19.75
230.671	20.36
230.888	21.3
231.105	21.65
231.323	23.29
231.54	21.67
231.757	25.74
231.974	27.53
232.191	30.38
232.408	36.41
232.625	35.21
232.842	37.12
233.059	33.41
233.276	33.59
233.493	27.32
233.71	31.06
233.927	30.78
234.144	28.38
234.361	24.99
234.578	25.42
234.795	22.7
235.012	24.87
235.229	22.61
235.446	25.13
235.663	24.2
235.879	30.29
236.096	28.55
236.313	30.01
236.53	30.83
236.747	29.88
236.964	29.12
237.181	30.5
237.397	25.73
237.614	26.04
237.831	24.35
238.048	16.23
238.264	11.73
238.481	14.24
238.698	12.06
238.915	6.53
239.131	5.18
239.348	7.34
239.565	5.77
239.781	11.21
239.998	10.29
240.215	12.15
240.431	16.66
240.648	17.61
240.865	16.25
241.081	17.24
241.298	18.88
241.514	18.9
241.731	19.06
241.947	19.19
242.164	16.38
242.38	17.13
242.597	18.02
242.814	16.37
243.03	17.19
243.246	17.87
243.463	17.59
243.679	18.74
243.896	19.53
244.112	19.22
244.329	18.99
244.545	22.24
244.762	22.17
244.978	21.92
245.194	24.05
245.411	21.29
245.627	20.24
245.843	19.25
246.06	17.39
246.276	15.13
246.492	14.7
246.709	15.19
246.925	13.8
247.141	12.87
247.357	11.95
247.574	12.72
247.79	13.28
248.006	13.17
248.222	12.93
248.439	12.89
248.655	12.81
248.871	12.97
249.087	12.98
249.303	14.1
249.519	14.61
249.736	14.77
249.952	14.44
250.168	13.41
250.384	15.41
250.6	18.13
250.816	17.02
251.032	18.6
251.248	17.94
251.464	16.49
251.68	14.32
251.896	12.4
252.112	12.97
252.328	11.62
252.544	13.17
252.76	10.4
252.976	8.13
253.192	9.67
253.408	8.58
253.624	9.15
253.84	9.29
254.056	11.8
254.272	16.97
254.487	17.3
254.703	18.43
254.919	16.81
255.135	17.86
255.351	18.48
255.567	16.85
255.782	17.98
255.998	16.48
256.214	15.07
256.43	15.67
256.646	13.67
256.861	12.48
257.077	13.17
257.293	14.82
257.508	15.92
257.724	15.29
257.94	17.59
258.155	17.67
258.371	18.55
258.587	18.93
258.802	15.47
259.018	15.31
259.234	15.17
259.449	14.06
259.665	13.22
259.88	12.63
260.096	11.93
260.312	11.62
260.527	11.52
260.743	10.64
260.958	10.13
261.174	11.37
261.389	10.87
261.605	10.88
261.82	10.67
262.036	11.01
262.251	10.95
262.466	11.43
262.682	10.48
262.897	9.25
263.113	8.91
263.328	8.96
263.543	9.3
263.759	10.3
263.974	10.43
264.189	11.1
264.405	11.34
264.62	13.19
264.835	14.02
265.051	15.6
265.266	16.94
265.481	16.59
265.696	15.9
265.912	15.18
266.127	14.27
266.342	13.76
266.557	12.95
266.773	10.38
266.988	10.5
267.203	10.12
267.418	9.39
267.633	9.38
267.848	10.42
268.064	12.18
268.279	12.47
268.494	13.31
268.709	13.51
268.924	15.73
269.139	18.73
269.354	18.93
269.569	18.99
269.784	18.79
269.999	19.79
270.214	18.65
270.429	17.16
270.644	17.06
270.859	15.84
271.074	15.96
271.289	15.17
271.504	14.23
271.719	13.31
271.934	13.3
272.149	12.52
272.363	10.87
272.578	11.06
272.793	10.55
273.008	9.26
273.223	9.69
273.438	10.35
273.653	10.21
273.867	9.03
274.082	7.59
274.297	6.76
274.512	8.03
274.726	9.41
274.941	8.72
275.156	10.04
275.371	10.19
275.585	9.15
275.8	9.17
276.015	8.34
276.229	9.71
276.444	9.95
276.659	13.45
276.873	12.76
277.088	11.34
277.302	12.05
277.517	12.33
277.732	12.28
277.946	14.97
278.161	14.68
278.375	17.41
278.59	15.13
278.804	16.21
279.019	13.63
279.233	12.86
279.448	13.17
279.662	12.77
279.877	11.36
280.091	11.93
280.306	10.28
280.52	10.44
280.735	7.89
280.949	10.64
281.163	11.23
281.378	10.69
281.592	11.31
281.806	11.48
282.021	12.3
282.235	13.2
282.449	13.56
282.664	12.14
282.878	11.57
283.092	11.56
283.307	10.71
283.521	8.65
283.735	8.72
283.949	8.93
284.164	9.5
284.378	8.88
284.592	8.8
284.806	8.14
285.02	9.72
285.234	8.48
285.449	9.57
285.663	10.4
285.877	12.17
286.091	12.58
286.305	13.39
286.519	13.03
286.733	12.37
286.947	12.23
287.161	12.65
287.375	13.62
287.589	15.71
287.803	14.89
288.017	15.64
288.231	15.16
288.445	15.08
288.659	13.8
288.873	13.83
289.087	15.95
289.301	16.29
289.515	16.51
289.729	15.22
289.943	13.78
290.157	14.65
290.371	13.12
290.584	13.29
290.798	13.55
291.012	14.66
291.226	14.4
291.44	13.39
291.654	12.35
291.867	10.44
292.081	10.94
292.295	11.56
292.509	10.35
292.722	10.28
292.936	9.8
293.15	8.69
293.364	7.35
293.577	7.5
293.791	7.3
294.005	6.16
294.218	6.77
294.432	5.73
294.645	5.5
294.859	5.23
295.073	6.68
295.286	7.36
295.5	7.47
295.713	7.72
295.927	7.19
296.14	7.24
296.354	8.9
296.568	9.9
296.781	10.33
296.994	9.73
297.208	10.33
297.421	10.37
297.635	9.47
297.848	9.52
298.062	9.57
298.275	9.73
298.489	9.37
298.702	9.66
298.915	9.01
299.129	9.97
299.342	10.8
299.555	11.48
299.769	10.11
299.982	11.29
300.195	12.24
300.409	11.81
300.622	12.21
300.835	13.69
301.048	13.29
301.262	13.43
301.475	12.45
301.688	11.96
301.901	10.87
302.115	11.39
302.328	11.55
302.541	10.46
302.754	11.75
302.967	11.16
303.18	10.61
303.393	11.19
303.607	10.71
303.82	10.9
304.033	12.52
304.246	13.61
304.459	14.13
304.672	13.94
304.885	14.21
305.098	14.01
305.311	14.74
305.524	14.13
305.737	13.64
305.95	13.83
306.163	13.35
306.376	12.15
306.589	10.84
306.802	10.96
307.015	11.74
307.228	12.69
307.44	12.59
307.653	12.95
307.866	13.09
308.079	13
308.292	12.15
308.505	12.6
308.718	12.07
308.93	12.35
309.143	11.97
309.356	11.14
309.569	12.36
309.781	13.08
309.994	12.35
310.207	12.59
310.42	13.21
310.632	14.9
310.845	14.11
311.058	15.18
311.27	16.13
311.483	16.86
311.696	16.97
311.908	15.86
312.121	15.36
312.333	16.83
312.546	16.38
312.759	15.27
312.971	14.21
313.184	15.19
313.396	14.7
313.609	14.3
313.821	12.87
314.034	12.76
314.246	12.39
314.459	11.56
314.671	10.99
314.884	12.29
315.096	13.59
315.309	13.59
315.521	13.52
315.733	13.19
315.946	12.38
316.158	13.25
316.371	13.48
316.583	12.99
316.795	13.27
317.008	10.47
317.22	9.11
317.432	8.02
317.644	10.29
317.857	9.12
318.069	9.7
318.281	10.08
318.494	9.41
318.706	9.59
318.918	10.65
319.13	10.69
319.342	11.65
319.555	12.2
319.767	13.24
319.979	12.53
320.191	13.6
320.403	12.06
320.615	10.19
320.827	8.91
321.039	8.79
321.252	8.74
321.464	9.2
321.676	11.21
321.888	11.78
322.1	10.22
322.312	9.09
322.524	9.53
322.736	8.63
322.948	11.11
323.16	12.9
323.372	12.33
323.584	11.92
323.796	11.02
324.007	9.66
324.219	9.54
324.431	9.63
324.643	9.33
324.855	8.89
325.067	9.68
325.279	8.88
325.491	9
325.702	9.56
325.914	9.28
326.126	9.66
326.338	9.82
326.55	10.04
326.761	11.47
326.973	11.46
327.185	11.25
327.396	12.08
327.608	12.6
327.82	12.08
328.032	11.94
328.243	12.2
328.455	11.83
328.666	11.98
328.878	11.77
329.09	10.44
329.301	10.51
329.513	11.12
329.725	11.88
329.936	11.63
330.148	11.78
330.359	12.14
330.571	12.86
330.782	15.32
330.994	16.42
331.205	15.96
331.417	16.47
331.628	16.49
331.84	15.66
332.051	14.51
332.262	14.02
332.474	13.86
332.685	13.53
332.897	12.96
333.108	11.02
333.319	10.66
333.531	11.57
333.742	11.24
333.953	11.33
334.165	11.2
334.376	11.03
334.587	10.79
334.799	11.01
335.01	10.91
335.221	10.75
335.432	10.76
335.644	10.68
335.855	10.5
336.066	11.59
336.277	12.1
336.488	12.31
336.7	12.37
336.911	12.63
337.122	12.29
337.333	11.65
337.544	12.11
337.755	12.34
337.966	12.38
338.177	12.08
338.388	11.6
338.599	11.73
338.811	12.14
339.022	12.53
339.233	12.7
339.444	12.98
339.655	12.43
339.866	11.34
340.076	11.23
340.287	11.33
340.498	10.95
340.709	9.95
340.92	8.98
341.131	8.76
341.342	8.82
341.553	8.38
341.764	8.36
341.975	9.63
342.185	10.77
342.396	10.27
342.607	10.42
342.818	11.13
343.029	11.6
343.239	12.53
343.45	12.52
343.661	12.13
343.872	12.92
344.082	13.04
344.293	12.15
344.504	11.97
344.714	12.56
344.925	12.09
345.136	11.48
345.346	10.9
345.557	10.45
345.768	10.23
345.978	10
346.189	9.44
346.399	9.68
346.61	9.63
346.821	9.35
347.031	9.98
347.242	9.34
347.452	9.94
347.663	10.87
347.873	10.8
348.084	11.12
348.294	11.3
348.504	11.17
348.715	10.95
348.925	11.47
349.136	11.31
349.346	10.73
349.557	12.05
349.767	11.59
349.977	11.12
350.188	11.02
350.398	11.05
350.608	11.29
350.819	11.48
351.029	11.58
351.239	12.13
351.449	12.48
351.66	12
351.87	11.63
352.08	10.62
352.29	10.21
352.501	10.09
352.711	10.52
352.921	10.32
353.131	10.76
353.341	10.94
353.552	11.05
353.762	10.98
353.972	11.69
354.182	11.63
354.392	12.32
354.602	13.14
354.812	13.15
355.022	12.36
355.232	12.45
355.442	11.83
355.652	11.18
355.862	10.5
356.072	10.43
356.282	9.29
356.492	9.25
356.702	9.23
356.912	8.85
357.122	8.99
357.332	9.03
357.542	9.02
357.752	9.4
357.962	9.6
358.171	9.54
358.381	9.41
358.591	9.39
358.801	9.39
359.011	9.57
359.221	9.96
359.43	10.31
359.64	10.2
359.85	10.64
360.06	9.91
360.269	9.46
360.479	9.6
360.689	9.51
360.899	9.69
361.108	9.6
361.318	9.62
361.528	8.99
361.737	8.51
361.947	8.35
362.156	8.09
362.366	8.32
362.576	8.51
362.785	8.8
362.995	9.51
363.204	9.46
363.414	9.46
363.623	9.15
363.833	9.45
364.042	9.61
364.252	10.04
364.461	10.09
364.671	10.36
364.88	10.78
365.09	10.42
365.299	9.85
365.509	10.7
365.718	10.54
365.927	10.41
366.137	10.77
366.346	10.93
366.555	10.46
366.765	10.28
366.974	10.48
367.183	9.91
367.393	10.11
367.602	9.9
367.811	9.68
368.021	9.38
368.23	10.04
368.439	9.68
368.648	9.5
368.857	9.6
369.067	9.72
369.276	9.43
369.485	9.5
369.694	9.05
369.903	8.71
370.112	8.25
370.321	8.22
370.531	7.88
370.74	7.56
370.949	7.31
371.158	7.44
371.367	6.54
371.576	6.7
371.785	6.96
371.994	7.31
372.203	7.29
372.412	7.97
372.621	7.89
372.83	8.17
373.039	8.48
373.248	8.61
373.457	8.88
373.666	9.41
373.874	9.05
374.083	8.84
374.292	8.31
374.501	8.39
374.71	7.61
374.919	7.76
375.128	7.45
375.336	7.53
375.545	7.57
375.754	7.57
375.963	7.54
376.171	7.37
376.38	7.72
376.589	7.98
376.798	8.31
377.006	8.55
377.215	8.9
377.424	8.86
377.632	8.73
377.841	8.79
378.05	8.73
378.258	8.79
378.467	9
378.675	8.81
378.884	8.77
379.093	8.53
379.301	8.57
379.51	8.28
379.718	8.11
379.927	7.8
380.135	7.38
380.344	7.64
380.552	7.47
380.761	7.56
380.969	7.41
381.177	7.38
381.386	7.38
381.594	7.23
381.803	7.06
382.011	7.68
382.219	7.97
382.428	7.98
382.636	7.79
382.845	8.15
383.053	8.3
383.261	8.45
383.469	8.5
383.678	8.45
383.886	8.02
384.094	8.28
384.302	7.85
384.511	7.83
384.719	7.72
384.927	7.67
385.135	7.24
385.343	6.96
385.552	6.71
385.76	6.66
385.968	7.09
386.176	7.05
386.384	6.75
386.592	6.68
386.8	6.54
387.008	6.91
387.216	6.73
387.424	6.92
387.633	6.83
387.841	6.79
388.049	7.12
388.257	6.32
388.465	6.52
388.672	7.08
388.88	7.32
389.088	7.59
389.296	7.22
389.504	7.21
389.712	7.49
389.92	7.25
390.128	7.54
390.336	6.72
390.544	6.87
390.751	7.31
390.959	6.92
391.167	6.93
391.375	6.64
391.583	6.98
391.79	7.06
391.998	7.09
392.206	7.31
392.414	7.21
392.621	7.58
392.829	7.58
393.037	7.12
393.244	7.18
393.452	6.73
393.66	6.78
393.867	6.69
394.075	6.72
394.283	6.39
394.49	6.34
394.698	6.38
394.905	6.55
395.113	6.56
395.32	6.42
395.528	6.18
395.735	6.4
395.943	6.55
396.15	6.52
396.358	6.37
396.565	6.38
396.773	6.19
396.98	6.03
397.188	5.71
397.395	5.84
397.602	6.14
397.81	6.61
398.017	6.68
398.225	6.43
398.432	6.58
398.639	6.65
398.847	6.84
399.054	7.16
399.261	7.12
399.468	7.13
399.676	7.2
399.883	7.12
400.09	6.73
400.297	6.63
400.505	6.66
400.712	6.21
400.919	6.15
401.126	6.05
401.333	6.06
401.54	6.31
401.748	6.66
401.955	6.51
402.162	6.5
402.369	6.62
402.576	6.56
402.783	6.37
402.99	6.75
403.197	6.75
403.404	6.55
403.611	6.44
403.818	6.36
404.025	6.24
404.232	6.3
404.439	6.54
404.646	6.31
404.853	6.45
405.06	6.74
405.267	6.65
405.474	6.71
405.681	6.85
405.887	6.87
406.094	6.89
406.301	6.84
406.508	7.04
406.715	6.92
406.922	7.35
407.128	7.3
407.335	7.04
407.542	7.24
407.749	7.1
407.955	7.11
408.162	6.85
408.369	6.75
408.575	6.64
408.782	6.04
408.989	6.33
409.195	6.06
409.402	5.95
409.609	6.26
409.815	6.22
410.022	6.11
410.228	6.02
410.435	6.54
410.642	6.13
410.848	6.15
411.055	6.44
411.261	6.2
411.468	6.11
411.674	5.99
411.881	5.82
412.087	5.52
412.294	5.64
412.5	5.48
412.706	5.28
412.913	5.9
413.119	6.04
413.326	6.29
413.532	6.68
413.738	6.89
413.945	6.98
414.151	7.06
414.357	7.07
414.564	7.14
414.77	7.4
414.976	7.16
415.182	7.01
415.389	6.6
415.595	6.48
415.801	6.04
416.007	6.11
416.214	6.15
416.42	6.15
416.626	6.31
416.832	6.09
417.038	6.09
417.244	6.29
417.45	6.21
417.657	6.47
417.863	6.43
418.069	6.45
418.275	6.43
418.481	6.38
418.687	6.37
418.893	6.29
419.099	6.43
419.305	6.35
419.511	6.28
419.717	6.34
419.923	6.31
420.129	6.24
420.335	6.32
420.541	6.27
420.746	6.35
420.952	6.17
421.158	6.12
421.364	6.08
421.57	6.07
421.776	6.01
421.982	5.97
422.187	5.92
422.393	5.94
422.599	5.87
422.805	5.8
423.01	5.76
423.216	5.89
423.422	5.96
423.628	6.02
423.833	6.07
424.039	6.11
424.245	6.05
424.45	5.96
424.656	5.98
424.862	5.83
425.067	5.95
425.273	5.91
425.478	5.94
425.684	5.97
425.889	5.89
426.095	5.74
426.301	5.69
426.506	5.71
426.712	5.7
426.917	5.79
427.123	5.8
427.328	5.61
427.533	5.73
427.739	5.66
427.944	5.57
428.15	5.58
428.355	5.85
428.561	5.97
428.766	5.95
428.971	6.12
429.177	5.98
429.382	6.23
429.587	6.28
429.793	6.33
429.998	6.4
430.203	6.54
430.408	6.7
430.614	6.44
430.819	6.55
431.024	6.46
431.229	6.5
431.434	6.53
431.64	6.44
431.845	6.36
432.05	6.25
432.255	6.28
432.46	6.42
432.665	6.12
432.87	6.27
433.076	6.01
433.281	6.14
433.486	6.19
433.691	6.22
433.896	6.28
434.101	6.23
434.306	6.08
434.511	5.9
434.716	5.61
434.921	5.68
435.126	5.63
435.331	5.6
435.535	5.55
435.74	5.51
435.945	5.53
436.15	5.59
436.355	5.69
436.56	5.82
436.765	6.05
436.97	5.98
437.174	5.97
437.379	6.11
437.584	6.11
437.789	5.92
437.993	5.94
438.198	5.85
438.403	5.61
438.608	5.68
438.812	5.61
439.017	5.37
439.222	5.55
439.426	5.56
439.631	5.48
439.836	5.59
440.04	5.76
440.245	5.64
440.45	5.57
440.654	5.7
440.859	5.71
441.063	5.78
441.268	6.08
441.472	5.98
441.677	6.1
441.881	6.25
442.086	6.38
442.29	6.44
442.495	6.56
442.699	6.66
442.904	6.57
443.108	6.59
443.312	6.5
443.517	6.33
443.721	6.49
443.925	6.37
444.13	6.17
444.334	6.1
444.538	6.05
444.743	6.09
444.947	6.08
445.151	6.02
445.356	6.08
445.56	6.19
445.764	6.13
445.968	6.06
446.173	6.09
446.377	5.98
446.581	6.01
446.785	5.91
446.989	5.88
447.193	5.93
447.398	6.1
447.602	6.08
447.806	6.12
448.01	6.14
448.214	6.21
448.418	6.26
448.622	6.41
448.826	6.34
449.03	6.42
449.234	6.43
449.438	6.4
449.642	6.28
449.846	6.13
450.05	5.92
450.254	5.95
450.458	5.92
450.662	5.9
450.866	5.83
451.069	5.85
451.273	5.84
451.477	6.03
451.681	6.04
451.885	6.07
452.089	6.25
452.292	6.33
452.496	6.27
452.7	6.25
452.904	6.12
453.107	6.22
453.311	6.3
453.515	6.48
453.719	6.29
453.922	6.3
454.126	6.18
454.33	6.09
454.533	6.19
454.737	6.28
454.94	6.16
455.144	6.12
455.348	6.08
455.551	6.07
455.755	5.88
455.958	5.83
456.162	5.85
456.365	5.91
456.569	5.94
456.772	5.78
456.976	5.65
457.179	5.67
457.383	5.81
457.586	5.66
457.79	5.59
457.993	5.64
458.196	5.71
458.4	5.57
458.603	5.59
458.807	5.49
459.01	5.55
459.213	5.63
459.417	5.59
459.62	5.57
459.823	5.67
460.026	5.57
460.23	5.66
460.433	5.65
460.636	5.53
460.839	5.5
461.042	5.41
461.246	5.36
461.449	5.26
461.652	5.36
461.855	5.4
462.058	5.38
462.261	5.35
462.464	5.32
462.668	5.26
462.871	5.39
463.074	5.4
463.277	5.54
463.48	5.54
463.683	5.57
463.886	5.53
464.089	5.63
464.292	5.75
464.495	5.78
464.698	5.62
464.901	5.75
465.104	5.96
465.306	6.14
465.509	6.18
465.712	6.04
465.915	6.04
466.118	6.08
466.321	5.79
466.524	5.74
466.726	5.87
466.929	5.79
467.132	5.63
467.335	5.4
467.538	5.29
467.74	5.23
467.943	5.4
468.146	5.32
468.348	5.26
468.551	5.3
468.754	5.08
468.956	5.11
469.159	5.32
469.362	5.3
469.564	5.5
469.767	5.55
469.969	5.56
470.172	5.61
470.375	5.79
470.577	5.68
470.78	5.74
470.982	5.9
471.185	5.88
471.387	5.76
471.59	5.76
471.792	5.54
471.995	5.4
472.197	5.35
472.399	5.34
472.602	5.39
472.804	5.44
473.007	5.37
473.209	5.38
473.411	5.42
473.614	5.44
473.816	5.42
474.018	5.43
474.22	5.48
474.423	5.63
474.625	5.71
474.827	5.61
475.03	5.6
475.232	5.74
475.434	5.66
475.636	5.58
475.838	5.57
476.04	5.68
476.243	5.92
476.445	5.91
476.647	5.94
476.849	5.81
477.051	5.81
477.253	5.98
477.455	5.9
477.657	6.01
477.859	6.03
478.061	6.12
478.263	6.05
478.465	5.91
478.667	6.01
478.869	6.03
479.071	6.04
479.273	6
479.475	5.9
479.677	5.97
479.879	5.92
480.081	5.96
480.283	5.76
480.485	5.78
480.686	5.88
480.888	5.84
481.09	5.77
481.292	5.79
481.494	5.75
481.695	5.77
481.897	5.69
482.099	5.62
482.301	5.55
482.502	5.65
482.704	5.65
482.906	5.67
483.107	5.69
483.309	5.67
483.511	5.66
483.712	5.66
483.914	5.59
484.115	5.6
484.317	5.64
484.519	5.62
484.72	5.61
484.922	5.61
485.123	5.53
485.325	5.51
485.526	5.44
485.728	5.45
485.929	5.44
486.131	5.47
486.332	5.47
486.534	5.4
486.735	5.43
486.936	5.42
487.138	5.46
487.339	5.49
487.541	5.5
487.742	5.59
487.943	5.62
488.144	5.63
488.346	5.7
488.547	5.73
488.748	5.72
488.95	5.7
489.151	5.73
489.352	5.62
489.553	5.6
489.755	5.5
489.956	5.53
490.157	5.41
490.358	5.44
490.559	5.41
490.76	5.36
490.961	5.41
491.163	5.5
491.364	5.54
491.565	5.54
491.766	5.56
491.967	5.68
492.168	5.71
492.369	5.73
492.57	5.72
492.771	5.75
492.972	5.72
493.173	5.82
493.374	5.82
493.575	5.79
493.776	5.97
493.976	6.01
494.177	6.02
494.378	5.98
494.579	5.95
494.78	5.78
494.981	5.64
495.182	5.66
495.382	5.63
495.583	5.65
495.784	5.74
495.985	5.61
496.185	5.63
496.386	5.47
496.587	5.52
496.788	5.52
496.988	5.81
497.189	5.86
497.39	5.85
497.59	5.83
497.791	5.89
497.992	5.88
498.192	5.93
498.393	5.98
498.593	6.08
498.794	5.95
498.994	6.02
499.195	5.97
499.395	5.96
499.596	6.24
499.796	6.19
499.997	6.1
500.197	6.08
500.398	6.09
500.598	6.09
500.799	6.04
500.999	6.21
501.199	6.32
501.4	6.24
501.6	6.23
501.801	6.02
502.001	6.11
502.201	6.2
502.402	6.32
502.602	6.15
502.802	6.05
503.002	6.21
503.203	6.12
503.403	6.11
503.603	6.28
503.803	6.45
504.003	6.47
504.204	6.59
504.404	6.55
504.604	6.49
504.804	6.69
505.004	6.83
505.204	6.76
505.404	6.8
505.604	6.86
505.804	6.73
506.005	6.82
506.205	6.97
506.405	6.9
506.605	6.78
506.805	6.72
507.005	6.81
507.204	6.88
507.404	6.95
507.604	6.98
507.804	7.05
508.004	7.2
508.204	7.14
508.404	7.08
508.604	7.07
508.804	7.15
509.003	7.2
509.203	7.04
509.403	6.93
509.603	6.85
509.803	6.93
510.002	6.8
510.202	6.72
510.402	6.81
510.602	6.76
510.801	6.79
511.001	6.75
511.201	6.8
511.4	6.85
511.6	6.97
511.8	7.02
511.999	6.94
512.199	7.06
512.398	7.08
512.598	7
512.797	7.05
512.997	7.12
513.197	7.23
513.396	7.21
513.596	7.39
513.795	7.44
513.994	7.47
514.194	7.57
514.393	7.7
514.593	7.87
514.792	8.04
514.992	8.24
515.191	8.29
515.39	8.42
515.59	8.61
515.789	8.66
515.988	8.72
516.188	8.84
516.387	8.89
516.586	8.87
516.786	8.71
516.985	8.62
517.184	8.46
517.383	8.44
517.582	8.36
517.782	8.27
517.981	8.13
518.18	8.04
518.379	8.06
518.578	8.11
518.777	8.13
518.976	8.18
519.176	8.22
519.375	8.33
519.574	8.37
519.773	8.4
519.972	8.5
520.171	8.55
520.37	8.64
520.569	8.72
520.768	8.69
520.967	8.8
521.166	8.91
521.365	8.96
521.564	8.87
521.762	8.94
521.961	8.99
522.16	8.89
522.359	9
522.558	8.94
522.757	8.9
522.956	8.88
523.154	8.81
523.353	8.77
523.552	8.75
523.751	8.93
523.949	8.87
524.148	8.93
524.347	9.05
524.546	9.11
524.744	9.24
524.943	9.33
525.142	9.46
525.34	9.43
525.539	9.54
525.737	9.43
525.936	9.33
526.135	9.43
526.333	9.43
526.532	9.38
526.73	9.38
526.929	9.38
527.127	9.33
527.326	9.29
527.524	9.3
527.723	9.3
527.921	9.44
528.12	9.48
528.318	9.45
528.516	9.45
528.715	9.46
528.913	9.49
529.112	9.5
529.31	9.55
529.508	9.54
529.707	9.61
529.905	9.62
530.103	9.64
530.301	9.68
530.5	9.67
530.698	9.72
530.896	9.8
531.094	9.81
531.293	9.95
531.491	9.95
531.689	10.03
531.887	10.02
532.085	10.07
532.283	10.14
532.481	10.19
532.68	10.4
532.878	10.37
533.076	10.39
533.274	10.43
533.472	10.37
533.67	10.38
533.868	10.57
534.066	10.63
534.264	10.68
534.462	10.71
534.66	10.72
534.858	10.61
535.056	10.79
535.253	10.79
535.451	10.93
535.649	10.97
535.847	11.09
536.045	10.91
536.243	10.97
536.441	10.98
536.638	10.99
536.836	11
537.034	11.19
537.232	11
537.43	11.01
537.627	10.99
537.825	11.07
538.023	11.07
538.22	11.21
538.418	11.2
538.616	11.21
538.813	11.33
539.011	11.39
539.209	11.36
539.406	11.62
539.604	11.69
539.801	11.7
539.999	11.73
540.196	11.81
540.394	11.83
540.591	11.96
540.789	12.03
540.986	12.16
541.184	12.27
541.381	12.32
541.579	12.31
541.776	12.35
541.974	12.39
542.171	12.44
542.368	12.53
542.566	12.59
542.763	12.57
542.96	12.59
543.158	12.47
543.355	12.46
543.552	12.47
543.75	12.53
543.947	12.64
544.144	12.79
544.341	12.79
544.539	12.76
544.736	12.89
544.933	12.89
545.13	13.08
545.327	13.29
545.524	13.5
545.722	13.66
545.919	13.65
546.116	13.66
546.313	13.68
546.51	13.76
546.707	13.83
546.904	13.8
547.101	14.08
547.298	14.12
547.495	14.08
547.692	14.1
547.889	14.12
548.086	14.31
548.283	14.44
548.48	14.52
548.677	14.63
548.874	14.79
549.07	14.91
549.267	14.85
549.464	14.85
549.661	14.82
549.858	14.92
550.055	14.92
550.251	14.9
550.448	14.96
550.645	15.06
550.842	15.34
551.038	15.47
551.235	15.56
551.432	15.64
551.628	15.83
551.825	16.13
552.022	16.08
552.218	16.28
552.415	16.66
552.612	16.81
552.808	16.7
553.005	16.64
553.201	16.5
553.398	16.58
553.594	16.63
553.791	16.78
553.987	16.77
554.184	16.89
554.38	17
554.577	16.86
554.773	16.99
554.97	17.34
555.166	17.5
555.362	17.71
555.559	17.82
555.755	17.99
555.952	17.77
556.148	17.95
556.344	18.09
556.541	18.09
556.737	18.16
556.933	18.13
557.129	18.1
557.326	18.2
557.522	18.34
557.718	18.38
557.914	18.44
558.11	18.78
558.307	18.98
558.503	19.08
558.699	19.38
558.895	19.48
559.091	19.56
559.287	19.68
559.483	19.76
559.679	19.75
559.876	19.91
560.072	19.82
560.268	19.89
560.464	19.82
560.66	19.89
560.856	19.85
561.052	19.96
561.247	20.05
561.443	20.16
561.639	20.17
561.835	20.16
562.031	20.32
562.227	20.48
562.423	20.42
562.619	20.63
562.815	20.68
563.01	20.8
563.206	20.92
563.402	20.95
563.598	21.11
563.793	21.16
563.989	21.37
564.185	21.39
564.381	21.53
564.576	21.59
564.772	21.71
564.968	21.8
565.163	21.85
565.359	21.95
565.555	22.12
565.75	22.2
565.946	22.5
566.141	22.63
566.337	22.72
566.532	22.78
566.728	23
566.923	23.01
567.119	23
567.314	23.05
567.51	23.27
567.705	23.27
567.901	23.31
568.096	23.42
568.292	23.44
568.487	23.62
568.682	23.8
568.878	23.85
569.073	24.01
569.268	24.31
569.464	24.42
569.659	24.36
569.854	24.56
570.05	24.57
570.245	24.43
570.44	24.68
570.635	24.46
570.831	24.64
571.026	24.83
571.221	24.9
571.416	24.91
571.611	24.93
571.806	25.05
572.002	25.21
572.197	25.33
572.392	25.33
572.587	25.31
572.782	25.58
572.977	25.53
573.172	25.47
573.367	25.6
573.562	25.8
573.757	25.98
573.952	26.02
574.147	26.07
574.342	26.29
574.537	26.53
574.732	26.61
574.927	26.57
575.121	26.8
575.316	26.89
575.511	27.01
575.706	26.99
575.901	27.07
576.096	27.32
576.29	27.37
576.485	27.41
576.68	27.3
576.875	27.46
577.069	27.79
577.264	27.83
577.459	28.21
577.654	28
577.848	27.85
578.043	27.94
578.238	27.85
578.432	27.84
578.627	27.96
578.821	28.09
579.016	28.07
579.21	28.11
579.405	28.03
579.6	27.96
579.794	28.15
579.989	28.67
580.183	28.5
580.378	28.65
580.572	28.79
580.766	28.91
580.961	29.17
581.155	29.47
581.35	29.57
581.544	29.8
581.738	29.67
581.933	29.81
582.127	29.62
582.321	29.77
582.516	29.71
582.71	29.64
582.904	29.62
583.099	29.68
583.293	29.84
583.487	29.64
583.681	29.52
583.875	29.6
584.07	29.65
584.264	29.72
584.458	29.82
584.652	29.96
584.846	30.05
585.04	29.9
585.234	30.02
585.428	29.98
585.623	30.25
585.817	30.55
586.011	30.64
586.205	30.69
586.399	30.88
586.593	31.22
586.787	31.44
586.981	31.65
587.174	32.09
587.368	32.09
587.562	32.02
587.756	32.21
587.95	32.31
588.144	32.27
588.338	32.34
588.532	32.25
588.725	32.2
588.919	32.21
589.113	32.21
589.307	32.07
589.501	32.29
589.694	32.26
589.888	32.13
590.082	32.23
590.275	32.31
590.469	32.53
590.663	32.67
590.856	32.66
591.05	32.64
591.244	32.92
591.437	32.93
591.631	32.76
591.824	32.79
592.018	33
592.212	32.96
592.405	33.17
592.599	33.03
592.792	33.32
592.986	33.33
593.179	33.37
593.372	33.2
593.566	33.31
593.759	33.38
593.953	33.28
594.146	33.3
594.339	33.25
594.533	33.17
594.726	33.16
594.92	33.01
595.113	33.11
595.306	33.41
595.499	33.48
595.693	33.33
595.886	33.51
596.079	33.74
596.272	33.69
596.466	33.54
596.659	33.66
596.852	33.81
597.045	33.94
597.238	34.01
597.431	33.88
597.624	33.73
597.818	33.87
598.011	33.65
598.204	33.6
598.397	33.53
598.59	34
598.783	33.93
598.976	33.77
599.169	33.65
599.362	33.51
599.555	33.69
599.748	33.91
599.941	33.9
600.134	34.16
600.326	34.36
600.519	34.69
600.712	34.71
600.905	34.66
601.098	34.8
601.291	34.84
601.483	34.89
601.676	34.77
601.869	34.95
602.062	35.11
602.255	35.22
602.447	34.97
602.64	34.85
602.833	34.72
603.025	34.92
603.218	35.02
603.411	34.98
603.603	35.18
603.796	35.29
603.989	35.31
604.181	35.31
604.374	35.36
604.566	35.68
604.759	35.77
604.951	35.94
605.144	36.05
605.336	36.21
605.529	36.45
605.721	36.36
605.914	36.22
606.106	36.15
606.299	36.26
606.491	36.05
606.683	35.95
606.876	35.98
607.068	35.69
607.26	35.62
607.453	35.5
607.645	35.53
607.837	35.5
608.03	35.72
608.222	35.81
608.414	35.69
608.606	35.89
608.799	36.08
608.991	36
609.183	36.06
609.375	36.09
609.567	36.27
609.759	36.36
609.952	36.53
610.144	36.5
610.336	36.63
610.528	36.64
610.72	36.74
610.912	36.65
611.104	36.99
611.296	37.19
611.488	37.4
611.68	37.24
611.872	37.25
612.064	37.45
612.256	37.73
612.448	37.69
612.64	37.79
612.832	37.94
613.023	38.03
613.215	37.7
613.407	37.86
613.599	37.73
613.791	37.9
613.983	37.83
614.174	37.53
614.366	37.41
614.558	37.55
614.75	37.71
614.941	37.71
615.133	37.7
615.325	37.93
615.516	37.73
615.708	37.8
615.9	37.8
616.091	37.92
616.283	37.9
616.475	37.92
616.666	37.74
616.858	37.88
617.049	37.82
617.241	38.01
617.432	37.91
617.624	37.84
617.815	37.85
618.007	38.01
618.198	37.82
618.39	37.99
618.581	38.09
618.773	38.13
618.964	38.12
619.155	38.09
619.347	37.89
619.538	38.02
619.729	38.02
619.921	38.15
620.112	38.26
620.303	38.27
620.494	38.51
620.686	38.5
620.877	38.57
621.068	38.59
621.259	38.82
621.451	38.94
621.642	39.01
621.833	39.16
622.024	39.03
622.215	39.06
622.406	39.23
622.597	39.1
622.788	39.23
622.98	39.16
623.171	39.12
623.362	39.24
623.553	39.35
623.744	39.23
623.935	39.47
624.126	39.41
624.317	39.42
624.508	39.4
624.698	39.45
624.889	39.07
625.08	39.16
625.271	39.28
625.462	39.04
625.653	39.16
625.844	39.05
626.034	38.83
626.225	38.98
626.416	38.86
626.607	38.85
626.798	39.04
626.988	39.21
627.179	39.24
627.37	39.32
627.56	39.34
627.751	39.05
627.942	38.93
628.132	38.9
628.323	38.73
628.514	38.89
628.704	38.77
628.895	38.65
629.085	38.67
629.276	38.85
629.466	38.83
629.657	38.67
629.847	39.09
630.038	39.29
630.228	39.6
630.419	39.92
630.609	39.91
630.8	40.38
630.99	40.37
631.181	40.41
631.371	40.61
631.561	40.5
631.752	40.77
631.942	40.58
632.132	40.63
632.323	40.63
632.513	40.78
632.703	40.64
632.893	40.67
633.084	40.81
633.274	41.04
633.464	40.82
633.654	40.95
633.844	41
634.034	41.01
634.225	40.83
634.415	40.89
634.605	40.55
634.795	40.78
634.985	40.54
635.175	40.6
635.365	40.18
635.555	40.16
635.745	40.3
635.935	40.22
636.125	40.31
636.315	40.56
636.505	40.74
636.695	40.95
636.885	40.84
637.075	41.22
637.265	41.16
637.455	41.59
637.644	41.59
637.834	41.37
638.024	41.33
638.214	41.37
638.404	41.55
638.593	41.65
638.783	41.72
638.973	42.01
639.163	41.74
639.352	41.68
639.542	41.76
639.732	41.88
639.921	42.06
640.111	42.26
640.301	42.19
640.49	42.23
640.68	41.92
640.87	41.73
641.059	41.63
641.249	41.88
641.438	42.23
641.628	42.09
641.817	42.16
642.007	42.32
642.196	42.53
642.386	42.78
642.575	43.09
642.764	42.92
642.954	43.16
643.143	43.29
643.333	43
643.522	42.54
643.711	42.88
643.901	42.64
644.09	42.18
644.279	41.93
644.469	41.92
644.658	41.71
644.847	42.06
645.036	41.86
645.226	41.74
645.415	42.07
645.604	42.38
645.793	42.52
645.982	43.02
646.171	43.36
646.361	43.42
646.55	43.12
646.739	43.3
646.928	43.17
647.117	43.7
647.306	43.81
647.495	43.56
647.684	43.38
647.873	43.2
648.062	43.02
648.251	43.1
648.44	42.91
648.629	42.99
648.818	42.49
649.007	42.36
649.196	42.6
649.384	42.45
649.573	42.46
649.762	42.69
649.951	42.35
650.14	42.43
650.328	42.45
650.517	42.57
650.706	42.88
650.895	43.08
651.083	43.22
651.272	42.86
651.461	42.77
651.65	42.51
651.838	42.49
652.027	42.71
652.216	42.75
652.404	42.74
652.593	42.89
652.781	42.86
652.97	43.11
653.158	43.03
653.347	43.06
653.535	43.4
653.724	44.03
653.912	44.25
654.101	43.94
654.289	43.78
654.478	44.09
654.666	44.55
654.855	44.7
655.043	44.44
655.231	44.92
655.42	44.77
655.608	44.58
655.796	44.45
655.985	44.27
656.173	44.34
656.361	44.49
656.55	44.19
656.738	43.65
656.926	43.54
657.114	44
657.302	43.86
657.491	44.29
657.679	44.35
657.867	44
658.055	44.09
658.243	43.94
658.431	44.15
658.619	44.05
658.807	44.21
658.996	44.19
659.184	44.09
659.372	44.28
659.56	44.09
659.748	44.25
659.936	45.02
660.124	44.79
660.311	45.33
660.499	45.1
660.687	45.19
660.875	45.32
661.063	45.1
661.251	45.45
661.439	45.48
661.627	45.38
661.814	45.64
662.002	45.04
662.19	45.59
662.378	45.79
662.565	45.9
662.753	46.25
662.941	46.02
663.129	46.35
663.316	45.98
663.504	45.74
663.692	45.95
663.879	45.68
664.067	45.85
664.254	45.71
664.442	45.21
664.63	45.33
664.817	44.91
665.005	45.12
665.192	44.81
665.38	45.24
665.567	45.07
665.755	45.33
665.942	45.44
666.13	45.24
666.317	45
666.504	45.04
666.692	45.41
666.879	45.68
667.067	45.8
667.254	46.47
667.441	45.95
667.629	46.25
667.816	45.69
668.003	45.86
668.19	46.04
668.378	45.75
668.565	46.06
668.752	45.99
668.939	46.01
669.127	46.09
669.314	45.95
669.501	46.32
669.688	46.36
669.875	46.73
670.062	46.53
670.249	46.5
670.436	47.02
670.623	46.97
670.81	46.78
670.997	46.97
671.184	46.92
671.371	46.96
671.558	47.01
671.745	46.72
671.932	46.94
672.119	46.88
672.306	47.04
672.493	46.94
672.68	46.55
672.867	46.37
673.054	46.02
673.24	45.91
673.427	45.78
673.614	45.64
673.801	46.14
673.988	45.46
674.174	45.64
674.361	45.56
674.548	45.35
674.734	45.31
674.921	45.69
675.108	45.92
675.294	46.35
675.481	46.24
675.668	46.64
675.854	46.35
676.041	46.93
676.227	46.75
676.414	46.97
676.601	47.16
676.787	47.59
676.974	47.42
677.16	47.38
677.347	47.19
677.533	47.26
677.719	46.73
677.906	46.9
678.092	46.88
678.279	46.64
678.465	46.25
678.651	46.43
678.838	46.36
679.024	46.53
679.21	46.47
679.397	46.07
679.583	46.24
679.769	46.35
679.955	46.53
680.142	46.35
680.328	46.47
680.514	47.17
680.7	47.2
680.886	47.62
681.073	47.59
681.259	47.88
681.445	47.9
681.631	48.24
681.817	48.2
682.003	47.95
682.189	48.07
682.375	48.34
682.561	47.99
682.747	48.27
682.933	48.05
683.119	47.91
683.305	47.63
683.491	47.97
683.677	47.7
683.863	48.13
684.049	48.18
684.235	47.89
684.42	48.23
684.606	47.89
684.792	47.76
684.978	47.31
685.164	47.67
685.349	48.23
685.535	48.66
685.721	48.54
685.907	48.32
686.092	48.01
686.278	48.63
686.464	48.06
686.649	48.05
686.835	48.28
687.021	48.64
687.206	48.3
687.392	47.96
687.577	47.67
687.763	48.06
687.948	47.89
688.134	48.09
688.319	47.91
688.505	48.29
688.69	48.54
688.876	48.26
689.061	48
689.247	48.32
689.432	48.27
689.618	48.08
689.803	47.94
689.988	48.31
690.174	48.65
690.359	48.84
690.544	48.66
690.73	48.82
690.915	49.36
691.1	49.99
691.285	49.94
691.471	50.14
691.656	50.19
691.841	50.56
692.026	50.3
692.211	50.2
692.396	50.46
692.582	50.63
692.767	50.44
692.952	50.08
693.137	49.79
693.322	49.68
693.507	49.58
693.692	49.34
693.877	49.06
694.062	49.59
694.247	49.7
694.432	49.39
694.617	49.23
694.802	49.23
694.987	49.29
695.172	49.38
695.357	49.3
695.541	49.35
695.726	49.88
695.911	49.64
696.096	49.35
696.281	48.85
696.466	48.98
696.65	49.22
696.835	49.57
697.02	49.52
697.204	49.79
697.389	49.97
697.574	49.88
697.759	49.89
697.943	50.06
698.128	50.19
698.312	50.41
698.497	50.25
698.682	50.21
698.866	50.05
699.051	49.74
699.235	49.83
699.42	49.79
699.604	49.69
699.789	49.66
699.973	49.52
700.158	49.45
700.342	49.66
700.527	49.91
700.711	50.02
700.895	50.23
701.08	50.7
701.264	50.17
701.448	50.58
701.633	51.19
701.817	51.41
702.001	51.72
702.186	51.56
702.37	51.4
702.554	51.38
702.738	50.8
702.923	50.76
703.107	50.29
703.291	50.16
703.475	49.74
703.659	49
703.843	48.65
704.027	48.14
704.212	48.16
704.396	48.43
704.58	48.11
704.764	49.11
704.948	48.65
705.132	49.57
705.316	49.54
705.5	49.57
705.684	49.86
705.868	50.16
706.052	50.56
706.235	50.95
706.419	50.71
706.603	51.05
706.787	50.44
706.971	50.44
707.155	49.88
707.339	50.57
707.522	51.01
707.706	51.55
707.89	51.41
708.074	51.52
708.257	51.75
708.441	51.98
708.625	51.47
708.808	51.25
708.992	51.24
709.176	51.7
709.359	51.9
709.543	51.51
709.727	51.34
709.91	51.07
710.094	51.14
710.277	50.52
710.461	49.71
710.644	50.06
710.828	50.36
711.011	50.89
711.195	50.32
711.378	50.03
711.562	49.63
711.745	49.53
711.928	50.2
712.112	50.24
712.295	50.36
712.478	50.76
712.662	51.21
712.845	51.52
713.028	51.58
713.212	51.51
713.395	51.47
713.578	51.17
713.761	50.98
713.945	50.56
714.128	49.89
714.311	50.42
714.494	50.67
714.677	50.01
714.86	49.9
715.043	49.57
715.227	50.23
715.41	50.02
715.593	50.83
715.776	51.27
715.959	50.89
716.142	50.97
716.325	50.88
716.508	51.27
716.691	51.49
716.874	51.22
717.057	51.64
717.239	51.15
717.422	52.3
717.605	51.81
717.788	51.77
717.971	52.75
718.154	53.32
718.337	52.77
718.519	52.26
718.702	52.02
718.885	52.53
719.068	52.87
719.25	53.5
719.433	52.48
719.616	53.49
719.798	53.47
719.981	53.41
720.164	52.24
720.346	52.34
720.529	53.28
720.712	53.8
720.894	53.97
721.077	53.53
721.259	53.04
721.442	53.23
721.624	52.78
721.807	52.79
721.989	51.65
722.172	53.1
722.354	53.26
722.537	52.92
722.719	52.46
722.901	51.81
723.084	51.28
723.266	51.88
723.448	51.92
723.631	52.16
723.813	51.9
723.995	52.5
724.178	51.87
724.36	51.76
724.542	51.15
724.724	52.04
724.907	51.96
725.089	52.26
725.271	52.16
725.453	51.79
725.635	51.5
725.817	51.87
725.999	52.03
726.181	52.69
726.364	52.96
726.546	52.47
726.728	51.9
726.91	52.25
727.092	51.63
727.274	51.19
727.456	51.75
727.638	51.3
727.819	50.5
728.001	50.92
728.183	50.61
728.365	50.85
728.547	51.51
728.729	51.41
728.911	51.8
729.093	52.43
729.274	52.17
729.456	52.47
729.638	53.19
729.82	53.16
730.001	52.84
730.183	52.6
730.365	51.74
730.546	51.77
730.728	52.07
730.91	51.96
731.091	51.96
731.273	52.29
731.455	51.57
731.636	51.2
731.818	51.64
731.999	51.18
732.181	51.41
732.362	52.08
732.544	52.04
732.725	52.06
732.907	51.1
733.088	51.04
733.27	50.9
733.451	50.89
733.633	50.98
733.814	50.99
733.995	51.38
734.177	52.23
734.358	52.2
734.539	52.03
734.721	51.87
734.902	52.34
735.083	52.54
735.264	53.56
735.446	54.39
735.627	54.39
735.808	53.47
735.989	53.26
736.17	51.78
736.351	51.56
736.533	51.54
736.714	52.03
736.895	52.12
737.076	52.25
737.257	51.49
737.438	50.38
737.619	50.53
737.8	50.63
737.981	50.95
738.162	51.51
738.343	51.11
738.524	51.79
738.705	52.19
738.886	52.5
739.067	52.23
739.247	51.85
739.428	52.76
739.609	52.53
739.79	53.66
739.971	54.08
740.151	54.9
740.332	55.59
740.513	56.04
740.694	55.96
740.874	56.45
741.055	56.38
741.236	57.02
741.417	56.36
741.597	56.98
741.778	56.62
741.958	56
742.139	55.47
742.32	55.62
742.5	55.38
742.681	54.37
742.861	54.13
743.042	54.27
743.222	53.51
743.403	53.52
743.583	52.9
743.764	53.16
743.944	52.99
744.124	52.77
744.305	51.92
744.485	51.67
744.666	52.44
744.846	51.88
745.026	52.15
745.207	52.69
745.387	53.74
745.567	54.63
745.747	53.8
745.928	53.73
746.108	53.86
746.288	54.81
746.468	54.55
746.648	54.22
746.829	54.62
747.009	54.67
747.189	54.29
747.369	53.37
747.549	52.52
747.729	53.29
747.909	53.85
748.089	53.96
748.269	53.14
748.449	52.58
748.629	51.72
748.809	51.52
748.989	51.46
749.169	51.04
749.349	51.9
749.529	52.14
749.709	52.13
749.889	51.2
750.068	50.49
750.248	50.97
750.428	51.01
750.608	51.57
750.788	52.17
750.967	51.42
751.147	52.29
751.327	51.18
751.507	50.7
751.686	50.78
751.866	51.79
752.046	52.85
752.225	52.91
752.405	52.74
752.585	52.96
752.764	53.23
752.944	53.54
753.123	53.24
753.303	53.78
753.482	54.53
753.662	54.3
753.841	53.89
754.021	54.46
754.2	54.87
754.38	55.42
754.559	55.39
754.739	54.08
754.918	54.34
755.097	54.45
755.277	54.2
755.456	54.56
755.635	54.64
755.815	54.87
755.994	54.45
756.173	53.5
756.352	53.57
756.532	53.05
756.711	52.63
756.89	52.6
757.069	53.48
757.248	53.14
757.427	52.36
757.607	52.13
757.786	51.98
757.965	51.16
758.144	52.1
758.323	52.7
758.502	53.05
758.681	54.45
758.86	55.96
759.039	55.02
759.218	54.86
759.397	55.13
759.576	55.06
759.755	54.72
759.934	54.53
760.113	55.09
760.291	54.76
760.47	55.65
760.649	54.78
760.828	53.94
761.007	54.05
761.186	54.54
761.364	54.48
761.543	55.67
761.722	55.55
761.901	56.06
762.079	54.85
762.258	54.69
762.437	55.12
762.615	55.86
762.794	55.43
762.972	55.21
763.151	55.5
763.33	54.73
763.508	54.44
763.687	55.24
763.865	54.66
764.044	55.6
764.222	55.61
764.401	54.17
764.579	53.52
764.758	53.47
764.936	52.83
765.114	52.44
765.293	53
765.471	53.42
765.65	52.94
765.828	53.58
766.006	52.63
766.184	53.33
766.363	53.84
766.541	54.23
766.719	54.16
766.898	55.49
767.076	55.88
767.254	56.4
767.432	55.45
767.61	56.06
767.788	56.17
767.967	55.81
768.145	55.14
768.323	56.16
768.501	56.1
768.679	57.25
768.857	57.74
769.035	58.66
769.213	58.05
769.391	59.21
769.569	59.42
769.747	58.84
769.925	59.69
770.103	60.02
770.281	59.06
770.459	59.07
770.636	58.14
770.814	57.25
770.992	56.27
771.17	56.42
771.348	56.18
771.525	55.02
771.703	56.16
771.881	56.77
772.059	55.67
772.236	56.44
772.414	57.09
772.592	58.69
772.769	58.15
772.947	57.4
773.125	57.53
773.302	54.94
773.48	54.85
773.657	54.19
773.835	53.29
774.013	52.81
774.19	51.54
774.368	50.03
774.545	46.76
774.723	47.59
774.9	47.97
775.077	48.42
775.255	49.97
775.432	50.92
775.61	50.8
775.787	50.34
775.964	51.09
776.142	52.11
776.319	52.34
776.496	53.91
776.674	54.35
776.851	55.12
777.028	54.54
777.205	54.15
777.382	56.85
777.56	57.81
777.737	58.19
777.914	59.24
778.091	59.33
778.268	59.06
778.445	59.47
778.622	58.75
778.8	60.8
778.977	62.77
779.154	63.73
779.331	60.8
779.508	59.52
779.685	59.65
779.862	59.97
780.038	60.67
780.215	62.46
780.392	61.86
780.569	62.54
780.746	60.58
780.923	60.32
781.1	59.71
781.277	59.12
781.453	60.52
781.63	61
781.807	60.96
781.984	59.2
782.16	57.42
782.337	57.24
782.514	57.66
782.691	58.45
782.867	56.53
783.044	56.76
783.221	56.4
783.397	54.08
783.574	54.3
783.75	53.75
783.927	54.56
784.103	57.09
784.28	57.61
784.456	58.59
784.633	57.57
784.809	59.06
784.986	58.74
785.162	58.21
785.339	60.19
785.515	59.61
785.692	57.98
785.868	57.79
786.044	55.4
786.221	55.94
786.397	54.08
786.573	52.79
786.749	52.32
786.926	51.69
787.102	52.86
787.278	51.8
787.454	51.81
787.631	52.74
787.807	53.04
787.983	54.99
788.159	55.12
788.335	54.71
788.511	56.84
788.687	57.7
788.863	58.97
789.039	58.8
789.216	60.46
789.392	59.92
789.568	61.69
789.744	60.78
789.919	59.24
790.095	58.03
790.271	58.18
790.447	56.27
790.623	55.44
790.799	55.3
790.975	56.7
791.151	55.77
791.327	57.37
791.502	57.43
791.678	57.52
791.854	58.91
792.03	58.92
792.205	59.17
792.381	60.54
792.557	60.35
792.733	62.39
792.908	60.98
793.084	61.53
793.259	60.35
793.435	59.37
793.611	59.77
793.786	60.17
793.962	61.56
794.137	60.77
794.313	60.47
794.488	61.54
794.664	58.4
794.839	59.39
795.015	57.85
795.19	57.72
795.366	56.27
795.541	56.47
795.716	55.71
795.892	55.26
796.067	55.79
796.242	55.81
796.418	55.66
796.593	58.42
796.768	58.16
796.944	59.85
797.119	59.56
797.294	59.99
797.469	59.67
797.644	61.43
797.82	61.46
797.995	60.95
798.17	61.17
798.345	60.28
798.52	59.75
798.695	59.06
798.87	58.67
799.045	59.13
799.22	59.87
799.395	59.08
799.57	57.33
799.745	58.33
799.92	59.84
800.095	60.75
800.27	62.28
800.445	62.7
800.62	62.99
800.795	63.73
800.97	64.81
801.145	63.19
801.319	66.1
801.494	64.46
801.669	61.67
801.844	61.75
802.018	59.5
802.193	58.22
802.368	52.87
802.543	54.21
802.717	50.91
802.892	50.82
803.067	51.91
803.241	51.59
803.416	54.28
803.59	57.47
803.765	58.32
803.94	60.23
804.114	56.89
804.289	61.06
804.463	59.07
804.638	59.77
804.812	59.87
804.986	60.24
805.161	58.73
805.335	58.83
805.51	57.5
805.684	57.69
805.858	58.99
806.033	63.21
806.207	64.29
806.381	65.36
806.556	64.46
806.73	64.09
806.904	63.88
807.078	64.63
807.253	64.46
807.427	63.98
807.601	64.12
807.775	61.78
807.949	59.53
808.123	58.74
808.298	58.28
808.472	62.65
808.646	63.09
808.82	65.03
808.994	64.23
809.168	62.85
809.342	62.25
809.516	61.37
809.69	62.3
809.864	61.4
810.038	61.99
810.212	62.55
810.385	61.32
810.559	58.71
810.733	59.87
810.907	59.29
811.081	58.37
811.255	60.27
811.428	58.96
811.602	60.84
811.776	63.46
811.95	63.72
812.123	66.29
812.297	63.71
812.471	67.86
812.644	64.01
812.818	63.44
812.992	65.61
813.165	65.8
813.339	69.45
813.512	67.64
813.686	66.4
813.86	64.94
814.033	62.56
814.207	64.49
814.38	61.5
814.554	64.03
814.727	65.12
814.9	66.33
815.074	62.86
815.247	57.84
815.421	59.15
815.594	60.85
815.767	60.74
815.941	60.59
816.114	57.04
816.287	57.72
816.46	57.84
816.634	58.52
816.807	58.23
816.98	62.36
817.153	63.19
817.327	58.38
817.5	52.8
817.673	53.76
817.846	54.01
818.019	55.4
818.192	54.8
818.365	55.39
818.538	54.34
818.711	53.03
818.884	51.51
819.057	51.39
819.23	51.6
819.403	56.47
819.576	55.71
819.749	55.68
819.922	57.11
820.095	56.29
820.268	55.21
820.441	55.3
820.614	56.06
820.786	56.4
820.959	58.55
821.132	61.62
821.305	61.2
821.477	60.23
821.65	59.36
821.823	57.59
821.996	57.96
822.168	58.03
822.341	57.44
822.514	57.42
822.686	57.21
822.859	56.86
823.031	55.8
823.204	55.47
823.376	55.75
823.549	55.94
823.722	56.09
823.894	56.06
824.067	55.6
824.239	55.57
824.411	55.58
824.584	55.51
824.756	55.37
824.929	55.34
825.101	55.32
825.273	54.95
825.446	54.73
825.618	54.84
825.79	54.44
825.963	53.78
826.135	54.3
826.307	54.3
826.479	54.41
826.652	54.09
826.824	55.1
826.996	54.8
827.168	54.84
827.34	55.37
827.512	55.28
827.684	56.23
827.856	56.57
828.029	56.88
828.201	56.73
828.373	56.91
828.545	57.86
828.717	56.65
828.889	57.33
829.061	58.9
829.232	59.75
829.404	61.65
829.576	61.94
829.748	63.13
829.92	63
830.092	63.15
830.264	63.92
830.436	63.71
830.607	64.68
830.779	63.94
830.951	64.39
831.123	63.88
831.294	62.62
831.466	60.9
831.638	59.9
831.809	59.72
831.981	58.75
832.153	56.32
832.324	57.1
832.496	57.84
832.667	58.05
832.839	54.68
833.011	54.99
833.182	55
833.354	54.98
833.525	56
833.697	56.77
833.868	57.83
834.039	58.77
834.211	56.78
834.382	56.13
834.554	56.71
834.725	57.33
834.896	57.29
835.068	58.33
835.239	58.26
835.41	59.18
835.581	58.2
835.753	59.14
835.924	59.17
836.095	60.39
836.266	59.89
836.438	60.19
836.609	58.91
836.78	59.37
836.951	58.68
837.122	59.88
837.293	58.31
837.464	59.95
837.635	59.48
837.806	59.93
837.977	59.35
838.148	61.42
838.319	60.94
838.49	62.84
838.661	59.5
838.832	58.35
839.003	56.33
839.174	58.23
839.345	60.11
839.516	57.45
839.687	58.77
839.857	59.26
840.028	56.08
840.199	56.44
840.37	58.52
840.54	62.06
840.711	61.64
840.882	65.66
841.053	68.01
841.223	62.56
841.394	64.21
841.564	66.26
841.735	64.81
841.906	68.77
842.076	70.54
842.247	68.17
842.417	67.57
842.588	68.28
842.758	71.19
842.929	70.31
843.099	75.88
843.27	76.86
843.44	74.41
843.611	78.58
843.781	75.73
843.951	77.38
844.122	75.75
844.292	78.32
844.462	83.74
844.633	79.51
844.803	72.52
844.973	73.22
845.144	74.51
845.314	73.19
845.484	70.16
845.654	73.68
845.824	72.72
845.995	79.6
846.165	82.95
846.335	77.5
846.505	77.87
846.675	86.36
846.845	97.96
847.015	102.61
847.185	104.46
847.355	111.91
847.525	112.07
847.695	105.57
847.865	99.99
848.035	89.11
848.205	99.06
848.375	96.09
848.545	89.61
848.715	70.45
848.884	63.98
849.054	68.41
849.224	64.47
849.394	61.76
849.564	72.33
849.733	76.6
849.903	86.56
850.073	82.95
850.243	88.52
850.412	82.5
850.582	85.8
850.752	91.97
850.921	82.47
851.091	81.58
851.26	83.71
851.43	80.64
851.599	77.43
851.769	79.57
851.939	73.56
852.108	73.56
852.278	85.45
852.447	83.32
852.616	84.02
852.786	84.69
852.955	92.91
853.125	97.52
853.294	91.38
853.463	94.38
853.633	88.08
853.802	94.28
853.971	93.62
854.141	94.16
854.31	104.04
854.479	102.77
854.648	107.69
854.818	100.2
854.987	92
855.156	96.96
855.325	96.62
855.494	96.67
855.663	85.93
855.832	77.26
856.001	77.09
856.171	73.28
856.34	76.26
856.509	80.9
856.678	76.09
856.847	74.42
857.016	75.19
857.185	75.61
857.353	75.63
857.522	77.84
857.691	80.56
857.86	74.87
858.029	83.19
858.198	72.05
858.367	67.47
858.535	73.25
858.704	77.82
858.873	77.93
859.042	76.2
859.21	72.87
859.379	74.4
859.548	81.49
859.717	80.41
859.885	70.04
860.054	75.3
860.222	72.38
860.391	68.33
860.56	60.82
860.728	60.9
860.897	63.47
861.065	65.83
861.234	65.21
861.402	70.2
861.571	72.53
861.739	71.57
861.908	76.3
862.076	75.56
862.244	74.81
862.413	72.31
862.581	74.67
862.749	73.41
862.918	82.41
863.086	86.95
863.254	60.35
863.423	59.27
863.591	69.52
863.759	66.89
863.927	78.07
864.096	79.42
864.264	110.82
864.432	106.42
864.6	101.79
864.768	103.85
864.936	103.57
865.104	119.44
865.272	128.31
865.44	113.68
865.608	110.12
865.776	99.99
865.944	102.2
866.112	89.01
866.28	82.66
866.448	80.49
866.616	59.37
866.784	63.69
866.952	54.31
867.12	55.44
867.288	58.1
867.455	69.63
867.623	67.84
867.791	64.32
867.959	69.84
868.127	75.55
868.294	78.72
868.462	84.07
868.63	83.12
868.797	80.47
868.965	82.06
869.133	80.85
869.3	75.85
869.468	76.04
869.636	73.63
869.803	64.08
869.971	65.77
870.138	69.32
870.306	69.64
870.473	68.35
870.641	69.8
870.808	68.06
870.975	69.19
871.143	68.78
871.31	64.5
871.478	73.33
871.645	67.72
871.812	55.48
871.98	50.97
872.147	51.21
872.314	51.72
872.482	56.53
872.649	65.48
872.816	69
872.983	70.25
873.15	84.24
873.318	87.3
873.485	103.75
873.652	107.53
873.819	102.61
873.986	112.32
874.153	106.82
874.32	106.75
874.487	103.68
874.654	100.65
874.821	95.04
874.988	91.47
875.155	87.32
875.322	77.76
875.489	85.16
875.656	95.01
875.823	96.4
875.99	106.28
876.157	112.1
876.324	107.6
876.49	111.34
876.657	119.42
876.824	127.28
876.991	134.55
877.157	153.6
877.324	143.71
877.491	138.95
877.658	121.27
877.824	127.31
877.991	110.71
878.157	117.2
878.324	108.3
878.491	100.98
878.657	101.92
878.824	98.37
878.99	86.79
879.157	81.26
879.323	80.46
879.49	78.11
879.656	67.66
879.823	66.23
879.989	64.56
880.156	68.94
880.322	67.08
880.488	59.92
880.655	59.26
880.821	61.67
880.987	62.66
881.154	54.49
881.32	57.84
881.486	60.08
881.652	61.57
881.819	60.6
881.985	57.41
882.151	57.72
882.317	59.93
882.483	57.11
882.649	58.4
882.816	57.46
882.982	60.8
883.148	61.31
883.314	61.77
883.48	61.87
883.646	61.67
883.812	62.31
883.978	61.56
884.144	60.81
884.31	61.33
884.476	61.02
884.642	61.05
884.807	62
884.973	61.37
885.139	62.3
885.305	61.51
885.471	63.47
885.637	61.56
885.802	61.37
885.968	60.93
886.134	60.25
886.3	58.75
886.465	61.42
886.631	58.26
886.797	56.85
886.962	52.36
887.128	52.7
887.293	51.62
887.459	52.56
887.625	54.78
887.79	56.51
887.956	58.79
888.121	59.81
888.287	55.73
888.452	56.66
888.618	59.59
888.783	64.61
