Data from LC_265_Reflection_3.txt Node
Date: Sat Nov 21 11:51:30 EST 2015
User: robert
Spectrometer: USB4E03001
Autoset integration time: false
Trigger mode: 4
Integration Time (sec): 1.000000E-1
Scans to average: 15
Electric dark correction enabled: true
Nonlinearity correction enabled: false
Boxcar width: 5
Stray light correction enabled: false
XAxis mode: Wavelengths
Stop averaging: false
Number of Pixels in Spectrum: 3648
>>>>>Begin Spectral Data<<<<<
177.566	27.9
177.785	56.85
178.005	147.64
178.225	6.7
178.445	134.76
178.665	905.88
178.885	-478.87
179.105	97.73
179.324	101.72
179.544	125.89
179.764	669.06
179.984	113.11
180.204	114.86
180.423	96.63
180.643	95.07
180.863	146.45
181.083	169.16
181.302	179.18
181.522	157.32
181.742	154.29
181.961	124.67
182.181	86.36
182.401	157.17
182.621	129.33
182.84	154.18
183.06	128.83
183.279	94.7
183.499	90.86
183.719	69.22
183.938	55.2
184.158	61.96
184.377	72.12
184.597	92.31
184.816	82.82
185.036	88.98
185.256	98.71
185.475	80.53
185.695	85.47
185.914	83.2
186.134	95.73
186.353	114.81
186.572	114.88
186.792	98.63
187.011	89.33
187.231	87.39
187.45	101.34
187.67	92.28
187.889	94.39
188.108	105.45
188.328	123.32
188.547	87.27
188.766	45.02
188.986	84.57
189.205	59.06
189.424	-205.77
189.644	15.21
189.863	319.48
190.082	551.27
190.302	-460.85
190.521	-10.05
190.74	14.77
190.959	22.01
191.178	43.9
191.398	3.59
191.617	6.8
191.836	30.98
192.055	3.4
192.274	22.69
192.494	16.26
192.713	-0.87
192.932	6.54
193.151	10.69
193.37	38.32
193.589	38.23
193.808	43.59
194.027	59.06
194.246	71.74
194.465	79.03
194.685	88.45
194.904	86.12
195.123	106.46
195.342	107.68
195.561	98.19
195.78	46.63
195.999	59.36
196.218	46.48
196.436	35.8
196.655	-4.49
196.874	14.97
197.093	34.17
197.312	50.12
197.531	74.43
197.75	70.4
197.969	88.17
198.188	110.65
198.407	122
198.625	134.44
198.844	137.6
199.063	149.47
199.282	150.83
199.501	153.58
199.719	153.25
199.938	157.11
200.157	153.21
200.376	140.92
200.594	164.43
200.813	131.38
201.032	127.2
201.251	108.26
201.469	108.98
201.688	127.79
201.907	108.69
202.125	88.17
202.344	92.39
202.563	100.76
202.781	99.74
203	61.7
203.218	68.06
203.437	112.32
203.656	239.18
203.874	226.37
204.093	66.74
204.311	49.43
204.53	23.19
204.748	-24.75
204.967	28.83
205.185	19.56
205.404	47.02
205.622	68.14
205.841	39.73
206.059	35.33
206.278	-7.94
206.496	28.16
206.715	44.59
206.933	143.43
207.151	92.42
207.37	43.45
207.588	31.82
207.806	52.66
208.025	14.51
208.243	31.05
208.461	34.62
208.68	70.38
208.898	100.39
209.116	73.22
209.335	67.48
209.553	78.49
209.771	66.34
209.989	69.75
210.208	11.66
210.426	14.8
210.644	-57.42
210.862	-87.02
211.081	-138.47
211.299	-27.17
211.517	5.34
211.735	-5.77
211.953	32.91
212.171	43.91
212.39	36.62
212.608	57.81
212.826	61.02
213.044	69.09
213.262	44.77
213.48	56.06
213.698	48.65
213.916	48.15
214.134	56.06
214.352	38.12
214.57	53.18
214.788	58
215.006	69.65
215.224	68.05
215.442	72.49
215.66	101.22
215.878	83.31
216.096	97.01
216.314	101.63
216.532	102.67
216.75	107.05
216.968	114.52
217.185	104.46
217.403	90.59
217.621	79.41
217.839	89.49
218.057	84.1
218.275	76.78
218.492	65.92
218.71	65.37
218.928	64.61
219.146	49.2
219.363	41.89
219.581	60.05
219.799	66.33
220.017	86.55
220.234	83.44
220.452	62.22
220.67	90.98
220.887	102.71
221.105	102.14
221.323	102.82
221.54	102.1
221.758	96.92
221.976	79.17
222.193	90.52
222.411	73.59
222.629	55.5
222.846	56.88
223.064	29.7
223.281	31.67
223.499	8.18
223.716	28.61
223.934	35.06
224.151	30.08
224.369	21.04
224.586	17.4
224.804	23.26
225.021	39.68
225.239	36.5
225.456	42.94
225.674	38.5
225.891	42.01
226.108	33.24
226.326	38.29
226.543	36.05
226.76	40.52
226.978	33.75
227.195	27.46
227.413	24.67
227.63	23.67
227.847	22.17
228.064	21.03
228.282	13.67
228.499	14.52
228.716	12.84
228.934	11.7
229.151	11.48
229.368	12.53
229.585	14.16
229.802	13.35
230.02	13.3
230.237	13.32
230.454	11.87
230.671	16.24
230.888	16.66
231.105	15.35
231.323	13.98
231.54	11.54
231.757	11.4
231.974	12.19
232.191	10.96
232.408	11.38
232.625	9.88
232.842	12.7
233.059	11.52
233.276	15.36
233.493	22.08
233.71	28.21
233.927	29.81
234.144	30.08
234.361	29.62
234.578	29.9
234.795	32.85
235.012	34.4
235.229	32.38
235.446	32.83
235.663	28
235.879	22.24
236.096	19.55
236.313	21.51
236.53	22.64
236.747	22.99
236.964	21.6
237.181	18.44
237.397	13.83
237.614	15.47
237.831	9.85
238.048	8.71
238.264	6.02
238.481	5
238.698	7.14
238.915	7.34
239.131	3.74
239.348	5.85
239.565	7.22
239.781	10.6
239.998	10.11
240.215	11.32
240.431	10
240.648	12.96
240.865	12.88
241.081	8.36
241.298	6.03
241.514	8.11
241.731	8.43
241.947	9.23
242.164	9.22
242.38	8.05
242.597	9.29
242.814	9.87
243.03	10.99
243.246	10.83
243.463	10.66
243.679	12.25
243.896	11.4
244.112	11.88
244.329	12.83
244.545	12.05
244.762	13.96
244.978	13.71
245.194	13.9
245.411	13.04
245.627	14.66
245.843	13.44
246.06	11.01
246.276	11.5
246.492	10.48
246.709	9.41
246.925	9.58
247.141	8.7
247.357	8.03
247.574	7.09
247.79	6.48
248.006	6.22
248.222	6.07
248.439	7.34
248.655	7.22
248.871	7.38
249.087	7.98
249.303	7.93
249.519	7.94
249.736	9.75
249.952	11.16
250.168	12.02
250.384	11.72
250.6	14.09
250.816	14.61
251.032	16.78
251.248	15.84
251.464	14.68
251.68	15.86
251.896	16.42
252.112	15.19
252.328	14.04
252.544	14.32
252.76	13.48
252.976	13.66
253.192	11.9
253.408	10.86
253.624	11.74
253.84	12.93
254.056	12.59
254.272	13.25
254.487	13.35
254.703	14.27
254.919	12.65
255.135	13.88
255.351	13.05
255.567	14.27
255.782	11.18
255.998	10.24
256.214	9.26
256.43	9.3
256.646	8.03
256.861	7.1
257.077	9.08
257.293	11.01
257.508	10.65
257.724	10.47
257.94	10.74
258.155	11.43
258.371	11.49
258.587	10.77
258.802	10.08
259.018	10.04
259.234	10.93
259.449	10.02
259.665	9.32
259.88	9.66
260.096	9.53
260.312	10.35
260.527	10.53
260.743	10.32
260.958	10.3
261.174	9.82
261.389	9.53
261.605	8.91
261.82	9.25
262.036	10.27
262.251	9.56
262.466	10.62
262.682	8.73
262.897	7.86
263.113	7.53
263.328	8.65
263.543	10.06
263.759	10.27
263.974	10.45
264.189	10.68
264.405	11.7
264.62	13.52
264.835	12.1
265.051	11.51
265.266	12.24
265.481	12.19
265.696	11.01
265.912	9.63
266.127	10.08
266.342	10.76
266.557	10.5
266.773	7.82
266.988	6.07
267.203	5.39
267.418	6.01
267.633	5.96
267.848	5.84
268.064	6.14
268.279	7.51
268.494	7.19
268.709	6.57
268.924	6.08
269.139	5.99
269.354	6.63
269.569	7
269.784	7.19
269.999	7.33
270.214	8.34
270.429	7.72
270.644	5.53
270.859	5.3
271.074	4.48
271.289	4.28
271.504	4.33
271.719	3.75
271.934	3.97
272.149	3.89
272.363	3.19
272.578	2.35
272.793	2.67
273.008	4.42
273.223	5.51
273.438	7.12
273.653	8.29
273.867	9.01
274.082	10.51
274.297	10.21
274.512	9.95
274.726	11.57
274.941	12.65
275.156	14.19
275.371	13.54
275.585	13.6
275.8	11.89
276.015	10.64
276.229	9.68
276.444	9.77
276.659	10.74
276.873	11.31
277.088	11.3
277.302	10.67
277.517	9.54
277.732	9.79
277.946	9.19
278.161	9.02
278.375	8.37
278.59	10.36
278.804	9.2
279.019	8.91
279.233	9.75
279.448	8.28
279.662	8.54
279.877	7.64
280.091	7.4
280.306	6.96
280.52	7.26
280.735	9.43
280.949	7.86
281.163	7.94
281.378	7.41
281.592	6.84
281.806	8.38
282.021	8.35
282.235	9.07
282.449	9.16
282.664	8.48
282.878	8.91
283.092	8.87
283.307	8.98
283.521	8.81
283.735	8.55
283.949	8.15
284.164	6
284.378	5.6
284.592	4.13
284.806	4.53
285.02	5.23
285.234	5.04
285.449	2.95
285.663	3.66
285.877	3.49
286.091	4.54
286.305	4.52
286.519	5.84
286.733	6.26
286.947	6.92
287.161	6.5
287.375	6.65
287.589	7.1
287.803	8.8
288.017	8.1
288.231	8.52
288.445	8.2
288.659	8.24
288.873	7.82
289.087	7.61
289.301	7.34
289.515	7.41
289.729	8.4
289.943	8.46
290.157	8.72
290.371	8.71
290.584	9.05
290.798	8.82
291.012	8.39
291.226	9.04
291.44	8.78
291.654	9.42
291.867	8.73
292.081	9
292.295	9.11
292.509	8.97
292.722	10.38
292.936	10.36
293.15	9.7
293.364	10
293.577	8.65
293.791	9.38
294.005	9.18
294.218	9.52
294.432	7.55
294.645	7.55
294.859	6.54
295.073	4.35
295.286	4.2
295.5	5.61
295.713	5.87
295.927	6.5
296.14	6.39
296.354	6.63
296.568	7.13
296.781	7.72
296.994	7.4
297.208	7.64
297.421	8.83
297.635	8.73
297.848	8.51
298.062	8.64
298.275	9.25
298.489	9.22
298.702	8.87
298.915	8.49
299.129	8.43
299.342	8.42
299.555	9.01
299.769	9.28
299.982	10.04
300.195	10.41
300.409	10.28
300.622	9.08
300.835	9.42
301.048	10.46
301.262	10.42
301.475	10.86
301.688	11.03
301.901	10.31
302.115	9.45
302.328	8.91
302.541	8.21
302.754	8.36
302.967	9.87
303.18	9.87
303.393	9.28
303.607	9.63
303.82	8.62
304.033	8.63
304.246	9.81
304.459	10.46
304.672	10.41
304.885	11.41
305.098	11.7
305.311	10.35
305.524	9.97
305.737	9.73
305.95	9.28
306.163	9.65
306.376	10
306.589	9.87
306.802	8.62
307.015	7.28
307.228	6.68
307.44	6.03
307.653	7.84
307.866	7.97
308.079	7.4
308.292	7.41
308.505	8.04
308.718	6.97
308.93	6.75
309.143	6.08
309.356	6.85
309.569	6.66
309.781	7.38
309.994	5.56
310.207	5.35
310.42	6.05
310.632	6.8
310.845	6.36
311.058	6.51
311.27	6.78
311.483	8.12
311.696	8.39
311.908	8.41
312.121	7.57
312.333	8.27
312.546	8.59
312.759	9.04
312.971	9.74
313.184	10.3
313.396	11.37
313.609	10.97
313.821	10.45
314.034	11.31
314.246	10.75
314.459	11.67
314.671	11.74
314.884	11.65
315.096	10.92
315.309	9.78
315.521	9.22
315.733	8.98
315.946	8.28
316.158	7.53
316.371	7.49
316.583	9.34
316.795	9.3
317.008	9.79
317.22	8.58
317.432	8.99
317.644	9.34
317.857	9.6
318.069	9.14
318.281	9.26
318.494	11.27
318.706	10.46
318.918	9.24
319.13	8.34
319.342	7.83
319.555	9.06
319.767	8.85
319.979	8.8
320.191	8.98
320.403	9.67
320.615	9.74
320.827	9.57
321.039	9.24
321.252	9.04
321.464	9.59
321.676	8.37
321.888	8.6
322.1	8.45
322.312	8.06
322.524	7.47
322.736	6.93
322.948	8.16
323.16	7.66
323.372	8.96
323.584	9.68
323.796	10.1
324.007	11.21
324.219	11.21
324.431	11.61
324.643	12.38
324.855	13.2
325.067	14.2
325.279	13.92
325.491	14.35
325.702	14.4
325.914	14.47
326.126	14.03
326.338	13.23
326.55	13.34
326.761	13.02
326.973	13.57
327.185	14
327.396	13.28
327.608	13.18
327.82	14.11
328.032	13.7
328.243	13.7
328.455	14.35
328.666	16.04
328.878	17.35
329.09	17.72
329.301	18.06
329.513	17.79
329.725	18.36
329.936	19.05
330.148	18.18
330.359	18.46
330.571	18.59
330.782	18.87
330.994	18.31
331.205	18.26
331.417	18.82
331.628	18.46
331.84	18.42
332.051	18.86
332.262	19.1
332.474	20.27
332.685	20.74
332.897	21.89
333.108	21.65
333.319	22.22
333.531	21.48
333.742	21.87
333.953	22.31
334.165	22.23
334.376	21.91
334.587	22.78
334.799	23.23
335.01	24.38
335.221	24.4
335.432	25.79
335.644	26.04
335.855	26.74
336.066	27.44
336.277	27.48
336.488	27.61
336.7	27.31
336.911	27.38
337.122	27.28
337.333	26.75
337.544	26.75
337.755	26.77
337.966	27.38
338.177	27.19
338.388	27.04
338.599	26.49
338.811	27.91
339.022	28.92
339.233	28.06
339.444	27.34
339.655	27.54
339.866	27.71
340.076	27.19
340.287	27.04
340.498	27.85
340.709	27.79
340.92	27.93
341.131	27.83
341.342	27.39
341.553	27.72
341.764	28.37
341.975	28.28
342.185	26.95
342.396	27.1
342.607	27.06
342.818	26.52
343.029	26.66
343.239	27.54
343.45	26.1
343.661	27.29
343.872	27.29
344.082	27.78
344.293	27.8
344.504	28.64
344.714	29.29
344.925	29.08
345.136	29.4
345.346	29.25
345.557	28.6
345.768	29.07
345.978	27.84
346.189	27.84
346.399	26.57
346.61	26.82
346.821	26.42
347.031	25.55
347.242	25.64
347.452	25.35
347.663	25.37
347.873	25.49
348.084	25.79
348.294	26.2
348.504	26.32
348.715	26.65
348.925	26.66
349.136	26.51
349.346	26.76
349.557	26.97
349.767	26.87
349.977	26.67
350.188	26.88
350.398	27.13
350.608	27.37
350.819	28.11
351.029	28.18
351.239	27.73
351.449	28.76
351.66	29.28
351.87	29.55
352.08	30.16
352.29	30.2
352.501	30.1
352.711	29.92
352.921	29.24
353.131	28.67
353.341	28.77
353.552	28.67
353.762	28.33
353.972	28.01
354.182	27.64
354.392	27.16
354.602	27.34
354.812	27.99
355.022	27.84
355.232	28.1
355.442	27.87
355.652	28.25
355.862	28.35
356.072	28.01
356.282	27.91
356.492	27.96
356.702	28.24
356.912	27.89
357.122	27.06
357.332	26.74
357.542	26.32
357.752	26.47
357.962	26.05
358.171	25.95
358.381	26.2
358.591	26.11
358.801	26.55
359.011	26.05
359.221	26.1
359.43	26.21
359.64	26.38
359.85	27.17
360.06	27.15
360.269	27.66
360.479	27.54
360.689	27.04
360.899	26.94
361.108	25.91
361.318	25.82
361.528	25.63
361.737	25.62
361.947	25.86
362.156	25.59
362.366	25.38
362.576	25.11
362.785	24.97
362.995	25.41
363.204	25.4
363.414	25.9
363.623	26.43
363.833	26.12
364.042	26.51
364.252	26.02
364.461	25.77
364.671	25.77
364.88	25.57
365.09	25.66
365.299	25.57
365.509	25.64
365.718	25.19
365.927	24.84
366.137	24.95
366.346	24.89
366.555	25.25
366.765	25.65
366.974	25.6
367.183	25.63
367.393	25.78
367.602	25.5
367.811	25.41
368.021	25.76
368.23	25.72
368.439	26.06
368.648	25.99
368.857	25.65
369.067	25.34
369.276	25.43
369.485	25.6
369.694	25.7
369.903	25.47
370.112	25.5
370.321	25.59
370.531	24.89
370.74	24.89
370.949	24.42
371.158	24.29
371.367	24.16
371.576	23.66
371.785	23.4
371.994	23.28
372.203	23.32
372.412	23.46
372.621	22.95
372.83	23.09
373.039	22.78
373.248	22.63
373.457	22.82
373.666	22.2
373.874	21.71
374.083	21.73
374.292	21.33
374.501	21.38
374.71	20.75
374.919	20.66
375.128	21.45
375.336	21.61
375.545	21.9
375.754	21.81
375.963	22.29
376.171	22.87
376.38	22.79
376.589	23.02
376.798	22.75
377.006	22.83
377.215	22.97
377.424	22.4
377.632	22.46
377.841	22.39
378.05	22.41
378.258	22.32
378.467	22.21
378.675	22.29
378.884	21.95
379.093	21.94
379.301	22.05
379.51	22.12
379.718	22.3
379.927	22.46
380.135	22.25
380.344	22.23
380.552	21.85
380.761	21.92
380.969	22
381.177	22.12
381.386	21.6
381.594	21.71
381.803	21.33
382.011	21.29
382.219	21.16
382.428	20.78
382.636	20.22
382.845	20.67
383.053	20.74
383.261	20.05
383.469	19.82
383.678	20.27
383.886	20.17
384.094	20.14
384.302	19.53
384.511	19.31
384.719	19.41
384.927	19.76
385.135	19.86
385.343	19.74
385.552	20.1
385.76	20.36
385.968	20.31
386.176	20.07
386.384	20.22
386.592	20.58
386.8	20.46
387.008	20.57
387.216	20.56
387.424	20.47
387.633	20.02
387.841	19.71
388.049	19.58
388.257	19.64
388.465	19.49
388.672	19.7
388.88	19.27
389.088	18.88
389.296	18.84
389.504	18.65
389.712	18.34
389.92	18.76
390.128	18.84
390.336	18.45
390.544	18.49
390.751	18.7
390.959	18.58
391.167	18.83
391.375	19.14
391.583	18.91
391.79	18.92
391.998	19.12
392.206	19
392.414	18.84
392.621	18.96
392.829	18.81
393.037	18.77
393.244	18.6
393.452	18.62
393.66	18.65
393.867	18.8
394.075	18.94
394.283	18.76
394.49	18.74
394.698	18.97
394.905	19.19
395.113	19.44
395.32	19.49
395.528	19.44
395.735	19.33
395.943	19.08
396.15	19.1
396.358	18.6
396.565	18.27
396.773	18.36
396.98	18.55
397.188	18.02
397.395	17.72
397.602	17.69
397.81	17.59
398.017	17.59
398.225	17.75
398.432	17.83
398.639	18.21
398.847	18.79
399.054	18.72
399.261	18.4
399.468	18.59
399.676	18.73
399.883	18.56
400.09	18.47
400.297	18.3
400.505	18.1
400.712	17.79
400.919	17.4
401.126	17.22
401.333	17.18
401.54	17.1
401.748	17.07
401.955	16.95
402.162	16.86
402.369	16.96
402.576	16.72
402.783	16.6
402.99	16.63
403.197	17.04
403.404	16.85
403.611	16.9
403.818	16.76
404.025	16.88
404.232	16.88
404.439	16.85
404.646	16.75
404.853	17.17
405.06	17.32
405.267	17.63
405.474	17.46
405.681	17.47
405.887	17.05
406.094	17.22
406.301	17.03
406.508	17.04
406.715	17.19
406.922	17.03
407.128	16.86
407.335	16.83
407.542	16.64
407.749	16.66
407.955	16.31
408.162	16.51
408.369	16.5
408.575	16.59
408.782	16.55
408.989	16.43
409.195	16.68
409.402	16.79
409.609	16.95
409.815	16.53
410.022	16.78
410.228	17.22
410.435	17.26
410.642	17.21
410.848	17.37
411.055	17.45
411.261	17.35
411.468	17.44
411.674	17.2
411.881	17.04
412.087	17.28
412.294	17.04
412.5	16.75
412.706	16.59
412.913	16.57
413.119	16.57
413.326	16.6
413.532	16.71
413.738	16.5
413.945	16.79
414.151	16.68
414.357	16.64
414.564	16.84
414.77	17.09
414.976	17.16
415.182	16.97
415.389	16.85
415.595	16.63
415.801	16.39
416.007	16.44
416.214	16.43
416.42	16.53
416.626	16.79
416.832	16.49
417.038	16.38
417.244	16.38
417.45	16.53
417.657	16.46
417.863	16.47
418.069	16.69
418.275	16.74
418.481	16.63
418.687	16.47
418.893	16.12
419.099	16
419.305	15.98
419.511	16.07
419.717	15.89
419.923	15.83
420.129	15.88
420.335	15.77
420.541	15.61
420.746	15.56
420.952	15.6
421.158	15.68
421.364	15.77
421.57	15.74
421.776	15.72
421.982	15.73
422.187	15.73
422.393	15.61
422.599	15.58
422.805	15.64
423.01	15.71
423.216	15.79
423.422	15.75
423.628	15.81
423.833	15.74
424.039	15.64
424.245	15.56
424.45	15.71
424.656	15.7
424.862	15.7
425.067	15.65
425.273	15.52
425.478	15.4
425.684	15.41
425.889	15.36
426.095	15.38
426.301	15.54
426.506	15.78
426.712	15.52
426.917	15.5
427.123	15.48
427.328	15.55
427.533	15.63
427.739	15.74
427.944	15.71
428.15	15.59
428.355	15.82
428.561	15.67
428.766	15.42
428.971	15.5
429.177	15.62
429.382	15.63
429.587	15.6
429.793	15.61
429.998	15.66
430.203	15.78
430.408	15.84
430.614	15.57
430.819	15.48
431.024	15.59
431.229	15.49
431.434	15.28
431.64	15.24
431.845	15.17
432.05	15.15
432.255	15.08
432.46	15.08
432.665	14.99
432.87	15.03
433.076	15.07
433.281	14.92
433.486	14.91
433.691	15.08
433.896	15.02
434.101	14.94
434.306	14.84
434.511	14.76
434.716	14.56
434.921	14.48
435.126	14.47
435.331	14.56
435.535	14.77
435.74	14.89
435.945	14.76
436.15	14.76
436.355	14.89
436.56	15.02
436.765	15.04
436.97	15.23
437.174	15.34
437.379	15.43
437.584	15.35
437.789	15.34
437.993	15.36
438.198	15.46
438.403	15.55
438.608	15.49
438.812	15.36
439.017	15.41
439.222	15.47
439.426	15.54
439.631	15.52
439.836	15.42
440.04	15.27
440.245	15.2
440.45	15.19
440.654	15.05
440.859	14.97
441.063	15.01
441.268	14.95
441.472	14.85
441.677	14.86
441.881	14.84
442.086	14.68
442.29	14.8
442.495	14.92
442.699	14.85
442.904	14.91
443.108	14.98
443.312	14.99
443.517	15.16
443.721	15.27
443.925	15.02
444.13	14.83
444.334	15.03
444.538	14.99
444.743	14.88
444.947	14.84
445.151	14.8
445.356	14.72
445.56	14.78
445.764	14.6
445.968	14.38
446.173	14.51
446.377	14.53
446.581	14.56
446.785	14.49
446.989	14.44
447.193	14.54
447.398	14.57
447.602	14.6
447.806	14.53
448.01	14.55
448.214	14.7
448.418	14.71
448.622	14.77
448.826	14.66
449.03	14.67
449.234	14.68
449.438	14.49
449.642	14.37
449.846	14.42
450.05	14.47
450.254	14.63
450.458	14.35
450.662	14.39
450.866	14.32
451.069	14.34
451.273	14.34
451.477	14.23
451.681	14.12
451.885	14.25
452.089	14.21
452.292	14.42
452.496	14.36
452.7	14.64
452.904	14.47
453.107	14.51
453.311	14.49
453.515	14.45
453.719	14.53
453.922	14.77
454.126	14.68
454.33	14.75
454.533	14.5
454.737	14.51
454.94	14.46
455.144	14.61
455.348	14.66
455.551	14.75
455.755	14.76
455.958	14.85
456.162	14.94
456.365	15.08
456.569	15.18
456.772	15.02
456.976	14.9
457.179	14.74
457.383	14.6
457.586	14.64
457.79	14.61
457.993	14.68
458.196	14.56
458.4	14.37
458.603	14.36
458.807	14.21
459.01	14.34
459.213	14.29
459.417	14.35
459.62	14.48
459.823	14.35
460.026	14.41
460.23	14.4
460.433	14.37
460.636	14.33
460.839	14.36
461.042	14.51
461.246	14.42
461.449	14.45
461.652	14.46
461.855	14.35
462.058	14.56
462.261	14.37
462.464	14.46
462.668	14.59
462.871	14.73
463.074	14.54
463.277	14.46
463.48	14.53
463.683	14.46
463.886	14.36
464.089	14.46
464.292	14.35
464.495	14.42
464.698	14.44
464.901	14.34
465.104	14.42
465.306	14.59
465.509	14.41
465.712	14.62
465.915	14.77
466.118	14.95
466.321	14.91
466.524	15.09
466.726	15.18
466.929	15.3
467.132	15.19
467.335	15.19
467.538	15.21
467.74	15.2
467.943	15.06
468.146	14.98
468.348	14.84
468.551	14.86
468.754	14.63
468.956	14.68
469.159	14.55
469.362	14.57
469.564	14.52
469.767	14.51
469.969	14.68
470.172	14.59
470.375	14.66
470.577	14.82
470.78	14.69
470.982	14.67
471.185	14.53
471.387	14.45
471.59	14.61
471.792	14.73
471.995	14.65
472.197	14.63
472.399	14.71
472.602	14.65
472.804	14.5
473.007	14.5
473.209	14.58
473.411	14.59
473.614	14.64
473.816	14.63
474.018	14.31
474.22	14.33
474.423	14.18
474.625	14.23
474.827	14.37
475.03	14.48
475.232	14.62
475.434	14.57
475.636	14.44
475.838	14.45
476.04	14.36
476.243	14.39
476.445	14.23
476.647	14.35
476.849	14.28
477.051	14.07
477.253	14.11
477.455	13.98
477.657	13.89
477.859	13.95
478.061	13.91
478.263	13.99
478.465	14.2
478.667	14.35
478.869	14.39
479.071	14.34
479.273	14.4
479.475	14.38
479.677	14.4
479.879	14.57
480.081	14.71
480.283	14.67
480.485	14.71
480.686	14.61
480.888	14.52
481.09	14.39
481.292	14.39
481.494	14.46
481.695	14.43
481.897	14.44
482.099	14.38
482.301	14.26
482.502	14.27
482.704	14.16
482.906	14.18
483.107	14.22
483.309	14.27
483.511	14.21
483.712	14.18
483.914	14.19
484.115	14.14
484.317	14.13
484.519	14.12
484.72	14.08
484.922	14.1
485.123	14.03
485.325	14.04
485.526	13.97
485.728	14.05
485.929	14.07
486.131	13.96
486.332	14.03
486.534	14.03
486.735	14.05
486.936	14.11
487.138	14.09
487.339	14.16
487.541	14.08
487.742	14.13
487.943	14.14
488.144	14.09
488.346	14.11
488.547	14.05
488.748	14.03
488.95	14.06
489.151	14.01
489.352	13.99
489.553	13.91
489.755	13.98
489.956	13.92
490.157	13.79
490.358	13.76
490.559	13.83
490.76	13.9
490.961	13.93
491.163	13.89
491.364	13.92
491.565	13.95
491.766	13.99
491.967	13.99
492.168	13.96
492.369	13.96
492.57	13.92
492.771	13.9
492.972	13.89
493.173	13.88
493.374	13.9
493.575	13.87
493.776	13.82
493.976	13.82
494.177	13.83
494.378	13.87
494.579	14.15
494.78	14.25
494.981	14.35
495.182	14.33
495.382	14.38
495.583	14.3
495.784	14.25
495.985	14.45
496.185	14.46
496.386	14.46
496.587	14.55
496.788	14.38
496.988	14.35
497.189	14.3
497.39	14.28
497.59	14.13
497.791	14.14
497.992	14.23
498.192	14.29
498.393	14.32
498.593	14.33
498.794	14.33
498.994	14.31
499.195	14.3
499.395	14.48
499.596	14.48
499.796	14.69
499.997	14.81
500.197	14.85
500.398	14.74
500.598	14.85
500.799	14.85
500.999	14.89
501.199	14.93
501.4	15.13
501.6	15.06
501.801	15.22
502.001	15.29
502.201	15.4
502.402	15.41
502.602	15.44
502.802	15.4
503.002	15.46
503.203	15.55
503.403	15.48
503.603	15.46
503.803	15.43
504.003	15.53
504.204	15.49
504.404	15.56
504.604	15.6
504.804	15.79
505.004	15.71
505.204	15.76
505.404	15.67
505.604	15.66
505.804	15.65
506.005	15.67
506.205	15.59
506.405	15.63
506.605	15.51
506.805	15.64
507.005	15.46
507.204	15.6
507.404	15.63
507.604	15.82
507.804	15.89
508.004	15.93
508.204	16.01
508.404	15.98
508.604	15.96
508.804	16
509.003	15.95
509.203	16.08
509.403	16.13
509.603	16.12
509.803	16.05
510.002	16.08
510.202	16.14
510.402	16.06
510.602	16.02
510.801	16.06
511.001	16.21
511.201	16.13
511.4	16.11
511.6	16.1
511.8	16.18
511.999	16.15
512.199	16.23
512.398	16.22
512.598	16.37
512.797	16.56
512.997	16.46
513.197	16.3
513.396	16.39
513.596	16.45
513.795	16.47
513.994	16.34
514.194	16.62
514.393	16.65
514.593	16.8
514.792	16.69
514.992	16.63
515.191	16.84
515.39	17.1
515.59	17.29
515.789	17.33
515.988	17.43
516.188	17.7
516.387	17.53
516.586	17.57
516.786	17.64
516.985	17.89
517.184	18.01
517.383	18.05
517.582	17.99
517.782	18.07
517.981	18.2
518.18	18.19
518.379	18.21
518.578	18.23
518.777	18.34
518.976	18.38
519.176	18.33
519.375	18.42
519.574	18.46
519.773	18.49
519.972	18.38
520.171	18.4
520.37	18.46
520.569	18.56
520.768	18.76
520.967	18.82
521.166	18.79
521.365	18.82
521.564	18.81
521.762	18.8
521.961	19
522.16	19.2
522.359	19.16
522.558	19.21
522.757	19.18
522.956	19.2
523.154	19.3
523.353	19.47
523.552	19.57
523.751	19.66
523.949	19.84
524.148	19.92
524.347	20.11
524.546	20.25
524.744	20.36
524.943	20.52
525.142	20.59
525.34	20.6
525.539	20.56
525.737	20.65
525.936	20.72
526.135	20.86
526.333	20.83
526.532	20.75
526.73	20.8
526.929	20.83
527.127	20.88
527.326	20.92
527.524	20.99
527.723	21.09
527.921	21.13
528.12	21.19
528.318	21.11
528.516	21.11
528.715	21.14
528.913	21.17
529.112	21.22
529.31	21.2
529.508	21.27
529.707	21.28
529.905	21.34
530.103	21.38
530.301	21.41
530.5	21.55
530.698	21.66
530.896	21.78
531.094	21.84
531.293	21.89
531.491	22.03
531.689	21.98
531.887	22.13
532.085	22.17
532.283	22.29
532.481	22.29
532.68	22.35
532.878	22.44
533.076	22.47
533.274	22.55
533.472	22.66
533.67	22.66
533.868	22.74
534.066	22.69
534.264	22.71
534.462	22.69
534.66	22.78
534.858	22.8
535.056	22.87
535.253	22.85
535.451	22.87
535.649	22.81
535.847	22.94
536.045	23.1
536.243	23.3
536.441	23.35
536.638	23.48
536.836	23.5
537.034	23.44
537.232	23.49
537.43	23.62
537.627	23.73
537.825	23.8
538.023	23.79
538.22	23.7
538.418	23.64
538.616	23.74
538.813	23.83
539.011	23.96
539.209	24.1
539.406	24.09
539.604	24.26
539.801	24.35
539.999	24.58
540.196	24.62
540.394	24.76
540.591	24.78
540.789	24.85
540.986	24.81
541.184	24.8
541.381	24.81
541.579	24.81
541.776	24.72
541.974	24.69
542.171	24.68
542.368	24.74
542.566	24.77
542.763	24.82
542.96	24.86
543.158	24.85
543.355	24.91
543.552	25.02
543.75	25.19
543.947	25.32
544.144	25.49
544.341	25.54
544.539	25.68
544.736	25.76
544.933	25.78
545.13	25.77
545.327	25.92
545.524	25.97
545.722	26.02
545.919	26.02
546.116	26.09
546.313	26.13
546.51	26.14
546.707	26.05
546.904	26.01
547.101	26.16
547.298	26.31
547.495	26.33
547.692	26.33
547.889	26.33
548.086	26.31
548.283	26.31
548.48	26.27
548.677	26.4
548.874	26.51
549.07	26.55
549.267	26.56
549.464	26.66
549.661	26.61
549.858	26.75
550.055	26.73
550.251	26.82
550.448	26.71
550.645	26.79
550.842	26.8
551.038	26.77
551.235	26.94
551.432	26.96
551.628	26.93
551.825	27.11
552.022	27.15
552.218	27.36
552.415	27.36
552.612	27.63
552.808	27.69
553.005	27.62
553.201	27.86
553.398	27.83
553.594	27.97
553.791	28.07
553.987	28.1
554.184	28.11
554.38	28.3
554.577	28.47
554.773	28.37
554.97	28.51
555.166	28.61
555.362	28.73
555.559	28.69
555.755	28.72
555.952	28.71
556.148	29.01
556.344	29.11
556.541	29.05
556.737	29.06
556.933	29.23
557.129	29.25
557.326	29.4
557.522	29.44
557.718	29.62
557.914	29.65
558.11	29.62
558.307	29.5
558.503	29.67
558.699	29.9
558.895	29.77
559.091	29.87
559.287	29.88
559.483	29.89
559.679	30.05
559.876	30.19
560.072	30.21
560.268	30.23
560.464	30.33
560.66	30.44
560.856	30.41
561.052	30.67
561.247	30.83
561.443	30.91
561.639	30.91
561.835	30.91
562.031	30.86
562.227	30.99
562.423	31.18
562.619	31.32
562.815	31.34
563.01	31.21
563.206	31.26
563.402	31.19
563.598	31.2
563.793	31.31
563.989	31.25
564.185	31.42
564.381	31.52
564.576	31.57
564.772	31.54
564.968	31.73
565.163	31.81
565.359	31.94
565.555	32.06
565.75	32.14
565.946	32.22
566.141	32.29
566.337	32.32
566.532	32.41
566.728	32.36
566.923	32.3
567.119	32.02
567.314	31.99
567.51	32.14
567.705	32.29
567.901	32.21
568.096	32.32
568.292	32.32
568.487	32.27
568.682	32.3
568.878	32.29
569.073	32.47
569.268	32.62
569.464	32.8
569.659	32.75
569.854	32.52
570.05	32.68
570.245	32.64
570.44	32.72
570.635	32.81
570.831	32.85
571.026	33.1
571.221	33.12
571.416	33.36
571.611	33.49
571.806	33.57
572.002	33.81
572.197	33.91
572.392	33.89
572.587	33.89
572.782	33.98
572.977	34.01
573.172	33.97
573.367	34.14
573.562	34.04
573.757	34.06
573.952	34.01
574.147	33.95
574.342	33.98
574.537	34.2
574.732	34.13
574.927	34.25
575.121	34.22
575.316	34.44
575.511	34.41
575.706	34.42
575.901	34.34
576.096	34.4
576.29	34.53
576.485	34.65
576.68	34.63
576.875	34.77
577.069	34.64
577.264	34.88
577.459	34.63
577.654	34.66
577.848	34.71
578.043	34.94
578.238	34.96
578.432	35.12
578.627	35.14
578.821	35.32
579.016	35.57
579.21	35.73
579.405	35.66
579.6	35.77
579.794	35.86
579.989	35.9
580.183	35.95
580.378	35.99
580.572	36.02
580.766	36.11
580.961	36.05
581.155	36.14
581.35	36.37
581.544	36.45
581.738	36.72
581.933	36.76
582.127	36.96
582.321	36.84
582.516	37.02
582.71	36.83
582.904	36.73
583.099	36.96
583.293	36.82
583.487	36.75
583.681	36.63
583.875	36.86
584.07	36.9
584.264	37
584.458	37.12
584.652	37.11
584.846	37.24
585.04	37.3
585.234	37.27
585.428	37.38
585.623	37.44
585.817	37.67
586.011	37.44
586.205	37.48
586.399	37.52
586.593	37.64
586.787	37.92
586.981	37.98
587.174	38.16
587.368	37.94
587.562	37.97
587.756	37.9
587.95	37.74
588.144	37.76
588.338	37.53
588.532	37.42
588.725	37.25
588.919	37.23
589.113	37.15
589.307	37.13
589.501	37.24
589.694	37.37
589.888	37.44
590.082	37.56
590.275	37.52
590.469	37.74
590.663	37.83
590.856	38.06
591.05	37.87
591.244	38.09
591.437	38.19
591.631	38.36
591.824	38.31
592.018	38.2
592.212	38.32
592.405	38.27
592.599	38.42
592.792	38.52
592.986	38.59
593.179	38.6
593.372	38.45
593.566	38.19
593.759	38.17
593.953	38.21
594.146	38.37
594.339	38.39
594.533	38.67
594.726	38.63
594.92	38.65
595.113	38.64
595.306	38.8
595.499	38.73
595.693	38.73
595.886	38.63
596.079	38.51
596.272	38.7
596.466	38.71
596.659	38.84
596.852	38.74
597.045	38.84
597.238	38.8
597.431	38.81
597.624	39
597.818	39.23
598.011	39.35
598.204	39.45
598.397	39.32
598.59	39.35
598.783	39.22
598.976	39.25
599.169	39.23
599.362	39.35
599.555	39.42
599.748	39.52
599.941	39.77
600.134	39.94
600.326	40.03
600.519	40.31
600.712	40.24
600.905	40.42
601.098	40.56
601.291	40.59
601.483	40.51
601.676	40.51
601.869	40.54
602.062	40.24
602.255	40.13
602.447	40.16
602.64	39.89
602.833	39.84
603.025	39.76
603.218	39.91
603.411	39.93
603.603	39.92
603.796	39.83
603.989	39.78
604.181	39.86
604.374	39.92
604.566	39.97
604.759	39.94
604.951	39.9
605.144	39.83
605.336	39.78
605.529	39.6
605.721	39.64
605.914	39.61
606.106	39.61
606.299	39.53
606.491	39.43
606.683	39.62
606.876	39.62
607.068	39.81
607.26	39.95
607.453	39.96
607.645	40.17
607.837	40.32
608.03	40.41
608.222	40.41
608.414	40.65
608.606	40.66
608.799	40.51
608.991	40.82
609.183	40.99
609.375	40.99
609.567	40.9
609.759	41.03
609.952	40.98
610.144	41.1
610.336	41.21
610.528	41.27
610.72	41.13
610.912	41.11
611.104	41.07
611.296	41.03
611.488	41.12
611.68	41.03
611.872	41.02
612.064	40.88
612.256	40.85
612.448	40.86
612.64	40.75
612.832	41.2
613.023	41.45
613.215	41.41
613.407	41.32
613.599	41.18
613.791	41.69
613.983	41.66
614.174	41.95
614.366	42.2
614.558	42.03
614.75	41.87
614.941	41.87
615.133	41.48
615.325	41.71
615.516	41.73
615.708	41.86
615.9	41.64
616.091	41.61
616.283	41.47
616.475	41.42
616.666	41.3
616.858	41.59
617.049	41.32
617.241	41.63
617.432	41.66
617.624	41.86
617.815	41.91
618.007	42.03
618.198	42.11
618.39	42.26
618.581	42.32
618.773	42.56
618.964	42.6
619.155	42.78
619.347	42.38
619.538	42.2
619.729	41.82
619.921	42.01
620.112	41.98
620.303	42.01
620.494	41.95
620.686	42.01
620.877	42.05
621.068	41.9
621.259	41.89
621.451	42.27
621.642	42.38
621.833	42.83
622.024	42.9
622.215	42.7
622.406	42.61
622.597	42.91
622.788	42.58
622.98	42.73
623.171	42.81
623.362	42.81
623.553	42.57
623.744	42.76
623.935	42.5
624.126	42.47
624.317	42.72
624.508	42.91
624.698	43
624.889	43.2
625.08	42.93
625.271	43.18
625.462	43.24
625.653	43.34
625.844	43.02
626.034	43.08
626.225	43.34
626.416	43.5
626.607	43.51
626.798	43.34
626.988	43.51
627.179	43.59
627.37	43.49
627.56	43.47
627.751	43.67
627.942	43.67
628.132	43.69
628.323	43.29
628.514	43.19
628.704	42.95
628.895	42.96
629.085	42.91
629.276	42.89
629.466	42.57
629.657	42.74
629.847	42.68
630.038	42.86
630.228	42.82
630.419	42.96
630.609	42.94
630.8	43.36
630.99	43.27
631.181	43.19
631.371	43.61
631.561	44.09
631.752	44.09
631.942	44.01
632.132	44.18
632.323	44.36
632.513	44.52
632.703	44.52
632.893	44.3
633.084	44.29
633.274	44.27
633.464	43.94
633.654	43.52
633.844	43.71
634.034	43.67
634.225	43.67
634.415	43.69
634.605	43.44
634.795	43.11
634.985	43.2
635.175	43.2
635.365	43.09
635.555	43.17
635.745	43.67
635.935	43.56
636.125	43.47
636.315	43.37
636.505	43.32
636.695	43.16
636.885	43.58
637.075	43.21
637.265	43.41
637.455	43.31
637.644	43.73
637.834	43.49
638.024	43.26
638.214	43.65
638.404	43.59
638.593	43.6
638.783	44.21
638.973	44.33
639.163	44.71
639.352	44.76
639.542	45.25
639.732	44.9
639.921	45.19
640.111	45.44
640.301	45.29
640.49	45.63
640.68	45.96
640.87	45.88
641.059	45.84
641.249	45.95
641.438	45.74
641.628	45.47
641.817	45.58
642.007	45.19
642.196	44.95
642.386	44.96
642.575	44.65
642.764	44.46
642.954	44.09
643.143	44.18
643.333	44.22
643.522	44.36
643.711	44.53
643.901	44.83
644.09	45.11
644.279	45.5
644.469	45.53
644.658	45.87
644.847	45.81
645.036	46.02
645.226	46.18
645.415	45.8
645.604	45.62
645.793	45.42
645.982	44.97
646.171	44.85
646.361	44.36
646.55	44.68
646.739	44.61
646.928	44.83
647.117	44.9
647.306	44.79
647.495	45.06
647.684	45.43
647.873	45.13
648.062	45.22
648.251	45.34
648.44	45.61
648.629	45.28
648.818	45.01
649.007	45.03
649.196	44.68
649.384	44.48
649.573	44.81
649.762	44.71
649.951	45.01
650.14	44.87
650.328	45.08
650.517	45.22
650.706	45.16
650.895	45.16
651.083	45.26
651.272	45.56
651.461	45.76
651.65	45.78
651.838	45.85
652.027	46.17
652.216	46.21
652.404	45.86
652.593	46.15
652.781	46.36
652.97	46.46
653.158	46.09
653.347	46.07
653.535	45.9
653.724	45.58
653.912	45.83
654.101	45.88
654.289	45.98
654.478	46.08
654.666	45.8
654.855	45.76
655.043	45.82
655.231	46.13
655.42	45.97
655.608	46.04
655.796	46.32
655.985	46.4
656.173	46.26
656.361	46
656.55	46.13
656.738	46.14
656.926	46.08
657.114	46.11
657.302	46.09
657.491	46.3
657.679	46.46
657.867	46.53
658.055	46.25
658.243	46.12
658.431	46.3
658.619	46.24
658.807	46.24
658.996	46.38
659.184	46.31
659.372	46.46
659.56	46.52
659.748	46.45
659.936	46.27
660.124	46.32
660.311	46.42
660.499	46.55
660.687	46.21
660.875	46.24
661.063	46.33
661.251	46.29
661.439	46.03
661.627	46.13
661.814	45.96
662.002	45.87
662.19	45.72
662.378	45.73
662.565	45.71
662.753	45.95
662.941	45.87
663.129	45.75
663.316	45.64
663.504	45.7
663.692	45.54
663.879	45.96
664.067	46.22
664.254	46.34
664.442	46.32
664.63	46.33
664.817	46.44
665.005	46.53
665.192	46.58
665.38	46.75
665.567	46.67
665.755	47.14
665.942	46.96
666.13	46.85
666.317	47.07
666.504	47.41
666.692	48.11
666.879	48.09
667.067	48.15
667.254	47.41
667.441	47.63
667.629	47.83
667.816	47.17
668.003	46.78
668.19	46.61
668.378	46.56
668.565	46.5
668.752	45.88
668.939	46.32
669.127	46.31
669.314	46.93
669.501	47.03
669.688	47.03
669.875	47.45
670.062	47.66
670.249	47.46
670.436	47.49
670.623	47.07
670.81	47.07
670.997	46.63
671.184	46.51
671.371	46.58
671.558	46.32
671.745	46.35
671.932	45.98
672.119	46.19
672.306	46.57
672.493	46.54
672.68	47.03
672.867	47.28
673.054	47.25
673.24	47.17
673.427	47.34
673.614	47.83
673.801	48.39
673.988	48.32
674.174	48.05
674.361	48.13
674.548	47.75
674.734	48.03
674.921	47.92
675.108	48.26
675.294	48.51
675.481	48.39
675.668	48
675.854	47.6
676.041	47.67
676.227	47.79
676.414	47.69
676.601	48.24
676.787	48.06
676.974	47.78
677.16	48.25
677.347	48.38
677.533	48.25
677.719	47.99
677.906	47.67
678.092	47.56
678.279	47.95
678.465	48.14
678.651	47.79
678.838	47.69
679.024	47.95
679.21	47.69
679.397	47.63
679.583	47.68
679.769	48.02
679.955	48.11
680.142	47.92
680.328	47.74
680.514	47.91
680.7	47.62
680.886	47.55
681.073	47.36
681.259	46.97
681.445	46.85
681.631	46.96
681.817	46.8
682.003	46.63
682.189	47.04
682.375	47.06
682.561	46.88
682.747	47.73
682.933	47.41
683.119	47.44
683.305	47.56
683.491	47.49
683.677	47.2
683.863	47.32
684.049	47.6
684.235	47.55
684.42	47.52
684.606	47.52
684.792	47.07
684.978	47.73
685.164	47.81
685.349	47.8
685.535	48.03
685.721	48.34
685.907	48.13
686.092	48.25
686.278	47.94
686.464	47.83
686.649	47.78
686.835	47.53
687.021	47.62
687.206	47.37
687.392	47.32
687.577	46.98
687.763	47.04
687.948	47.34
688.134	47.24
688.319	47.2
688.505	47.34
688.69	47.05
688.876	47.24
689.061	46.78
689.247	47.29
689.432	47.24
689.618	47.19
689.803	46.61
689.988	46.51
690.174	46.29
690.359	46.6
690.544	46.68
690.73	46.36
690.915	46.52
691.1	46.26
691.285	46.07
691.471	46.41
691.656	46.5
691.841	46.8
692.026	46.79
692.211	46.83
692.396	47.39
692.582	47.43
692.767	48.22
692.952	47.91
693.137	48.15
693.322	47.87
693.507	47.91
693.692	48.06
693.877	48.09
694.062	47.83
694.247	48.06
694.432	47.29
694.617	47.05
694.802	47.3
694.987	47.12
695.172	47.39
695.357	47.46
695.541	47.28
695.726	47.32
695.911	47.46
696.096	47.54
696.281	47.46
696.466	48.15
696.65	48.08
696.835	47.43
697.02	47.68
697.204	47.38
697.389	48.03
697.574	47.95
697.759	47.73
697.943	47.64
698.128	47.39
698.312	47.44
698.497	47.05
698.682	46.97
698.866	47.11
699.051	46.96
699.235	46.78
699.42	46.69
699.604	47.11
699.789	47.12
699.973	47.16
700.158	47.57
700.342	47.87
700.527	47.81
700.711	48.52
700.895	48.74
701.08	48.99
701.264	49.33
701.448	49.17
701.633	48.5
701.817	49.15
702.001	49.65
702.186	49.78
702.37	48.92
702.554	48.88
702.738	48.68
702.923	48.63
703.107	48.69
703.291	49.39
703.475	49.24
703.659	49.44
703.843	49.39
704.027	49.3
704.212	49.21
704.396	49.21
704.58	49.9
704.764	48.98
704.948	48.98
705.132	48.93
705.316	48.42
705.5	48.95
705.684	49.44
705.868	49.15
706.052	48.83
706.235	49.31
706.419	49.73
706.603	49.51
706.787	49.84
706.971	49.99
707.155	50.69
707.339	50.55
707.522	50.18
707.706	49.58
707.89	49.42
708.074	49.63
708.257	48.94
708.441	49.6
708.625	49.53
708.808	49.64
708.992	49.37
709.176	49.03
709.359	49.06
709.543	48.77
709.727	49.37
709.91	49.62
710.094	49.5
710.277	50.21
710.461	49.66
710.644	50.01
710.828	50.14
711.011	49.97
711.195	49.43
711.378	49.47
711.562	49.53
711.745	49.4
711.928	49.08
712.112	49.26
712.295	48.38
712.478	48.9
712.662	48.43
712.845	48.13
713.028	48.16
713.212	48.88
713.395	48.63
713.578	49.19
713.761	49.24
713.945	49.41
714.128	49.4
714.311	50.42
714.494	50.19
714.677	50.41
714.86	50.64
715.043	51.45
715.227	50.77
715.41	51.28
715.593	50.94
715.776	51.14
715.959	51.39
716.142	51.19
716.325	50.77
716.508	50.49
716.691	50.68
716.874	51.01
717.057	50.43
717.239	50.99
717.422	50.92
717.605	51.36
717.788	51
717.971	50.67
718.154	50.61
718.337	50.87
718.519	50.55
718.702	50.24
718.885	50.5
719.068	50.52
719.25	50.48
719.433	50.67
719.616	50.44
719.798	50.37
719.981	50.88
720.164	50.6
720.346	49.78
720.529	49.93
720.712	49.78
720.894	49.05
721.077	49.6
721.259	49.48
721.442	49.24
721.624	48.81
721.807	49.71
721.989	50.21
722.172	50.53
722.354	51.71
722.537	51.94
722.719	52.08
722.901	52.39
723.084	52.06
723.266	52.04
723.448	52.34
723.631	52.82
723.813	52.33
723.995	51.93
724.178	51.53
724.36	50.89
724.542	51
724.724	51.75
724.907	52.13
725.089	51.47
725.271	51.52
725.453	51.34
725.635	51.19
725.817	51.52
725.999	51.02
726.181	51.73
726.364	51.36
726.546	51.58
726.728	51
726.91	50.78
727.092	51.26
727.274	51.31
727.456	51.12
727.638	50.85
727.819	50.17
728.001	49.86
728.183	49.68
728.365	50.54
728.547	50.27
728.729	50.29
728.911	49.86
729.093	49.85
729.274	49.49
729.456	49.06
729.638	49.16
729.82	49.03
730.001	49.53
730.183	49.94
730.365	50.15
730.546	50.2
730.728	49.95
730.91	49.71
731.091	49.49
731.273	49.4
731.455	49.84
731.636	50.43
731.818	50.46
731.999	50.42
732.181	49.75
732.362	49.31
732.544	49.31
732.725	49.67
732.907	49.7
733.088	49.79
733.27	49.7
733.451	49.82
733.633	49.99
733.814	50.43
733.995	50.24
734.177	50.86
734.358	50.79
734.539	50.89
734.721	50.86
734.902	51.93
735.083	51.94
735.264	53.84
735.446	54.32
735.627	53.47
735.808	53.23
735.989	53.73
736.17	53.75
736.351	53.93
736.533	54.24
736.714	53.99
736.895	53.41
737.076	53.35
737.257	51.83
737.438	51.59
737.619	52.25
737.8	51.83
737.981	52.27
738.162	51.62
738.343	51.92
738.524	51.42
738.705	52.06
738.886	51.88
739.067	51.84
739.247	52.62
739.428	51.87
739.609	51.13
739.79	51.74
739.971	51.42
740.151	52.5
740.332	52.83
740.513	53.23
740.694	52.23
740.874	52.88
741.055	53.92
741.236	53.39
741.417	53.89
741.597	53.98
741.778	53.82
741.958	53.49
742.139	52.65
742.32	51.82
742.5	51.9
742.681	52.57
742.861	52.09
743.042	51.59
743.222	51.96
743.403	52.01
743.583	51.8
743.764	51.33
743.944	51.31
744.124	51.48
744.305	51.96
744.485	52.28
744.666	52.08
744.846	52.73
745.026	52.58
745.207	52.92
745.387	53.99
745.567	54.61
745.747	55.4
745.928	55.2
746.108	55.62
746.288	54.79
746.468	54.24
746.648	54.46
746.829	53.89
747.009	53.41
747.189	52.42
747.369	51.1
747.549	51.38
747.729	51.27
747.909	51.54
748.089	51.75
748.269	52.11
748.449	51.97
748.629	51.59
748.809	51.58
748.989	52.49
749.169	52.73
749.349	52.11
749.529	52.62
749.709	52.03
749.889	52.03
750.068	51.98
750.248	51.22
750.428	52.37
750.608	52.82
750.788	53.84
750.967	53.27
751.147	53.19
751.327	54.64
751.507	53.77
751.686	53.85
751.866	54.02
752.046	52.98
752.225	53.49
752.405	53.59
752.585	53.85
752.764	53.09
752.944	53.42
753.123	53
753.303	53.02
753.482	53.62
753.662	54.31
753.841	54.92
754.021	55.57
754.2	55.35
754.38	55.68
754.559	55.98
754.739	54.81
754.918	54.3
755.097	54.88
755.277	54.62
755.456	54.65
755.635	54.29
755.815	54.48
755.994	54.39
756.173	54.86
756.352	54.07
756.532	53.87
756.711	54.01
756.89	54.7
757.069	54.81
757.248	54.53
757.427	53.98
757.607	53.21
757.786	52.29
757.965	51.87
758.144	51.7
758.323	50.37
758.502	49.64
758.681	49.66
758.86	49.59
759.039	48.96
759.218	48.65
759.397	48.81
759.576	49.43
759.755	49.35
759.934	49.51
760.113	49.55
760.291	50.6
760.47	50.97
760.649	51.38
760.828	50.41
761.007	50.86
761.186	51.38
761.364	51.31
761.543	50.23
761.722	50.38
761.901	50.57
762.079	50.27
762.258	50.16
762.437	49.41
762.615	49.74
762.794	49.95
762.972	49.99
763.151	50.29
763.33	50.58
763.508	51.75
763.687	51.5
763.865	50.91
764.044	50.42
764.222	50.35
764.401	51.07
764.579	51
764.758	51.26
764.936	51.11
765.114	50.69
765.293	50.54
765.471	49.81
765.65	50.17
765.828	50.05
766.006	50.46
766.184	50.53
766.363	50.64
766.541	50.43
766.719	51.03
766.898	51.03
767.076	51.07
767.254	50.3
767.432	50.15
767.61	49.66
767.788	50.24
767.967	50.8
768.145	49.7
768.323	49.35
768.501	49.31
768.679	48.04
768.857	48.6
769.035	48.43
769.213	48.91
769.391	50.05
769.569	51.4
769.747	52.04
769.925	52.4
770.103	53.1
770.281	53.03
770.459	53.36
770.636	53.68
770.814	53.5
770.992	54.09
771.17	54.88
771.348	55.11
771.525	53.41
771.703	53.01
771.881	51.76
772.059	52.31
772.236	52.36
772.414	53.49
772.592	53.74
772.769	54.31
772.947	55.43
773.125	54.32
773.302	54.16
773.48	55.15
773.657	55.03
773.835	57.73
774.013	58.98
774.19	58.93
774.368	57.19
774.545	57.14
774.723	55.12
774.9	53.97
775.077	55.18
775.255	54.2
775.432	54.89
775.61	55.97
775.787	55.52
775.964	55.65
776.142	56.75
776.319	56.47
776.496	56.17
776.674	58.11
776.851	58.96
777.028	59.53
777.205	60.1
777.382	58.59
777.56	58.66
777.737	58.52
777.914	58.09
778.091	58.01
778.268	59.02
778.445	59.48
778.622	58.34
778.8	58.68
778.977	57.62
779.154	64.74
779.331	64.34
779.508	64.3
779.685	62.71
779.862	63.59
780.038	62.55
780.215	63.31
780.392	63.12
780.569	64.7
780.746	62.26
780.923	61.34
781.1	54.71
781.277	56.44
781.453	55.39
781.63	54.36
781.807	52.24
781.984	51.74
782.16	50.72
782.337	50.39
782.514	49.78
782.691	51.08
782.867	52.21
783.044	51.12
783.221	50.48
783.397	51.63
783.574	51.81
783.75	51.87
783.927	51.67
784.103	52.18
784.28	53.43
784.456	54.28
784.633	56.28
784.809	55.53
784.986	55.98
785.162	56.88
785.339	55.32
785.515	57.18
785.692	57.99
785.868	57.91
786.044	56.89
786.221	56.39
786.397	55.58
786.573	52.77
786.749	52.75
786.926	51.9
787.102	50.71
787.278	50.73
787.454	50.52
787.631	49.8
787.807	50.47
787.983	51.64
788.159	51.03
788.335	50.68
788.511	51.19
788.687	52.56
788.863	52.82
789.039	51.95
789.216	51.32
789.392	51.51
789.568	53.38
789.744	53.31
789.919	54.22
790.095	55.03
790.271	54.94
790.447	54.33
790.623	52.32
790.799	51.81
790.975	51.95
791.151	52.8
791.327	51.51
791.502	49.98
791.678	49.34
791.854	49.35
792.03	48.96
792.205	49
792.381	48.79
792.557	49.16
792.733	51.08
792.908	49.8
793.084	50.12
793.259	50.44
793.435	51
793.611	51.59
793.786	50.63
793.962	49.03
794.137	49.58
794.313	51.26
794.488	52.65
794.664	52.57
794.839	54.05
795.015	54.77
795.19	54.94
795.366	55.3
795.541	55.03
795.716	54.57
795.892	57.97
796.067	57.41
796.242	56.66
796.418	55.43
796.593	54.16
796.768	54.3
796.944	52.97
797.119	52.3
797.294	52.97
797.469	53.07
797.644	52.82
797.82	51.63
797.995	51.39
798.17	51.37
798.345	51.91
798.52	52.78
798.695	53.58
798.87	54.38
799.045	54.15
799.22	52.04
799.395	51.36
799.57	52.25
799.745	52.42
799.92	53.47
800.095	53.06
800.27	52.13
800.445	50.85
800.62	51.21
800.795	51.09
800.97	51.57
801.145	50.33
801.319	53.17
801.494	52.24
801.669	50.92
801.844	50.71
802.018	51.56
802.193	50.03
802.368	50.07
802.543	48.98
802.717	50.07
802.892	50.59
803.067	52.42
803.241	49.52
803.416	49.9
803.59	50.78
803.765	50.65
803.94	50.77
804.114	53.59
804.289	56.63
804.463	57.13
804.638	55.82
804.812	56.93
804.986	56.56
805.161	59.9
805.335	59.47
805.51	59.37
805.684	58.86
805.858	59.19
806.033	58.64
806.207	57.21
806.381	56.81
806.556	55.47
806.73	56.18
806.904	58.11
807.078	56.79
807.253	55.84
807.427	55.53
807.601	54.99
807.775	54.2
807.949	53.72
808.123	52.58
808.298	52.72
808.472	52.95
808.646	53.15
808.82	54.3
808.994	52.58
809.168	54.38
809.342	55.21
809.516	54.83
809.69	55.19
809.864	56.74
810.038	58.14
810.212	57.24
810.385	57.68
810.559	56.19
810.733	54.14
810.907	55.56
811.081	54
811.255	52.79
811.428	53.64
811.602	52.45
811.776	52.6
811.95	51.21
812.123	52.43
812.297	53.33
812.471	53.43
812.644	52.06
812.818	50.65
812.992	49.3
813.165	49.78
813.339	48.73
813.512	52.5
813.686	51.33
813.86	53.18
814.033	52.38
814.207	52.93
814.38	52.97
814.554	52.66
814.727	51.73
814.9	52.81
815.074	54.82
815.247	57.08
815.421	51.59
815.594	51.05
815.767	48.33
815.941	47.93
816.114	48.09
816.287	48.15
816.46	48.59
816.634	52.22
816.807	54.24
816.98	52.73
817.153	51.53
817.327	53.82
817.5	55.1
817.673	57.73
817.846	56.91
818.019	55.24
818.192	56.7
818.365	55.82
818.538	54.98
818.711	53.68
818.884	54.69
819.057	53.39
819.23	54.44
819.403	51.23
819.576	52.27
819.749	56.27
819.922	57.28
820.095	55.62
820.268	56.25
820.441	54.84
820.614	53.81
820.786	53.14
820.959	53.88
821.132	51.12
821.305	52.7
821.477	52.07
821.65	50.42
821.823	50.2
821.996	50.58
822.168	50.35
822.341	50.07
822.514	50.15
822.686	49.29
822.859	48.77
823.031	49.03
823.204	48.83
823.376	48.52
823.549	47.96
823.722	47.46
823.894	47.17
824.067	47.3
824.239	47.45
824.411	47.23
824.584	47.37
824.756	47.78
824.929	47.19
825.101	47.19
825.273	46.69
825.446	47.08
825.618	46.95
825.79	46.15
825.963	46.21
826.135	45.45
826.307	46.24
826.479	46.87
826.652	47.06
826.824	48.22
826.996	47.4
827.168	48.13
827.34	48.26
827.512	49.06
827.684	49.86
827.856	49.15
828.029	49.66
828.201	49.5
828.373	48.76
828.545	47.83
828.717	48.02
828.889	49.12
829.061	48.64
829.232	48.42
829.404	46.42
829.576	46.41
829.748	46.3
829.92	45.7
830.092	44.84
830.264	45.38
830.436	46.55
830.607	44.98
830.779	45.96
830.951	46.99
831.123	46.2
831.294	49.76
831.466	51.08
831.638	52.17
831.809	52.8
831.981	53.6
832.153	54.34
832.324	53.97
832.496	55.36
832.667	54.64
832.839	54.33
833.011	54.23
833.182	53.21
833.354	51.01
833.525	51.55
833.697	53.05
833.868	52.87
834.039	51.36
834.211	49.91
834.382	50.23
834.554	48.65
834.725	48.21
834.896	49.31
835.068	50.78
835.239	51.42
835.41	49.96
835.581	48.91
835.753	48.61
835.924	49.5
836.095	51.01
836.266	51.13
836.438	51.05
836.609	51.24
836.78	49.77
836.951	47.78
837.122	48.38
837.293	50.82
837.464	51.98
837.635	50.23
837.806	51.9
837.977	50.5
838.148	48.4
838.319	50.34
838.49	50.01
838.661	51.93
838.832	53
839.003	49.9
839.174	48.55
839.345	48.67
839.516	50.07
839.687	46.7
839.857	45.6
840.028	50.92
840.199	48.79
840.37	49.51
840.54	51.75
840.711	53.73
840.882	56.55
841.053	57.08
841.223	53.12
841.394	56.14
841.564	59.77
841.735	61.33
841.906	57.07
842.076	59.66
842.247	60.05
842.417	58.84
842.588	59.1
842.758	61.8
842.929	63.33
843.099	66.57
843.27	65.74
843.44	64.12
843.611	66.93
843.781	71.79
843.951	71.68
844.122	71.71
844.292	70.56
844.462	70.84
844.633	71.35
844.803	67.09
844.973	64.41
845.144	62.5
845.314	62.35
845.484	59.75
845.654	58.59
845.824	59.89
845.995	62.16
846.165	66.7
846.335	60.68
846.505	56.54
846.675	62.37
846.845	59.82
847.015	60.79
847.185	60.95
847.355	59.78
847.525	52.62
847.695	51.74
847.865	52
848.035	48.2
848.205	52.16
848.375	46.72
848.545	33.37
848.715	40.69
848.884	39.45
849.054	43.88
849.224	50.25
849.394	55.03
849.564	50.35
849.733	42.84
849.903	49.86
850.073	51.15
850.243	57.66
850.412	66.65
850.582	55.46
850.752	55.16
850.921	47.83
851.091	43.07
851.26	43.92
851.43	48.4
851.599	47.77
851.769	39.85
851.939	36.12
852.108	34.41
852.278	30.55
852.447	31.77
852.616	37.06
852.786	32.37
852.955	29.28
853.125	28.01
853.294	27.45
853.463	37.1
853.633	42.8
853.802	43.2
853.971	43.67
854.141	51.44
854.31	62.53
854.479	57.98
854.648	67.31
854.818	69.97
854.987	70.2
855.156	64.21
855.325	48.68
855.494	52.01
855.663	55.53
855.832	53.22
856.001	55.23
856.171	49.76
856.34	52.07
856.509	44.31
856.678	42.85
856.847	40.18
857.016	42.59
857.185	52.68
857.353	46.04
857.522	48.68
857.691	50.36
857.86	53.68
858.029	59.68
858.198	62.67
858.367	69.76
858.535	73.32
858.704	72.18
858.873	74.15
859.042	65.55
859.21	63.75
859.379	62.88
859.548	66.01
859.717	60.12
859.885	55.26
860.054	55.14
860.222	49.81
860.391	55.11
860.56	58.49
860.728	58.65
860.897	66.8
861.065	70.07
861.234	64.28
861.402	65.18
861.571	74.5
861.739	80.99
861.908	80.79
862.076	81.46
862.244	66.36
862.413	69.75
862.581	67.95
862.749	65.17
862.918	61.79
863.086	66.36
863.254	63.52
863.423	59.63
863.591	62.45
863.759	63.53
863.927	71.14
864.096	74.52
864.264	69.83
864.432	68.73
864.6	73.75
864.768	71.24
864.936	63.49
865.104	66
865.272	65.11
865.44	55.75
865.608	46.98
865.776	40.09
865.944	41.66
866.112	49.13
866.28	46.01
866.448	39.62
866.616	45.72
866.784	53.91
866.952	50.65
867.12	51.7
867.288	56.44
867.455	65.24
867.623	69.81
867.791	66.28
867.959	60.27
868.127	65.26
868.294	70.39
868.462	62.47
868.63	61.87
868.797	62.82
868.965	58.53
869.133	50.71
869.3	47.18
869.468	49.46
869.636	51.53
869.803	55.28
869.971	53.78
870.138	48.26
870.306	55.04
870.473	51.02
870.641	50.58
870.808	59.23
870.975	63.32
871.143	61.71
871.31	60.89
871.478	61.7
871.645	60.42
871.812	66.86
871.98	65.3
872.147	61.9
872.314	66.69
872.482	73.01
872.649	68.24
872.816	66.94
872.983	72.61
873.15	64.85
873.318	65.83
873.485	61.06
873.652	58.89
873.819	63.18
873.986	66.59
874.153	64.24
874.32	61.75
874.487	62.16
874.654	65.79
874.821	63.58
874.988	69.28
875.155	72.24
875.322	83.05
875.489	82.16
875.656	78.22
875.823	74.51
875.99	72.66
876.157	64.74
876.324	61.28
876.49	61.41
876.657	62.39
876.824	57.51
876.991	44.67
877.157	40.79
877.324	41.69
877.491	43.26
877.658	48.67
877.824	47.74
877.991	53.35
878.157	54.6
878.324	54.82
878.491	56.63
878.657	58.02
878.824	66.83
878.99	67.15
879.157	70.64
879.323	78.24
879.49	76.7
879.656	69.85
879.823	69.09
879.989	63.53
880.156	58.99
880.322	52.84
880.488	55.2
880.655	52.32
880.821	57.67
880.987	53.09
881.154	47.97
881.32	49.95
881.486	53.43
881.652	51.99
881.819	50.32
881.985	52.38
882.151	52.75
882.317	51.12
882.483	49.36
882.649	47.38
882.816	45.32
882.982	45.46
883.148	45.25
883.314	45.44
883.48	44.62
883.646	45.65
883.812	44.41
883.978	44.87
884.144	45.58
884.31	46.42
884.476	47.23
884.642	49.42
884.807	49.54
884.973	48.41
885.139	48.14
885.305	48.55
885.471	48.42
885.637	48.62
885.802	48.63
885.968	49.02
886.134	49.55
886.3	46.74
886.465	44.04
886.631	44.91
886.797	44.64
886.962	46.19
887.128	47.36
887.293	50.25
887.459	49.7
887.625	52.56
887.79	53.82
887.956	56.47
888.121	61.18
888.287	67.81
888.452	68.66
888.618	74.18
888.783	72.71
