Data from LC_265_Reflection_2.txt Node
Date: Sat Nov 21 11:51:23 EST 2015
User: robert
Spectrometer: USB4E03001
Autoset integration time: false
Trigger mode: 4
Integration Time (sec): 1.000000E-1
Scans to average: 15
Electric dark correction enabled: true
Nonlinearity correction enabled: false
Boxcar width: 5
Stray light correction enabled: false
XAxis mode: Wavelengths
Stop averaging: false
Number of Pixels in Spectrum: 3648
>>>>>Begin Spectral Data<<<<<
177.566	225.34
177.785	236.93
178.005	743.9
178.225	-194.17
178.445	-590.59
178.665	-1290.59
178.885	300
179.105	-126.77
179.324	-19.49
179.544	-49.6
179.764	372.51
179.984	49.34
180.204	46.77
180.423	17.91
180.643	34.52
180.863	50.66
181.083	68.51
181.302	97.37
181.522	126.35
181.742	106.41
181.961	100.96
182.181	72.55
182.401	101.81
182.621	100.57
182.84	128.06
183.06	104.3
183.279	86.25
183.499	79.98
183.719	68.16
183.938	72.21
184.158	93.52
184.377	78.62
184.597	93.36
184.816	87.34
185.036	96.32
185.256	105.95
185.475	87.74
185.695	82.21
185.914	81.99
186.134	82.32
186.353	79.38
186.572	84.41
186.792	72.04
187.011	76.82
187.231	86.78
187.45	85.38
187.67	75.38
187.889	103.73
188.108	173.06
188.328	205.58
188.547	229.18
188.766	222.81
188.986	225.33
189.205	420.98
189.424	418.86
189.644	213.88
189.863	85.44
190.082	-39.93
190.302	-106.76
190.521	-58.94
190.74	2.86
190.959	31.9
191.178	57.24
191.398	48.29
191.617	63.48
191.836	89.78
192.055	113.03
192.274	73.27
192.494	78.02
192.713	74.98
192.932	104.17
193.151	81.74
193.37	61.82
193.589	52.09
193.808	75.29
194.027	67.34
194.246	74.06
194.465	66.38
194.685	93.24
194.904	60.43
195.123	74.82
195.342	70.38
195.561	78.54
195.78	62.28
195.999	73.8
196.218	70.28
196.436	121.54
196.655	81.98
196.874	60.54
197.093	69.75
197.312	98.91
197.531	102.81
197.75	93.24
197.969	83.93
198.188	99.1
198.407	87.36
198.625	63.54
198.844	45.72
199.063	63
199.282	64.27
199.501	72.08
199.719	81.01
199.938	80.35
200.157	70.51
200.376	77.05
200.594	79.31
200.813	89.17
201.032	99.25
201.251	80.03
201.469	74.49
201.688	98.06
201.907	75.33
202.125	72.76
202.344	67.3
202.563	79.01
202.781	86.66
203	88.96
203.218	69.4
203.437	143.18
203.656	251.59
203.874	212.3
204.093	77.06
204.311	68.27
204.53	62.31
204.748	22.91
204.967	75.25
205.185	36.5
205.404	40.43
205.622	80.82
205.841	8.1
206.059	37.16
206.278	8.3
206.496	-14.07
206.715	-6.81
206.933	92.36
207.151	122.94
207.37	53.92
207.588	91.09
207.806	101.9
208.025	66.11
208.243	71.03
208.461	77.91
208.68	123.63
208.898	175.14
209.116	145.44
209.335	129.61
209.553	147.53
209.771	163.36
209.989	159.02
210.208	187.2
210.426	251.04
210.644	264.09
210.862	268.13
211.081	115.05
211.299	80.7
211.517	91.67
211.735	93.03
211.953	91.29
212.171	94.29
212.39	82.67
212.608	63.08
212.826	68.83
213.044	64.87
213.262	72.39
213.48	83.87
213.698	83.58
213.916	75.28
214.134	68.86
214.352	68.2
214.57	66.62
214.788	68.36
215.006	77.89
215.224	66.28
215.442	78.05
215.66	100.9
215.878	109.93
216.096	138.86
216.314	133.99
216.532	142.37
216.75	126.27
216.968	137.43
217.185	115.37
217.403	103.54
217.621	110.09
217.839	101.93
218.057	110.18
218.275	74.44
218.492	61.7
218.71	42.33
218.928	33.19
219.146	35.92
219.363	39.31
219.581	91.33
219.799	84.81
220.017	65.72
220.234	84.76
220.452	59.66
220.67	75.67
220.887	70.51
221.105	94.75
221.323	113.47
221.54	97.46
221.758	93.91
221.976	65.69
222.193	84.91
222.411	67.19
222.629	37.37
222.846	30.47
223.064	28.72
223.281	33.32
223.499	-0.58
223.716	14.49
223.934	23.85
224.151	20.93
224.369	7.3
224.586	-3.62
224.804	9.86
225.021	20.94
225.239	34.32
225.456	32.08
225.674	34.1
225.891	40.39
226.108	35.04
226.326	36.85
226.543	35.01
226.76	31.61
226.978	28.62
227.195	27.19
227.413	25.15
227.63	24.4
227.847	25.73
228.064	25.83
228.282	26.17
228.499	23.78
228.716	20.47
228.934	19.29
229.151	21.08
229.368	22.58
229.585	23.1
229.802	23.51
230.02	22.96
230.237	21.78
230.454	21.49
230.671	20.55
230.888	21.83
231.105	20.31
231.323	21.72
231.54	23.95
231.757	25.05
231.974	27.13
232.191	23.13
232.408	24.86
232.625	25.6
232.842	24.93
233.059	27.61
233.276	32.19
233.493	38.29
233.71	38.15
233.927	34.8
234.144	33.8
234.361	33.23
234.578	36.46
234.795	37.44
235.012	39.09
235.229	39.92
235.446	37.23
235.663	34.71
235.879	32.95
236.096	32.71
236.313	35.97
236.53	37.01
236.747	33.36
236.964	29.18
237.181	29.77
237.397	25.63
237.614	23.61
237.831	24.01
238.048	26.27
238.264	22.25
238.481	17.49
238.698	17.05
238.915	13.44
239.131	12.06
239.348	19.32
239.565	15.25
239.781	17.68
239.998	18.5
240.215	14.96
240.431	8.29
240.648	10.69
240.865	12.68
241.081	9.53
241.298	12.32
241.514	15.3
241.731	12.89
241.947	13.54
242.164	14.63
242.38	14.14
242.597	16.38
242.814	16.71
243.03	17.1
243.246	16.65
243.463	17.31
243.679	18.32
243.896	18.47
244.112	21.5
244.329	22.93
244.545	20.68
244.762	21.04
244.978	19.21
245.194	18.37
245.411	18.32
245.627	18
245.843	17.31
246.06	15.39
246.276	14.44
246.492	12.66
246.709	11.4
246.925	11.59
247.141	11.89
247.357	11.68
247.574	11.57
247.79	11.2
248.006	11.58
248.222	11.02
248.439	11.92
248.655	12.24
248.871	12.58
249.087	13.27
249.303	14.11
249.519	13.48
249.736	14.97
249.952	16.59
250.168	17.74
250.384	18.47
250.6	20.55
250.816	19.05
251.032	18.32
251.248	17.22
251.464	17.05
251.68	17.82
251.896	18.86
252.112	19.21
252.328	17.98
252.544	17.72
252.76	18.57
252.976	19.83
253.192	20.16
253.408	21.1
253.624	21.55
253.84	22.13
254.056	21.75
254.272	20.62
254.487	19.56
254.703	19.36
254.919	21.41
255.135	20.54
255.351	20.03
255.567	20.02
255.782	18.66
255.998	18.61
256.214	16.77
256.43	17.83
256.646	19.82
256.861	18.27
257.077	19.62
257.293	18.92
257.508	16.93
257.724	15.4
257.94	16.43
258.155	15.73
258.371	16.6
258.587	15.16
258.802	13.83
259.018	12.71
259.234	12.84
259.449	12.14
259.665	11.28
259.88	11.89
260.096	11.92
260.312	11.67
260.527	11.54
260.743	11.28
260.958	11.51
261.174	11.05
261.389	11.36
261.605	11.29
261.82	11.56
262.036	12.28
262.251	12.21
262.466	11.84
262.682	10.7
262.897	10.8
263.113	10.85
263.328	12.51
263.543	13.75
263.759	14.3
263.974	15.89
264.189	16.57
264.405	16.67
264.62	17.93
264.835	17.48
265.051	17.85
265.266	18.38
265.481	16.75
265.696	16.98
265.912	14.99
266.127	13.25
266.342	12.87
266.557	12.73
266.773	11.6
266.988	10.82
267.203	10.57
267.418	10.35
267.633	10.68
267.848	9.69
268.064	8.74
268.279	10.66
268.494	11.12
268.709	10.53
268.924	9.89
269.139	9.83
269.354	8.66
269.569	9.4
269.784	10.41
269.999	9.14
270.214	10.86
270.429	10.98
270.644	9.46
270.859	9.05
271.074	8.97
271.289	8.54
271.504	8.07
271.719	8.3
271.934	9.01
272.149	8.51
272.363	9.14
272.578	8.31
272.793	7.88
273.008	9.78
273.223	10.05
273.438	10.45
273.653	12.68
273.867	13.85
274.082	15.04
274.297	13.89
274.512	13.61
274.726	14.17
274.941	15.32
275.156	16.2
275.371	13.77
275.585	13.8
275.8	12.68
276.015	10.92
276.229	9.83
276.444	8.35
276.659	8.77
276.873	8.88
277.088	8.94
277.302	8.63
277.517	7.98
277.732	8.4
277.946	8.97
278.161	8.86
278.375	7.88
278.59	8.39
278.804	8.77
279.019	9.15
279.233	9.59
279.448	7.7
279.662	7.37
279.877	6.5
280.091	7.62
280.306	6.27
280.52	6.67
280.735	8.85
280.949	8.19
281.163	8.13
281.378	7.35
281.592	7.05
281.806	8.43
282.021	8.31
282.235	8.83
282.449	8.44
282.664	8.91
282.878	9.25
283.092	9.29
283.307	10.06
283.521	10.14
283.735	10.56
283.949	10.65
284.164	9.27
284.378	8.85
284.592	8.73
284.806	10.31
285.02	10.88
285.234	10.54
285.449	9.44
285.663	9.08
285.877	9.35
286.091	9.6
286.305	9.31
286.519	10.24
286.733	11.22
286.947	11.88
287.161	11.18
287.375	10.58
287.589	11.93
287.803	12.41
288.017	13.13
288.231	12.51
288.445	12.62
288.659	12.74
288.873	13.02
289.087	12.26
289.301	11.93
289.515	11.3
289.729	12.24
289.943	10.48
290.157	9.97
290.371	9.24
290.584	10.32
290.798	9.73
291.012	10.25
291.226	9.93
291.44	9.36
291.654	10.2
291.867	10.92
292.081	10.62
292.295	12.17
292.509	13.32
292.722	14.07
292.936	13.43
293.15	14.19
293.364	14.44
293.577	14.26
293.791	15.37
294.005	13.96
294.218	14.17
294.432	13.58
294.645	12.96
294.859	12.26
295.073	11.83
295.286	11.38
295.5	11.46
295.713	10.07
295.927	9.7
296.14	10.22
296.354	10.45
296.568	10.01
296.781	10.11
296.994	10.36
297.208	10
297.421	10.9
297.635	10.79
297.848	10.87
298.062	11.68
298.275	12.51
298.489	11.79
298.702	12.5
298.915	12.54
299.129	12.11
299.342	11.61
299.555	11.85
299.769	11.75
299.982	12.45
300.195	12.17
300.409	12.61
300.622	12.03
300.835	12.46
301.048	12.26
301.262	11.69
301.475	12.72
301.688	12.85
301.901	13.09
302.115	12.22
302.328	12.12
302.541	11.73
302.754	10.93
302.967	11.23
303.18	11.01
303.393	10.41
303.607	10.33
303.82	10.78
304.033	9.95
304.246	11.13
304.459	11.37
304.672	12.01
304.885	12.99
305.098	14.17
305.311	14.26
305.524	14.03
305.737	14.08
305.95	13.97
306.163	13.21
306.376	13.59
306.589	12.12
306.802	11.59
307.015	9.59
307.228	9.4
307.44	8.78
307.653	9.11
307.866	10.42
308.079	10.8
308.292	10.67
308.505	10.89
308.718	12.11
308.93	12.14
309.143	11.65
309.356	12.94
309.569	12.13
309.781	11.96
309.994	11.49
310.207	10.94
310.42	10.34
310.632	10.21
310.845	9.85
311.058	9.33
311.27	9.46
311.483	10.98
311.696	10.35
311.908	10.34
312.121	9.94
312.333	10.09
312.546	10.17
312.759	10.28
312.971	11.06
313.184	11.74
313.396	11.45
313.609	10.64
313.821	9.54
314.034	11.4
314.246	12.17
314.459	12.56
314.671	12.69
314.884	11.8
315.096	12.3
315.309	11.36
315.521	10.97
315.733	12.07
315.946	13.55
316.158	12.3
316.371	11.23
316.583	11.41
316.795	11.46
317.008	12.1
317.22	13.02
317.432	12.29
317.644	13.3
317.857	13.9
318.069	11.93
318.281	11.56
318.494	12.88
318.706	13.05
318.918	12.51
319.13	11.66
319.342	10.64
319.555	10.14
319.767	10.39
319.979	9.56
320.191	10.65
320.403	12.12
320.615	12.14
320.827	12.22
321.039	11.55
321.252	11.33
321.464	11.45
321.676	11.31
321.888	11.81
322.1	11.83
322.312	13.07
322.524	10.88
322.736	10.28
322.948	11.49
323.16	11.1
323.372	11.73
323.584	11.76
323.796	12.46
324.007	12.86
324.219	12.3
324.431	12.6
324.643	12.51
324.855	12.65
325.067	13.24
325.279	12.04
325.491	12.39
325.702	12.15
325.914	12.75
326.126	12.19
326.338	10.74
326.55	10.66
326.761	10.49
326.973	10.56
327.185	10.71
327.396	10.59
327.608	10.43
327.82	10.28
328.032	9.6
328.243	8.16
328.455	7.66
328.666	8.28
328.878	9.32
329.09	9.29
329.301	9.1
329.513	8.82
329.725	9.2
329.936	10.39
330.148	9.61
330.359	10.77
330.571	11.68
330.782	12.48
330.994	12.67
331.205	11.72
331.417	11.27
331.628	12.02
331.84	12.37
332.051	12.22
332.262	11.78
332.474	12.95
332.685	12.39
332.897	12.61
333.108	12.19
333.319	13.64
333.531	14.17
333.742	14.97
333.953	13.74
334.165	13.71
334.376	13.11
334.587	13.03
334.799	13.37
335.01	13.59
335.221	14.43
335.432	14.76
335.644	14.23
335.855	14.52
336.066	14.18
336.277	14.78
336.488	14.77
336.7	14.29
336.911	14.4
337.122	13.93
337.333	14.4
337.544	14.09
337.755	13.97
337.966	13.9
338.177	13.92
338.388	13.9
338.599	13.46
338.811	14.28
339.022	14.73
339.233	13.53
339.444	13.81
339.655	13.4
339.866	13.19
340.076	13.53
340.287	13.35
340.498	13.81
340.709	14.53
340.92	15.06
341.131	15.09
341.342	15.13
341.553	15.97
341.764	15.65
341.975	15.39
342.185	14.83
342.396	14.81
342.607	15.07
342.818	14.48
343.029	14.66
343.239	14.87
343.45	13.23
343.661	13.84
343.872	13.22
344.082	13.78
344.293	13.88
344.504	13.62
344.714	13.78
344.925	13.24
345.136	12.94
345.346	12.17
345.557	11.59
345.768	12.18
345.978	11.17
346.189	11.57
346.399	10.82
346.61	11.37
346.821	11.67
347.031	10.92
347.242	11.05
347.452	10.68
347.663	10.79
347.873	10.78
348.084	11.55
348.294	12.32
348.504	12.26
348.715	12.43
348.925	11.93
349.136	12.05
349.346	12.47
349.557	12.61
349.767	13.33
349.977	13.5
350.188	13.5
350.398	13.01
350.608	12.61
350.819	13.4
351.029	13.12
351.239	12.6
351.449	13.24
351.66	13.86
351.87	14.3
352.08	14.1
352.29	13.85
352.501	13.63
352.711	13.86
352.921	13.77
353.131	13.32
353.341	13.5
353.552	13.54
353.762	12.66
353.972	12.56
354.182	12.36
354.392	12.83
354.602	13.09
354.812	13.64
355.022	13.11
355.232	12.75
355.442	12.37
355.652	12.49
355.862	12.97
356.072	12.7
356.282	11.86
356.492	11.65
356.702	10.87
356.912	10.6
357.122	10.29
357.332	9.97
357.542	10.01
357.752	10.47
357.962	10.41
358.171	10.36
358.381	11.07
358.591	11.5
358.801	11.64
359.011	11.75
359.221	11.52
359.43	11.63
359.64	12.04
359.85	12.24
360.06	11.95
360.269	12.61
360.479	12.36
360.689	11.52
360.899	11.58
361.108	11.55
361.318	11.65
361.528	12
361.737	11.93
361.947	11.79
362.156	11.97
362.366	12.48
362.576	11.82
362.785	11.66
362.995	12.63
363.204	12.61
363.414	11.91
363.623	11.94
363.833	11.48
364.042	11.63
364.252	11.73
364.461	11.35
364.671	10.79
364.88	10.83
365.09	10.42
365.299	9.93
365.509	9.82
365.718	10.33
365.927	11.08
366.137	10.65
366.346	11.17
366.555	11.2
366.765	12.02
366.974	12.07
367.183	12.08
367.393	12.86
367.602	12.91
367.811	12.76
368.021	12.94
368.23	12.38
368.439	12.85
368.648	12
368.857	11.83
369.067	10.85
369.276	10.92
369.485	11.2
369.694	10.68
369.903	10.23
370.112	10.05
370.321	9.93
370.531	9.37
370.74	9.56
370.949	9.19
371.158	9.61
371.367	9.97
371.576	9.66
371.785	9.47
371.994	9.44
372.203	9.73
372.412	10.11
372.621	9.82
372.83	9.64
373.039	9.48
373.248	9.45
373.457	9.08
373.666	9.01
373.874	8.91
374.083	9.13
374.292	9.45
374.501	9.54
374.71	9.18
374.919	9.27
375.128	9.86
375.336	9.8
375.545	10.41
375.754	10.4
375.963	10.32
376.171	10.33
376.38	10.01
376.589	9.65
376.798	9.13
377.006	9.31
377.215	9.42
377.424	9.47
377.632	9.61
377.841	9.23
378.05	9.16
378.258	9.14
378.467	9.33
378.675	9.04
378.884	9.01
379.093	9.21
379.301	9.34
379.51	9.27
379.718	9.13
379.927	9.25
380.135	9.45
380.344	9.75
380.552	9.2
380.761	9.13
380.969	9.76
381.177	9.96
381.386	9.56
381.594	9.41
381.803	9.14
382.011	9.07
382.219	8.92
382.428	8.5
382.636	8.32
382.845	8.75
383.053	8.59
383.261	8.38
383.469	8.22
383.678	8.52
383.886	8.39
384.094	8.51
384.302	8.05
384.511	8.13
384.719	8.33
384.927	8.56
385.135	8.7
385.343	8.71
385.552	8.47
385.76	8.98
385.968	9.21
386.176	9.44
386.384	9.47
386.592	9.6
386.8	9.31
387.008	9.52
387.216	9.39
387.424	9.2
387.633	8.95
387.841	8.88
388.049	8.44
388.257	8.34
388.465	8.06
388.672	8.01
388.88	7.88
389.088	8.03
389.296	7.77
389.504	7.42
389.712	7.23
389.92	7.42
390.128	7.53
390.336	7.66
390.544	7.76
390.751	7.83
390.959	7.8
391.167	7.96
391.375	7.72
391.583	7.64
391.79	7.6
391.998	7.65
392.206	8
392.414	7.54
392.621	7.23
392.829	7
393.037	6.9
393.244	6.93
393.452	6.81
393.66	7.05
393.867	7.21
394.075	7.66
394.283	7.67
394.49	7.42
394.698	7.82
394.905	8.02
395.113	8.1
395.32	8.08
395.528	7.87
395.735	8.02
395.943	7.97
396.15	8.18
396.358	7.72
396.565	7.82
396.773	8.02
396.98	8.12
397.188	8.1
397.395	8
397.602	8.37
397.81	8.51
398.017	8.23
398.225	8
398.432	7.91
398.639	7.89
398.847	7.96
399.054	7.73
399.261	7.59
399.468	7.76
399.676	8.01
399.883	7.84
400.09	7.97
400.297	8.4
400.505	8.26
400.712	7.84
400.919	7.85
401.126	7.89
401.333	7.64
401.54	7.46
401.748	7.21
401.955	6.98
402.162	6.77
402.369	6.67
402.576	6.26
402.783	6.53
402.99	6.51
403.197	6.63
403.404	6.8
403.611	6.87
403.818	6.95
404.025	6.73
404.232	6.72
404.439	6.78
404.646	6.81
404.853	7.03
405.06	7.15
405.267	7.56
405.474	7.63
405.681	7.42
405.887	7.18
406.094	7.37
406.301	7.31
406.508	7.34
406.715	7.19
406.922	7.17
407.128	7.08
407.335	6.9
407.542	6.68
407.749	6.58
407.955	6.31
408.162	6.62
408.369	6.58
408.575	7.11
408.782	7.19
408.989	7.28
409.195	7.34
409.402	7.55
409.609	7.44
409.815	7.28
410.022	7.24
410.228	7.57
410.435	7.46
410.642	7.3
410.848	7.1
411.055	7.07
411.261	6.94
411.468	6.98
411.674	6.61
411.881	6.71
412.087	6.83
412.294	7.13
412.5	7.1
412.706	7.09
412.913	7.02
413.119	7.09
413.326	7.23
413.532	7.4
413.738	7.43
413.945	7.85
414.151	7.87
414.357	7.75
414.564	7.74
414.77	7.79
414.976	7.92
415.182	7.84
415.389	7.9
415.595	7.72
415.801	7.74
416.007	7.43
416.214	7.25
416.42	7.17
416.626	7.26
416.832	6.93
417.038	6.97
417.244	6.93
417.45	7.11
417.657	7.11
417.863	7.05
418.069	7.02
418.275	7.15
418.481	7.05
418.687	6.95
418.893	6.82
419.099	6.75
419.305	6.58
419.511	6.68
419.717	6.63
419.923	6.51
420.129	6.51
420.335	6.47
420.541	6.34
420.746	6.16
420.952	6.32
421.158	6.44
421.364	6.64
421.57	6.62
421.776	6.51
421.982	6.45
422.187	6.54
422.393	6.46
422.599	6.38
422.805	6.56
423.01	6.74
423.216	6.73
423.422	6.64
423.628	6.56
423.833	6.62
424.039	6.63
424.245	6.54
424.45	6.59
424.656	6.63
424.862	6.81
425.067	6.79
425.273	6.75
425.478	6.76
425.684	6.89
425.889	6.86
426.095	6.78
426.301	6.87
426.506	6.98
426.712	6.82
426.917	6.83
427.123	6.81
427.328	6.75
427.533	6.89
427.739	6.72
427.944	6.78
428.15	6.73
428.355	7
428.561	6.87
428.766	6.87
428.971	6.79
429.177	7.03
429.382	6.99
429.587	6.78
429.793	6.73
429.998	6.9
430.203	6.7
430.408	6.78
430.614	6.37
430.819	6.32
431.024	6.38
431.229	6.35
431.434	6.05
431.64	5.91
431.845	6.1
432.05	5.97
432.255	6
432.46	5.98
432.665	5.8
432.87	5.87
433.076	5.94
433.281	5.87
433.486	5.85
433.691	5.94
433.896	5.87
434.101	5.84
434.306	5.88
434.511	5.68
434.716	5.64
434.921	5.68
435.126	5.86
435.331	5.99
435.535	6.16
435.74	6.13
435.945	6.11
436.15	6.12
436.355	6.19
436.56	6.33
436.765	6.54
436.97	6.55
437.174	6.64
437.379	6.64
437.584	6.51
437.789	6.46
437.993	6.65
438.198	6.4
438.403	6.42
438.608	6.45
438.812	6.29
439.017	6.24
439.222	6.17
439.426	6.11
439.631	6.03
439.836	5.99
440.04	5.96
440.245	5.96
440.45	6.17
440.654	6.23
440.859	6.15
441.063	6.21
441.268	6.21
441.472	6.28
441.677	6.34
441.881	6.45
442.086	6.33
442.29	6.32
442.495	6.21
442.699	6.34
442.904	6.28
443.108	6.16
443.312	6.03
443.517	6.04
443.721	6.15
443.925	6.08
444.13	5.9
444.334	6.14
444.538	5.95
444.743	6.01
444.947	5.85
445.151	5.81
445.356	5.84
445.56	5.92
445.764	5.71
445.968	5.6
446.173	5.65
446.377	5.74
446.581	5.67
446.785	5.76
446.989	5.73
447.193	5.76
447.398	5.8
447.602	5.87
447.806	5.81
448.01	5.97
448.214	6
448.418	5.91
448.622	5.84
448.826	5.75
449.03	5.83
449.234	5.75
449.438	5.68
449.642	5.62
449.846	5.64
450.05	5.8
450.254	5.84
450.458	5.61
450.662	5.93
450.866	5.94
451.069	6.04
451.273	5.9
451.477	5.96
451.681	5.96
451.885	6.05
452.089	5.95
452.292	5.91
452.496	5.91
452.7	6.13
452.904	5.71
453.107	5.67
453.311	5.59
453.515	5.53
453.719	5.55
453.922	5.69
454.126	5.57
454.33	5.81
454.533	5.71
454.737	5.62
454.94	5.73
455.144	6.06
455.348	6.09
455.551	6.15
455.755	6.41
455.958	6.46
456.162	6.39
456.365	6.5
456.569	6.44
456.772	6.4
456.976	6.37
457.179	6.43
457.383	6.23
457.586	6.19
457.79	6.19
457.993	6.01
458.196	6.02
458.4	6
458.603	5.99
458.807	5.85
459.01	6.01
459.213	5.93
459.417	5.8
459.62	5.83
459.823	5.77
460.026	5.75
460.23	5.72
460.433	5.66
460.636	5.6
460.839	5.56
461.042	5.65
461.246	5.45
461.449	5.57
461.652	5.57
461.855	5.55
462.058	5.67
462.261	5.58
462.464	5.6
462.668	5.62
462.871	5.71
463.074	5.7
463.277	5.75
463.48	5.89
463.683	5.93
463.886	5.95
464.089	5.96
464.292	5.91
464.495	5.88
464.698	5.86
464.901	5.96
465.104	6.18
465.306	6.26
465.509	6.01
465.712	6.01
465.915	5.9
466.118	5.89
466.321	5.84
466.524	5.83
466.726	5.86
466.929	5.92
467.132	5.87
467.335	5.61
467.538	5.58
467.74	5.64
467.943	5.77
468.146	5.73
468.348	5.79
468.551	5.94
468.754	6.02
468.956	6.27
469.159	6.26
469.362	6.39
469.564	6.3
469.767	6.31
469.969	6.37
470.172	6.31
470.375	6.36
470.577	6.34
470.78	6.16
470.982	6.18
471.185	6
471.387	6.08
471.59	5.81
471.792	6
471.995	6.12
472.197	6.16
472.399	6.16
472.602	6.01
472.804	5.83
473.007	5.9
473.209	5.92
473.411	5.97
473.614	5.98
473.816	5.9
474.018	5.71
474.22	5.63
474.423	5.64
474.625	5.53
474.827	5.78
475.03	5.98
475.232	6.09
475.434	6.02
475.636	5.85
475.838	5.79
476.04	5.94
476.243	6.03
476.445	5.99
476.647	5.98
476.849	5.95
477.051	5.78
477.253	5.74
477.455	5.56
477.657	5.41
477.859	5.49
478.061	5.41
478.263	5.39
478.465	5.38
478.667	5.29
478.869	5.22
479.071	5.25
479.273	5.33
479.475	5.29
479.677	5.29
479.879	5.43
480.081	5.46
480.283	5.62
480.485	5.69
480.686	5.64
480.888	5.74
481.09	5.75
481.292	5.78
481.494	5.72
481.695	5.64
481.897	5.7
482.099	5.63
482.301	5.59
482.502	5.52
482.704	5.5
482.906	5.57
483.107	5.56
483.309	5.53
483.511	5.48
483.712	5.44
483.914	5.47
484.115	5.4
484.317	5.4
484.519	5.44
484.72	5.41
484.922	5.38
485.123	5.35
485.325	5.34
485.526	5.34
485.728	5.38
485.929	5.44
486.131	5.42
486.332	5.48
486.534	5.5
486.735	5.45
486.936	5.48
487.138	5.49
487.339	5.51
487.541	5.49
487.742	5.51
487.943	5.51
488.144	5.5
488.346	5.48
488.547	5.46
488.748	5.43
488.95	5.45
489.151	5.41
489.352	5.42
489.553	5.34
489.755	5.4
489.956	5.38
490.157	5.32
490.358	5.31
490.559	5.35
490.76	5.42
490.961	5.46
491.163	5.49
491.364	5.54
491.565	5.52
491.766	5.57
491.967	5.6
492.168	5.59
492.369	5.52
492.57	5.56
492.771	5.53
492.972	5.52
493.173	5.5
493.374	5.43
493.575	5.38
493.776	5.46
493.976	5.45
494.177	5.34
494.378	5.31
494.579	5.64
494.78	5.6
494.981	5.66
495.182	5.64
495.382	5.66
495.583	5.7
495.784	5.74
495.985	5.72
496.185	5.77
496.386	5.74
496.587	5.78
496.788	5.62
496.988	5.55
497.189	5.51
497.39	5.46
497.59	5.49
497.791	5.54
497.992	5.55
498.192	5.64
498.393	5.71
498.593	5.81
498.794	5.87
498.994	5.9
499.195	5.89
499.395	6.01
499.596	6.2
499.796	6.26
499.997	6.35
500.197	6.46
500.398	6.31
500.598	6.26
500.799	6.21
500.999	6.24
501.199	6.26
501.4	6.39
501.6	6.34
501.801	6.43
502.001	6.49
502.201	6.38
502.402	6.28
502.602	6.31
502.802	6.35
503.002	6.43
503.203	6.45
503.403	6.32
503.603	6.46
503.803	6.47
504.003	6.36
504.204	6.37
504.404	6.56
504.604	6.56
504.804	6.63
505.004	6.56
505.204	6.67
505.404	6.58
505.604	6.73
505.804	6.59
506.005	6.68
506.205	6.74
506.405	6.7
506.605	6.58
506.805	6.76
507.005	6.63
507.204	6.76
507.404	6.64
507.604	6.74
507.804	6.66
508.004	6.73
508.204	6.77
508.404	6.62
508.604	6.58
508.804	6.64
509.003	6.7
509.203	6.89
509.403	6.91
509.603	7
509.803	6.97
510.002	6.98
510.202	7.03
510.402	6.97
510.602	6.93
510.801	6.93
511.001	6.96
511.201	6.84
511.4	6.73
511.6	6.52
511.8	6.51
511.999	6.52
512.199	6.62
512.398	6.65
512.598	6.82
512.797	7.01
512.997	7.04
513.197	6.91
513.396	7.01
513.596	7.14
513.795	7.32
513.994	7.34
514.194	7.49
514.393	7.47
514.593	7.45
514.792	7.23
514.992	7.26
515.191	7.34
515.39	7.48
515.59	7.6
515.789	7.54
515.988	7.51
516.188	7.61
516.387	7.66
516.586	7.74
516.786	7.75
516.985	7.81
517.184	7.76
517.383	7.84
517.582	7.86
517.782	7.83
517.981	7.99
518.18	8.04
518.379	8.03
518.578	7.95
518.777	7.97
518.976	7.97
519.176	8.03
519.375	8.11
519.574	8.09
519.773	8.14
519.972	8.04
520.171	7.96
520.37	8
520.569	8.08
520.768	8.31
520.967	8.3
521.166	8.28
521.365	8.38
521.564	8.36
521.762	8.32
521.961	8.29
522.16	8.41
522.359	8.37
522.558	8.41
522.757	8.32
522.956	8.24
523.154	8.39
523.353	8.49
523.552	8.53
523.751	8.7
523.949	8.89
524.148	9
524.347	9.12
524.546	9.12
524.744	9.06
524.943	9.18
525.142	9.16
525.34	9.1
525.539	9.09
525.737	9.09
525.936	9.1
526.135	9.04
526.333	9.02
526.532	8.95
526.73	9.03
526.929	9.11
527.127	9.06
527.326	9.05
527.524	9.06
527.723	9.09
527.921	9.07
528.12	9.1
528.318	9.08
528.516	9.04
528.715	9.08
528.913	9.07
529.112	9.12
529.31	9.12
529.508	9.16
529.707	9.21
529.905	9.27
530.103	9.33
530.301	9.38
530.5	9.47
530.698	9.56
530.896	9.65
531.094	9.7
531.293	9.73
531.491	9.79
531.689	9.83
531.887	9.9
532.085	9.86
532.283	9.87
532.481	9.83
532.68	9.89
532.878	9.99
533.076	9.99
533.274	10.05
533.472	10.09
533.67	10.1
533.868	10.14
534.066	10.14
534.264	10.19
534.462	10.28
534.66	10.39
534.858	10.36
535.056	10.38
535.253	10.42
535.451	10.52
535.649	10.47
535.847	10.53
536.045	10.66
536.243	10.75
536.441	10.8
536.638	10.82
536.836	10.75
537.034	10.73
537.232	10.77
537.43	10.85
537.627	10.78
537.825	10.85
538.023	10.96
538.22	10.92
538.418	10.87
538.616	10.95
538.813	10.98
539.011	11.13
539.209	11.25
539.406	11.33
539.604	11.45
539.801	11.55
539.999	11.68
540.196	11.71
540.394	11.64
540.591	11.72
540.789	11.69
540.986	11.73
541.184	11.72
541.381	11.69
541.579	11.63
541.776	11.55
541.974	11.55
542.171	11.56
542.368	11.6
542.566	11.7
542.763	11.64
542.96	11.73
543.158	11.73
543.355	11.79
543.552	11.97
543.75	12.09
543.947	12.22
544.144	12.39
544.341	12.43
544.539	12.41
544.736	12.5
544.933	12.6
545.13	12.64
545.327	12.74
545.524	12.77
545.722	12.74
545.919	12.79
546.116	12.84
546.313	12.83
546.51	12.87
546.707	12.99
546.904	13.01
547.101	13.25
547.298	13.33
547.495	13.33
547.692	13.35
547.889	13.36
548.086	13.44
548.283	13.52
548.48	13.61
548.677	13.69
548.874	13.72
549.07	13.84
549.267	13.76
549.464	13.78
549.661	13.8
549.858	13.92
550.055	14.08
550.251	14.04
550.448	13.94
550.645	14.07
550.842	13.97
551.038	14.14
551.235	14.16
551.432	14.27
551.628	14.35
551.825	14.5
552.022	14.65
552.218	14.71
552.415	14.95
552.612	15.1
552.808	15.05
553.005	15.15
553.201	15.03
553.398	15.04
553.594	15
553.791	15.22
553.987	15.24
554.184	15.12
554.38	15.33
554.577	15.21
554.773	15.26
554.97	15.36
555.166	15.58
555.362	15.67
555.559	15.78
555.755	15.9
555.952	15.74
556.148	15.88
556.344	16.11
556.541	16.13
556.737	16.12
556.933	16.23
557.129	16.31
557.326	16.45
557.522	16.67
557.718	16.79
557.914	16.83
558.11	17.02
558.307	17.04
558.503	17.1
558.699	17.08
558.895	17.23
559.091	17.23
559.287	17.24
559.483	17.14
559.679	17.29
559.876	17.37
560.072	17.42
560.268	17.44
560.464	17.5
560.66	17.72
560.856	17.78
561.052	17.98
561.247	18.25
561.443	18.46
561.639	18.69
561.835	18.6
562.031	18.44
562.227	18.48
562.423	18.51
562.619	18.73
562.815	18.73
563.01	18.74
563.206	18.75
563.402	18.58
563.598	18.52
563.793	18.57
563.989	18.71
564.185	19.06
564.381	19.22
564.576	19.45
564.772	19.43
564.968	19.55
565.163	19.6
565.359	19.56
565.555	19.51
565.75	19.57
565.946	19.6
566.141	19.67
566.337	19.57
566.532	19.52
566.728	19.37
566.923	19.46
567.119	19.41
567.314	19.57
567.51	19.71
567.705	20.03
567.901	20.04
568.096	20.17
568.292	20.34
568.487	20.43
568.682	20.7
568.878	20.89
569.073	20.9
569.268	21
569.464	21.05
569.659	21.15
569.854	21.33
570.05	21.48
570.245	21.47
570.44	21.52
570.635	21.61
570.831	21.65
571.026	21.85
571.221	21.96
571.416	22.03
571.611	22.08
571.806	22.31
572.002	22.3
572.197	22.3
572.392	22.27
572.587	22.18
572.782	22.34
572.977	22.37
573.172	22.27
573.367	22.27
573.562	22.26
573.757	22.28
573.952	22.23
574.147	22.1
574.342	22.21
574.537	22.4
574.732	22.65
574.927	22.79
575.121	22.73
575.316	22.83
575.511	23.05
575.706	23.13
575.901	23.13
576.096	23.27
576.29	23.6
576.485	23.49
576.68	23.53
576.875	23.44
577.069	23.37
577.264	23.66
577.459	23.72
577.654	23.62
577.848	23.72
578.043	23.85
578.238	23.65
578.432	23.44
578.627	23.74
578.821	23.9
579.016	23.94
579.21	23.98
579.405	24.02
579.6	24.24
579.794	24.42
579.989	24.45
580.183	24.6
580.378	24.8
580.572	25.2
580.766	25.26
580.961	25.23
581.155	25.38
581.35	25.74
581.544	25.71
581.738	25.66
581.933	25.66
582.127	25.67
582.321	25.68
582.516	26.02
582.71	25.73
582.904	25.93
583.099	26.15
583.293	26.28
583.487	26.03
583.681	25.98
583.875	26.13
584.07	26.38
584.264	26.45
584.458	26.49
584.652	26.21
584.846	26.46
585.04	26.27
585.234	26.07
585.428	26.1
585.623	26.32
585.817	26.65
586.011	26.64
586.205	26.54
586.399	26.72
586.593	26.91
586.787	27.13
586.981	27.05
587.174	27.18
587.368	27.24
587.562	27.13
587.756	27.19
587.95	27.19
588.144	27.27
588.338	27.07
588.532	26.9
588.725	26.78
588.919	26.62
589.113	26.8
589.307	26.65
589.501	26.5
589.694	26.58
589.888	26.42
590.082	26.29
590.275	26.25
590.469	26.59
590.663	26.88
590.856	27.03
591.05	27.28
591.244	27.4
591.437	27.76
591.631	28.12
591.824	28.15
592.018	28.31
592.212	28.41
592.405	28.23
592.599	28.16
592.792	27.98
592.986	28.06
593.179	28.06
593.372	27.95
593.566	27.91
593.759	27.92
593.953	27.89
594.146	27.92
594.339	27.9
594.533	28.26
594.726	28.18
594.92	28.54
595.113	28.37
595.306	28.36
595.499	28.28
595.693	28.07
595.886	27.9
596.079	27.93
596.272	27.99
596.466	28.04
596.659	28.12
596.852	28.36
597.045	28.35
597.238	28.41
597.431	28.39
597.624	28.57
597.818	28.98
598.011	29.22
598.204	29.16
598.397	29.35
598.59	29.34
598.783	29.33
598.976	29.15
599.169	29.15
599.362	29.24
599.555	29.39
599.748	29.39
599.941	29.36
600.134	29.4
600.326	29.73
600.519	29.74
600.712	30.05
600.905	29.92
601.098	29.96
601.291	29.96
601.483	29.89
601.676	29.76
601.869	29.67
602.062	29.42
602.255	29.3
602.447	29.41
602.64	29.39
602.833	29.33
603.025	29.54
603.218	29.71
603.411	29.84
603.603	29.95
603.796	29.96
603.989	30.05
604.181	30.33
604.374	30.37
604.566	30.43
604.759	30.22
604.951	30.12
605.144	30.12
605.336	30.18
605.529	30.06
605.721	29.96
605.914	29.99
606.106	30.03
606.299	29.96
606.491	29.91
606.683	29.81
606.876	30.04
607.068	30.07
607.26	29.98
607.453	30.03
607.645	30.19
607.837	30.32
608.03	30.27
608.222	30.37
608.414	30.38
608.606	30.72
608.799	30.72
608.991	30.75
609.183	30.85
609.375	30.88
609.567	30.81
609.759	30.84
609.952	30.99
610.144	31.15
610.336	31.25
610.528	31.2
610.72	31.19
610.912	31.33
611.104	31.4
611.296	31.57
611.488	31.59
611.68	31.47
611.872	31.46
612.064	31.4
612.256	31.41
612.448	31.4
612.64	31.36
612.832	31.39
613.023	31.38
613.215	31.21
613.407	31.44
613.599	31.58
613.791	31.77
613.983	31.67
614.174	31.94
614.366	32.1
614.558	31.96
614.75	32.23
614.941	31.96
615.133	32.03
615.325	32.36
615.516	32.25
615.708	32.2
615.9	32.35
616.091	32.48
616.283	32.17
616.475	32.06
616.666	32.07
616.858	32.11
617.049	32.22
617.241	32.23
617.432	32.13
617.624	32.22
617.815	32.38
618.007	32.42
618.198	32.41
618.39	32.65
618.581	32.82
618.773	32.92
618.964	32.98
619.155	33.15
619.347	32.93
619.538	33.03
619.729	32.69
619.921	32.89
620.112	32.81
620.303	33.02
620.494	32.85
620.686	33.06
620.877	33.07
621.068	32.72
621.259	32.92
621.451	33.07
621.642	33.09
621.833	33.43
622.024	33.35
622.215	33.27
622.406	33.03
622.597	33.15
622.788	32.98
622.98	33.08
623.171	33.07
623.362	32.92
623.553	33.04
623.744	33.05
623.935	32.88
624.126	33.02
624.317	33.14
624.508	33.41
624.698	33.39
624.889	33.41
625.08	33.36
625.271	33.75
625.462	33.73
625.653	33.64
625.844	33.48
626.034	33.35
626.225	33.26
626.416	33.25
626.607	33.11
626.798	33.37
626.988	33.75
627.179	33.81
627.37	33.66
627.56	33.62
627.751	33.84
627.942	33.97
628.132	34.06
628.323	33.94
628.514	34.12
628.704	34.07
628.895	33.71
629.085	33.33
629.276	33.24
629.466	33.04
629.657	33.15
629.847	33
630.038	33.04
630.228	33.25
630.419	33.27
630.609	33.12
630.8	33.28
630.99	33.48
631.181	33.43
631.371	33.51
631.561	33.98
631.752	34.05
631.942	33.95
632.132	34.15
632.323	34.12
632.513	34.23
632.703	34.32
632.893	34.45
633.084	34.54
633.274	34.61
633.464	34.66
633.654	34.18
633.844	34.1
634.034	34.28
634.225	34.18
634.415	34.16
634.605	34.3
634.795	34.3
634.985	34.21
635.175	34.2
635.365	34.13
635.555	34.2
635.745	34.8
635.935	34.94
636.125	34.81
636.315	34.69
636.505	34.86
636.695	34.68
636.885	34.54
637.075	34.42
637.265	34.56
637.455	34.53
637.644	34.56
637.834	34.38
638.024	34.32
638.214	34.35
638.404	34.22
638.593	34
638.783	34.16
638.973	34.43
639.163	34.68
639.352	34.34
639.542	34.49
639.732	34.34
639.921	34.61
640.111	34.82
640.301	35.34
640.49	35.67
640.68	35.76
640.87	35.66
641.059	35.35
641.249	35.4
641.438	35.74
641.628	35.66
641.817	35.83
642.007	35.25
642.196	35.09
642.386	34.71
642.575	34.49
642.764	34.58
642.954	34.87
643.143	35.36
643.333	35.21
643.522	35.15
643.711	35.25
643.901	35.61
644.09	36.28
644.279	36.35
644.469	36.45
644.658	36.66
644.847	36.94
645.036	36.74
645.226	36.65
645.415	36.96
645.604	36.75
645.793	36.93
645.982	36.18
646.171	35.92
646.361	35.72
646.55	35.89
646.739	36.11
646.928	35.77
647.117	35.76
647.306	35.83
647.495	35.82
647.684	35.85
647.873	35.82
648.062	36.29
648.251	36.23
648.44	36.72
648.629	36.65
648.818	36.18
649.007	36.38
649.196	36.46
649.384	36.5
649.573	36.23
649.762	36.71
649.951	36.94
650.14	36.97
650.328	37.02
650.517	36.87
650.706	36.92
650.895	37.19
651.083	36.87
651.272	36.88
651.461	37.02
651.65	37.42
651.838	37.45
652.027	37.17
652.216	37.09
652.404	37.23
652.593	36.95
652.781	36.85
652.97	36.97
653.158	37.47
653.347	37.63
653.535	37.53
653.724	37.19
653.912	37.16
654.101	37.17
654.289	37.31
654.478	37.4
654.666	37.48
654.855	37.58
655.043	37.43
655.231	37.65
655.42	37.5
655.608	37.41
655.796	37.64
655.985	37.53
656.173	37.97
656.361	38.24
656.55	38.11
656.738	38.36
656.926	38.39
657.114	38.29
657.302	37.99
657.491	38.15
657.679	38.32
657.867	38.39
658.055	38.81
658.243	38.33
658.431	37.97
658.619	38.07
658.807	38.1
658.996	38.34
659.184	38.26
659.372	38.48
659.56	38.46
659.748	38.45
659.936	38.35
660.124	38.26
660.311	38.52
660.499	38.49
660.687	38.21
660.875	38.2
661.063	37.95
661.251	38.21
661.439	38.15
661.627	38.26
661.814	37.59
662.002	37.58
662.19	37.34
662.378	37.1
662.565	37.48
662.753	37.52
662.941	37.37
663.129	37.66
663.316	37.57
663.504	37
663.692	36.94
663.879	37.72
664.067	37.99
664.254	38.37
664.442	38.51
664.63	38.5
664.817	38.55
665.005	38.68
665.192	38.47
665.38	38.81
665.567	39.04
665.755	39.18
665.942	39.16
666.13	38.85
666.317	38.49
666.504	38.47
666.692	38.6
666.879	38.5
667.067	38.61
667.254	38.42
667.441	38.71
667.629	38.71
667.816	38.21
668.003	38.37
668.19	38.38
668.378	38.04
668.565	37.84
668.752	37.97
668.939	38.44
669.127	38.75
669.314	39.16
669.501	38.96
669.688	39.19
669.875	39.43
670.062	39.38
670.249	39.71
670.436	40.15
670.623	40.37
670.81	40.11
670.997	39.76
671.184	39.07
671.371	38.89
671.558	38.79
671.745	38.91
671.932	39.19
672.119	39.26
672.306	39.1
672.493	38.96
672.68	39.41
672.867	39.56
673.054	39.8
673.24	40
673.427	40.07
673.614	39.99
673.801	39.99
673.988	40.01
674.174	39.77
674.361	39.9
674.548	39.85
674.734	39.7
674.921	39.82
675.108	40.02
675.294	40.19
675.481	40.07
675.668	40.25
675.854	40.21
676.041	39.94
676.227	39.85
676.414	39.71
676.601	40.09
676.787	40.37
676.974	39.72
677.16	39.8
677.347	40.02
677.533	39.89
677.719	39.97
677.906	40.21
678.092	40.22
678.279	40.57
678.465	40.42
678.651	40.07
678.838	39.82
679.024	39.92
679.21	39.8
679.397	39.54
679.583	39.41
679.769	39.31
679.955	39.04
680.142	39.14
680.328	39.37
680.514	39.75
680.7	39.72
680.886	39.58
681.073	39.86
681.259	39.82
681.445	39.8
681.631	40.19
681.817	40.08
682.003	40.21
682.189	39.99
682.375	39.89
682.561	39.7
682.747	40.13
682.933	39.93
683.119	39.79
683.305	39.81
683.491	39.99
683.677	39.93
683.863	40.03
684.049	40.01
684.235	40.38
684.42	39.92
684.606	39.95
684.792	39.72
684.978	40.2
685.164	40.23
685.349	40.64
685.535	40.58
685.721	40.49
685.907	40.05
686.092	39.52
686.278	39.3
686.464	39.71
686.649	39.69
686.835	39.43
687.021	39.15
687.206	39.67
687.392	39.32
687.577	39.34
687.763	39.19
687.948	39.78
688.134	40.66
688.319	40.88
688.505	41.01
688.69	40.91
688.876	41.32
689.061	41.53
689.247	41.4
689.432	41.17
689.618	41.26
689.803	41.22
689.988	41.21
690.174	40.51
690.359	40.45
690.544	40.35
690.73	39.99
690.915	39.54
691.1	39.52
691.285	39.42
691.471	39.59
691.656	39.58
691.841	39.75
692.026	39.5
692.211	39.93
692.396	40.01
692.582	39.77
692.767	40.56
692.952	40.94
693.137	40.91
693.322	40.74
693.507	40.87
693.692	40.96
693.877	41.22
694.062	41.34
694.247	41.55
694.432	41.28
694.617	41.48
694.802	41.38
694.987	41.5
695.172	41.95
695.357	42.45
695.541	42.5
695.726	42.29
695.911	42.05
696.096	42.24
696.281	41.72
696.466	42.14
696.65	41.8
696.835	41.51
697.02	41.76
697.204	41.85
697.389	41.46
697.574	41.24
697.759	41.59
697.943	41.55
698.128	41.32
698.312	41.09
698.497	40.72
698.682	40.78
698.866	41.09
699.051	40.85
699.235	40.45
699.42	40.76
699.604	40.88
699.789	40.56
699.973	40.7
700.158	40.66
700.342	41.31
700.527	41.58
700.711	41.78
700.895	41.47
701.08	41.4
701.264	41.14
701.448	41.12
701.633	40.83
701.817	41.17
702.001	41.02
702.186	41.61
702.37	40.98
702.554	40.65
702.738	40.65
702.923	40.79
703.107	40.38
703.291	41.2
703.475	40.87
703.659	41.04
703.843	40.5
704.027	40.37
704.212	39.75
704.396	39.95
704.58	40.51
704.764	40.03
704.948	39.89
705.132	40.08
705.316	40.04
705.5	40.28
705.684	41.22
705.868	41.73
706.052	42.04
706.235	42.75
706.419	42.55
706.603	42.8
706.787	43.3
706.971	43.6
707.155	44.4
707.339	43.86
707.522	43.33
707.706	43.02
707.89	43.21
708.074	43
708.257	42.09
708.441	42.68
708.625	42.52
708.808	42.09
708.992	41.81
709.176	40.74
709.359	41.07
709.543	41.19
709.727	41.07
709.91	41.35
710.094	41.5
710.277	42.44
710.461	41.95
710.644	41.81
710.828	41.94
711.011	42.21
711.195	42.57
711.378	42.03
711.562	42.15
711.745	41.79
711.928	41.3
712.112	41.79
712.295	40.55
712.478	41
712.662	40.7
712.845	40.7
713.028	40.56
713.212	41.15
713.395	41.37
713.578	40.93
713.761	40.99
713.945	40.78
714.128	40.57
714.311	41.88
714.494	41.75
714.677	41.92
714.86	41.53
715.043	41.96
715.227	41.48
715.41	41.74
715.593	41.72
715.776	42.33
715.959	43.01
716.142	42.84
716.325	42.68
716.508	42.62
716.691	42.36
716.874	43.15
717.057	43.25
717.239	43.73
717.422	43.45
717.605	43.89
717.788	43.47
717.971	43.24
718.154	42.72
718.337	42.34
718.519	42.47
718.702	43.04
718.885	43.16
719.068	43
719.25	42.03
719.433	42.67
719.616	42.45
719.798	42.24
719.981	41.58
720.164	41.91
720.346	42.14
720.529	41.6
720.712	41.53
720.894	40.91
721.077	40.53
721.259	40.89
721.442	40.38
721.624	40.52
721.807	40.35
721.989	40.67
722.172	41.39
722.354	41.7
722.537	42.15
722.719	42.37
722.901	42.78
723.084	42.5
723.266	43.03
723.448	43.15
723.631	43.05
723.813	43.05
723.995	43.49
724.178	43.73
724.36	43.76
724.542	44.46
724.724	44.12
724.907	44.73
725.089	45.41
725.271	45.4
725.453	45.94
725.635	46.66
725.817	47.98
725.999	47.51
726.181	46.22
726.364	45.45
726.546	45.13
726.728	45.08
726.91	44.28
727.092	44.11
727.274	44.21
727.456	44.02
727.638	43.75
727.819	43.46
728.001	43.28
728.183	44.04
728.365	44.44
728.547	43.54
728.729	43.57
728.911	43.51
729.093	43.71
729.274	43.56
729.456	43.72
729.638	43.38
729.82	42.23
730.001	43.02
730.183	42.85
730.365	43.06
730.546	43.21
730.728	42.98
730.91	43.13
731.091	43.31
731.273	43.22
731.455	42.75
731.636	43.17
731.818	43.67
731.999	43.58
732.181	43.1
732.362	42.43
732.544	43.49
732.725	43.28
732.907	42.96
733.088	42.8
733.27	42.58
733.451	42.3
733.633	41.57
733.814	41.75
733.995	40.98
734.177	41.46
734.358	42.1
734.539	41.69
734.721	42
734.902	43.05
735.083	42.32
735.264	42.17
735.446	43.05
735.627	43.42
735.808	43.35
735.989	44.22
736.17	44.16
736.351	43.39
736.533	42.85
736.714	42.27
736.895	41.9
737.076	41.11
737.257	41.78
737.438	40.97
737.619	41.58
737.8	41.78
737.981	42.6
738.162	43.33
738.343	44.22
738.524	44.26
738.705	44.95
738.886	44.85
739.067	45.92
739.247	45.93
739.428	45.76
739.609	45.56
739.79	45.19
739.971	44.62
740.151	43.82
740.332	42.98
740.513	43.51
740.694	43.6
740.874	43.89
741.055	44.14
741.236	44.28
741.417	44.89
741.597	44.91
741.778	45.35
741.958	44.59
742.139	44.96
742.32	45.1
742.5	44.46
742.681	44.64
742.861	44.35
743.042	43.51
743.222	42.76
743.403	42.69
743.583	42.63
743.764	42.38
743.944	41.98
744.124	41.34
744.305	41.53
744.485	41.21
744.666	41.39
744.846	41.63
745.026	43.32
745.207	43.7
745.387	43.77
745.567	43.74
745.747	44.49
745.928	45.82
746.108	46.96
746.288	47.56
746.468	48.02
746.648	47.72
746.829	47
747.009	46.92
747.189	47.09
747.369	47.39
747.549	46.7
747.729	46.49
747.909	45.98
748.089	45.91
748.269	44.83
748.449	45.23
748.629	44.84
748.809	44.65
748.989	44.58
749.169	44.08
749.349	43.18
749.529	44.32
749.709	43.03
749.889	42.47
750.068	42.28
750.248	43.17
750.428	43.88
750.608	43.82
750.788	44.72
750.967	43.9
751.147	45.53
751.327	45.95
751.507	45.96
751.686	47.55
751.866	48.03
752.046	47.81
752.225	47.99
752.405	47.17
752.585	47.01
752.764	47.59
752.944	48.83
753.123	47.57
753.303	47.68
753.482	46.92
753.662	46.11
753.841	46.18
754.021	46.08
754.2	45.49
754.38	46.43
754.559	47.35
754.739	46.09
754.918	44.89
755.097	44.5
755.277	45.43
755.456	46.55
755.635	46.41
755.815	46.89
755.994	46.73
756.173	46.94
756.352	46.7
756.532	46.06
756.711	45.44
756.89	46.64
757.069	47.2
757.248	46.94
757.427	46.33
757.607	45.9
757.786	45.8
757.965	46.7
758.144	45.86
758.323	44.58
758.502	44.69
758.681	45.38
758.86	44.49
759.039	44.45
759.218	43.14
759.397	42.51
759.576	41.93
759.755	41.04
759.934	40.37
760.113	40.89
760.291	41.17
760.47	41.32
760.649	42.48
760.828	41.83
761.007	41.94
761.186	41.92
761.364	42.19
761.543	43.63
761.722	43.15
761.901	42.99
762.079	43.41
762.258	43.51
762.437	43.19
762.615	42.24
762.794	42.58
762.972	42.51
763.151	43.55
763.33	43.53
763.508	43.23
763.687	43.62
763.865	44.01
764.044	43.66
764.222	43.91
764.401	44.2
764.579	44.33
764.758	43.4
764.936	43.36
765.114	42.62
765.293	43.17
765.471	43.23
765.65	43.52
765.828	43.03
766.006	42.69
766.184	42.9
766.363	43.87
766.541	43.7
766.719	44.92
766.898	44.79
767.076	45.13
767.254	45.21
767.432	44.89
767.61	44.92
767.788	45.85
767.967	46.47
768.145	46.19
768.323	45.34
768.501	45.28
768.679	45.3
768.857	45.82
769.035	45.94
769.213	45.13
769.391	45.7
769.569	46.63
769.747	45.82
769.925	46.47
770.103	46.01
770.281	45.8
770.459	46.71
770.636	46.64
770.814	45.73
770.992	46.19
771.17	46.93
771.348	46.86
771.525	45.81
771.703	46.58
771.881	45.96
772.059	46.51
772.236	46.78
772.414	46.27
772.592	46.93
772.769	48.52
772.947	48.12
773.125	47.28
773.302	46.38
773.48	47.22
773.657	46.03
773.835	46.71
774.013	45.92
774.19	46.26
774.368	46.69
774.545	45.98
774.723	44.22
774.9	44.51
775.077	45.09
775.255	45.67
775.432	45.46
775.61	45.97
775.787	46.49
775.964	47.93
776.142	47.43
776.319	46.52
776.496	47.16
776.674	48.28
776.851	48.01
777.028	47.88
777.205	48.92
777.382	49.38
777.56	50.27
777.737	50.39
777.914	49.03
778.091	50.11
778.268	50.32
778.445	50.47
778.622	50.74
778.8	51.59
778.977	51.06
779.154	57.71
779.331	57.21
779.508	56.17
779.685	56.42
779.862	56.98
780.038	55.23
780.215	55.39
780.392	55.8
780.569	55.12
780.746	54.41
780.923	54.68
781.1	46.72
781.277	47.99
781.453	48.03
781.63	46.1
781.807	46.87
781.984	46.81
782.16	46.48
782.337	46.17
782.514	46.32
782.691	45.73
782.867	46.28
783.044	48.96
783.221	47.63
783.397	48.42
783.574	48.37
783.75	48.59
783.927	50.11
784.103	52.04
784.28	52.11
784.456	51.37
784.633	51.76
784.809	49.4
784.986	46.56
785.162	46.13
785.339	45.41
785.515	46.32
785.692	46.45
785.868	44.85
786.044	42.32
786.221	41.75
786.397	43.12
786.573	44.27
786.749	45.95
786.926	46.62
787.102	48
787.278	48.97
787.454	48.71
787.631	48.58
787.807	47.77
787.983	48.01
788.159	47.65
788.335	45.84
788.511	45.28
788.687	44.86
788.863	45.34
789.039	43.93
789.216	42.59
789.392	42.73
789.568	42.88
789.744	42.43
789.919	44.86
790.095	44.35
790.271	45.44
790.447	43.83
790.623	44.63
790.799	43.05
790.975	43.47
791.151	44.03
791.327	43.25
791.502	42.63
791.678	43.41
791.854	42.63
792.03	42.84
792.205	44.25
792.381	45.65
792.557	45.81
792.733	47.02
792.908	47.35
793.084	46.1
793.259	46.95
793.435	48.34
793.611	49.54
793.786	48.14
793.962	49.11
794.137	47.91
794.313	48.22
794.488	48.68
794.664	50.22
794.839	49.96
795.015	50.36
795.19	51.36
795.366	49.06
795.541	48.24
795.716	48.48
795.892	48.26
796.067	48.2
796.242	47.58
796.418	47.85
796.593	45.87
796.768	44.93
796.944	45.95
797.119	44.62
797.294	45.04
797.469	45.9
797.644	46.11
797.82	46.2
797.995	45.53
798.17	46.27
798.345	44.58
798.52	44.46
798.695	45.59
798.87	44.51
799.045	44.64
799.22	44.8
799.395	43.7
799.57	42.86
799.745	43.9
799.92	44.15
800.095	42.96
800.27	43.41
800.445	42.79
800.62	43.68
800.795	44.68
800.97	43.26
801.145	43.82
801.319	44.94
801.494	45.7
801.669	46.46
801.844	46.72
802.018	47.64
802.193	46.82
802.368	49.08
802.543	47.06
802.717	48.11
802.892	49.52
803.067	47.98
803.241	48.32
803.416	46.3
803.59	43.96
803.765	45.31
803.94	45.99
804.114	48.34
804.289	48.42
804.463	49.69
804.638	49.22
804.812	48.28
804.986	50.14
805.161	49.44
805.335	51.21
805.51	51.95
805.684	50.33
805.858	50.08
806.033	49.7
806.207	47.84
806.381	46.74
806.556	44.26
806.73	47.21
806.904	48.49
807.078	48.55
807.253	47.25
807.427	45.42
807.601	45.62
807.775	45.34
807.949	44.02
808.123	43.99
808.298	45.85
808.472	48.91
808.646	45.57
808.82	43.61
808.994	43.06
809.168	46.75
809.342	47.94
809.516	45.2
809.69	44.39
809.864	46.5
810.038	45
810.212	43.36
810.385	43
810.559	44.62
810.733	45.63
810.907	44.56
811.081	40.15
811.255	39.87
811.428	41.65
811.602	42.64
811.776	40.1
811.95	42.96
812.123	43.52
812.297	41.52
812.471	42.92
812.644	43.27
812.818	44.71
812.992	45.39
813.165	45.34
813.339	44.54
813.512	46.74
813.686	48.32
813.86	50.36
814.033	51.87
814.207	54.63
814.38	53.91
814.554	49.01
814.727	47.82
814.9	50.12
815.074	49.75
815.247	51.5
815.421	48.6
815.594	47.61
815.767	45.41
815.941	43.34
816.114	40.56
816.287	38.06
816.46	39.43
816.634	39.52
816.807	37.67
816.98	38.74
817.153	39.39
817.327	39.95
817.5	41.2
817.673	41.01
817.846	39.58
818.019	40.61
818.192	41.09
818.365	40.03
818.538	40.67
818.711	42.54
818.884	42.71
819.057	43.59
819.23	44.19
819.403	41.94
819.576	43.4
819.749	44.65
819.922	44.67
820.095	45.83
820.268	48.06
820.441	47.81
820.614	46.07
820.786	45.87
820.959	46.17
821.132	44.54
821.305	45.31
821.477	44.37
821.65	44.83
821.823	44.64
821.996	43.85
822.168	43.11
822.341	43.12
822.514	42.76
822.686	42.58
822.859	42
823.031	42.29
823.204	42.35
823.376	42.14
823.549	41.63
823.722	41.58
823.894	42.02
824.067	41.97
824.239	41.98
824.411	42.58
824.584	42.83
824.756	42.87
824.929	42.49
825.101	42.65
825.273	42.47
825.446	43.11
825.618	43.01
825.79	43.15
825.963	44.14
826.135	44.08
826.307	44.23
826.479	43.94
826.652	44.76
826.824	45.28
826.996	45.26
827.168	45.78
827.34	45.37
827.512	45.7
827.684	45.24
827.856	43.49
828.029	43.86
828.201	42.99
828.373	43.2
828.545	42.19
828.717	42.66
828.889	42.09
829.061	41.71
829.232	40.96
829.404	40.33
829.576	40.94
829.748	41.74
829.92	41.47
830.092	43.16
830.264	42.47
830.436	43.38
830.607	42.63
830.779	42.68
830.951	42.57
831.123	42.69
831.294	43.21
831.466	42.45
831.638	44.47
831.809	43.23
831.981	42.75
832.153	42.34
832.324	41.68
832.496	42.04
832.667	44.94
832.839	42.54
833.011	43.39
833.182	45.38
833.354	44.35
833.525	43.75
833.697	44.49
833.868	43.82
834.039	43.64
834.211	42.59
834.382	41.8
834.554	39.6
834.725	42.19
834.896	43.38
835.068	42.86
835.239	43.6
835.41	43.2
835.581	44.88
835.753	43.34
835.924	44.57
836.095	45.8
836.266	46.43
836.438	46.36
836.609	47.21
836.78	44.42
836.951	42.92
837.122	43.73
837.293	43.34
837.464	43.81
837.635	44.74
837.806	46.39
837.977	46.01
838.148	46.35
838.319	49.83
838.49	49.22
838.661	54.73
838.832	56.39
839.003	54.13
839.174	56.99
839.345	53.24
839.516	54.33
839.687	53.05
839.857	53.62
840.028	52.07
840.199	50.83
840.37	51.85
840.54	52.38
840.711	56.49
840.882	59.04
841.053	58.11
841.223	57.49
841.394	60.66
841.564	60.04
841.735	61.4
841.906	63.76
842.076	63.57
842.247	66.32
842.417	62.58
842.588	62.92
842.758	64.96
842.929	64.71
843.099	66.91
843.27	65.48
843.44	67.73
843.611	66.24
843.781	65.08
843.951	62.72
844.122	58.64
844.292	62.53
844.462	55.3
844.633	52.3
844.803	52.61
844.973	52.58
845.144	54.06
845.314	52.39
845.484	54.44
845.654	58.48
845.824	64.46
845.995	67.75
846.165	66.33
846.335	70.62
846.505	73.47
846.675	74.18
846.845	70.55
847.015	69.15
847.185	63.72
847.355	59.76
847.525	54.79
847.695	49.5
847.865	48.81
848.035	49.31
848.205	54.04
848.375	48.3
848.545	38.75
848.715	41.86
848.884	42.35
849.054	51.18
849.224	53.65
849.394	53.03
849.564	55.88
849.733	51.35
849.903	48.01
850.073	38.84
850.243	40.25
850.412	49.94
850.582	52.38
850.752	53.91
850.921	48.19
851.091	48.66
851.26	55.5
851.43	52.25
851.599	57.82
851.769	62.54
851.939	64.19
852.108	73.2
852.278	69.02
852.447	67.14
852.616	61.79
852.786	59.92
852.955	59.74
853.125	56.02
853.294	58.63
853.463	54.72
853.633	55.29
853.802	50.62
853.971	39.32
854.141	47.01
854.31	50.12
854.479	55.21
854.648	55.66
854.818	55.33
854.987	63.36
855.156	62.14
855.325	54.64
855.494	54.74
855.663	62.3
855.832	61.56
856.001	55.68
856.171	57.69
856.34	66.97
856.509	67.24
856.678	73.33
856.847	72.07
857.016	65.72
857.185	76.92
857.353	73.53
857.522	71.99
857.691	78.97
857.86	80.44
858.029	73.43
858.198	62.36
858.367	57.87
858.535	57.33
858.704	52.13
858.873	60.95
859.042	58.67
859.21	58.24
859.379	56.27
859.548	53.43
859.717	51.65
859.885	46.73
860.054	45.16
860.222	54.01
860.391	53.88
860.56	58.45
860.728	57.94
860.897	62.43
861.065	59.9
861.234	61.08
861.402	64.97
861.571	69.54
861.739	71.21
861.908	74.2
862.076	73.45
862.244	64.63
862.413	64.88
862.581	58.8
862.749	57.34
862.918	54.27
863.086	52.53
863.254	50.24
863.423	45.2
863.591	48.89
863.759	49.39
863.927	55.57
864.096	55.14
864.264	56.55
864.432	67.16
864.6	66.01
864.768	70.14
864.936	64.41
865.104	68.83
865.272	72.28
865.44	68.91
865.608	72.17
865.776	64.45
865.944	69.42
866.112	65.9
866.28	54.11
866.448	50.15
866.616	56.51
866.784	70.32
866.952	65.56
867.12	64.43
867.288	70
867.455	69.25
867.623	75.12
867.791	69.88
867.959	66.37
868.127	73.3
868.294	73.2
868.462	64.71
868.63	57.33
868.797	52.92
868.965	47.9
869.133	44.85
869.3	36.03
869.468	33.72
869.636	33.4
869.803	37.61
869.971	39.95
870.138	47.25
870.306	49.23
870.473	46.76
870.641	48.71
870.808	52.74
870.975	56.73
871.143	61.36
871.31	64.62
871.478	70.22
871.645	71.17
871.812	69.16
871.98	57.86
872.147	49.4
872.314	48.93
872.482	57.62
872.649	51.5
872.816	44.73
872.983	47.22
873.15	45.58
873.318	47.13
873.485	47.87
873.652	49.17
873.819	52.13
873.986	57.71
874.153	60.63
874.32	53.17
874.487	64.16
874.654	65.37
874.821	66.4
874.988	68.69
875.155	64.67
875.322	66.92
875.489	67.63
875.656	71.25
875.823	72.8
875.99	69.18
876.157	72.42
876.324	58.5
876.49	68.56
876.657	67.28
876.824	60.17
876.991	59.53
877.157	57.95
877.324	56.9
877.491	59.48
877.658	65.09
877.824	65.97
877.991	66.25
878.157	71.1
878.324	67.88
878.491	70.86
878.657	76.84
878.824	79.89
878.99	83.11
879.157	89.04
879.323	88.17
879.49	79.26
879.656	76.94
879.823	70.35
879.989	62.88
880.156	52.86
880.322	46.57
880.488	44.82
880.655	39.05
880.821	32.96
880.987	30.87
881.154	25.21
881.32	27.94
881.486	28.04
881.652	32.48
881.819	34.6
881.985	38.26
882.151	39.32
882.317	37.95
882.483	35.98
882.649	37.74
882.816	36.43
882.982	38.01
883.148	38.86
883.314	38.05
883.48	37.8
883.646	38.89
883.812	37.96
883.978	38.15
884.144	38.91
884.31	40.67
884.476	40.96
884.642	43.29
884.807	43.31
884.973	43.36
885.139	43.21
885.305	43.99
885.471	44.17
885.637	45.11
885.802	45.18
885.968	46.77
886.134	47.33
886.3	45.43
886.465	42.86
886.631	42.99
886.797	43.57
886.962	45.11
887.128	45.89
887.293	45.48
887.459	45.64
887.625	48.32
887.79	46.12
887.956	47.2
888.121	49.72
888.287	53.02
888.452	53.63
888.618	52.68
888.783	54.21
