Data from LC_273_Reflection_2.txt Node
Date: Sat Nov 21 12:16:19 EST 2015
User: robert
Spectrometer: USB4E03001
Autoset integration time: false
Trigger mode: 4
Integration Time (sec): 1.000000E-1
Scans to average: 15
Electric dark correction enabled: true
Nonlinearity correction enabled: false
Boxcar width: 5
Stray light correction enabled: false
XAxis mode: Wavelengths
Stop averaging: false
Number of Pixels in Spectrum: 3648
>>>>>Begin Spectral Data<<<<<
177.566	-106.49
177.785	-59.19
178.005	-182.44
178.225	62.97
178.445	125.97
178.665	-1193.53
178.885	784.54
179.105	297.22
179.324	137.75
179.544	134.88
179.764	687.25
179.984	70.45
180.204	32.13
180.423	54.05
180.643	53.44
180.863	77.16
181.083	31.24
181.302	91.25
181.522	96.54
181.742	92.07
181.961	100.44
182.181	100.39
182.401	211.67
182.621	212.25
182.84	236.23
183.06	192.43
183.279	163.55
183.499	146.61
183.719	132.7
183.938	136.13
184.158	157.93
184.377	166.69
184.597	182.33
184.816	158.93
185.036	172.83
185.256	164.83
185.475	167.28
185.695	163.37
185.914	167.18
186.134	173.25
186.353	188.01
186.572	183.13
186.792	179.84
187.011	162.27
187.231	174.5
187.45	172.53
187.67	180.46
187.889	175.85
188.108	230.59
188.328	302.76
188.547	314.79
188.766	306.23
188.986	293.4
189.205	442.68
189.424	790.86
189.644	561.89
189.863	-194.62
190.082	-415.56
190.302	742.14
190.521	110.56
190.74	95.52
190.959	82.32
191.178	95.87
191.398	71.18
191.617	75.14
191.836	81.15
192.055	43.99
192.274	50.34
192.494	43.94
192.713	38.91
192.932	73.24
193.151	67.77
193.37	79.7
193.589	89.91
193.808	116.2
194.027	125.14
194.246	112.4
194.465	107.76
194.685	111.82
194.904	124.06
195.123	136.48
195.342	147.09
195.561	155.9
195.78	110.68
195.999	99.09
196.218	105.96
196.436	107.28
196.655	95.43
196.874	124.58
197.093	126.22
197.312	106.78
197.531	122.7
197.75	86.9
197.969	85.84
198.188	120.97
198.407	121.84
198.625	101.51
198.844	97.86
199.063	101.29
199.282	93.41
199.501	128.16
199.719	132.8
199.938	135.85
200.157	135.72
200.376	132.4
200.594	103.08
200.813	98.4
201.032	114.67
201.251	98.98
201.469	141.81
201.688	224.09
201.907	167.19
202.125	121.04
202.344	118.44
202.563	146.07
202.781	180.46
203	216.65
203.218	184.2
203.437	318.07
203.656	631.98
203.874	455.2
204.093	140.12
204.311	153.8
204.53	294.88
204.748	258.67
204.967	263.5
205.185	170.56
205.404	196.41
205.622	471.08
205.841	299.77
206.059	229.43
206.278	258.3
206.496	255.22
206.715	572.43
206.933	361.12
207.151	261.87
207.37	180.46
207.588	262.75
207.806	205.07
208.025	163.4
208.243	186.57
208.461	180.44
208.68	164.94
208.898	224.74
209.116	135.53
209.335	121.13
209.553	167.91
209.771	222.44
209.989	202.19
210.208	230.77
210.426	224.15
210.644	154.66
210.862	245.23
211.081	259.68
211.299	159.91
211.517	210.96
211.735	176.31
211.953	156.46
212.171	124.99
212.39	127.91
212.608	114.65
212.826	126.66
213.044	118.36
213.262	108.31
213.48	101.76
213.698	95.84
213.916	108.77
214.134	127.43
214.352	129.42
214.57	132.75
214.788	142.16
215.006	142.6
215.224	134.71
215.442	161.93
215.66	163.62
215.878	172.51
216.096	223.39
216.314	201.7
216.532	217.38
216.75	193.66
216.968	206.27
217.185	168.25
217.403	200.89
217.621	198.32
217.839	173.35
218.057	172.11
218.275	171.59
218.492	132.32
218.71	123.29
218.928	120.47
219.146	116.31
219.363	136.87
219.581	232.04
219.799	149.37
220.017	135.04
220.234	154.94
220.452	140.59
220.67	137.91
220.887	151.28
221.105	149.72
221.323	158.85
221.54	162.78
221.758	125.67
221.976	111.53
222.193	119.67
222.411	118.81
222.629	94.72
222.846	99.13
223.064	77.35
223.281	75.22
223.499	73.84
223.716	65.59
223.934	60.7
224.151	52.08
224.369	37.82
224.586	47.49
224.804	49.08
225.021	50.6
225.239	56.21
225.456	53.52
225.674	44.43
225.891	48.97
226.108	48.1
226.326	54.87
226.543	56.16
226.76	53.22
226.978	45.21
227.195	37.51
227.413	35.62
227.63	32.46
227.847	33.97
228.064	33.61
228.282	28.82
228.499	26.6
228.716	22.24
228.934	23.32
229.151	24.34
229.368	23.2
229.585	24.31
229.802	26.31
230.02	26.28
230.237	26.2
230.454	29.29
230.671	28.5
230.888	32.03
231.105	34.53
231.323	34.27
231.54	33.13
231.757	33.9
231.974	37.12
232.191	31.52
232.408	36
232.625	36.4
232.842	33.46
233.059	33.44
233.276	36.74
233.493	37.89
233.71	37.51
233.927	36.81
234.144	37.53
234.361	33.65
234.578	33.93
234.795	31.74
235.012	30.5
235.229	31.72
235.446	33.03
235.663	29.11
235.879	25.1
236.096	21.19
236.313	26.73
236.53	23.52
236.747	26.44
236.964	29.57
237.181	31.25
237.397	31.31
237.614	26.99
237.831	24.36
238.048	23.19
238.264	21.57
238.481	24.29
238.698	21.38
238.915	19.37
239.131	14.62
239.348	13.34
239.565	10.21
239.781	11.27
239.998	15.75
240.215	18.08
240.431	13.4
240.648	15.22
240.865	13.37
241.081	10.39
241.298	10.81
241.514	15.23
241.731	14.49
241.947	16.04
242.164	15.7
242.38	14.38
242.597	14.11
242.814	14.84
243.03	15.73
243.246	17.17
243.463	18.26
243.679	19.95
243.896	19.09
244.112	22.12
244.329	22.93
244.545	22.96
244.762	25.37
244.978	25.34
245.194	25.42
245.411	25.17
245.627	23.35
245.843	21.39
246.06	19.83
246.276	18.13
246.492	15.02
246.709	14.17
246.925	14.79
247.141	13.57
247.357	13.36
247.574	13.7
247.79	13.17
248.006	13.49
248.222	14.01
248.439	15.09
248.655	15.61
248.871	17.12
249.087	17.68
249.303	17.65
249.519	18.1
249.736	18.56
249.952	19.47
250.168	20.25
250.384	19.99
250.6	21.63
250.816	19.53
251.032	19.19
251.248	18.5
251.464	17.38
251.68	17.44
251.896	17.36
252.112	18.94
252.328	17.23
252.544	18.95
252.76	19.36
252.976	18.02
253.192	18.72
253.408	20.04
253.624	21.39
253.84	23.61
254.056	24.3
254.272	23.94
254.487	22.12
254.703	23.63
254.919	21.59
255.135	20.26
255.351	20.33
255.567	18.15
255.782	16.27
255.998	13.73
256.214	10.27
256.43	7.6
256.646	8.64
256.861	8.73
257.077	9.55
257.293	10.5
257.508	10.77
257.724	11.19
257.94	12.96
258.155	12.37
258.371	11.22
258.587	11.9
258.802	12.25
259.018	11.52
259.234	11.55
259.449	11.19
259.665	10.38
259.88	10.76
260.096	10.2
260.312	10.23
260.527	10.74
260.743	11.12
260.958	10.98
261.174	10.44
261.389	11.28
261.605	11.31
261.82	11.82
262.036	12.59
262.251	12.21
262.466	13.32
262.682	12.47
262.897	10.82
263.113	10.68
263.328	11.23
263.543	13.26
263.759	12.12
263.974	12.9
264.189	13.87
264.405	13.76
264.62	14.06
264.835	13.81
265.051	15.08
265.266	16.76
265.481	17.42
265.696	17.85
265.912	17.44
266.127	17.01
266.342	16.27
266.557	14.32
266.773	12.77
266.988	13.08
267.203	12.11
267.418	11.12
267.633	10.44
267.848	9.72
268.064	8.21
268.279	8.02
268.494	8.31
268.709	8.77
268.924	8.04
269.139	9.42
269.354	9.57
269.569	8.74
269.784	9.88
269.999	10.64
270.214	11.11
270.429	12.44
270.644	11.6
270.859	12.45
271.074	10.16
271.289	11.13
271.504	10.14
271.719	9.63
271.934	10.99
272.149	10.45
272.363	10.26
272.578	10.18
272.793	9.21
273.008	10.89
273.223	10.63
273.438	11.82
273.653	12.54
273.867	13.49
274.082	13.84
274.297	13.41
274.512	13.5
274.726	13.31
274.941	13.38
275.156	14.82
275.371	13.02
275.585	13.37
275.8	13.04
276.015	10.85
276.229	10.06
276.444	11.42
276.659	11.58
276.873	11.42
277.088	12.51
277.302	12.18
277.517	11.61
277.732	12.53
277.946	12.98
278.161	13.2
278.375	13.49
278.59	14.33
278.804	12.75
279.019	13.48
279.233	13.35
279.448	12.63
279.662	12.5
279.877	12.45
280.091	12.81
280.306	11.37
280.52	10.52
280.735	11.9
280.949	10.92
281.163	10.39
281.378	9.28
281.592	9.45
281.806	8.82
282.021	8.55
282.235	8.49
282.449	8.06
282.664	9.08
282.878	9.85
283.092	9.97
283.307	10.64
283.521	11.03
283.735	10.74
283.949	10.51
284.164	10.25
284.378	10.57
284.592	9.14
284.806	9.24
285.02	8.56
285.234	8.38
285.449	7.44
285.663	7.59
285.877	8.02
286.091	9.03
286.305	8.94
286.519	9.38
286.733	10.27
286.947	11.25
287.161	10.7
287.375	11.72
287.589	12.16
287.803	12.52
288.017	11.9
288.231	11.54
288.445	10.87
288.659	10.93
288.873	11.03
289.087	10.62
289.301	10.63
289.515	10.69
289.729	10.61
289.943	10.72
290.157	11.09
290.371	11.83
290.584	12.32
290.798	12.53
291.012	12.92
291.226	12.97
291.44	12.12
291.654	12.16
291.867	12.88
292.081	13.18
292.295	13.22
292.509	13.63
292.722	13.42
292.936	13.92
293.15	13.9
293.364	14.4
293.577	14.11
293.791	14.96
294.005	15.2
294.218	14.19
294.432	13.11
294.645	13.63
294.859	13.07
295.073	11.89
295.286	11.18
295.5	12.4
295.713	11.47
295.927	11.34
296.14	10.86
296.354	10.7
296.568	11.9
296.781	11.36
296.994	10.73
297.208	10.21
297.421	11.49
297.635	11.06
297.848	10.03
298.062	10.52
298.275	11.22
298.489	11.27
298.702	11.18
298.915	10.82
299.129	11.64
299.342	11.42
299.555	11.84
299.769	11.93
299.982	12.92
300.195	14
300.409	13.91
300.622	13.49
300.835	14.26
301.048	14.51
301.262	14.39
301.475	14.59
301.688	15.1
301.901	15.44
302.115	15.06
302.328	14.97
302.541	13.87
302.754	14.52
302.967	14.7
303.18	14.46
303.393	15.05
303.607	14.71
303.82	14.44
304.033	14.26
304.246	15.05
304.459	15.4
304.672	16.07
304.885	17.08
305.098	17.3
305.311	17.13
305.524	16.09
305.737	15.4
305.95	15.32
306.163	14.76
306.376	14.84
306.589	13.84
306.802	12.89
307.015	11.34
307.228	11.09
307.44	10.24
307.653	11.8
307.866	13.49
308.079	13.92
308.292	13.33
308.505	13.9
308.718	14.22
308.93	15.05
309.143	14.22
309.356	15.42
309.569	14.78
309.781	15.32
309.994	14.11
310.207	13.65
310.42	12.62
310.632	13.33
310.845	13.05
311.058	12.76
311.27	13.04
311.483	14.27
311.696	12.92
311.908	13.29
312.121	12.49
312.333	13.12
312.546	13.42
312.759	14.38
312.971	15
313.184	16.22
313.396	15.84
313.609	14.28
313.821	14.03
314.034	14.95
314.246	14.47
314.459	15.04
314.671	14.49
314.884	14.13
315.096	14.48
315.309	13.53
315.521	13.02
315.733	13.9
315.946	14.97
316.158	13.97
316.371	15.08
316.583	16.1
316.795	16.13
317.008	16.9
317.22	17.48
317.432	17.81
317.644	17.83
317.857	16.99
318.069	16.52
318.281	17.14
318.494	18.95
318.706	18.42
318.918	18.3
319.13	17.91
319.342	17.37
319.555	17.03
319.767	17.46
319.979	17.7
320.191	18.69
320.403	19.41
320.615	18.16
320.827	17.75
321.039	16.58
321.252	16.46
321.464	17.18
321.676	16.09
321.888	17.51
322.1	16.97
322.312	17.73
322.524	16.83
322.736	17.67
322.948	19.33
323.16	19.59
323.372	20.29
323.584	20.71
323.796	22.08
324.007	23.28
324.219	22.24
324.431	22.6
324.643	22.57
324.855	23.02
325.067	23.25
325.279	23.27
325.491	23.01
325.702	23.74
325.914	23.9
326.126	23.67
326.338	23.15
326.55	24.47
326.761	24.23
326.973	24.56
327.185	25.66
327.396	25.54
327.608	25.72
327.82	26.96
328.032	28.16
328.243	28.85
328.455	28.77
328.666	30.02
328.878	30.2
329.09	32.13
329.301	33.13
329.513	33.32
329.725	34.89
329.936	36.68
330.148	36.85
330.359	36.58
330.571	37.22
330.782	37.79
330.994	38.48
331.205	38.99
331.417	37.96
331.628	38.33
331.84	38.22
332.051	37.98
332.262	36.98
332.474	36.82
332.685	36.05
332.897	35.79
333.108	35.54
333.319	35.37
333.531	35.01
333.742	35.19
333.953	35.3
334.165	36.3
334.376	35.81
334.587	36.45
334.799	36.54
335.01	37.72
335.221	38.7
335.432	38.99
335.644	40.13
335.855	41.24
336.066	42.02
336.277	42.61
336.488	41.96
336.7	41.77
336.911	41.48
337.122	41.35
337.333	41.85
337.544	41.99
337.755	42.53
337.966	41.51
338.177	41.12
338.388	41
338.599	40.42
338.811	40.33
339.022	40.89
339.233	40.15
339.444	40.19
339.655	39.66
339.866	39.11
340.076	38.95
340.287	39.17
340.498	39.56
340.709	39.02
340.92	39.12
341.131	40.13
341.342	39.77
341.553	40.87
341.764	41.47
341.975	41.05
342.185	40.76
342.396	40.5
342.607	40.81
342.818	40.79
343.029	41.94
343.239	42.02
343.45	41.29
343.661	41.47
343.872	41.22
344.082	41.02
344.293	41.01
344.504	40.67
344.714	40.52
344.925	39.97
345.136	39.26
345.346	38.65
345.557	38.22
345.768	38.02
345.978	37.57
346.189	37.38
346.399	37.22
346.61	38.78
346.821	39.26
347.031	39.19
347.242	39.8
347.452	39.92
347.663	40.02
347.873	39.7
348.084	39.76
348.294	40.2
348.504	40.15
348.715	40.57
348.925	38.87
349.136	38.71
349.346	38.41
349.557	37.97
349.767	38.17
349.977	38.03
350.188	39.37
350.398	40.31
350.608	40.34
350.819	40.45
351.029	39.87
351.239	40.46
351.449	40.47
351.66	41.45
351.87	41.24
352.08	41.25
352.29	41.31
352.501	39.93
352.711	39.42
352.921	39.57
353.131	39.34
353.341	39.4
353.552	38.59
353.762	38.19
353.972	37.66
354.182	38.02
354.392	37.68
354.602	37.35
354.812	38.14
355.022	38.24
355.232	38.83
355.442	38.58
355.652	38.64
355.862	38.84
356.072	38.64
356.282	38.4
356.492	38.31
356.702	38.23
356.912	38.12
357.122	38.11
357.332	37.54
357.542	36.23
357.752	36.65
357.962	36.33
358.171	36.32
358.381	37.15
358.591	37.13
358.801	37.61
359.011	38
359.221	37.3
359.43	37.28
359.64	37.02
359.85	37.61
360.06	37.25
360.269	37.8
360.479	37.4
360.689	36.63
360.899	37.03
361.108	36.18
361.318	36.09
361.528	36.49
361.737	36.17
361.947	36.43
362.156	36.57
362.366	36.64
362.576	36.12
362.785	36.5
362.995	36.68
363.204	36.26
363.414	36.24
363.623	36.21
363.833	35.84
364.042	35.89
364.252	35.89
364.461	35.47
364.671	35.35
364.88	35.46
365.09	35.32
365.299	35.48
365.509	35.1
365.718	35.63
365.927	35.85
366.137	35.57
366.346	35.37
366.555	35
366.765	35.59
366.974	35.06
367.183	34.94
367.393	34.89
367.602	34.79
367.811	35.12
368.021	35.01
368.23	34.29
368.439	34.23
368.648	34.08
368.857	33.82
369.067	32.55
369.276	32.92
369.485	33.03
369.694	32.7
369.903	31.97
370.112	31.81
370.321	31.48
370.531	30.91
370.74	31.08
370.949	31.2
371.158	31.63
371.367	31.93
371.576	31.78
371.785	31.4
371.994	31.45
372.203	31.84
372.412	31.88
372.621	32.01
372.83	32.4
373.039	32.57
373.248	32.07
373.457	31.61
373.666	31.31
373.874	30.48
374.083	30.46
374.292	30.51
374.501	30.25
374.71	29.97
374.919	29.27
375.128	29.29
375.336	29.4
375.545	29.72
375.754	29.7
375.963	29.64
376.171	29.94
376.38	29.62
376.589	29.1
376.798	29.11
377.006	29.15
377.215	29.48
377.424	29.29
377.632	28.92
377.841	28.63
378.05	28.63
378.258	28.51
378.467	28.54
378.675	28.5
378.884	28.42
379.093	28.37
379.301	28.12
379.51	27.94
379.718	27.93
379.927	27.74
380.135	27.82
380.344	27.72
380.552	27.91
380.761	28.03
380.969	28.29
381.177	28.05
381.386	27.36
381.594	27.24
381.803	27.22
382.011	26.93
382.219	26.97
382.428	26.87
382.636	26.83
382.845	26.74
383.053	26.4
383.261	26.3
383.469	26.13
383.678	26.52
383.886	26.52
384.094	26.12
384.302	25.97
384.511	25.78
384.719	25.25
384.927	25.27
385.135	25.47
385.343	25.36
385.552	25.34
385.76	25.56
385.968	25.41
386.176	25.31
386.384	25.71
386.592	25.49
386.8	25.46
387.008	25.66
387.216	25.32
387.424	24.95
387.633	24.87
387.841	24.21
388.049	24.06
388.257	23.89
388.465	23.91
388.672	23.42
388.88	23.09
389.088	22.75
389.296	22.68
389.504	23.03
389.712	22.79
389.92	22.68
390.128	22.85
390.336	22.58
390.544	22.69
390.751	22.79
390.959	22.61
391.167	22.89
391.375	22.79
391.583	22.53
391.79	22
391.998	22.12
392.206	22.4
392.414	22.08
392.621	22.32
392.829	21.92
393.037	21.68
393.244	21.72
393.452	21.54
393.66	21.73
393.867	21.72
394.075	21.73
394.283	21.3
394.49	21.23
394.698	21.65
394.905	21.58
395.113	21.6
395.32	21.52
395.528	21.27
395.735	21.21
395.943	21.19
396.15	21.27
396.358	20.96
396.565	20.88
396.773	20.89
396.98	20.62
397.188	20.55
397.395	20.44
397.602	20.14
397.81	20.29
398.017	20.35
398.225	20.2
398.432	20.09
398.639	20.34
398.847	20.47
399.054	20.02
399.261	20.1
399.468	20.16
399.676	20.53
399.883	20.71
400.09	20.69
400.297	20.54
400.505	20.64
400.712	20.23
400.919	20.17
401.126	20.43
401.333	20.38
401.54	20.27
401.748	19.93
401.955	19.71
402.162	19.63
402.369	19.38
402.576	19.08
402.783	18.83
402.99	18.93
403.197	19.13
403.404	18.71
403.611	18.81
403.818	18.54
404.025	18.43
404.232	18.55
404.439	18.59
404.646	18.54
404.853	19.05
405.06	19.38
405.267	19.64
405.474	19.37
405.681	19.53
405.887	19.35
406.094	19.63
406.301	19.67
406.508	19.42
406.715	19.25
406.922	19.25
407.128	19.08
407.335	18.73
407.542	18.83
407.749	18.82
407.955	18.77
408.162	18.73
408.369	18.72
408.575	19.14
408.782	19.22
408.989	19.33
409.195	19.62
409.402	19.64
409.609	19.6
409.815	19.2
410.022	19.25
410.228	19.22
410.435	19.28
410.642	19.11
410.848	18.82
411.055	19.01
411.261	18.98
411.468	18.66
411.674	18.53
411.881	18.63
412.087	18.82
412.294	19.03
412.5	19.11
412.706	18.93
412.913	19.16
413.119	18.9
413.326	18.58
413.532	18.31
413.738	18.46
413.945	18.59
414.151	18.43
414.357	18.34
414.564	18.16
414.77	18.37
414.976	18.54
415.182	18.42
415.389	18.66
415.595	18.7
415.801	18.8
416.007	18.69
416.214	18.45
416.42	18.56
416.626	18.55
416.832	18.34
417.038	18.05
417.244	17.88
417.45	17.71
417.657	17.59
417.863	17.63
418.069	17.77
418.275	17.76
418.481	17.74
418.687	17.66
418.893	17.5
419.099	17.4
419.305	17.3
419.511	17.33
419.717	17.36
419.923	17.38
420.129	17.35
420.335	17.19
420.541	17.12
420.746	17.06
420.952	17.01
421.158	17.01
421.364	17.17
421.57	17.24
421.776	17.32
421.982	17.34
422.187	17.23
422.393	17.14
422.599	17.06
422.805	17.24
423.01	17.22
423.216	17.21
423.422	17.26
423.628	17.11
423.833	16.97
424.039	16.92
424.245	16.82
424.45	16.92
424.656	16.91
424.862	16.99
425.067	16.84
425.273	16.88
425.478	16.89
425.684	16.89
425.889	16.98
426.095	17.03
426.301	17.04
426.506	17.09
426.712	16.92
426.917	16.93
427.123	16.92
427.328	16.92
427.533	17.08
427.739	17.11
427.944	17
428.15	16.96
428.355	17.14
428.561	17.09
428.766	17.03
428.971	17.12
429.177	17.2
429.382	17.2
429.587	17.11
429.793	17.09
429.998	16.98
430.203	16.97
430.408	17.02
430.614	16.83
430.819	16.84
431.024	16.93
431.229	16.98
431.434	16.92
431.64	16.84
431.845	16.98
432.05	16.87
432.255	16.85
432.46	16.88
432.665	16.77
432.87	16.77
433.076	16.79
433.281	16.61
433.486	16.65
433.691	16.69
433.896	16.67
434.101	16.58
434.306	16.41
434.511	16.35
434.716	16.34
434.921	16.23
435.126	16.28
435.331	16.32
435.535	16.44
435.74	16.26
435.945	16.08
436.15	16.07
436.355	16.13
436.56	16.32
436.765	16.45
436.97	16.49
437.174	16.69
437.379	16.79
437.584	16.74
437.789	16.8
437.993	16.99
438.198	17
438.403	17.14
438.608	17.14
438.812	16.92
439.017	16.92
439.222	17.01
439.426	16.95
439.631	16.91
439.836	16.87
440.04	16.8
440.245	16.8
440.45	16.83
440.654	16.62
440.859	16.57
441.063	16.68
441.268	16.67
441.472	16.67
441.677	16.68
441.881	16.72
442.086	16.6
442.29	16.64
442.495	16.51
442.699	16.51
442.904	16.58
443.108	16.47
443.312	16.5
443.517	16.51
443.721	16.43
443.925	16.31
444.13	16.17
444.334	16.23
444.538	16.15
444.743	16.17
444.947	16.1
445.151	15.86
445.356	15.9
445.56	15.73
445.764	15.6
445.968	15.48
446.173	15.47
446.377	15.38
446.581	15.33
446.785	15.29
446.989	15.19
447.193	15.26
447.398	15.48
447.602	15.49
447.806	15.51
448.01	15.52
448.214	15.52
448.418	15.45
448.622	15.38
448.826	15.35
449.03	15.2
449.234	15.21
449.438	15.03
449.642	14.9
449.846	14.92
450.05	15.01
450.254	14.87
450.458	14.71
450.662	14.96
450.866	14.81
451.069	14.84
451.273	14.98
451.477	14.86
451.681	14.77
451.885	14.75
452.089	14.54
452.292	14.63
452.496	14.71
452.7	14.81
452.904	14.55
453.107	14.69
453.311	14.69
453.515	14.56
453.719	14.62
453.922	14.79
454.126	14.59
454.33	14.91
454.533	14.64
454.737	14.72
454.94	14.82
455.144	14.99
455.348	14.91
455.551	15.08
455.755	15.31
455.958	15.53
456.162	15.44
456.365	15.7
456.569	15.46
456.772	15.49
456.976	15.33
457.179	15.22
457.383	14.99
457.586	15.18
457.79	15.01
457.993	14.82
458.196	14.77
458.4	14.73
458.603	14.76
458.807	14.77
459.01	14.84
459.213	14.97
459.417	15.04
459.62	15.07
459.823	15.15
460.026	15.16
460.23	15.22
460.433	15.24
460.636	15.31
460.839	15.44
461.042	15.57
461.246	15.51
461.449	15.54
461.652	15.46
461.855	15.59
462.058	15.71
462.261	15.68
462.464	15.8
462.668	15.7
462.871	15.77
463.074	15.6
463.277	15.58
463.48	15.75
463.683	15.87
463.886	15.98
464.089	16.01
464.292	15.83
464.495	15.83
464.698	15.9
464.901	16.09
465.104	16.41
465.306	16.57
465.509	16.41
465.712	16.57
465.915	16.55
466.118	16.6
466.321	16.51
466.524	16.76
466.726	17.12
466.929	17.17
467.132	17.01
467.335	16.81
467.538	16.85
467.74	16.91
467.943	16.98
468.146	16.98
468.348	16.96
468.551	17.27
468.754	17.18
468.956	16.98
469.159	16.96
469.362	17.09
469.564	17.07
469.767	17
469.969	17.11
470.172	16.97
470.375	16.93
470.577	17.17
470.78	17.07
470.982	17.04
471.185	17.14
471.387	17.14
471.59	17.11
471.792	17.22
471.995	17.35
472.197	17.28
472.399	17.4
472.602	17.35
472.804	17.22
473.007	17.3
473.209	17.49
473.411	17.52
473.614	17.41
473.816	17.41
474.018	17.45
474.22	17.47
474.423	17.69
474.625	17.65
474.827	17.76
475.03	17.95
475.232	17.8
475.434	17.63
475.636	17.61
475.838	17.82
476.04	17.9
476.243	17.8
476.445	17.81
476.647	17.69
476.849	17.61
477.051	17.58
477.253	17.6
477.455	17.58
477.657	17.47
477.859	17.49
478.061	17.34
478.263	17.26
478.465	17.36
478.667	17.13
478.869	17.09
479.071	17.21
479.273	17.3
479.475	17.03
479.677	17.09
479.879	17.25
480.081	17.16
480.283	17.26
480.485	17.38
480.686	17.33
480.888	17.44
481.09	17.48
481.292	17.36
481.494	17.25
481.695	17.18
481.897	17.12
482.099	17.04
482.301	17.05
482.502	17.01
482.704	16.94
482.906	16.87
483.107	16.83
483.309	16.76
483.511	16.73
483.712	16.7
483.914	16.77
484.115	16.72
484.317	16.72
484.519	16.7
484.72	16.67
484.922	16.65
485.123	16.64
485.325	16.64
485.526	16.68
485.728	16.7
485.929	16.79
486.131	16.75
486.332	16.84
486.534	16.81
486.735	16.82
486.936	16.88
487.138	16.92
487.339	17
487.541	17.05
487.742	17.09
487.943	17.13
488.144	17.1
488.346	17.12
488.547	17.14
488.748	17.18
488.95	17.19
489.151	17.23
489.352	17.26
489.553	17.23
489.755	17.22
489.956	17.25
490.157	17.2
490.358	17.31
490.559	17.39
490.76	17.45
490.961	17.59
491.163	17.66
491.364	17.69
491.565	17.83
491.766	17.88
491.967	18.03
492.168	18.09
492.369	18.09
492.57	18.11
492.771	18.21
492.972	18.31
493.173	18.37
493.374	18.57
493.575	18.7
493.776	18.75
493.976	18.93
494.177	19.05
494.378	19.22
494.579	19.81
494.78	20
494.981	20.16
495.182	20.31
495.382	20.45
495.583	20.49
495.784	20.58
495.985	20.68
496.185	20.88
496.386	20.9
496.587	21.03
496.788	21.02
496.988	21.11
497.189	21.34
497.39	21.54
497.59	21.68
497.791	21.87
497.992	21.95
498.192	22.09
498.393	22.2
498.593	22.43
498.794	22.5
498.994	22.53
499.195	22.7
499.395	22.78
499.596	23.03
499.796	23.14
499.997	23.26
500.197	23.6
500.398	23.72
500.598	23.88
500.799	23.94
500.999	24.24
501.199	24.48
501.4	24.7
501.6	24.99
501.801	25.03
502.001	25.36
502.201	25.72
502.402	25.86
502.602	26.23
502.802	26.53
503.002	27
503.203	27.24
503.403	27.49
503.603	27.83
503.803	27.94
504.003	28.16
504.204	28.37
504.404	28.5
504.604	28.67
504.804	28.9
505.004	29.02
505.204	29.12
505.404	29.06
505.604	29.36
505.804	29.38
506.005	29.64
506.205	29.88
506.405	30.09
506.605	30.25
506.805	30.54
507.005	30.62
507.204	30.9
507.404	31.11
507.604	31.75
507.804	31.95
508.004	32.35
508.204	32.64
508.404	32.8
508.604	32.98
508.804	33.31
509.003	33.48
509.203	33.83
509.403	34.15
509.603	34.47
509.803	34.63
510.002	34.93
510.202	35.12
510.402	35.19
510.602	35.55
510.801	35.86
511.001	36.13
511.201	36.39
511.4	36.57
511.6	36.78
511.8	37.03
511.999	37.19
512.199	37.38
512.398	37.53
512.598	37.9
512.797	38.13
512.997	38.19
513.197	38.32
513.396	38.72
513.596	39.03
513.795	39.22
513.994	39.31
514.194	39.62
514.393	39.75
514.593	40.08
514.792	40.2
514.992	40.48
515.191	40.9
515.39	41.19
515.59	41.33
515.789	41.59
515.988	41.89
516.188	42.32
516.387	42.54
516.586	43
516.786	43.35
516.985	43.67
517.184	43.9
517.383	44.12
517.582	44.28
517.782	44.5
517.981	44.85
518.18	45.03
518.379	45.21
518.578	45.4
518.777	45.44
518.976	45.57
519.176	45.83
519.375	45.91
519.574	46.09
519.773	46.3
519.972	46.49
520.171	46.55
520.37	46.74
520.569	46.85
520.768	47.05
520.967	47.36
521.166	47.55
521.365	47.57
521.564	47.86
521.762	47.93
521.961	48.17
522.16	48.3
522.359	48.39
522.558	48.64
522.757	48.88
522.956	48.99
523.154	49.08
523.353	49.29
523.552	49.62
523.751	49.8
523.949	50.03
524.148	50.22
524.347	50.51
524.546	50.8
524.744	50.91
524.943	51.03
525.142	51.31
525.34	51.45
525.539	51.55
525.737	51.68
525.936	51.86
526.135	52.09
526.333	52.22
526.532	52.33
526.73	52.39
526.929	52.59
527.127	52.81
527.326	52.9
527.524	53.06
527.723	53.15
527.921	53.15
528.12	53.28
528.318	53.24
528.516	53.3
528.715	53.35
528.913	53.41
529.112	53.47
529.31	53.46
529.508	53.48
529.707	53.56
529.905	53.66
530.103	53.81
530.301	53.89
530.5	54.1
530.698	54.21
530.896	54.4
531.094	54.57
531.293	54.6
531.491	54.77
531.689	55
531.887	55.13
532.085	55.19
532.283	55.26
532.481	55.22
532.68	55.35
532.878	55.48
533.076	55.36
533.274	55.45
533.472	55.58
533.67	55.61
533.868	55.63
534.066	55.76
534.264	55.88
534.462	55.91
534.66	55.98
534.858	55.97
535.056	56.02
535.253	56.28
535.451	56.35
535.649	56.41
535.847	56.62
536.045	56.63
536.243	56.64
536.441	56.62
536.638	56.79
536.836	56.92
537.034	56.92
537.232	57.02
537.43	57.07
537.627	57.24
537.825	57.24
538.023	57.26
538.22	57.43
538.418	57.53
538.616	57.58
538.813	57.69
539.011	57.79
539.209	57.84
539.406	57.84
539.604	57.96
539.801	58.06
539.999	58.21
540.196	58.31
540.394	58.32
540.591	58.29
540.789	58.41
540.986	58.47
541.184	58.49
541.381	58.57
541.579	58.61
541.776	58.53
541.974	58.45
542.171	58.48
542.368	58.4
542.566	58.49
542.763	58.52
542.96	58.52
543.158	58.5
543.355	58.54
543.552	58.62
543.75	58.73
543.947	58.93
544.144	59.14
544.341	59.33
544.539	59.53
544.736	59.55
544.933	59.6
545.13	59.81
545.327	59.83
545.524	59.77
545.722	59.78
545.919	59.63
546.116	59.54
546.313	59.44
546.51	59.27
546.707	59.16
546.904	59.26
547.101	59.42
547.298	59.4
547.495	59.48
547.692	59.51
547.889	59.59
548.086	59.75
548.283	59.78
548.48	59.89
548.677	59.76
548.874	59.88
549.07	59.95
549.267	59.8
549.464	59.73
549.661	59.57
549.858	59.7
550.055	59.65
550.251	59.58
550.448	59.68
550.645	59.66
550.842	59.66
551.038	59.69
551.235	59.63
551.432	59.66
551.628	59.62
551.825	59.68
552.022	59.83
552.218	59.95
552.415	59.98
552.612	59.97
552.808	59.99
553.005	60.26
553.201	60.4
553.398	60.18
553.594	60.25
553.791	60.33
553.987	60.49
554.184	60.27
554.38	60.27
554.577	60.37
554.773	60.48
554.97	60.43
555.166	60.48
555.362	60.48
555.559	60.62
555.755	60.58
555.952	60.84
556.148	60.93
556.344	61.07
556.541	61.15
556.737	60.93
556.933	60.89
557.129	61
557.326	60.74
557.522	60.75
557.718	60.91
557.914	60.88
558.11	60.73
558.307	60.39
558.503	60.44
558.699	60.47
558.895	60.51
559.091	60.51
559.287	60.57
559.483	60.7
559.679	60.48
559.876	60.59
560.072	60.61
560.268	60.62
560.464	60.93
560.66	60.93
560.856	61.04
561.052	61.42
561.247	61.44
561.443	61.44
561.639	61.47
561.835	61.89
562.031	61.64
562.227	61.8
562.423	61.7
562.619	61.64
562.815	61.92
563.01	61.98
563.206	61.87
563.402	61.8
563.598	61.86
563.793	61.96
563.989	61.75
564.185	61.87
564.381	61.69
564.576	61.85
564.772	62.05
564.968	61.99
565.163	61.63
565.359	61.49
565.555	61.53
565.75	61.34
565.946	61.23
566.141	61.17
566.337	61.17
566.532	61.26
566.728	61.14
566.923	60.78
567.119	60.69
567.314	60.82
567.51	60.95
567.705	60.94
567.901	60.93
568.096	61.05
568.292	61.21
568.487	61.2
568.682	61.15
568.878	61.15
569.073	61.49
569.268	61.26
569.464	61.24
569.659	61.15
569.854	60.95
570.05	61.16
570.245	61.03
570.44	60.83
570.635	60.97
570.831	61.09
571.026	61.1
571.221	61.05
571.416	61.12
571.611	61.32
571.806	61.59
572.002	61.63
572.197	61.64
572.392	61.52
572.587	61.6
572.782	61.58
572.977	61.56
573.172	61.7
573.367	61.72
573.562	61.81
573.757	61.61
573.952	61.37
574.147	61.6
574.342	61.58
574.537	61.82
574.732	61.63
574.927	61.78
575.121	61.72
575.316	61.63
575.511	61.66
575.706	61.63
575.901	61.61
576.096	61.66
576.29	61.52
576.485	61.52
576.68	61.51
576.875	61.61
577.069	61.39
577.264	61.5
577.459	61.41
577.654	61.22
577.848	61.39
578.043	61.45
578.238	61.42
578.432	61.38
578.627	61.15
578.821	61.13
579.016	61.43
579.21	61.42
579.405	61.28
579.6	61.23
579.794	61.45
579.989	61.17
580.183	61.63
580.378	61.77
580.572	61.82
580.766	62.07
580.961	62.13
581.155	61.85
581.35	62.15
581.544	62.3
581.738	62.36
581.933	62.37
582.127	62.48
582.321	62.07
582.516	61.68
582.71	61.65
582.904	61.45
583.099	61.55
583.293	61.59
583.487	61.41
583.681	61.26
583.875	61.51
584.07	61.31
584.264	61.28
584.458	61.15
584.652	61.47
584.846	61.46
585.04	61.51
585.234	61.35
585.428	61.43
585.623	61.11
585.817	61.08
586.011	60.85
586.205	61.2
586.399	61.18
586.593	61.3
586.787	61.19
586.981	61.15
587.174	61.45
587.368	61.4
587.562	61.32
587.756	61.5
587.95	61.57
588.144	61.72
588.338	61.43
588.532	61.35
588.725	61.17
588.919	61.33
589.113	61.35
589.307	61.01
589.501	61.01
589.694	61.09
589.888	61.3
590.082	61.33
590.275	61.06
590.469	61.03
590.663	60.99
590.856	61.18
591.05	61.08
591.244	61.21
591.437	61.32
591.631	61.55
591.824	61.49
592.018	61.35
592.212	61.38
592.405	61.64
592.599	61.71
592.792	61.87
592.986	62.02
593.179	61.87
593.372	61.7
593.566	61.68
593.759	61.41
593.953	61.49
594.146	61.6
594.339	61.72
594.533	61.68
594.726	61.53
594.92	61.51
595.113	61.46
595.306	61.53
595.499	61.62
595.693	61.52
595.886	61.56
596.079	61.59
596.272	61.45
596.466	61.32
596.659	61.22
596.852	61.19
597.045	61.19
597.238	60.86
597.431	60.85
597.624	60.83
597.818	60.85
598.011	60.85
598.204	60.85
598.397	60.92
598.59	60.76
598.783	60.72
598.976	60.81
599.169	60.73
599.362	60.89
599.555	60.69
599.748	60.67
599.941	60.77
600.134	60.67
600.326	60.41
600.519	60.13
600.712	60.05
600.905	59.98
601.098	60.23
601.291	60.41
601.483	60.41
601.676	60.59
601.869	60.72
602.062	60.5
602.255	60.38
602.447	60.34
602.64	60.4
602.833	60.27
603.025	60.35
603.218	60.2
603.411	59.97
603.603	60
603.796	59.99
603.989	59.75
604.181	59.83
604.374	59.93
604.566	59.9
604.759	59.82
604.951	59.72
605.144	59.59
605.336	59.58
605.529	59.64
605.721	59.48
605.914	59.48
606.106	59.49
606.299	59.45
606.491	59.34
606.683	59.57
606.876	59.38
607.068	59.51
607.26	59.74
607.453	59.47
607.645	59.39
607.837	59.52
608.03	59.37
608.222	59.44
608.414	59.38
608.606	59.59
608.799	59.42
608.991	59.45
609.183	59.58
609.375	59.38
609.567	59.31
609.759	59.43
609.952	59.43
610.144	59.41
610.336	59.31
610.528	59.13
610.72	58.6
610.912	58.51
611.104	58.54
611.296	58.54
611.488	58.52
611.68	58.44
611.872	58.24
612.064	58.13
612.256	58.03
612.448	57.98
612.64	58.14
612.832	58.51
613.023	58.44
613.215	58.46
613.407	58.32
613.599	58.24
613.791	58.68
613.983	58.37
614.174	58.46
614.366	58.6
614.558	58.39
614.75	58.23
614.941	58.21
615.133	57.97
615.325	58.17
615.516	58.07
615.708	58.1
615.9	57.77
616.091	58.05
616.283	57.64
616.475	57.57
616.666	57.78
616.858	57.61
617.049	57.66
617.241	58.03
617.432	57.77
617.624	57.87
617.815	57.62
618.007	57.52
618.198	57.4
618.39	57.52
618.581	57.43
618.773	57.5
618.964	57.64
619.155	57.52
619.347	57.09
619.538	57.02
619.729	56.73
619.921	56.71
620.112	56.79
620.303	56.62
620.494	56.62
620.686	56.63
620.877	56.29
621.068	56.05
621.259	56.05
621.451	56.29
621.642	56.33
621.833	56.18
622.024	56.36
622.215	56.31
622.406	56.15
622.597	55.74
622.788	55.53
622.98	55.74
623.171	55.89
623.362	55.88
623.553	55.78
623.744	55.56
623.935	55.68
624.126	55.54
624.317	55.56
624.508	55.89
624.698	56.28
624.889	55.95
625.08	55.98
625.271	56.07
625.462	55.88
625.653	55.67
625.844	55.57
626.034	55.67
626.225	55.67
626.416	55.53
626.607	55.36
626.798	55.27
626.988	55.86
627.179	55.66
627.37	55.6
627.56	55.39
627.751	55.54
627.942	55.52
628.132	55.44
628.323	55.49
628.514	55.55
628.704	55.58
628.895	55.5
629.085	55.11
629.276	54.98
629.466	54.58
629.657	54.72
629.847	54.39
630.038	54.57
630.228	54.49
630.419	54.2
630.609	54.17
630.8	54.19
630.99	54.2
631.181	54.1
631.371	53.96
631.561	54.3
631.752	54.36
631.942	54.48
632.132	54.42
632.323	54.12
632.513	54.34
632.703	53.99
632.893	53.88
633.084	53.73
633.274	53.64
633.464	53.66
633.654	53.43
633.844	53.4
634.034	53.36
634.225	53.29
634.415	53.69
634.605	53.49
634.795	53.53
634.985	53.48
635.175	53.6
635.365	53.34
635.555	53.44
635.745	53.71
635.935	53.62
636.125	53.38
636.315	53.39
636.505	52.76
636.695	52.44
636.885	52.27
637.075	51.73
637.265	51.58
637.455	51.87
637.644	51.86
637.834	51.87
638.024	51.64
638.214	51.78
638.404	51.26
638.593	51.34
638.783	51.64
638.973	51.69
639.163	52.26
639.352	52.28
639.542	52.28
639.732	52.28
639.921	51.92
640.111	51.95
640.301	51.83
640.49	52.22
640.68	52.48
640.87	52.42
641.059	52.48
641.249	52.5
641.438	52.33
641.628	51.9
641.817	51.67
642.007	51.52
642.196	51.5
642.386	51.53
642.575	51.5
642.764	51.37
642.954	51.36
643.143	51.78
643.333	51.26
643.522	51.24
643.711	51.43
643.901	51.77
644.09	52.17
644.279	52.24
644.469	52
644.658	51.89
644.847	52.17
645.036	51.74
645.226	51.35
645.415	51.48
645.604	51.49
645.793	51.48
645.982	50.89
646.171	50.35
646.361	49.98
646.55	50.47
646.739	50.44
646.928	50.13
647.117	50.51
647.306	50.59
647.495	50.87
647.684	50.99
647.873	50.95
648.062	51.14
648.251	51.22
648.44	51.42
648.629	51
648.818	50.57
649.007	50.51
649.196	50.57
649.384	50.33
649.573	49.94
649.762	49.55
649.951	49.66
650.14	49.53
650.328	49.55
650.517	49.41
650.706	49.73
650.895	49.9
651.083	50.01
651.272	49.76
651.461	49.95
651.65	50.29
651.838	50.5
652.027	50.17
652.216	49.95
652.404	49.59
652.593	49.88
652.781	49.45
652.97	49.44
653.158	48.93
653.347	49.03
653.535	49.19
653.724	48.56
653.912	48.69
654.101	48.76
654.289	49.2
654.478	49.65
654.666	49.05
654.855	49.46
655.043	49.47
655.231	49.81
655.42	49.38
655.608	48.71
655.796	49.17
655.985	48.86
656.173	49.07
656.361	48.68
656.55	48.55
656.738	48.9
656.926	48.78
657.114	48.69
657.302	48.54
657.491	48.75
657.679	49.12
657.867	49
658.055	49.14
658.243	48.93
658.431	49.1
658.619	48.9
658.807	48.9
658.996	48.72
659.184	48.84
659.372	48.95
659.56	49.07
659.748	48.8
659.936	48.69
660.124	48.74
660.311	48.59
660.499	48.42
660.687	48.38
660.875	48.36
661.063	48.25
661.251	48.03
661.439	48.16
661.627	47.95
661.814	47.95
662.002	47.69
662.19	47.22
662.378	46.98
662.565	47.12
662.753	47.12
662.941	47.19
663.129	47.07
663.316	47.04
663.504	46.64
663.692	46.88
663.879	47
664.067	47.2
664.254	47.31
664.442	47.77
664.63	47.84
664.817	47.83
665.005	47.47
665.192	47.62
665.38	47.91
665.567	47.99
665.755	47.81
665.942	48.29
666.13	47.92
666.317	48.34
666.504	47.92
666.692	47.94
666.879	47.88
667.067	48.2
667.254	47.77
667.441	47.36
667.629	46.95
667.816	46.66
668.003	46.05
668.19	46.39
668.378	46
668.565	46.16
668.752	45.98
668.939	46.4
669.127	45.96
669.314	46.37
669.501	46.73
669.688	47.15
669.875	47.01
670.062	47.07
670.249	47.06
670.436	47.11
670.623	47.09
670.81	46.77
670.997	46.08
671.184	45.78
671.371	45.77
671.558	45.68
671.745	45.68
671.932	45.89
672.119	45.8
672.306	45.89
672.493	45.4
672.68	45.57
672.867	45.48
673.054	45.76
673.24	46
673.427	46.27
673.614	46.44
673.801	46.54
673.988	46.72
674.174	46.59
674.361	46.29
674.548	46.45
674.734	46.66
674.921	46.82
675.108	46.67
675.294	47.19
675.481	46.61
675.668	46.79
675.854	46.68
676.041	46.38
676.227	46.35
676.414	46.22
676.601	46.42
676.787	46.43
676.974	46.46
677.16	46.52
677.347	46.19
677.533	46.2
677.719	45.55
677.906	45.07
678.092	44.9
678.279	45
678.465	45.08
678.651	44.82
678.838	44.65
679.024	44.58
679.21	44.83
679.397	44.58
679.583	44.46
679.769	44.44
679.955	44.53
680.142	44.37
680.328	44.28
680.514	44.45
680.7	44.21
680.886	44.07
681.073	43.89
681.259	43.74
681.445	43.68
681.631	43.66
681.817	43.58
682.003	43.4
682.189	43.54
682.375	43.41
682.561	43.07
682.747	43.32
682.933	43.42
683.119	43.55
683.305	43.41
683.491	43.84
683.677	43.98
683.863	44.21
684.049	44.79
684.235	45.13
684.42	45.1
684.606	45.06
684.792	45.24
684.978	45.37
685.164	44.87
685.349	44.89
685.535	44.78
685.721	44.84
685.907	44.29
686.092	43.6
686.278	43.14
686.464	43.59
686.649	43.85
686.835	43.66
687.021	43.58
687.206	44.52
687.392	44.32
687.577	44.01
687.763	43.56
687.948	43.81
688.134	44.26
688.319	44.07
688.505	44.15
688.69	43.68
688.876	43.69
689.061	42.94
689.247	42.72
689.432	42.54
689.618	42.37
689.803	42.39
689.988	42.41
690.174	41.93
690.359	42.4
690.544	41.95
690.73	41.92
690.915	41.88
691.1	42.47
691.285	42.37
691.471	42.5
691.656	42.81
691.841	43.27
692.026	43.49
692.211	43.62
692.396	43.49
692.582	43.68
692.767	44.19
692.952	43.91
693.137	43.69
693.322	43.43
693.507	43.89
693.692	43.75
693.877	43.77
694.062	43.59
694.247	43.78
694.432	43.54
694.617	43.37
694.802	43.24
694.987	43.79
695.172	43.78
695.357	43.85
695.541	43.43
695.726	43.41
695.911	43.31
696.096	43.17
696.281	42.98
696.466	43.56
696.65	43.39
696.835	43.03
697.02	42.64
697.204	42.88
697.389	42.72
697.574	43.07
697.759	42.84
697.943	42.68
698.128	42.59
698.312	42.68
698.497	42.08
698.682	42.17
698.866	42.56
699.051	42.77
699.235	42.43
699.42	42.57
699.604	42.39
699.789	42.44
699.973	42.34
700.158	42.27
700.342	42.42
700.527	42.73
700.711	42.64
700.895	42.39
701.08	42.13
701.264	41.92
701.448	41.75
701.633	41.56
701.817	42.21
702.001	42.13
702.186	42.61
702.37	41.87
702.554	41.23
702.738	41.36
702.923	41.65
703.107	41.9
703.291	42.33
703.475	42.13
703.659	42.28
703.843	41.48
704.027	41.62
704.212	41.63
704.396	42.64
704.58	43.39
704.764	43.33
704.948	42.6
705.132	42.54
705.316	42.89
705.5	43.44
705.684	43.78
705.868	44.19
706.052	44.15
706.235	43.99
706.419	43.14
706.603	42.88
706.787	42.07
706.971	42.77
707.155	42.69
707.339	42.16
707.522	41.73
707.706	41.63
707.89	41.25
708.074	41.18
708.257	40.67
708.441	41.05
708.625	41.53
708.808	42.16
708.992	42.01
709.176	41.54
709.359	41.35
709.543	41.69
709.727	41.87
709.91	42.19
710.094	42.09
710.277	42.49
710.461	42.19
710.644	42.16
710.828	42.29
711.011	42.5
711.195	42.88
711.378	43.34
711.562	43.39
711.745	43.15
711.928	43.05
712.112	43.58
712.295	42.87
712.478	43.18
712.662	43.1
712.845	43.24
713.028	42.95
713.212	42.96
713.395	42.65
713.578	42.65
713.761	42.84
713.945	43.17
714.128	43.12
714.311	44.32
714.494	44.3
714.677	43.88
714.86	43.44
715.043	44.18
715.227	44.11
715.41	43.89
715.593	43.73
715.776	43.43
715.959	43.18
716.142	43.06
716.325	42.83
716.508	42.62
716.691	43.53
716.874	43.78
717.057	43.14
717.239	43.26
717.422	43.59
717.605	43.57
717.788	43.41
717.971	43.36
718.154	43.33
718.337	43.16
718.519	43.09
718.702	42.45
718.885	42.27
719.068	41.77
719.25	41.92
719.433	41.59
719.616	40.95
719.798	41.13
719.981	41.14
720.164	40.67
720.346	40.4
720.529	40.1
720.712	40.05
720.894	40.33
721.077	41.08
721.259	40.53
721.442	41.36
721.624	41.96
721.807	42.22
721.989	42.06
722.172	43.13
722.354	43.53
722.537	44.22
722.719	43.85
722.901	44.02
723.084	43.8
723.266	44.47
723.448	43.09
723.631	43.01
723.813	42.69
723.995	42.61
724.178	41.92
724.36	41.32
724.542	41.18
724.724	41.89
724.907	41.81
725.089	41.57
725.271	41.24
725.453	42.27
725.635	43.08
725.817	43.63
725.999	42.89
726.181	42.98
726.364	43.34
726.546	43.01
726.728	42.71
726.91	42.67
727.092	42.23
727.274	42.32
727.456	42.52
727.638	42.01
727.819	41.89
728.001	41.98
728.183	42.04
728.365	42.08
728.547	42.15
728.729	42.12
728.911	41.9
729.093	41.97
729.274	42.31
729.456	41.96
729.638	41.58
729.82	41.17
730.001	41.38
730.183	41.23
730.365	40.99
730.546	41.58
730.728	41.46
730.91	41.15
731.091	41.75
731.273	41.72
731.455	41.94
731.636	42.63
731.818	42.18
731.999	42.74
732.181	42.39
732.362	42.88
732.544	42.66
732.725	42.52
732.907	42.87
733.088	42.74
733.27	41.83
733.451	41.38
733.633	40.85
733.814	40.93
733.995	39.8
734.177	39.82
734.358	38.55
734.539	38.39
734.721	38.55
734.902	38.98
735.083	39.21
735.264	40.28
735.446	41.25
735.627	41.51
735.808	41.76
735.989	42.74
736.17	42.66
736.351	43.42
736.533	43.11
736.714	42.24
736.895	41.76
737.076	41.17
737.257	40.71
737.438	39.45
737.619	39.15
737.8	39.09
737.981	39.67
738.162	40.01
738.343	40.96
738.524	41.06
738.705	42.46
738.886	41.44
739.067	41.52
739.247	41.59
739.428	41.9
739.609	42
739.79	41.38
739.971	40.7
740.151	39.89
740.332	39.25
740.513	39.64
740.694	38.23
740.874	39.07
741.055	39.12
741.236	39.05
741.417	38.92
741.597	38.44
741.778	39.4
741.958	40.24
742.139	41.04
742.32	40.55
742.5	40.89
742.681	41.36
742.861	41.44
743.042	41.64
743.222	41.83
743.403	42.2
743.583	42.87
743.764	41.47
743.944	40.69
744.124	40.66
744.305	41.16
744.485	39.74
744.666	39.55
744.846	40.86
745.026	41.22
745.207	40.35
745.387	41.04
745.567	41.11
745.747	42.31
745.928	42.3
746.108	42.48
746.288	41.57
746.468	42.69
746.648	43.34
746.829	41.85
747.009	41.83
747.189	42.99
747.369	42.54
747.549	42.11
747.729	42.12
747.909	41.24
748.089	41.48
748.269	41
748.449	41.24
748.629	40.19
748.809	40.42
748.989	40.7
749.169	39.9
749.349	39.4
749.529	39.05
749.709	38.27
749.889	39.12
750.068	38.62
750.248	39.86
750.428	40.52
750.608	40.98
750.788	41.93
750.967	41.59
751.147	42.54
751.327	42.65
751.507	42.99
751.686	43.72
751.866	43.88
752.046	43.66
752.225	43.52
752.405	41.71
752.585	42.14
752.764	41.63
752.944	41.93
753.123	41.58
753.303	41.27
753.482	41.21
753.662	41.75
753.841	41.26
754.021	41.14
754.2	41
754.38	42.21
754.559	41.86
754.739	41.5
754.918	40.6
755.097	39.43
755.277	39.78
755.456	40.26
755.635	39
755.815	39.72
755.994	39.63
756.173	39.64
756.352	40.01
756.532	39.56
756.711	39.16
756.89	40.05
757.069	40.6
757.248	40.8
757.427	39.78
757.607	40.8
757.786	39.89
757.965	40.66
758.144	39.98
758.323	38.41
758.502	39.65
758.681	38.99
758.86	38.5
759.039	38.56
759.218	37.98
759.397	36.98
759.576	35.78
759.755	35.44
759.934	35.05
760.113	36.24
760.291	36.71
760.47	35.67
760.649	36.28
760.828	35.76
761.007	36.16
761.186	36.47
761.364	38.03
761.543	38.68
761.722	39.3
761.901	38.58
762.079	38.13
762.258	38.09
762.437	37.87
762.615	38.27
762.794	38.42
762.972	37.69
763.151	37.83
763.33	37.75
763.508	37.78
763.687	37.49
763.865	38.41
764.044	37.76
764.222	37.62
764.401	38.73
764.579	39.16
764.758	38.66
764.936	39.12
765.114	39.08
765.293	39.77
765.471	39.49
765.65	39.81
765.828	39.24
766.006	39.43
766.184	40.03
766.363	38.43
766.541	37.37
766.719	37.97
766.898	37.8
767.076	38.27
767.254	37.49
767.432	38.31
767.61	38.1
767.788	37.97
767.967	38.55
768.145	38.38
768.323	39.46
768.501	40.71
768.679	40.26
768.857	40.78
769.035	40.72
769.213	40.49
769.391	40.5
769.569	40.86
769.747	42.01
769.925	42.81
770.103	42.69
770.281	42.03
770.459	41.45
770.636	41.56
770.814	41.21
770.992	40.42
771.17	40.48
771.348	39.96
771.525	39.42
771.703	37.88
771.881	36.77
772.059	37.79
772.236	37.96
772.414	36.98
772.592	37.33
772.769	38.41
772.947	39.16
773.125	40.33
773.302	40.62
773.48	42.18
773.657	43.06
773.835	43.46
774.013	43.25
774.19	44.5
774.368	44.68
774.545	44.3
774.723	43.3
774.9	42.67
775.077	41.9
775.255	40.77
775.432	39.54
775.61	39.54
775.787	39.43
775.964	38.82
776.142	38.59
776.319	39.52
776.496	39.15
776.674	39.47
776.851	40.26
777.028	40.08
777.205	40.82
777.382	40.67
777.56	42.18
777.737	43.66
777.914	44.08
778.091	44.09
778.268	43.65
778.445	44.02
778.622	43.25
778.8	42.17
778.977	43
779.154	44.69
779.331	44.32
779.508	43.31
779.685	42.6
779.862	40.5
780.038	38.46
780.215	40.02
780.392	41.38
780.569	41.78
780.746	41.81
780.923	40.4
781.1	39.11
781.277	41.99
781.453	41.7
781.63	40.09
781.807	41.87
781.984	41.37
782.16	40.71
782.337	40.01
782.514	40.53
782.691	41.3
782.867	41.81
783.044	42.17
783.221	40.36
783.397	41.1
783.574	41.45
783.75	41.41
783.927	44.39
784.103	44.09
784.28	45.29
784.456	44.16
784.633	41.99
784.809	41.81
784.986	41.2
785.162	40.76
785.339	40.45
785.515	43.09
785.692	43.58
785.868	44.8
786.044	43.49
786.221	41.7
786.397	41.46
786.573	45.13
786.749	45.97
786.926	46.38
787.102	48.38
787.278	46.95
787.454	44.68
787.631	42.51
787.807	40.78
787.983	42.07
788.159	43.37
788.335	44.07
788.511	43.1
788.687	41.39
788.863	40.98
789.039	39.71
789.216	39.59
789.392	39.45
789.568	42.78
789.744	43.52
789.919	43.94
790.095	43.36
790.271	43.61
790.447	41.91
790.623	41.72
790.799	40.92
790.975	41.76
791.151	43.34
791.327	44.04
791.502	41.04
791.678	40.64
791.854	41.22
792.03	40.99
792.205	40.2
792.381	41.45
792.557	42.85
792.733	42.74
792.908	41.1
793.084	41.75
793.259	40.27
793.435	43
793.611	42.17
793.786	40.85
793.962	41.02
794.137	40.97
794.313	41.5
794.488	42.34
794.664	44.19
794.839	44.66
795.015	42.83
795.19	43.57
795.366	42.61
795.541	43.18
795.716	41.91
795.892	43.01
796.067	42.05
796.242	42.99
796.418	42.95
796.593	42.68
796.768	41.95
796.944	44.46
797.119	45.62
797.294	46.44
797.469	47.19
797.644	46.33
797.82	46.13
797.995	47.42
798.17	45.21
798.345	43.97
798.52	44.65
798.695	45.12
798.87	42.28
799.045	40.4
799.22	42
799.395	40.24
799.57	42.23
799.745	42.06
799.92	42.3
800.095	42.66
800.27	43.66
800.445	41.46
800.62	42.72
800.795	43.06
800.97	42.61
801.145	39.37
801.319	39.34
801.494	39.06
801.669	38.84
801.844	38.47
802.018	39.52
802.193	36.77
802.368	37.13
802.543	36.55
802.717	37.53
802.892	38.43
803.067	38.39
803.241	38.31
803.416	38.77
803.59	37.48
803.765	37.51
803.94	37.77
804.114	40.21
804.289	42.26
804.463	42.51
804.638	41.06
804.812	39.95
804.986	41.5
805.161	43.18
805.335	42.57
805.51	42.26
805.684	42.05
805.858	39.96
806.033	39.48
806.207	37.29
806.381	36.11
806.556	35.79
806.73	38.45
806.904	39.76
807.078	38.99
807.253	39.32
807.427	39.37
807.601	38.82
807.775	40.21
807.949	39.83
808.123	40.77
808.298	41.14
808.472	43
808.646	42.38
808.82	41.66
808.994	43.24
809.168	43.24
809.342	46.35
809.516	47.12
809.69	46.03
809.864	47.83
810.038	47.42
810.212	46.64
810.385	46.13
810.559	45.5
810.733	46.84
810.907	46.68
811.081	45.73
811.255	42.95
811.428	43.46
811.602	43.78
811.776	45.64
811.95	46.07
812.123	48.55
812.297	48.73
812.471	48.22
812.644	46.58
812.818	45.47
812.992	47.89
813.165	47.21
813.339	44.6
813.512	47.84
813.686	44.67
813.86	46.46
814.033	47.46
814.207	46.72
814.38	49.18
814.554	48.93
814.727	47.82
814.9	45.33
815.074	47.64
815.247	49.79
815.421	44.81
815.594	44.01
815.767	44.47
815.941	41.98
816.114	40.16
816.287	40.17
816.46	36.09
816.634	35.62
816.807	34.92
816.98	35.76
817.153	36.87
817.327	40.8
817.5	42.14
817.673	42.1
817.846	39.88
818.019	42.65
818.192	41.81
818.365	42.82
818.538	43.13
818.711	45.41
818.884	43.83
819.057	42.9
819.23	41.68
819.403	41.11
819.576	40.31
819.749	43.36
819.922	41.23
820.095	40.8
820.268	44.26
820.441	44.23
820.614	41.78
820.786	42.17
820.959	42.22
821.132	40.03
821.305	38.95
821.477	37.66
821.65	36.49
821.823	37.75
821.996	36.37
822.168	35.25
822.341	34.66
822.514	34.93
822.686	34.28
822.859	33.54
823.031	34.12
823.204	34.63
823.376	34.93
823.549	34.6
823.722	34.13
823.894	34.92
824.067	34.88
824.239	35.32
824.411	35.69
824.584	35.98
824.756	36.71
824.929	36.32
825.101	36.12
825.273	35.79
825.446	36.72
825.618	37.07
825.79	36.38
825.963	36.94
826.135	37.14
826.307	36.74
826.479	37.04
826.652	37.53
826.824	37.72
826.996	37.13
827.168	37.65
827.34	36.71
827.512	37.26
827.684	38
827.856	36.96
828.029	37.56
828.201	37.22
828.373	37.43
828.545	36.7
828.717	36.65
828.889	37.19
829.061	37.67
829.232	38.24
829.404	36.72
829.576	36.27
829.748	36.08
829.92	35.44
830.092	36.72
830.264	36.85
830.436	36.03
830.607	35.56
830.779	35.22
830.951	34.04
831.123	33.99
831.294	34.79
831.466	36.02
831.638	39.17
831.809	38.92
831.981	40.98
832.153	40.44
832.324	43.84
832.496	44.74
832.667	47.33
832.839	48.25
833.011	48.59
833.182	49.69
833.354	47.89
833.525	45.46
833.697	43.84
833.868	40.5
834.039	39.65
834.211	36.43
834.382	36.54
834.554	36.47
834.725	35.66
834.896	35.36
835.068	36.2
835.239	35.24
835.41	35.99
835.581	36.86
835.753	36.61
835.924	37.54
836.095	40.29
836.266	40.06
836.438	39.22
836.609	39.39
836.78	39.71
836.951	37.6
837.122	39.57
837.293	38.94
837.464	40.55
837.635	42.52
837.806	42.77
837.977	40.71
838.148	41.56
838.319	41.89
838.49	42.92
838.661	45.03
838.832	46.22
839.003	43.16
839.174	43.99
839.345	40.45
839.516	35.85
839.687	34.91
839.857	34.11
840.028	33.78
840.199	33.46
840.37	33.98
840.54	30.18
840.711	31.21
840.882	35.16
841.053	39.08
841.223	37.25
841.394	40.17
841.564	42.91
841.735	45.27
841.906	42.91
842.076	40.73
842.247	41.57
842.417	45.13
842.588	46.63
842.758	49.6
842.929	45.27
843.099	48.99
843.27	49.55
843.44	46.45
843.611	44.86
843.781	46.06
843.951	52.88
844.122	50.9
844.292	47.07
844.462	44.08
844.633	40.85
844.803	40.25
844.973	41.95
845.144	41.58
845.314	49.53
845.484	54.14
845.654	59.77
845.824	61.81
845.995	63.35
846.165	66.25
846.335	70.06
846.505	68.88
846.675	72.44
846.845	70.67
847.015	75.73
847.185	73.24
847.355	70.42
847.525	66.83
847.695	56.19
847.865	55.06
848.035	56.2
848.205	51.26
848.375	51.27
848.545	45.9
848.715	44.14
848.884	36.44
849.054	35.68
849.224	31.42
849.394	40.8
849.564	47.42
849.733	46
849.903	45.46
850.073	52.39
850.243	53.33
850.412	62.08
850.582	61.16
850.752	65.7
850.921	62.64
851.091	66.33
851.26	62.29
851.43	59.39
851.599	61.99
851.769	62.55
851.939	55.99
852.108	61.39
852.278	54.27
852.447	58.12
852.616	61.94
852.786	60.77
852.955	58.09
853.125	59.67
853.294	56.61
853.463	55.22
853.633	55.34
853.802	56.49
853.971	51.7
854.141	54.34
854.31	49.83
854.479	38.75
854.648	43.13
854.818	47.24
854.987	36.59
855.156	41.05
855.325	36.19
855.494	33.58
855.663	37.49
855.832	32.75
856.001	30.79
856.171	34.39
856.34	45.7
856.509	43.24
856.678	38.27
856.847	38.19
857.016	35.13
857.185	37.23
857.353	40.36
857.522	30.87
857.691	37.51
857.86	44.8
858.029	49.2
858.198	49.6
858.367	53.6
858.535	57.11
858.704	59.12
858.873	65.04
859.042	67.88
859.21	63.44
859.379	70.75
859.548	69.37
859.717	67.55
859.885	67.79
860.054	62.61
860.222	64.12
860.391	71.24
860.56	75.34
860.728	75.11
860.897	74.8
861.065	76.42
861.234	70.73
861.402	69.91
861.571	67.35
861.739	59.59
861.908	56.03
862.076	58.6
862.244	50.56
862.413	56.47
862.581	53.39
862.749	56.11
862.918	50.06
863.086	52.28
863.254	48.6
863.423	50.53
863.591	57.53
863.759	58.12
863.927	53.68
864.096	57.1
864.264	55.35
864.432	53.66
864.6	58.67
864.768	68.58
864.936	67.08
865.104	69.63
865.272	74.17
865.44	76.85
865.608	76.53
865.776	69.8
865.944	62.49
866.112	58.6
866.28	57.91
866.448	52.42
866.616	51.45
866.784	54.95
866.952	55.29
867.12	53.49
867.288	52.27
867.455	54.3
867.623	62.24
867.791	65.58
867.959	66.47
868.127	72.04
868.294	72.65
868.462	69.54
868.63	70.58
868.797	66.46
868.965	64.53
869.133	57.74
869.3	59.1
869.468	57.06
869.636	58.67
869.803	56.86
869.971	54.66
870.138	58.69
870.306	56.87
870.473	49.62
870.641	44.65
870.808	51.03
870.975	57.26
871.143	52.89
871.31	53.32
871.478	60.03
871.645	64.3
871.812	65.62
871.98	56.8
872.147	62.38
872.314	65.12
872.482	75.95
872.649	74.27
872.816	69.76
872.983	71.01
873.15	63.28
873.318	58.71
873.485	55.85
873.652	61.68
873.819	62.45
873.986	69.14
874.153	67.27
874.32	66.44
874.487	63.16
874.654	66.82
874.821	64.53
874.988	68.1
875.155	69.47
875.322	72.26
875.489	64.91
875.656	66.25
875.823	59.62
875.99	63.93
876.157	59.38
876.324	57.61
876.49	52.41
876.657	66.49
876.824	70.06
876.991	65.86
877.157	67.75
877.324	66.29
877.491	73.27
877.658	70.52
877.824	75.26
877.991	73.61
878.157	76.38
878.324	79.53
878.491	74.75
878.657	77.7
878.824	76.25
878.99	71.64
879.157	75.1
879.323	72.57
879.49	71.75
879.656	66.54
879.823	66.91
879.989	60.35
880.156	57.89
880.322	48.62
880.488	40.43
880.655	39.63
880.821	47.63
880.987	44.16
881.154	40.08
881.32	33.14
881.486	32.94
881.652	32.48
881.819	32.77
881.985	30.76
882.151	32.13
882.317	31.74
882.483	31.11
882.649	27.79
882.816	27.25
882.982	27.83
883.148	30.01
883.314	29.2
883.48	28.85
883.646	29.26
883.812	29.3
883.978	29.99
884.144	31.29
884.31	32.9
884.476	34.02
884.642	35.78
884.807	36.47
884.973	37.77
885.139	38.01
885.305	40.61
885.471	41.11
885.637	41.35
885.802	43.34
885.968	43.02
886.134	42.95
886.3	43.13
886.465	41.89
886.631	40.69
886.797	38.62
886.962	40.42
887.128	39.9
887.293	40.15
887.459	42.38
887.625	40.39
887.79	43.75
887.956	46.51
888.121	47.9
888.287	50.3
888.452	52.67
888.618	57.38
888.783	58.3
