Data from LC_268_Reflection_3.txt Node
Date: Sat Nov 21 11:59:17 EST 2015
User: robert
Spectrometer: USB4E03001
Autoset integration time: false
Trigger mode: 4
Integration Time (sec): 1.000000E-1
Scans to average: 15
Electric dark correction enabled: true
Nonlinearity correction enabled: false
Boxcar width: 5
Stray light correction enabled: false
XAxis mode: Wavelengths
Stop averaging: false
Number of Pixels in Spectrum: 3648
>>>>>Begin Spectral Data<<<<<
177.566	-106.93
177.785	-68.44
178.005	-31.06
178.225	53.44
178.445	-35.58
178.665	-672.35
178.885	-456.19
179.105	152.53
179.324	52.23
179.544	138.06
179.764	949.4
179.984	159.91
180.204	165.7
180.423	113.74
180.643	102.89
180.863	123.46
181.083	98.87
181.302	146.51
181.522	135.16
181.742	177.47
181.961	158.71
182.181	121.07
182.401	215.59
182.621	197.62
182.84	228.96
183.06	216.97
183.279	177.94
183.499	174.21
183.719	171.11
183.938	149.04
184.158	158.35
184.377	160.74
184.597	167.93
184.816	139.47
185.036	140.17
185.256	133.27
185.475	105.06
185.695	108.2
185.914	100.35
186.134	99.65
186.353	120.31
186.572	110.69
186.792	97.23
187.011	102.68
187.231	111.77
187.45	110.83
187.67	105.99
187.889	135.19
188.108	177.17
188.328	239.36
188.547	246.92
188.766	213.1
188.986	230.95
189.205	366.98
189.424	389.03
189.644	308.33
189.863	-39.26
190.082	-157.08
190.302	140.88
190.521	2.08
190.74	18.6
190.959	-9.52
191.178	23.42
191.398	18.15
191.617	21.21
191.836	45.05
192.055	23.13
192.274	36.53
192.494	24.83
192.713	8.75
192.932	25.25
193.151	17.14
193.37	41.12
193.589	44.45
193.808	59.41
194.027	68.1
194.246	69.38
194.465	81.39
194.685	81.35
194.904	89.79
195.123	109.06
195.342	128.67
195.561	155.56
195.78	110.66
195.999	121.69
196.218	108.03
196.436	161.84
196.655	155.49
196.874	141.05
197.093	154.59
197.312	178.28
197.531	175.01
197.75	121.28
197.969	114.97
198.188	145.1
198.407	157.92
198.625	160.35
198.844	141.75
199.063	139.73
199.282	138.42
199.501	161
199.719	161.94
199.938	176.49
200.157	168.42
200.376	157.31
200.594	166.82
200.813	130.06
201.032	128.45
201.251	108.07
201.469	111.56
201.688	176.54
201.907	157.67
202.125	132.81
202.344	127.44
202.563	165.52
202.781	157.42
203	164.87
203.218	191.36
203.437	333.77
203.656	529.89
203.874	569.36
204.093	240.09
204.311	203.07
204.53	302.14
204.748	218.48
204.967	203.38
205.185	166.04
205.404	144.55
205.622	321.69
205.841	233.04
206.059	150.64
206.278	152.84
206.496	166.87
206.715	183.07
206.933	159.11
207.151	141.5
207.37	128.96
207.588	182.3
207.806	197.52
208.025	114.41
208.243	124.46
208.461	151.82
208.68	146.53
208.898	184.2
209.116	140
209.335	137.41
209.553	177.99
209.771	212.73
209.989	174.97
210.208	192.39
210.426	202.9
210.644	191.12
210.862	273.1
211.081	215.15
211.299	115.14
211.517	205.23
211.735	186.36
211.953	142.19
212.171	125.94
212.39	139.02
212.608	114.3
212.826	113.01
213.044	109.37
213.262	90.65
213.48	95.3
213.698	103.72
213.916	100
214.134	90.83
214.352	97.08
214.57	82.77
214.788	79.42
215.006	73.75
215.224	73.48
215.442	86.27
215.66	115.21
215.878	108.21
216.096	126.44
216.314	108.84
216.532	104.49
216.75	95.17
216.968	100.13
217.185	86.71
217.403	110.23
217.621	118.73
217.839	111.25
218.057	96.5
218.275	88.41
218.492	61.04
218.71	61.2
218.928	80.49
219.146	96.52
219.363	109.84
219.581	219.06
219.799	158.36
220.017	112.77
220.234	100.14
220.452	91.98
220.67	88.67
220.887	121.45
221.105	124.11
221.323	112.17
221.54	101.89
221.758	88.79
221.976	77.63
222.193	65.84
222.411	63.56
222.629	48.13
222.846	59.03
223.064	59.29
223.281	49.18
223.499	42.99
223.716	56.55
223.934	49.06
224.151	48.94
224.369	37
224.586	52.66
224.804	60.1
225.021	88.51
225.239	71.49
225.456	69.2
225.674	58.85
225.891	57.73
226.108	56.41
226.326	60.83
226.543	54.69
226.76	53.88
226.978	47.06
227.195	38.48
227.413	32.33
227.63	31.89
227.847	30.46
228.064	30.88
228.282	21.8
228.499	17.67
228.716	15.76
228.934	16.6
229.151	14.69
229.368	14.14
229.585	14.1
229.802	13.53
230.02	12.77
230.237	11.18
230.454	9.64
230.671	13.68
230.888	14.17
231.105	14.45
231.323	14.71
231.54	15.25
231.757	15.61
231.974	17.02
232.191	15.73
232.408	19.94
232.625	21.01
232.842	18.56
233.059	20.64
233.276	22.68
233.493	22.35
233.71	19.82
233.927	21.1
234.144	21.03
234.361	24.17
234.578	23.94
234.795	22.04
235.012	23.02
235.229	26.66
235.446	22.85
235.663	21.54
235.879	23.37
236.096	24.88
236.313	29.99
236.53	31.32
236.747	27.52
236.964	26.01
237.181	31.24
237.397	28.72
237.614	27.48
237.831	29.58
238.048	31.8
238.264	29.84
238.481	27.02
238.698	26.2
238.915	24.42
239.131	22.31
239.348	21.76
239.565	15.8
239.781	20.13
239.998	18.65
240.215	15.64
240.431	11.45
240.648	10.27
240.865	9.52
241.081	5.08
241.298	3.69
241.514	6.78
241.731	7.18
241.947	8.51
242.164	8.98
242.38	8.13
242.597	9.39
242.814	10.36
243.03	11.96
243.246	13.32
243.463	14.09
243.679	15.57
243.896	16.21
244.112	18.77
244.329	19.22
244.545	16.93
244.762	20.47
244.978	19.42
245.194	17.66
245.411	15.88
245.627	14.4
245.843	11.74
246.06	11.12
246.276	10.25
246.492	9.14
246.709	8.4
246.925	9.3
247.141	8.23
247.357	7.59
247.574	7.64
247.79	7.19
248.006	7.72
248.222	8.05
248.439	8.48
248.655	8.33
248.871	8.82
249.087	8.9
249.303	8.33
249.519	8.69
249.736	10.1
249.952	11.55
250.168	12.78
250.384	14.25
250.6	15.28
250.816	14.75
251.032	15.77
251.248	14.82
251.464	14.37
251.68	14.78
251.896	14.69
252.112	14.73
252.328	12.38
252.544	13.09
252.76	12.08
252.976	14.04
253.192	12.91
253.408	14.52
253.624	14.89
253.84	16
254.056	16.12
254.272	16.02
254.487	16.87
254.703	21.86
254.919	20.91
255.135	20.17
255.351	15.43
255.567	17.11
255.782	10.97
255.998	9.81
256.214	7.56
256.43	8.22
256.646	9.4
256.861	5.68
257.077	5.54
257.293	6.28
257.508	7.29
257.724	8.14
257.94	8.65
258.155	9.64
258.371	9.04
258.587	8.65
258.802	8.49
259.018	6.92
259.234	7.87
259.449	6.95
259.665	6.4
259.88	5.87
260.096	6
260.312	6.01
260.527	5.9
260.743	6.29
260.958	6.24
261.174	5.38
261.389	6.33
261.605	5.89
261.82	6
262.036	6.66
262.251	6.7
262.466	7.34
262.682	6.35
262.897	6.22
263.113	6.34
263.328	8.16
263.543	10.31
263.759	8.74
263.974	10.05
264.189	10.89
264.405	11.21
264.62	12.72
264.835	12.67
265.051	13.09
265.266	13.32
265.481	12.5
265.696	11.92
265.912	10.83
266.127	10.8
266.342	10.36
266.557	9.87
266.773	9.05
266.988	8.73
267.203	7.68
267.418	7.15
267.633	7.53
267.848	7.25
268.064	6.88
268.279	7.21
268.494	7.95
268.709	8.65
268.924	7.68
269.139	6.78
269.354	5.54
269.569	6.27
269.784	6.48
269.999	5.02
270.214	5.16
270.429	4.48
270.644	2.96
270.859	2.79
271.074	1.01
271.289	1.13
271.504	2.17
271.719	1.93
271.934	2.35
272.149	3.28
272.363	3.81
272.578	3.15
272.793	3.17
273.008	4.68
273.223	4.41
273.438	5.14
273.653	6.62
273.867	8.06
274.082	9.43
274.297	9.19
274.512	8.17
274.726	8.57
274.941	9.32
275.156	10.53
275.371	10.09
275.585	12.24
275.8	12.4
276.015	11.65
276.229	9.49
276.444	9.61
276.659	9.18
276.873	10.42
277.088	12.09
277.302	13.31
277.517	12.76
277.732	12.11
277.946	9.26
278.161	9.47
278.375	8.61
278.59	9.89
278.804	8.76
279.019	8.88
279.233	9.1
279.448	6.86
279.662	5.36
279.877	5.23
280.091	6.57
280.306	7.03
280.52	5.51
280.735	5.97
280.949	3.68
281.163	3.42
281.378	3.06
281.592	2.44
281.806	3.74
282.021	3.81
282.235	3.85
282.449	3.69
282.664	3.66
282.878	4.92
283.092	5.92
283.307	7.93
283.521	8.18
283.735	8.27
283.949	8.03
284.164	6.45
284.378	6.54
284.592	6.01
284.806	6.2
285.02	5.77
285.234	5.82
285.449	4.2
285.663	3.72
285.877	3.85
286.091	4.44
286.305	4.11
286.519	5.06
286.733	5.41
286.947	5.7
287.161	5.35
287.375	6.36
287.589	7.19
287.803	7.8
288.017	8.35
288.231	8.1
288.445	8.31
288.659	8.98
288.873	8.65
289.087	8.2
289.301	9.08
289.515	9.52
289.729	9.59
289.943	8.22
290.157	8.98
290.371	9.01
290.584	10.21
290.798	9.45
291.012	9.89
291.226	10.36
291.44	10.34
291.654	10.25
291.867	9.77
292.081	10.32
292.295	10.86
292.509	11.1
292.722	11.09
292.936	10.83
293.15	10.85
293.364	10.31
293.577	9.92
293.791	10.82
294.005	10.27
294.218	10.44
294.432	9.96
294.645	10.53
294.859	10.49
295.073	9.14
295.286	8.94
295.5	9.63
295.713	9.99
295.927	9.9
296.14	9.96
296.354	10.03
296.568	10.12
296.781	10.24
296.994	10.02
297.208	9.31
297.421	10.65
297.635	10.49
297.848	9.73
298.062	9.59
298.275	9.98
298.489	9.37
298.702	9.45
298.915	9.22
299.129	8.83
299.342	8.76
299.555	9.29
299.769	9.36
299.982	10.17
300.195	11.61
300.409	11.12
300.622	11.61
300.835	12.82
301.048	13.35
301.262	13.02
301.475	13.74
301.688	14.25
301.901	13.96
302.115	12.37
302.328	11.98
302.541	11.48
302.754	11.73
302.967	11.24
303.18	10.51
303.393	10.23
303.607	11.15
303.82	10.38
304.033	8.87
304.246	9.79
304.459	11.48
304.672	11.1
304.885	11.67
305.098	12.66
305.311	12.3
305.524	12.82
305.737	12.9
305.95	12.23
306.163	12.27
306.376	13.08
306.589	12.92
306.802	11.31
307.015	11.39
307.228	11.56
307.44	10.94
307.653	12.27
307.866	11.5
308.079	10.85
308.292	9.96
308.505	11.12
308.718	11.18
308.93	10.79
309.143	10.14
309.356	9.52
309.569	8.57
309.781	8.7
309.994	7.82
310.207	8.39
310.42	9.45
310.632	9.73
310.845	9.14
311.058	9
311.27	9.5
311.483	10.96
311.696	11.26
311.908	11.22
312.121	11.09
312.333	11.22
312.546	10.65
312.759	10.65
312.971	11.84
313.184	12.2
313.396	12.53
313.609	12.05
313.821	11.45
314.034	12.82
314.246	13.56
314.459	13.96
314.671	13.89
314.884	14.26
315.096	14.11
315.309	12.93
315.521	13.27
315.733	13.84
315.946	13.88
316.158	13.05
316.371	12.05
316.583	11.54
316.795	11.91
317.008	12.79
317.22	12.41
317.432	12.01
317.644	13.34
317.857	12.96
318.069	11.65
318.281	11.77
318.494	12.87
318.706	13.43
318.918	13.67
319.13	12.36
319.342	11.87
319.555	11.6
319.767	11.63
319.979	10.14
320.191	10.54
320.403	11.56
320.615	11.32
320.827	11.55
321.039	10.79
321.252	11.56
321.464	11.44
321.676	9.46
321.888	10.07
322.1	9.68
322.312	10.35
322.524	9.14
322.736	8.85
322.948	10.77
323.16	10.55
323.372	11.18
323.584	11.51
323.796	12.94
324.007	14.41
324.219	14.7
324.431	15.18
324.643	15.75
324.855	15.77
325.067	16.63
325.279	15.8
325.491	16.04
325.702	15.79
325.914	15.86
326.126	15.31
326.338	14.94
326.55	15.36
326.761	14.79
326.973	15.13
327.185	16.21
327.396	15.99
327.608	15.52
327.82	15.62
328.032	16.27
328.243	15.43
328.455	15.37
328.666	17.04
328.878	17.95
329.09	18.62
329.301	19.11
329.513	19.19
329.725	19.92
329.936	22.25
330.148	22.28
330.359	23.13
330.571	25.14
330.782	26.42
330.994	25.98
331.205	25.7
331.417	27.64
331.628	28.38
331.84	28.51
332.051	28.82
332.262	27.48
332.474	28.58
332.685	28.44
332.897	27.3
333.108	26.39
333.319	26.04
333.531	26.08
333.742	25.29
333.953	25.41
334.165	26.13
334.376	26.03
334.587	26.95
334.799	26.74
335.01	27.52
335.221	29.11
335.432	30.42
335.644	31.26
335.855	32.15
336.066	32.37
336.277	33.02
336.488	32.34
336.7	31.97
336.911	32.11
337.122	32.89
337.333	33.24
337.544	32.57
337.755	32.46
337.966	32.7
338.177	31.83
338.388	32.16
338.599	31.76
338.811	33.16
339.022	33.85
339.233	33.12
339.444	32.7
339.655	32.12
339.866	32.34
340.076	32.5
340.287	32.47
340.498	33.33
340.709	33.1
340.92	33
341.131	33.09
341.342	32.89
341.553	33.75
341.764	33.38
341.975	33.48
342.185	33.04
342.396	33.49
342.607	33.2
342.818	33.11
343.029	32.71
343.239	32.84
343.45	31.4
343.661	31.59
343.872	31.12
344.082	31.83
344.293	32.05
344.504	32.1
344.714	32.42
344.925	32.66
345.136	32.74
345.346	34.34
345.557	34.08
345.768	34.48
345.978	33.65
346.189	33.76
346.399	33.38
346.61	33.05
346.821	33.47
347.031	32.23
347.242	32.73
347.452	32.4
347.663	31.52
347.873	31.46
348.084	32.23
348.294	33.17
348.504	33.18
348.715	33.13
348.925	33.4
349.136	33.38
349.346	34.3
349.557	33.73
349.767	34.12
349.977	33.63
350.188	33.79
350.398	33.68
350.608	33.92
350.819	34.06
351.029	33.85
351.239	33.61
351.449	33.52
351.66	33.61
351.87	34.34
352.08	34.24
352.29	34.13
352.501	33.57
352.711	33.6
352.921	32.89
353.131	33.06
353.341	33.25
353.552	33.13
353.762	33.5
353.972	33.35
354.182	32.95
354.392	32.78
354.602	33.24
354.812	33.58
355.022	33.25
355.232	33.77
355.442	33.94
355.652	34.44
355.862	34.59
356.072	33.75
356.282	33.95
356.492	33.89
356.702	33.58
356.912	32.88
357.122	33.2
357.332	32.81
357.542	32.08
357.752	31.62
357.962	31.25
358.171	30.58
358.381	31.15
358.591	30.74
358.801	30.72
359.011	31.23
359.221	31.38
359.43	31.42
359.64	31.72
359.85	32.31
360.06	32.32
360.269	33.14
360.479	33.41
360.689	32.66
360.899	32.7
361.108	32.6
361.318	32.42
361.528	32.32
361.737	31.9
361.947	32.01
362.156	32.02
362.366	32.42
362.576	31.57
362.785	31.51
362.995	32.17
363.204	31.88
363.414	31.97
363.623	32.29
363.833	32.16
364.042	32.38
364.252	31.89
364.461	31.59
364.671	30.98
364.88	31.3
365.09	31.38
365.299	31.33
365.509	31.23
365.718	31.08
365.927	31
366.137	31.27
366.346	31.18
366.555	31.47
366.765	31.98
366.974	31.85
367.183	31.3
367.393	31.59
367.602	31.56
367.811	31.96
368.021	32.31
368.23	31.78
368.439	31.67
368.648	31.68
368.857	31.4
369.067	30.48
369.276	31.19
369.485	31.64
369.694	30.91
369.903	30.5
370.112	30.44
370.321	30.08
370.531	29.9
370.74	30.55
370.949	30.45
371.158	30.76
371.367	31.25
371.576	30.76
371.785	30.54
371.994	30.69
372.203	30.67
372.412	30.38
372.621	30.45
372.83	30.21
373.039	29.82
373.248	29.34
373.457	29.34
373.666	29.15
373.874	28.79
374.083	28.9
374.292	28.83
374.501	28.88
374.71	28.78
374.919	28.58
375.128	28.83
375.336	28.68
375.545	29.15
375.754	28.61
375.963	28.35
376.171	28.52
376.38	28.24
376.589	27.99
376.798	27.71
377.006	27.74
377.215	27.49
377.424	27.48
377.632	27.54
377.841	27.46
378.05	27.69
378.258	27.97
378.467	27.93
378.675	27.79
378.884	27.86
379.093	27.95
379.301	28.39
379.51	28.45
379.718	28.36
379.927	28.24
380.135	27.56
380.344	27.64
380.552	26.97
380.761	26.8
380.969	27.17
381.177	27.27
381.386	26.76
381.594	26.49
381.803	26.28
382.011	26.51
382.219	26.24
382.428	26.77
382.636	26.3
382.845	26.78
383.053	26.87
383.261	26.81
383.469	26.78
383.678	27.1
383.886	27.08
384.094	26.9
384.302	26.17
384.511	26.04
384.719	25.66
384.927	26.01
385.135	26.03
385.343	26.07
385.552	26.1
385.76	26.21
385.968	26.27
386.176	26.04
386.384	26.01
386.592	26.05
386.8	26.28
387.008	26.92
387.216	26.96
387.424	26.84
387.633	26.54
387.841	26.32
388.049	26.41
388.257	26.46
388.465	26.28
388.672	26.27
388.88	26.43
389.088	26.24
389.296	25.44
389.504	25.12
389.712	25.14
389.92	24.97
390.128	24.76
390.336	24.47
390.544	24.56
390.751	24.72
390.959	24.77
391.167	24.94
391.375	24.94
391.583	25.06
391.79	25.23
391.998	25.19
392.206	25.31
392.414	25.12
392.621	25
392.829	24.75
393.037	24.7
393.244	24.91
393.452	24.86
393.66	25.16
393.867	25.28
394.075	25.31
394.283	24.98
394.49	25.14
394.698	25.6
394.905	25.68
395.113	25.87
395.32	25.91
395.528	25.56
395.735	25.54
395.943	25.22
396.15	25.24
396.358	24.81
396.565	24.98
396.773	24.77
396.98	24.76
397.188	24.77
397.395	24.5
397.602	24.54
397.81	24.77
398.017	24.49
398.225	24.47
398.432	24.54
398.639	24.82
398.847	24.98
399.054	25.17
399.261	25.04
399.468	25.2
399.676	25.34
399.883	25.02
400.09	25.07
400.297	25.36
400.505	25.32
400.712	25.31
400.919	25.26
401.126	25.4
401.333	25.19
401.54	25.18
401.748	24.83
401.955	24.75
402.162	25.06
402.369	25.12
402.576	24.85
402.783	24.73
402.99	24.32
403.197	24.31
403.404	24.18
403.611	24.4
403.818	24.32
404.025	24.43
404.232	24.59
404.439	24.34
404.646	24.11
404.853	24.48
405.06	24.75
405.267	25.17
405.474	25.13
405.681	25.08
405.887	24.65
406.094	24.67
406.301	24.63
406.508	24.36
406.715	24.43
406.922	24.4
407.128	24.34
407.335	24.28
407.542	24.02
407.749	24.04
407.955	23.82
408.162	24.01
408.369	24.01
408.575	23.99
408.782	23.99
408.989	24.11
409.195	24.15
409.402	24
409.609	23.82
409.815	23.67
410.022	23.84
410.228	24.14
410.435	24.13
410.642	23.75
410.848	23.83
411.055	23.69
411.261	23.69
411.468	23.8
411.674	23.51
411.881	23.59
412.087	23.91
412.294	23.76
412.5	23.56
412.706	23.47
412.913	23.72
413.119	23.78
413.326	24.11
413.532	24.1
413.738	24.08
413.945	24.35
414.151	24.22
414.357	24.03
414.564	24.25
414.77	24.42
414.976	24.38
415.182	24.34
415.389	24.32
415.595	24.16
415.801	23.97
416.007	23.74
416.214	23.62
416.42	23.55
416.626	23.56
416.832	23.23
417.038	23.48
417.244	23.59
417.45	23.61
417.657	23.44
417.863	23.5
418.069	23.73
418.275	23.83
418.481	23.7
418.687	23.72
418.893	23.51
419.099	23.43
419.305	23.05
419.511	23.09
419.717	23.02
419.923	22.98
420.129	22.93
420.335	22.71
420.541	22.64
420.746	22.61
420.952	22.61
421.158	22.72
421.364	22.88
421.57	22.93
421.776	22.9
421.982	22.88
422.187	23.01
422.393	22.95
422.599	22.86
422.805	22.92
423.01	23.01
423.216	22.94
423.422	22.86
423.628	22.82
423.833	22.77
424.039	22.76
424.245	22.69
424.45	22.71
424.656	22.62
424.862	22.75
425.067	22.71
425.273	22.67
425.478	22.77
425.684	22.87
425.889	22.89
426.095	22.9
426.301	22.95
426.506	23.05
426.712	22.86
426.917	22.86
427.123	22.78
427.328	22.77
427.533	22.96
427.739	22.87
427.944	22.79
428.15	22.57
428.355	22.64
428.561	22.6
428.766	22.58
428.971	22.64
429.177	22.87
429.382	23.1
429.587	23.01
429.793	22.92
429.998	23.15
430.203	23.05
430.408	23.13
430.614	22.97
430.819	22.82
431.024	22.77
431.229	22.71
431.434	22.61
431.64	22.38
431.845	22.55
432.05	22.47
432.255	22.33
432.46	22.54
432.665	22.35
432.87	22.33
433.076	22.39
433.281	22.39
433.486	22.46
433.691	22.54
433.896	22.54
434.101	22.43
434.306	22.37
434.511	22.34
434.716	22.13
434.921	22.09
435.126	22.25
435.331	22.22
435.535	22.2
435.74	22.09
435.945	21.86
436.15	21.8
436.355	21.92
436.56	22.02
436.765	21.99
436.97	22.07
437.174	22.33
437.379	22.32
437.584	22.36
437.789	22.32
437.993	22.49
438.198	22.48
438.403	22.5
438.608	22.46
438.812	22.39
439.017	22.38
439.222	22.48
439.426	22.32
439.631	22.33
439.836	22.29
440.04	22.26
440.245	22.3
440.45	22.32
440.654	22.32
440.859	22.17
441.063	22.13
441.268	22.04
441.472	22.11
441.677	22.18
441.881	22.22
442.086	22.09
442.29	22.16
442.495	22.05
442.699	22.16
442.904	22.05
443.108	22.07
443.312	22
443.517	22.1
443.721	21.93
443.925	21.85
444.13	21.55
444.334	21.69
444.538	21.75
444.743	21.63
444.947	21.42
445.151	21.4
445.356	21.41
445.56	21.51
445.764	21.33
445.968	21.29
446.173	21.41
446.377	21.5
446.581	21.56
446.785	21.48
446.989	21.61
447.193	21.79
447.398	21.99
447.602	21.99
447.806	21.92
448.01	22.04
448.214	22.09
448.418	21.93
448.622	21.96
448.826	21.83
449.03	21.83
449.234	21.74
449.438	21.51
449.642	21.3
449.846	21.42
450.05	21.58
450.254	21.57
450.458	21.39
450.662	21.64
450.866	21.6
451.069	21.52
451.273	21.49
451.477	21.49
451.681	21.5
451.885	21.59
452.089	21.38
452.292	21.48
452.496	21.57
452.7	21.59
452.904	21.44
453.107	21.36
453.311	21.35
453.515	21.38
453.719	21.36
453.922	21.69
454.126	21.45
454.33	21.63
454.533	21.37
454.737	21.19
454.94	21.42
455.144	21.54
455.348	21.57
455.551	21.71
455.755	21.79
455.958	21.69
456.162	21.65
456.365	21.83
456.569	21.76
456.772	21.83
456.976	21.89
457.179	21.82
457.383	21.6
457.586	21.59
457.79	21.57
457.993	21.55
458.196	21.76
458.4	21.62
458.603	21.74
458.807	21.61
459.01	21.64
459.213	21.68
459.417	21.64
459.62	21.65
459.823	21.58
460.026	21.63
460.23	21.62
460.433	21.48
460.636	21.46
460.839	21.34
461.042	21.47
461.246	21.38
461.449	21.42
461.652	21.4
461.855	21.43
462.058	21.72
462.261	21.55
462.464	21.48
462.668	21.47
462.871	21.45
463.074	21.43
463.277	21.5
463.48	21.42
463.683	21.51
463.886	21.53
464.089	21.5
464.292	21.28
464.495	21.22
464.698	21.24
464.901	21.52
465.104	21.7
465.306	21.84
465.509	21.65
465.712	21.73
465.915	21.57
466.118	21.52
466.321	21.52
466.524	21.49
466.726	21.74
466.929	21.82
467.132	21.63
467.335	21.51
467.538	21.49
467.74	21.58
467.943	21.7
468.146	21.71
468.348	21.84
468.551	22
468.754	22.13
468.956	22.17
469.159	22.09
469.362	21.98
469.564	21.97
469.767	22.02
469.969	22.07
470.172	21.87
470.375	21.87
470.577	21.84
470.78	21.65
470.982	21.67
471.185	21.58
471.387	21.56
471.59	21.74
471.792	21.74
471.995	21.62
472.197	21.67
472.399	21.88
472.602	21.81
472.804	21.6
473.007	21.63
473.209	21.7
473.411	21.65
473.614	21.75
473.816	21.59
474.018	21.68
474.22	21.82
474.423	21.71
474.625	21.62
474.827	21.77
475.03	22.11
475.232	22.28
475.434	22.03
475.636	21.95
475.838	22.06
476.04	22.12
476.243	22.13
476.445	22.03
476.647	22.01
476.849	21.92
477.051	21.8
477.253	21.67
477.455	21.47
477.657	21.47
477.859	21.64
478.061	21.54
478.263	21.64
478.465	21.54
478.667	21.59
478.869	21.56
479.071	21.66
479.273	21.77
479.475	21.65
479.677	21.76
479.879	21.77
480.081	21.74
480.283	21.71
480.485	21.77
480.686	21.69
480.888	21.58
481.09	21.69
481.292	21.68
481.494	21.63
481.695	21.49
481.897	21.47
482.099	21.47
482.301	21.45
482.502	21.41
482.704	21.37
482.906	21.41
483.107	21.44
483.309	21.38
483.511	21.32
483.712	21.33
483.914	21.43
484.115	21.37
484.317	21.39
484.519	21.35
484.72	21.37
484.922	21.35
485.123	21.31
485.325	21.29
485.526	21.29
485.728	21.29
485.929	21.33
486.131	21.33
486.332	21.41
486.534	21.38
486.735	21.39
486.936	21.38
487.138	21.33
487.339	21.36
487.541	21.37
487.742	21.38
487.943	21.42
488.144	21.34
488.346	21.25
488.547	21.3
488.748	21.29
488.95	21.33
489.151	21.36
489.352	21.39
489.553	21.37
489.755	21.4
489.956	21.38
490.157	21.3
490.358	21.33
490.559	21.38
490.76	21.28
490.961	21.27
491.163	21.25
491.364	21.19
491.565	21.28
491.766	21.3
491.967	21.31
492.168	21.4
492.369	21.43
492.57	21.43
492.771	21.46
492.972	21.46
493.173	21.54
493.374	21.54
493.575	21.62
493.776	21.51
493.976	21.61
494.177	21.57
494.378	21.38
494.579	21.51
494.78	21.56
494.981	21.64
495.182	21.59
495.382	21.52
495.583	21.59
495.784	21.69
495.985	21.78
496.185	21.76
496.386	21.73
496.587	21.9
496.788	21.77
496.988	21.68
497.189	21.74
497.39	21.79
497.59	21.83
497.791	21.73
497.992	21.6
498.192	21.52
498.393	21.56
498.593	21.68
498.794	21.64
498.994	21.79
499.195	21.75
499.395	21.8
499.596	21.93
499.796	21.96
499.997	22.17
500.197	22.34
500.398	22.35
500.598	22.36
500.799	22.45
500.999	22.59
501.199	22.54
501.4	22.78
501.6	22.69
501.801	22.79
502.001	22.96
502.201	23.11
502.402	23.07
502.602	23.21
502.802	23.28
503.002	23.38
503.203	23.36
503.403	23.37
503.603	23.35
503.803	23.37
504.003	23.37
504.204	23.3
504.404	23.18
504.604	23.19
504.804	23.33
505.004	23.22
505.204	23.06
505.404	22.91
505.604	22.89
505.804	22.9
506.005	22.93
506.205	22.91
506.405	23.01
506.605	22.99
506.805	23.05
507.005	22.96
507.204	23.02
507.404	23.14
507.604	23.44
507.804	23.49
508.004	23.74
508.204	23.84
508.404	23.78
508.604	23.73
508.804	23.8
509.003	23.8
509.203	23.9
509.403	24.05
509.603	24.01
509.803	23.96
510.002	23.99
510.202	23.9
510.402	23.97
510.602	24.02
510.801	23.99
511.001	24.12
511.201	24.13
511.4	24.11
511.6	23.96
511.8	24.02
511.999	24
512.199	24.08
512.398	24.05
512.598	24.06
512.797	24.17
512.997	24.21
513.197	24.17
513.396	24.34
513.596	24.54
513.795	24.73
513.994	24.72
514.194	24.78
514.393	24.89
514.593	25.08
514.792	25.09
514.992	25.22
515.191	25.43
515.39	25.62
515.59	25.72
515.789	25.67
515.988	25.8
516.188	26.05
516.387	26.22
516.586	26.41
516.786	26.53
516.985	26.7
517.184	26.74
517.383	26.81
517.582	26.78
517.782	26.77
517.981	26.93
518.18	26.96
518.379	27.01
518.578	27
518.777	27.02
518.976	27
519.176	27.06
519.375	27.05
519.574	27.06
519.773	27.14
519.972	27.18
520.171	27.21
520.37	27.28
520.569	27.44
520.768	27.66
520.967	27.78
521.166	27.84
521.365	27.75
521.564	27.97
521.762	28.04
521.961	28.18
522.16	28.34
522.359	28.4
522.558	28.48
522.757	28.42
522.956	28.53
523.154	28.54
523.353	28.64
523.552	28.94
523.751	29.04
523.949	29.3
524.148	29.27
524.347	29.38
524.546	29.53
524.744	29.54
524.943	29.62
525.142	29.72
525.34	29.71
525.539	29.87
525.737	29.94
525.936	29.97
526.135	29.94
526.333	30.08
526.532	30.16
526.73	30.21
526.929	30.4
527.127	30.49
527.326	30.45
527.524	30.52
527.723	30.51
527.921	30.61
528.12	30.71
528.318	30.77
528.516	30.81
528.715	30.85
528.913	30.9
529.112	30.91
529.31	30.93
529.508	31
529.707	31.1
529.905	31.19
530.103	31.18
530.301	31.18
530.5	31.26
530.698	31.33
530.896	31.4
531.094	31.44
531.293	31.5
531.491	31.67
531.689	31.85
531.887	31.99
532.085	32.04
532.283	32.18
532.481	32.2
532.68	32.3
532.878	32.38
533.076	32.42
533.274	32.51
533.472	32.68
533.67	32.71
533.868	32.66
534.066	32.66
534.264	32.75
534.462	32.78
534.66	33.01
534.858	33.03
535.056	33.01
535.253	33.06
535.451	33.1
535.649	32.98
535.847	33.14
536.045	33.4
536.243	33.5
536.441	33.57
536.638	33.63
536.836	33.58
537.034	33.56
537.232	33.69
537.43	33.81
537.627	33.97
537.825	34.11
538.023	33.94
538.22	33.87
538.418	33.86
538.616	33.93
538.813	34.01
539.011	34.06
539.209	34.13
539.406	34.14
539.604	34.26
539.801	34.21
539.999	34.31
540.196	34.5
540.394	34.53
540.591	34.55
540.789	34.56
540.986	34.49
541.184	34.56
541.381	34.58
541.579	34.6
541.776	34.49
541.974	34.56
542.171	34.61
542.368	34.56
542.566	34.57
542.763	34.62
542.96	34.62
543.158	34.69
543.355	34.75
543.552	34.86
543.75	35.02
543.947	35.24
544.144	35.3
544.341	35.32
544.539	35.44
544.736	35.48
544.933	35.54
545.13	35.74
545.327	35.8
545.524	35.82
545.722	35.79
545.919	35.7
546.116	35.69
546.313	35.73
546.51	35.71
546.707	35.76
546.904	35.89
547.101	36.03
547.298	36.07
547.495	36.05
547.692	35.99
547.889	36.07
548.086	36.16
548.283	36.14
548.48	36.17
548.677	36.11
548.874	36.12
549.07	36.17
549.267	35.97
549.464	35.85
549.661	35.96
549.858	36
550.055	36.04
550.251	35.94
550.448	35.89
550.645	35.94
550.842	36
551.038	35.98
551.235	35.98
551.432	36.01
551.628	36.03
551.825	36.09
552.022	36.35
552.218	36.5
552.415	36.68
552.612	36.81
552.808	36.81
553.005	36.82
553.201	36.98
553.398	36.8
553.594	36.93
553.791	37.01
553.987	37
554.184	36.74
554.38	36.71
554.577	36.7
554.773	36.79
554.97	36.9
555.166	37.05
555.362	37
555.559	37.05
555.755	37
555.952	37.02
556.148	37.14
556.344	37.46
556.541	37.51
556.737	37.46
556.933	37.33
557.129	37.21
557.326	37.33
557.522	37.41
557.718	37.62
557.914	37.53
558.11	37.56
558.307	37.43
558.503	37.31
558.699	37.34
558.895	37.34
559.091	37.5
559.287	37.58
559.483	37.67
559.679	37.73
559.876	37.61
560.072	37.76
560.268	37.73
560.464	37.97
560.66	38.04
560.856	38.15
561.052	38.37
561.247	38.5
561.443	38.7
561.639	38.57
561.835	38.52
562.031	38.54
562.227	38.62
562.423	38.72
562.619	38.78
562.815	38.86
563.01	38.6
563.206	38.61
563.402	38.39
563.598	38.2
563.793	38.28
563.989	38.33
564.185	38.4
564.381	38.42
564.576	38.49
564.772	38.47
564.968	38.44
565.163	38.52
565.359	38.47
565.555	38.46
565.75	38.55
565.946	38.58
566.141	38.57
566.337	38.6
566.532	38.61
566.728	38.65
566.923	38.56
567.119	38.5
567.314	38.53
567.51	38.44
567.705	38.68
567.901	38.66
568.096	38.63
568.292	38.6
568.487	38.42
568.682	38.5
568.878	38.54
569.073	38.55
569.268	38.54
569.464	38.59
569.659	38.83
569.854	38.63
570.05	38.72
570.245	38.73
570.44	38.81
570.635	38.92
570.831	38.89
571.026	38.86
571.221	38.91
571.416	39.19
571.611	39.38
571.806	39.42
572.002	39.49
572.197	39.3
572.392	39.25
572.587	39.1
572.782	39.27
572.977	39.35
573.172	39.18
573.367	39.27
573.562	39.16
573.757	38.99
573.952	38.93
574.147	38.94
574.342	39.18
574.537	39.26
574.732	39.35
574.927	39.48
575.121	39.37
575.316	39.62
575.511	39.66
575.706	39.61
575.901	39.61
576.096	39.63
576.29	39.68
576.485	39.57
576.68	39.61
576.875	39.57
577.069	39.35
577.264	39.42
577.459	39.21
577.654	39.24
577.848	39.09
578.043	39.1
578.238	38.94
578.432	38.83
578.627	38.75
578.821	38.85
579.016	39
579.21	39.1
579.405	39.04
579.6	39.15
579.794	39.33
579.989	39.62
580.183	39.86
580.378	40.04
580.572	40.17
580.766	40.34
580.961	40.2
581.155	40.18
581.35	40.27
581.544	40.43
581.738	40.36
581.933	40.3
582.127	40.22
582.321	40.32
582.516	40.32
582.71	40.25
582.904	40.37
583.099	40.33
583.293	40.56
583.487	40.49
583.681	40.49
583.875	40.74
584.07	40.75
584.264	40.9
584.458	40.54
584.652	40.63
584.846	40.6
585.04	40.63
585.234	40.85
585.428	40.67
585.623	40.77
585.817	40.77
586.011	40.75
586.205	40.38
586.399	40.5
586.593	40.59
586.787	40.73
586.981	40.78
587.174	40.81
587.368	40.51
587.562	40.59
587.756	40.49
587.95	40.62
588.144	40.58
588.338	40.68
588.532	40.56
588.725	40.73
588.919	40.36
589.113	40.51
589.307	40.31
589.501	40.5
589.694	40.6
589.888	40.74
590.082	40.8
590.275	40.8
590.469	40.91
590.663	40.82
590.856	40.85
591.05	40.97
591.244	40.88
591.437	40.92
591.631	41.02
591.824	40.87
592.018	40.74
592.212	40.46
592.405	40.2
592.599	40.16
592.792	40.33
592.986	40.36
593.179	40.56
593.372	40.64
593.566	40.83
593.759	41.05
593.953	40.98
594.146	41.1
594.339	41.24
594.533	41.64
594.726	41.52
594.92	41.38
595.113	41.33
595.306	41.42
595.499	41.43
595.693	41.42
595.886	41.14
596.079	41.26
596.272	41.2
596.466	41.23
596.659	41.22
596.852	41.24
597.045	41.37
597.238	41.31
597.431	41.23
597.624	41.22
597.818	41.35
598.011	41.38
598.204	41.48
598.397	41.6
598.59	41.51
598.783	41.48
598.976	41.74
599.169	41.65
599.362	41.7
599.555	41.81
599.748	41.9
599.941	41.93
600.134	42.02
600.326	41.95
600.519	41.9
600.712	42.13
600.905	42.31
601.098	42.11
601.291	42.26
601.483	42.32
601.676	42.07
601.869	42.26
602.062	42.1
602.255	42.17
602.447	42.29
602.64	42.09
602.833	41.91
603.025	41.78
603.218	41.95
603.411	41.99
603.603	41.91
603.796	42
603.989	41.81
604.181	41.77
604.374	41.73
604.566	41.72
604.759	41.76
604.951	41.73
605.144	41.52
605.336	41.57
605.529	41.56
605.721	41.62
605.914	41.67
606.106	41.69
606.299	41.76
606.491	41.7
606.683	41.73
606.876	41.81
607.068	42
607.26	42.19
607.453	42.06
607.645	41.94
607.837	42.06
608.03	41.95
608.222	42.13
608.414	42.03
608.606	42.11
608.799	41.98
608.991	42.07
609.183	42.01
609.375	42.05
609.567	41.88
609.759	42.1
609.952	42.07
610.144	42.1
610.336	41.86
610.528	41.85
610.72	41.6
610.912	41.72
611.104	41.61
611.296	41.54
611.488	41.43
611.68	41.38
611.872	41.26
612.064	41.16
612.256	41.2
612.448	41.36
612.64	41.51
612.832	41.73
613.023	41.77
613.215	41.68
613.407	41.96
613.599	42.03
613.791	42.42
613.983	42.16
614.174	42.13
614.366	42.09
614.558	41.98
614.75	41.74
614.941	41.92
615.133	41.68
615.325	41.91
615.516	41.73
615.708	41.54
615.9	41.43
616.091	41.6
616.283	41.61
616.475	41.74
616.666	41.77
616.858	41.88
617.049	41.55
617.241	41.78
617.432	41.78
617.624	41.89
617.815	42.32
618.007	42.21
618.198	42.18
618.39	42.21
618.581	42.47
618.773	42.53
618.964	42.5
619.155	42.68
619.347	42.51
619.538	42.62
619.729	42.4
619.921	42.23
620.112	42.48
620.303	42.66
620.494	42.65
620.686	42.44
620.877	42.39
621.068	42.37
621.259	42.54
621.451	42.76
621.642	42.71
621.833	42.86
622.024	43.12
622.215	42.92
622.406	42.64
622.597	42.75
622.788	42.69
622.98	42.94
623.171	43.11
623.362	43.22
623.553	43.14
623.744	43.15
623.935	43.11
624.126	43.11
624.317	43.24
624.508	43.23
624.698	43.27
624.889	43.16
625.08	42.93
625.271	43.15
625.462	42.85
625.653	42.91
625.844	42.58
626.034	42.39
626.225	42.32
626.416	42.23
626.607	42.44
626.798	42.43
626.988	42.63
627.179	42.75
627.37	42.61
627.56	42.61
627.751	42.53
627.942	42.77
628.132	43.05
628.323	42.94
628.514	42.98
628.704	42.79
628.895	42.7
629.085	42.7
629.276	42.46
629.466	42.41
629.657	42.44
629.847	42.39
630.038	42.46
630.228	42.41
630.419	42.53
630.609	42.5
630.8	42.74
630.99	42.73
631.181	42.38
631.371	42.68
631.561	42.74
631.752	42.9
631.942	42.92
632.132	42.86
632.323	42.98
632.513	43.24
632.703	43.27
632.893	43.25
633.084	43.49
633.274	43.45
633.464	43.17
633.654	43.15
633.844	43.15
634.034	43.32
634.225	43.37
634.415	43.21
634.605	42.89
634.795	43.03
634.985	42.86
635.175	42.93
635.365	43.16
635.555	43.41
635.745	43.37
635.935	43.6
636.125	43.55
636.315	43.45
636.505	43.44
636.695	43.27
636.885	43.11
637.075	43.07
637.265	42.87
637.455	42.89
637.644	43.02
637.834	43.2
638.024	42.95
638.214	42.93
638.404	42.57
638.593	42.72
638.783	42.98
638.973	43.13
639.163	43.52
639.352	43.45
639.542	43.64
639.732	43.51
639.921	43.61
640.111	43.46
640.301	43.42
640.49	44.31
640.68	44.34
640.87	44.3
641.059	43.98
641.249	44.21
641.438	44.32
641.628	43.7
641.817	43.51
642.007	43.1
642.196	43.39
642.386	43.58
642.575	43.03
642.764	42.95
642.954	42.98
643.143	43.4
643.333	43.11
643.522	43.2
643.711	43.35
643.901	43.42
644.09	43.65
644.279	43.67
644.469	42.99
644.658	43.2
644.847	43.42
645.036	43.48
645.226	43.21
645.415	43.1
645.604	43.03
645.793	43.35
645.982	43.61
646.171	43.7
646.361	43.38
646.55	44.06
646.739	44.11
646.928	43.78
647.117	44.06
647.306	44.29
647.495	44.26
647.684	44.47
647.873	44.32
648.062	44.39
648.251	44.18
648.44	44.42
648.629	44.43
648.818	44.1
649.007	44.51
649.196	44.37
649.384	44.39
649.573	44.63
649.762	44.3
649.951	44.8
650.14	44.48
650.328	44.51
650.517	44.53
650.706	44.39
650.895	44.46
651.083	44.43
651.272	44.32
651.461	44.45
651.65	44.57
651.838	44.84
652.027	44.51
652.216	44.46
652.404	44.28
652.593	44.61
652.781	44.67
652.97	45.24
653.158	45.07
653.347	45.03
653.535	45.04
653.724	44.76
653.912	44.93
654.101	44.84
654.289	44.82
654.478	45.15
654.666	44.76
654.855	44.99
655.043	44.64
655.231	44.93
655.42	45.17
655.608	44.89
655.796	45.28
655.985	44.77
656.173	44.69
656.361	45.12
656.55	45.26
656.738	45.44
656.926	45.04
657.114	45.02
657.302	44.81
657.491	44.77
657.679	44.81
657.867	44.61
658.055	44.83
658.243	44.68
658.431	44.48
658.619	44.34
658.807	44.06
658.996	44.42
659.184	44.42
659.372	44.38
659.56	44.36
659.748	44.53
659.936	44.27
660.124	44.29
660.311	44.71
660.499	44.69
660.687	44.39
660.875	44.74
661.063	44.62
661.251	44.27
661.439	44.43
661.627	44.33
661.814	44.05
662.002	44.04
662.19	44.12
662.378	43.8
662.565	43.81
662.753	44.04
662.941	43.98
663.129	43.64
663.316	44.15
663.504	44.05
663.692	44.25
663.879	44.32
664.067	44.35
664.254	44.28
664.442	44.51
664.63	44.39
664.817	44.16
665.005	43.73
665.192	43.95
665.38	44.14
665.567	43.61
665.755	43.99
665.942	44.18
666.13	44.6
666.317	44.78
666.504	45.02
666.692	45.33
666.879	45.62
667.067	46.04
667.254	45.69
667.441	45.42
667.629	45.74
667.816	44.95
668.003	44.91
668.19	44.61
668.378	44.29
668.565	43.64
668.752	43.58
668.939	43.75
669.127	43.57
669.314	44.21
669.501	43.82
669.688	43.98
669.875	43.87
670.062	43.87
670.249	43.77
670.436	43.92
670.623	44.23
670.81	44.01
670.997	43.64
671.184	43.65
671.371	43.42
671.558	43.62
671.745	43.48
671.932	43.75
672.119	43.71
672.306	43.95
672.493	44.16
672.68	44.33
672.867	44.66
673.054	45.01
673.24	44.85
673.427	44.8
673.614	45.04
673.801	45.28
673.988	45.75
674.174	45.86
674.361	45.8
674.548	45.64
674.734	45.75
674.921	45.7
675.108	45.74
675.294	46.03
675.481	45.89
675.668	46.05
675.854	45.85
676.041	45.48
676.227	45.2
676.414	45.08
676.601	45.3
676.787	45.44
676.974	45.75
677.16	45.84
677.347	45.99
677.533	46.13
677.719	45.87
677.906	45.32
678.092	45.32
678.279	45.57
678.465	45.74
678.651	45.16
678.838	45.09
679.024	44.66
679.21	44.61
679.397	44.68
679.583	44.57
679.769	44.77
679.955	44.98
680.142	44.59
680.328	44.81
680.514	44.99
680.7	44.97
680.886	44.91
681.073	44.69
681.259	44.69
681.445	44.33
681.631	44.52
681.817	44.37
682.003	44.71
682.189	45.25
682.375	44.98
682.561	44.79
682.747	44.82
682.933	44.53
683.119	44.7
683.305	44.34
683.491	44.25
683.677	44.25
683.863	44.3
684.049	44.48
684.235	44.37
684.42	44.12
684.606	43.79
684.792	44.1
684.978	44.35
685.164	44.59
685.349	44.8
685.535	45.01
685.721	45.05
685.907	44.72
686.092	44.65
686.278	44.4
686.464	44.56
686.649	45.01
686.835	45.16
687.021	44.89
687.206	44.71
687.392	44.45
687.577	44.29
687.763	44.21
687.948	44.3
688.134	44.36
688.319	44.58
688.505	45.21
688.69	45.43
688.876	45.76
689.061	45.8
689.247	45.9
689.432	46.18
689.618	46.6
689.803	46.23
689.988	46.48
690.174	45.78
690.359	45.71
690.544	45.39
690.73	44.71
690.915	44.03
691.1	44.12
691.285	44.32
691.471	44.56
691.656	44.35
691.841	44.52
692.026	44.46
692.211	44.47
692.396	44.66
692.582	44.21
692.767	44.51
692.952	44.61
693.137	44.75
693.322	44.45
693.507	44.35
693.692	44.29
693.877	44.59
694.062	44.54
694.247	45.28
694.432	44.73
694.617	45.08
694.802	45.49
694.987	45.33
695.172	45.54
695.357	45.8
695.541	45.43
695.726	45.37
695.911	45.4
696.096	45.27
696.281	44.77
696.466	45.38
696.65	45.01
696.835	44.42
697.02	44.9
697.204	45.25
697.389	45.41
697.574	45.59
697.759	45.69
697.943	45.45
698.128	45.37
698.312	45.72
698.497	45.25
698.682	45.49
698.866	45.88
699.051	45.9
699.235	45.17
699.42	44.89
699.604	45.08
699.789	45.18
699.973	45.39
700.158	45.49
700.342	45.52
700.527	45.91
700.711	46.08
700.895	45.83
701.08	45.72
701.264	46.24
701.448	46.33
701.633	45.9
701.817	45.87
702.001	45.77
702.186	45.83
702.37	45.47
702.554	45.08
702.738	45.07
702.923	45.4
703.107	45.3
703.291	45.66
703.475	45.66
703.659	45.48
703.843	45.54
704.027	45.39
704.212	45.83
704.396	45.88
704.58	46.97
704.764	46.29
704.948	46.13
705.132	45.71
705.316	45.69
705.5	46.05
705.684	46.99
705.868	46.43
706.052	46.61
706.235	46.42
706.419	46.28
706.603	45.84
706.787	45.86
706.971	46.18
707.155	46.46
707.339	45.77
707.522	45.09
707.706	44.7
707.89	45.67
708.074	45.48
708.257	45
708.441	45.37
708.625	45.76
708.808	45.96
708.992	45.92
709.176	45.25
709.359	45.56
709.543	46.16
709.727	46.13
709.91	46.25
710.094	46.21
710.277	46.56
710.461	46.04
710.644	45.55
710.828	45.36
711.011	44.56
711.195	45.24
711.378	45.68
711.562	45.13
711.745	45.4
711.928	44.99
712.112	45.6
712.295	45.42
712.478	46.18
712.662	45.74
712.845	45.48
713.028	46.17
713.212	46.61
713.395	45.63
713.578	46.16
713.761	46.2
713.945	46.17
714.128	45.98
714.311	46.35
714.494	46.18
714.677	46.51
714.86	47.04
715.043	46.98
715.227	46.14
715.41	46.79
715.593	46.36
715.776	46.62
715.959	46.83
716.142	46.57
716.325	46.71
716.508	46.77
716.691	47.03
716.874	47.48
717.057	47.9
717.239	48.17
717.422	48.29
717.605	48.81
717.788	48.3
717.971	48.23
718.154	47.92
718.337	48.41
718.519	48.02
718.702	47.72
718.885	47.7
719.068	47.33
719.25	47.11
719.433	46.75
719.616	46.35
719.798	46.51
719.981	46.26
720.164	46.62
720.346	45.57
720.529	45
720.712	44.95
720.894	44.52
721.077	44.71
721.259	44.64
721.442	45.24
721.624	46.22
721.807	46.85
721.989	46.55
722.172	47.12
722.354	47.47
722.537	48.29
722.719	48.53
722.901	49.35
723.084	48.61
723.266	49.23
723.448	49.25
723.631	48.6
723.813	47.94
723.995	48.9
724.178	48.28
724.36	47.81
724.542	47.35
724.724	47.35
724.907	47.33
725.089	47.26
725.271	47.87
725.453	46.74
725.635	47.03
725.817	47.43
725.999	46.73
726.181	46.89
726.364	47.53
726.546	47.76
726.728	47.29
726.91	46.8
727.092	47.79
727.274	47.71
727.456	49.1
727.638	49.07
727.819	49.11
728.001	49.14
728.183	49.67
728.365	49.7
728.547	49.87
728.729	50.74
728.911	50.76
729.093	50.34
729.274	49.76
729.456	49
729.638	49.01
729.82	48.68
730.001	48.53
730.183	48.01
730.365	48.26
730.546	48.43
730.728	48.17
730.91	47.18
731.091	47.22
731.273	47.54
731.455	47.51
731.636	47.74
731.818	47.77
731.999	47.95
732.181	47.46
732.362	46.89
732.544	47.11
732.725	46.94
732.907	47.72
733.088	47.35
733.27	46.84
733.451	46.83
733.633	46.87
733.814	46.39
733.995	45.9
734.177	46.5
734.358	46.85
734.539	46.65
734.721	46.33
734.902	46.93
735.083	47.65
735.264	48.25
735.446	48.51
735.627	47.67
735.808	48.03
735.989	48.59
736.17	48.94
736.351	48.81
736.533	48.1
736.714	48.34
736.895	47.61
737.076	46.93
737.257	45.83
737.438	46
737.619	46.12
737.8	45.9
737.981	46.73
738.162	46.14
738.343	46.3
738.524	46.62
738.705	47.09
738.886	47.23
739.067	47.53
739.247	49.17
739.428	48.61
739.609	49.31
739.79	49.36
739.971	48.99
740.151	49.24
740.332	48.96
740.513	49.54
740.694	49.63
740.874	49.89
741.055	50.52
741.236	50.28
741.417	49.94
741.597	48.99
741.778	49.69
741.958	49.48
742.139	49.22
742.32	49.33
742.5	49.44
742.681	49.26
742.861	49.02
743.042	47.95
743.222	47.35
743.403	47.1
743.583	47.84
743.764	47.69
743.944	47.96
744.124	47.69
744.305	47.96
744.485	48.32
744.666	48.44
744.846	49.12
745.026	49.77
745.207	50.22
745.387	51.36
745.567	50.43
745.747	50.3
745.928	49.89
746.108	50.53
746.288	50.43
746.468	49.66
746.648	50.13
746.829	50.03
747.009	50.77
747.189	50.72
747.369	50.22
747.549	50.07
747.729	50.12
747.909	50.04
748.089	50.4
748.269	49.93
748.449	49.96
748.629	48.64
748.809	46.75
748.989	46.59
749.169	45.97
749.349	46.51
749.529	47.08
749.709	46.76
749.889	46.99
750.068	46.59
750.248	46.57
750.428	48.04
750.608	47.88
750.788	49.5
750.967	49.37
751.147	49.7
751.327	49.69
751.507	50.17
751.686	50
751.866	49.81
752.046	49.13
752.225	49.62
752.405	47.93
752.585	48.39
752.764	48.37
752.944	48.28
753.123	49.32
753.303	49.09
753.482	49.43
753.662	49.94
753.841	49.99
754.021	50.89
754.2	50.71
754.38	51.53
754.559	52.39
754.739	52.16
754.918	52.32
755.097	51.12
755.277	51.9
755.456	51.24
755.635	51.25
755.815	51.59
755.994	51.97
756.173	51.8
756.352	52.24
756.532	51.66
756.711	51.69
756.89	50.4
757.069	50.4
757.248	49.75
757.427	50.4
757.607	50
757.786	49.47
757.965	49.36
758.144	48.78
758.323	47.3
758.502	47.8
758.681	47.29
758.86	47.31
759.039	47.76
759.218	47.39
759.397	46.15
759.576	46.11
759.755	45.55
759.934	45.24
760.113	45.97
760.291	46.54
760.47	46.97
760.649	47.43
760.828	46.93
761.007	46.85
761.186	47.14
761.364	48.04
761.543	48.06
761.722	48.57
761.901	47.68
762.079	47.62
762.258	47.15
762.437	45.47
762.615	46.24
762.794	47.16
762.972	46.46
763.151	47.11
763.33	46.88
763.508	47.25
763.687	47.39
763.865	47.94
764.044	47.45
764.222	48.13
764.401	49.32
764.579	49.05
764.758	48.38
764.936	49.06
765.114	48.59
765.293	48.24
765.471	48.18
765.65	48.42
765.828	48.11
766.006	47.97
766.184	47.45
766.363	46.78
766.541	45.99
766.719	46.99
766.898	46.68
767.076	46.88
767.254	47.74
767.432	46.7
767.61	46.56
767.788	47.23
767.967	47.94
768.145	48.29
768.323	48.38
768.501	48.79
768.679	47.78
768.857	48.38
769.035	47.81
769.213	48.91
769.391	49.89
769.569	50.71
769.747	50.7
769.925	52.35
770.103	52.63
770.281	52.6
770.459	53.37
770.636	54.26
770.814	53.88
770.992	54.22
771.17	52.38
771.348	52.76
771.525	51.59
771.703	51.39
771.881	49.11
772.059	49.82
772.236	50.33
772.414	48.96
772.592	49.69
772.769	50.35
772.947	51.21
773.125	51.26
773.302	52.31
773.48	53.91
773.657	53.95
773.835	55.78
774.013	53.77
774.19	54.46
774.368	54.19
774.545	53.38
774.723	52.41
774.9	50.83
775.077	51.09
775.255	49.94
775.432	48.85
775.61	48.69
775.787	48.35
775.964	49.81
776.142	48.47
776.319	48.65
776.496	48.37
776.674	48.65
776.851	49.38
777.028	50.78
777.205	49.84
777.382	50.34
777.56	51.06
777.737	51.22
777.914	50.89
778.091	51.78
778.268	52.78
778.445	53.2
778.622	53.6
778.8	55.06
778.977	52.73
779.154	60.91
779.331	60.07
779.508	60.55
779.685	60.22
779.862	59.66
780.038	59
780.215	59.86
780.392	61.47
780.569	62.18
780.746	60.87
780.923	62.38
781.1	55.83
781.277	56.13
781.453	55.05
781.63	53.91
781.807	54.61
781.984	54
782.16	51.27
782.337	49.86
782.514	48.31
782.691	49.67
782.867	50.14
783.044	49.15
783.221	48.25
783.397	48.92
783.574	48.79
783.75	49.24
783.927	49.85
784.103	51.68
784.28	51.8
784.456	51.27
784.633	51.37
784.809	49.76
784.986	49.45
785.162	51.45
785.339	50.65
785.515	52.56
785.692	52.22
785.868	53.05
786.044	53.05
786.221	52.77
786.397	52.71
786.573	52.6
786.749	53.39
786.926	52.59
787.102	53.49
787.278	52.66
787.454	51.42
787.631	50.68
787.807	49.93
787.983	50.17
788.159	52.23
788.335	53.75
788.511	52.97
788.687	53.88
788.863	54.8
789.039	53.22
789.216	54.17
789.392	54.91
789.568	56.69
789.744	57.19
789.919	58.55
790.095	58
790.271	56.92
790.447	53.79
790.623	52.82
790.799	51.51
790.975	51.43
791.151	51.17
791.327	51.1
791.502	50.2
791.678	49.57
791.854	48.89
792.03	47.07
792.205	46.85
792.381	48.92
792.557	48.46
792.733	48.69
792.908	48.42
793.084	50.31
793.259	49.53
793.435	47.93
793.611	47.73
793.786	45.8
793.962	47.19
794.137	47.23
794.313	49.43
794.488	49.24
794.664	49.57
794.839	49.71
795.015	49.01
795.19	51.1
795.366	52.65
795.541	53.13
795.716	52.86
795.892	54.85
796.067	55.42
796.242	54.29
796.418	54.56
796.593	55.74
796.768	54.43
796.944	53.07
797.119	51.45
797.294	51.69
797.469	53.05
797.644	54.71
797.82	52.43
797.995	52.67
798.17	51.5
798.345	51.34
798.52	51.6
798.695	52.21
798.87	51.48
799.045	50.95
799.22	51.3
799.395	49.85
799.57	48.44
799.745	48.49
799.92	48.66
800.095	49.49
800.27	50.46
800.445	49.41
800.62	50.52
800.795	50.94
800.97	50.8
801.145	50.26
801.319	51.08
801.494	52.57
801.669	52.74
801.844	52.42
802.018	53.49
802.193	52.74
802.368	52.31
802.543	50.58
802.717	50.86
802.892	48.79
803.067	49.09
803.241	49.05
803.416	48.96
803.59	49.12
803.765	50.7
803.94	50.43
804.114	50.19
804.289	51.76
804.463	53.14
804.638	55.56
804.812	59.14
804.986	59.4
805.161	58.33
805.335	57.35
805.51	57.07
805.684	54.43
805.858	54.04
806.033	54.28
806.207	52.85
806.381	51.7
806.556	50.5
806.73	51.07
806.904	51.34
807.078	52.65
807.253	52.01
807.427	51.34
807.601	54.49
807.775	55.42
807.949	54.42
808.123	55.42
808.298	57.36
808.472	56.68
808.646	56.25
808.82	57.53
808.994	57.34
809.168	59.37
809.342	61.16
809.516	57.85
809.69	56.35
809.864	57.96
810.038	58.21
810.212	57.22
810.385	58.4
810.559	58.39
810.733	56.83
810.907	55.32
811.081	53.72
811.255	51.95
811.428	54.32
811.602	53.24
811.776	53.73
811.95	53.88
812.123	55.47
812.297	54.93
812.471	55.17
812.644	55.21
812.818	54.43
812.992	53.35
813.165	53.44
813.339	52.83
813.512	54.59
813.686	53.95
813.86	54.69
814.033	54.08
814.207	52.07
814.38	51.62
814.554	50.61
814.727	50.15
814.9	51.26
815.074	52.36
815.247	53.09
815.421	50.03
815.594	48.16
815.767	49.61
815.941	49.39
816.114	48.15
816.287	48.8
816.46	47.86
816.634	49.72
816.807	49.55
816.98	48.51
817.153	47.73
817.327	49.95
817.5	53.89
817.673	51.07
817.846	50.55
818.019	55.72
818.192	53.33
818.365	55.21
818.538	55.4
818.711	55.43
818.884	57.43
819.057	57.1
819.23	57.79
819.403	53.76
819.576	53.94
819.749	53.26
819.922	49.7
820.095	51.33
820.268	50.6
820.441	50.87
820.614	49.76
820.786	49.32
820.959	50.39
821.132	48.68
821.305	48.5
821.477	48.2
821.65	49.39
821.823	50.16
821.996	49.27
822.168	48.68
822.341	47.98
822.514	48.04
822.686	47.62
822.859	46.68
823.031	46.94
823.204	47.16
823.376	47.27
823.549	45.92
823.722	45.31
823.894	45.77
824.067	45.67
824.239	45.96
824.411	45.77
824.584	45.45
824.756	45.76
824.929	45.83
825.101	46.35
825.273	45.48
825.446	46.3
825.618	46.07
825.79	45.39
825.963	45.84
826.135	45.76
826.307	46.3
826.479	46.38
826.652	46.83
826.824	46.86
826.996	46.25
827.168	46.75
827.34	46.82
827.512	47.77
827.684	47.9
827.856	48.15
828.029	48.41
828.201	48.2
828.373	47.54
828.545	47.03
828.717	48.22
828.889	48.65
829.061	49.51
829.232	49.27
829.404	48.81
829.576	49.44
829.748	48.46
829.92	47.21
830.092	48.98
830.264	52
830.436	52.29
830.607	50.33
830.779	50.47
830.951	50.39
831.123	49.84
831.294	51.61
831.466	52.93
831.638	53.58
831.809	54.91
831.981	53.76
832.153	51.78
832.324	52.26
832.496	53.46
832.667	54.74
832.839	53.39
833.011	53.59
833.182	53.57
833.354	52.09
833.525	51.76
833.697	52.03
833.868	50.98
834.039	50.32
834.211	48.26
834.382	48.61
834.554	47.22
834.725	48.85
834.896	50.07
835.068	49.34
835.239	48.45
835.41	48.64
835.581	48.33
835.753	48.76
835.924	50.29
836.095	53.52
836.266	53.84
836.438	54.52
836.609	55.83
836.78	54.86
836.951	55.73
837.122	57.09
837.293	56.98
837.464	58.26
837.635	58.41
837.806	58.93
837.977	58.98
838.148	59.05
838.319	58.81
838.49	56.45
838.661	57.83
838.832	57.68
839.003	55.4
839.174	57.38
839.345	57.32
839.516	55.83
839.687	52.73
839.857	49.38
840.028	47.34
840.199	48.22
840.37	48.97
840.54	50.61
840.711	53.58
840.882	57.08
841.053	53.99
841.223	50.71
841.394	54.4
841.564	57.09
841.735	57.91
841.906	58.19
842.076	55.86
842.247	58.2
842.417	56.7
842.588	54.29
842.758	56.44
842.929	64.21
843.099	65.59
843.27	67.78
843.44	67.28
843.611	68.01
843.781	67.96
843.951	71.67
844.122	68.11
844.292	69.89
844.462	70.3
844.633	65.66
844.803	60.86
844.973	62.53
845.144	55.41
845.314	55.28
845.484	56.7
845.654	60.8
845.824	64.37
845.995	68.15
846.165	66.86
846.335	63.39
846.505	63.95
846.675	64.38
846.845	59.39
847.015	66.36
847.185	65.83
847.355	59.58
847.525	51.33
847.695	42.37
847.865	43.58
848.035	51.06
848.205	56.53
848.375	54.25
848.545	52.93
848.715	54.56
848.884	47.71
849.054	52.42
849.224	57.84
849.394	67.45
849.564	71.55
849.733	72.36
849.903	69.18
850.073	65.41
850.243	71.68
850.412	76.64
850.582	84.15
850.752	86.97
850.921	86.83
851.091	88.02
851.26	87.36
851.43	82.42
851.599	78.57
851.769	77.28
851.939	71.06
852.108	74.73
852.278	69.81
852.447	69.1
852.616	67.98
852.786	62.86
852.955	56.2
853.125	55.57
853.294	57.54
853.463	54.8
853.633	57.8
853.802	60.49
853.971	49.47
854.141	47.56
854.31	43.14
854.479	35.02
854.648	42.11
854.818	48.27
854.987	44.75
855.156	42.43
855.325	42.46
855.494	40.66
855.663	49.94
855.832	53.16
856.001	56.72
856.171	58.61
856.34	67.05
856.509	67.09
856.678	71.31
856.847	65.22
857.016	65.24
857.185	70.29
857.353	68.63
857.522	58.02
857.691	57.62
857.86	62.18
858.029	63.75
858.198	59.64
858.367	59.37
858.535	56.95
858.704	64.8
858.873	68.2
859.042	69.14
859.21	67.5
859.379	70.45
859.548	68.96
859.717	68.58
859.885	72.32
860.054	75.04
860.222	77.85
860.391	76.48
860.56	74.34
860.728	71.36
860.897	69.08
861.065	70
861.234	65.76
861.402	74.71
861.571	77.57
861.739	67.92
861.908	64.82
862.076	61.24
862.244	60.19
862.413	59.21
862.581	54.54
862.749	60.45
862.918	59.13
863.086	60.1
863.254	58.77
863.423	63.29
863.591	79.42
863.759	81.32
863.927	88.09
864.096	80.77
864.264	82.35
864.432	88.03
864.6	84.73
864.768	88.21
864.936	80.34
865.104	72.49
865.272	66.92
865.44	53.77
865.608	47.65
865.776	40.81
865.944	47.29
866.112	45.18
866.28	46.03
866.448	42.52
866.616	49.23
866.784	65.53
866.952	72.28
867.12	68.02
867.288	75.73
867.455	79.41
867.623	83.77
867.791	85.94
867.959	92.76
868.127	87.32
868.294	81.71
868.462	79.29
868.63	69.38
868.797	67.01
868.965	66.91
869.133	67.29
869.3	69.17
869.468	65.86
869.636	60.63
869.803	66.76
869.971	66.22
870.138	72.22
870.306	69.49
870.473	67.3
870.641	64.52
870.808	66.5
870.975	64.27
871.143	63.38
871.31	65.77
871.478	75.58
871.645	74.83
871.812	76.34
871.98	76.82
872.147	79.28
872.314	80.22
872.482	84.91
872.649	78.5
872.816	79.01
872.983	77.2
873.15	74.59
873.318	71.07
873.485	59.64
873.652	66.14
873.819	63.61
873.986	65.26
874.153	62.08
874.32	57.13
874.487	67
874.654	68.86
874.821	72.25
874.988	71.68
875.155	69.16
875.322	84.38
875.489	79
875.656	75.96
875.823	71.08
875.99	77.42
876.157	75.92
876.324	68.05
876.49	65.83
876.657	61.92
876.824	66.53
876.991	60.04
877.157	58.69
877.324	59.17
877.491	61.27
877.658	67.7
877.824	64.01
877.991	69.19
878.157	70.65
878.324	69.46
878.491	75.01
878.657	78.47
878.824	83.09
878.99	80.36
879.157	75.17
879.323	80.39
879.49	72.23
879.656	75.83
879.823	71.06
879.989	67.14
880.156	60.45
880.322	52.48
880.488	49.74
880.655	47.77
880.821	48.93
880.987	54.13
881.154	51.52
881.32	45.38
881.486	37.98
881.652	36.42
881.819	36.53
881.985	38.75
882.151	40.92
882.317	39.14
882.483	39.54
882.649	40.26
882.816	37.97
882.982	37.8
883.148	40.99
883.314	41.75
883.48	43.62
883.646	45.03
883.812	44.61
883.978	43.66
884.144	44.42
884.31	44.87
884.476	44.49
884.642	47.89
884.807	48.61
884.973	48.69
885.139	49.82
885.305	50.67
885.471	50.63
885.637	51.22
885.802	54.12
885.968	54.36
886.134	54.11
886.3	55.39
886.465	54.34
886.631	53.63
886.797	54.1
886.962	53.74
887.128	51.46
887.293	50.28
887.459	50.8
887.625	50.01
887.79	52.35
887.956	55.96
888.121	55.36
888.287	54.89
888.452	56.46
888.618	56.36
888.783	59.73
