Data from LC_267_Reflection_3.txt Node
Date: Sat Nov 21 11:56:29 EST 2015
User: robert
Spectrometer: USB4E03001
Autoset integration time: false
Trigger mode: 4
Integration Time (sec): 1.000000E-1
Scans to average: 15
Electric dark correction enabled: true
Nonlinearity correction enabled: false
Boxcar width: 5
Stray light correction enabled: false
XAxis mode: Wavelengths
Stop averaging: false
Number of Pixels in Spectrum: 3648
>>>>>Begin Spectral Data<<<<<
177.566	-132.08
177.785	-76.6
178.005	-293.17
178.225	227.67
178.445	730.06
178.665	222.35
178.885	703.09
179.105	493.94
179.324	166.81
179.544	221.25
179.764	762.95
179.984	141.33
180.204	158.83
180.423	144.88
180.643	152.52
180.863	223.48
181.083	195.72
181.302	224.57
181.522	210.3
181.742	243.58
181.961	173.74
182.181	145.64
182.401	263.89
182.621	215.02
182.84	213.21
183.06	164.89
183.279	122.21
183.499	127.05
183.719	107.9
183.938	104.07
184.158	117.76
184.377	139.27
184.597	151.49
184.816	124.24
185.036	128.66
185.256	119.04
185.475	112.78
185.695	123.16
185.914	123.58
186.134	116.34
186.353	116.21
186.572	119.89
186.792	110.98
187.011	98.9
187.231	114.11
187.45	108.16
187.67	133.86
187.889	142.11
188.108	150.08
188.328	184.49
188.547	216.11
188.766	223.61
188.986	212
189.205	403.04
189.424	856.98
189.644	624.1
189.863	-261.81
190.082	-438.52
190.302	978.93
190.521	199.42
190.74	163.04
190.959	185.78
191.178	193.51
191.398	138.8
191.617	123.06
191.836	127.25
192.055	113.22
192.274	96.58
192.494	103.41
192.713	97.31
192.932	119.55
193.151	93.6
193.37	89.55
193.589	81.84
193.808	81.87
194.027	82.88
194.246	84.4
194.465	95.47
194.685	116.87
194.904	109.91
195.123	128.04
195.342	148.67
195.561	211.6
195.78	192.35
195.999	245.07
196.218	254.11
196.436	327.32
196.655	350.04
196.874	291.6
197.093	288.3
197.312	328.31
197.531	301.86
197.75	217.5
197.969	180.38
198.188	206.18
198.407	199.45
198.625	175.18
198.844	136.52
199.063	128.04
199.282	127.38
199.501	147.35
199.719	146.71
199.938	158.11
200.157	152.56
200.376	166.63
200.594	152.12
200.813	129.69
201.032	142.38
201.251	141.64
201.469	177.49
201.688	267.96
201.907	242.54
202.125	181.3
202.344	177.93
202.563	231.7
202.781	223.21
203	260.83
203.218	253.98
203.437	502.31
203.656	854.57
203.874	855.3
204.093	389.22
204.311	293.93
204.53	460.03
204.748	350.22
204.967	295.17
205.185	232.29
205.404	193.16
205.622	498.14
205.841	283.05
206.059	241.55
206.278	178.18
206.496	166.01
206.715	343.14
206.933	212.53
207.151	200.92
207.37	154.8
207.588	199.71
207.806	240.03
208.025	114.76
208.243	132.42
208.461	124.24
208.68	165.56
208.898	203.33
209.116	149.2
209.335	146.55
209.553	188.65
209.771	257.9
209.989	225.89
210.208	222.91
210.426	252.65
210.644	237.12
210.862	382.95
211.081	252.94
211.299	168.59
211.517	214.48
211.735	216.2
211.953	162.68
212.171	112.76
212.39	110.17
212.608	108.84
212.826	131.25
213.044	124.06
213.262	106.03
213.48	109.84
213.698	100
213.916	111.87
214.134	96
214.352	106.92
214.57	108.7
214.788	112.49
215.006	111.9
215.224	103.99
215.442	124.14
215.66	164.06
215.878	170.76
216.096	212.74
216.314	182.56
216.532	185.13
216.75	186.97
216.968	242.67
217.185	205.6
217.403	209.91
217.621	215.79
217.839	191.37
218.057	167.15
218.275	162.56
218.492	137.03
218.71	137.72
218.928	161.59
219.146	125.62
219.363	112.09
219.581	199.51
219.799	167.38
220.017	137.55
220.234	143.53
220.452	131.69
220.67	116.99
220.887	115.6
221.105	119.96
221.323	125.06
221.54	127.4
221.758	104.4
221.976	94.45
222.193	115.08
222.411	108.82
222.629	90.58
222.846	104.14
223.064	89.94
223.281	97.98
223.499	95.7
223.716	81.35
223.934	83.82
224.151	84.22
224.369	77.23
224.586	72.62
224.804	67.86
225.021	70.52
225.239	59.97
225.456	65.3
225.674	56.94
225.891	57.77
226.108	54.29
226.326	52.15
226.543	49.64
226.76	48.56
226.978	42.24
227.195	34.18
227.413	32.65
227.63	32.08
227.847	31.54
228.064	24.69
228.282	20.26
228.499	16.64
228.716	14.89
228.934	13.07
229.151	10.89
229.368	8.37
229.585	11.18
229.802	10.81
230.02	9.39
230.237	7.88
230.454	11.23
230.671	12.8
230.888	17.46
231.105	17.72
231.323	19.32
231.54	20.83
231.757	24.84
231.974	24.43
232.191	25.52
232.408	33.73
232.625	34.56
232.842	33.24
233.059	33.01
233.276	32.27
233.493	34.27
233.71	39.52
233.927	41.28
234.144	37.57
234.361	37.73
234.578	39.29
234.795	34.87
235.012	36.28
235.229	36.56
235.446	32.71
235.663	28.4
235.879	24.48
236.096	19.05
236.313	21.99
236.53	26.06
236.747	21.84
236.964	17.51
237.181	16.57
237.397	12.32
237.614	7.8
237.831	6.88
238.048	12.51
238.264	15.48
238.481	14.26
238.698	12
238.915	9.77
239.131	10.45
239.348	12.22
239.565	14.79
239.781	19.74
239.998	21.28
240.215	23.19
240.431	18.2
240.648	17.04
240.865	16.08
241.081	12.68
241.298	12.73
241.514	14.63
241.731	13.93
241.947	14.54
242.164	14.48
242.38	13.39
242.597	13.84
242.814	14.1
243.03	14.57
243.246	14.08
243.463	14.05
243.679	15.07
243.896	16.17
244.112	17.74
244.329	17.56
244.545	16.61
244.762	18.8
244.978	18.63
245.194	19.01
245.411	18.53
245.627	18.89
245.843	16.9
246.06	13.22
246.276	11.17
246.492	9.77
246.709	8.72
246.925	8.79
247.141	7.93
247.357	6.97
247.574	6.31
247.79	5.27
248.006	5.56
248.222	5.68
248.439	7.19
248.655	7.87
248.871	8.62
249.087	8.53
249.303	7.86
249.519	8.92
249.736	10.75
249.952	12.68
250.168	14.23
250.384	14.89
250.6	16.11
250.816	15.17
251.032	15.37
251.248	13.92
251.464	13.71
251.68	15.32
251.896	14.63
252.112	13.68
252.328	11.89
252.544	13.98
252.76	13.77
252.976	14.97
253.192	14.94
253.408	15.05
253.624	15.28
253.84	16.51
254.056	16.26
254.272	13.97
254.487	14.06
254.703	13.96
254.919	11.34
255.135	10.72
255.351	8.9
255.567	7.81
255.782	4.01
255.998	5.32
256.214	3.98
256.43	4.37
256.646	6.92
256.861	7.06
257.077	9.13
257.293	11.6
257.508	11.73
257.724	12.12
257.94	12.77
258.155	13.72
258.371	12.38
258.587	12.17
258.802	11.8
259.018	10.52
259.234	10.27
259.449	9.41
259.665	7.46
259.88	7.48
260.096	7.05
260.312	7.89
260.527	7.33
260.743	7.69
260.958	7.67
261.174	6.96
261.389	8.37
261.605	8.78
261.82	9.4
262.036	10.93
262.251	10.95
262.466	11.74
262.682	10.99
262.897	11.51
263.113	12.91
263.328	14.11
263.543	15.63
263.759	13.88
263.974	14
264.189	14.69
264.405	15.41
264.62	18.17
264.835	18.9
265.051	19.14
265.266	21.31
265.481	18.97
265.696	18.02
265.912	17.04
266.127	15.81
266.342	15.08
266.557	15.09
266.773	14.23
266.988	11.57
267.203	11.46
267.418	11.02
267.633	9.4
267.848	8.23
268.064	7.96
268.279	8.89
268.494	9.57
268.709	9.73
268.924	7.7
269.139	7.33
269.354	6.99
269.569	5.75
269.784	5.85
269.999	5.11
270.214	7.47
270.429	7.33
270.644	5.59
270.859	5.3
271.074	5.12
271.289	5.81
271.504	5.91
271.719	5.9
271.934	7.18
272.149	6.99
272.363	7.51
272.578	5.61
272.793	5.37
273.008	7.07
273.223	7.36
273.438	7.63
273.653	9.52
273.867	10.17
274.082	11.12
274.297	9.66
274.512	9.71
274.726	10.31
274.941	12.28
275.156	13.78
275.371	12.18
275.585	13.07
275.8	11.46
276.015	9.2
276.229	8.84
276.444	9.4
276.659	10.2
276.873	10.51
277.088	10.8
277.302	10.92
277.517	10.51
277.732	12.06
277.946	11.25
278.161	12.2
278.375	12.86
278.59	13.68
278.804	11.92
279.019	11.57
279.233	11.32
279.448	10.64
279.662	10.05
279.877	9.85
280.091	9.88
280.306	9.16
280.52	9.53
280.735	10.17
280.949	8.01
281.163	8.12
281.378	7.57
281.592	7.16
281.806	7.62
282.021	7.3
282.235	7.05
282.449	5.89
282.664	5.67
282.878	6.24
283.092	6.29
283.307	7.1
283.521	7.18
283.735	7.82
283.949	8.15
284.164	6.82
284.378	7.2
284.592	6.62
284.806	7.37
285.02	7.47
285.234	6.7
285.449	5.1
285.663	5.62
285.877	6.19
286.091	7.05
286.305	6.01
286.519	7.18
286.733	7.34
286.947	7.53
287.161	7.32
287.375	8.45
287.589	8.91
287.803	10.02
288.017	10.02
288.231	10.11
288.445	9.11
288.659	10.48
288.873	10.37
289.087	10.12
289.301	11.22
289.515	10.98
289.729	11.44
289.943	11.13
290.157	11.14
290.371	10.64
290.584	10.77
290.798	10.82
291.012	10.21
291.226	10.11
291.44	9.75
291.654	8.59
291.867	9.23
292.081	8.63
292.295	8.81
292.509	9.18
292.722	9.15
292.936	9.2
293.15	8.14
293.364	8.63
293.577	7.09
293.791	8.64
294.005	9.24
294.218	8.36
294.432	7.51
294.645	8.12
294.859	7.97
295.073	7.35
295.286	7.27
295.5	8.03
295.713	7.9
295.927	8.77
296.14	8.33
296.354	8.56
296.568	9.12
296.781	9.84
296.994	9.96
297.208	9.73
297.421	11.46
297.635	11.19
297.848	11.35
298.062	11.5
298.275	11.72
298.489	10.87
298.702	10.58
298.915	10.35
299.129	9.66
299.342	8.76
299.555	8.84
299.769	8.06
299.982	8.9
300.195	9.04
300.409	9.32
300.622	9.77
300.835	10.84
301.048	11.42
301.262	10.48
301.475	11.1
301.688	12.42
301.901	12.55
302.115	11.43
302.328	11.11
302.541	10.91
302.754	11.39
302.967	11.03
303.18	11.78
303.393	12.23
303.607	14.58
303.82	14.5
304.033	12.44
304.246	13.58
304.459	14.21
304.672	13.53
304.885	14.58
305.098	13.88
305.311	14.35
305.524	13.16
305.737	12.33
305.95	10.74
306.163	10.6
306.376	10.96
306.589	10.15
306.802	9.34
307.015	9.35
307.228	8.47
307.44	8.28
307.653	8.43
307.866	9.41
308.079	9.57
308.292	9.17
308.505	9.23
308.718	9.9
308.93	10.31
309.143	10.09
309.356	9.79
309.569	8.96
309.781	10.11
309.994	9.3
310.207	9.29
310.42	9.2
310.632	10.07
310.845	10.31
311.058	10.72
311.27	10.62
311.483	12.22
311.696	12.48
311.908	13.38
312.121	11.93
312.333	12.77
312.546	12.38
312.759	12.73
312.971	13.17
313.184	13.85
313.396	13.65
313.609	12.8
313.821	12.33
314.034	13.64
314.246	14.16
314.459	16
314.671	15.27
314.884	15.5
315.096	15.61
315.309	14.82
315.521	14.17
315.733	14.51
315.946	15.63
316.158	14.69
316.371	14.78
316.583	14.79
316.795	13.38
317.008	14.95
317.22	14.75
317.432	14.59
317.644	14.57
317.857	14.75
318.069	13.32
318.281	12.41
318.494	13.72
318.706	13.09
318.918	13.27
319.13	13.7
319.342	12.05
319.555	11.99
319.767	12.6
319.979	13.43
320.191	13.09
320.403	14.83
320.615	15.06
320.827	14.45
321.039	13.74
321.252	13.11
321.464	13.28
321.676	11.43
321.888	12.11
322.1	11.52
322.312	10.75
322.524	10.24
322.736	9.65
322.948	10.98
323.16	10.79
323.372	11.11
323.584	10.85
323.796	11.58
324.007	13.9
324.219	13.91
324.431	14.41
324.643	14.97
324.855	14.96
325.067	15.52
325.279	15.03
325.491	15.72
325.702	16.07
325.914	16.62
326.126	16.07
326.338	14.73
326.55	14.69
326.761	13.87
326.973	13.57
327.185	13.89
327.396	14.24
327.608	13.85
327.82	13.4
328.032	12.95
328.243	12.64
328.455	12.82
328.666	14.3
328.878	15.59
329.09	16.06
329.301	16.77
329.513	17.37
329.725	17.46
329.936	17.89
330.148	18.51
330.359	19.48
330.571	20.31
330.782	20.92
330.994	20.48
331.205	19.83
331.417	20.84
331.628	20.81
331.84	21.47
332.051	20.9
332.262	20.73
332.474	21.2
332.685	21.06
332.897	21
333.108	20.24
333.319	20.58
333.531	20.1
333.742	19.68
333.953	19.91
334.165	19.42
334.376	18.9
334.587	19.84
334.799	19.87
335.01	20.46
335.221	21.12
335.432	21.36
335.644	22.44
335.855	23.72
336.066	24.48
336.277	24.8
336.488	24.69
336.7	24.86
336.911	24.9
337.122	25.18
337.333	25.13
337.544	24.36
337.755	24.75
337.966	23.99
338.177	22.87
338.388	22.7
338.599	22.06
338.811	22.73
339.022	23.59
339.233	22.75
339.444	21.57
339.655	21.17
339.866	21.55
340.076	21.47
340.287	20.95
340.498	21.39
340.709	21.22
340.92	21.57
341.131	22.15
341.342	21.74
341.553	23.03
341.764	23.11
341.975	23.2
342.185	23.26
342.396	23.62
342.607	24.8
342.818	24.62
343.029	25.5
343.239	25.76
343.45	24.77
343.661	25.37
343.872	24.45
344.082	25.45
344.293	25.66
344.504	24.97
344.714	24.78
344.925	24.49
345.136	24.95
345.346	24.26
345.557	24.15
345.768	24.66
345.978	24.28
346.189	24.51
346.399	23.42
346.61	23.67
346.821	24.06
347.031	23.83
347.242	23.84
347.452	23.73
347.663	23.89
347.873	24.06
348.084	23.79
348.294	24.28
348.504	23.98
348.715	24.65
348.925	24.67
349.136	24.48
349.346	25.55
349.557	25.34
349.767	25.64
349.977	25.26
350.188	24.76
350.398	24.97
350.608	24.95
350.819	25.33
351.029	25.5
351.239	25.27
351.449	25.5
351.66	24.59
351.87	24.96
352.08	24.8
352.29	25.14
352.501	24.9
352.711	24.12
352.921	23.11
353.131	23.09
353.341	22.35
353.552	21.64
353.762	21.78
353.972	22.1
354.182	21.8
354.392	21.55
354.602	21.12
354.812	22.06
355.022	22.43
355.232	22.73
355.442	22.8
355.652	23.43
355.862	23.65
356.072	23.5
356.282	23.12
356.492	23.61
356.702	23.34
356.912	23.26
357.122	23.15
357.332	22.92
357.542	22.71
357.752	22.64
357.962	22.51
358.171	22.69
358.381	22.44
358.591	22.71
358.801	22.59
359.011	23.38
359.221	23.43
359.43	23.49
359.64	23.9
359.85	23.94
360.06	23.47
360.269	23.55
360.479	23.74
360.689	23.38
360.899	23.48
361.108	23.14
361.318	22.2
361.528	22.22
361.737	21.74
361.947	21.54
362.156	21.54
362.366	21.82
362.576	21.62
362.785	21.23
362.995	21.86
363.204	21.62
363.414	21.59
363.623	22.22
363.833	22.34
364.042	22.78
364.252	22.7
364.461	23.45
364.671	22.81
364.88	23.1
365.09	23.14
365.299	23.27
365.509	22.68
365.718	22.64
365.927	22.67
366.137	21.98
366.346	21.51
366.555	21.37
366.765	21.06
366.974	21.48
367.183	21.4
367.393	21.59
367.602	21.61
367.811	22.5
368.021	22.39
368.23	22.35
368.439	22.34
368.648	22.63
368.857	23.18
369.067	22.48
369.276	23.12
369.485	23.01
369.694	22.78
369.903	22.39
370.112	21.88
370.321	22.08
370.531	21.37
370.74	21.91
370.949	21.77
371.158	21.48
371.367	21.83
371.576	21.28
371.785	21.2
371.994	21.37
372.203	21.33
372.412	21.47
372.621	21.19
372.83	21.1
373.039	20.96
373.248	20.8
373.457	20.45
373.666	20.21
373.874	19.89
374.083	19.99
374.292	20.07
374.501	20.04
374.71	19.75
374.919	19.69
375.128	20.42
375.336	20.52
375.545	20.69
375.754	20.65
375.963	20.47
376.171	20.79
376.38	20.27
376.589	20.18
376.798	20.13
377.006	20.28
377.215	20.33
377.424	20.07
377.632	20.14
377.841	19.8
378.05	20.2
378.258	20.13
378.467	19.76
378.675	20.08
378.884	19.88
379.093	19.76
379.301	19.73
379.51	19.92
379.718	20
379.927	19.9
380.135	20.01
380.344	19.8
380.552	19.58
380.761	20.13
380.969	20.02
381.177	20.1
381.386	19.83
381.594	19.97
381.803	19.84
382.011	19.68
382.219	19.53
382.428	19.5
382.636	19.36
382.845	20.04
383.053	19.75
383.261	19.97
383.469	19.82
383.678	19.91
383.886	19.75
384.094	19.49
384.302	19.18
384.511	19.24
384.719	19.24
384.927	19.34
385.135	19.57
385.343	19.55
385.552	19.61
385.76	19.58
385.968	19.67
386.176	19.76
386.384	19.8
386.592	19.83
386.8	19.63
387.008	19.88
387.216	19.98
387.424	19.63
387.633	19.34
387.841	19.08
388.049	19.26
388.257	19.49
388.465	19.17
388.672	19.1
388.88	19.26
389.088	19.29
389.296	18.69
389.504	18.43
389.712	18.39
389.92	18.49
390.128	18.55
390.336	18.68
390.544	18.29
390.751	18.3
390.959	18.53
391.167	18.54
391.375	18.26
391.583	18.5
391.79	18.53
391.998	18.66
392.206	19.01
392.414	18.84
392.621	18.66
392.829	18.92
393.037	19.21
393.244	19.16
393.452	19.1
393.66	19.51
393.867	19.59
394.075	19.92
394.283	19.86
394.49	19.65
394.698	19.72
394.905	19.7
395.113	19.6
395.32	19.75
395.528	19.91
395.735	19.99
395.943	20.05
396.15	20.16
396.358	19.51
396.565	19.28
396.773	19.64
396.98	19.86
397.188	19.99
397.395	20.18
397.602	20
397.81	19.8
398.017	19.94
398.225	20.05
398.432	20.14
398.639	20.48
398.847	20.65
399.054	20.45
399.261	20.7
399.468	20.87
399.676	21.1
399.883	21.2
400.09	21.3
400.297	21.32
400.505	21.05
400.712	20.91
400.919	21.04
401.126	21.39
401.333	21.33
401.54	21.14
401.748	20.86
401.955	20.8
402.162	20.68
402.369	20.58
402.576	20.26
402.783	20.22
402.99	20.01
403.197	20.2
403.404	19.8
403.611	19.77
403.818	19.58
404.025	19.46
404.232	19.35
404.439	19.35
404.646	19.2
404.853	19.63
405.06	19.67
405.267	19.87
405.474	19.46
405.681	19.54
405.887	19.29
406.094	19.34
406.301	19.61
406.508	19.5
406.715	19.52
406.922	19.43
407.128	19.17
407.335	19.25
407.542	19.33
407.749	19.49
407.955	19.49
408.162	19.68
408.369	19.79
408.575	19.54
408.782	19.63
408.989	19.74
409.195	20.15
409.402	20.2
409.609	20.17
409.815	19.72
410.022	19.79
410.228	19.69
410.435	19.6
410.642	19.37
410.848	19.62
411.055	19.43
411.261	19
411.468	18.88
411.674	18.82
411.881	18.89
412.087	19.33
412.294	19.55
412.5	19.6
412.706	19.67
412.913	19.98
413.119	19.87
413.326	20.14
413.532	20.34
413.738	20.39
413.945	20.51
414.151	20.46
414.357	20.3
414.564	20.17
414.77	20.36
414.976	20.24
415.182	19.9
415.389	20.01
415.595	19.79
415.801	19.82
416.007	19.77
416.214	19.66
416.42	19.65
416.626	19.73
416.832	19.45
417.038	19.24
417.244	19.24
417.45	19.29
417.657	19.07
417.863	19.02
418.069	18.97
418.275	18.91
418.481	18.77
418.687	18.61
418.893	18.4
419.099	18.41
419.305	18.29
419.511	18.38
419.717	18.4
419.923	18.37
420.129	18.42
420.335	18.35
420.541	18.33
420.746	18.43
420.952	18.56
421.158	18.52
421.364	18.57
421.57	18.66
421.776	18.73
421.982	18.64
422.187	18.7
422.393	18.55
422.599	18.45
422.805	18.41
423.01	18.37
423.216	18.27
423.422	18.24
423.628	18.23
423.833	18.26
424.039	18.19
424.245	18.2
424.45	18.19
424.656	18.16
424.862	18.31
425.067	18.3
425.273	18.25
425.478	18.25
425.684	18.51
425.889	18.65
426.095	18.65
426.301	18.69
426.506	18.72
426.712	18.6
426.917	18.71
427.123	18.72
427.328	18.82
427.533	18.97
427.739	19.1
427.944	18.83
428.15	18.67
428.355	18.67
428.561	18.52
428.766	18.48
428.971	18.56
429.177	18.53
429.382	18.72
429.587	18.52
429.793	18.52
429.998	18.33
430.203	18.29
430.408	18.18
430.614	18.01
430.819	18.05
431.024	18.05
431.229	18.03
431.434	18.12
431.64	17.74
431.845	17.86
432.05	17.73
432.255	17.85
432.46	17.82
432.665	17.75
432.87	17.81
433.076	17.81
433.281	17.85
433.486	17.92
433.691	18.01
433.896	18.08
434.101	18
434.306	17.83
434.511	17.63
434.716	17.6
434.921	17.55
435.126	17.6
435.331	17.68
435.535	17.75
435.74	17.68
435.945	17.46
436.15	17.44
436.355	17.55
436.56	17.8
436.765	18.01
436.97	18.14
437.174	18.33
437.379	18.34
437.584	18.32
437.789	18.1
437.993	18.09
438.198	18.16
438.403	18.22
438.608	18.25
438.812	18.14
439.017	18.04
439.222	18.19
439.426	18.18
439.631	18.23
439.836	18.08
440.04	18.24
440.245	18.28
440.45	18.29
440.654	18.2
440.859	18.17
441.063	18.16
441.268	18.09
441.472	18
441.677	17.9
441.881	18.01
442.086	18.01
442.29	17.83
442.495	17.72
442.699	17.66
442.904	17.62
443.108	17.59
443.312	17.68
443.517	17.89
443.721	17.98
443.925	17.94
444.13	17.74
444.334	17.76
444.538	17.88
444.743	17.91
444.947	17.96
445.151	17.98
445.356	17.97
445.56	17.92
445.764	17.71
445.968	17.64
446.173	17.67
446.377	17.58
446.581	17.62
446.785	17.57
446.989	17.51
447.193	17.51
447.398	17.63
447.602	17.56
447.806	17.5
448.01	17.53
448.214	17.48
448.418	17.42
448.622	17.47
448.826	17.38
449.03	17.3
449.234	17.35
449.438	17.26
449.642	17.09
449.846	17.13
450.05	17.1
450.254	17.24
450.458	17.05
450.662	17.35
450.866	17.3
451.069	17.29
451.273	17.45
451.477	17.44
451.681	17.42
451.885	17.38
452.089	17.38
452.292	17.68
452.496	17.64
452.7	17.79
452.904	17.56
453.107	17.52
453.311	17.51
453.515	17.37
453.719	17.38
453.922	17.42
454.126	17.34
454.33	17.38
454.533	17.25
454.737	17.16
454.94	17.33
455.144	17.55
455.348	17.52
455.551	17.67
455.755	17.73
455.958	17.98
456.162	18.09
456.365	18.24
456.569	18.33
456.772	18.29
456.976	18.27
457.179	18.05
457.383	17.86
457.586	17.89
457.79	17.94
457.993	17.92
458.196	17.76
458.4	17.62
458.603	17.61
458.807	17.47
459.01	17.42
459.213	17.53
459.417	17.57
459.62	17.6
459.823	17.6
460.026	17.53
460.23	17.48
460.433	17.48
460.636	17.52
460.839	17.56
461.042	17.65
461.246	17.61
461.449	17.61
461.652	17.57
461.855	17.51
462.058	17.61
462.261	17.52
462.464	17.65
462.668	17.54
462.871	17.61
463.074	17.53
463.277	17.51
463.48	17.5
463.683	17.48
463.886	17.64
464.089	17.69
464.292	17.77
464.495	17.75
464.698	17.83
464.901	18.05
465.104	18.28
465.306	18.51
465.509	18.49
465.712	18.53
465.915	18.55
466.118	18.46
466.321	18.51
466.524	18.35
466.726	18.53
466.929	18.43
467.132	18.37
467.335	18.04
467.538	18.05
467.74	17.87
467.943	18.01
468.146	17.85
468.348	17.89
468.551	17.85
468.754	17.88
468.956	17.79
469.159	17.72
469.362	17.69
469.564	17.73
469.767	17.67
469.969	17.97
470.172	17.96
470.375	17.99
470.577	18.14
470.78	18.09
470.982	18.14
471.185	18.13
471.387	18.3
471.59	18.28
471.792	18.29
471.995	18.26
472.197	18.25
472.399	18.36
472.602	18.39
472.804	18.07
473.007	18.09
473.209	18.08
473.411	18.24
473.614	18.37
473.816	18.38
474.018	18.39
474.22	18.44
474.423	18.47
474.625	18.25
474.827	18.33
475.03	18.65
475.232	18.75
475.434	18.75
475.636	18.52
475.838	18.32
476.04	18.27
476.243	18.33
476.445	18.27
476.647	18.2
476.849	18.1
477.051	18.12
477.253	18.03
477.455	17.94
477.657	17.95
477.859	18.04
478.061	17.95
478.263	18.09
478.465	18.06
478.667	17.99
478.869	17.88
479.071	17.99
479.273	17.92
479.475	17.8
479.677	17.76
479.879	17.83
480.081	17.87
480.283	18.05
480.485	17.94
480.686	17.89
480.888	17.89
481.09	18.01
481.292	17.98
481.494	17.93
481.695	17.89
481.897	17.9
482.099	17.79
482.301	17.67
482.502	17.63
482.704	17.6
482.906	17.57
483.107	17.55
483.309	17.48
483.511	17.49
483.712	17.46
483.914	17.52
484.115	17.46
484.317	17.46
484.519	17.46
484.72	17.41
484.922	17.39
485.123	17.4
485.325	17.42
485.526	17.44
485.728	17.4
485.929	17.44
486.131	17.35
486.332	17.38
486.534	17.33
486.735	17.32
486.936	17.33
487.138	17.3
487.339	17.35
487.541	17.37
487.742	17.38
487.943	17.42
488.144	17.39
488.346	17.39
488.547	17.42
488.748	17.43
488.95	17.48
489.151	17.48
489.352	17.45
489.553	17.4
489.755	17.4
489.956	17.38
490.157	17.39
490.358	17.46
490.559	17.53
490.76	17.57
490.961	17.62
491.163	17.58
491.364	17.62
491.565	17.72
491.766	17.69
491.967	17.66
492.168	17.56
492.369	17.56
492.57	17.58
492.771	17.5
492.972	17.52
493.173	17.5
493.374	17.52
493.575	17.56
493.776	17.56
493.976	17.65
494.177	17.69
494.378	17.85
494.579	17.94
494.78	17.95
494.981	18.16
495.182	18.03
495.382	18.1
495.583	18.13
495.784	18.04
495.985	18.05
496.185	18.05
496.386	18.01
496.587	18.17
496.788	18.18
496.988	18.06
497.189	18.04
497.39	18.17
497.59	18.24
497.791	18.35
497.992	18.41
498.192	18.43
498.393	18.46
498.593	18.56
498.794	18.45
498.994	18.48
499.195	18.41
499.395	18.51
499.596	18.54
499.796	18.51
499.997	18.56
500.197	18.61
500.398	18.54
500.598	18.68
500.799	18.7
500.999	18.71
501.199	18.75
501.4	18.98
501.6	18.97
501.801	19.1
502.001	19.09
502.201	18.97
502.402	19.02
502.602	19.18
502.802	19.07
503.002	19.14
503.203	19.21
503.403	19.34
503.603	19.47
503.803	19.54
504.003	19.51
504.204	19.53
504.404	19.86
504.604	19.84
504.804	19.96
505.004	20.04
505.204	20.06
505.404	19.9
505.604	19.81
505.804	19.69
506.005	19.72
506.205	19.85
506.405	20.04
506.605	19.9
506.805	20.04
507.005	20.03
507.204	20.13
507.404	20.24
507.604	20.53
507.804	20.6
508.004	20.59
508.204	20.72
508.404	20.58
508.604	20.44
508.804	20.45
509.003	20.46
509.203	20.51
509.403	20.45
509.603	20.44
509.803	20.33
510.002	20.28
510.202	20.47
510.402	20.31
510.602	20.33
510.801	20.38
511.001	20.43
511.201	20.35
511.4	20.38
511.6	20.41
511.8	20.46
511.999	20.63
512.199	20.78
512.398	20.72
512.598	20.82
512.797	21.11
512.997	21.1
513.197	21.18
513.396	21.41
513.596	21.45
513.795	21.5
513.994	21.43
514.194	21.45
514.393	21.47
514.593	21.61
514.792	21.56
514.992	21.49
515.191	21.69
515.39	21.74
515.59	21.77
515.789	21.88
515.988	22.05
516.188	22.2
516.387	22.26
516.586	22.38
516.786	22.45
516.985	22.56
517.184	22.58
517.383	22.67
517.582	22.72
517.782	22.73
517.981	22.82
518.18	22.78
518.379	22.84
518.578	22.73
518.777	22.73
518.976	22.75
519.176	22.88
519.375	22.94
519.574	22.98
519.773	22.95
519.972	22.92
520.171	22.97
520.37	23.05
520.569	23.11
520.768	23.38
520.967	23.41
521.166	23.33
521.365	23.35
521.564	23.38
521.762	23.34
521.961	23.41
522.16	23.58
522.359	23.63
522.558	23.68
522.757	23.73
522.956	23.83
523.154	23.94
523.353	24.29
523.552	24.37
523.751	24.44
523.949	24.58
524.148	24.61
524.347	24.66
524.546	24.56
524.744	24.56
524.943	24.57
525.142	24.58
525.34	24.57
525.539	24.4
525.737	24.44
525.936	24.5
526.135	24.61
526.333	24.71
526.532	24.81
526.73	24.88
526.929	24.91
527.127	24.96
527.326	24.97
527.524	24.98
527.723	25.09
527.921	25.05
528.12	25.01
528.318	24.86
528.516	24.88
528.715	24.84
528.913	24.83
529.112	24.87
529.31	24.84
529.508	24.91
529.707	25.03
529.905	25.05
530.103	25.09
530.301	25.14
530.5	25.33
530.698	25.42
530.896	25.54
531.094	25.61
531.293	25.71
531.491	25.87
531.689	25.87
531.887	25.92
532.085	26
532.283	26.16
532.481	26.25
532.68	26.32
532.878	26.3
533.076	26.22
533.274	26.35
533.472	26.4
533.67	26.37
533.868	26.4
534.066	26.46
534.264	26.53
534.462	26.51
534.66	26.48
534.858	26.45
535.056	26.55
535.253	26.65
535.451	26.62
535.649	26.57
535.847	26.74
536.045	26.85
536.243	26.81
536.441	26.78
536.638	26.88
536.836	27
537.034	27.06
537.232	27.08
537.43	27.22
537.627	27.31
537.825	27.41
538.023	27.39
538.22	27.37
538.418	27.34
538.616	27.37
538.813	27.44
539.011	27.49
539.209	27.5
539.406	27.58
539.604	27.62
539.801	27.76
539.999	27.91
540.196	27.98
540.394	27.98
540.591	28.09
540.789	28.04
540.986	27.99
541.184	27.98
541.381	27.98
541.579	27.98
541.776	27.89
541.974	27.86
542.171	27.82
542.368	27.8
542.566	27.8
542.763	27.74
542.96	27.88
543.158	27.9
543.355	27.98
543.552	28.1
543.75	28.26
543.947	28.46
544.144	28.53
544.341	28.63
544.539	28.81
544.736	28.94
544.933	29.13
545.13	29.29
545.327	29.41
545.524	29.46
545.722	29.5
545.919	29.43
546.116	29.53
546.313	29.6
546.51	29.66
546.707	29.65
546.904	29.84
547.101	29.91
547.298	29.84
547.495	29.95
547.692	30
547.889	30.11
548.086	30.17
548.283	30.23
548.48	30.33
548.677	30.39
548.874	30.43
549.07	30.4
549.267	30.43
549.464	30.43
549.661	30.47
549.858	30.56
550.055	30.68
550.251	30.83
550.448	30.62
550.645	30.71
550.842	30.79
551.038	30.99
551.235	30.97
551.432	31.02
551.628	31.08
551.825	31.1
552.022	31.26
552.218	31.27
552.415	31.16
552.612	31.43
552.808	31.43
553.005	31.35
553.201	31.22
553.398	31.2
553.594	31.29
553.791	31.42
553.987	31.51
554.184	31.37
554.38	31.51
554.577	31.71
554.773	31.63
554.97	31.71
555.166	31.9
555.362	32.12
555.559	32.11
555.755	31.99
555.952	32.1
556.148	32.11
556.344	32.25
556.541	32.09
556.737	31.89
556.933	31.9
557.129	31.83
557.326	31.99
557.522	32.09
557.718	32.34
557.914	32.59
558.11	32.56
558.307	32.51
558.503	32.48
558.699	32.68
558.895	32.76
559.091	32.82
559.287	32.92
559.483	32.72
559.679	32.71
559.876	32.82
560.072	32.8
560.268	32.77
560.464	33.19
560.66	33.36
560.856	33.42
561.052	33.62
561.247	33.73
561.443	33.85
561.639	34.02
561.835	34.12
562.031	34.1
562.227	34.03
562.423	34.07
562.619	33.97
562.815	34.19
563.01	34
563.206	33.95
563.402	33.91
563.598	33.82
563.793	33.69
563.989	33.61
564.185	33.51
564.381	33.71
564.576	33.78
564.772	33.81
564.968	33.64
565.163	33.69
565.359	33.84
565.555	33.83
565.75	33.74
565.946	33.9
566.141	34.05
566.337	34.12
566.532	34.04
566.728	33.99
566.923	33.91
567.119	33.91
567.314	33.98
567.51	33.93
567.705	34.16
567.901	34.39
568.096	34.39
568.292	34.38
568.487	34.33
568.682	34.45
568.878	34.62
569.073	34.33
569.268	34.4
569.464	34.41
569.659	34.53
569.854	34.45
570.05	34.41
570.245	34.4
570.44	34.27
570.635	34.4
570.831	34.39
571.026	34.33
571.221	34.62
571.416	34.69
571.611	34.74
571.806	34.76
572.002	34.72
572.197	34.8
572.392	34.8
572.587	34.82
572.782	34.78
572.977	34.86
573.172	34.9
573.367	34.92
573.562	34.9
573.757	34.8
573.952	34.79
574.147	34.78
574.342	34.8
574.537	34.92
574.732	34.96
574.927	35.29
575.121	35.24
575.316	35.27
575.511	35.35
575.706	35.53
575.901	35.54
576.096	35.7
576.29	35.94
576.485	35.82
576.68	35.83
576.875	35.76
577.069	35.59
577.264	35.74
577.459	35.94
577.654	35.84
577.848	35.68
578.043	36.09
578.238	35.92
578.432	35.79
578.627	36.04
578.821	36.13
579.016	36.33
579.21	36.36
579.405	36.36
579.6	36.37
579.794	36.67
579.989	36.7
580.183	36.67
580.378	36.79
580.572	36.9
580.766	37.08
580.961	37.09
581.155	37.2
581.35	37.46
581.544	37.42
581.738	37.5
581.933	37.54
582.127	37.6
582.321	37.51
582.516	37.57
582.71	37.45
582.904	37.32
583.099	37.51
583.293	37.46
583.487	37.37
583.681	37.51
583.875	37.37
584.07	37.32
584.264	37.31
584.458	37.31
584.652	37.14
584.846	37.21
585.04	37.08
585.234	37.02
585.428	37.16
585.623	37.18
585.817	37.26
586.011	37.3
586.205	37.34
586.399	37.42
586.593	37.63
586.787	37.92
586.981	38.02
587.174	38.14
587.368	38.05
587.562	37.74
587.756	37.6
587.95	37.38
588.144	37.48
588.338	37.23
588.532	37.1
588.725	36.81
588.919	36.82
589.113	36.97
589.307	36.88
589.501	36.63
589.694	36.84
589.888	36.8
590.082	36.83
590.275	36.8
590.469	37.03
590.663	37.22
590.856	37.54
591.05	37.42
591.244	37.41
591.437	37.6
591.631	37.86
591.824	37.91
592.018	38.09
592.212	38.06
592.405	37.86
592.599	37.89
592.792	37.93
592.986	37.96
593.179	37.97
593.372	37.72
593.566	37.72
593.759	37.77
593.953	37.96
594.146	37.91
594.339	38.04
594.533	38.36
594.726	38.42
594.92	38.2
595.113	38.12
595.306	38.3
595.499	38.44
595.693	38.26
595.886	38.05
596.079	37.68
596.272	37.64
596.466	37.43
596.659	37.37
596.852	37.13
597.045	37.11
597.238	36.76
597.431	36.66
597.624	36.53
597.818	36.45
598.011	36.62
598.204	36.75
598.397	36.89
598.59	37.02
598.783	36.96
598.976	37.08
599.169	37.31
599.362	37.67
599.555	37.8
599.748	38.02
599.941	38.39
600.134	38.47
600.326	38.52
600.519	38.6
600.712	38.77
600.905	38.86
601.098	39.01
601.291	38.98
601.483	38.9
601.676	38.74
601.869	38.71
602.062	38.44
602.255	38.41
602.447	38.52
602.64	38.44
602.833	38.26
603.025	38.27
603.218	38.41
603.411	38.31
603.603	38.18
603.796	38.14
603.989	37.95
604.181	38.02
604.374	38.02
604.566	37.89
604.759	37.78
604.951	37.74
605.144	37.52
605.336	37.38
605.529	37.62
605.721	37.88
605.914	37.92
606.106	38.01
606.299	38.05
606.491	37.89
606.683	38.22
606.876	38.32
607.068	38.39
607.26	38.66
607.453	38.62
607.645	38.36
607.837	38.37
608.03	38.27
608.222	38.39
608.414	38.21
608.606	38.48
608.799	38.22
608.991	38.11
609.183	38.11
609.375	38.12
609.567	38.11
609.759	38.31
609.952	38.17
610.144	38.26
610.336	38.2
610.528	38.34
610.72	38.19
610.912	38.28
611.104	38.34
611.296	38.44
611.488	38.36
611.68	38.23
611.872	38.17
612.064	38.29
612.256	38.35
612.448	38.45
612.64	38.5
612.832	38.55
613.023	38.76
613.215	38.7
613.407	38.95
613.599	39.1
613.791	39.48
613.983	39.42
614.174	39.6
614.366	39.8
614.558	40.03
614.75	40.17
614.941	40.41
615.133	40.28
615.325	40.43
615.516	40.07
615.708	39.96
615.9	39.81
616.091	39.69
616.283	39.59
616.475	39.64
616.666	39.34
616.858	39.13
617.049	39.16
617.241	39.27
617.432	39.12
617.624	39.67
617.815	39.78
618.007	39.79
618.198	39.88
618.39	40.05
618.581	40.09
618.773	40.14
618.964	40.26
619.155	40.25
619.347	39.97
619.538	39.96
619.729	39.6
619.921	39.68
620.112	39.73
620.303	39.85
620.494	39.9
620.686	39.87
620.877	39.96
621.068	39.98
621.259	39.98
621.451	40.29
621.642	40.41
621.833	40.54
622.024	40.6
622.215	40.52
622.406	40.44
622.597	40.12
622.788	40.07
622.98	40.1
623.171	40.02
623.362	39.94
623.553	39.75
623.744	39.68
623.935	39.65
624.126	39.63
624.317	39.92
624.508	40.06
624.698	40.01
624.889	39.69
625.08	39.52
625.271	40.18
625.462	40.21
625.653	40.14
625.844	40.12
626.034	39.95
626.225	40.14
626.416	40.11
626.607	40.17
626.798	40.32
626.988	40.91
627.179	40.99
627.37	40.7
627.56	40.71
627.751	40.8
627.942	40.91
628.132	40.94
628.323	40.81
628.514	40.71
628.704	40.49
628.895	40.36
629.085	39.98
629.276	39.86
629.466	39.56
629.657	39.42
629.847	39.33
630.038	39.38
630.228	39.4
630.419	39.16
630.609	38.99
630.8	39.1
630.99	39.33
631.181	39.36
631.371	39.41
631.561	39.89
631.752	40.08
631.942	40.01
632.132	40.12
632.323	40.44
632.513	40.73
632.703	41.14
632.893	41.29
633.084	41.08
633.274	41.04
633.464	41.03
633.654	40.69
633.844	40.81
634.034	40.95
634.225	40.97
634.415	40.65
634.605	40.76
634.795	40.48
634.985	40.26
635.175	40.23
635.365	40.07
635.555	40.03
635.745	40.18
635.935	39.96
636.125	39.84
636.315	39.62
636.505	39.74
636.695	39.36
636.885	39.51
637.075	39.47
637.265	39.48
637.455	39.67
637.644	39.93
637.834	39.93
638.024	40.1
638.214	40.59
638.404	40.43
638.593	40.66
638.783	41.08
638.973	41.07
639.163	41.41
639.352	41.59
639.542	41.63
639.732	41.51
639.921	41.65
640.111	41.59
640.301	41.46
640.49	41.81
640.68	41.81
640.87	41.82
641.059	41.83
641.249	41.89
641.438	41.68
641.628	41.72
641.817	42
642.007	41.52
642.196	41.36
642.386	41.12
642.575	41.09
642.764	41.12
642.954	40.75
643.143	40.72
643.333	40.21
643.522	40.2
643.711	40.14
643.901	40.45
644.09	41.13
644.279	41.47
644.469	41.62
644.658	41.62
644.847	41.59
645.036	41.61
645.226	41.62
645.415	41.98
645.604	42.39
645.793	42.48
645.982	42.03
646.171	41.39
646.361	40.98
646.55	41.08
646.739	41
646.928	41
647.117	41.22
647.306	41.61
647.495	41.15
647.684	41.26
647.873	41.37
648.062	41.51
648.251	41.88
648.44	42.05
648.629	41.95
648.818	41.86
649.007	41.77
649.196	41.74
649.384	41.18
649.573	41.87
649.762	41.73
649.951	41.4
650.14	41.11
650.328	41.07
650.517	41.08
650.706	41.13
650.895	41.24
651.083	41.29
651.272	41.2
651.461	41.49
651.65	41.51
651.838	41.19
652.027	41.59
652.216	41.44
652.404	41.16
652.593	41.34
652.781	41.17
652.97	41
653.158	41.02
653.347	41.08
653.535	40.93
653.724	40.69
653.912	41.13
654.101	41.12
654.289	41.58
654.478	41.73
654.666	41.73
654.855	41.99
655.043	42.51
655.231	42.36
655.42	42.26
655.608	42.57
655.796	42.7
655.985	42.39
656.173	42.37
656.361	42.22
656.55	42.18
656.738	41.87
656.926	41.74
657.114	41.7
657.302	41.89
657.491	42.2
657.679	41.92
657.867	41.86
658.055	41.79
658.243	41.21
658.431	41
658.619	40.98
658.807	41.01
658.996	40.96
659.184	40.58
659.372	40.36
659.56	40.1
659.748	40.13
659.936	40.1
660.124	40.29
660.311	40.64
660.499	40.91
660.687	40.91
660.875	41.01
661.063	40.91
661.251	41.11
661.439	41.32
661.627	41.45
661.814	41.39
662.002	41.46
662.19	41.45
662.378	41.23
662.565	41.39
662.753	41.55
662.941	41.69
663.129	41.86
663.316	42.13
663.504	41.79
663.692	41.57
663.879	41.93
664.067	41.87
664.254	41.79
664.442	42.01
664.63	41.8
664.817	41.62
665.005	41.61
665.192	41.77
665.38	41.58
665.567	41.95
665.755	42.35
665.942	42.19
666.13	42.15
666.317	42.62
666.504	42.84
666.692	42.85
666.879	43.11
667.067	43.11
667.254	42.65
667.441	42.58
667.629	42.04
667.816	41.7
668.003	41.47
668.19	41.26
668.378	40.97
668.565	40.82
668.752	40.89
668.939	40.91
669.127	40.71
669.314	41.21
669.501	41.14
669.688	41.76
669.875	41.59
670.062	41.84
670.249	41.97
670.436	42.04
670.623	41.91
670.81	41.79
670.997	41.62
671.184	41.55
671.371	41.63
671.558	41.59
671.745	41.43
671.932	41.68
672.119	41.74
672.306	42.11
672.493	41.99
672.68	42.22
672.867	42.01
673.054	42.02
673.24	41.76
673.427	41.41
673.614	41.85
673.801	42.16
673.988	42.2
674.174	41.9
674.361	41.73
674.548	41.3
674.734	41.23
674.921	41.53
675.108	41.75
675.294	42.33
675.481	42.1
675.668	42.23
675.854	42.01
676.041	41.93
676.227	41.72
676.414	41.61
676.601	41.88
676.787	42.13
676.974	41.9
677.16	41.76
677.347	41.65
677.533	42
677.719	41.45
677.906	41.45
678.092	41.4
678.279	41.42
678.465	41.52
678.651	41.62
678.838	41.36
679.024	41.48
679.21	41.39
679.397	41.32
679.583	40.96
679.769	40.98
679.955	40.91
680.142	40.96
680.328	41.61
680.514	41.48
680.7	41.21
680.886	41.22
681.073	40.88
681.259	40.93
681.445	40.84
681.631	40.83
681.817	41
682.003	40.78
682.189	40.91
682.375	40.26
682.561	40.68
682.747	40.9
682.933	40.8
683.119	41.01
683.305	40.52
683.491	40.69
683.677	41.2
683.863	41.14
684.049	41.58
684.235	41.68
684.42	41.86
684.606	41.45
684.792	41.46
684.978	41.57
685.164	42.14
685.349	42.82
685.535	43.33
685.721	43.22
685.907	43.07
686.092	42.82
686.278	42.31
686.464	41.96
686.649	41.94
686.835	42.27
687.021	42.45
687.206	42.26
687.392	41.89
687.577	41.34
687.763	40.91
687.948	40.65
688.134	40.82
688.319	41.25
688.505	41.64
688.69	41.89
688.876	41.41
689.061	41.22
689.247	41.58
689.432	41.6
689.618	41.65
689.803	41.87
689.988	42.44
690.174	42.39
690.359	42.17
690.544	42.26
690.73	41.97
690.915	42.22
691.1	42.41
691.285	42.26
691.471	42.59
691.656	42.78
691.841	42.87
692.026	42.7
692.211	42.6
692.396	43.14
692.582	43.4
692.767	43.39
692.952	43.29
693.137	43.05
693.322	42.12
693.507	42.12
693.692	41.98
693.877	42.12
694.062	42.06
694.247	42.26
694.432	41.94
694.617	41.62
694.802	42.31
694.987	42.56
695.172	43.11
695.357	43.77
695.541	43.46
695.726	43.47
695.911	43.77
696.096	43.97
696.281	43.97
696.466	44.53
696.65	44.31
696.835	43.69
697.02	43.43
697.204	43.28
697.389	43.13
697.574	43.05
697.759	42.73
697.943	42.21
698.128	42
698.312	41.84
698.497	41.21
698.682	41.43
698.866	41.42
699.051	41.2
699.235	40.71
699.42	40.94
699.604	41.1
699.789	41.37
699.973	41.54
700.158	41.78
700.342	41.99
700.527	42.48
700.711	42.52
700.895	42.64
701.08	43
701.264	43.46
701.448	43.68
701.633	43.4
701.817	43.49
702.001	43.68
702.186	43.68
702.37	43.2
702.554	42.82
702.738	42.98
702.923	43.13
703.107	43.22
703.291	43.41
703.475	43.14
703.659	43.81
703.843	43.99
704.027	44.17
704.212	44.6
704.396	45.42
704.58	45.85
704.764	45.92
704.948	45.5
705.132	45.71
705.316	46.51
705.5	46.71
705.684	47.31
705.868	47.36
706.052	47.08
706.235	46.48
706.419	45.92
706.603	45.84
706.787	45.59
706.971	46.45
707.155	46.42
707.339	45.65
707.522	45.01
707.706	44.6
707.89	45.18
708.074	45.69
708.257	45.73
708.441	46.23
708.625	46.37
708.808	46.48
708.992	46.1
709.176	45.63
709.359	45.68
709.543	46.07
709.727	46.13
709.91	45.6
710.094	45.37
710.277	45.59
710.461	45.41
710.644	45.68
710.828	46
711.011	45.97
711.195	46.49
711.378	46.31
711.562	46.26
711.745	46.7
711.928	46.44
712.112	46.64
712.295	46.25
712.478	46.63
712.662	46.02
712.845	45.7
713.028	45.68
713.212	45.74
713.395	46.02
713.578	46.17
713.761	45.43
713.945	45.66
714.128	45.3
714.311	45.69
714.494	45.72
714.677	45.98
714.86	45.69
715.043	45.87
715.227	45.54
715.41	45.12
715.593	44.74
715.776	44.75
715.959	45.1
716.142	45.24
716.325	45.22
716.508	44.81
716.691	44.98
716.874	45.25
717.057	45.14
717.239	45.42
717.422	45.84
717.605	46.05
717.788	45.75
717.971	44.98
718.154	44.86
718.337	44.7
718.519	44.86
718.702	44.81
718.885	45.62
719.068	45.41
719.25	45.32
719.433	45.42
719.616	45.51
719.798	45.82
719.981	45.88
720.164	45.91
720.346	46.15
720.529	45.41
720.712	45.6
720.894	44.35
721.077	45.17
721.259	44.88
721.442	44.82
721.624	45.74
721.807	46.49
721.989	47.3
722.172	47.79
722.354	48.1
722.537	48.71
722.719	48.34
722.901	48.89
723.084	48.1
723.266	48.32
723.448	48.08
723.631	46.77
723.813	46.42
723.995	46.38
724.178	46.1
724.36	45.29
724.542	45.61
724.724	46.49
724.907	46.79
725.089	46.82
725.271	46.99
725.453	47.01
725.635	47.82
725.817	47.79
725.999	46.89
726.181	46.91
726.364	47.33
726.546	47.27
726.728	45.93
726.91	45.81
727.092	46.25
727.274	46.04
727.456	46.47
727.638	46.68
727.819	46.83
728.001	47.49
728.183	47.62
728.365	47.57
728.547	47.2
728.729	48.06
728.911	48.45
729.093	48.73
729.274	49.05
729.456	48.93
729.638	48.28
729.82	47.99
730.001	47.58
730.183	47.97
730.365	48.21
730.546	48.02
730.728	48.36
730.91	47.52
731.091	47.12
731.273	46.98
731.455	46.51
731.636	47.88
731.818	48.43
731.999	48.86
732.181	47.96
732.362	47.52
732.544	48.11
732.725	47.47
732.907	47.53
733.088	47.82
733.27	47.53
733.451	47.61
733.633	47.01
733.814	46.2
733.995	46.27
734.177	47.22
734.358	47.85
734.539	48.2
734.721	48.35
734.902	48.94
735.083	48.97
735.264	49.69
735.446	50.11
735.627	49.46
735.808	50.84
735.989	50.65
736.17	50.46
736.351	50.9
736.533	50.24
736.714	50.07
736.895	49.84
737.076	49.74
737.257	49.32
737.438	49.06
737.619	49.57
737.8	48.67
737.981	49.14
738.162	48.98
738.343	49.36
738.524	49.68
738.705	50.77
738.886	51.59
739.067	51.79
739.247	52.14
739.428	51.99
739.609	52.41
739.79	52.46
739.971	53.39
740.151	53.16
740.332	52.78
740.513	52.86
740.694	51.93
740.874	51.93
741.055	51.76
741.236	51.83
741.417	52.66
741.597	52.11
741.778	52.53
741.958	51.54
742.139	52.11
742.32	52.33
742.5	51.78
742.681	52.3
742.861	51.5
743.042	52.95
743.222	53.02
743.403	52.82
743.583	53.24
743.764	53.38
743.944	53.94
744.124	53.93
744.305	53.57
744.485	55
744.666	55.13
744.846	56
745.026	54.84
745.207	55.41
745.387	56.21
745.567	55.52
745.747	55.47
745.928	55.21
746.108	55.44
746.288	54.63
746.468	53.18
746.648	53.35
746.829	52.93
747.009	53.3
747.189	53.13
747.369	52.23
747.549	52.41
747.729	52.19
747.909	52.59
748.089	52.77
748.269	53.57
748.449	55.25
748.629	54.42
748.809	54.05
748.989	53.23
749.169	53.36
749.349	53.25
749.529	53.51
749.709	52.4
749.889	51.3
750.068	50.96
750.248	50.77
750.428	50.52
750.608	50.05
750.788	50.7
750.967	50.9
751.147	50.75
751.327	51.85
751.507	52.48
751.686	53.3
751.866	53.65
752.046	53.71
752.225	53.99
752.405	53.49
752.585	55.26
752.764	54.81
752.944	56.13
753.123	56.37
753.303	55.84
753.482	55.14
753.662	56.35
753.841	57.01
754.021	56.71
754.2	56
754.38	56.89
754.559	56.74
754.739	57.22
754.918	55.91
755.097	55.51
755.277	55.64
755.456	55.37
755.635	54.27
755.815	54.44
755.994	54.66
756.173	55.11
756.352	54.72
756.532	54.49
756.711	53.84
756.89	54
757.069	54.14
757.248	53.74
757.427	54.6
757.607	54.69
757.786	54.14
757.965	53.29
758.144	53.1
758.323	52.22
758.502	51.65
758.681	51.22
758.86	50.52
759.039	49.13
759.218	48.18
759.397	46.07
759.576	45.7
759.755	44.34
759.934	45
760.113	45.68
760.291	44.85
760.47	44.26
760.649	44.13
760.828	43.49
761.007	43.83
761.186	44.01
761.364	45.02
761.543	45.46
761.722	45.81
761.901	45.1
762.079	44.14
762.258	45.05
762.437	44.36
762.615	45.1
762.794	45.34
762.972	45.88
763.151	46.1
763.33	45.7
763.508	45.22
763.687	45.87
763.865	46.02
764.044	46.05
764.222	46.12
764.401	47.49
764.579	47.47
764.758	47.03
764.936	46.97
765.114	47.32
765.293	48.04
765.471	48.55
765.65	48.29
765.828	49.23
766.006	49.65
766.184	50.01
766.363	48.82
766.541	48.68
766.719	50
766.898	49.93
767.076	49.86
767.254	50.6
767.432	50.35
767.61	50.77
767.788	49.38
767.967	49.45
768.145	49.65
768.323	51
768.501	51.85
768.679	51.66
768.857	52.08
769.035	52.92
769.213	52.93
769.391	53.78
769.569	53.95
769.747	55.08
769.925	56.33
770.103	56.1
770.281	55.88
770.459	54.71
770.636	55.61
770.814	57.53
770.992	57.82
771.17	57.13
771.348	57.54
771.525	58.52
771.703	59
771.881	58.72
772.059	59.65
772.236	59.99
772.414	60.14
772.592	61.08
772.769	59.76
772.947	60.17
773.125	60.8
773.302	60.56
773.48	61.02
773.657	61.28
773.835	62.36
774.013	61.95
774.19	62.21
774.368	62.77
774.545	61.77
774.723	61.79
774.9	60.62
775.077	60.76
775.255	60.13
775.432	59.55
775.61	60.46
775.787	59.95
775.964	59.71
776.142	60.14
776.319	59.93
776.496	59
776.674	59.91
776.851	60.52
777.028	61.82
777.205	62.79
777.382	61
777.56	60.48
777.737	60.59
777.914	60.59
778.091	59.66
778.268	60.25
778.445	61.29
778.622	59.53
778.8	58.92
778.977	57.28
779.154	57.27
779.331	58.67
779.508	58.32
779.685	58.44
779.862	58.7
780.038	58.91
780.215	59.27
780.392	60.71
780.569	61.86
780.746	61.65
780.923	63.58
781.1	65.17
781.277	66.34
781.453	66.27
781.63	65.5
781.807	65.36
781.984	64.11
782.16	64.19
782.337	63.03
782.514	62.71
782.691	63.15
782.867	62.61
783.044	61.22
783.221	62.22
783.397	63.08
783.574	62.7
783.75	63.22
783.927	64.5
784.103	65.59
784.28	67.78
784.456	67.08
784.633	67.64
784.809	63.54
784.986	64.65
785.162	62.43
785.339	62.24
785.515	62.42
785.692	61.85
785.868	62.72
786.044	61.35
786.221	59.55
786.397	61.04
786.573	61.62
786.749	63.81
786.926	62.5
787.102	63.7
787.278	62.23
787.454	61.9
787.631	62.25
787.807	60.96
787.983	60.19
788.159	59.6
788.335	58.86
788.511	57.56
788.687	57.88
788.863	56.85
789.039	55.2
789.216	55.28
789.392	54.1
789.568	53.57
789.744	54.43
789.919	55.3
790.095	55.61
790.271	55.13
790.447	53.89
790.623	52.69
790.799	53.2
790.975	54.03
791.151	53.58
791.327	53.62
791.502	54.47
791.678	52.23
791.854	54.04
792.03	53.76
792.205	53.66
792.381	54.49
792.557	55.09
792.733	55.23
792.908	54.71
793.084	55.43
793.259	56.49
793.435	56.29
793.611	58.92
793.786	55.86
793.962	55.99
794.137	57.35
794.313	57.92
794.488	59.03
794.664	59.31
794.839	59.52
795.015	59.14
795.19	59.11
795.366	58.77
795.541	58.15
795.716	58.79
795.892	59.72
796.067	59.77
796.242	60.3
796.418	58.97
796.593	58.69
796.768	57.33
796.944	57.21
797.119	55.45
797.294	54.78
797.469	54.71
797.644	55.08
797.82	54.33
797.995	55.04
798.17	53.69
798.345	53.18
798.52	52.71
798.695	53.71
798.87	52.67
799.045	54.28
799.22	54.92
799.395	54.56
799.57	52.37
799.745	54.22
799.92	53.34
800.095	53.01
800.27	54.02
800.445	53.7
800.62	53.43
800.795	53.74
800.97	54.03
801.145	53.09
801.319	54.59
801.494	57.34
801.669	55.91
801.844	55.59
802.018	58.87
802.193	57.73
802.368	59.53
802.543	60.54
802.717	63.13
802.892	63.71
803.067	62.86
803.241	61.1
803.416	60.28
803.59	61.19
803.765	60.96
803.94	60.61
804.114	61.66
804.289	63.84
804.463	63.17
804.638	61.03
804.812	62.54
804.986	65.07
805.161	66.44
805.335	65.16
805.51	62.83
805.684	62.27
805.858	60.98
806.033	60.33
806.207	57.39
806.381	55.39
806.556	55.94
806.73	56.49
806.904	57.56
807.078	58.28
807.253	58.62
807.427	60.34
807.601	59.81
807.775	57.36
807.949	57.62
808.123	57.96
808.298	59.69
808.472	61.31
808.646	60.68
808.82	60.68
808.994	59.43
809.168	60.36
809.342	61.24
809.516	58.86
809.69	59.91
809.864	61.96
810.038	61.33
810.212	60.81
810.385	58.92
810.559	56.35
810.733	54.76
810.907	55.18
811.081	51.4
811.255	49.87
811.428	52.32
811.602	53.13
811.776	51.78
811.95	53.65
812.123	55.59
812.297	57.93
812.471	58.56
812.644	57.32
812.818	56.04
812.992	58.25
813.165	56.18
813.339	56.94
813.512	59.56
813.686	59.85
813.86	60.38
814.033	60.21
814.207	57.74
814.38	56.96
814.554	56.03
814.727	57.41
814.9	58.92
815.074	61.06
815.247	61.4
815.421	57.51
815.594	54.88
815.767	52.19
815.941	50.7
816.114	48.53
816.287	48.99
816.46	48.53
816.634	47.21
816.807	47.27
816.98	49.04
817.153	48.83
817.327	51.64
817.5	54.5
817.673	55.63
817.846	56.02
818.019	58.92
818.192	57.49
818.365	55.39
818.538	56.39
818.711	55.28
818.884	54.94
819.057	53.92
819.23	51.64
819.403	47.9
819.576	49.44
819.749	49.06
819.922	46.73
820.095	48.64
820.268	52.35
820.441	52.01
820.614	51.71
820.786	49.77
820.959	49.93
821.132	47.93
821.305	47.71
821.477	46.19
821.65	45.86
821.823	45.55
821.996	44.95
822.168	43.78
822.341	43.31
822.514	42.63
822.686	42.13
822.859	42.11
823.031	42.64
823.204	43.4
823.376	43.14
823.549	42.43
823.722	42.6
823.894	42.45
824.067	42.6
824.239	43.2
824.411	43.57
824.584	43.96
824.756	43.64
824.929	43.34
825.101	43.08
825.273	42.28
825.446	43.55
825.618	43.45
825.79	43.26
825.963	43.48
826.135	42.91
826.307	42.42
826.479	42.74
826.652	43.17
826.824	43.46
826.996	44.23
827.168	46.14
827.34	45.58
827.512	45.65
827.684	46.16
827.856	45.83
828.029	45.78
828.201	46.71
828.373	46.26
828.545	45.52
828.717	46.25
828.889	45.34
829.061	44.66
829.232	44.87
829.404	45.18
829.576	46.01
829.748	46.18
829.92	46.46
830.092	47.04
830.264	48.3
830.436	49.77
830.607	49.29
830.779	49.42
830.951	49.17
831.123	48.56
831.294	49.87
831.466	49.94
831.638	50.22
831.809	50.77
831.981	51.19
832.153	51.65
832.324	52.33
832.496	54.01
832.667	55.74
832.839	55.93
833.011	54.91
833.182	55.35
833.354	54.11
833.525	55.14
833.697	54.22
833.868	52.82
834.039	52.93
834.211	50.21
834.382	49.48
834.554	47.35
834.725	47.2
834.896	50.02
835.068	48.84
835.239	48.19
835.41	47.64
835.581	47.78
835.753	48.68
835.924	48.64
836.095	50.89
836.266	51.08
836.438	52.11
836.609	54.35
836.78	51.78
836.951	51.41
837.122	53.17
837.293	55.19
837.464	56.05
837.635	56.69
837.806	58.07
837.977	58.09
838.148	58.26
838.319	61.1
838.49	62.74
838.661	66.15
838.832	68.37
839.003	68.74
839.174	70.2
839.345	70.13
839.516	68.99
839.687	65.64
839.857	66.65
840.028	68.21
840.199	65.96
840.37	61.58
840.54	62.25
840.711	64.09
840.882	64.14
841.053	62.54
841.223	59.7
841.394	59.75
841.564	61.09
841.735	59.94
841.906	54.68
842.076	50.61
842.247	52.07
842.417	51.12
842.588	52.46
842.758	54.1
842.929	52.56
843.099	57.83
843.27	57.21
843.44	59.33
843.611	60.03
843.781	70.62
843.951	77.4
844.122	77.51
844.292	79.12
844.462	78.32
844.633	75.64
844.803	75.54
844.973	72.56
845.144	75.25
845.314	74.68
845.484	76.73
845.654	69.74
845.824	72.92
845.995	73.02
846.165	75.23
846.335	72.1
846.505	73.98
846.675	78.02
846.845	76.94
847.015	80.6
847.185	78.97
847.355	72.98
847.525	76.81
847.695	77.23
847.865	82.01
848.035	82.36
848.205	87.09
848.375	88.6
848.545	89.17
848.715	87.81
848.884	81.99
849.054	84.82
849.224	95.07
849.394	91.85
849.564	87.04
849.733	78.79
849.903	84.1
850.073	85.24
850.243	82.49
850.412	83.92
850.582	92.34
850.752	90.34
850.921	82.53
851.091	82.82
851.26	82.25
851.43	80.96
851.599	85.69
851.769	75.46
851.939	69.49
852.108	71
852.278	63.98
852.447	58.34
852.616	60.61
852.786	63.84
852.955	57.51
853.125	58.36
853.294	55.37
853.463	54.61
853.633	60.88
853.802	60.71
853.971	60.25
854.141	65.34
854.31	73.7
854.479	76.34
854.648	76.49
854.818	78.98
854.987	80.47
855.156	81.86
855.325	73.19
855.494	72.88
855.663	77.36
855.832	74.05
856.001	75.5
856.171	73.74
856.34	69.78
856.509	66.47
856.678	67.47
856.847	64.02
857.016	66.05
857.185	75.99
857.353	75.49
857.522	78.99
857.691	86.88
857.86	92.7
858.029	93.98
858.198	97.47
858.367	98.58
858.535	97.5
858.704	98.32
858.873	106.25
859.042	102
859.21	100.69
859.379	92.05
859.548	91.7
859.717	89.34
859.885	89.74
860.054	96.3
860.222	97.28
860.391	102.57
860.56	112.75
860.728	101.6
860.897	108.2
861.065	102.33
861.234	111.38
861.402	109.08
861.571	106.23
861.739	104.32
861.908	100.51
862.076	101.94
862.244	92.06
862.413	83.35
862.581	85.79
862.749	85.3
862.918	82.49
863.086	85.97
863.254	80.96
863.423	82.75
863.591	88.8
863.759	91.98
863.927	97.8
864.096	97.27
864.264	109.02
864.432	111.46
864.6	112.34
864.768	115.27
864.936	101.78
865.104	105.06
865.272	105.75
865.44	102.55
865.608	98.45
865.776	94.63
865.944	95.8
866.112	89.35
866.28	85.71
866.448	84.06
866.616	90.03
866.784	102.15
866.952	103.19
867.12	100.89
867.288	103.61
867.455	103.04
867.623	103.78
867.791	109.9
867.959	114.85
868.127	113.73
868.294	116.52
868.462	100.04
868.63	94.18
868.797	90.13
868.965	90.67
869.133	88.54
869.3	89.25
869.468	86.5
869.636	88.99
869.803	89.44
869.971	91.52
870.138	85.79
870.306	94.28
870.473	97.22
870.641	96.25
870.808	99.39
870.975	102.98
871.143	102.34
871.31	101.94
871.478	98.78
871.645	98.41
871.812	96.57
871.98	93.73
872.147	89.86
872.314	92.26
872.482	93.21
872.649	88.9
872.816	81.37
872.983	85.44
873.15	77.39
873.318	70.29
873.485	69.43
873.652	66.85
873.819	69.83
873.986	76.52
874.153	69.78
874.32	66.95
874.487	74.68
874.654	80.15
874.821	77.01
874.988	87.75
875.155	90.43
875.322	95.77
875.489	92.55
875.656	100.66
875.823	95.85
875.99	88.84
876.157	89.48
876.324	76.37
876.49	70.05
876.657	75.45
876.824	69.62
876.991	70.54
877.157	69.05
877.324	71.11
877.491	69.69
877.658	67.7
877.824	70.76
877.991	80.64
878.157	76.67
878.324	79.35
878.491	80.01
878.657	83.19
878.824	82.42
878.99	81.47
879.157	81.92
879.323	79.15
879.49	77.92
879.656	82.28
879.823	74.4
879.989	71.89
880.156	69.44
880.322	66.45
880.488	64.49
880.655	67.49
880.821	64.7
880.987	63.31
881.154	62.54
881.32	58.2
881.486	50.79
881.652	50.78
881.819	53.33
881.985	50.18
882.151	46.36
882.317	44.96
882.483	42.88
882.649	42.23
882.816	41.95
882.982	39.71
883.148	41.54
883.314	42.79
883.48	41.71
883.646	40.76
883.812	40.61
883.978	42.26
884.144	43.38
884.31	43.58
884.476	43.68
884.642	46.07
884.807	46.78
884.973	47.32
885.139	46.98
885.305	47.86
885.471	48.71
885.637	50.23
885.802	50.73
885.968	50.44
886.134	49.82
886.3	50.16
886.465	48.01
886.631	48.46
886.797	48.1
886.962	48.03
887.128	49.97
887.293	50.45
887.459	50.9
887.625	51.48
887.79	55.55
887.956	61.67
888.121	63.21
888.287	66.07
888.452	69.07
888.618	72.18
888.783	76.62
