Data from LC_219__Reflection_1.txt Node
Date: Thu Nov 19 13:31:17 EST 2015
User: robert
Spectrometer: USB4E03001
Autoset integration time: false
Trigger mode: 4
Integration Time (sec): 1.000000E-1
Scans to average: 15
Electric dark correction enabled: true
Nonlinearity correction enabled: false
Boxcar width: 5
Stray light correction enabled: false
XAxis mode: Wavelengths
Stop averaging: false
Number of Pixels in Spectrum: 3648
>>>>>Begin Spectral Data<<<<<
177.566	251.17
177.785	511.46
178.005	320.09
178.225	120.89
178.445	121.19
178.665	116300
178.885	185.58
179.105	205.12
179.324	-188.63
179.544	-981.7
179.764	-336.92
179.984	-507.76
180.204	-477.01
180.423	-456.48
180.643	-2574.78
180.863	-2142.77
181.083	-651.63
181.302	-459.29
181.522	-512.41
181.742	-3381.76
181.961	6367.55
182.181	4939.57
182.401	625.79
182.621	636.91
182.84	969.64
183.06	2148.65
183.279	2038.67
183.499	888.89
183.719	821.23
183.938	423.97
184.158	810.02
184.377	959.73
184.597	727.68
184.816	5435.25
185.036	25582.61
185.256	1760.1
185.475	847.99
185.695	662.36
185.914	542.92
186.134	399.4
186.353	343.74
186.572	269.77
186.792	278.64
187.011	1898.18
187.231	396.54
187.45	429.11
187.67	800.99
187.889	14978.79
188.108	421.68
188.328	-1712.25
188.547	-193.18
188.766	-187.27
188.986	-280.61
189.205	-401.02
189.424	752.99
189.644	1317.35
189.863	728.22
190.082	889.91
190.302	3449.4
190.521	-340.58
190.74	-1091.98
190.959	-10285.21
191.178	13533.9
191.398	-5352.63
191.617	1083.95
191.836	3821.74
192.055	-1053.53
192.274	-354.31
192.494	-613.25
192.713	-378.69
192.932	-256.51
193.151	-289.37
193.37	-479.44
193.589	-357.19
193.808	-278.44
194.027	-365.06
194.246	-729.96
194.465	-685.79
194.685	41907.5
194.904	663.21
195.123	387.24
195.342	239.51
195.561	193.41
195.78	240.35
195.999	340.45
196.218	564.75
196.436	979.2
196.655	660.43
196.874	447.82
197.093	429.81
197.312	1158.86
197.531	1152.31
197.75	2196.67
197.969	-842.28
198.188	-1000.95
198.407	-6793.44
198.625	489.26
198.844	617.67
199.063	1393.93
199.282	1427.89
199.501	-825.36
199.719	-1262.75
199.938	-2067.56
200.157	2153.47
200.376	726
200.594	474.67
200.813	436.38
201.032	267.42
201.251	348.76
201.469	570.6
201.688	437.7
201.907	337.26
202.125	339.61
202.344	280.74
202.563	222.63
202.781	285.68
203	222.66
203.218	230.58
203.437	694.17
203.656	462.12
203.874	343.15
204.093	371.62
204.311	381.38
204.53	343.06
204.748	372.53
204.967	467.37
205.185	309.56
205.404	413.22
205.622	514.67
205.841	315.96
206.059	236.43
206.278	243.45
206.496	283.69
206.715	427.15
206.933	541.76
207.151	-1121.06
207.37	-788.12
207.588	-3042.15
207.806	2446.45
208.025	1165.37
208.243	-1734.44
208.461	-1732.24
208.68	-3705.5
208.898	6061.38
209.116	2420
209.335	5320.54
209.553	1556.32
209.771	3789.88
209.989	-2994.22
210.208	-1933.69
210.426	-850.82
210.644	-929.56
210.862	-434.02
211.081	-332.14
211.299	-146.76
211.517	-220.12
211.735	-247.25
211.953	-546.68
212.171	438.45
212.39	527.39
212.608	501.8
212.826	309.85
213.044	168.79
213.262	122.32
213.48	140.5
213.698	111.49
213.916	181.17
214.134	270.41
214.352	548.35
214.57	-1257.41
214.788	883.85
215.006	5719.34
215.224	-1429.69
215.442	-464.99
215.66	-556.66
215.878	1225.5
216.096	344.36
216.314	308.35
216.532	222.33
216.75	195.87
216.968	193.21
217.185	176.99
217.403	190.48
217.621	227.65
217.839	273.78
218.057	236.16
218.275	360.97
218.492	665.34
218.71	361.99
218.928	306.17
219.146	301.9
219.363	476.21
219.581	533.89
219.799	1139.4
220.017	384.33
220.234	332.72
220.452	479.58
220.67	307.23
220.887	313.83
221.105	571.78
221.323	661.01
221.54	550.79
221.758	303.5
221.976	247.68
222.193	187.99
222.411	234.19
222.629	244
222.846	282.55
223.064	239.35
223.281	234.58
223.499	201.23
223.716	233.17
223.934	221.85
224.151	274.19
224.369	276.55
224.586	263.48
224.804	246.27
225.021	196.6
225.239	151.8
225.456	165.9
225.674	144.16
225.891	150.02
226.108	136.42
226.326	125.01
226.543	101.22
226.76	85.9
226.978	83.32
227.195	81.05
227.413	74.83
227.63	70.86
227.847	61.98
228.064	59.76
228.282	49.94
228.499	48.47
228.716	44.52
228.934	41.92
229.151	43.27
229.368	40.96
229.585	38
229.802	37.71
230.02	35.37
230.237	34.37
230.454	34
230.671	34.67
230.888	32.97
231.105	37.64
231.323	44.56
231.54	43.27
231.757	45.93
231.974	54.24
232.191	56.57
232.408	60.89
232.625	66.77
232.842	64.36
233.059	60.57
233.276	67.56
233.493	63.85
233.71	57.64
233.927	59.34
234.144	61.96
234.361	53.7
234.578	51.87
234.795	46.81
235.012	48.43
235.229	47.27
235.446	52.08
235.663	47.28
235.879	51.24
236.096	51.53
236.313	54.04
236.53	47.7
236.747	54.6
236.964	52.31
237.181	57.75
237.397	52.51
237.614	56.11
237.831	52.36
238.048	55.28
238.264	52.67
238.481	52.25
238.698	50.98
238.915	50.96
239.131	36.63
239.348	35.75
239.565	29.88
239.781	36.75
239.998	34.58
240.215	34.95
240.431	34.8
240.648	33.49
240.865	31.52
241.081	31.68
241.298	31.05
241.514	33.48
241.731	34.15
241.947	32.42
242.164	29.36
242.38	27.86
242.597	27.8
242.814	26.67
243.03	25.5
243.246	26.77
243.463	24.7
243.679	26.75
243.896	26.09
244.112	26.02
244.329	27.07
244.545	28.01
244.762	27.78
244.978	28.5
245.194	29.15
245.411	29.05
245.627	26.7
245.843	28.07
246.06	24.31
246.276	24.03
246.492	22.53
246.709	21.86
246.925	21.25
247.141	20.25
247.357	18.63
247.574	18.29
247.79	18.33
248.006	17.34
248.222	16.5
248.439	17.56
248.655	15.49
248.871	14.67
249.087	13.89
249.303	14.27
249.519	15.08
249.736	15.25
249.952	13.27
250.168	15.07
250.384	18.74
250.6	19.43
250.816	18.63
251.032	22.25
251.248	22.9
251.464	24.53
251.68	21.8
251.896	21.1
252.112	21.39
252.328	22.9
252.544	20.54
252.76	19.27
252.976	18.35
253.192	19.05
253.408	17.13
253.624	17.73
253.84	17.26
254.056	21.46
254.272	24.04
254.487	28.23
254.703	29.52
254.919	32.34
255.135	34.23
255.351	34.51
255.567	35.52
255.782	37.13
255.998	36.42
256.214	34.93
256.43	32.3
256.646	31.52
256.861	28.3
257.077	27.79
257.293	26.06
257.508	24.04
257.724	22.33
257.94	20.17
258.155	20.4
258.371	20.8
258.587	20.42
258.802	17.3
259.018	16.37
259.234	14.97
259.449	14.04
259.665	13.99
259.88	13.52
260.096	12.88
260.312	13.07
260.527	13.05
260.743	12.55
260.958	12.39
261.174	13.44
261.389	13.81
261.605	15.14
261.82	13.92
262.036	14.35
262.251	14.86
262.466	15.35
262.682	15.32
262.897	15.55
263.113	15.61
263.328	16.72
263.543	19.01
263.759	20.9
263.974	19.12
264.189	20.87
264.405	20
264.62	21.53
264.835	24.07
265.051	26.57
265.266	25.7
265.481	25.34
265.696	27.39
265.912	25.28
266.127	22.52
266.342	21.94
266.557	23.77
266.773	20.9
266.988	20.22
267.203	18.81
267.418	16.89
267.633	17.13
267.848	18.62
268.064	16.55
268.279	16.58
268.494	16.56
268.709	17.15
268.924	18.37
269.139	21.2
269.354	21.84
269.569	22.31
269.784	22.63
269.999	22.19
270.214	20.3
270.429	20.5
270.644	20.66
270.859	20.32
271.074	21.48
271.289	20.55
271.504	19.72
271.719	19.2
271.934	19.14
272.149	18.75
272.363	18.48
272.578	18.66
272.793	17.99
273.008	17.46
273.223	17.06
273.438	15.71
273.653	14.9
273.867	13.87
274.082	13.9
274.297	14.31
274.512	14.48
274.726	15.69
274.941	15.9
275.156	16.93
275.371	17
275.585	18.33
275.8	18.86
276.015	18.15
276.229	20.57
276.444	19.17
276.659	19.79
276.873	20.04
277.088	18.75
277.302	18.56
277.517	18.63
277.732	20.05
277.946	21.07
278.161	22.35
278.375	22.52
278.59	20.79
278.804	21.76
279.019	20.83
279.233	20.69
279.448	20.44
279.662	18.22
279.877	17.27
280.091	15.58
280.306	13.73
280.52	10.62
280.735	10.21
280.949	10.08
281.163	11.02
281.378	11.35
281.592	10.36
281.806	11.57
282.021	13.66
282.235	13.84
282.449	14.74
282.664	15.32
282.878	16.25
283.092	17.05
283.307	18.39
283.521	17.24
283.735	16.63
283.949	17.52
284.164	17.26
284.378	16.89
284.592	15.82
284.806	14.79
285.02	13.96
285.234	13.76
285.449	14.49
285.663	14.02
285.877	13.89
286.091	14.33
286.305	15.39
286.519	15.46
286.733	14.57
286.947	15.65
287.161	15.18
287.375	15.3
287.589	16.67
287.803	15.52
288.017	17.07
288.231	16.31
288.445	16.51
288.659	16.64
288.873	15.63
289.087	16.99
289.301	15.9
289.515	16.44
289.729	16.49
289.943	16.34
290.157	16.29
290.371	14
290.584	14.87
290.798	15.18
291.012	13.69
291.226	14.06
291.44	14.44
291.654	15.01
291.867	14.54
292.081	14.64
292.295	15.07
292.509	14.26
292.722	15.43
292.936	14.96
293.15	16.11
293.364	17.13
293.577	17.3
293.791	16.55
294.005	17.59
294.218	17.71
294.432	16.61
294.645	16.21
294.859	17.34
295.073	17.75
295.286	18.68
295.5	17.33
295.713	16.93
295.927	17.86
296.14	17.15
296.354	16.93
296.568	17.23
296.781	17.02
296.994	15.69
297.208	15.56
297.421	15.18
297.635	14.8
297.848	14.24
298.062	13.67
298.275	12.38
298.489	13.28
298.702	12.91
298.915	12.89
299.129	14.75
299.342	16.56
299.555	16.58
299.769	17.08
299.982	17.98
300.195	19.44
300.409	19.29
300.622	20.77
300.835	20.76
301.048	19.99
301.262	19.36
301.475	18.51
301.688	16.83
301.901	16.94
302.115	15.85
302.328	15.66
302.541	14.19
302.754	15.31
302.967	15.27
303.18	14.7
303.393	17.51
303.607	18.7
303.82	18.57
304.033	20.77
304.246	22.78
304.459	23.58
304.672	22.72
304.885	22.99
305.098	23.16
305.311	22.77
305.524	23.47
305.737	23.09
305.95	23.73
306.163	22.74
306.376	21.06
306.589	19.45
306.802	19.54
307.015	21.27
307.228	22.11
307.44	22.09
307.653	21.83
307.866	22.49
308.079	21.03
308.292	19.61
308.505	21.88
308.718	22.01
308.93	21.54
309.143	21.59
309.356	20.68
309.569	20.97
309.781	20.78
309.994	21.38
310.207	20.06
310.42	19.54
310.632	19.66
310.845	18.5
311.058	18.36
311.27	18.46
311.483	18.88
311.696	18.73
311.908	18.04
312.121	19.3
312.333	18.64
312.546	19.44
312.759	19.89
312.971	20.44
313.184	22.09
313.396	22.89
313.609	22.78
313.821	21.45
314.034	21.49
314.246	21.49
314.459	19.6
314.671	19.92
314.884	19.39
315.096	20.29
315.309	20.53
315.521	18.66
315.733	17.46
315.946	17.64
316.158	17.57
316.371	18.47
316.583	19.08
316.795	19.75
317.008	18.38
317.22	17.21
317.432	16.14
317.644	16.94
317.857	17.46
318.069	17.82
318.281	19.14
318.494	19.71
318.706	19.12
318.918	19.44
319.13	18.15
319.342	19.45
319.555	20.39
319.767	21.76
319.979	19.54
320.191	19.82
320.403	18.9
320.615	16.74
320.827	17.02
321.039	16.92
321.252	16.41
321.464	17.9
321.676	18.64
321.888	18.61
322.1	16.95
322.312	18.56
322.524	20.02
322.736	19.53
322.948	20.42
323.16	20.02
323.372	18.98
323.584	18.13
323.796	18.52
324.007	17.8
324.219	17.87
324.431	19.36
324.643	19.04
324.855	17.24
325.067	17.82
325.279	17.51
325.491	17.58
325.702	17.11
325.914	17.96
326.126	16.65
326.338	16.81
326.55	16.87
326.761	17.25
326.973	16.35
327.185	16.17
327.396	16.21
327.608	16.11
327.82	15.11
328.032	16.23
328.243	16.42
328.455	16.17
328.666	16.68
328.878	16.77
329.09	15.45
329.301	16.32
329.513	16.83
329.725	17.5
329.936	18.67
330.148	20.19
330.359	20.14
330.571	19.32
330.782	20.5
330.994	20.51
331.205	19.28
331.417	19.5
331.628	19.14
331.84	19.46
332.051	18.61
332.262	18.21
332.474	17.43
332.685	17.96
332.897	17.3
333.108	17.09
333.319	16.76
333.531	17.21
333.742	17.15
333.953	16.87
334.165	16.6
334.376	17.23
334.587	16.26
334.799	16.8
335.01	15.51
335.221	16.15
335.432	15.11
335.644	14.98
335.855	16.34
336.066	16.83
336.277	17.86
336.488	17.56
336.7	17.71
336.911	17.64
337.122	17.07
337.333	18.48
337.544	18.56
337.755	19.78
337.966	19.23
338.177	17.89
338.388	17.62
338.599	17.34
338.811	17.44
339.022	17.69
339.233	18.32
339.444	18.63
339.655	17.71
339.866	16.93
340.076	16.59
340.287	17.88
340.498	18.35
340.709	17.87
340.92	16.65
341.131	17.35
341.342	16.64
341.553	16.81
341.764	16.54
341.975	16.78
342.185	17.29
342.396	17.23
342.607	16.61
342.818	17.05
343.029	17.15
343.239	17.46
343.45	16.51
343.661	16.03
343.872	15.44
344.082	15.38
344.293	15.44
344.504	15.69
344.714	15.63
344.925	15.97
345.136	15.33
345.346	15.02
345.557	15.62
345.768	15.88
345.978	15.99
346.189	16.09
346.399	16.43
346.61	15.76
346.821	15.56
347.031	15.85
347.242	14.7
347.452	15.03
347.663	14.76
347.873	15.1
348.084	14.49
348.294	14.67
348.504	14.75
348.715	15.31
348.925	15.81
349.136	15.33
349.346	14.35
349.557	15.37
349.767	15.16
349.977	15.48
350.188	14.1
350.398	14.8
350.608	15.07
350.819	15.57
351.029	14.96
351.239	15.08
351.449	15.49
351.66	16.06
351.87	15.6
352.08	14.97
352.29	14.79
352.501	15.48
352.711	15.63
352.921	16.08
353.131	15.46
353.341	15.4
353.552	15.33
353.762	14.88
353.972	15.23
354.182	15.06
354.392	16
354.602	16.06
354.812	16.11
355.022	15.55
355.232	14.59
355.442	14.67
355.652	14.74
355.862	14.53
356.072	15.19
356.282	14.17
356.492	14.35
356.702	13.62
356.912	13.59
357.122	13.58
357.332	13.37
357.542	13.6
357.752	13.08
357.962	12.8
358.171	12.75
358.381	12.14
358.591	12.42
358.801	12.78
359.011	12.79
359.221	12.78
359.43	13.04
359.64	13.01
359.85	13.21
360.06	13.35
360.269	13.53
360.479	13.36
360.689	13.24
360.899	13.29
361.108	12.99
361.318	13.46
361.528	12.78
361.737	12.44
361.947	12.53
362.156	12.42
362.366	12.55
362.576	12.37
362.785	12.34
362.995	12.91
363.204	13.17
363.414	13.39
363.623	12.61
363.833	13.14
364.042	13.15
364.252	13.59
364.461	13.61
364.671	13.64
364.88	13.92
365.09	14.27
365.299	14.37
365.509	14.13
365.718	13.77
365.927	13.78
366.137	14.02
366.346	13.46
366.555	12.96
366.765	12.93
366.974	12.98
367.183	12.77
367.393	12.13
367.602	11.84
367.811	11.95
368.021	11.74
368.23	12.5
368.439	12.19
368.648	13.14
368.857	12.88
369.067	12.96
369.276	12.84
369.485	12.52
369.694	12.25
369.903	12.01
370.112	12.33
370.321	12.06
370.531	11.84
370.74	11.5
370.949	10.88
371.158	11.11
371.367	10.43
371.576	10.6
371.785	10.27
371.994	10.77
372.203	10.25
372.412	9.38
372.621	10.08
372.83	10.26
373.039	10.47
373.248	10.33
373.457	10.52
373.666	10.43
373.874	9.29
374.083	9.76
374.292	9.25
374.501	9.44
374.71	9.7
374.919	9.3
375.128	8.99
375.336	9.07
375.545	9.47
375.754	9.45
375.963	9.67
376.171	10.61
376.38	10.87
376.589	11.3
376.798	11.26
377.006	11.38
377.215	11.47
377.424	11.45
377.632	11.21
377.841	10.7
378.05	11.1
378.258	11.32
378.467	10.6
378.675	10.07
378.884	10.11
379.093	10.38
379.301	10.43
379.51	10.26
379.718	9.91
379.927	10.61
380.135	10.58
380.344	10.04
380.552	10.15
380.761	10.8
380.969	10.98
381.177	10.88
381.386	10.8
381.594	10.5
381.803	10.16
382.011	10.62
382.219	9.85
382.428	9.73
382.636	9.75
382.845	9.29
383.053	9.37
383.261	9.13
383.469	9.05
383.678	8.73
383.886	8.37
384.094	8.79
384.302	8.45
384.511	8.45
384.719	8.49
384.927	8.54
385.135	8.8
385.343	8.51
385.552	8.52
385.76	8.61
385.968	8.92
386.176	9.16
386.384	8.69
386.592	8.94
386.8	9.06
387.008	9.33
387.216	9.17
387.424	9.4
387.633	9.23
387.841	9.17
388.049	9.41
388.257	9.22
388.465	9.21
388.672	9.47
388.88	9.48
389.088	9.56
389.296	9.5
389.504	9.59
389.712	9.45
389.92	9.32
390.128	9.42
390.336	9.04
390.544	8.87
390.751	9.19
390.959	9.12
391.167	8.82
391.375	8.93
391.583	8.56
391.79	8.19
391.998	8.03
392.206	8.37
392.414	8.51
392.621	8.29
392.829	8.33
393.037	8.19
393.244	8.28
393.452	8.23
393.66	7.84
393.867	7.97
394.075	8.23
394.283	8.11
394.49	8.04
394.698	7.98
394.905	8.03
395.113	8.06
395.32	7.85
395.528	7.78
395.735	7.99
395.943	8.13
396.15	7.98
396.358	8
396.565	7.89
396.773	7.67
396.98	7.53
397.188	7.41
397.395	7.3
397.602	7.53
397.81	7.41
398.017	7.38
398.225	7.36
398.432	7.88
398.639	7.75
398.847	8.13
399.054	7.98
399.261	8.04
399.468	8.14
399.676	8.27
399.883	8.01
400.09	8.08
400.297	8.21
400.505	8.22
400.712	7.92
400.919	7.95
401.126	7.7
401.333	7.84
401.54	7.91
401.748	7.89
401.955	7.71
402.162	7.66
402.369	7.44
402.576	7.25
402.783	6.81
402.99	7.1
403.197	7
403.404	7.11
403.611	7.41
403.818	7.55
404.025	7.52
404.232	7.45
404.439	7.54
404.646	7.5
404.853	7.26
405.06	7.49
405.267	7.19
405.474	7.16
405.681	7.11
405.887	6.79
406.094	6.75
406.301	6.8
406.508	6.95
406.715	7.25
406.922	7.44
407.128	7.67
407.335	7.89
407.542	7.96
407.749	7.88
407.955	7.99
408.162	7.95
408.369	7.73
408.575	7.84
408.782	7.95
408.989	7.75
409.195	7.78
409.402	7.81
409.609	8
409.815	8.14
410.022	8.18
410.228	7.83
410.435	8.17
410.642	7.99
410.848	7.68
411.055	7.41
411.261	7.46
411.468	7.38
411.674	7.27
411.881	6.78
412.087	6.28
412.294	6.42
412.5	6.3
412.706	5.96
412.913	6.27
413.119	6.63
413.326	6.88
413.532	6.81
413.738	6.64
413.945	6.54
414.151	6.76
414.357	7.1
414.564	7.03
414.77	7.15
414.976	7.05
415.182	7.22
415.389	6.84
415.595	6.66
415.801	6.59
416.007	6.72
416.214	6.69
416.42	6.64
416.626	6.62
416.832	6.47
417.038	6.52
417.244	6.68
417.45	6.29
417.657	6.37
417.863	6.18
418.069	6.03
418.275	6.04
418.481	6.03
418.687	6.01
418.893	5.91
419.099	5.95
419.305	5.87
419.511	5.89
419.717	5.81
419.923	5.84
420.129	5.96
420.335	6.04
420.541	5.95
420.746	6.07
420.952	5.92
421.158	5.96
421.364	5.96
421.57	5.97
421.776	5.9
421.982	5.96
422.187	6
422.393	5.93
422.599	5.91
422.805	5.87
423.01	5.74
423.216	5.92
423.422	5.92
423.628	6
423.833	6.11
424.039	6.31
424.245	6.26
424.45	6.17
424.656	6.24
424.862	6.19
425.067	6.28
425.273	6.23
425.478	6.19
425.684	6.2
425.889	6.19
426.095	6.11
426.301	5.74
426.506	5.92
426.712	5.84
426.917	5.89
427.123	5.83
427.328	5.86
427.533	6.06
427.739	5.92
427.944	5.99
428.15	5.92
428.355	5.93
428.561	6.32
428.766	6.02
428.971	6.23
429.177	6.12
429.382	6.2
429.587	6.14
429.793	6.1
429.998	6.3
430.203	6.21
430.408	6.22
430.614	6.17
430.819	5.91
431.024	6.04
431.229	6.04
431.434	6.25
431.64	6.3
431.845	6.39
432.05	6.49
432.255	6.36
432.46	6.34
432.665	6.08
432.87	6.18
433.076	6.44
433.281	6.49
433.486	6.4
433.691	6.31
433.896	6.26
434.101	6.09
434.306	5.85
434.511	5.8
434.716	5.62
434.921	5.89
435.126	5.76
435.331	5.37
435.535	5.22
435.74	5.37
435.945	5.17
436.15	5.28
436.355	5.32
436.56	5.47
436.765	5.7
436.97	5.85
437.174	5.83
437.379	5.93
437.584	6.21
437.789	6.15
437.993	6.06
438.198	6.19
438.403	6.03
438.608	5.97
438.812	5.98
439.017	5.71
439.222	5.81
439.426	5.71
439.631	5.58
439.836	5.39
440.04	5.53
440.245	5.45
440.45	5.27
440.654	5.37
440.859	5.44
441.063	5.31
441.268	5.59
441.472	5.45
441.677	5.64
441.881	5.75
442.086	5.91
442.29	5.99
442.495	5.99
442.699	6.13
442.904	5.96
443.108	5.89
443.312	6.03
443.517	5.85
443.721	5.95
443.925	5.73
444.13	5.78
444.334	5.72
444.538	5.6
444.743	5.67
444.947	5.59
445.151	5.65
445.356	5.72
445.56	5.68
445.764	5.62
445.968	5.54
446.173	5.49
446.377	5.31
446.581	5.38
446.785	5.37
446.989	5.27
447.193	5.37
447.398	5.47
447.602	5.51
447.806	5.54
448.01	5.53
448.214	5.63
448.418	5.8
448.622	6
448.826	5.99
449.03	5.96
449.234	5.97
449.438	5.91
449.642	5.77
449.846	5.74
450.05	5.71
450.254	5.79
450.458	5.71
450.662	5.65
450.866	5.4
451.069	5.4
451.273	5.51
451.477	5.68
451.681	5.78
451.885	5.85
452.089	5.88
452.292	5.82
452.496	5.75
452.7	5.89
452.904	5.91
453.107	6.06
453.311	5.93
453.515	6
453.719	5.97
453.922	5.95
454.126	6.01
454.33	5.91
454.533	6.08
454.737	6.04
454.94	5.82
455.144	5.82
455.348	5.9
455.551	6
455.755	5.92
455.958	6.1
456.162	6
456.365	5.91
456.569	5.97
456.772	5.88
456.976	5.88
457.179	5.99
457.383	5.95
457.586	5.89
457.79	5.76
457.993	5.91
458.196	5.79
458.4	5.82
458.603	5.91
458.807	5.78
459.01	5.81
459.213	5.85
459.417	5.76
459.62	5.74
459.823	5.75
460.026	5.71
460.23	5.59
460.433	5.57
460.636	5.41
460.839	5.46
461.042	5.38
461.246	5.28
461.449	5.32
461.652	5.29
461.855	5.22
462.058	5.08
462.261	5.04
462.464	5.04
462.668	5.04
462.871	5.27
463.074	5.07
463.277	5.2
463.48	5.28
463.683	5.06
463.886	5.1
464.089	5.37
464.292	5.46
464.495	5.55
464.698	5.68
464.901	5.76
465.104	5.86
465.306	6.06
465.509	6.12
465.712	6
465.915	6.01
466.118	6
466.321	5.78
466.524	5.85
466.726	5.95
466.929	5.87
467.132	5.73
467.335	5.6
467.538	5.4
467.74	5.44
467.943	5.44
468.146	5.55
468.348	5.63
468.551	5.62
468.754	5.51
468.956	5.59
469.159	5.65
469.362	5.8
469.564	5.88
469.767	5.98
469.969	5.87
470.172	6.01
470.375	5.97
470.577	6
470.78	6.05
470.982	6.12
471.185	5.79
471.387	5.61
471.59	5.39
471.792	5.28
471.995	5.25
472.197	5.28
472.399	5.11
472.602	5.25
472.804	5.06
473.007	5.05
473.209	4.94
473.411	5.22
473.614	5.26
473.816	5.27
474.018	5.28
474.22	5.39
474.423	5.36
474.625	5.64
474.827	5.39
475.03	5.41
475.232	5.58
475.434	5.68
475.636	5.4
475.838	5.47
476.04	5.49
476.243	5.55
476.445	5.37
476.647	5.4
476.849	5.21
477.051	5.3
477.253	5.6
477.455	5.49
477.657	5.4
477.859	5.5
478.061	5.42
478.263	5.39
478.465	5.16
478.667	5.05
478.869	5.26
479.071	5.26
479.273	5.33
479.475	5.21
479.677	5.24
479.879	5.34
480.081	5.44
480.283	5.45
480.485	5.44
480.686	5.57
480.888	5.67
481.09	5.4
481.292	5.26
481.494	5.22
481.695	5.25
481.897	5.14
482.099	5.07
482.301	5.03
482.502	5
482.704	4.99
482.906	5.01
483.107	4.99
483.309	4.96
483.511	4.99
483.712	4.94
483.914	4.87
484.115	4.89
484.317	4.87
484.519	4.81
484.72	4.78
484.922	4.79
485.123	4.76
485.325	4.77
485.526	4.76
485.728	4.75
485.929	4.73
486.131	4.73
486.332	4.72
486.534	4.68
486.735	4.73
486.936	4.78
487.138	4.79
487.339	4.74
487.541	4.77
487.742	4.79
487.943	4.89
488.144	4.96
488.346	5.02
488.547	4.99
488.748	5.06
488.95	4.99
489.151	4.98
489.352	5.02
489.553	5.09
489.755	5.07
489.956	5.15
490.157	5.07
490.358	5.08
490.559	4.97
490.76	4.96
490.961	4.94
491.163	5.05
491.364	5.09
491.565	5.01
491.766	5.01
491.967	5.01
492.168	4.91
492.369	4.89
492.57	4.89
492.771	4.97
492.972	4.94
493.173	4.95
493.374	4.99
493.575	4.97
493.776	5.07
493.976	5.12
494.177	5.25
494.378	5.39
494.579	5.47
494.78	5.35
494.981	5.28
495.182	5.37
495.382	5.55
495.583	5.6
495.784	5.69
495.985	5.79
496.185	5.82
496.386	5.68
496.587	5.72
496.788	5.61
496.988	5.72
497.189	5.83
497.39	5.86
497.59	5.69
497.791	5.74
497.992	5.69
498.192	5.63
498.393	5.61
498.593	5.54
498.794	5.54
498.994	5.57
499.195	5.57
499.395	5.65
499.596	5.76
499.796	5.65
499.997	5.62
500.197	5.71
500.398	5.67
500.598	5.57
500.799	5.75
500.999	5.7
501.199	5.85
501.4	5.86
501.6	5.71
501.801	5.57
502.001	5.79
502.201	5.75
502.402	5.74
502.602	5.75
502.802	5.68
503.002	5.65
503.203	5.71
503.403	5.62
503.603	5.7
503.803	5.73
504.003	5.78
504.204	5.81
504.404	5.75
504.604	5.71
504.804	5.84
505.004	5.98
505.204	5.96
505.404	6.03
505.604	6.09
505.804	6.04
506.005	6.23
506.205	6.22
506.405	6.21
506.605	6.29
506.805	6.28
507.005	6.33
507.204	6.48
507.404	6.51
507.604	6.44
507.804	6.49
508.004	6.55
508.204	6.45
508.404	6.47
508.604	6.43
508.804	6.49
509.003	6.51
509.203	6.43
509.403	6.25
509.603	6.16
509.803	6.21
510.002	6.2
510.202	6.18
510.402	6.16
510.602	6.2
510.801	6.27
511.001	6.2
511.201	6.18
511.4	6.13
511.6	6.17
511.8	6.24
511.999	6.34
512.199	6.34
512.398	6.25
512.598	6.37
512.797	6.36
512.997	6.38
513.197	6.34
513.396	6.39
513.596	6.4
513.795	6.54
513.994	6.6
514.194	6.63
514.393	6.68
514.593	6.92
514.792	6.87
514.992	7.07
515.191	7.25
515.39	7.33
515.59	7.43
515.789	7.6
515.988	7.7
516.188	7.67
516.387	7.56
516.586	7.63
516.786	7.58
516.985	7.6
517.184	7.53
517.383	7.44
517.582	7.44
517.782	7.34
517.981	7.18
518.18	7.02
518.379	7.15
518.578	7.12
518.777	7.06
518.976	6.98
519.176	7.02
519.375	7.01
519.574	6.97
519.773	6.99
519.972	7.09
520.171	7.22
520.37	7.29
520.569	7.23
520.768	7.31
520.967	7.36
521.166	7.43
521.365	7.43
521.564	7.47
521.762	7.5
521.961	7.67
522.16	7.61
522.359	7.65
522.558	7.6
522.757	7.59
522.956	7.63
523.154	7.68
523.353	7.66
523.552	7.71
523.751	7.81
523.949	7.74
524.148	7.86
524.347	7.96
524.546	8.06
524.744	8.13
524.943	8.31
525.142	8.23
525.34	8.18
525.539	8.23
525.737	8.18
525.936	8.08
526.135	8.16
526.333	8.02
526.532	7.9
526.73	7.84
526.929	7.84
527.127	7.73
527.326	7.78
527.524	7.87
527.723	7.95
527.921	7.97
528.12	7.97
528.318	7.94
528.516	7.99
528.715	8.02
528.913	8.02
529.112	8.07
529.31	8.1
529.508	8.15
529.707	8.22
529.905	8.13
530.103	8.17
530.301	8.25
530.5	8.34
530.698	8.32
530.896	8.45
531.094	8.61
531.293	8.67
531.491	8.78
531.689	8.83
531.887	8.83
532.085	8.99
532.283	8.97
532.481	9.03
532.68	9.09
532.878	9.15
533.076	9.1
533.274	8.99
533.472	9.01
533.67	8.92
533.868	8.96
534.066	8.95
534.264	9.01
534.462	9.1
534.66	9.13
534.858	9.11
535.056	9.2
535.253	9.3
535.451	9.49
535.649	9.56
535.847	9.72
536.045	9.74
536.243	9.97
536.441	10
536.638	10.08
536.836	9.99
537.034	10.14
537.232	10.06
537.43	10.14
537.627	10.07
537.825	10.07
538.023	10.12
538.22	10.23
538.418	10.12
538.616	10.25
538.813	10.24
539.011	10.47
539.209	10.47
539.406	10.65
539.604	10.69
539.801	10.79
539.999	10.78
540.196	10.83
540.394	10.85
540.591	10.88
540.789	10.86
540.986	10.93
541.184	10.95
541.381	10.94
541.579	10.96
541.776	10.91
541.974	10.92
542.171	11.03
542.368	11.13
542.566	11.14
542.763	11.1
542.96	11.13
543.158	11.1
543.355	11.09
543.552	11.15
543.75	11.24
543.947	11.41
544.144	11.5
544.341	11.48
544.539	11.43
544.736	11.54
544.933	11.72
545.13	11.82
545.327	11.94
545.524	12
545.722	12.17
545.919	12.22
546.116	12.18
546.313	12.16
546.51	12.31
546.707	12.35
546.904	12.37
547.101	12.32
547.298	12.43
547.495	12.51
547.692	12.59
547.889	12.52
548.086	12.41
548.283	12.52
548.48	12.72
548.677	12.76
548.874	12.99
549.07	13.18
549.267	13.38
549.464	13.46
549.661	13.37
549.858	13.63
550.055	13.8
550.251	14.11
550.448	14.3
550.645	14.28
550.842	14.38
551.038	14.48
551.235	14.56
551.432	14.59
551.628	14.72
551.825	15.18
552.022	15.23
552.218	15.31
552.415	15.46
552.612	15.54
552.808	15.63
553.005	15.66
553.201	15.68
553.398	15.66
553.594	15.71
553.791	15.73
553.987	15.53
554.184	15.41
554.38	15.54
554.577	15.38
554.773	15.34
554.97	15.37
555.166	15.63
555.362	15.52
555.559	15.73
555.755	15.91
555.952	15.99
556.148	16.26
556.344	16.47
556.541	16.57
556.737	16.76
556.933	17.03
557.129	17
557.326	17.1
557.522	17.29
557.718	17.32
557.914	17.39
558.11	17.44
558.307	17.53
558.503	17.58
558.699	17.64
558.895	17.82
559.091	17.75
559.287	18.16
559.483	18.25
559.679	18.33
559.876	18.49
560.072	18.3
560.268	18.45
560.464	18.45
560.66	18.56
560.856	18.54
561.052	18.57
561.247	18.69
561.443	18.61
561.639	18.61
561.835	18.61
562.031	18.8
562.227	19.02
562.423	18.95
562.619	19.05
562.815	19.16
563.01	19.36
563.206	19.54
563.402	19.76
563.598	19.94
563.793	20
563.989	19.91
564.185	19.93
564.381	20.02
564.576	20.33
564.772	20.59
564.968	20.63
565.163	20.54
565.359	20.47
565.555	20.38
565.75	20.51
565.946	20.64
566.141	20.78
566.337	20.67
566.532	20.8
566.728	20.76
566.923	20.66
567.119	20.7
567.314	20.86
567.51	21.06
567.705	21.08
567.901	21.01
568.096	21.17
568.292	21.4
568.487	21.42
568.682	21.52
568.878	21.6
569.073	21.79
569.268	21.93
569.464	21.98
569.659	22.11
569.854	22.23
570.05	22.44
570.245	22.39
570.44	22.33
570.635	22.52
570.831	22.73
571.026	22.8
571.221	22.9
571.416	22.76
571.611	22.85
571.806	22.69
572.002	22.95
572.197	22.86
572.392	22.79
572.587	22.9
572.782	22.95
572.977	22.83
573.172	22.85
573.367	22.92
573.562	23.26
573.757	23.49
573.952	23.74
574.147	23.6
574.342	23.64
574.537	23.78
574.732	23.89
574.927	24.13
575.121	24.41
575.316	24.57
575.511	24.6
575.706	24.51
575.901	24.41
576.096	24.38
576.29	24.4
576.485	24.72
576.68	24.93
576.875	24.97
577.069	24.81
577.264	24.69
577.459	24.85
577.654	24.76
577.848	24.91
578.043	25.04
578.238	25.31
578.432	25.47
578.627	25.37
578.821	25.46
579.016	25.53
579.21	25.55
579.405	25.5
579.6	25.47
579.794	25.58
579.989	25.81
580.183	25.99
580.378	25.97
580.572	26
580.766	26.11
580.961	26.03
581.155	26.12
581.35	26.54
581.544	26.81
581.738	26.78
581.933	26.83
582.127	26.92
582.321	26.65
582.516	26.65
582.71	26.51
582.904	26.6
583.099	26.7
583.293	26.93
583.487	26.92
583.681	27.1
583.875	27.07
584.07	27.18
584.264	27.2
584.458	27.44
584.652	27.47
584.846	27.92
585.04	27.85
585.234	27.89
585.428	27.9
585.623	27.8
585.817	27.82
586.011	27.88
586.205	27.88
586.399	27.84
586.593	27.76
586.787	27.84
586.981	27.62
587.174	27.91
587.368	27.83
587.562	28.08
587.756	28.2
587.95	28.06
588.144	28.03
588.338	28.27
588.532	28.08
588.725	28.52
588.919	28.65
589.113	28.79
589.307	28.67
589.501	28.77
589.694	28.74
589.888	28.78
590.082	29.03
590.275	29.14
590.469	29.28
590.663	29.49
590.856	29.21
591.05	29.24
591.244	29.43
591.437	29.61
591.631	29.67
591.824	29.37
592.018	29.56
592.212	29.6
592.405	29.66
592.599	29.63
592.792	29.53
592.986	29.46
593.179	29.37
593.372	29.28
593.566	29.35
593.759	29.41
593.953	29.56
594.146	29.44
594.339	29.26
594.533	29.3
594.726	29.34
594.92	29.47
595.113	29.71
595.306	29.88
595.499	29.86
595.693	29.71
595.886	29.79
596.079	29.86
596.272	29.87
596.466	29.83
596.659	29.87
596.852	29.84
597.045	30.03
597.238	29.94
597.431	30.03
597.624	30.03
597.818	30.11
598.011	30.22
598.204	30.15
598.397	30.04
598.59	30.23
598.783	30.42
598.976	30.41
599.169	30.41
599.362	30.37
599.555	30.33
599.748	30.59
599.941	30.69
600.134	30.43
600.326	30.62
600.519	31.22
600.712	31.59
600.905	31.38
601.098	31.56
601.291	31.39
601.483	31.6
601.676	31.45
601.869	31.34
602.062	31.52
602.255	31.69
602.447	31.51
602.64	31.12
602.833	30.76
603.025	30.89
603.218	30.81
603.411	30.82
603.603	30.73
603.796	31.02
603.989	31.06
604.181	30.87
604.374	30.84
604.566	31.03
604.759	31.21
604.951	31.19
605.144	31.21
605.336	31.49
605.529	31.84
605.721	31.99
605.914	31.69
606.106	31.62
606.299	31.92
606.491	31.95
606.683	32
606.876	32.02
607.068	32.08
607.26	32.23
607.453	32.03
607.645	31.85
607.837	31.97
608.03	32.26
608.222	32.49
608.414	32.21
608.606	32.29
608.799	32.45
608.991	32.4
609.183	32.57
609.375	32.47
609.567	32.24
609.759	32.11
609.952	32.1
610.144	32.04
610.336	32.18
610.528	32.36
610.72	32.32
610.912	32.22
611.104	32.26
611.296	32.17
611.488	32.42
611.68	32.61
611.872	32.56
612.064	32.75
612.256	33.03
612.448	32.92
612.64	32.81
612.832	33.24
613.023	33.32
613.215	33.36
613.407	33.28
613.599	32.96
613.791	33.26
613.983	33.38
614.174	33.07
614.366	33.2
614.558	33.29
614.75	33.39
614.941	33.37
615.133	33.57
615.325	33.82
615.516	34
615.708	34.02
615.9	33.65
616.091	34.13
616.283	34.12
616.475	33.89
616.666	33.99
616.858	33.85
617.049	33.77
617.241	33.64
617.432	33.4
617.624	33.6
617.815	33.98
618.007	34.23
618.198	34.03
618.39	34.15
618.581	34.29
618.773	34.33
618.964	34.56
619.155	34.5
619.347	34.41
619.538	34.3
619.729	34.21
619.921	34.36
620.112	34.66
620.303	34.21
620.494	34.35
620.686	34.15
620.877	34.11
621.068	34.25
621.259	34.3
621.451	34.55
621.642	34.63
621.833	34.69
622.024	34.35
622.215	34.37
622.406	34.78
622.597	34.64
622.788	34.84
622.98	34.67
623.171	34.25
623.362	34.47
623.553	34.69
623.744	34.73
623.935	34.6
624.126	34.63
624.317	34.65
624.508	34.71
624.698	34.76
624.889	34.78
625.08	34.82
625.271	35.45
625.462	35.17
625.653	35
625.844	34.76
626.034	34.81
626.225	34.92
626.416	34.75
626.607	34.81
626.798	34.95
626.988	34.98
627.179	35.01
627.37	34.85
627.56	35.06
627.751	34.77
627.942	35.06
628.132	34.91
628.323	34.72
628.514	35.05
628.704	35.05
628.895	34.99
629.085	34.78
629.276	34.87
629.466	35.1
629.657	34.98
629.847	35.39
630.038	35.5
630.228	35.85
630.419	36.29
630.609	36.1
630.8	36.07
630.99	36.06
631.181	36.3
631.371	36.42
631.561	36.08
631.752	36.16
631.942	36.14
632.132	36.35
632.323	36.57
632.513	36.59
632.703	36.24
632.893	36.38
633.084	36.34
633.274	36.07
633.464	35.89
633.654	36.12
633.844	36
634.034	35.67
634.225	35.31
634.415	35.21
634.605	35.06
634.795	35.05
634.985	35.02
635.175	35.19
635.365	35.21
635.555	35.31
635.745	35.39
635.935	35.38
636.125	35.33
636.315	35.76
636.505	35.64
636.695	35.55
636.885	35.74
637.075	35.8
637.265	35.92
637.455	36.4
637.644	36.48
637.834	36.35
638.024	36.32
638.214	36.93
638.404	36.6
638.593	36.84
638.783	36.96
638.973	37.27
639.163	37.02
639.352	36.75
639.542	36.87
639.732	37.14
639.921	37.07
640.111	37.38
640.301	37.13
640.49	37.5
640.68	37.27
640.87	37.01
641.059	37.15
641.249	37.63
641.438	37.72
641.628	37.55
641.817	37.52
642.007	37.53
642.196	37.63
642.386	37.94
642.575	37.8
642.764	37.73
642.954	37.65
643.143	37.4
643.333	37.19
643.522	37.19
643.711	37.18
643.901	36.97
644.09	37.24
644.279	37.08
644.469	36.89
644.658	36.68
644.847	37.11
645.036	37.5
645.226	37.66
645.415	38
645.604	38.09
645.793	38.11
645.982	37.87
646.171	37.74
646.361	37.68
646.55	37.9
646.739	38.1
646.928	37.54
647.117	37.63
647.306	37.73
647.495	37.26
647.684	37.17
647.873	37.2
648.062	37.51
648.251	37.49
648.44	37.47
648.629	36.99
648.818	36.94
649.007	37.39
649.196	37.48
649.384	37.29
649.573	37.29
649.762	37.66
649.951	37.65
650.14	37.96
650.328	38.26
650.517	38.19
650.706	38.74
650.895	38.75
651.083	39
651.272	38.63
651.461	38.53
651.65	38.98
651.838	39.6
652.027	39.27
652.216	39.01
652.404	38.81
652.593	39.03
652.781	38.72
652.97	39.17
653.158	38.82
653.347	39.18
653.535	39.4
653.724	39.15
653.912	38.7
654.101	39.08
654.289	39
654.478	39.33
654.666	39.5
654.855	39.65
655.043	39.39
655.231	39.57
655.42	39.76
655.608	39.96
655.796	40.16
655.985	40.09
656.173	40.16
656.361	40.54
656.55	40.24
656.738	40.12
656.926	40.06
657.114	40.37
657.302	40.34
657.491	40
657.679	39.52
657.867	39.3
658.055	39.12
658.243	38.97
658.431	38.93
658.619	38.96
658.807	38.89
658.996	38.9
659.184	38.65
659.372	38.72
659.56	38.76
659.748	38.85
659.936	39.34
660.124	38.96
660.311	39.09
660.499	38.89
660.687	38.72
660.875	39.14
661.063	39.3
661.251	39.43
661.439	39.38
661.627	39.69
661.814	39.95
662.002	39.6
662.19	39.83
662.378	39.92
662.565	40.1
662.753	40.72
662.941	39.77
663.129	39.54
663.316	39.36
663.504	39.3
663.692	39.57
663.879	39.41
664.067	39.48
664.254	39.76
664.442	39.65
664.63	39.91
664.817	39.58
665.005	40.14
665.192	40.05
665.38	40.66
665.567	40.63
665.755	40.23
665.942	40.43
666.13	40.33
666.317	39.94
666.504	39.85
666.692	39.88
666.879	39.76
667.067	39.88
667.254	40.33
667.441	39.87
667.629	40.04
667.816	39.97
668.003	39.97
668.19	39.86
668.378	39.86
668.565	40.08
668.752	40.05
668.939	39.99
669.127	40.09
669.314	39.74
669.501	39.74
669.688	40.29
669.875	40.37
670.062	40.5
670.249	40.86
670.436	41.19
670.623	41.15
670.81	41.2
670.997	41.11
671.184	41.08
671.371	41.25
671.558	41.35
671.745	40.59
671.932	40.97
672.119	40.95
672.306	40.93
672.493	41.26
672.68	41.53
672.867	41.19
673.054	41
673.24	41.36
673.427	41.33
673.614	41.26
673.801	41.49
673.988	41.12
674.174	41.2
674.361	41.29
674.548	41.05
674.734	40.67
674.921	40.93
675.108	41.67
675.294	41.2
675.481	41.16
675.668	41.79
675.854	41.71
676.041	41.59
676.227	41.45
676.414	41.38
676.601	41.46
676.787	41.53
676.974	41.32
677.16	41.63
677.347	42.38
677.533	42.72
677.719	42.15
677.906	41.74
678.092	42.15
678.279	42.08
678.465	41.86
678.651	41.75
678.838	42.09
679.024	42.16
679.21	41.44
679.397	40.76
679.583	40.55
679.769	40.33
679.955	40.83
680.142	40.56
680.328	40.47
680.514	40.24
680.7	40.3
680.886	40.26
681.073	40.5
681.259	40.64
681.445	40.76
681.631	40.92
681.817	41.07
682.003	41.22
682.189	41.16
682.375	41.75
682.561	42.01
682.747	42.38
682.933	42.34
683.119	41.81
683.305	41.99
683.491	42.24
683.677	42.35
683.863	42.56
684.049	42.58
684.235	42.94
684.42	42.8
684.606	42.4
684.792	42.32
684.978	42.25
685.164	42.87
685.349	42.9
685.535	43.03
685.721	42.8
685.907	42.72
686.092	42.5
686.278	42.3
686.464	41.71
686.649	42.03
686.835	41.9
687.021	41.95
687.206	41.88
687.392	41.6
687.577	41.13
687.763	41.45
687.948	41.37
688.134	41.56
688.319	41.8
688.505	42.03
688.69	42.45
688.876	42.51
689.061	42.34
689.247	42.32
689.432	42.42
689.618	42.41
689.803	42.16
689.988	42.54
690.174	42.65
690.359	42.51
690.544	42.76
690.73	42.41
690.915	42.51
691.1	42.52
691.285	42.54
691.471	43
691.656	43.67
691.841	44.18
692.026	43.67
692.211	43.74
692.396	43.82
692.582	43.4
692.767	43.52
692.952	43.44
693.137	43.74
693.322	43.78
693.507	43.53
693.692	43.21
693.877	42.66
694.062	43.29
694.247	43.11
694.432	43.46
694.617	43.56
694.802	44.17
694.987	44.28
695.172	44.46
695.357	43.84
695.541	44.02
695.726	43.7
695.911	43.98
696.096	43.47
696.281	43.66
696.466	43.82
696.65	43.98
696.835	43.87
697.02	43.4
697.204	43.77
697.389	44.15
697.574	44.04
697.759	44.05
697.943	43.84
698.128	44.2
698.312	44.09
698.497	43.55
698.682	43.51
698.866	43.13
699.051	43.21
699.235	42.73
699.42	42.79
699.604	42.5
699.789	42.36
699.973	42.18
700.158	42.05
700.342	42
700.527	42.41
700.711	42.54
700.895	42.88
701.08	43.35
701.264	43.74
701.448	44.02
701.633	44.48
701.817	45.14
702.001	45.63
702.186	45.6
702.37	45.34
702.554	44.91
702.738	44.82
702.923	44.75
703.107	44.54
703.291	43.65
703.475	43.33
703.659	43.27
703.843	42.46
704.027	42.38
704.212	42.1
704.396	42.17
704.58	42.63
704.764	42.57
704.948	42.68
705.132	42.05
705.316	43.08
705.5	43.15
705.684	42.24
705.868	43.16
706.052	43.43
706.235	44.59
706.419	44.8
706.603	45.07
706.787	45.14
706.971	45.1
707.155	45.67
707.339	45.08
707.522	45.3
707.706	45.96
707.89	45.92
708.074	46.39
708.257	45.56
708.441	45.59
708.625	44.65
708.808	44.7
708.992	44.79
709.176	45.04
709.359	45.44
709.543	45.43
709.727	45.81
709.91	45.45
710.094	44.97
710.277	44.92
710.461	45.04
710.644	46.08
710.828	46.17
711.011	45.98
711.195	45.59
711.378	45.4
711.562	45.04
711.745	45.15
711.928	44.82
712.112	44.78
712.295	45.04
712.478	45.49
712.662	45.16
712.845	45.59
713.028	45.7
713.212	45.67
713.395	45.91
713.578	45.74
713.761	45.4
713.945	46.08
714.128	45.85
714.311	46.47
714.494	45.27
714.677	44.57
714.86	44.18
715.043	44.14
715.227	44.63
715.41	43.55
715.593	44.22
715.776	44.35
715.959	44.03
716.142	43.82
716.325	43.02
716.508	43.54
716.691	44.29
716.874	44.53
717.057	44.67
717.239	44.39
717.422	45.56
717.605	45.72
717.788	45.72
717.971	46.78
718.154	47.5
718.337	47.49
718.519	48.11
718.702	48.26
718.885	47.67
719.068	48.06
719.25	48.31
719.433	47.23
719.616	46.44
719.798	46.59
719.981	46.29
720.164	45.61
720.346	45.7
720.529	45.16
720.712	44.43
720.894	44.82
721.077	43.73
721.259	43.65
721.442	45.15
721.624	45.18
721.807	45.06
721.989	44.27
722.172	44.84
722.354	44.9
722.537	45.29
722.719	45.23
722.901	44.81
723.084	45.26
723.266	45.5
723.448	45.28
723.631	45.8
723.813	46.11
723.995	46.02
724.178	46.45
724.36	47.07
724.542	46.74
724.724	47.41
724.907	48.1
725.089	48.02
725.271	48.03
725.453	47.92
725.635	47.22
725.817	47.63
725.999	48.13
726.181	47.55
726.364	48.05
726.546	47.93
726.728	48.14
726.91	48.06
727.092	48.31
727.274	48.82
727.456	48.54
727.638	48.61
727.819	48.09
728.001	47.37
728.183	47.05
728.365	45.93
728.547	46.07
728.729	46.65
728.911	46.49
729.093	46.39
729.274	45.46
729.456	45.53
729.638	46.64
729.82	46.3
730.001	46.49
730.183	47.39
730.365	47.53
730.546	47.91
730.728	47.46
730.91	47.7
731.091	47.87
731.273	47.84
731.455	48.68
731.636	47.91
731.818	47.88
731.999	48.11
732.181	48.08
732.362	48.36
732.544	48.53
732.725	48
732.907	47.71
733.088	47.56
733.27	48.49
733.451	47.58
733.633	48.27
733.814	48.53
733.995	48.75
734.177	49.24
734.358	48.94
734.539	48.62
734.721	49.27
734.902	49.05
735.083	49.16
735.264	48.57
735.446	49.96
735.627	48.23
735.808	47.78
735.989	47.19
736.17	45.45
736.351	45.97
736.533	45.51
736.714	45.41
736.895	45.48
737.076	45.63
737.257	45.57
737.438	43.85
737.619	45.43
737.8	45.31
737.981	46.45
738.162	47.51
738.343	46.92
738.524	47.66
738.705	47.26
738.886	47.78
739.067	47.99
739.247	47.62
739.428	48.24
739.609	47.98
739.79	48.83
739.971	48.14
740.151	48.08
740.332	47.76
740.513	47.9
740.694	47.64
740.874	47.71
741.055	47.67
741.236	48.46
741.417	47.69
741.597	46.79
741.778	46.33
741.958	45.89
742.139	46.13
742.32	45.78
742.5	45.93
742.681	46.21
742.861	47.03
743.042	46.9
743.222	46.54
743.403	48.11
743.583	49.15
743.764	49.92
743.944	50.21
744.124	49.71
744.305	51.05
744.485	51.01
744.666	51.02
744.846	49.8
745.026	50.01
745.207	50.7
745.387	50.59
745.567	51.16
745.747	51.11
745.928	51.51
746.108	51.83
746.288	51.81
746.468	51.86
746.648	51.82
746.829	51.49
747.009	52.46
747.189	51.37
747.369	51.01
747.549	49.72
747.729	48.99
747.909	48.89
748.089	49.18
748.269	48.61
748.449	48.56
748.629	48.8
748.809	49.57
748.989	49.49
749.169	49.34
749.349	49.06
749.529	49.71
749.709	49.7
749.889	49.8
750.068	50.13
750.248	50.66
750.428	50.43
750.608	50.28
750.788	50.79
750.967	50.22
751.147	50.64
751.327	51.19
751.507	50.33
751.686	51.51
751.866	51.65
752.046	51.52
752.225	51.77
752.405	51.83
752.585	52.09
752.764	51.51
752.944	49.75
753.123	49.75
753.303	48.96
753.482	49.43
753.662	48.33
753.841	48.49
754.021	49.23
754.2	49.35
754.38	49.61
754.559	49.69
754.739	49.43
754.918	51.66
755.097	51.82
755.277	52.47
755.456	52.32
755.635	53.51
755.815	53.56
755.994	52.62
756.173	51.81
756.352	51.4
756.532	50.8
756.711	51.24
756.89	50.06
757.069	50.2
757.248	49
757.427	49.46
757.607	48.27
757.786	47.54
757.965	46.46
758.144	48.16
758.323	48.99
758.502	50.08
758.681	49.94
758.86	50.4
759.039	50.8
759.218	51.75
759.397	51.91
759.576	52.47
759.755	52.43
759.934	53.08
760.113	51.53
760.291	50.68
760.47	50.39
760.649	50.97
760.828	51.51
761.007	50.56
761.186	50.36
761.364	49.81
761.543	49.68
761.722	49.5
761.901	49.47
762.079	49.64
762.258	49.96
762.437	50.13
762.615	49.9
762.794	49.39
762.972	49.54
763.151	49.61
763.33	49.51
763.508	49.71
763.687	50.24
763.865	50.3
764.044	49.97
764.222	49.91
764.401	49.63
764.579	49.44
764.758	49.29
764.936	49.2
765.114	49.11
765.293	49.21
765.471	49.68
765.65	49.03
765.828	49.43
766.006	49.58
766.184	49.04
766.363	48.88
766.541	48.55
766.719	48.12
766.898	48.3
767.076	48.26
767.254	49.12
767.432	47.65
767.61	48.25
767.788	48.54
767.967	48.34
768.145	48.6
768.323	48.64
768.501	48.86
768.679	50.03
768.857	50.11
769.035	51.69
769.213	50.86
769.391	51.79
769.569	52.93
769.747	52.65
769.925	53.17
770.103	54.44
770.281	54.13
770.459	54.33
770.636	54.5
770.814	55.11
770.992	54.48
771.17	55.1
771.348	55.16
771.525	53.46
771.703	51.55
771.881	52.14
772.059	52.23
772.236	51.87
772.414	52.2
772.592	51.97
772.769	51.69
772.947	50.81
773.125	50.51
773.302	49.25
773.48	49.83
773.657	52.27
773.835	50.94
774.013	49.22
774.19	50.71
774.368	49.75
774.545	49
774.723	48.9
774.9	49.68
775.077	50.49
775.255	51.23
775.432	53.13
775.61	52.09
775.787	53.87
775.964	55.22
776.142	54.86
776.319	55.26
776.496	55.98
776.674	56.33
776.851	56.11
777.028	56.1
777.205	56.1
777.382	55.73
777.56	55.52
777.737	56.75
777.914	55.33
778.091	55.11
778.268	54.45
778.445	54.28
778.622	53.39
778.8	54.47
778.977	54.3
779.154	59.17
779.331	58.17
779.508	58
779.685	56.48
779.862	57.31
780.038	58.23
780.215	58.84
780.392	58.78
780.569	60.49
780.746	59.15
780.923	59.92
781.1	53.76
781.277	52.61
781.453	52.86
781.63	51.9
781.807	53.19
781.984	52
782.16	51.63
782.337	51.19
782.514	51.34
782.691	52.63
782.867	51.43
783.044	53.4
783.221	54.6
783.397	56.35
783.574	55.74
783.75	54.35
783.927	55.45
784.103	58
784.28	58.9
784.456	57.89
784.633	58.5
784.809	60.15
784.986	58.51
785.162	56.67
785.339	55.77
785.515	57.34
785.692	57.08
785.868	55.97
786.044	55.58
786.221	53.26
786.397	54.32
786.573	51.51
786.749	49.65
786.926	53.73
787.102	54.98
787.278	52.91
787.454	53.16
787.631	52.83
787.807	51.57
787.983	51
788.159	52.31
788.335	50.61
788.511	52.25
788.687	53.08
788.863	51.27
789.039	51.97
789.216	52.99
789.392	53.02
789.568	53.42
789.744	55.76
789.919	56.2
790.095	56.03
790.271	56.25
790.447	55.03
790.623	53.9
790.799	54.38
790.975	54.85
791.151	55.61
791.327	56.68
791.502	57.98
791.678	57.14
791.854	55.82
792.03	55.33
792.205	56.14
792.381	57.29
792.557	56.77
792.733	56.59
792.908	54.86
793.084	55.61
793.259	52.53
793.435	52.23
793.611	52.47
793.786	52.43
793.962	53.35
794.137	53.09
794.313	51.54
794.488	53.08
794.664	53.07
794.839	54.36
795.015	55.1
795.19	54.58
795.366	56.1
795.541	54.9
795.716	52.65
795.892	53.2
796.067	53.17
796.242	54.18
796.418	53.69
796.593	53.74
796.768	54.4
796.944	53.18
797.119	55.45
797.294	55.44
797.469	56.62
797.644	59.27
797.82	59.91
797.995	59.91
798.17	60.48
798.345	61.56
798.52	61.06
798.695	61.3
798.87	59.79
799.045	57.56
799.22	54.28
799.395	54.62
799.57	53.38
799.745	52.3
799.92	51.55
800.095	53.3
800.27	55.47
800.445	56.03
800.62	56.01
800.795	56.93
800.97	59.62
801.145	59.88
801.319	60.23
801.494	61.04
801.669	62.98
801.844	63.46
802.018	59.32
802.193	56.81
802.368	54.05
802.543	53.07
802.717	53.69
802.892	54.8
803.067	56.75
803.241	57.37
803.416	55.33
803.59	54.85
803.765	58.03
803.94	61.07
804.114	59.39
804.289	61.93
804.463	62.26
804.638	61.83
804.812	58.2
804.986	56.44
805.161	56.39
805.335	60.53
805.51	59.48
805.684	57.86
805.858	57.48
806.033	57.25
806.207	57.97
806.381	57.02
806.556	58.13
806.73	59.59
806.904	61.59
807.078	62.16
807.253	61.61
807.427	62.62
807.601	64.03
807.775	64.55
807.949	65.3
808.123	65.55
808.298	64.36
808.472	65.82
808.646	67.81
808.82	67.55
808.994	65.87
809.168	64.68
809.342	66.37
809.516	64.62
809.69	65.57
809.864	64.88
810.038	64.76
810.212	67.83
810.385	65.79
810.559	64.98
810.733	65.61
810.907	63.33
811.081	65.36
811.255	61.6
811.428	62.12
811.602	60.4
811.776	60.27
811.95	57.59
812.123	60.14
812.297	59.72
812.471	58.78
812.644	56.76
812.818	56.62
812.992	56.22
813.165	57.45
813.339	57.1
813.512	57.22
813.686	57.63
813.86	58.18
814.033	57.47
814.207	58.47
814.38	58.56
814.554	62.08
814.727	66.45
814.9	66
815.074	64.92
815.247	62.7
815.421	61.55
815.594	65.93
815.767	69.89
815.941	66
816.114	65.72
816.287	64.56
816.46	62.87
816.634	63.24
816.807	63.64
816.98	63.1
817.153	67.46
817.327	69.28
817.5	64.08
817.673	60.49
817.846	63.2
818.019	64.36
818.192	66.26
818.365	69.04
818.538	66.33
818.711	64.27
818.884	64.4
819.057	62.62
819.23	60.91
819.403	60.44
819.576	60.16
819.749	59.69
819.922	57.88
820.095	55.14
820.268	53.94
820.441	54.41
820.614	54.07
820.786	54.33
820.959	53.3
821.132	54.03
821.305	54.99
821.477	54.3
821.65	52.86
821.823	53.15
821.996	53.22
822.168	52.15
822.341	51.36
822.514	51.62
822.686	51.74
822.859	51.82
823.031	50.91
823.204	50.63
823.376	50.52
823.549	50.52
823.722	49.81
823.894	49.74
824.067	49.31
824.239	49.17
824.411	48.83
824.584	48.94
824.756	48.27
824.929	48.75
825.101	48.72
825.273	48.74
825.446	48.87
825.618	49.43
825.79	49.27
825.963	49.71
826.135	50.7
826.307	52.1
826.479	51.82
826.652	52.85
826.824	53.76
826.996	53.74
827.168	53.96
827.34	54.57
827.512	54.31
827.684	55
827.856	55.69
828.029	55.28
828.201	53.41
828.373	53.68
828.545	53.76
828.717	52.51
828.889	52.73
829.061	52.76
829.232	52.64
829.404	53.74
829.576	53.25
829.748	53.46
829.92	53.57
830.092	55.19
830.264	53.77
830.436	54.24
830.607	56.18
830.779	55.25
830.951	56.42
831.123	57.2
831.294	55.83
831.466	57.2
831.638	57.85
831.809	58.14
831.981	61.31
832.153	63.25
832.324	61.76
832.496	60.59
832.667	61.65
832.839	61.79
833.011	60.57
833.182	63.4
833.354	62.6
833.525	61.85
833.697	61.13
833.868	57.38
834.039	55.73
834.211	55.54
834.382	55.61
834.554	57.06
834.725	55.66
834.896	55.45
835.068	54.37
835.239	53.36
835.41	53.79
835.581	53.35
835.753	54.31
835.924	55.37
836.095	56.74
836.266	57.14
836.438	57.1
836.609	57.8
836.78	56.99
836.951	57.59
837.122	58.78
837.293	58.24
837.464	59.68
837.635	59.14
837.806	58.47
837.977	58.65
838.148	59.1
838.319	59.09
838.49	61.5
838.661	62.18
838.832	62.25
839.003	61.12
839.174	60.93
839.345	63.15
839.516	62.29
839.687	65.89
839.857	63.85
840.028	59.44
840.199	55.96
840.37	56.49
840.54	60.52
840.711	58.32
840.882	60.46
841.053	61.76
841.223	61.13
841.394	60.9
841.564	61.77
841.735	62.61
841.906	64.42
842.076	69.15
842.247	67.24
842.417	63.17
842.588	64.03
842.758	69.96
842.929	69.64
843.099	72.34
843.27	75.8
843.44	73.81
843.611	75.7
843.781	75.55
843.951	77.97
844.122	75.91
844.292	78.53
844.462	81.43
844.633	76.36
844.803	71.92
844.973	64.54
845.144	65.62
845.314	62.41
845.484	62.83
845.654	65.22
845.824	67.51
845.995	68.54
846.165	76.33
846.335	80.3
846.505	87.33
846.675	100.69
846.845	122.85
847.015	127.83
847.185	136.92
847.355	135.97
847.525	143.66
847.695	135.52
847.865	140.55
848.035	142.58
848.205	144.67
848.375	134.31
848.545	136.63
848.715	118.84
848.884	106.09
849.054	108.22
849.224	108.14
849.394	106.05
849.564	107.41
849.733	103.83
849.903	95
850.073	96.57
850.243	95.39
850.412	71.72
850.582	74.58
850.752	87.98
850.921	83.86
851.091	93.75
851.26	92.74
851.43	93.85
851.599	98.28
851.769	100.39
851.939	93.91
852.108	97.69
852.278	115.87
852.447	113.83
852.616	102.02
852.786	93.93
852.955	94.05
853.125	104.86
853.294	101.33
853.463	92.55
853.633	83.84
853.802	94.85
853.971	93.05
854.141	93.65
854.31	102.62
854.479	109.64
854.648	130.12
854.818	122.22
854.987	104.81
855.156	110.45
855.325	116.01
855.494	122.93
855.663	105.45
855.832	102.04
856.001	103.12
856.171	100.9
856.34	106.39
856.509	108.47
856.678	110.41
856.847	107.07
857.016	113.81
857.185	116.6
857.353	112.89
857.522	116.47
857.691	118.58
857.86	110.54
858.029	111.07
858.198	106.68
858.367	99.48
858.535	91.09
858.704	86.76
858.873	74.73
859.042	68.98
859.21	79.9
859.379	87.15
859.548	88.47
859.717	88.36
859.885	84.44
860.054	81.15
860.222	79.64
860.391	86.3
860.56	93.99
860.728	97.72
860.897	95.57
861.065	92.43
861.234	78.7
861.402	89.56
861.571	93.27
861.739	96.42
861.908	92.97
862.076	95.49
862.244	89.93
862.413	88.04
862.581	101.52
862.749	108.45
862.918	107.3
863.086	124.22
863.254	93.19
863.423	89.03
863.591	87.85
863.759	90.23
863.927	95.9
864.096	101.57
864.264	116.41
864.432	103.34
864.6	100.27
864.768	96.15
864.936	96
865.104	104.81
865.272	106.1
865.44	94.03
865.608	99.03
865.776	90.01
865.944	89.75
866.112	86.76
866.28	85.5
866.448	82.66
866.616	81.98
866.784	92.08
866.952	95.8
867.12	86.78
867.288	92.11
867.455	94.33
867.623	89.76
867.791	83.89
867.959	84.68
868.127	88.64
868.294	95.22
868.462	98.82
868.63	90.31
868.797	84.85
868.965	95.3
869.133	96.88
869.3	96.5
869.468	104.59
869.636	102.19
869.803	100.97
869.971	99.9
870.138	101.08
870.306	102.3
870.473	107.47
870.641	102.75
870.808	99.59
870.975	103.52
871.143	101.13
871.31	90.02
871.478	104.32
871.645	94.29
871.812	94.06
871.98	93.86
872.147	90.16
872.314	82.11
872.482	103.89
872.649	105.65
872.816	103.71
872.983	110.21
873.15	122.95
873.318	119.39
873.485	128.91
873.652	124.66
873.819	123.33
873.986	116.57
874.153	115.27
874.32	110.18
874.487	102.02
874.654	100.02
874.821	90.49
874.988	81.22
875.155	78.42
875.322	68.87
875.489	74.03
875.656	66.62
875.823	85.43
875.99	83.76
876.157	81.3
876.324	86.11
876.49	94.01
876.657	99.01
876.824	111.64
876.991	111.07
877.157	129.52
877.324	127.26
877.491	128.27
877.658	108.63
877.824	112.58
877.991	108.07
878.157	114.17
878.324	98.64
878.491	100.52
878.657	103.88
878.824	103.25
878.99	88.64
879.157	84.76
879.323	81.26
879.49	83.55
879.656	87.88
879.823	95.41
879.989	94.06
880.156	100.59
880.322	93.48
880.488	91.49
880.655	97.26
880.821	103.08
880.987	102.45
881.154	101.65
881.32	99.13
881.486	92.49
881.652	87.15
881.819	82.38
881.985	79.87
882.151	80.55
882.317	77.14
882.483	73.87
882.649	71.49
882.816	68.7
882.982	66.58
883.148	63.14
883.314	60.64
883.48	60.47
883.646	60.25
883.812	59.88
883.978	59.8
884.144	58.75
884.31	57.47
884.476	56.95
884.642	56.14
884.807	57.73
884.973	57.44
885.139	58.7
885.305	59.38
885.471	61.29
885.637	58.78
885.802	57.99
885.968	58.94
886.134	60.54
886.3	59.35
886.465	63.98
886.631	62.61
886.797	65.75
886.962	65.28
887.128	64.18
887.293	65.52
887.459	68.13
887.625	71.04
887.79	71.5
887.956	71.72
888.121	75.78
888.287	70.94
888.452	70.74
888.618	71.47
888.783	73.98
