Data from LC_249_Reflection_3.txt Node
Date: Thu Nov 19 22:58:35 EST 2015
User: robert
Spectrometer: USB4E03001
Autoset integration time: false
Trigger mode: 4
Integration Time (sec): 1.000000E-1
Scans to average: 15
Electric dark correction enabled: true
Nonlinearity correction enabled: false
Boxcar width: 5
Stray light correction enabled: false
XAxis mode: Wavelengths
Stop averaging: false
Number of Pixels in Spectrum: 3648
>>>>>Begin Spectral Data<<<<<
177.566	-53.26
177.785	-9.9
178.005	34.24
178.225	13.97
178.445	43.09
178.665	40.14
178.885	45.4
179.105	277.98
179.324	185.27
179.544	141.13
179.764	154.77
179.984	163.61
180.204	280.05
180.423	211.38
180.643	204.7
180.863	102.92
181.083	138.87
181.302	117.42
181.522	89.12
181.742	86.66
181.961	88.1
182.181	76.96
182.401	128.7
182.621	136.38
182.84	167.29
183.06	199.61
183.279	226.92
183.499	224.98
183.719	582.86
183.938	1877.1
184.158	-1136.15
184.377	-1570.07
184.597	927.84
184.816	-6951.89
185.036	-254.97
185.256	3407.78
185.475	301.93
185.695	247.68
185.914	217.24
186.134	528.01
186.353	415.71
186.572	377.08
186.792	661.94
187.011	-4661.45
187.231	-1727.09
187.45	-2164.67
187.67	-222.26
187.889	-155.82
188.108	-107.43
188.328	-159.16
188.547	-562.56
188.766	-895.6
188.986	-891.03
189.205	10461.76
189.424	354.13
189.644	319.48
189.863	184.68
190.082	128.56
190.302	184.99
190.521	183.77
190.74	173.55
190.959	208.33
191.178	148.76
191.398	187.48
191.617	169.78
191.836	794.92
192.055	282.99
192.274	415.33
192.494	379.52
192.713	142.34
192.932	98.69
193.151	113.88
193.37	104.16
193.589	124.97
193.808	121.64
194.027	153.54
194.246	124.75
194.465	140.55
194.685	125.36
194.904	137.73
195.123	176.63
195.342	253.9
195.561	216.52
195.78	170.35
195.999	162.62
196.218	163.85
196.436	156.81
196.655	164.62
196.874	157.75
197.093	192.71
197.312	253.07
197.531	270.85
197.75	394.03
197.969	383.87
198.188	-1092.52
198.407	-302.46
198.625	-498.23
198.844	-298.48
199.063	-2441.68
199.282	-292.29
199.501	-374
199.719	-582.96
199.938	-160.45
200.157	-474.89
200.376	-502.58
200.594	2966.96
200.813	1976.82
201.032	1386.85
201.251	1202.88
201.469	693.16
201.688	251.97
201.907	406.97
202.125	1316.18
202.344	354.59
202.563	449.23
202.781	355.64
203	220.84
203.218	250.52
203.437	285.07
203.656	277.04
203.874	389.09
204.093	456.02
204.311	158.86
204.53	143.19
204.748	133.62
204.967	106.16
205.185	137.54
205.404	129.09
205.622	159.49
205.841	151.8
206.059	198.78
206.278	152.48
206.496	253.82
206.715	346.15
206.933	300.15
207.151	245.68
207.37	328.6
207.588	282.55
207.806	299.47
208.025	205
208.243	91.6
208.461	136.85
208.68	123.26
208.898	107.7
209.116	-11.5
209.335	22.28
209.553	-175.32
209.771	-42.02
209.989	66.59
210.208	169.87
210.426	128.96
210.644	171.18
210.862	96.46
211.081	137.15
211.299	61.36
211.517	110.47
211.735	98.56
211.953	64.55
212.171	65.17
212.39	56.31
212.608	64.59
212.826	98.05
213.044	111.73
213.262	98.65
213.48	112.68
213.698	125.35
213.916	187.56
214.134	138.65
214.352	302.55
214.57	337.5
214.788	999.43
215.006	774.53
215.224	536.02
215.442	1067.75
215.66	420.12
215.878	629.93
216.096	661.49
216.314	487.96
216.532	785.77
216.75	885.23
216.968	-173.98
217.185	-20.62
217.403	493.32
217.621	209.64
217.839	-4.92
218.057	26.49
218.275	50.11
218.492	52.14
218.71	50.63
218.928	21.99
219.146	27.46
219.363	38.03
219.581	54.96
219.799	52.57
220.017	55.61
220.234	74.96
220.452	79.95
220.67	96.15
220.887	78.11
221.105	105.99
221.323	113.89
221.54	113.28
221.758	117.48
221.976	90.28
222.193	92.54
222.411	77.73
222.629	73.37
222.846	62.49
223.064	69.54
223.281	77.89
223.499	48.85
223.716	45.96
223.934	37.74
224.151	29.56
224.369	37.43
224.586	34.47
224.804	46.6
225.021	46.93
225.239	51.38
225.456	35.45
225.674	32.53
225.891	49.66
226.108	54.04
226.326	48.94
226.543	60.2
226.76	36.42
226.978	37.85
227.195	32.96
227.413	18.81
227.63	13.05
227.847	12.88
228.064	12.35
228.282	9.01
228.499	8.12
228.716	9.52
228.934	6.83
229.151	11.21
229.368	10.34
229.585	10.14
229.802	11.75
230.02	11.77
230.237	12.39
230.454	12.06
230.671	12.45
230.888	11.86
231.105	11.18
231.323	16.49
231.54	13.59
231.757	13.24
231.974	17.53
232.191	16.92
232.408	15.79
232.625	13.87
232.842	14.86
233.059	18.41
233.276	24.39
233.493	23.51
233.71	20.76
233.927	25.41
234.144	26.57
234.361	17.97
234.578	16.86
234.795	19.13
235.012	21.65
235.229	18.4
235.446	19.52
235.663	14.43
235.879	14.81
236.096	9.16
236.313	5.05
236.53	4.94
236.747	9.93
236.964	12.48
237.181	11.22
237.397	10.64
237.614	11.74
237.831	11.1
238.048	13.39
238.264	13.33
238.481	15.47
238.698	13.43
238.915	21.94
239.131	18.39
239.348	18.42
239.565	19.55
239.781	18.98
239.998	17.17
240.215	16.41
240.431	15.16
240.648	17.55
240.865	17.57
241.081	18.55
241.298	14.2
241.514	14.39
241.731	14.23
241.947	13.85
242.164	12.1
242.38	12.7
242.597	12.81
242.814	11.93
243.03	11.29
243.246	11.86
243.463	10.57
243.679	9.73
243.896	10.28
244.112	9.52
244.329	8.65
244.545	10.99
244.762	10.53
244.978	9.09
245.194	11.22
245.411	11.26
245.627	11.18
245.843	12.3
246.06	13.46
246.276	12.39
246.492	12.84
246.709	13.13
246.925	11.78
247.141	12.03
247.357	11.98
247.574	11.18
247.79	10.33
248.006	10.19
248.222	10.62
248.439	10.41
248.655	10.58
248.871	10.57
249.087	10.19
249.303	9.79
249.519	9.11
249.736	9.64
249.952	9.17
250.168	10.46
250.384	9.67
250.6	9.98
250.816	9.65
251.032	10
251.248	9.23
251.464	9.07
251.68	10.44
251.896	10.36
252.112	9.98
252.328	11.01
252.544	9.31
252.76	9.97
252.976	8.78
253.192	8.22
253.408	8.36
253.624	8.62
253.84	8.83
254.056	9.67
254.272	9.39
254.487	8.74
254.703	8.65
254.919	9.77
255.135	10.14
255.351	11.46
255.567	13.66
255.782	12.24
255.998	10.62
256.214	11.31
256.43	8.73
256.646	11.69
256.861	12.08
257.077	11.61
257.293	11.42
257.508	11.47
257.724	10.53
257.94	10.17
258.155	11.03
258.371	11.4
258.587	9.88
258.802	9.96
259.018	8.96
259.234	9.6
259.449	10.19
259.665	9.44
259.88	8.77
260.096	9.36
260.312	8.41
260.527	8.26
260.743	8.32
260.958	8.94
261.174	9.48
261.389	9.87
261.605	9.88
261.82	8.71
262.036	8.94
262.251	9.3
262.466	8.39
262.682	8.86
262.897	9.94
263.113	9.7
263.328	11.24
263.543	11.97
263.759	12.77
263.974	13.03
264.189	14.05
264.405	14.88
264.62	15.05
264.835	15.9
265.051	15.49
265.266	14.9
265.481	15.46
265.696	13.78
265.912	13.17
266.127	12.61
266.342	10.34
266.557	10.79
266.773	10.63
266.988	10.93
267.203	9.58
267.418	10.04
267.633	9.55
267.848	8.42
268.064	7.65
268.279	6.87
268.494	6.84
268.709	7.02
268.924	5.51
269.139	5.71
269.354	5.26
269.569	5.05
269.784	5.62
269.999	4.69
270.214	6.35
270.429	6.65
270.644	7.05
270.859	6.31
271.074	6.26
271.289	8.1
271.504	8.12
271.719	8.14
271.934	9.39
272.149	8.76
272.363	9.34
272.578	8.57
272.793	8.75
273.008	8.03
273.223	8.48
273.438	9.17
273.653	7.73
273.867	7.7
274.082	7.7
274.297	6.94
274.512	7.08
274.726	7.14
274.941	6.84
275.156	5.15
275.371	4.87
275.585	4.16
275.8	3.54
276.015	4.7
276.229	5.84
276.444	7.04
276.659	6.35
276.873	6.32
277.088	7.14
277.302	6.65
277.517	8.71
277.732	10.56
277.946	11.46
278.161	12.42
278.375	12.68
278.59	11.67
278.804	10.44
279.019	11.14
279.233	10.98
279.448	10.41
279.662	11.76
279.877	10.94
280.091	10.12
280.306	8.45
280.52	8.15
280.735	8.28
280.949	8.05
281.163	8.1
281.378	9.09
281.592	10.01
281.806	10.19
282.021	10.09
282.235	10.1
282.449	9.41
282.664	9.93
282.878	10.47
283.092	10.4
283.307	10.94
283.521	10.7
283.735	9.91
283.949	9.93
284.164	9.39
284.378	8.21
284.592	7.43
284.806	8.3
285.02	9.01
285.234	8.57
285.449	8.03
285.663	7.97
285.877	8.18
286.091	8.06
286.305	7.67
286.519	7.59
286.733	8.26
286.947	9.62
287.161	8.53
287.375	8.96
287.589	8.75
287.803	8.7
288.017	7.74
288.231	7.77
288.445	7.51
288.659	7.47
288.873	7.35
289.087	6.65
289.301	6.64
289.515	6.89
289.729	6.05
289.943	6.47
290.157	7.56
290.371	8.15
290.584	7.96
290.798	8.66
291.012	8.32
291.226	8.32
291.44	9.78
291.654	9.29
291.867	9.76
292.081	9.36
292.295	9.44
292.509	7.97
292.722	8.57
292.936	8.64
293.15	7.97
293.364	9.27
293.577	9.2
293.791	8.31
294.005	9.61
294.218	10.2
294.432	10.7
294.645	10.7
294.859	11.37
295.073	10.87
295.286	11.62
295.5	12.14
295.713	12.02
295.927	11.76
296.14	11.34
296.354	9.78
296.568	9.73
296.781	9.85
296.994	9.88
297.208	10.13
297.421	11.02
297.635	11.21
297.848	10.35
298.062	10.29
298.275	11.08
298.489	11.42
298.702	12.73
298.915	13.21
299.129	13.36
299.342	13.05
299.555	12.72
299.769	11.21
299.982	10.24
300.195	10.85
300.409	10.93
300.622	10.12
300.835	11.52
301.048	10.31
301.262	9.8
301.475	8.53
301.688	8.18
301.901	8.5
302.115	9.59
302.328	10.62
302.541	9.82
302.754	10.04
302.967	11.1
303.18	10.42
303.393	11.31
303.607	11.7
303.82	13.04
304.033	13.94
304.246	14.68
304.459	14.54
304.672	14.72
304.885	16.62
305.098	15.65
305.311	15.72
305.524	15.12
305.737	14.11
305.95	13.83
306.163	13.46
306.376	13.11
306.589	12.57
306.802	11.86
307.015	11.71
307.228	11.22
307.44	12.2
307.653	12
307.866	12.55
308.079	14.33
308.292	14.92
308.505	14.65
308.718	13.94
308.93	13.76
309.143	14.89
309.356	14.04
309.569	14.46
309.781	14.44
309.994	13.44
310.207	12.77
310.42	12.33
310.632	12.13
310.845	12.89
311.058	14.02
311.27	13.68
311.483	13.4
311.696	13.79
311.908	13.62
312.121	13.05
312.333	13.17
312.546	13.53
312.759	12.77
312.971	12.47
313.184	11.65
313.396	11.13
313.609	11.4
313.821	11.4
314.034	11.47
314.246	10.48
314.459	10.35
314.671	11.61
314.884	11.9
315.096	12.21
315.309	12.2
315.521	12.63
315.733	12.34
315.946	13.42
316.158	14.27
316.371	14.7
316.583	15.93
316.795	14.64
317.008	13.94
317.22	13.46
317.432	13.76
317.644	13.93
317.857	14.1
318.069	14.35
318.281	12.91
318.494	12.03
318.706	11.31
318.918	10.67
319.13	12.36
319.342	11.82
319.555	11.84
319.767	11.42
319.979	11.5
320.191	12.13
320.403	13.1
320.615	14.03
320.827	14.14
321.039	13.59
321.252	14.13
321.464	15.8
321.676	16.57
321.888	16.19
322.1	16.8
322.312	16.08
322.524	16.01
322.736	15.27
322.948	15.73
323.16	15.64
323.372	15.84
323.584	14.46
323.796	13.51
324.007	13.62
324.219	14.24
324.431	14.35
324.643	14.7
324.855	14.76
325.067	14.88
325.279	14.43
325.491	15.19
325.702	15.72
325.914	15.59
326.126	16.42
326.338	17.22
326.55	17.14
326.761	17.22
326.973	16.95
327.185	16.87
327.396	16.93
327.608	16.95
327.82	16.46
328.032	16.54
328.243	17.61
328.455	17.17
328.666	16.94
328.878	17.58
329.09	17.8
329.301	19.08
329.513	19.12
329.725	18.79
329.936	18.76
330.148	18.86
330.359	19.21
330.571	20.12
330.782	19.72
330.994	19.47
331.205	19.28
331.417	19.58
331.628	19.76
331.84	20.43
332.051	21.22
332.262	22.26
332.474	23.43
332.685	23.38
332.897	22.61
333.108	22.28
333.319	22.54
333.531	22.2
333.742	21.7
333.953	21.88
334.165	22.09
334.376	22.53
334.587	22.14
334.799	21.04
335.01	20.5
335.221	20.59
335.432	21.97
335.644	21.38
335.855	20.78
336.066	21.76
336.277	20.98
336.488	20.46
336.7	20.07
336.911	19.3
337.122	19.89
337.333	20.58
337.544	20.28
337.755	19.65
337.966	19.19
338.177	19.55
338.388	19.02
338.599	19.14
338.811	19.55
339.022	19.31
339.233	19.13
339.444	19.18
339.655	19.09
339.866	19.6
340.076	19.98
340.287	21.15
340.498	21.64
340.709	21.39
340.92	20.58
341.131	19.78
341.342	20
341.553	20.8
341.764	20.03
341.975	19.92
342.185	20.38
342.396	20.24
342.607	20.16
342.818	19.98
343.029	20.33
343.239	20.99
343.45	20.58
343.661	20.18
343.872	20.48
344.082	20.51
344.293	20.96
344.504	21.08
344.714	20.6
344.925	20.35
345.136	19.86
345.346	18.25
345.557	18.53
345.768	19.23
345.978	20.42
346.189	19.2
346.399	19.5
346.61	18.76
346.821	18.56
347.031	19.26
347.242	19.56
347.452	20.83
347.663	22.07
347.873	22.79
348.084	22.3
348.294	21.51
348.504	22.2
348.715	22.33
348.925	22.65
349.136	22.58
349.346	21.68
349.557	22.2
349.767	21.44
349.977	21.88
350.188	20.24
350.398	20.29
350.608	20.22
350.819	19.94
351.029	19.15
351.239	19.34
351.449	18.89
351.66	18.92
351.87	18.07
352.08	17.56
352.29	17.61
352.501	18.57
352.711	18.82
352.921	19.11
353.131	19.26
353.341	19.17
353.552	18.71
353.762	18.38
353.972	19.22
354.182	19.21
354.392	19.89
354.602	19.12
354.812	18.83
355.022	18.66
355.232	18.29
355.442	18.43
355.652	18.83
355.862	19.19
356.072	19.08
356.282	19.21
356.492	19.19
356.702	18.86
356.912	18.78
357.122	19.19
357.332	19.07
357.542	18.82
357.752	18.77
357.962	19.18
358.171	19.37
358.381	20.14
358.591	19.3
358.801	19.32
359.011	20.16
359.221	20.72
359.43	20.18
359.64	20.45
359.85	21
360.06	21.34
360.269	21.31
360.479	21.16
360.689	20.99
360.899	21.12
361.108	20.84
361.318	20.36
361.528	20.32
361.737	20.42
361.947	20.2
362.156	19.91
362.366	19.91
362.576	19.59
362.785	19.11
362.995	18.44
363.204	18.51
363.414	18.76
363.623	18.81
363.833	18.67
364.042	19.13
364.252	19.38
364.461	19.04
364.671	18.7
364.88	18.8
365.09	19.32
365.299	20.11
365.509	20.45
365.718	19.88
365.927	19.8
366.137	19.84
366.346	20.11
366.555	19.7
366.765	20.13
366.974	20.14
367.183	20.11
367.393	19.21
367.602	19.64
367.811	19.86
368.021	20.61
368.23	20.31
368.439	19.6
368.648	18.61
368.857	19.46
369.067	18.96
369.276	19.14
369.485	19.07
369.694	19.48
369.903	18.81
370.112	18.13
370.321	17.59
370.531	17.77
370.74	18.5
370.949	18.78
371.158	18
371.367	17.95
371.576	17.65
371.785	17.53
371.994	17.55
372.203	17.68
372.412	17.79
372.621	17.8
372.83	18.01
373.039	17.82
373.248	18.12
373.457	18.57
373.666	18.91
373.874	18.89
374.083	18.62
374.292	18.9
374.501	18.66
374.71	19.24
374.919	19.41
375.128	19.51
375.336	19.7
375.545	19.69
375.754	19.03
375.963	18.94
376.171	18.79
376.38	19.46
376.589	19.05
376.798	18.54
377.006	17.82
377.215	17.68
377.424	17.27
377.632	17.11
377.841	16.69
378.05	17.17
378.258	17.15
378.467	17.49
378.675	17.07
378.884	17.4
379.093	18.29
379.301	18.71
379.51	18.73
379.718	19.01
379.927	19.01
380.135	19.13
380.344	18.94
380.552	19.62
380.761	19.38
380.969	19.6
381.177	19.3
381.386	18.87
381.594	18.47
381.803	18.22
382.011	17.82
382.219	17.77
382.428	17.76
382.636	17.75
382.845	17.03
383.053	17.16
383.261	16.68
383.469	16.98
383.678	16.87
383.886	16.83
384.094	17.2
384.302	17.61
384.511	17.29
384.719	17.38
384.927	17.52
385.135	17.47
385.343	17.23
385.552	17.64
385.76	17.52
385.968	17.44
386.176	17.46
386.384	17.36
386.592	17.04
386.8	17.49
387.008	17.25
387.216	17.06
387.424	17.12
387.633	17.37
387.841	17.24
388.049	17.35
388.257	17.66
388.465	17.66
388.672	17.44
388.88	17.25
389.088	16.78
389.296	17.02
389.504	17.01
389.712	17.13
389.92	16.74
390.128	16.82
390.336	16.59
390.544	16.24
390.751	16.32
390.959	16.58
391.167	16.75
391.375	16.97
391.583	16.55
391.79	16.41
391.998	16.43
392.206	16.88
392.414	16.88
392.621	17.01
392.829	17.09
393.037	17.11
393.244	17.13
393.452	17.01
393.66	16.85
393.867	17.21
394.075	17.44
394.283	17.28
394.49	16.92
394.698	16.95
394.905	16.97
395.113	17.02
395.32	17.33
395.528	17.24
395.735	17.54
395.943	17.55
396.15	17.2
396.358	17.12
396.565	17.33
396.773	17.41
396.98	17.47
397.188	17.5
397.395	17.54
397.602	17.2
397.81	17.13
398.017	17.03
398.225	17.27
398.432	17.53
398.639	17.42
398.847	17.31
399.054	17.22
399.261	17.02
399.468	17
399.676	16.84
399.883	16.72
400.09	16.7
400.297	16.77
400.505	17.04
400.712	17.22
400.919	17.5
401.126	17.48
401.333	17.65
401.54	17.82
401.748	17.88
401.955	18.12
402.162	18.09
402.369	18.16
402.576	18.25
402.783	17.97
402.99	17.86
403.197	17.73
403.404	17.77
403.611	17.84
403.818	17.64
404.025	17.85
404.232	17.64
404.439	17.87
404.646	17.85
404.853	17.73
405.06	17.64
405.267	17.68
405.474	17.57
405.681	17.39
405.887	17.4
406.094	17.21
406.301	16.89
406.508	16.94
406.715	16.74
406.922	16.68
407.128	16.58
407.335	16.68
407.542	16.79
407.749	16.83
407.955	16.85
408.162	16.7
408.369	17.09
408.575	17.31
408.782	17.41
408.989	17.46
409.195	17.46
409.402	17.77
409.609	17.61
409.815	17.15
410.022	17.23
410.228	17.6
410.435	17.82
410.642	17.9
410.848	17.79
411.055	17.93
411.261	17.95
411.468	17.75
411.674	17.52
411.881	17.7
412.087	17.82
412.294	17.89
412.5	17.42
412.706	17.17
412.913	17.17
413.119	16.98
413.326	16.56
413.532	16.78
413.738	16.89
413.945	16.84
414.151	16.89
414.357	17.01
414.564	16.88
414.77	17.31
414.976	17.35
415.182	17.02
415.389	16.98
415.595	16.88
415.801	16.5
416.007	16.51
416.214	16.6
416.42	16.37
416.626	16.14
416.832	16.4
417.038	16.23
417.244	16.03
417.45	16.19
417.657	16.29
417.863	16.54
418.069	16.78
418.275	16.84
418.481	16.72
418.687	16.76
418.893	16.93
419.099	16.62
419.305	16.65
419.511	16.75
419.717	16.53
419.923	16.47
420.129	16.39
420.335	16.23
420.541	16.15
420.746	16.04
420.952	16.05
421.158	15.87
421.364	15.85
421.57	15.69
421.776	15.73
421.982	15.78
422.187	15.8
422.393	15.68
422.599	15.58
422.805	15.57
423.01	15.55
423.216	15.32
423.422	15.29
423.628	15.29
423.833	15.29
424.039	15.22
424.245	15.33
424.45	15.44
424.656	15.56
424.862	15.61
425.067	15.46
425.273	15.44
425.478	15.59
425.684	15.86
425.889	16.01
426.095	16.07
426.301	16.02
426.506	16
426.712	15.77
426.917	15.82
427.123	15.83
427.328	16.05
427.533	16.28
427.739	16.4
427.944	16.25
428.15	16.17
428.355	16.17
428.561	16.21
428.766	16.18
428.971	16.29
429.177	16.27
429.382	16.38
429.587	16.36
429.793	16.26
429.998	16.17
430.203	16.11
430.408	16.06
430.614	16.26
430.819	16.35
431.024	16.15
431.229	15.99
431.434	15.83
431.64	15.58
431.845	15.8
432.05	15.88
432.255	15.8
432.46	15.73
432.665	15.8
432.87	15.62
433.076	15.53
433.281	15.52
433.486	15.74
433.691	15.71
433.896	15.79
434.101	15.47
434.306	15.38
434.511	15.44
434.716	15.53
434.921	15.43
435.126	15.54
435.331	15.48
435.535	15.55
435.74	15.28
435.945	15.48
436.15	15.4
436.355	15.64
436.56	15.69
436.765	15.75
436.97	15.65
437.174	15.75
437.379	15.55
437.584	15.64
437.789	15.83
437.993	15.88
438.198	15.71
438.403	15.66
438.608	15.63
438.812	15.59
439.017	15.49
439.222	15.54
439.426	15.26
439.631	15.35
439.836	15.47
440.04	15.36
440.245	15.39
440.45	15.4
440.654	15.5
440.859	15.4
441.063	15.48
441.268	15.52
441.472	15.37
441.677	15.45
441.881	15.5
442.086	15.27
442.29	15.24
442.495	15.24
442.699	15.22
442.904	15.22
443.108	15.35
443.312	15.23
443.517	15.08
443.721	15.3
443.925	15.41
444.13	15.39
444.334	15.56
444.538	15.7
444.743	15.75
444.947	15.77
445.151	15.77
445.356	15.8
445.56	15.78
445.764	15.78
445.968	15.73
446.173	15.77
446.377	15.72
446.581	15.59
446.785	15.38
446.989	15.35
447.193	15.18
447.398	15.13
447.602	14.93
447.806	14.91
448.01	14.98
448.214	15.03
448.418	14.89
448.622	14.85
448.826	14.97
449.03	15.1
449.234	15.03
449.438	15.13
449.642	15.12
449.846	15.23
450.05	15.28
450.254	15.36
450.458	15.13
450.662	15.19
450.866	15.14
451.069	14.98
451.273	14.86
451.477	14.89
451.681	14.92
451.885	15.07
452.089	15.14
452.292	15.09
452.496	14.89
452.7	14.73
452.904	14.7
453.107	14.76
453.311	14.92
453.515	14.89
453.719	14.94
453.922	14.98
454.126	14.73
454.33	14.69
454.533	14.61
454.737	14.62
454.94	14.87
455.144	14.98
455.348	14.92
455.551	14.82
455.755	14.95
455.958	14.94
456.162	14.87
456.365	15.01
456.569	14.99
456.772	15.1
456.976	15.17
457.179	15.31
457.383	15.25
457.586	15.25
457.79	15.27
457.993	15.11
458.196	15.07
458.4	15.16
458.603	15.2
458.807	15.3
459.01	15.25
459.213	15.24
459.417	15.13
459.62	15.08
459.823	15.05
460.026	15
460.23	15.02
460.433	15
460.636	15.01
460.839	14.9
461.042	14.88
461.246	14.9
461.449	14.86
461.652	14.82
461.855	14.87
462.058	14.9
462.261	14.97
462.464	15.06
462.668	15.07
462.871	15.2
463.074	15.24
463.277	15.09
463.48	15.09
463.683	15.24
463.886	15.32
464.089	15.24
464.292	15.24
464.495	15.39
464.698	15.24
464.901	15.16
465.104	15.04
465.306	15.12
465.509	15.14
465.712	15.13
465.915	15.05
466.118	15.05
466.321	15.07
466.524	15.17
466.726	14.9
466.929	15.03
467.132	15.13
467.335	15.16
467.538	15.01
467.74	14.97
467.943	14.97
468.146	14.95
468.348	15.02
468.551	15.06
468.754	15.11
468.956	15.33
469.159	15.44
469.362	15.47
469.564	15.41
469.767	15.57
469.969	15.49
470.172	15.72
470.375	15.64
470.577	15.66
470.78	15.85
470.982	15.89
471.185	15.82
471.387	15.51
471.59	15.59
471.792	15.58
471.995	15.44
472.197	15.6
472.399	15.4
472.602	15.55
472.804	15.36
473.007	15.1
473.209	14.79
473.411	14.86
473.614	15.01
473.816	14.97
474.018	14.86
474.22	14.95
474.423	14.83
474.625	14.8
474.827	14.74
475.03	14.93
475.232	15.05
475.434	15.35
475.636	15.08
475.838	15.24
476.04	15.06
476.243	15.19
476.445	15.22
476.647	15.25
476.849	15.35
477.051	15.33
477.253	15.32
477.455	15.37
477.657	15.23
477.859	15.15
478.061	14.96
478.263	15.06
478.465	14.97
478.667	14.94
478.869	15.1
479.071	14.93
479.273	14.83
479.475	14.77
479.677	14.75
479.879	14.83
480.081	14.95
480.283	15.15
480.485	15
480.686	15.05
480.888	15.03
481.09	14.83
481.292	15.01
481.494	15.12
481.695	15.16
481.897	15.09
482.099	15.05
482.301	15.09
482.502	14.95
482.704	15.01
482.906	14.98
483.107	15.01
483.309	15.08
483.511	14.98
483.712	14.91
483.914	14.82
484.115	14.84
484.317	14.83
484.519	14.8
484.72	14.83
484.922	14.83
485.123	14.85
485.325	14.83
485.526	14.8
485.728	14.83
485.929	14.91
486.131	14.93
486.332	14.92
486.534	14.91
486.735	14.95
486.936	14.97
487.138	14.96
487.339	15
487.541	15.02
487.742	15.04
487.943	15.08
488.144	15
488.346	15.1
488.547	15.09
488.748	15.13
488.95	15.15
489.151	15.14
489.352	15.14
489.553	15.21
489.755	15.15
489.956	15.18
490.157	15.15
490.358	15.17
490.559	15.08
490.76	15.09
490.961	15.03
491.163	15.02
491.364	15.04
491.565	15.09
491.766	15.01
491.967	15.11
492.168	15.04
492.369	15.07
492.57	15.09
492.771	15.14
492.972	15.12
493.173	15.2
493.374	15.23
493.575	15.23
493.776	15.15
493.976	15.08
494.177	15.02
494.378	15.11
494.579	15.11
494.78	15.06
494.981	14.94
495.182	15.05
495.382	15
495.583	14.94
495.784	14.83
495.985	14.95
496.185	15.02
496.386	14.99
496.587	14.97
496.788	14.9
496.988	15
497.189	15
497.39	15.14
497.59	15.15
497.791	15.22
497.992	15.24
498.192	15.24
498.393	15.32
498.593	15.48
498.794	15.47
498.994	15.54
499.195	15.6
499.395	15.76
499.596	15.54
499.796	15.53
499.997	15.41
500.197	15.6
500.398	15.66
500.598	15.57
500.799	15.36
500.999	15.25
501.199	15.19
501.4	15.14
501.6	15.08
501.801	15.06
502.001	15.05
502.201	15.19
502.402	15.23
502.602	15.18
502.802	15.28
503.002	15.41
503.203	15.62
503.403	15.65
503.603	15.68
503.803	15.73
504.003	15.82
504.204	15.83
504.404	15.79
504.604	15.68
504.804	15.93
505.004	15.82
505.204	15.86
505.404	15.81
505.604	15.91
505.804	15.99
506.005	15.95
506.205	16.01
506.405	16.03
506.605	16.09
506.805	16.07
507.005	15.92
507.204	16.17
507.404	16.24
507.604	16.31
507.804	16.28
508.004	16.39
508.204	16.48
508.404	16.4
508.604	16.54
508.804	16.46
509.003	16.5
509.203	16.38
509.403	16.18
509.603	16.13
509.803	16.22
510.002	16.1
510.202	15.82
510.402	15.91
510.602	16.07
510.801	15.98
511.001	16.07
511.201	16.18
511.4	16.33
511.6	16.42
511.8	16.38
511.999	16.34
512.199	16.59
512.398	16.67
512.598	16.61
512.797	16.61
512.997	16.63
513.197	16.63
513.396	16.51
513.596	16.4
513.795	16.43
513.994	16.52
514.194	16.59
514.393	16.51
514.593	16.61
514.792	16.63
514.992	16.52
515.191	16.63
515.39	16.76
515.59	16.91
515.789	17.02
515.988	17.06
516.188	17.13
516.387	17.1
516.586	17.17
516.786	17.16
516.985	17.15
517.184	17.19
517.383	17.22
517.582	17.2
517.782	17.14
517.981	17.15
518.18	17.12
518.379	17.11
518.578	17.13
518.777	17.12
518.976	17.16
519.176	17.33
519.375	17.45
519.574	17.48
519.773	17.49
519.972	17.63
520.171	17.64
520.37	17.7
520.569	17.77
520.768	17.83
520.967	17.95
521.166	18.03
521.365	18.11
521.564	18.04
521.762	18.04
521.961	18.05
522.16	17.94
522.359	18.09
522.558	18.17
522.757	18.12
522.956	18.06
523.154	17.98
523.353	18.06
523.552	18.03
523.751	18.18
523.949	18.18
524.148	18.19
524.347	18.47
524.546	18.47
524.744	18.65
524.943	18.81
525.142	18.9
525.34	18.95
525.539	18.99
525.737	18.86
525.936	18.91
526.135	18.94
526.333	19.03
526.532	18.96
526.73	18.97
526.929	18.87
527.127	18.84
527.326	18.83
527.524	18.93
527.723	18.95
527.921	19.05
528.12	19.03
528.318	19.06
528.516	19.07
528.715	19.13
528.913	19.18
529.112	19.23
529.31	19.31
529.508	19.36
529.707	19.3
529.905	19.34
530.103	19.41
530.301	19.41
530.5	19.47
530.698	19.49
530.896	19.5
531.094	19.53
531.293	19.55
531.491	19.55
531.689	19.62
531.887	19.75
532.085	19.76
532.283	19.68
532.481	19.77
532.68	19.76
532.878	19.86
533.076	19.89
533.274	19.91
533.472	19.95
533.67	19.96
533.868	19.88
534.066	19.93
534.264	19.92
534.462	20.01
534.66	20.16
534.858	20.22
535.056	20.27
535.253	20.35
535.451	20.43
535.649	20.53
535.847	20.57
536.045	20.75
536.243	20.81
536.441	20.95
536.638	21.01
536.836	20.97
537.034	21
537.232	21.06
537.43	20.98
537.627	20.99
537.825	21.03
538.023	21.06
538.22	21.18
538.418	21.12
538.616	21.02
538.813	21.06
539.011	21.15
539.209	21.34
539.406	21.46
539.604	21.57
539.801	21.76
539.999	21.78
540.196	21.87
540.394	21.77
540.591	21.82
540.789	21.92
540.986	21.91
541.184	21.96
541.381	21.9
541.579	21.87
541.776	21.89
541.974	21.88
542.171	21.89
542.368	21.91
542.566	22.04
542.763	22.11
542.96	22.12
543.158	22.25
543.355	22.28
543.552	22.49
543.75	22.54
543.947	22.63
544.144	22.59
544.341	22.68
544.539	22.73
544.736	22.82
544.933	22.83
545.13	22.97
545.327	22.97
545.524	22.95
545.722	22.88
545.919	23.01
546.116	23.06
546.313	23.19
546.51	23.22
546.707	23.19
546.904	23.17
547.101	23.36
547.298	23.4
547.495	23.42
547.692	23.51
547.889	23.59
548.086	23.6
548.283	23.72
548.48	23.85
548.677	23.91
548.874	24.2
549.07	24.31
549.267	24.22
549.464	24.44
549.661	24.48
549.858	24.67
550.055	24.47
550.251	24.66
550.448	24.78
550.645	24.94
550.842	25.13
551.038	25.06
551.235	25.22
551.432	25.42
551.628	25.36
551.825	25.53
552.022	25.48
552.218	25.77
552.415	25.69
552.612	25.68
552.808	25.68
553.005	25.82
553.201	25.93
553.398	25.95
553.594	25.96
553.791	25.91
553.987	26.02
554.184	26.09
554.38	26.07
554.577	26.15
554.773	26.28
554.97	26.39
555.166	26.31
555.362	26.22
555.559	26.18
555.755	26.13
555.952	26.42
556.148	26.17
556.344	26.3
556.541	26.43
556.737	26.34
556.933	26.45
557.129	26.43
557.326	26.43
557.522	26.58
557.718	26.65
557.914	26.92
558.11	26.85
558.307	27.18
558.503	27
558.699	27.03
558.895	27.1
559.091	26.95
559.287	27.14
559.483	27.18
559.679	27.21
559.876	27.39
560.072	27.46
560.268	27.55
560.464	27.55
560.66	28.03
560.856	28.17
561.052	28.25
561.247	28.48
561.443	28.39
561.639	28.32
561.835	28.47
562.031	28.44
562.227	28.37
562.423	28.63
562.619	28.83
562.815	28.82
563.01	28.94
563.206	29.12
563.402	28.93
563.598	29.14
563.793	29.57
563.989	29.65
564.185	29.63
564.381	29.72
564.576	29.66
564.772	29.79
564.968	29.64
565.163	29.67
565.359	29.73
565.555	29.99
565.75	30.03
565.946	30.08
566.141	30.15
566.337	30.31
566.532	30.4
566.728	30.54
566.923	30.59
567.119	30.8
567.314	30.82
567.51	30.94
567.705	30.98
567.901	30.94
568.096	30.9
568.292	30.91
568.487	30.87
568.682	31.06
568.878	30.96
569.073	30.81
569.268	30.69
569.464	30.73
569.659	30.79
569.854	30.92
570.05	30.99
570.245	31.03
570.44	31.16
570.635	31.16
570.831	31.08
571.026	31.15
571.221	31.36
571.416	31.66
571.611	31.86
571.806	31.73
572.002	31.73
572.197	31.81
572.392	32.02
572.587	32.07
572.782	32.19
572.977	32.21
573.172	32.32
573.367	32.28
573.562	32.15
573.757	32.12
573.952	32.28
574.147	32.39
574.342	32.51
574.537	32.32
574.732	32.43
574.927	32.45
575.121	32.45
575.316	32.5
575.511	32.54
575.706	32.65
575.901	32.74
576.096	32.94
576.29	32.98
576.485	32.99
576.68	32.97
576.875	32.85
577.069	32.75
577.264	32.92
577.459	33.1
577.654	33.23
577.848	33.18
578.043	33.19
578.238	33.22
578.432	33.04
578.627	33.07
578.821	33.32
579.016	33.38
579.21	33.59
579.405	33.7
579.6	33.47
579.794	33.62
579.989	33.7
580.183	33.94
580.378	33.96
580.572	34.3
580.766	34.4
580.961	34.24
581.155	34.33
581.35	34.49
581.544	34.56
581.738	34.69
581.933	34.66
582.127	34.79
582.321	34.61
582.516	34.89
582.71	34.8
582.904	34.67
583.099	34.93
583.293	34.98
583.487	34.97
583.681	35.1
583.875	35.17
584.07	35.34
584.264	35.28
584.458	35.39
584.652	35.15
584.846	35.22
585.04	35.44
585.234	35.36
585.428	35.47
585.623	35.59
585.817	35.33
586.011	35.22
586.205	35.19
586.399	35.39
586.593	35.31
586.787	35.26
586.981	35.13
587.174	34.78
587.368	34.79
587.562	34.8
587.756	34.72
587.95	34.76
588.144	34.87
588.338	34.79
588.532	34.88
588.725	34.99
588.919	35.21
589.113	35.65
589.307	35.89
589.501	35.9
589.694	35.8
589.888	36
590.082	36.21
590.275	36.11
590.469	36.11
590.663	36.16
590.856	36.08
591.05	35.88
591.244	35.65
591.437	35.66
591.631	35.97
591.824	36
592.018	35.66
592.212	35.58
592.405	35.74
592.599	35.79
592.792	35.8
592.986	35.96
593.179	36.21
593.372	36.31
593.566	36.41
593.759	36.3
593.953	36.48
594.146	36.77
594.339	37
594.533	36.91
594.726	36.87
594.92	36.7
595.113	36.68
595.306	36.69
595.499	36.56
595.693	36.75
595.886	36.92
596.079	36.92
596.272	36.9
596.466	36.82
596.659	36.85
596.852	36.8
597.045	36.74
597.238	36.64
597.431	36.62
597.624	36.69
597.818	36.65
598.011	36.4
598.204	36.31
598.397	36.45
598.59	36.39
598.783	36.42
598.976	36.36
599.169	36.56
599.362	36.48
599.555	36.28
599.748	36.54
599.941	36.15
600.134	36.6
600.326	36.57
600.519	36.53
600.712	36.49
600.905	36.66
601.098	36.98
601.291	36.79
601.483	37.06
601.676	37.27
601.869	36.99
602.062	37.23
602.255	37.03
602.447	37.18
602.64	36.98
602.833	36.91
603.025	36.9
603.218	36.82
603.411	36.86
603.603	36.75
603.796	36.59
603.989	36.49
604.181	36.53
604.374	36.63
604.566	36.73
604.759	36.64
604.951	36.77
605.144	36.86
605.336	36.82
605.529	36.82
605.721	36.97
605.914	37.11
606.106	37.16
606.299	37.28
606.491	37.08
606.683	36.95
606.876	37.44
607.068	37.48
607.26	37.18
607.453	37.28
607.645	37.2
607.837	37.12
608.03	37.19
608.222	37.4
608.414	37.21
608.606	37.42
608.799	37.59
608.991	37.55
609.183	37.51
609.375	37.55
609.567	37.54
609.759	37.5
609.952	37.64
610.144	37.61
610.336	37.65
610.528	37.69
610.72	37.64
610.912	37.63
611.104	37.5
611.296	37.51
611.488	37.71
611.68	37.75
611.872	37.92
612.064	37.87
612.256	37.83
612.448	37.76
612.64	37.9
612.832	38.07
613.023	37.94
613.215	38.04
613.407	38.18
613.599	38.09
613.791	37.95
613.983	37.98
614.174	37.87
614.366	37.96
614.558	37.89
614.75	37.94
614.941	37.88
615.133	37.9
615.325	37.85
615.516	37.84
615.708	37.98
615.9	37.99
616.091	38.06
616.283	38.22
616.475	38.25
616.666	38.53
616.858	38.51
617.049	38.21
617.241	38.43
617.432	38.47
617.624	38.41
617.815	38.51
618.007	38.46
618.198	38.52
618.39	38.19
618.581	38.28
618.773	38.12
618.964	37.9
619.155	38.07
619.347	37.62
619.538	37.62
619.729	37.77
619.921	37.92
620.112	38.22
620.303	38.47
620.494	38.62
620.686	38.31
620.877	38.17
621.068	38.3
621.259	38.23
621.451	38.94
621.642	39.11
621.833	39.08
622.024	38.72
622.215	38.6
622.406	38.34
622.597	38.38
622.788	38.51
622.98	38.42
623.171	38.54
623.362	38.74
623.553	38.39
623.744	38.44
623.935	38.37
624.126	38.59
624.317	38.83
624.508	38.81
624.698	38.85
624.889	38.83
625.08	39.23
625.271	39.45
625.462	39.22
625.653	39.04
625.844	38.81
626.034	38.83
626.225	38.66
626.416	38.6
626.607	38.63
626.798	38.52
626.988	38.59
627.179	38.4
627.37	38.17
627.56	38.23
627.751	38.61
627.942	38.79
628.132	38.83
628.323	38.74
628.514	38.77
628.704	38.9
628.895	39.03
629.085	39.23
629.276	39.3
629.466	39.4
629.657	39.34
629.847	39.11
630.038	38.91
630.228	38.9
630.419	38.96
630.609	38.91
630.8	39.03
630.99	39.22
631.181	39.16
631.371	38.97
631.561	38.86
631.752	38.99
631.942	39.25
632.132	39.24
632.323	38.95
632.513	39.11
632.703	39.12
632.893	38.84
633.084	38.81
633.274	38.97
633.464	39.3
633.654	39.5
633.844	39.53
634.034	39.2
634.225	38.98
634.415	39.33
634.605	39.11
634.795	39.33
634.985	39.24
635.175	39.01
635.365	38.79
635.555	38.72
635.745	38.85
635.935	39.05
636.125	39.38
636.315	39.87
636.505	39.85
636.695	40.07
636.885	39.94
637.075	40.21
637.265	40.67
637.455	40.73
637.644	40.74
637.834	40.55
638.024	40.36
638.214	40.25
638.404	40.39
638.593	40.29
638.783	40.65
638.973	40.86
639.163	41.11
639.352	41.03
639.542	40.89
639.732	41.05
639.921	40.97
640.111	41.08
640.301	41.2
640.49	40.91
640.68	40.59
640.87	40.5
641.059	40.31
641.249	40.01
641.438	39.87
641.628	39.64
641.817	39.67
642.007	39.81
642.196	39.7
642.386	39.39
642.575	39.51
642.764	40.13
642.954	40
643.143	40.27
643.333	40.31
643.522	40.3
643.711	40.67
643.901	40.16
644.09	40.36
644.279	40.57
644.469	40.6
644.658	40.79
644.847	40.73
645.036	40.41
645.226	40.32
645.415	39.96
645.604	39.73
645.793	39.87
645.982	40.04
646.171	39.58
646.361	39.36
646.55	39.31
646.739	39.14
646.928	39.08
647.117	39.44
647.306	39.33
647.495	39.69
647.684	39.88
647.873	39.91
648.062	40.21
648.251	40.61
648.44	40.41
648.629	40.44
648.818	40.69
649.007	40.49
649.196	40.5
649.384	40.44
649.573	40.28
649.762	40.39
649.951	40.51
650.14	40.03
650.328	39.97
650.517	40.28
650.706	40.33
650.895	39.95
651.083	40.04
651.272	39.55
651.461	39.54
651.65	39.73
651.838	39.79
652.027	39.8
652.216	40.08
652.404	39.81
652.593	39.61
652.781	39.47
652.97	39.59
653.158	39.71
653.347	40.12
653.535	39.97
653.724	39.78
653.912	40.05
654.101	39.88
654.289	39.88
654.478	40.01
654.666	40
654.855	40.15
655.043	40.06
655.231	40.02
655.42	39.89
655.608	40.15
655.796	40.39
655.985	40.11
656.173	40.42
656.361	40.68
656.55	40.47
656.738	40.68
656.926	40.77
657.114	41.12
657.302	40.78
657.491	40.9
657.679	40.5
657.867	40.36
658.055	40.37
658.243	40.35
658.431	39.98
658.619	40.17
658.807	40.12
658.996	40.4
659.184	40.09
659.372	40.17
659.56	40.01
659.748	40.18
659.936	40.28
660.124	40.26
660.311	40.24
660.499	40.19
660.687	40.37
660.875	40.58
661.063	40.21
661.251	40.1
661.439	40.03
661.627	40.28
661.814	40.27
662.002	40.17
662.19	40.33
662.378	39.84
662.565	40.03
662.753	39.85
662.941	40.02
663.129	39.79
663.316	40.03
663.504	40.3
663.692	40.15
663.879	40.4
664.067	40.54
664.254	40.47
664.442	40.95
664.63	41.07
664.817	41.12
665.005	40.57
665.192	40.94
665.38	40.57
665.567	41.03
665.755	41.1
665.942	41.02
666.13	40.93
666.317	40.81
666.504	40.38
666.692	40.3
666.879	40.48
667.067	40.72
667.254	40.8
667.441	41.29
667.629	40.97
667.816	40.8
668.003	40.58
668.19	40.97
668.378	40.75
668.565	40.9
668.752	40.83
668.939	40.56
669.127	40.57
669.314	40.79
669.501	40.48
669.688	40.56
669.875	40.54
670.062	40.68
670.249	40.47
670.436	40.62
670.623	40.82
670.81	40.61
670.997	40.84
671.184	40.8
671.371	41.01
671.558	41.01
671.745	40.77
671.932	41.11
672.119	40.95
672.306	41
672.493	41.04
672.68	41.16
672.867	41.85
673.054	41.94
673.24	41.98
673.427	41.81
673.614	42.39
673.801	42.81
673.988	43.17
674.174	43.6
674.361	43.12
674.548	43.28
674.734	43.08
674.921	42.92
675.108	42.98
675.294	42.83
675.481	42.67
675.668	41.92
675.854	41.54
676.041	41.03
676.227	41.01
676.414	41.69
676.601	41.94
676.787	42.08
676.974	41.83
677.16	41.49
677.347	41.49
677.533	41.12
677.719	41.43
677.906	41.56
678.092	41.59
678.279	41.65
678.465	41.4
678.651	41.08
678.838	40.88
679.024	41.24
679.21	41.25
679.397	41.36
679.583	41.8
679.769	42
679.955	41.88
680.142	42.01
680.328	41.9
680.514	41.59
680.7	41.69
680.886	41.56
681.073	40.99
681.259	41.08
681.445	40.47
681.631	40.46
681.817	40.32
682.003	40.2
682.189	40.31
682.375	40.22
682.561	40.49
682.747	40.37
682.933	40.74
683.119	41.06
683.305	41.02
683.491	41.6
683.677	41.58
683.863	41.6
684.049	42
684.235	41.78
684.42	42.19
684.606	42.27
684.792	42.7
684.978	42.84
685.164	42.88
685.349	43.16
685.535	43.13
685.721	42.68
685.907	42.6
686.092	42.6
686.278	42.58
686.464	42.34
686.649	42.31
686.835	41.98
687.021	41.79
687.206	41.29
687.392	41.2
687.577	41.5
687.763	41.75
687.948	41.9
688.134	41.38
688.319	41
688.505	40.87
688.69	41
688.876	40.8
689.061	40.7
689.247	41.33
689.432	41.3
689.618	41.01
689.803	41.48
689.988	41.67
690.174	41.91
690.359	41.93
690.544	42.06
690.73	41.92
690.915	42.04
691.1	41.83
691.285	42.41
691.471	42.59
691.656	42.73
691.841	42.44
692.026	41.88
692.211	41.79
692.396	42
692.582	41.52
692.767	41.54
692.952	41.45
693.137	42.09
693.322	41.65
693.507	41.47
693.692	41.99
693.877	41.61
694.062	41.85
694.247	42.11
694.432	42.55
694.617	42.91
694.802	43.23
694.987	43.62
695.172	43.12
695.357	42.78
695.541	42.57
695.726	42.23
695.911	42.26
696.096	42.03
696.281	41.95
696.466	42.17
696.65	41.93
696.835	41.7
697.02	41.5
697.204	41.75
697.389	42.11
697.574	42.1
697.759	41.74
697.943	41.94
698.128	42.04
698.312	42.08
698.497	42.06
698.682	42.4
698.866	42.12
699.051	42.19
699.235	42.2
699.42	42.01
699.604	42.08
699.789	42.13
699.973	42.02
700.158	42.21
700.342	42.1
700.527	41.92
700.711	41.82
700.895	42.2
701.08	42.23
701.264	42.15
701.448	42.36
701.633	42.16
701.817	42.15
702.001	42.23
702.186	42.19
702.37	42.77
702.554	42.85
702.738	42.66
702.923	42.63
703.107	42.48
703.291	42.44
703.475	42.4
703.659	42.88
703.843	43.43
704.027	43.37
704.212	43.22
704.396	43.09
704.58	42.85
704.764	42.49
704.948	41.8
705.132	41.73
705.316	41.82
705.5	40.96
705.684	41
705.868	40.91
706.052	41.45
706.235	41.57
706.419	41.21
706.603	41.82
706.787	42.12
706.971	42.49
707.155	42.82
707.339	42.89
707.522	43.53
707.706	43.13
707.89	42.64
708.074	42.28
708.257	41.76
708.441	42.31
708.625	42.02
708.808	42.03
708.992	42.27
709.176	42.13
709.359	42.14
709.543	42
709.727	42.36
709.91	42.68
710.094	42.38
710.277	43.11
710.461	42.34
710.644	41.99
710.828	42.1
711.011	42.35
711.195	42.51
711.378	42.79
711.562	43.13
711.745	42.96
711.928	42.69
712.112	42.64
712.295	42.39
712.478	42.35
712.662	42.45
712.845	42.52
713.028	42.31
713.212	41.84
713.395	41.92
713.578	41.53
713.761	41.32
713.945	41.49
714.128	41.73
714.311	42.28
714.494	42.8
714.677	42.52
714.86	42.56
715.043	42.79
715.227	42.48
715.41	42.42
715.593	43.2
715.776	43.5
715.959	44
716.142	43.96
716.325	43.73
716.508	43.65
716.691	44.43
716.874	44.52
717.057	44.54
717.239	45.25
717.422	44.55
717.605	44.39
717.788	44.85
717.971	45.11
718.154	45.56
718.337	45.33
718.519	44.95
718.702	44.53
718.885	44.88
719.068	44.12
719.25	44.1
719.433	44.75
719.616	44.81
719.798	44.22
719.981	44.21
720.164	43.99
720.346	44.51
720.529	45.45
720.712	45.25
720.894	44.77
721.077	45.06
721.259	45.54
721.442	45.37
721.624	45.11
721.807	45.32
721.989	44.77
722.172	44.85
722.354	43.7
722.537	42.71
722.719	43.04
722.901	42.98
723.084	42.88
723.266	42.34
723.448	42.02
723.631	42.76
723.813	42.81
723.995	42.49
724.178	41.88
724.36	42.69
724.542	42.39
724.724	42.47
724.907	42.86
725.089	43.24
725.271	43.03
725.453	43.43
725.635	42.49
725.817	42.78
725.999	42.82
726.181	43.41
726.364	42.97
726.546	43.61
726.728	44.06
726.91	43.6
727.092	43.51
727.274	43.41
727.456	43.18
727.638	42.51
727.819	42.26
728.001	42.03
728.183	41.67
728.365	42.62
728.547	43.35
728.729	42.94
728.911	43.52
729.093	44.02
729.274	44.26
729.456	44.07
729.638	44.33
729.82	44.33
730.001	45.3
730.183	45.22
730.365	44.78
730.546	43.89
730.728	43.27
730.91	42.87
731.091	42.7
731.273	43.24
731.455	43.6
731.636	43.93
731.818	44.12
731.999	43.14
732.181	42.88
732.362	43.07
732.544	42.89
732.725	43.5
732.907	43.86
733.088	43.54
733.27	43.34
733.451	43.6
733.633	43.5
733.814	43.3
733.995	43.7
734.177	43.86
734.358	44.1
734.539	44.62
734.721	44.61
734.902	43.61
735.083	43.91
735.264	43.72
735.446	43.08
735.627	43.04
735.808	42.53
735.989	42.43
736.17	42.96
736.351	42.55
736.533	42.65
736.714	42.39
736.895	43.32
737.076	43.04
737.257	42.89
737.438	43.23
737.619	43.23
737.8	44.33
737.981	44.22
738.162	43.98
738.343	44.01
738.524	44.65
738.705	44.98
738.886	44.22
739.067	44.08
739.247	44.52
739.428	43.01
739.609	43.13
739.79	42.57
739.971	43.03
740.151	43.18
740.332	43.5
740.513	42.87
740.694	42.35
740.874	42.74
741.055	43.88
741.236	43.61
741.417	45.29
741.597	44.91
741.778	43.53
741.958	42.87
742.139	42.61
742.32	42.04
742.5	42.24
742.681	42.13
742.861	42.18
743.042	40.63
743.222	41.01
743.403	40.98
743.583	41.49
743.764	43.17
743.944	44
744.124	43.83
744.305	44.25
744.485	44.28
744.666	44.13
744.846	44.2
745.026	45.7
745.207	45.45
745.387	43.99
745.567	44.5
745.747	43.83
745.928	43.74
746.108	44.1
746.288	43.99
746.468	44.4
746.648	44.73
746.829	44.94
747.009	44.35
747.189	44.39
747.369	46.2
747.549	45.03
747.729	45.31
747.909	45.09
748.089	45.51
748.269	45.02
748.449	44.42
748.629	44.79
748.809	45.19
748.989	44.33
749.169	43.92
749.349	43.29
749.529	44.03
749.709	44.98
749.889	44.89
750.068	44.8
750.248	44.29
750.428	43.7
750.608	44.08
750.788	43.21
750.967	44.34
751.147	44.59
751.327	44.77
751.507	44.65
751.686	43.03
751.866	43.14
752.046	43.29
752.225	44.13
752.405	44.47
752.585	43.98
752.764	44.8
752.944	44.51
753.123	44.56
753.303	45.1
753.482	44.64
753.662	45.06
753.841	45.06
754.021	44.69
754.2	44.05
754.38	44.35
754.559	44.41
754.739	43.31
754.918	42.54
755.097	42.19
755.277	41.66
755.456	42.43
755.635	41.69
755.815	41.44
755.994	41.68
756.173	41.75
756.352	42.02
756.532	42
756.711	43.69
756.89	44.47
757.069	44.32
757.248	43.97
757.427	43.17
757.607	44.25
757.786	44.87
757.965	44.63
758.144	44.38
758.323	43.7
758.502	43.57
758.681	42.64
758.86	42.09
759.039	42.95
759.218	42.58
759.397	43.32
759.576	43.04
759.755	42.53
759.934	42.3
760.113	42.71
760.291	42.79
760.47	43.27
760.649	42.97
760.828	43.67
761.007	43.47
761.186	43.86
761.364	43.56
761.543	44.12
761.722	44.39
761.901	44.45
762.079	44.26
762.258	44.04
762.437	43.82
762.615	44.03
762.794	43.48
762.972	43.09
763.151	42.89
763.33	42.78
763.508	42.21
763.687	42.6
763.865	43.3
764.044	43.96
764.222	43.75
764.401	44.15
764.579	44.32
764.758	44.23
764.936	44.66
765.114	45.03
765.293	45.33
765.471	45.43
765.65	44.51
765.828	44.26
766.006	43.95
766.184	44.72
766.363	43.64
766.541	42.99
766.719	43.69
766.898	42.96
767.076	43.51
767.254	43.72
767.432	43.87
767.61	44.83
767.788	44.06
767.967	43.96
768.145	43.82
768.323	44.78
768.501	45.75
768.679	45.56
768.857	47.05
769.035	46.42
769.213	45.98
769.391	46.47
769.569	46.3
769.747	46.94
769.925	47
770.103	46.55
770.281	46.89
770.459	47.07
770.636	46.6
770.814	46.22
770.992	45.92
771.17	46.77
771.348	45.76
771.525	45.14
771.703	45.19
771.881	45.46
772.059	45.91
772.236	44.01
772.414	43.43
772.592	43.57
772.769	41.59
772.947	42.14
773.125	41.64
773.302	43.05
773.48	43.13
773.657	42.63
773.835	43.01
774.013	44.43
774.19	44.06
774.368	44.87
774.545	45.21
774.723	46.07
774.9	47.49
775.077	47.23
775.255	46.3
775.432	46.26
775.61	46.73
775.787	45.09
775.964	43.13
776.142	45.24
776.319	45.18
776.496	45.89
776.674	47.35
776.851	46.08
777.028	46.54
777.205	47.29
777.382	49.1
777.56	49.22
777.737	50.18
777.914	50.31
778.091	50.18
778.268	48.41
778.445	49.13
778.622	48.46
778.8	49.59
778.977	48.02
779.154	57.59
779.331	56.17
779.508	57.25
779.685	58.53
779.862	59.09
780.038	59.23
780.215	60.95
780.392	59.42
780.569	59.5
780.746	58.59
780.923	59.46
781.1	49.64
781.277	49.24
781.453	47.16
781.63	47.23
781.807	47.93
781.984	47.29
782.16	46.77
782.337	45.76
782.514	45.43
782.691	46.02
782.867	44.75
783.044	44.21
783.221	43.41
783.397	45.4
783.574	44.81
783.75	44.46
783.927	46.07
784.103	46.73
784.28	46.74
784.456	47.77
784.633	45.76
784.809	47.13
784.986	46.76
785.162	47.59
785.339	45.92
785.515	47.34
785.692	46.07
785.868	45.27
786.044	42.16
786.221	42.91
786.397	41.73
786.573	41.66
786.749	42.4
786.926	43.37
787.102	43.79
787.278	43.6
787.454	43.23
787.631	43.68
787.807	42.99
787.983	45.4
788.159	45.31
788.335	45.97
788.511	48.13
788.687	47.85
788.863	47.82
789.039	48.38
789.216	48.4
789.392	47.62
789.568	47.79
789.744	49.81
789.919	50.92
790.095	50.31
790.271	51.96
790.447	50.33
790.623	50.73
790.799	49.79
790.975	49.52
791.151	49.99
791.327	49.14
791.502	49.72
791.678	48.16
791.854	49.28
792.03	50.96
792.205	47.1
792.381	49.1
792.557	48.4
792.733	48.09
792.908	49.66
793.084	50.78
793.259	49.33
793.435	47.95
793.611	48.69
793.786	47.4
793.962	45.24
794.137	49.1
794.313	49
794.488	50.28
794.664	52.32
794.839	49.71
795.015	48.81
795.19	49.7
795.366	51
795.541	50.32
795.716	49.55
795.892	50.11
796.067	48.41
796.242	46.48
796.418	47.83
796.593	46.06
796.768	46.86
796.944	47.76
797.119	48.21
797.294	48.09
797.469	47.57
797.644	46.89
797.82	47.85
797.995	47.67
798.17	49.01
798.345	48.23
798.52	49.35
798.695	49.14
798.87	47.85
799.045	49.18
799.22	49.18
799.395	49.5
799.57	49.88
799.745	50.83
799.92	49.42
800.095	49.14
800.27	46.61
800.445	45.04
800.62	43.13
800.795	45.18
800.97	42.95
801.145	41.92
801.319	40.86
801.494	41.61
801.669	42.29
801.844	44.36
802.018	42.71
802.193	44.1
802.368	44.96
802.543	45.92
802.717	43.12
802.892	42.68
803.067	43.67
803.241	45.52
803.416	45.74
803.59	45.03
803.765	46.16
803.94	45.75
804.114	43.81
804.289	45.41
804.463	48
804.638	48.39
804.812	50.54
804.986	50.87
805.161	50.32
805.335	49
805.51	50.02
805.684	46.77
805.858	48.34
806.033	50.87
806.207	48.47
806.381	47.74
806.556	49.91
806.73	50.94
806.904	50.26
807.078	52.73
807.253	53.42
807.427	51.28
807.601	54.45
807.775	53.57
807.949	51.6
808.123	51.82
808.298	50.43
808.472	50.39
808.646	46.21
808.82	47.22
808.994	44.17
809.168	45.61
809.342	42.72
809.516	40.24
809.69	39.84
809.864	39.39
810.038	41.65
810.212	43.37
810.385	43.17
810.559	45.56
810.733	44.1
810.907	42.75
811.081	41.35
811.255	44.94
811.428	47.69
811.602	51.53
811.776	53.05
811.95	53.71
812.123	52.27
812.297	50.03
812.471	49.41
812.644	50.7
812.818	53.35
812.992	52.65
813.165	53.74
813.339	52.9
813.512	52.89
813.686	50.67
813.86	48.23
814.033	48.37
814.207	48.97
814.38	48.44
814.554	46.42
814.727	45.58
814.9	47.02
815.074	46.63
815.247	44.4
815.421	42.28
815.594	42.17
815.767	43.92
815.941	42.96
816.114	44.19
816.287	45.49
816.46	47.84
816.634	49.66
816.807	45.41
816.98	47.03
817.153	48.46
817.327	49.26
817.5	50.42
817.673	52.42
817.846	52.47
818.019	53.64
818.192	55.27
818.365	51.55
818.538	50.34
818.711	54.32
818.884	51.73
819.057	51.44
819.23	52.05
819.403	51.45
819.576	48.7
819.749	51.22
819.922	50.12
820.095	50.15
820.268	52.28
820.441	52.46
820.614	48.57
820.786	48.16
820.959	48.96
821.132	48.35
821.305	47.99
821.477	47.51
821.65	46.31
821.823	46.43
821.996	46.1
822.168	45.95
822.341	44.96
822.514	45.37
822.686	45.1
822.859	44.87
823.031	45.01
823.204	45.14
823.376	44.83
823.549	44.42
823.722	44.16
823.894	43.68
824.067	44.09
824.239	44.17
824.411	44.22
824.584	44.83
824.756	44.5
824.929	43.87
825.101	44.26
825.273	45.16
825.446	44.97
825.618	44.37
825.79	45.41
825.963	44.26
826.135	45.61
826.307	45.35
826.479	45.32
826.652	45.49
826.824	45.97
826.996	45.35
827.168	45.34
827.34	45.91
827.512	47.23
827.684	46.94
827.856	47.89
828.029	46.33
828.201	46.56
828.373	46.72
828.545	46.75
828.717	46.59
828.889	47.15
829.061	47.29
829.232	48.29
829.404	48.45
829.576	48.17
829.748	48.04
829.92	48.11
830.092	49.86
830.264	49.1
830.436	49.22
830.607	49.8
830.779	49.02
830.951	48.16
831.123	45.68
831.294	44.5
831.466	45.05
831.638	45.11
831.809	46.51
831.981	45.96
832.153	46.34
832.324	48.93
832.496	47.01
832.667	49.83
832.839	51.34
833.011	53.23
833.182	54.17
833.354	52.97
833.525	51.49
833.697	50.54
833.868	52.56
834.039	52.66
834.211	50.76
834.382	51.55
834.554	50.5
834.725	49.95
834.896	50.5
835.068	48.89
835.239	48.46
835.41	49.58
835.581	50.5
835.753	47.65
835.924	47.74
836.095	47.3
836.266	48.15
836.438	47.97
836.609	47.31
836.78	48.35
836.951	49.4
837.122	49.26
837.293	48.86
837.464	47.16
837.635	50.33
837.806	51.67
837.977	52.46
838.148	51.19
838.319	50.58
838.49	50.77
838.661	49.97
838.832	50.33
839.003	53.74
839.174	56.66
839.345	63.54
839.516	61.55
839.687	61.17
839.857	60.57
840.028	60.9
840.199	60.11
840.37	61.65
840.54	62.12
840.711	59.03
840.882	54.67
841.053	54.57
841.223	50.34
841.394	48.71
841.564	44.48
841.735	46.57
841.906	50.38
842.076	56.4
842.247	56.26
842.417	55.15
842.588	58.61
842.758	61.05
842.929	55.36
843.099	54.44
843.27	59.03
843.44	61.57
843.611	61.75
843.781	56.68
843.951	59.18
844.122	59.13
844.292	58.33
844.462	55.54
844.633	58.5
844.803	61.44
844.973	59.57
845.144	55.62
845.314	58.02
845.484	60.91
845.654	65.67
845.824	59.5
845.995	55.21
846.165	56.35
846.335	70.05
846.505	62.95
846.675	62.12
846.845	75.09
847.015	73.93
847.185	74.14
847.355	72.72
847.525	75.73
847.695	78.97
847.865	89.45
848.035	89.7
848.205	72.05
848.375	78.62
848.545	73.7
848.715	62.2
848.884	62.69
849.054	59.32
849.224	59.04
849.394	57.57
849.564	48.71
849.733	46.61
849.903	50.46
850.073	55.14
850.243	51.76
850.412	58.5
850.582	54.9
850.752	53.92
850.921	53.4
851.091	50.97
851.26	50.05
851.43	53.3
851.599	54.37
851.769	53.12
851.939	47.24
852.108	50.25
852.278	56.46
852.447	61.97
852.616	61.47
852.786	67.47
852.955	66.65
853.125	66.82
853.294	64.98
853.463	62.68
853.633	61.4
853.802	73.2
853.971	73.21
854.141	63.97
854.31	56
854.479	58.52
854.648	53.19
854.818	50.36
854.987	54.26
855.156	50.68
855.325	58.91
855.494	57.11
855.663	52.05
855.832	53.19
856.001	49.51
856.171	48.88
856.34	53.87
856.509	54.66
856.678	52.14
856.847	58.9
857.016	68.49
857.185	63.78
857.353	66.28
857.522	69.34
857.691	65.24
857.86	67.64
858.029	68.97
858.198	61.59
858.367	60.47
858.535	61.45
858.704	56.25
858.873	56.02
859.042	52.71
859.21	56.97
859.379	53.31
859.548	55.52
859.717	54.7
859.885	53.17
860.054	62.63
860.222	56.42
860.391	61.57
860.56	57.21
860.728	50.73
860.897	60.49
861.065	54.25
861.234	51.25
861.402	52.95
861.571	55.75
861.739	51.96
861.908	51.88
862.076	52.01
862.244	52.6
862.413	63.38
862.581	72.56
862.749	64.04
862.918	66.31
863.086	73.44
863.254	65
863.423	58.67
863.591	60.54
863.759	57.41
863.927	57.52
864.096	57.65
864.264	47.04
864.432	42.58
864.6	48.82
864.768	51.2
864.936	47.94
865.104	53.24
865.272	55.16
865.44	60.57
865.608	51.44
865.776	52.5
865.944	48.8
866.112	48.96
866.28	51.98
866.448	48.61
866.616	52.45
866.784	47.19
866.952	50.19
867.12	54.59
867.288	63.52
867.455	75.72
867.623	79.53
867.791	82.87
867.959	86.23
868.127	83.2
868.294	88.04
868.462	86.48
868.63	94.32
868.797	94.59
868.965	108.11
869.133	106.24
869.3	107.31
869.468	102.48
869.636	103.08
869.803	102.84
869.971	103.69
870.138	89.28
870.306	97
870.473	84.03
870.641	83.31
870.808	72.64
870.975	72.94
871.143	72.07
871.31	82.66
871.478	90.91
871.645	98.27
871.812	107.37
871.98	112.57
872.147	103.17
872.314	121.65
872.482	108.93
872.649	113.37
872.816	108.85
872.983	106.4
873.15	94.24
873.318	84.46
873.485	76.44
873.652	63.11
873.819	69.06
873.986	60.27
874.153	60.21
874.32	73.56
874.487	71.75
874.654	55.94
874.821	52.61
874.988	51.92
875.155	48.4
875.322	44.45
875.489	62.96
875.656	57.54
875.823	50.5
875.99	51.77
876.157	41.37
876.324	39.77
876.49	47.04
876.657	46.67
876.824	48.86
876.991	46.8
877.157	52.09
877.324	51.5
877.491	52.55
877.658	59.35
877.824	60.77
877.991	65.04
878.157	77.02
878.324	88.83
878.491	91.38
878.657	90.92
878.824	94.22
878.99	97.07
879.157	88.28
879.323	75.58
879.49	67.48
879.656	68.21
879.823	58.31
879.989	46.2
880.156	45.13
880.322	43.74
880.488	40.86
880.655	41.32
880.821	36.66
880.987	40.83
881.154	48.81
881.32	53.4
881.486	49.97
881.652	51.93
881.819	52.16
881.985	51.7
882.151	52.66
882.317	52.64
882.483	54.82
882.649	54.54
882.816	52.18
882.982	51.52
883.148	50.38
883.314	50.55
883.48	51.01
883.646	51.51
883.812	50.38
883.978	48.75
884.144	49.72
884.31	48.34
884.476	47.77
884.642	47.85
884.807	46.82
884.973	47.61
885.139	47.97
885.305	47.42
885.471	47.51
885.637	49.06
885.802	49.73
885.968	48.76
886.134	49.92
886.3	50.62
886.465	52.21
886.631	53.49
886.797	53.02
886.962	50.08
887.128	51.38
887.293	54.31
887.459	52.27
887.625	54.17
887.79	59.57
887.956	62.52
888.121	66.05
888.287	65.29
888.452	69.06
888.618	68.88
888.783	81.48
