Data from LC_217__Reflection_1.txt Node
Date: Thu Nov 19 13:14:11 EST 2015
User: robert
Spectrometer: USB4E03001
Autoset integration time: false
Trigger mode: 4
Integration Time (sec): 1.000000E-1
Scans to average: 15
Electric dark correction enabled: true
Nonlinearity correction enabled: false
Boxcar width: 5
Stray light correction enabled: false
XAxis mode: Wavelengths
Stop averaging: false
Number of Pixels in Spectrum: 3648
>>>>>Begin Spectral Data<<<<<
177.566	83.89
177.785	186.83
178.005	66.15
178.225	78.55
178.445	410.08
178.665	-29300
178.885	107.87
179.105	218.43
179.324	12.43
179.544	-174.16
179.764	14.92
179.984	81.58
180.204	108.25
180.423	316.75
180.643	1344.51
180.863	988.25
181.083	369.42
181.302	246.9
181.522	230.35
181.742	1139.62
181.961	-2617.4
182.181	-1981.29
182.401	-158.1
182.621	-117.72
182.84	-67.96
183.06	-292.4
183.279	57.57
183.499	-24.26
183.719	-48.48
183.938	-0.14
184.158	-14.9
184.377	61.25
184.597	106.51
184.816	359.95
185.036	1504.35
185.256	239.34
185.475	172.27
185.695	55.7
185.914	86.27
186.134	72.18
186.353	86.1
186.572	85.4
186.792	63.5
187.011	133.38
187.231	56.68
187.45	-44.53
187.67	-299.19
187.889	-5643.94
188.108	-190.15
188.328	1473.52
188.547	262.64
188.766	274.37
188.986	407.62
189.205	362.9
189.424	-478.03
189.644	-907.33
189.863	-225.24
190.082	-266.9
190.302	-1011.75
190.521	76.13
190.74	-59.9
190.959	-1890.14
191.178	3321.19
191.398	-1502.81
191.617	276.71
191.836	703.07
192.055	-181.87
192.274	-32.53
192.494	36.43
192.713	34.3
192.932	16.94
193.151	19.45
193.37	-56.3
193.589	-10.82
193.808	13.5
194.027	-6.19
194.246	-175.48
194.465	-204.71
194.685	13535
194.904	350.09
195.123	198.18
195.342	110.25
195.561	84.45
195.78	60.52
195.999	76.11
196.218	139.78
196.436	242.11
196.655	38.83
196.874	47.62
197.093	68.38
197.312	129.09
197.531	148.38
197.75	243.69
197.969	-80.21
198.188	-18.97
198.407	-338.61
198.625	78.28
198.844	67.88
199.063	475.13
199.282	352.32
199.501	-126.9
199.719	7.49
199.938	122.4
200.157	482.87
200.376	184.44
200.594	129.91
200.813	57.34
201.032	15.67
201.251	-8.38
201.469	-161.73
201.688	-83.38
201.907	-49.89
202.125	-28.77
202.344	10.61
202.563	10.36
202.781	9.09
203	8.28
203.218	45.8
203.437	135.92
203.656	99.56
203.874	63.4
204.093	65.35
204.311	76.87
204.53	52.28
204.748	26.59
204.967	-32.23
205.185	-9.62
205.404	-24.01
205.622	-19.47
205.841	-9.15
206.059	-35.05
206.278	9.24
206.496	2.77
206.715	-39.85
206.933	-57.19
207.151	264.33
207.37	235.56
207.588	1205.23
207.806	-310.75
208.025	-157.13
208.243	156.47
208.461	193.36
208.68	20.37
208.898	287.04
209.116	-74.24
209.335	-85.4
209.553	5.1
209.771	123.56
209.989	-161.76
210.208	54.48
210.426	116.64
210.644	277.94
210.862	105.98
211.081	197.35
211.299	161.1
211.517	144.5
211.735	155.81
211.953	351.46
212.171	-56.48
212.39	-125.35
212.608	-270.72
212.826	-35.75
213.044	-10.4
213.262	-28.07
213.48	6.34
213.698	23.1
213.916	9.96
214.134	-45.76
214.352	-83.54
214.57	1297.24
214.788	-399.35
215.006	-2094.89
215.224	927.96
215.442	296.06
215.66	216.77
215.878	-500.15
216.096	-116.46
216.314	-131.81
216.532	-47.14
216.75	-35.34
216.968	12.26
217.185	-1.99
217.403	14.6
217.621	-6.62
217.839	-6.16
218.057	0.67
218.275	-6.08
218.492	-28.76
218.71	19.1
218.928	20.93
219.146	28.79
219.363	-25.69
219.581	-79.09
219.799	-324.48
220.017	-12.59
220.234	-21.63
220.452	-106.01
220.67	-46.21
220.887	-67.72
221.105	-161.46
221.323	-207.22
221.54	-203.25
221.758	-72.89
221.976	-1.85
222.193	-15.3
222.411	-44.74
222.629	-44.22
222.846	-5.68
223.064	-7.55
223.281	7.03
223.499	-0.47
223.716	9.04
223.934	3.61
224.151	22.02
224.369	20.23
224.586	60.03
224.804	78.17
225.021	58.63
225.239	60.73
225.456	52.73
225.674	50.97
225.891	56.61
226.108	42.24
226.326	47.33
226.543	36.35
226.76	28.51
226.978	27.64
227.195	27.78
227.413	31.07
227.63	21.22
227.847	19.12
228.064	15.65
228.282	15.14
228.499	17.95
228.716	14.21
228.934	12.84
229.151	12.75
229.368	11.86
229.585	11.07
229.802	8.29
230.02	8.24
230.237	6.78
230.454	9.72
230.671	5.48
230.888	3.41
231.105	9.36
231.323	3.38
231.54	-0.07
231.757	-2.89
231.974	-1.76
232.191	10.67
232.408	9.6
232.625	13.43
232.842	9.3
233.059	6.19
233.276	9.62
233.493	5.38
233.71	13.79
233.927	18.84
234.144	27.93
234.361	24.78
234.578	12.87
234.795	17.01
235.012	13.71
235.229	15.62
235.446	20.7
235.663	14.99
235.879	7.99
236.096	7.97
236.313	1.71
236.53	-7.55
236.747	-7.53
236.964	-7.33
237.181	-9.08
237.397	-5.64
237.614	-14.56
237.831	-15.13
238.048	-15.84
238.264	-12.86
238.481	-9.23
238.698	-6.41
238.915	-11.03
239.131	-15.04
239.348	-14.26
239.565	-12.95
239.781	-11.05
239.998	-3.9
240.215	0.22
240.431	0.68
240.648	3.91
240.865	1.05
241.081	6.31
241.298	9.82
241.514	13.18
241.731	14.74
241.947	14.22
242.164	11.7
242.38	12.27
242.597	11.17
242.814	12.34
243.03	11.65
243.246	14.28
243.463	12.7
243.679	13.31
243.896	10.87
244.112	9.99
244.329	9.67
244.545	11.56
244.762	11.5
244.978	13.74
245.194	13.9
245.411	13.25
245.627	10.85
245.843	11.89
246.06	11.21
246.276	13.78
246.492	14.1
246.709	13.46
246.925	13.5
247.141	12.26
247.357	10.89
247.574	11.66
247.79	12.26
248.006	11.7
248.222	10.28
248.439	9.74
248.655	8.3
248.871	7.54
249.087	7.47
249.303	7.02
249.519	7.49
249.736	7.18
249.952	4.59
250.168	3.76
250.384	5.98
250.6	9.24
250.816	10.61
251.032	10.59
251.248	7.8
251.464	8.82
251.68	7.7
251.896	6.92
252.112	7.57
252.328	6.61
252.544	8.32
252.76	7.36
252.976	6.71
253.192	5.36
253.408	6.86
253.624	9.24
253.84	8.06
254.056	10.63
254.272	12.46
254.487	9.62
254.703	12.08
254.919	9.68
255.135	11.23
255.351	7.58
255.567	7.88
255.782	5.63
255.998	5.06
256.214	5.54
256.43	5.46
256.646	5.05
256.861	8.67
257.077	11.09
257.293	12.64
257.508	10.31
257.724	10.36
257.94	9.16
258.155	9.45
258.371	9.84
258.587	10.96
258.802	9.06
259.018	9.37
259.234	9.37
259.449	7.77
259.665	7.58
259.88	8.33
260.096	8.93
260.312	10.08
260.527	10.23
260.743	9.37
260.958	8.64
261.174	8.62
261.389	8.73
261.605	8.99
261.82	9.58
262.036	9.47
262.251	9.43
262.466	9.19
262.682	8.71
262.897	8.92
263.113	9.5
263.328	9.93
263.543	12.89
263.759	12.11
263.974	9.31
264.189	8.19
264.405	9.34
264.62	10.59
264.835	11.54
265.051	12.56
265.266	12.33
265.481	12.28
265.696	12.29
265.912	10.03
266.127	9.02
266.342	10.59
266.557	10.1
266.773	8.44
266.988	8.92
267.203	7.59
267.418	6.48
267.633	7.22
267.848	8.28
268.064	7.95
268.279	7.88
268.494	9.14
268.709	9.66
268.924	11.79
269.139	12.91
269.354	12.16
269.569	12.58
269.784	12.51
269.999	12.19
270.214	11.22
270.429	12.64
270.644	14.5
270.859	14.21
271.074	13.85
271.289	13.32
271.504	12.63
271.719	12.18
271.934	12.31
272.149	11.79
272.363	10.39
272.578	10.67
272.793	9.46
273.008	7.4
273.223	6.56
273.438	6.28
273.653	5.53
273.867	4.5
274.082	3.19
274.297	4.3
274.512	3.69
274.726	5.5
274.941	6.09
275.156	7.11
275.371	8.12
275.585	8.94
275.8	9.9
276.015	10.24
276.229	11.44
276.444	12.3
276.659	12.97
276.873	13.36
277.088	12.28
277.302	11.98
277.517	11.66
277.732	11.25
277.946	13.03
278.161	12.68
278.375	12.88
278.59	12.07
278.804	12.82
279.019	9.86
279.233	9.58
279.448	9.48
279.662	8.49
279.877	6.95
280.091	8.08
280.306	6.43
280.52	5.51
280.735	5.23
280.949	5.83
281.163	5.76
281.378	5.98
281.592	7.67
281.806	7.52
282.021	7.51
282.235	9.08
282.449	7.89
282.664	7.37
282.878	8.36
283.092	8.82
283.307	8.62
283.521	8.33
283.735	9.22
283.949	8.61
284.164	8.42
284.378	8.92
284.592	7.87
284.806	7.76
285.02	8.19
285.234	6.95
285.449	7.33
285.663	8.07
285.877	8.05
286.091	8.39
286.305	9.02
286.519	9.75
286.733	8.55
286.947	9.16
287.161	9.67
287.375	9.9
287.589	10.82
287.803	9.96
288.017	10.39
288.231	10.84
288.445	10.32
288.659	9.73
288.873	8.98
289.087	10.72
289.301	9.99
289.515	9.66
289.729	9.52
289.943	9.63
290.157	9.37
290.371	8.78
290.584	8.19
290.798	8.99
291.012	10.13
291.226	11.03
291.44	10.1
291.654	10.61
291.867	10.81
292.081	10.05
292.295	10.46
292.509	10.23
292.722	9.18
292.936	9.24
293.15	8.63
293.364	6.21
293.577	4.89
293.791	5.65
294.005	5.46
294.218	4.01
294.432	5.13
294.645	4.07
294.859	4.25
295.073	5.37
295.286	7.55
295.5	7.41
295.713	7.83
295.927	9.22
296.14	8.75
296.354	10.03
296.568	10.89
296.781	10.95
296.994	10.85
297.208	10.82
297.421	11.41
297.635	10.02
297.848	9.72
298.062	9.8
298.275	8.6
298.489	8.83
298.702	8.25
298.915	8.93
299.129	9.17
299.342	10.47
299.555	11.06
299.769	9.7
299.982	10.04
300.195	10.66
300.409	10
300.622	10.94
300.835	11.94
301.048	10.48
301.262	9.07
301.475	8.65
301.688	8.02
301.901	7.78
302.115	7.98
302.328	7.63
302.541	7.45
302.754	8.57
302.967	7.77
303.18	7.64
303.393	9.21
303.607	8.7
303.82	7.89
304.033	8.63
304.246	9.5
304.459	10.08
304.672	10.42
304.885	9.71
305.098	9.53
305.311	9.81
305.524	9.14
305.737	9.33
305.95	10.8
306.163	10.61
306.376	8.87
306.589	8.45
306.802	8.74
307.015	9.56
307.228	10.62
307.44	10.36
307.653	11.73
307.866	11.84
308.079	11.39
308.292	11.31
308.505	12.69
308.718	14.01
308.93	14.58
309.143	14.08
309.356	12.98
309.569	12.26
309.781	12.74
309.994	11.58
310.207	11.53
310.42	11.59
310.632	11.54
310.845	10.48
311.058	9.47
311.27	8.8
311.483	10.24
311.696	10.38
311.908	10.63
312.121	11.17
312.333	11.84
312.546	12.08
312.759	11.53
312.971	11.37
313.184	12.51
313.396	13.88
313.609	13.44
313.821	12.5
314.034	13.47
314.246	13.5
314.459	12.69
314.671	12.77
314.884	12.15
315.096	13.26
315.309	12.94
315.521	12.42
315.733	10.53
315.946	11.09
316.158	10.83
316.371	9.49
316.583	9.01
316.795	9.21
317.008	7.56
317.22	7.81
317.432	6.57
317.644	8.02
317.857	8.51
318.069	9.95
318.281	9.89
318.494	8.7
318.706	9.86
318.918	10.26
319.13	9.89
319.342	11.12
319.555	11.12
319.767	12.28
319.979	10.63
320.191	10.48
320.403	9.52
320.615	8.03
320.827	9.8
321.039	8.47
321.252	8.34
321.464	9.07
321.676	9.29
321.888	9.86
322.1	7.73
322.312	8.12
322.524	8.04
322.736	7.23
322.948	9.41
323.16	8.13
323.372	9.27
323.584	9.19
323.796	7.65
324.007	7
324.219	6.73
324.431	7.58
324.643	7.88
324.855	7.55
325.067	7.98
325.279	6.95
325.491	6.68
325.702	6.1
325.914	6.46
326.126	8.08
326.338	7.09
326.55	7.03
326.761	7.75
326.973	6.86
327.185	6.46
327.396	6.27
327.608	7.03
327.82	6.73
328.032	5.91
328.243	6.28
328.455	5.03
328.666	5.62
328.878	5.54
329.09	5.34
329.301	7.35
329.513	8.19
329.725	9.36
329.936	9.19
330.148	8.6
330.359	10.1
330.571	9.38
330.782	10.96
330.994	11.7
331.205	11.87
331.417	10.93
331.628	9.9
331.84	9.66
332.051	8.53
332.262	7.83
332.474	8.18
332.685	7.16
332.897	7.15
333.108	5.3
333.319	6.21
333.531	6.46
333.742	7.03
333.953	7.33
334.165	7.22
334.376	7.44
334.587	7.52
334.799	8.73
335.01	9.22
335.221	9.48
335.432	9.1
335.644	8.68
335.855	8.53
336.066	9.07
336.277	8.58
336.488	8.07
336.7	8.26
336.911	8.43
337.122	8.01
337.333	7.71
337.544	7.44
337.755	8.87
337.966	8.79
338.177	8.33
338.388	7.66
338.599	7.62
338.811	8.18
339.022	8.56
339.233	8.91
339.444	8.44
339.655	9.23
339.866	9.06
340.076	8.81
340.287	8.85
340.498	9.56
340.709	9.2
340.92	9.16
341.131	9.47
341.342	9.23
341.553	9.59
341.764	10.58
341.975	9.93
342.185	10.66
342.396	10.15
342.607	10.34
342.818	9.97
343.029	10.38
343.239	10.6
343.45	9.67
343.661	9.94
343.872	9.61
344.082	9.16
344.293	8.67
344.504	8.63
344.714	9.65
344.925	9.5
345.136	9.22
345.346	8.76
345.557	8.47
345.768	9.51
345.978	9.38
346.189	9.3
346.399	10.24
346.61	11.09
346.821	10.2
347.031	9.19
347.242	8.17
347.452	9.02
347.663	9.96
347.873	10.53
348.084	9.86
348.294	9.63
348.504	9.2
348.715	8.79
348.925	8.9
349.136	8.98
349.346	9.61
349.557	10.47
349.767	9.61
349.977	8.98
350.188	9.14
350.398	9.17
350.608	9.44
350.819	9.72
351.029	9.96
351.239	9.26
351.449	9.88
351.66	9.74
351.87	9.47
352.08	9.12
352.29	9.25
352.501	8.47
352.711	9.11
352.921	9.58
353.131	9.68
353.341	9.23
353.552	9.5
353.762	9.17
353.972	9.08
354.182	9.46
354.392	10.09
354.602	10.19
354.812	10.42
355.022	10.05
355.232	9.51
355.442	9.34
355.652	9.01
355.862	9.15
356.072	9.46
356.282	8.86
356.492	8.54
356.702	8.32
356.912	8.29
357.122	7.99
357.332	8.26
357.542	8.29
357.752	7.78
357.962	8.36
358.171	8.73
358.381	8.46
358.591	8.56
358.801	9.08
359.011	8.93
359.221	8.95
359.43	9.75
359.64	9.46
359.85	9.15
360.06	9.56
360.269	9.23
360.479	9.03
360.689	9.16
360.899	9.23
361.108	9.14
361.318	9.47
361.528	9.71
361.737	9.58
361.947	9.42
362.156	9.46
362.366	9.55
362.576	9.73
362.785	9.57
362.995	9.61
363.204	9.55
363.414	9.62
363.623	9.31
363.833	8.93
364.042	8.58
364.252	8.88
364.461	9.02
364.671	8.79
364.88	8.66
365.09	8.61
365.299	8.93
365.509	9.28
365.718	9.16
365.927	9.3
366.137	9.4
366.346	8.93
366.555	8.52
366.765	8.42
366.974	8.97
367.183	8.51
367.393	8.29
367.602	7.53
367.811	7.49
368.021	7.01
368.23	6.86
368.439	7.05
368.648	7.73
368.857	7.52
369.067	7.94
369.276	7.13
369.485	7.4
369.694	6.97
369.903	7.17
370.112	6.77
370.321	6.45
370.531	6.88
370.74	6.47
370.949	6.05
371.158	6.42
371.367	5.58
371.576	6.11
371.785	5.82
371.994	6.38
372.203	6.25
372.412	6.61
372.621	7.15
372.83	7.16
373.039	7.32
373.248	7.54
373.457	7.21
373.666	7.45
373.874	7.27
374.083	7.51
374.292	7.02
374.501	7.01
374.71	6.57
374.919	6.37
375.128	5.96
375.336	5.63
375.545	5.37
375.754	5.66
375.963	5.89
376.171	6.36
376.38	6.6
376.589	6.94
376.798	7.31
377.006	8.15
377.215	8.63
377.424	8.56
377.632	8.41
377.841	8.54
378.05	8.7
378.258	8.8
378.467	8.27
378.675	8.08
378.884	8.05
379.093	7.96
379.301	7.62
379.51	7.41
379.718	7.61
379.927	7.88
380.135	7.85
380.344	7.87
380.552	7.83
380.761	8.22
380.969	8
381.177	7.83
381.386	7.68
381.594	7.48
381.803	6.95
382.011	7
382.219	7.46
382.428	7.8
382.636	7.44
382.845	7.27
383.053	7.43
383.261	7.35
383.469	7.36
383.678	7.21
383.886	6.69
384.094	7.04
384.302	6.83
384.511	6.26
384.719	5.69
384.927	5.78
385.135	5.7
385.343	5.25
385.552	5.2
385.76	5.3
385.968	5.83
386.176	6.29
386.384	6.02
386.592	6.21
386.8	6.47
387.008	6.46
387.216	6.32
387.424	6.18
387.633	6.36
387.841	6.34
388.049	6.3
388.257	5.55
388.465	5.43
388.672	5.56
388.88	5.43
389.088	5.37
389.296	5.4
389.504	5.32
389.712	5.7
389.92	5.37
390.128	5.67
390.336	5.62
390.544	5.84
390.751	6.11
390.959	6.25
391.167	6.19
391.375	6.22
391.583	6.61
391.79	6.84
391.998	6.85
392.206	7
392.414	6.96
392.621	6.78
392.829	6.79
393.037	6.55
393.244	6.49
393.452	6.53
393.66	6.17
393.867	5.86
394.075	5.76
394.283	5.71
394.49	5.81
394.698	5.83
394.905	6.11
395.113	6.19
395.32	6.18
395.528	6.16
395.735	6.22
395.943	6.47
396.15	6.35
396.358	6.46
396.565	6.67
396.773	6.43
396.98	6.01
397.188	5.69
397.395	5.79
397.602	6.02
397.81	5.88
398.017	5.84
398.225	5.68
398.432	5.78
398.639	5.65
398.847	5.4
399.054	5.65
399.261	5.97
399.468	6.05
399.676	5.76
399.883	5.76
400.09	5.66
400.297	5.77
400.505	5.84
400.712	5.89
400.919	5.91
401.126	5.78
401.333	5.67
401.54	6.02
401.748	6.09
401.955	5.95
402.162	5.7
402.369	5.89
402.576	5.63
402.783	5.51
402.99	5.5
403.197	5.65
403.404	5.51
403.611	5.54
403.818	5.34
404.025	5.54
404.232	5.49
404.439	5.81
404.646	5.53
404.853	5.58
405.06	5.71
405.267	5.79
405.474	5.53
405.681	5.66
405.887	5.6
406.094	5.49
406.301	5.26
406.508	5.56
406.715	5.37
406.922	5.69
407.128	5.76
407.335	5.76
407.542	5.9
407.749	5.95
407.955	6.02
408.162	5.93
408.369	5.96
408.575	6.3
408.782	6.29
408.989	6.25
409.195	6.09
409.402	5.98
409.609	6.21
409.815	6.17
410.022	6.02
410.228	6.03
410.435	6.14
410.642	5.92
410.848	5.86
411.055	5.79
411.261	5.94
411.468	5.88
411.674	5.95
411.881	5.84
412.087	5.6
412.294	5.82
412.5	5.64
412.706	5.53
412.913	5.81
413.119	5.72
413.326	6.13
413.532	6.19
413.738	6.64
413.945	6.66
414.151	6.73
414.357	6.67
414.564	6.67
414.77	6.7
414.976	6.72
415.182	6.99
415.389	7
415.595	6.5
415.801	6.31
416.007	6.07
416.214	6.22
416.42	5.93
416.626	6.11
416.832	6.2
417.038	6.38
417.244	6.37
417.45	5.95
417.657	5.77
417.863	6.05
418.069	6.01
418.275	6.1
418.481	5.95
418.687	6.16
418.893	6.02
419.099	5.93
419.305	5.81
419.511	5.87
419.717	6.05
419.923	6.09
420.129	6
420.335	5.95
420.541	5.81
420.746	5.92
420.952	5.74
421.158	5.86
421.364	5.96
421.57	5.93
421.776	5.9
421.982	5.88
422.187	5.86
422.393	5.85
422.599	5.91
422.805	6.11
423.01	6.21
423.216	6.4
423.422	6.45
423.628	6.42
423.833	6.61
424.039	6.82
424.245	6.88
424.45	6.93
424.656	6.91
424.862	6.94
425.067	6.9
425.273	6.76
425.478	6.75
425.684	6.77
425.889	6.74
426.095	6.65
426.301	6.5
426.506	6.52
426.712	6.57
426.917	6.8
427.123	6.77
427.328	6.67
427.533	6.76
427.739	6.7
427.944	6.78
428.15	6.84
428.355	6.72
428.561	6.78
428.766	6.45
428.971	6.45
429.177	6.21
429.382	6.23
429.587	6.35
429.793	6.36
429.998	6.49
430.203	6.37
430.408	6.47
430.614	6.54
430.819	6.54
431.024	6.84
431.229	7.02
431.434	7.13
431.64	7.24
431.845	7.22
432.05	7.05
432.255	7.07
432.46	7.11
432.665	6.95
432.87	6.98
433.076	6.99
433.281	6.9
433.486	6.74
433.691	6.59
433.896	6.48
434.101	6.4
434.306	6.37
434.511	6.14
434.716	5.89
434.921	5.94
435.126	5.85
435.331	5.58
435.535	5.59
435.74	5.66
435.945	5.63
436.15	5.76
436.355	5.81
436.56	5.91
436.765	6.17
436.97	6.3
437.174	6.35
437.379	6.44
437.584	6.72
437.789	6.67
437.993	6.62
438.198	6.86
438.403	6.62
438.608	6.66
438.812	6.69
439.017	6.67
439.222	6.66
439.426	6.64
439.631	6.64
439.836	6.56
440.04	6.72
440.245	6.68
440.45	6.44
440.654	6.57
440.859	6.5
441.063	6.4
441.268	6.51
441.472	6.52
441.677	6.45
441.881	6.62
442.086	6.69
442.29	6.77
442.495	6.84
442.699	6.93
442.904	6.81
443.108	6.78
443.312	6.76
443.517	6.58
443.721	6.55
443.925	6.62
444.13	6.4
444.334	6.5
444.538	6.32
444.743	6.37
444.947	6.47
445.151	6.54
445.356	6.69
445.56	6.81
445.764	6.81
445.968	6.82
446.173	6.82
446.377	6.76
446.581	6.56
446.785	6.53
446.989	6.6
447.193	6.6
447.398	6.59
447.602	6.58
447.806	6.68
448.01	6.68
448.214	6.71
448.418	6.83
448.622	6.94
448.826	7.07
449.03	7.12
449.234	6.79
449.438	6.85
449.642	6.92
449.846	6.81
450.05	6.73
450.254	6.8
450.458	6.91
450.662	6.77
450.866	6.65
451.069	6.58
451.273	6.68
451.477	7
451.681	6.91
451.885	6.93
452.089	7
452.292	7.05
452.496	6.87
452.7	6.84
452.904	6.82
453.107	6.95
453.311	6.95
453.515	7.02
453.719	7.01
453.922	7.11
454.126	7.05
454.33	6.98
454.533	7.01
454.737	7.08
454.94	7.02
455.144	6.99
455.348	6.97
455.551	6.94
455.755	6.79
455.958	6.73
456.162	6.58
456.365	6.7
456.569	6.88
456.772	6.61
456.976	6.61
457.179	6.77
457.383	6.92
457.586	6.9
457.79	6.91
457.993	6.92
458.196	7.04
458.4	7.14
458.603	7.21
458.807	7.05
459.01	7.11
459.213	7.14
459.417	6.95
459.62	6.87
459.823	6.87
460.026	6.93
460.23	6.99
460.433	6.93
460.636	6.81
460.839	6.73
461.042	6.72
461.246	6.75
461.449	6.7
461.652	6.77
461.855	6.71
462.058	6.6
462.261	6.44
462.464	6.38
462.668	6.31
462.871	6.46
463.074	6.31
463.277	6.35
463.48	6.4
463.683	6.37
463.886	6.29
464.089	6.58
464.292	6.53
464.495	6.43
464.698	6.29
464.901	6.39
465.104	6.44
465.306	6.64
465.509	6.73
465.712	6.57
465.915	6.48
466.118	6.57
466.321	6.51
466.524	6.72
466.726	6.95
466.929	7.12
467.132	7.07
467.335	6.92
467.538	6.78
467.74	6.85
467.943	6.98
468.146	7.19
468.348	7.26
468.551	7.06
468.754	6.86
468.956	6.88
469.159	6.91
469.362	6.86
469.564	6.94
469.767	6.91
469.969	6.73
470.172	6.75
470.375	6.67
470.577	6.58
470.78	6.57
470.982	6.66
471.185	6.48
471.387	6.23
471.59	6.24
471.792	6.19
471.995	6.25
472.197	6.14
472.399	6.08
472.602	6.11
472.804	6.16
473.007	6.2
473.209	6.16
473.411	6.27
473.614	6.41
473.816	6.33
474.018	6.29
474.22	6.24
474.423	6.46
474.625	6.56
474.827	6.46
475.03	6.42
475.232	6.48
475.434	6.7
475.636	6.8
475.838	6.83
476.04	6.99
476.243	7.14
476.445	7.07
476.647	6.95
476.849	6.77
477.051	6.82
477.253	6.83
477.455	6.81
477.657	6.68
477.859	6.53
478.061	6.51
478.263	6.4
478.465	6.28
478.667	6.38
478.869	6.39
479.071	6.56
479.273	6.55
479.475	6.61
479.677	6.54
479.879	6.48
480.081	6.66
480.283	6.54
480.485	6.64
480.686	6.67
480.888	6.69
481.09	6.77
481.292	6.59
481.494	6.63
481.695	6.63
481.897	6.68
482.099	6.7
482.301	6.66
482.502	6.71
482.704	6.67
482.906	6.68
483.107	6.64
483.309	6.57
483.511	6.62
483.712	6.61
483.914	6.53
484.115	6.54
484.317	6.58
484.519	6.52
484.72	6.51
484.922	6.49
485.123	6.41
485.325	6.47
485.526	6.43
485.728	6.38
485.929	6.35
486.131	6.44
486.332	6.43
486.534	6.36
486.735	6.44
486.936	6.46
487.138	6.52
487.339	6.57
487.541	6.55
487.742	6.63
487.943	6.75
488.144	6.8
488.346	6.83
488.547	6.86
488.748	6.87
488.95	6.81
489.151	6.78
489.352	6.73
489.553	6.73
489.755	6.75
489.956	6.79
490.157	6.68
490.358	6.76
490.559	6.74
490.76	6.69
490.961	6.76
491.163	6.82
491.364	6.89
491.565	6.82
491.766	6.88
491.967	6.84
492.168	6.8
492.369	6.84
492.57	6.73
492.771	6.61
492.972	6.58
493.173	6.57
493.374	6.52
493.575	6.44
493.776	6.5
493.976	6.34
494.177	6.37
494.378	6.37
494.579	6.33
494.78	6.24
494.981	6.31
495.182	6.36
495.382	6.49
495.583	6.53
495.784	6.61
495.985	6.53
496.185	6.73
496.386	6.66
496.587	6.74
496.788	6.69
496.988	6.88
497.189	6.9
497.39	6.96
497.59	6.79
497.791	6.91
497.992	6.83
498.192	6.99
498.393	6.9
498.593	6.98
498.794	6.88
498.994	6.9
499.195	6.78
499.395	6.79
499.596	6.84
499.796	6.87
499.997	6.71
500.197	6.78
500.398	6.8
500.598	6.9
500.799	6.82
500.999	6.85
501.199	7.11
501.4	7.11
501.6	7.1
501.801	6.91
502.001	6.77
502.201	7.03
502.402	7.12
502.602	6.94
502.802	6.82
503.002	7.04
503.203	6.92
503.403	6.69
503.603	6.83
503.803	6.99
504.003	7.13
504.204	7.36
504.404	7.23
504.604	7.21
504.804	7.31
505.004	7.42
505.204	7.31
505.404	7.47
505.604	7.5
505.804	7.38
506.005	7.45
506.205	7.55
506.405	7.61
506.605	7.59
506.805	7.66
507.005	7.84
507.204	7.93
507.404	7.81
507.604	7.76
507.804	7.7
508.004	7.82
508.204	7.77
508.404	7.72
508.604	7.67
508.804	7.79
509.003	7.68
509.203	7.55
509.403	7.46
509.603	7.51
509.803	7.61
510.002	7.62
510.202	7.54
510.402	7.47
510.602	7.46
510.801	7.39
511.001	7.24
511.201	7.25
511.4	7.25
511.6	7.37
511.8	7.29
511.999	7.34
512.199	7.48
512.398	7.32
512.598	7.34
512.797	7.29
512.997	7.38
513.197	7.34
513.396	7.47
513.596	7.52
513.795	7.42
513.994	7.58
514.194	7.58
514.393	7.54
514.593	7.94
514.792	8.05
514.992	8.27
515.191	8.22
515.39	8.35
515.59	8.42
515.789	8.46
515.988	8.58
516.188	8.63
516.387	8.67
516.586	8.66
516.786	8.5
516.985	8.47
517.184	8.35
517.383	8.36
517.582	8.33
517.782	8.25
517.981	8.11
518.18	7.99
518.379	7.98
518.578	7.86
518.777	7.84
518.976	7.84
519.176	7.84
519.375	7.85
519.574	7.89
519.773	7.88
519.972	7.9
520.171	7.99
520.37	8.05
520.569	8.1
520.768	8.19
520.967	8.26
521.166	8.25
521.365	8.26
521.564	8.24
521.762	8.34
521.961	8.4
522.16	8.25
522.359	8.32
522.558	8.22
522.757	8.2
522.956	8.22
523.154	8.32
523.353	8.42
523.552	8.52
523.751	8.62
523.949	8.52
524.148	8.67
524.347	8.86
524.546	8.79
524.744	8.92
524.943	9
525.142	8.99
525.34	8.93
525.539	8.96
525.737	8.95
525.936	8.97
526.135	9.01
526.333	9.03
526.532	8.95
526.73	9.03
526.929	9.05
527.127	9
527.326	9.03
527.524	9.01
527.723	9.05
527.921	9.01
528.12	8.99
528.318	9.02
528.516	8.96
528.715	9.03
528.913	9.02
529.112	9.01
529.31	9.01
529.508	8.99
529.707	9.06
529.905	9.04
530.103	9.1
530.301	9.12
530.5	9.12
530.698	9.11
530.896	9.08
531.094	9.12
531.293	9.19
531.491	9.24
531.689	9.28
531.887	9.26
532.085	9.27
532.283	9.28
532.481	9.35
532.68	9.47
532.878	9.55
533.076	9.55
533.274	9.55
533.472	9.59
533.67	9.61
533.868	9.74
534.066	9.77
534.264	9.88
534.462	9.87
534.66	9.94
534.858	9.88
535.056	9.88
535.253	9.95
535.451	10.09
535.649	10.13
535.847	10.2
536.045	10.16
536.243	10.27
536.441	10.26
536.638	10.36
536.836	10.19
537.034	10.33
537.232	10.39
537.43	10.38
537.627	10.31
537.825	10.34
538.023	10.37
538.22	10.4
538.418	10.35
538.616	10.34
538.813	10.25
539.011	10.41
539.209	10.48
539.406	10.59
539.604	10.77
539.801	10.91
539.999	10.94
540.196	11.06
540.394	11.19
540.591	11.26
540.789	11.44
540.986	11.61
541.184	11.73
541.381	11.75
541.579	11.71
541.776	11.72
541.974	11.75
542.171	11.75
542.368	11.81
542.566	11.82
542.763	11.84
542.96	11.86
543.158	11.84
543.355	11.8
543.552	11.83
543.75	11.98
543.947	12.12
544.144	12.17
544.341	12.28
544.539	12.28
544.736	12.37
544.933	12.46
545.13	12.6
545.327	12.67
545.524	12.89
545.722	13.02
545.919	13.04
546.116	13.07
546.313	13.12
546.51	13.22
546.707	13.29
546.904	13.36
547.101	13.48
547.298	13.5
547.495	13.56
547.692	13.58
547.889	13.49
548.086	13.46
548.283	13.52
548.48	13.61
548.677	13.73
548.874	13.9
549.07	14.09
549.267	14.19
549.464	14.15
549.661	14.22
549.858	14.29
550.055	14.36
550.251	14.58
550.448	14.68
550.645	14.99
550.842	15.06
551.038	15.19
551.235	15.28
551.432	15.29
551.628	15.6
551.825	15.75
552.022	15.9
552.218	16.22
552.415	16.43
552.612	16.49
552.808	16.39
553.005	16.33
553.201	16.27
553.398	16.15
553.594	16.36
553.791	16.33
553.987	16.42
554.184	16.26
554.38	16.25
554.577	16.24
554.773	16.45
554.97	16.67
555.166	17
555.362	17.12
555.559	17.31
555.755	17.28
555.952	17.35
556.148	17.43
556.344	17.8
556.541	17.93
556.737	17.99
556.933	17.96
557.129	17.87
557.326	17.95
557.522	18.18
557.718	18.22
557.914	18.45
558.11	18.64
558.307	18.93
558.503	18.94
558.699	19.2
558.895	19.45
559.091	19.63
559.287	19.97
559.483	20.14
559.679	20.28
559.876	20.63
560.072	20.69
560.268	20.78
560.464	20.77
560.66	21.03
560.856	20.94
561.052	21.05
561.247	21.08
561.443	21.11
561.639	21.16
561.835	21.14
562.031	21.33
562.227	21.44
562.423	21.51
562.619	21.58
562.815	21.62
563.01	21.88
563.206	22.09
563.402	22.18
563.598	22.25
563.793	22.35
563.989	22.52
564.185	22.54
564.381	22.59
564.576	22.83
564.772	23.26
564.968	23.18
565.163	23.27
565.359	23.4
565.555	23.74
565.75	24.06
565.946	24.17
566.141	24.29
566.337	24.45
566.532	24.55
566.728	24.57
566.923	24.48
567.119	24.62
567.314	24.73
567.51	24.96
567.705	24.87
567.901	24.94
568.096	25.09
568.292	25.02
568.487	25.06
568.682	25.27
568.878	25.32
569.073	25.47
569.268	25.75
569.464	25.86
569.659	25.77
569.854	26.02
570.05	26.02
570.245	26.2
570.44	26.5
570.635	26.49
570.831	26.57
571.026	26.9
571.221	27.11
571.416	27.33
571.611	27.42
571.806	27.61
572.002	27.85
572.197	27.99
572.392	28
572.587	28.02
572.782	28.25
572.977	28.43
573.172	28.42
573.367	28.58
573.562	28.63
573.757	28.78
573.952	28.72
574.147	28.81
574.342	28.89
574.537	29.09
574.732	29.32
574.927	29.41
575.121	29.43
575.316	29.62
575.511	29.64
575.706	29.69
575.901	29.75
576.096	30
576.29	29.92
576.485	30.11
576.68	30.13
576.875	30.2
577.069	30.25
577.264	30.51
577.459	30.55
577.654	30.42
577.848	30.41
578.043	30.41
578.238	30.59
578.432	30.62
578.627	30.65
578.821	30.58
579.016	30.49
579.21	30.6
579.405	30.42
579.6	30.43
579.794	30.65
579.989	30.77
580.183	30.84
580.378	30.76
580.572	30.99
580.766	30.92
580.961	31.11
581.155	31.31
581.35	31.48
581.544	31.54
581.738	31.87
581.933	32.02
582.127	32.13
582.321	32.33
582.516	32.48
582.71	32.27
582.904	32.4
583.099	32.65
583.293	32.68
583.487	32.63
583.681	32.73
583.875	32.3
584.07	31.99
584.264	32
584.458	32.19
584.652	32.09
584.846	32.1
585.04	31.83
585.234	31.82
585.428	31.89
585.623	32.01
585.817	32.22
586.011	32.48
586.205	32.88
586.399	32.87
586.593	32.77
586.787	32.61
586.981	32.95
587.174	33.43
587.368	33.46
587.562	33.79
587.756	33.73
587.95	33.84
588.144	33.74
588.338	33.85
588.532	33.88
588.725	34.11
588.919	34.48
589.113	34.52
589.307	34.5
589.501	34.48
589.694	34.3
589.888	34.43
590.082	34.17
590.275	34.32
590.469	34.28
590.663	34.57
590.856	34.41
591.05	34.46
591.244	34.54
591.437	34.61
591.631	34.62
591.824	34.56
592.018	34.71
592.212	35.06
592.405	35.07
592.599	35.23
592.792	35.02
592.986	35.26
593.179	35.09
593.372	35.07
593.566	35.12
593.759	35.42
593.953	35.53
594.146	35.43
594.339	35.36
594.533	35.58
594.726	35.41
594.92	35.73
595.113	35.62
595.306	35.79
595.499	35.78
595.693	35.78
595.886	35.63
596.079	35.66
596.272	35.68
596.466	35.66
596.659	35.61
596.852	35.62
597.045	35.7
597.238	35.66
597.431	35.63
597.624	35.71
597.818	35.67
598.011	35.78
598.204	35.74
598.397	35.65
598.59	35.79
598.783	36.01
598.976	36.05
599.169	35.95
599.362	36.19
599.555	36.41
599.748	36.44
599.941	36.64
600.134	36.59
600.326	37.21
600.519	37.6
600.712	37.76
600.905	37.44
601.098	37.63
601.291	37.4
601.483	37.45
601.676	37.37
601.869	37.38
602.062	37.31
602.255	37.32
602.447	36.77
602.64	36.69
602.833	36.63
603.025	36.64
603.218	36.65
603.411	36.67
603.603	36.69
603.796	36.99
603.989	37.02
604.181	37.06
604.374	37.18
604.566	37.46
604.759	37.54
604.951	37.46
605.144	37.68
605.336	37.88
605.529	38.06
605.721	38.11
605.914	37.75
606.106	37.71
606.299	37.79
606.491	37.51
606.683	37.46
606.876	37.29
607.068	37.45
607.26	37.33
607.453	37.22
607.645	37.28
607.837	37.12
608.03	37.24
608.222	37.58
608.414	37.51
608.606	37.67
608.799	37.68
608.991	37.67
609.183	37.65
609.375	37.56
609.567	37.43
609.759	37.46
609.952	37.55
610.144	37.62
610.336	37.51
610.528	37.58
610.72	37.68
610.912	37.67
611.104	37.85
611.296	37.86
611.488	38.07
611.68	38.12
611.872	37.85
612.064	37.81
612.256	37.88
612.448	37.75
612.64	37.74
612.832	37.91
613.023	37.81
613.215	37.74
613.407	37.65
613.599	37.78
613.791	38.11
613.983	38.35
614.174	38.44
614.366	38.45
614.558	38.52
614.75	38.32
614.941	38.22
615.133	38.37
615.325	38.51
615.516	38.69
615.708	38.55
615.9	38.21
616.091	38.39
616.283	38.24
616.475	38.28
616.666	38.64
616.858	38.73
617.049	38.6
617.241	38.62
617.432	38.38
617.624	38.02
617.815	38.11
618.007	38.35
618.198	37.99
618.39	37.9
618.581	38.1
618.773	37.62
618.964	37.98
619.155	38.07
619.347	38.16
619.538	38.33
619.729	38.56
619.921	38.5
620.112	38.45
620.303	38.47
620.494	38.73
620.686	38.59
620.877	38.76
621.068	38.42
621.259	38.55
621.451	38.6
621.642	38.76
621.833	39.11
622.024	39.03
622.215	39.23
622.406	39.61
622.597	39.8
622.788	39.61
622.98	39.7
623.171	39.85
623.362	39.91
623.553	39.96
623.744	39.86
623.935	39.59
624.126	39.63
624.317	39.58
624.508	39.7
624.698	39.44
624.889	39.61
625.08	39.67
625.271	39.79
625.462	39.77
625.653	39.9
625.844	39.84
626.034	39.75
626.225	39.88
626.416	39.69
626.607	39.66
626.798	39.83
626.988	39.92
627.179	39.88
627.37	39.97
627.56	39.91
627.751	39.43
627.942	39.36
628.132	39.63
628.323	39.77
628.514	39.99
628.704	39.8
628.895	39.75
629.085	39.49
629.276	39.58
629.466	39.47
629.657	39.4
629.847	39.79
630.038	39.96
630.228	39.85
630.419	39.7
630.609	39.56
630.8	39.87
630.99	39.85
631.181	40.19
631.371	40.15
631.561	39.95
631.752	39.98
631.942	39.93
632.132	40.1
632.323	40.2
632.513	40.24
632.703	40.17
632.893	40.04
633.084	40.06
633.274	39.86
633.464	39.71
633.654	40.19
633.844	40.29
634.034	40.35
634.225	39.98
634.415	39.94
634.605	39.97
634.795	39.95
634.985	39.76
635.175	39.8
635.365	39.54
635.555	39.95
635.745	39.95
635.935	40.07
636.125	40.03
636.315	40.41
636.505	40.42
636.695	40.24
636.885	40.49
637.075	40.6
637.265	40.63
637.455	41.32
637.644	41.16
637.834	40.98
638.024	40.76
638.214	41.01
638.404	40.97
638.593	40.92
638.783	41.01
638.973	41.03
639.163	41.11
639.352	41.34
639.542	41.38
639.732	41.52
639.921	41.43
640.111	41.55
640.301	41.28
640.49	41.47
640.68	41.56
640.87	41.66
641.059	41.84
641.249	42.29
641.438	42.21
641.628	42.03
641.817	41.73
642.007	41.9
642.196	42.08
642.386	42.33
642.575	42.33
642.764	42.13
642.954	42.15
643.143	41.88
643.333	41.49
643.522	41.18
643.711	41.06
643.901	41.14
644.09	41.07
644.279	40.91
644.469	40.86
644.658	40.37
644.847	40.61
645.036	40.29
645.226	40.39
645.415	40.69
645.604	40.75
645.793	41.07
645.982	41.08
646.171	41.23
646.361	40.85
646.55	40.65
646.739	40.91
646.928	40.6
647.117	41.14
647.306	41.11
647.495	40.67
647.684	40.9
647.873	40.51
648.062	40.61
648.251	40.81
648.44	41.14
648.629	40.97
648.818	40.75
649.007	40.91
649.196	40.82
649.384	40.89
649.573	41.28
649.762	41.41
649.951	41.02
650.14	41.4
650.328	41.13
650.517	41.15
650.706	41.47
650.895	41.83
651.083	42
651.272	42.22
651.461	42.21
651.65	41.73
651.838	42.15
652.027	42.4
652.216	41.99
652.404	41.9
652.593	41.9
652.781	42.08
652.97	42.16
653.158	42.08
653.347	41.61
653.535	41.81
653.724	42.38
653.912	41.83
654.101	42.38
654.289	42.39
654.478	42.68
654.666	42.7
654.855	42.5
655.043	42.3
655.231	42.3
655.42	42.49
655.608	42.02
655.796	41.78
655.985	42.14
656.173	41.89
656.361	41.88
656.55	41.51
656.738	41.74
656.926	41.89
657.114	41.74
657.302	41.96
657.491	41.81
657.679	41.94
657.867	42.04
658.055	41.81
658.243	41.61
658.431	42.07
658.619	42.31
658.807	42.23
658.996	42.01
659.184	42.24
659.372	42.17
659.56	42.36
659.748	42.33
659.936	42.49
660.124	42.22
660.311	42.52
660.499	42.21
660.687	42.29
660.875	42.3
661.063	42.4
661.251	42.64
661.439	42.66
661.627	42.58
661.814	42.71
662.002	42.61
662.19	42.96
662.378	42.89
662.565	43.09
662.753	42.93
662.941	42.67
663.129	42.69
663.316	42.33
663.504	42.63
663.692	43
663.879	42.84
664.067	42.83
664.254	42.54
664.442	42.7
664.63	42.2
664.817	42.22
665.005	42.38
665.192	42.11
665.38	42.32
665.567	41.92
665.755	41.75
665.942	41.99
666.13	41.69
666.317	41.96
666.504	41.57
666.692	42.07
666.879	42.14
667.067	42.17
667.254	42.61
667.441	42.34
667.629	42.36
667.816	42.58
668.003	42.63
668.19	42.87
668.378	42.6
668.565	42.93
668.752	42.81
668.939	42.69
669.127	43.15
669.314	42.92
669.501	42.9
669.688	43.42
669.875	43.2
670.062	43.49
670.249	43.6
670.436	43.72
670.623	43.53
670.81	43.64
670.997	43.43
671.184	43.16
671.371	43.07
671.558	43.24
671.745	42.9
671.932	42.93
672.119	43.08
672.306	43.15
672.493	43.44
672.68	43.73
672.867	43.5
673.054	43.69
673.24	44.08
673.427	44.44
673.614	44.38
673.801	44.17
673.988	44.08
674.174	44.03
674.361	43.8
674.548	43.37
674.734	43.15
674.921	43.53
675.108	43.35
675.294	43.15
675.481	43.26
675.668	43.99
675.854	44.08
676.041	44
676.227	43.26
676.414	43.35
676.601	43.57
676.787	43.64
676.974	43.65
677.16	43.89
677.347	43.93
677.533	43.8
677.719	43.43
677.906	43.26
678.092	43.36
678.279	44.01
678.465	43.78
678.651	43.88
678.838	43.95
679.024	43.69
679.21	43.89
679.397	43.42
679.583	43.48
679.769	43.24
679.955	43.95
680.142	43.9
680.328	43.68
680.514	43.92
680.7	44.05
680.886	43.91
681.073	43.82
681.259	44.02
681.445	44.39
681.631	44.11
681.817	43.8
682.003	43.43
682.189	43.09
682.375	43.36
682.561	43.32
682.747	43.49
682.933	43.52
683.119	43.33
683.305	42.81
683.491	42.5
683.677	42.78
683.863	43.41
684.049	43.14
684.235	43.36
684.42	43.41
684.606	43.4
684.792	43.26
684.978	43.46
685.164	44.04
685.349	44.22
685.535	44.67
685.721	44.81
685.907	44.47
686.092	44.34
686.278	44.7
686.464	44.31
686.649	44.57
686.835	44.62
687.021	44.44
687.206	44.08
687.392	43.98
687.577	43.81
687.763	43.55
687.948	43.43
688.134	43.73
688.319	43.96
688.505	44.25
688.69	44.02
688.876	43.99
689.061	43.94
689.247	44.38
689.432	44.73
689.618	44.71
689.803	44.82
689.988	45
690.174	45.47
690.359	44.87
690.544	44.66
690.73	44.92
690.915	44.81
691.1	45.16
691.285	45
691.471	44.98
691.656	45.24
691.841	45.62
692.026	45.68
692.211	45.44
692.396	46.39
692.582	46.02
692.767	45.59
692.952	45.8
693.137	45.55
693.322	45.77
693.507	45.55
693.692	45.67
693.877	45.36
694.062	45.4
694.247	45.31
694.432	44.83
694.617	45.43
694.802	46
694.987	45.81
695.172	45.53
695.357	45.01
695.541	44.98
695.726	44.76
695.911	44.61
696.096	44.33
696.281	44.11
696.466	44.13
696.65	43.5
696.835	43.62
697.02	43.71
697.204	43.93
697.389	44.33
697.574	44.46
697.759	44.57
697.943	44.77
698.128	45.01
698.312	45.08
698.497	44.85
698.682	45.38
698.866	45.26
699.051	45.23
699.235	45.08
699.42	45.2
699.604	45.14
699.789	45.16
699.973	44.76
700.158	44.88
700.342	45.05
700.527	45.37
700.711	45.35
700.895	45.53
701.08	45.86
701.264	46.51
701.448	46.6
701.633	46.62
701.817	46.48
702.001	46.9
702.186	47.03
702.37	46.87
702.554	46.11
702.738	45.34
702.923	45
703.107	44.81
703.291	44.12
703.475	43.77
703.659	43.11
703.843	43.04
704.027	42.82
704.212	41.88
704.396	42.16
704.58	43.27
704.764	43.9
704.948	43.79
705.132	43.5
705.316	43.73
705.5	43.86
705.684	44.68
705.868	44.96
706.052	45.22
706.235	46.13
706.419	45.29
706.603	45.05
706.787	44.79
706.971	44.57
707.155	44.18
707.339	44.06
707.522	44.09
707.706	44.48
707.89	44.79
708.074	44.65
708.257	44.5
708.441	44.59
708.625	43.96
708.808	43.75
708.992	43.71
709.176	44.41
709.359	44.84
709.543	44.78
709.727	44.82
709.91	44.35
710.094	44.18
710.277	44.43
710.461	44.42
710.644	44.76
710.828	45.43
711.011	45.92
711.195	45.51
711.378	45.64
711.562	45.4
711.745	45
711.928	45.12
712.112	45.54
712.295	45.33
712.478	46.09
712.662	46.65
712.845	46.05
713.028	46.21
713.212	46.44
713.395	45.97
713.578	45.72
713.761	45.52
713.945	45.29
714.128	44.76
714.311	44.44
714.494	43.84
714.677	43.24
714.86	43.47
715.043	42.63
715.227	42.62
715.41	42.67
715.593	43.32
715.776	43.66
715.959	43.75
716.142	43.23
716.325	43.37
716.508	43.67
716.691	43.87
716.874	43.78
717.057	44.65
717.239	44.23
717.422	44.69
717.605	44.43
717.788	44.02
717.971	44.33
718.154	45.34
718.337	45.39
718.519	45.53
718.702	45.82
718.885	45.89
719.068	46.05
719.25	46.75
719.433	45.71
719.616	45.9
719.798	46.63
719.981	46.22
720.164	46.86
720.346	46.91
720.529	46.26
720.712	46.03
720.894	46.36
721.077	45.68
721.259	45.39
721.442	46.14
721.624	45.86
721.807	45.62
721.989	45.35
722.172	44.97
722.354	45.02
722.537	46.61
722.719	46.52
722.901	46.53
723.084	46.49
723.266	46.64
723.448	46.83
723.631	46.78
723.813	45.9
723.995	46.24
724.178	46.11
724.36	46.39
724.542	45.34
724.724	44.85
724.907	44.12
725.089	44.49
725.271	44.98
725.453	44.09
725.635	44.43
725.817	45.52
725.999	45.62
726.181	45.75
726.364	45.15
726.546	44.55
726.728	44.91
726.91	45.66
727.092	45.24
727.274	44.45
727.456	44.65
727.638	43.47
727.819	43.28
728.001	42.73
728.183	42.7
728.365	42.91
728.547	44.04
728.729	44.4
728.911	43.98
729.093	43.69
729.274	44.13
729.456	45.29
729.638	46.67
729.82	46.79
730.001	47.12
730.183	47.16
730.365	47.23
730.546	46.9
730.728	46.52
730.91	46.51
731.091	46.87
731.273	46.29
731.455	45.79
731.636	44.91
731.818	44.47
731.999	44.32
732.181	44.16
732.362	44.08
732.544	44.06
732.725	44.17
732.907	44.2
733.088	44.53
733.27	45.07
733.451	45.03
733.633	45
733.814	45.57
733.995	45.81
734.177	45.88
734.358	46.38
734.539	46.43
734.721	46.8
734.902	47.19
735.083	47.22
735.264	46.86
735.446	47.19
735.627	47.37
735.808	46.98
735.989	46.97
736.17	46.33
736.351	46.61
736.533	46.26
736.714	46.58
736.895	45.95
737.076	44.55
737.257	44.93
737.438	44.17
737.619	44.51
737.8	44.21
737.981	45.01
738.162	46.53
738.343	45.52
738.524	45.59
738.705	44.6
738.886	45.41
739.067	46.98
739.247	46.05
739.428	46.03
739.609	46.53
739.79	47.3
739.971	46.15
740.151	45.4
740.332	45.26
740.513	44.71
740.694	44.86
740.874	44.84
741.055	44.1
741.236	45.07
741.417	45.28
741.597	44.95
741.778	43.66
741.958	44.16
742.139	44.18
742.32	44.69
742.5	45.49
742.681	45.17
742.861	45.47
743.042	44.88
743.222	45.32
743.403	44.73
743.583	43.96
743.764	44.64
743.944	44.17
744.124	44.26
744.305	44.21
744.485	43.71
744.666	44.33
744.846	43.16
745.026	44.16
745.207	44.57
745.387	45.72
745.567	46.41
745.747	46.37
745.928	47.28
746.108	47.23
746.288	47.62
746.468	47.84
746.648	48.06
746.829	49.22
747.009	49.75
747.189	48.04
747.369	47.98
747.549	47.55
747.729	48.09
747.909	47.91
748.089	47.91
748.269	47.44
748.449	47.24
748.629	47.53
748.809	46.97
748.989	46.7
749.169	46.86
749.349	46.99
749.529	47.53
749.709	46.64
749.889	46.19
750.068	45.51
750.248	46.52
750.428	47.19
750.608	45.87
750.788	45.95
750.967	46.19
751.147	47.1
751.327	46.77
751.507	46.34
751.686	46.9
751.866	47.44
752.046	48.6
752.225	47.97
752.405	47.18
752.585	47.49
752.764	47.55
752.944	46.07
753.123	45.75
753.303	44.7
753.482	44.85
753.662	45.3
753.841	45.62
754.021	46.04
754.2	46.17
754.38	46.37
754.559	46.43
754.739	46.08
754.918	46.84
755.097	46.11
755.277	47.4
755.456	47.55
755.635	47.01
755.815	46.5
755.994	45.93
756.173	45.14
756.352	45.79
756.532	45.5
756.711	45.05
756.89	45.06
757.069	45.24
757.248	45.12
757.427	45.56
757.607	44.96
757.786	45.97
757.965	45.17
758.144	45.94
758.323	46.55
758.502	47.01
758.681	47.84
758.86	47.74
759.039	47.95
759.218	47.28
759.397	47.23
759.576	48.25
759.755	47.01
759.934	47.44
760.113	47.47
760.291	46.37
760.47	46.42
760.649	45.89
760.828	47.16
761.007	47.25
761.186	47.3
761.364	46.55
761.543	46.33
761.722	46.82
761.901	46.84
762.079	46.07
762.258	46.04
762.437	46.98
762.615	47.02
762.794	45.92
762.972	45.84
763.151	46.4
763.33	47.06
763.508	47.45
763.687	47.34
763.865	47.19
764.044	47.79
764.222	47.94
764.401	47.69
764.579	47.52
764.758	47.98
764.936	47.8
765.114	47.22
765.293	47.47
765.471	47.36
765.65	47.01
765.828	47.35
766.006	47.68
766.184	48.22
766.363	48.07
766.541	48.32
766.719	48.39
766.898	48.43
767.076	49.04
767.254	48.41
767.432	47.6
767.61	47.34
767.788	46.89
767.967	45.93
768.145	44.51
768.323	45.32
768.501	45.88
768.679	45.93
768.857	45.94
769.035	46.56
769.213	45.46
769.391	46.71
769.569	48.21
769.747	48.73
769.925	48.69
770.103	49.95
770.281	48.93
770.459	48.89
770.636	48.42
770.814	48.44
770.992	47.78
771.17	49.41
771.348	48.71
771.525	47
771.703	46.4
771.881	46.81
772.059	46.16
772.236	46.45
772.414	46.25
772.592	46.64
772.769	46.49
772.947	46.68
773.125	46.3
773.302	44.62
773.48	45.38
773.657	44.69
773.835	44.01
774.013	44.69
774.19	44.38
774.368	41.98
774.545	40.85
774.723	42.62
774.9	41.52
775.077	41.7
775.255	42.81
775.432	43.61
775.61	44.69
775.787	44.25
775.964	44.25
776.142	43.29
776.319	45.34
776.496	46.68
776.674	45.93
776.851	46.35
777.028	46.62
777.205	47.51
777.382	47.34
777.56	47.83
777.737	48.14
777.914	47.5
778.091	47.36
778.268	46.7
778.445	46.67
778.622	45.95
778.8	46.56
778.977	46.77
779.154	41.06
779.331	40.54
779.508	38.6
779.685	37.52
779.862	37.66
780.038	36.92
780.215	37.19
780.392	36.58
780.569	36.82
780.746	36.49
780.923	36.17
781.1	41.61
781.277	40.42
781.453	41.72
781.63	42.48
781.807	43.5
781.984	44.81
782.16	44.52
782.337	43.89
782.514	44.68
782.691	45.69
782.867	45.99
783.044	45.89
783.221	48.23
783.397	48.11
783.574	49.63
783.75	49.99
783.927	49.57
784.103	50.93
784.28	52.16
784.456	53.53
784.633	53.3
784.809	51.56
784.986	52.04
785.162	50.52
785.339	50.7
785.515	49.61
785.692	47.13
785.868	46.7
786.044	46.87
786.221	46.26
786.397	45.23
786.573	42.69
786.749	43.07
786.926	42.52
787.102	42.65
787.278	40.17
787.454	41.29
787.631	43.24
787.807	43.49
787.983	43.87
788.159	43.46
788.335	40.35
788.511	44.13
788.687	44.18
788.863	44.92
789.039	43.3
789.216	45.19
789.392	44.8
789.568	43.27
789.744	43.48
789.919	42.29
790.095	42.55
790.271	43.8
790.447	40.28
790.623	39.39
790.799	39.92
790.975	42.39
791.151	42.53
791.327	42.55
791.502	43.44
791.678	43.9
791.854	43.3
792.03	42.34
792.205	43.37
792.381	45.4
792.557	45.3
792.733	44.68
792.908	44.23
793.084	44.28
793.259	43.09
793.435	43.46
793.611	43.02
793.786	42.24
793.962	44.11
794.137	42.98
794.313	42.38
794.488	45.52
794.664	47.16
794.839	47.4
795.015	46.85
795.19	48.59
795.366	49.31
795.541	48.09
795.716	48.33
795.892	46.14
796.067	47.27
796.242	47.13
796.418	44.79
796.593	44.75
796.768	47.19
796.944	46.58
797.119	46.26
797.294	45.75
797.469	47.47
797.644	49.1
797.82	49.34
797.995	49.38
798.17	51.05
798.345	51.27
798.52	49.85
798.695	46.57
798.87	46.64
799.045	45.55
799.22	44.84
799.395	44.93
799.57	44.7
799.745	45.82
799.92	45.58
800.095	45.74
800.27	47.28
800.445	48.95
800.62	50.09
800.795	51.59
800.97	52.38
801.145	51.75
801.319	52.05
801.494	51.95
801.669	51.33
801.844	51.67
802.018	48.59
802.193	47.4
802.368	42.66
802.543	43.05
802.717	40.91
802.892	42.09
803.067	43.51
803.241	44.61
803.416	45.31
803.59	45.95
803.765	47.48
803.94	48.89
804.114	46.49
804.289	50.14
804.463	49.66
804.638	49.39
804.812	49.74
804.986	50.13
805.161	48.77
805.335	48.16
805.51	47.09
805.684	45.45
805.858	44.74
806.033	45.56
806.207	45.62
806.381	44.37
806.556	45.37
806.73	43.92
806.904	41.5
807.078	41.15
807.253	40.14
807.427	40.56
807.601	40.02
807.775	41.88
807.949	42.54
808.123	41.48
808.298	42.21
808.472	44.56
808.646	46.88
808.82	51.12
808.994	52.8
809.168	53.36
809.342	55.55
809.516	56.86
809.69	55.01
809.864	55.7
810.038	57.49
810.212	58.52
810.385	56.26
810.559	53.88
810.733	52.08
810.907	49.07
811.081	48.65
811.255	45.35
811.428	43.33
811.602	45.78
811.776	46.08
811.95	45.01
812.123	45.19
812.297	46.61
812.471	46.23
812.644	47.32
812.818	45.13
812.992	46.38
813.165	48.06
813.339	50.73
813.512	48.17
813.686	49.02
813.86	47.69
814.033	45.59
814.207	45.34
814.38	43.28
814.554	41.56
814.727	43.2
814.9	41.57
815.074	37.71
815.247	33.88
815.421	31.95
815.594	29.59
815.767	30.81
815.941	32.33
816.114	31.35
816.287	34.82
816.46	32.93
816.634	34.62
816.807	38.92
816.98	42.07
817.153	46.88
817.327	50.62
817.5	48.96
817.673	48.79
817.846	47.61
818.019	49.72
818.192	49.19
818.365	51.59
818.538	51.53
818.711	49.64
818.884	48.93
819.057	46.53
819.23	44.62
819.403	46.37
819.576	46.12
819.749	46.16
819.922	46.42
820.095	46.62
820.268	45.19
820.441	45.39
820.614	46.26
820.786	46.3
820.959	45.99
821.132	47.45
821.305	48.08
821.477	47.17
821.65	48.27
821.823	47.78
821.996	48.23
822.168	48.56
822.341	48.27
822.514	48.38
822.686	48.69
822.859	49.11
823.031	48.8
823.204	48.69
823.376	49.27
823.549	49.11
823.722	48.97
823.894	48.34
824.067	48.52
824.239	48.7
824.411	48.67
824.584	48.56
824.756	48.15
824.929	47.96
825.101	47.98
825.273	47.36
825.446	47.07
825.618	46.95
825.79	47.55
825.963	47.37
826.135	47.63
826.307	47.49
826.479	47.54
826.652	48.07
826.824	48.71
826.996	47.93
827.168	48.19
827.34	48.81
827.512	48.84
827.684	48.77
827.856	49.18
828.029	48.91
828.201	48.61
828.373	48.85
828.545	48.8
828.717	48.33
828.889	49.61
829.061	49.94
829.232	49.18
829.404	49.88
829.576	50.22
829.748	49.69
829.92	50.11
830.092	50.69
830.264	51.19
830.436	50.61
830.607	50.23
830.779	49.04
830.951	49.46
831.123	50.67
831.294	50.2
831.466	49.95
831.638	49.81
831.809	47.85
831.981	47.63
832.153	46.91
832.324	47.09
832.496	47.09
832.667	46.74
832.839	46.13
833.011	43.43
833.182	44.21
833.354	46.88
833.525	46.27
833.697	48.33
833.868	47.07
834.039	45.81
834.211	47.11
834.382	47.81
834.554	47.18
834.725	47.07
834.896	48.13
835.068	48.45
835.239	47.03
835.41	49.09
835.581	48.17
835.753	49.33
835.924	50.16
836.095	48
836.266	48.1
836.438	48.47
836.609	46.46
836.78	46.28
836.951	44.48
837.122	42.32
837.293	40.05
837.464	41.14
837.635	42.95
837.806	40.99
837.977	44.8
838.148	43.52
838.319	44.51
838.49	46.63
838.661	45.64
838.832	46.25
839.003	48.72
839.174	48.66
839.345	50.79
839.516	46.19
839.687	50.7
839.857	46.97
840.028	45.33
840.199	44.92
840.37	47.54
840.54	51.69
840.711	50.02
840.882	51.23
841.053	53.42
841.223	46.76
841.394	48.07
841.564	49.24
841.735	48.37
841.906	51.93
842.076	53.92
842.247	51.64
842.417	46.76
842.588	46.54
842.758	43.64
842.929	40.27
843.099	44.43
843.27	47.64
843.44	45.91
843.611	44.37
843.781	45.2
843.951	46.57
844.122	48.4
844.292	51.44
844.462	56.42
844.633	55.45
844.803	50.34
844.973	48.18
845.144	45.52
845.314	40.22
845.484	43.92
845.654	45.47
845.824	41.47
845.995	36.37
846.165	37.61
846.335	35.39
846.505	35.32
846.675	52.49
846.845	60.44
847.015	55.2
847.185	62.25
847.355	62.08
847.525	50.93
847.695	44.56
847.865	56.07
848.035	53.05
848.205	58.45
848.375	64.29
848.545	45.53
848.715	37.04
848.884	45.82
849.054	48.87
849.224	54.27
849.394	64.58
849.564	71.86
849.733	74.63
849.903	80.11
850.073	75.32
850.243	73.7
850.412	77.07
850.582	83.24
850.752	80.02
850.921	68.84
851.091	62.93
851.26	53.48
851.43	61.61
851.599	57.2
851.769	59.28
851.939	53.63
852.108	63.31
852.278	65.74
852.447	68.53
852.616	73.4
852.786	77.91
852.955	79.6
853.125	81.07
853.294	69.32
853.463	63.79
853.633	65.82
853.802	69.72
853.971	61.46
854.141	60.54
854.31	51.58
854.479	54.64
854.648	56.68
854.818	65.93
854.987	71.03
855.156	79.44
855.325	84.72
855.494	73.17
855.663	69.09
855.832	67.46
856.001	70.79
856.171	77.48
856.34	68.24
856.509	69.69
856.678	67.25
856.847	66.45
857.016	68.16
857.185	65.4
857.353	64.49
857.522	66.22
857.691	64.82
857.86	66.5
858.029	65.93
858.198	64.61
858.367	56.52
858.535	50.29
858.704	43.6
858.873	35.09
859.042	25.65
859.21	34.44
859.379	31.96
859.548	27.02
859.717	23.64
859.885	24.39
860.054	22.05
860.222	17.63
860.391	15.67
860.56	20.65
860.728	20.95
860.897	31.15
861.065	24.25
861.234	31.27
861.402	30.18
861.571	34.06
861.739	27.55
861.908	33.95
862.076	43.5
862.244	43.52
862.413	43.49
862.581	52.53
862.749	47.41
862.918	46.46
863.086	48.35
863.254	53.17
863.423	54.5
863.591	49.33
863.759	39.62
863.927	36.37
864.096	43.71
864.264	53.29
864.432	65.86
864.6	77.71
864.768	77.22
864.936	73.38
865.104	71.73
865.272	69.9
865.44	61.09
865.608	70.44
865.776	55.28
865.944	54.45
866.112	40.62
866.28	28.23
866.448	10.05
866.616	8.77
866.784	11.99
866.952	-8.62
867.12	0.44
867.288	19.33
867.455	20.56
867.623	33.95
867.791	27.39
867.959	28.04
868.127	27.54
868.294	37.68
868.462	39.96
868.63	36.63
868.797	39.54
868.965	41.43
869.133	29.55
869.3	24.88
869.468	17.83
869.636	29.59
869.803	34.9
869.971	37.87
870.138	33.24
870.306	36.65
870.473	41.77
870.641	43.08
870.808	42.85
870.975	47.65
871.143	46.84
871.31	41.85
871.478	29.95
871.645	15.67
871.812	7.17
871.98	4.51
872.147	-0.2
872.314	-4.08
872.482	-0.22
872.649	-10.36
872.816	-15.14
872.983	-12.39
873.15	-6.94
873.318	10.56
873.485	33.46
873.652	33.88
873.819	39.05
873.986	37.78
874.153	37.93
874.32	40.47
874.487	46.22
874.654	43.17
874.821	47.21
874.988	42.51
875.155	40.68
875.322	30.97
875.489	37.37
875.656	37.2
875.823	37.96
875.99	47.85
876.157	49.63
876.324	55.85
876.49	63.62
876.657	57.67
876.824	67.29
876.991	68.62
877.157	79.64
877.324	72.38
877.491	73.06
877.658	73.16
877.824	65.61
877.991	56.28
878.157	49.87
878.324	50.83
878.491	55.72
878.657	57.82
878.824	52.99
878.99	41.13
879.157	43.28
879.323	43.53
879.49	45.9
879.656	47.87
879.823	47.71
879.989	44.88
880.156	47.33
880.322	45.63
880.488	43.35
880.655	46.72
880.821	58.3
880.987	52.8
881.154	56.12
881.32	54.04
881.486	53.1
881.652	50.84
881.819	51.29
881.985	50.93
882.151	49.38
882.317	51.11
882.483	47.99
882.649	47.95
882.816	50.44
882.982	49.39
883.148	48.68
883.314	48.24
883.48	49.53
883.646	49.88
883.812	50.29
883.978	50.85
884.144	49.43
884.31	49.61
884.476	48.22
884.642	47.1
884.807	46.25
884.973	46.62
885.139	45.9
885.305	45.17
885.471	46.91
885.637	44.09
885.802	43.44
885.968	44.02
886.134	43.91
886.3	43.34
886.465	46.92
886.631	46.75
886.797	45.88
886.962	45.9
887.128	45.97
887.293	43.3
887.459	45.59
887.625	48.12
887.79	48.84
887.956	50.48
888.121	52.66
888.287	45.84
888.452	46.52
888.618	46.98
888.783	50.72
