Data from LC_252_Reflection_1.txt Node
Date: Thu Nov 19 23:09:15 EST 2015
User: robert
Spectrometer: USB4E03001
Autoset integration time: false
Trigger mode: 4
Integration Time (sec): 1.000000E-1
Scans to average: 15
Electric dark correction enabled: true
Nonlinearity correction enabled: false
Boxcar width: 5
Stray light correction enabled: false
XAxis mode: Wavelengths
Stop averaging: false
Number of Pixels in Spectrum: 3648
>>>>>Begin Spectral Data<<<<<
177.566	36.46
177.785	21.21
178.005	36.51
178.225	29.94
178.445	40.41
178.665	42.1
178.885	73.93
179.105	-358.93
179.324	-179.17
179.544	-122.28
179.764	44.57
179.984	15.45
180.204	122.82
180.423	93.64
180.643	114.07
180.863	38.68
181.083	45.37
181.302	-5.47
181.522	40.14
181.742	37.32
181.961	47.36
182.181	34.24
182.401	19.81
182.621	-43.48
182.84	-112.4
183.06	-109.6
183.279	-55.54
183.499	3.98
183.719	-3.12
183.938	-616.16
184.158	464.24
184.377	108.58
184.597	124.28
184.816	-27.36
185.036	89.2
185.256	-857.78
185.475	-27.27
185.695	13.44
185.914	-4.49
186.134	-64.4
186.353	28.68
186.572	53.23
186.792	-50.25
187.011	1397.99
187.231	473.42
187.45	-22.43
187.67	12.83
187.889	2.23
188.108	28.99
188.328	31.23
188.547	-57.39
188.766	-55.48
188.986	-185.21
189.205	1991.18
189.424	162.49
189.644	127.93
189.863	72.6
190.082	55.02
190.302	61.29
190.521	74.87
190.74	75.15
190.959	73.35
191.178	70.17
191.398	37.12
191.617	57.06
191.836	51.87
192.055	70.18
192.274	66.81
192.494	63.77
192.713	54.5
192.932	58.99
193.151	63.4
193.37	46.3
193.589	56.29
193.808	72.5
194.027	71.33
194.246	63.77
194.465	75.01
194.685	76.55
194.904	70.19
195.123	87.13
195.342	92.35
195.561	74.94
195.78	76.12
195.999	70.52
196.218	62.89
196.436	70.8
196.655	79.5
196.874	75.34
197.093	98.6
197.312	124.44
197.531	124.57
197.75	132.65
197.969	99.46
198.188	-13.09
198.407	26.54
198.625	-4.98
198.844	23
199.063	-224.11
199.282	-2.13
199.501	-33.81
199.719	-45.01
199.938	123.26
200.157	99.69
200.376	-22.01
200.594	500
200.813	20.75
201.032	97.35
201.251	-113.46
201.469	-137.06
201.688	30.47
201.907	56
202.125	105.56
202.344	128.98
202.563	128.12
202.781	104.15
203	66.28
203.218	74.73
203.437	35.07
203.656	82.26
203.874	120.18
204.093	-18.17
204.311	-8.45
204.53	9.48
204.748	-6.88
204.967	-1.29
205.185	-27.24
205.404	-55.67
205.622	-59.07
205.841	14.52
206.059	-64.2
206.278	-106.97
206.496	-88.59
206.715	-65.82
206.933	-48.22
207.151	-1.98
207.37	-56.3
207.588	-55.71
207.806	13.33
208.025	12.62
208.243	-154.84
208.461	-248.26
208.68	-262.8
208.898	-119.89
209.116	-98.86
209.335	-170.76
209.553	-635.9
209.771	1373.95
209.989	-236.57
210.208	393.95
210.426	648.02
210.644	-50.19
210.862	13.05
211.081	52.43
211.299	47.7
211.517	28.29
211.735	22.79
211.953	20.21
212.171	-10.42
212.39	-1.01
212.608	8.24
212.826	30.4
213.044	19.74
213.262	11.49
213.48	-0.32
213.698	11
213.916	47.55
214.134	36.26
214.352	110.24
214.57	170.72
214.788	593.65
215.006	458.78
215.224	309.2
215.442	439.35
215.66	144.59
215.878	145.9
216.096	37.76
216.314	-157.29
216.532	-38.27
216.75	-579.7
216.968	161.75
217.185	830.58
217.403	1585.46
217.621	2541.37
217.839	-159.93
218.057	-39.6
218.275	21.75
218.492	6.48
218.71	18.58
218.928	-5.68
219.146	-23.99
219.363	7.36
219.581	-5.94
219.799	-4.29
220.017	7.56
220.234	10.22
220.452	13.24
220.67	-3.51
220.887	13.11
221.105	24.53
221.323	33.33
221.54	43.78
221.758	37.29
221.976	38.73
222.193	45.22
222.411	31.13
222.629	26.57
222.846	16.93
223.064	32.97
223.281	30.35
223.499	10.51
223.716	0.37
223.934	-2.9
224.151	3.65
224.369	2.43
224.586	-19.35
224.804	-5.13
225.021	-10.47
225.239	-5.54
225.456	-13.32
225.674	-18.38
225.891	-13.71
226.108	-4.73
226.326	-9.86
226.543	-10.99
226.76	-19.57
226.978	3.12
227.195	0.42
227.413	3.56
227.63	2.53
227.847	-2.29
228.064	1.42
228.282	7.11
228.499	9.28
228.716	12.06
228.934	8.94
229.151	10.72
229.368	10.79
229.585	9.93
229.802	9.21
230.02	7.91
230.237	8.88
230.454	9.24
230.671	5.78
230.888	4.64
231.105	1.48
231.323	4.57
231.54	1.17
231.757	-2.23
231.974	-1.62
232.191	-0.83
232.408	1.26
232.625	3.26
232.842	4.68
233.059	8.09
233.276	8.64
233.493	8.72
233.71	3.89
233.927	9.2
234.144	10.72
234.361	8.17
234.578	7.71
234.795	7.94
235.012	6.37
235.229	-0.68
235.446	-0.16
235.663	-4.76
235.879	-5.78
236.096	-5.02
236.313	-6.98
236.53	-1.91
236.747	-1.27
236.964	4.31
237.181	0.79
237.397	5.45
237.614	11.49
237.831	16.43
238.048	21.13
238.264	19.58
238.481	19.6
238.698	17.25
238.915	18.04
239.131	14.17
239.348	10.29
239.565	16.05
239.781	16.21
239.998	13.82
240.215	8.89
240.431	6.45
240.648	10.29
240.865	10.54
241.081	9.86
241.298	8.6
241.514	9.95
241.731	10.04
241.947	9.77
242.164	9.08
242.38	10.63
242.597	11.55
242.814	12.55
243.03	10.45
243.246	10.91
243.463	11.25
243.679	10.45
243.896	10.55
244.112	10.92
244.329	9.87
244.545	9.75
244.762	9.93
244.978	10.42
245.194	9.5
245.411	10.77
245.627	10.52
245.843	11.18
246.06	12.3
246.276	11.43
246.492	10.87
246.709	11.44
246.925	11.36
247.141	10.55
247.357	10.28
247.574	10.89
247.79	11.62
248.006	11.71
248.222	11.01
248.439	10.64
248.655	10.64
248.871	11.3
249.087	10.87
249.303	9.96
249.519	9.34
249.736	9.74
249.952	8.35
250.168	5.99
250.384	4.81
250.6	4.74
250.816	4.11
251.032	4.38
251.248	4.82
251.464	5.15
251.68	6.27
251.896	6.6
252.112	6.13
252.328	6.47
252.544	7.87
252.76	9.32
252.976	10.87
253.192	10.29
253.408	10.4
253.624	10.42
253.84	9.78
254.056	9.44
254.272	10.33
254.487	10.23
254.703	12.01
254.919	11.36
255.135	9.53
255.351	8.81
255.567	11.59
255.782	12.15
255.998	12.34
256.214	11.82
256.43	10.55
256.646	11.55
256.861	11.74
257.077	10.76
257.293	12.01
257.508	12.7
257.724	12.43
257.94	12.38
258.155	13.16
258.371	12.31
258.587	12
258.802	12.64
259.018	12.53
259.234	12.37
259.449	12.23
259.665	11.82
259.88	11.16
260.096	11.62
260.312	10.85
260.527	10.24
260.743	10.16
260.958	10.24
261.174	10.24
261.389	9.52
261.605	9.59
261.82	9.03
262.036	8.59
262.251	8.26
262.466	7.91
262.682	7.79
262.897	8.17
263.113	6.93
263.328	7.52
263.543	7.59
263.759	7.47
263.974	7.64
264.189	8.7
264.405	7.65
264.62	7.9
264.835	7.66
265.051	6.36
265.266	5.61
265.481	6.44
265.696	6.31
265.912	5.53
266.127	6.66
266.342	5.47
266.557	5.63
266.773	6.43
266.988	6.84
267.203	5.61
267.418	7.3
267.633	7.55
267.848	7.12
268.064	7.1
268.279	7.41
268.494	7.45
268.709	7.35
268.924	5.58
269.139	5.11
269.354	4.83
269.569	3.85
269.784	2.76
269.999	2.71
270.214	4.47
270.429	4.41
270.644	4.78
270.859	4.78
271.074	4.66
271.289	5.75
271.504	6.94
271.719	7.76
271.934	9.3
272.149	10.23
272.363	10.79
272.578	11.04
272.793	10.22
273.008	9.1
273.223	9.12
273.438	10.59
273.653	10.11
273.867	9.52
274.082	9.38
274.297	8.53
274.512	8.63
274.726	8.53
274.941	7.34
275.156	7.93
275.371	7.68
275.585	7.65
275.8	6.31
276.015	7.05
276.229	7.72
276.444	7.62
276.659	7.2
276.873	6.82
277.088	7.45
277.302	6.88
277.517	6.56
277.732	7.9
277.946	8.45
278.161	8.43
278.375	9.42
278.59	8.98
278.804	8.19
279.019	9.34
279.233	9.75
279.448	8.58
279.662	9.29
279.877	10.01
280.091	10.02
280.306	8.44
280.52	9.45
280.735	8.88
280.949	9.62
281.163	10.12
281.378	10.33
281.592	10.4
281.806	10.68
282.021	10.97
282.235	11.05
282.449	9.98
282.664	11.02
282.878	10.45
283.092	9.76
283.307	9.42
283.521	8.69
283.735	9.01
283.949	9.58
284.164	8.25
284.378	7.3
284.592	6.81
284.806	7.95
285.02	7.77
285.234	8.46
285.449	8.23
285.663	8.37
285.877	9.3
286.091	8.83
286.305	7.44
286.519	8.49
286.733	8.34
286.947	8.92
287.161	7.92
287.375	7.95
287.589	7.3
287.803	7.93
288.017	8.2
288.231	9.38
288.445	9.21
288.659	9.88
288.873	9.49
289.087	9.76
289.301	9.73
289.515	10.33
289.729	9.62
289.943	9.48
290.157	10.19
290.371	9.32
290.584	8.18
290.798	8.3
291.012	8.8
291.226	9.42
291.44	11.15
291.654	10.61
291.867	11.27
292.081	11.67
292.295	11.61
292.509	11.26
292.722	11.89
292.936	10.63
293.15	10.02
293.364	11.06
293.577	11.12
293.791	9.58
294.005	10.19
294.218	9.79
294.432	9.98
294.645	9.81
294.859	9.39
295.073	8.85
295.286	9.92
295.5	10.67
295.713	8.97
295.927	8.47
296.14	8.02
296.354	7.62
296.568	7.95
296.781	7.98
296.994	8.6
297.208	8.49
297.421	9.37
297.635	9.47
297.848	8.86
298.062	9.87
298.275	10.09
298.489	11.65
298.702	12.37
298.915	12.42
299.129	12.6
299.342	12.21
299.555	12.45
299.769	12.15
299.982	12.27
300.195	12.91
300.409	12.05
300.622	11.45
300.835	11.01
301.048	10.91
301.262	11.09
301.475	9.89
301.688	8.83
301.901	9.08
302.115	9.09
302.328	9.74
302.541	9.38
302.754	9.09
302.967	10.52
303.18	9.89
303.393	8.85
303.607	9.1
303.82	10.67
304.033	13.1
304.246	13.72
304.459	13.33
304.672	12.84
304.885	13.88
305.098	14.65
305.311	14.3
305.524	14.98
305.737	15.17
305.95	14.78
306.163	13.62
306.376	12.17
306.589	11.88
306.802	11.31
307.015	10.83
307.228	9.72
307.44	10.07
307.653	9.89
307.866	9.2
308.079	10.11
308.292	10.31
308.505	11.26
308.718	11.09
308.93	10.03
309.143	10.72
309.356	10.07
309.569	10.44
309.781	9.94
309.994	9.68
310.207	9.24
310.42	9.75
310.632	9.28
310.845	9.25
311.058	9.92
311.27	10.47
311.483	10.58
311.696	11.24
311.908	12.02
312.121	11.7
312.333	12.65
312.546	12.44
312.759	11.96
312.971	12.53
313.184	12.13
313.396	12.02
313.609	12.73
313.821	13.03
314.034	13.98
314.246	12.91
314.459	13.29
314.671	12.23
314.884	12.96
315.096	12.66
315.309	12.22
315.521	12.84
315.733	13.31
315.946	13.29
316.158	13.83
316.371	12.81
316.583	13.58
316.795	12.88
317.008	12.29
317.22	11.97
317.432	12.23
317.644	12.35
317.857	11.1
318.069	10.21
318.281	9.34
318.494	9.54
318.706	9.33
318.918	8.31
319.13	8.73
319.342	8.31
319.555	8.79
319.767	8.64
319.979	9.27
320.191	9.97
320.403	10.68
320.615	10.91
320.827	9.32
321.039	7.8
321.252	7.86
321.464	9.04
321.676	10.2
321.888	9.66
322.1	10.66
322.312	10.16
322.524	11.14
322.736	10.27
322.948	10.78
323.16	11.99
323.372	13.38
323.584	14.09
323.796	13.17
324.007	13.04
324.219	14.08
324.431	13.32
324.643	12.86
324.855	13.4
325.067	13.81
325.279	13.51
325.491	13.61
325.702	13.88
325.914	12.79
326.126	14.13
326.338	15.1
326.55	14.24
326.761	14.27
326.973	14.78
327.185	13.96
327.396	14.02
327.608	14.55
327.82	14.11
328.032	13.73
328.243	14.84
328.455	13.55
328.666	12.74
328.878	13.34
329.09	13.1
329.301	14.03
329.513	14.65
329.725	14.6
329.936	14.17
330.148	14.29
330.359	14.17
330.571	13.47
330.782	13.24
330.994	13.84
331.205	13.42
331.417	14.02
331.628	13.63
331.84	13.28
332.051	13.44
332.262	13.42
332.474	13.42
332.685	13.74
332.897	15.65
333.108	16.11
333.319	16.62
333.531	17.08
333.742	16.86
333.953	16.58
334.165	16.98
334.376	17.45
334.587	17.83
334.799	16.51
335.01	16.31
335.221	14.72
335.432	14.82
335.644	13.43
335.855	13.53
336.066	13.62
336.277	13.44
336.488	12.81
336.7	12.15
336.911	11.44
337.122	12.95
337.333	13.62
337.544	13.32
337.755	13.3
337.966	13.7
338.177	13.68
338.388	13.54
338.599	13.4
338.811	13.29
339.022	12.77
339.233	12.41
339.444	12.1
339.655	12.02
339.866	12.61
340.076	12.43
340.287	12.75
340.498	12.52
340.709	12.19
340.92	11.82
341.131	12.59
341.342	13.37
341.553	14.41
341.764	14.23
341.975	14
342.185	14.49
342.396	14.56
342.607	14.24
342.818	14.06
343.029	15.08
343.239	15.79
343.45	14.73
343.661	15.22
343.872	14.62
344.082	14.43
344.293	15.03
344.504	15
344.714	15.11
344.925	14.91
345.136	14.56
345.346	12.86
345.557	12.52
345.768	12.62
345.978	12.27
346.189	11.51
346.399	11.48
346.61	10.47
346.821	10.1
347.031	9.79
347.242	10.31
347.452	10.93
347.663	11.66
347.873	12.26
348.084	12.73
348.294	12.67
348.504	13.58
348.715	14.15
348.925	14.79
349.136	14.78
349.346	15.08
349.557	14.4
349.767	13.88
349.977	14.96
350.188	14.77
350.398	14.38
350.608	14.18
350.819	14.24
351.029	13.73
351.239	13.46
351.449	12.92
351.66	12.52
351.87	12.86
352.08	13.22
352.29	13.02
352.501	12.02
352.711	12.16
352.921	12.01
353.131	11.24
353.341	10.56
353.552	11.16
353.762	11.4
353.972	11.4
354.182	11.21
354.392	11.09
354.602	10.09
354.812	10.67
355.022	10.78
355.232	10.92
355.442	11.41
355.652	11.64
355.862	10.54
356.072	10.74
356.282	11.49
356.492	11.21
356.702	10.98
356.912	11.46
357.122	11.56
357.332	11.36
357.542	11.12
357.752	10.97
357.962	11.1
358.171	11.88
358.381	12.37
358.591	12.24
358.801	12.43
359.011	12.65
359.221	12.7
359.43	12.3
359.64	12.46
359.85	12.71
360.06	13.28
360.269	13.77
360.479	13.31
360.689	12.51
360.899	12.06
361.108	12.15
361.318	11.93
361.528	11.57
361.737	11.85
361.947	11.85
362.156	11.67
362.366	11.37
362.576	11.1
362.785	11.24
362.995	11.1
363.204	10.98
363.414	10.8
363.623	10.8
363.833	11.09
364.042	10.77
364.252	10.8
364.461	10.31
364.671	9.88
364.88	10.03
365.09	10.11
365.299	10.76
365.509	11.2
365.718	11.17
365.927	11.33
366.137	11.14
366.346	11.39
366.555	11.02
366.765	11.94
366.974	11.9
367.183	11.85
367.393	11.54
367.602	12.19
367.811	12.21
368.021	12.2
368.23	11.52
368.439	11.12
368.648	11.04
368.857	11.37
369.067	11.05
369.276	11.78
369.485	11.28
369.694	11.09
369.903	9.79
370.112	9.55
370.321	9.6
370.531	10.25
370.74	10.2
370.949	10.62
371.158	9.9
371.367	9.76
371.576	9.44
371.785	9.79
371.994	10.12
372.203	10.1
372.412	10.3
372.621	10.34
372.83	10.35
373.039	10.7
373.248	10.36
373.457	11.35
373.666	11.47
373.874	11.58
374.083	11.66
374.292	11.49
374.501	11.88
374.71	11.55
374.919	11.13
375.128	11.26
375.336	11.44
375.545	11.27
375.754	10.79
375.963	10.76
376.171	10.71
376.38	10.5
376.589	10.08
376.798	9.85
377.006	9.82
377.215	10.08
377.424	9.48
377.632	9.14
377.841	9.43
378.05	9.54
378.258	9.2
378.467	9.3
378.675	9.2
378.884	9.65
379.093	9.61
379.301	9.9
379.51	10.07
379.718	10.38
379.927	10.46
380.135	10.19
380.344	10.14
380.552	10.66
380.761	10.31
380.969	10.59
381.177	10.32
381.386	10.05
381.594	9.81
381.803	9.49
382.011	9.35
382.219	9.01
382.428	9.1
382.636	9.04
382.845	8.84
383.053	8.95
383.261	8.38
383.469	8.41
383.678	8.35
383.886	8.1
384.094	8.34
384.302	8.55
384.511	8.77
384.719	8.65
384.927	8.7
385.135	8.73
385.343	8.85
385.552	9.22
385.76	9.48
385.968	9.81
386.176	9.93
386.384	9.78
386.592	9.43
386.8	9.5
387.008	9.21
387.216	8.93
387.424	9.06
387.633	8.86
387.841	8.8
388.049	8.75
388.257	8.7
388.465	8.72
388.672	8.47
388.88	8.71
389.088	8.68
389.296	8.9
389.504	9.04
389.712	8.72
389.92	8.71
390.128	8.63
390.336	8.32
390.544	7.9
390.751	7.82
390.959	7.72
391.167	7.81
391.375	7.72
391.583	7.46
391.79	7.53
391.998	7.74
392.206	7.79
392.414	8.05
392.621	8.11
392.829	8.61
393.037	8.72
393.244	9.08
393.452	8.89
393.66	8.88
393.867	9.28
394.075	9.25
394.283	8.93
394.49	8.6
394.698	8.35
394.905	8.38
395.113	8.07
395.32	8.17
395.528	8.09
395.735	8.25
395.943	8.26
396.15	7.81
396.358	7.51
396.565	7.64
396.773	7.87
396.98	7.88
397.188	7.89
397.395	7.86
397.602	7.34
397.81	7.11
398.017	6.87
398.225	6.87
398.432	6.91
398.639	6.73
398.847	6.76
399.054	6.68
399.261	6.56
399.468	6.66
399.676	6.84
399.883	7
400.09	7.14
400.297	7.36
400.505	7.24
400.712	7.48
400.919	8.03
401.126	7.99
401.333	8.01
401.54	8.1
401.748	8.03
401.955	7.81
402.162	7.93
402.369	8.2
402.576	8.18
402.783	8.24
402.99	8.2
403.197	7.92
403.404	7.85
403.611	7.98
403.818	7.89
404.025	7.73
404.232	7.73
404.439	7.78
404.646	7.62
404.853	7.48
405.06	7.55
405.267	7.65
405.474	7.68
405.681	7.59
405.887	7.57
406.094	7.54
406.301	7.65
406.508	7.88
406.715	7.67
406.922	7.17
407.128	7.08
407.335	7.16
407.542	7.18
407.749	6.99
407.955	7.14
408.162	7.02
408.369	7.12
408.575	6.98
408.782	6.8
408.989	6.92
409.195	7.32
409.402	7.39
409.609	7.19
409.815	6.78
410.022	7.01
410.228	7.02
410.435	7.17
410.642	7.33
410.848	7.45
411.055	7.5
411.261	7.7
411.468	7.81
411.674	7.89
411.881	8.11
412.087	8.09
412.294	7.99
412.5	7.68
412.706	7.7
412.913	7.64
413.119	7.66
413.326	7.33
413.532	7.22
413.738	7.12
413.945	7.05
414.151	6.98
414.357	7.25
414.564	7.28
414.77	7.5
414.976	7.35
415.182	7.18
415.389	6.98
415.595	7.1
415.801	6.93
416.007	6.92
416.214	6.96
416.42	6.81
416.626	6.61
416.832	6.76
417.038	6.94
417.244	7
417.45	7.02
417.657	7.21
417.863	7.45
418.069	7.49
418.275	7.59
418.481	7.51
418.687	7.5
418.893	7.77
419.099	7.7
419.305	7.53
419.511	7.47
419.717	7.45
419.923	7.38
420.129	7.25
420.335	7.31
420.541	7.25
420.746	7.21
420.952	7.27
421.158	7.11
421.364	7.11
421.57	7.08
421.776	7.1
421.982	7.11
422.187	7.21
422.393	7.13
422.599	7.07
422.805	7
423.01	7.03
423.216	6.85
423.422	6.79
423.628	6.78
423.833	6.77
424.039	6.88
424.245	6.85
424.45	6.76
424.656	6.91
424.862	7.01
425.067	6.98
425.273	7.04
425.478	7.22
425.684	7.45
425.889	7.53
426.095	7.46
426.301	7.28
426.506	7.35
426.712	7.39
426.917	7.48
427.123	7.41
427.328	7.38
427.533	7.46
427.739	7.57
427.944	7.46
428.15	7.29
428.355	7.3
428.561	7.26
428.766	7.21
428.971	7.14
429.177	6.86
429.382	6.91
429.587	7.17
429.793	6.86
429.998	6.61
430.203	6.64
430.408	6.55
430.614	7
430.819	6.99
431.024	6.94
431.229	6.87
431.434	6.79
431.64	6.63
431.845	6.75
432.05	6.93
432.255	7.04
432.46	6.77
432.665	6.83
432.87	6.61
433.076	6.68
433.281	6.74
433.486	6.84
433.691	7.05
433.896	6.95
434.101	6.72
434.306	6.72
434.511	6.66
434.716	6.79
434.921	6.8
435.126	6.82
435.331	6.79
435.535	6.62
435.74	6.46
435.945	6.45
436.15	6.54
436.355	6.73
436.56	6.69
436.765	6.81
436.97	6.81
437.174	6.81
437.379	6.68
437.584	6.72
437.789	6.94
437.993	6.88
438.198	6.72
438.403	6.62
438.608	6.55
438.812	6.53
439.017	6.43
439.222	6.45
439.426	6.48
439.631	6.59
439.836	6.69
440.04	6.59
440.245	6.68
440.45	6.69
440.654	6.74
440.859	6.71
441.063	6.85
441.268	6.76
441.472	6.79
441.677	6.78
441.881	6.79
442.086	6.52
442.29	6.58
442.495	6.55
442.699	6.6
442.904	6.61
443.108	6.63
443.312	6.43
443.517	6.5
443.721	6.52
443.925	6.44
444.13	6.44
444.334	6.71
444.538	6.72
444.743	6.81
444.947	6.85
445.151	6.78
445.356	6.76
445.56	6.84
445.764	6.87
445.968	6.86
446.173	6.98
446.377	6.97
446.581	6.83
446.785	6.79
446.989	6.75
447.193	6.69
447.398	6.62
447.602	6.62
447.806	6.6
448.01	6.53
448.214	6.36
448.418	6.27
448.622	6.13
448.826	6.26
449.03	6.26
449.234	6.13
449.438	6.06
449.642	6.16
449.846	6.02
450.05	5.98
450.254	6.16
450.458	6.26
450.662	6.2
450.866	6.21
451.069	6.26
451.273	6.17
451.477	6.29
451.681	6.33
451.885	6.34
452.089	6.63
452.292	6.59
452.496	6.5
452.7	6.48
452.904	6.41
453.107	6.59
453.311	6.63
453.515	6.67
453.719	6.71
453.922	6.72
454.126	6.63
454.33	6.47
454.533	6.46
454.737	6.38
454.94	6.41
455.144	6.58
455.348	6.46
455.551	6.27
455.755	6.19
455.958	6.17
456.162	6.21
456.365	6.4
456.569	6.47
456.772	6.55
456.976	6.6
457.179	6.82
457.383	6.75
457.586	6.76
457.79	6.78
457.993	6.75
458.196	6.67
458.4	6.77
458.603	6.68
458.807	6.63
459.01	6.68
459.213	6.68
459.417	6.59
459.62	6.58
459.823	6.65
460.026	6.59
460.23	6.64
460.433	6.65
460.636	6.39
460.839	6.49
461.042	6.47
461.246	6.35
461.449	6.22
461.652	6.21
461.855	6.15
462.058	6.01
462.261	6.19
462.464	6.17
462.668	6.21
462.871	6.53
463.074	6.25
463.277	6.21
463.48	6.26
463.683	6.44
463.886	6.4
464.089	6.46
464.292	6.63
464.495	6.56
464.698	6.56
464.901	6.65
465.104	6.65
465.306	6.95
465.509	6.96
465.712	6.89
465.915	6.78
466.118	6.78
466.321	6.88
466.524	6.83
466.726	6.73
466.929	6.76
467.132	6.7
467.335	6.65
467.538	6.44
467.74	6.41
467.943	6.49
468.146	6.47
468.348	6.46
468.551	6.4
468.754	6.39
468.956	6.37
469.159	6.41
469.362	6.38
469.564	6.35
469.767	6.48
469.969	6.33
470.172	6.4
470.375	6.38
470.577	6.3
470.78	6.32
470.982	6.36
471.185	6.45
471.387	6.19
471.59	6.34
471.792	6.41
471.995	6.37
472.197	6.53
472.399	6.5
472.602	6.64
472.804	6.56
473.007	6.38
473.209	6.31
473.411	6.21
473.614	6.42
473.816	6.37
474.018	6.26
474.22	6.28
474.423	6.23
474.625	6.17
474.827	6.14
475.03	6.2
475.232	6.31
475.434	6.51
475.636	6.47
475.838	6.53
476.04	6.36
476.243	6.34
476.445	6.26
476.647	6.32
476.849	6.43
477.051	6.4
477.253	6.44
477.455	6.46
477.657	6.3
477.859	6.36
478.061	6.27
478.263	6.37
478.465	6.35
478.667	6.39
478.869	6.43
479.071	6.28
479.273	6.23
479.475	6.16
479.677	6.18
479.879	6.2
480.081	6.28
480.283	6.28
480.485	6.26
480.686	6.36
480.888	6.38
481.09	6.39
481.292	6.51
481.494	6.57
481.695	6.64
481.897	6.68
482.099	6.59
482.301	6.51
482.502	6.45
482.704	6.4
482.906	6.33
483.107	6.35
483.309	6.37
483.511	6.31
483.712	6.26
483.914	6.29
484.115	6.23
484.317	6.26
484.519	6.28
484.72	6.32
484.922	6.3
485.123	6.35
485.325	6.35
485.526	6.32
485.728	6.36
485.929	6.41
486.131	6.31
486.332	6.41
486.534	6.39
486.735	6.39
486.936	6.43
487.138	6.48
487.339	6.44
487.541	6.45
487.742	6.43
487.943	6.4
488.144	6.41
488.346	6.49
488.547	6.51
488.748	6.58
488.95	6.58
489.151	6.53
489.352	6.52
489.553	6.62
489.755	6.5
489.956	6.54
490.157	6.55
490.358	6.55
490.559	6.55
490.76	6.5
490.961	6.42
491.163	6.43
491.364	6.41
491.565	6.46
491.766	6.45
491.967	6.55
492.168	6.53
492.369	6.54
492.57	6.5
492.771	6.53
492.972	6.47
493.173	6.5
493.374	6.52
493.575	6.57
493.776	6.47
493.976	6.29
494.177	6.26
494.378	6.37
494.579	6.36
494.78	6.26
494.981	6.14
495.182	6.2
495.382	6.09
495.583	6.02
495.784	6.1
495.985	6.2
496.185	6.21
496.386	6.29
496.587	6.2
496.788	6.21
496.988	6.46
497.189	6.43
497.39	6.62
497.59	6.69
497.791	6.73
497.992	6.67
498.192	6.74
498.393	6.8
498.593	6.86
498.794	6.84
498.994	6.94
499.195	6.75
499.395	6.84
499.596	6.6
499.796	6.53
499.997	6.47
500.197	6.43
500.398	6.46
500.598	6.5
500.799	6.4
500.999	6.23
501.199	6.16
501.4	6.33
501.6	6.32
501.801	6.26
502.001	6.37
502.201	6.46
502.402	6.55
502.602	6.52
502.802	6.53
503.002	6.58
503.203	6.76
503.403	6.67
503.603	6.62
503.803	6.61
504.003	6.89
504.204	6.86
504.404	6.79
504.604	6.73
504.804	6.75
505.004	6.65
505.204	6.55
505.404	6.56
505.604	6.66
505.804	6.58
506.005	6.58
506.205	6.48
506.405	6.56
506.605	6.83
506.805	6.69
507.005	6.53
507.204	6.66
507.404	6.62
507.604	6.58
507.804	6.62
508.004	6.89
508.204	6.92
508.404	6.82
508.604	6.8
508.804	6.51
509.003	6.65
509.203	6.7
509.403	6.65
509.603	6.72
509.803	6.79
510.002	6.71
510.202	6.45
510.402	6.43
510.602	6.44
510.801	6.39
511.001	6.56
511.201	6.5
511.4	6.53
511.6	6.67
511.8	6.7
511.999	6.68
512.199	6.73
512.398	6.76
512.598	6.89
512.797	7.04
512.997	7.09
513.197	7.05
513.396	7.07
513.596	7.03
513.795	6.93
513.994	6.95
514.194	7.04
514.393	7.02
514.593	7.14
514.792	7.07
514.992	6.83
515.191	6.87
515.39	6.74
515.59	6.88
515.789	6.93
515.988	7.04
516.188	7.1
516.387	7
516.586	7.02
516.786	6.9
516.985	6.78
517.184	6.91
517.383	6.86
517.582	6.92
517.782	6.84
517.981	6.79
518.18	6.69
518.379	6.67
518.578	6.71
518.777	6.65
518.976	6.74
519.176	6.83
519.375	6.85
519.574	6.91
519.773	6.92
519.972	7
520.171	7.01
520.37	7.06
520.569	7.14
520.768	7.22
520.967	7.27
521.166	7.28
521.365	7.34
521.564	7.31
521.762	7.31
521.961	7.37
522.16	7.26
522.359	7.38
522.558	7.44
522.757	7.34
522.956	7.31
523.154	7.36
523.353	7.38
523.552	7.34
523.751	7.32
523.949	7.32
524.148	7.28
524.347	7.41
524.546	7.42
524.744	7.46
524.943	7.55
525.142	7.52
525.34	7.51
525.539	7.51
525.737	7.52
525.936	7.63
526.135	7.66
526.333	7.73
526.532	7.62
526.73	7.65
526.929	7.61
527.127	7.53
527.326	7.55
527.524	7.61
527.723	7.61
527.921	7.65
528.12	7.65
528.318	7.63
528.516	7.63
528.715	7.69
528.913	7.71
529.112	7.73
529.31	7.79
529.508	7.81
529.707	7.81
529.905	7.83
530.103	7.8
530.301	7.75
530.5	7.82
530.698	7.84
530.896	7.94
531.094	8
531.293	8.06
531.491	8.08
531.689	8.1
531.887	8.2
532.085	8.28
532.283	8.42
532.481	8.42
532.68	8.41
532.878	8.4
533.076	8.36
533.274	8.34
533.472	8.21
533.67	8.21
533.868	8.19
534.066	8.16
534.264	8.15
534.462	8.14
534.66	8.19
534.858	8.1
535.056	8.11
535.253	8.1
535.451	8.12
535.649	8.28
535.847	8.37
536.045	8.45
536.243	8.52
536.441	8.6
536.638	8.54
536.836	8.59
537.034	8.72
537.232	8.84
537.43	8.86
537.627	8.82
537.825	8.84
538.023	8.76
538.22	8.84
538.418	8.79
538.616	8.65
538.813	8.64
539.011	8.68
539.209	8.87
539.406	8.86
539.604	8.76
539.801	8.98
539.999	9.08
540.196	9.2
540.394	9.19
540.591	9.2
540.789	9.29
540.986	9.37
541.184	9.43
541.381	9.42
541.579	9.46
541.776	9.54
541.974	9.5
542.171	9.43
542.368	9.44
542.566	9.5
542.763	9.54
542.96	9.6
543.158	9.71
543.355	9.74
543.552	9.78
543.75	9.77
543.947	9.86
544.144	9.84
544.341	9.99
544.539	10.02
544.736	10.01
544.933	9.99
545.13	10.01
545.327	9.9
545.524	9.88
545.722	9.79
545.919	9.85
546.116	9.77
546.313	9.9
546.51	9.92
546.707	9.97
546.904	10.09
547.101	10.15
547.298	10.11
547.495	10.24
547.692	10.36
547.889	10.38
548.086	10.5
548.283	10.65
548.48	10.8
548.677	10.76
548.874	10.75
549.07	10.83
549.267	10.95
549.464	11.23
549.661	11.21
549.858	11.26
550.055	11.37
550.251	11.48
550.448	11.52
550.645	11.62
550.842	11.7
551.038	11.69
551.235	11.72
551.432	11.83
551.628	11.66
551.825	11.88
552.022	11.98
552.218	12.1
552.415	12.08
552.612	12.11
552.808	11.9
553.005	11.99
553.201	12.18
553.398	12.26
553.594	12.18
553.791	12.25
553.987	12.33
554.184	12.12
554.38	12.12
554.577	12.19
554.773	12.32
554.97	12.58
555.166	12.7
555.362	12.61
555.559	12.6
555.755	12.84
555.952	13
556.148	12.75
556.344	13.09
556.541	13.1
556.737	12.96
556.933	12.93
557.129	12.74
557.326	12.72
557.522	12.89
557.718	12.87
557.914	12.86
558.11	12.79
558.307	13.17
558.503	13.15
558.699	13.33
558.895	13.45
559.091	13.6
559.287	13.94
559.483	14.01
559.679	14.14
559.876	14.31
560.072	14.57
560.268	14.69
560.464	14.45
560.66	14.48
560.856	14.77
561.052	14.85
561.247	15.04
561.443	14.93
561.639	15.01
561.835	15.18
562.031	15.22
562.227	15.15
562.423	15.35
562.619	15.74
562.815	15.94
563.01	15.88
563.206	16.15
563.402	16.18
563.598	16.23
563.793	16.38
563.989	16.29
564.185	16.37
564.381	16.41
564.576	16.5
564.772	16.69
564.968	16.63
565.163	16.76
565.359	16.8
565.555	16.82
565.75	17.03
565.946	17.09
566.141	17.28
566.337	17.35
566.532	17.69
566.728	17.84
566.923	17.76
567.119	17.9
567.314	17.92
567.51	17.99
567.705	18.09
567.901	18.1
568.096	18.22
568.292	18.17
568.487	18.22
568.682	18.09
568.878	18.02
569.073	18.1
569.268	18.18
569.464	18.27
569.659	18.34
569.854	18.44
570.05	18.6
570.245	18.57
570.44	18.65
570.635	18.77
570.831	18.81
571.026	18.91
571.221	18.92
571.416	19.03
571.611	19.25
571.806	19.3
572.002	19.4
572.197	19.5
572.392	19.7
572.587	19.93
572.782	19.98
572.977	20.02
573.172	20.15
573.367	20.2
573.562	20.29
573.757	20.19
573.952	20.31
574.147	20.3
574.342	20.48
574.537	20.59
574.732	20.62
574.927	20.67
575.121	20.84
575.316	20.89
575.511	20.96
575.706	21.13
575.901	21.21
576.096	21.25
576.29	21.38
576.485	21.3
576.68	21.11
576.875	21.06
577.069	21.23
577.264	21.25
577.459	21.2
577.654	21.5
577.848	21.35
578.043	21.62
578.238	21.69
578.432	21.57
578.627	21.66
578.821	22.02
579.016	22.02
579.21	22.07
579.405	22.17
579.6	22.33
579.794	22.13
579.989	22.19
580.183	22.37
580.378	22.55
580.572	22.58
580.766	22.73
580.961	22.45
581.155	22.8
581.35	22.76
581.544	22.88
581.738	23
581.933	23.26
582.127	23.36
582.321	23.18
582.516	23.19
582.71	23.65
582.904	23.72
583.099	23.93
583.293	23.89
583.487	23.87
583.681	23.87
583.875	24.04
584.07	23.96
584.264	23.95
584.458	23.79
584.652	23.86
584.846	24.05
585.04	24.02
585.234	24.24
585.428	24.32
585.623	24.62
585.817	24.67
586.011	24.58
586.205	24.86
586.399	25.14
586.593	25.03
586.787	25.16
586.981	25.04
587.174	24.99
587.368	24.89
587.562	24.9
587.756	24.82
587.95	24.87
588.144	24.84
588.338	24.67
588.532	24.61
588.725	25.01
588.919	24.9
589.113	25.05
589.307	25
589.501	24.88
589.694	24.92
589.888	25
590.082	25.27
590.275	25.26
590.469	25.16
590.663	25.31
590.856	25.2
591.05	24.96
591.244	24.79
591.437	25.05
591.631	25.5
591.824	25.29
592.018	25.25
592.212	25.16
592.405	25.36
592.599	25.65
592.792	25.77
592.986	25.9
593.179	26.32
593.372	26.72
593.566	26.68
593.759	26.44
593.953	27.03
594.146	27.25
594.339	27.36
594.533	27.53
594.726	27.51
594.92	27.36
595.113	27.39
595.306	27.55
595.499	27.28
595.693	27.54
595.886	27.69
596.079	27.56
596.272	27.6
596.466	27.72
596.659	27.53
596.852	27.56
597.045	27.57
597.238	27.71
597.431	27.69
597.624	27.65
597.818	27.65
598.011	27.67
598.204	27.67
598.397	27.69
598.59	27.53
598.783	27.56
598.976	27.45
599.169	27.56
599.362	27.35
599.555	27.2
599.748	27.4
599.941	27.27
600.134	27.45
600.326	27.36
600.519	27.19
600.712	27
600.905	27.27
601.098	27.52
601.291	27.53
601.483	27.55
601.676	27.84
601.869	27.68
602.062	27.73
602.255	27.7
602.447	27.92
602.64	28.13
602.833	28.2
603.025	28.47
603.218	28.48
603.411	28.51
603.603	28.56
603.796	28.59
603.989	28.65
604.181	28.71
604.374	28.76
604.566	28.66
604.759	28.54
604.951	28.64
605.144	28.41
605.336	28.46
605.529	28.49
605.721	28.55
605.914	28.35
606.106	28.37
606.299	28.44
606.491	28.4
606.683	28.44
606.876	28.5
607.068	28.49
607.26	28.44
607.453	28.24
607.645	28.04
607.837	28.15
608.03	28.5
608.222	28.73
608.414	28.53
608.606	28.67
608.799	28.77
608.991	28.93
609.183	29.13
609.375	29.17
609.567	29.54
609.759	29.71
609.952	29.79
610.144	29.66
610.336	29.62
610.528	29.91
610.72	29.81
610.912	29.9
611.104	29.94
611.296	29.85
611.488	30.12
611.68	29.93
611.872	29.95
612.064	29.99
612.256	29.82
612.448	29.95
612.64	29.8
612.832	30.03
613.023	30.05
613.215	29.87
613.407	29.92
613.599	29.76
613.791	29.73
613.983	29.85
614.174	29.83
614.366	29.95
614.558	29.58
614.75	29.58
614.941	29.38
615.133	29.25
615.325	29.53
615.516	29.66
615.708	29.85
615.9	29.78
616.091	29.75
616.283	29.72
616.475	29.9
616.666	30.26
616.858	30.71
617.049	30.96
617.241	30.89
617.432	30.58
617.624	30.7
617.815	30.38
618.007	30.56
618.198	30.66
618.39	30.82
618.581	31.07
618.773	31.09
618.964	30.89
619.155	30.58
619.347	30.7
619.538	30.9
619.729	30.87
619.921	31.18
620.112	31.18
620.303	31.14
620.494	31.02
620.686	30.71
620.877	30.54
621.068	30.37
621.259	30.69
621.451	30.78
621.642	30.65
621.833	30.61
622.024	30.45
622.215	30.3
622.406	30.41
622.597	30.4
622.788	30.51
622.98	30.56
623.171	30.75
623.362	30.79
623.553	30.79
623.744	31.16
623.935	31.16
624.126	31.49
624.317	31.65
624.508	31.53
624.698	31.65
624.889	31.66
625.08	31.91
625.271	31.71
625.462	31.56
625.653	31.43
625.844	31.43
626.034	31.46
626.225	31.38
626.416	31.49
626.607	31.66
626.798	31.82
626.988	31.82
627.179	31.74
627.37	31.85
627.56	31.85
627.751	32.12
627.942	32.11
628.132	32.06
628.323	31.94
628.514	31.83
628.704	31.87
628.895	31.48
629.085	31.56
629.276	31.55
629.466	31.7
629.657	31.87
629.847	31.81
630.038	31.9
630.228	32.12
630.419	32.06
630.609	32.1
630.8	32.2
630.99	32.67
631.181	32.62
631.371	32.7
631.561	32.29
631.752	32.03
631.942	32.01
632.132	31.79
632.323	31.83
632.513	31.87
632.703	32.15
632.893	32.05
633.084	32.06
633.274	32.18
633.464	32.25
633.654	32.5
633.844	32.72
634.034	32.92
634.225	32.92
634.415	32.93
634.605	32.9
634.795	33.09
634.985	32.91
635.175	32.74
635.365	32.63
635.555	32.48
635.745	32.56
635.935	32.68
636.125	32.59
636.315	32.91
636.505	32.78
636.695	32.81
636.885	32.56
637.075	32.63
637.265	32.75
637.455	32.5
637.644	32.42
637.834	32.47
638.024	32.28
638.214	32.45
638.404	32.45
638.593	32.59
638.783	32.85
638.973	32.73
639.163	32.78
639.352	32.84
639.542	32.82
639.732	33.17
639.921	33.27
640.111	33.13
640.301	33.03
640.49	32.88
640.68	32.56
640.87	32.9
641.059	32.88
641.249	32.95
641.438	32.88
641.628	33.26
641.817	33.12
642.007	32.87
642.196	33.17
642.386	33.17
642.575	33.59
642.764	34.31
642.954	34.17
643.143	34.53
643.333	34.71
643.522	34.73
643.711	34.9
643.901	34.97
644.09	35.37
644.279	35.67
644.469	35.75
644.658	35.27
644.847	34.75
645.036	34.35
645.226	34.55
645.415	34.07
645.604	34.15
645.793	34.08
645.982	34.02
646.171	33.81
646.361	33.5
646.55	33.51
646.739	33.78
646.928	33.97
647.117	34.24
647.306	33.85
647.495	34.22
647.684	34.07
647.873	34.02
648.062	34.08
648.251	34.2
648.44	34.26
648.629	34.02
648.818	34.05
649.007	33.92
649.196	33.71
649.384	33.69
649.573	33.6
649.762	33.58
649.951	33.78
650.14	33.84
650.328	33.65
650.517	33.43
650.706	33.6
650.895	33.76
651.083	33.77
651.272	33.25
651.461	33.5
651.65	33.64
651.838	33.56
652.027	33.46
652.216	33.39
652.404	33.45
652.593	33.55
652.781	33.08
652.97	32.76
653.158	32.89
653.347	33.61
653.535	33.4
653.724	33.47
653.912	33.75
654.101	33.72
654.289	33.52
654.478	33.57
654.666	33.58
654.855	34.35
655.043	34.76
655.231	34.55
655.42	34.75
655.608	34.97
655.796	34.71
655.985	34.49
656.173	34.87
656.361	35.1
656.55	35.09
656.738	35.28
656.926	34.93
657.114	34.57
657.302	34.55
657.491	34.54
657.679	34.53
657.867	34.97
658.055	35.18
658.243	35.17
658.431	35.45
658.619	35.84
658.807	35.65
658.996	35.81
659.184	35.69
659.372	35.78
659.56	35.76
659.748	35.76
659.936	35.7
660.124	35.88
660.311	35.82
660.499	35.34
660.687	35.21
660.875	35.43
661.063	35.28
661.251	35.32
661.439	35.24
661.627	35.28
661.814	35.44
662.002	35.17
662.19	34.91
662.378	34.71
662.565	34.89
662.753	34.4
662.941	34.5
663.129	34.17
663.316	34.2
663.504	34.2
663.692	34.02
663.879	33.65
664.067	33.65
664.254	33.77
664.442	33.94
664.63	34.25
664.817	34.67
665.005	34.34
665.192	34.66
665.38	34.47
665.567	34.76
665.755	35.01
665.942	35.23
666.13	35.5
666.317	35.49
666.504	35.24
666.692	35.04
666.879	35.06
667.067	35.52
667.254	36.03
667.441	36.45
667.629	36.47
667.816	35.92
668.003	35.59
668.19	35.85
668.378	35.69
668.565	36
668.752	35.97
668.939	35.72
669.127	35.66
669.314	35.46
669.501	35.26
669.688	35.26
669.875	35.59
670.062	35.91
670.249	35.4
670.436	35.12
670.623	35.15
670.81	35.22
670.997	35.59
671.184	35.59
671.371	35.79
671.558	36.02
671.745	35.98
671.932	36.2
672.119	36.05
672.306	36.18
672.493	36.8
672.68	36.99
672.867	37.73
673.054	37.87
673.24	37.85
673.427	37.85
673.614	37.66
673.801	37.92
673.988	37.8
674.174	38.22
674.361	38.26
674.548	38.6
674.734	38.64
674.921	38.09
675.108	37.69
675.294	37.54
675.481	37.66
675.668	37.62
675.854	37.35
676.041	36.88
676.227	36.62
676.414	36.91
676.601	36.16
676.787	35.97
676.974	35.98
677.16	36.41
677.347	36.64
677.533	36.05
677.719	36.26
677.906	36.31
678.092	36.47
678.279	36.32
678.465	36.13
678.651	36.34
678.838	36.39
679.024	36.32
679.21	35.92
679.397	36.06
679.583	36.51
679.769	36.47
679.955	36.42
680.142	36.69
680.328	36.79
680.514	36.66
680.7	36.65
680.886	36.78
681.073	36.72
681.259	36.7
681.445	36.35
681.631	35.92
681.817	36.18
682.003	36.3
682.189	36.45
682.375	36.61
682.561	36.88
682.747	36.85
682.933	36.49
683.119	36.71
683.305	37.02
683.491	36.72
683.677	37.28
683.863	37.15
684.049	37.3
684.235	37.01
684.42	36.54
684.606	36.76
684.792	37.4
684.978	37.49
685.164	37.45
685.349	37.34
685.535	37.67
685.721	37.26
685.907	37.46
686.092	37.43
686.278	37.46
686.464	37.81
686.649	37.6
686.835	37.33
687.021	37.44
687.206	37.39
687.392	37.18
687.577	37.4
687.763	37.13
687.948	37.07
688.134	37.07
688.319	37.14
688.505	37.21
688.69	37.31
688.876	37.24
689.061	36.94
689.247	37.27
689.432	37.16
689.618	36.92
689.803	37.52
689.988	37.72
690.174	37.44
690.359	37.32
690.544	37.34
690.73	37.05
690.915	36.87
691.1	37.15
691.285	36.94
691.471	37.39
691.656	37.52
691.841	37.47
692.026	36.71
692.211	37.29
692.396	37.2
692.582	37.17
692.767	37.13
692.952	36.87
693.137	36.97
693.322	37.33
693.507	37.09
693.692	37.41
693.877	36.86
694.062	37.3
694.247	36.66
694.432	37.06
694.617	37.51
694.802	37.68
694.987	37.68
695.172	37.46
695.357	37.19
695.541	37.24
695.726	37.21
695.911	38.27
696.096	38.05
696.281	37.97
696.466	38.12
696.65	38.05
696.835	38.29
697.02	38.55
697.204	38.52
697.389	38.67
697.574	38.76
697.759	38.32
697.943	37.87
698.128	37.87
698.312	38.02
698.497	37.8
698.682	37.73
698.866	37.77
699.051	37.95
699.235	38.18
699.42	37.88
699.604	37.79
699.789	37.86
699.973	37.91
700.158	37.93
700.342	37.98
700.527	38.31
700.711	38.02
700.895	37.99
701.08	38.15
701.264	38.15
701.448	38.49
701.633	38.38
701.817	38.7
702.001	38.6
702.186	38.87
702.37	39.25
702.554	38.89
702.738	38.99
702.923	39.16
703.107	39
703.291	38.84
703.475	38.94
703.659	39.84
703.843	40.42
704.027	40.41
704.212	40.19
704.396	40.39
704.58	40.3
704.764	40.27
704.948	38.76
705.132	38.52
705.316	38.45
705.5	38.4
705.684	37.69
705.868	37.09
706.052	37.96
706.235	38.3
706.419	37.56
706.603	37.69
706.787	37.72
706.971	38.68
707.155	38.78
707.339	39.18
707.522	38.92
707.706	39.11
707.89	38.91
708.074	38.08
708.257	37.83
708.441	38.45
708.625	38.67
708.808	38.62
708.992	38.92
709.176	38.45
709.359	37.92
709.543	38.21
709.727	38.06
709.91	37.92
710.094	38.14
710.277	38.33
710.461	37.82
710.644	37.95
710.828	38.32
711.011	38.42
711.195	38.51
711.378	38.91
711.562	38.85
711.745	38.73
711.928	39.22
712.112	39.1
712.295	39.07
712.478	38.58
712.662	38.56
712.845	37.94
713.028	37.55
713.212	37.96
713.395	38.31
713.578	38.17
713.761	38.82
713.945	38.28
714.128	38.67
714.311	38.76
714.494	39.2
714.677	38.7
714.86	39.34
715.043	39.24
715.227	38.97
715.41	38.81
715.593	38.78
715.776	38.44
715.959	39.09
716.142	38.86
716.325	38.61
716.508	38.55
716.691	38.84
716.874	38.39
717.057	38.99
717.239	39.41
717.422	39.05
717.605	39.43
717.788	39.97
717.971	39.48
718.154	39.6
718.337	39.96
718.519	39.8
718.702	39.76
718.885	39.91
719.068	39.46
719.25	39.66
719.433	39.67
719.616	39.21
719.798	38.46
719.981	38.66
720.164	38.18
720.346	38.16
720.529	38.3
720.712	37.4
720.894	37.76
721.077	37.81
721.259	37.78
721.442	37.77
721.624	37.63
721.807	37.93
721.989	37.99
722.172	38.83
722.354	38.33
722.537	38.66
722.719	39.5
722.901	40.07
723.084	40.44
723.266	39.54
723.448	39.49
723.631	40.59
723.813	39.92
723.995	40.2
724.178	39.38
724.36	39.19
724.542	38.98
724.724	38.61
724.907	38.28
725.089	38.6
725.271	39.21
725.453	39.66
725.635	38.84
725.817	40.59
725.999	40.94
726.181	41.23
726.364	41.47
726.546	41.85
726.728	42.74
726.91	42.58
727.092	41.59
727.274	41.78
727.456	41.42
727.638	40.78
727.819	39.61
728.001	39.35
728.183	39.02
728.365	39.51
728.547	39.33
728.729	39.32
728.911	38.96
729.093	39.63
729.274	39.37
729.456	39.87
729.638	39.91
729.82	39.58
730.001	38.9
730.183	38.68
730.365	38.79
730.546	39.14
730.728	38.27
730.91	38.73
731.091	38.3
731.273	38.02
731.455	36.86
731.636	37.69
731.818	38.11
731.999	38.49
732.181	38.5
732.362	38.57
732.544	38.48
732.725	38.54
732.907	38.57
733.088	38.51
733.27	38.97
733.451	39.71
733.633	40.23
733.814	40.13
733.995	40.44
734.177	40.85
734.358	40.83
734.539	41.24
734.721	42.03
734.902	41.86
735.083	42.08
735.264	42.24
735.446	41.82
735.627	41.23
735.808	41.53
735.989	40.56
736.17	40.59
736.351	39.47
736.533	38.71
736.714	38.94
736.895	38.83
737.076	38.48
737.257	37.5
737.438	38.22
737.619	37.43
737.8	37.22
737.981	37.94
738.162	37.77
738.343	38.63
738.524	39.47
738.705	39.31
738.886	39.03
739.067	38.92
739.247	40.14
739.428	39.78
739.609	40.45
739.79	40.18
739.971	40.81
740.151	40.76
740.332	41.28
740.513	40.51
740.694	39.8
740.874	40.03
741.055	41.69
741.236	41.22
741.417	41.81
741.597	41.23
741.778	40.95
741.958	40.36
742.139	40.94
742.32	39.87
742.5	39.57
742.681	39.55
742.861	39.81
743.042	37.43
743.222	37.2
743.403	36.17
743.583	37.23
743.764	38.61
743.944	39.81
744.124	38.69
744.305	40.39
744.485	41.17
744.666	41.81
744.846	41.39
745.026	42.74
745.207	42.78
745.387	43.72
745.567	43.11
745.747	41.86
745.928	40.36
746.108	41.01
746.288	40.02
746.468	39.31
746.648	39.38
746.829	39.1
747.009	38.67
747.189	38.14
747.369	38.37
747.549	38.15
747.729	38.53
747.909	39.06
748.089	40.24
748.269	39.98
748.449	39.56
748.629	39.6
748.809	41.05
748.989	41.45
749.169	41.42
749.349	41.09
749.529	41.3
749.709	42.46
749.889	42.85
750.068	41.26
750.248	41.94
750.428	42.76
750.608	42.86
750.788	42.13
750.967	42.4
751.147	42.79
751.327	42.07
751.507	41.57
751.686	40.47
751.866	39.55
752.046	40.04
752.225	40.14
752.405	40.16
752.585	39.74
752.764	39.4
752.944	39.33
753.123	39.56
753.303	40.37
753.482	40.73
753.662	40.92
753.841	40.22
754.021	39.94
754.2	39.98
754.38	39.85
754.559	39.93
754.739	39.68
754.918	39.08
755.097	39.05
755.277	38.68
755.456	39.22
755.635	39.27
755.815	39.34
755.994	40.02
756.173	39.17
756.352	39.2
756.532	39.18
756.711	40.18
756.89	41.57
757.069	41.39
757.248	40.46
757.427	40.11
757.607	39.41
757.786	40.84
757.965	40.79
758.144	40.22
758.323	40.52
758.502	39.86
758.681	39.88
758.86	38.42
759.039	38.6
759.218	40.2
759.397	40.31
759.576	40.37
759.755	39.74
759.934	39.18
760.113	39.7
760.291	40.22
760.47	40.92
760.649	40.35
760.828	40.54
761.007	40.81
761.186	40.01
761.364	39.27
761.543	40
761.722	40.18
761.901	40.71
762.079	40.99
762.258	40.17
762.437	40.69
762.615	41.16
762.794	41.5
762.972	41.02
763.151	41.19
763.33	41.63
763.508	41.4
763.687	41.43
763.865	41.81
764.044	41.82
764.222	41.85
764.401	41.75
764.579	41
764.758	40.39
764.936	40.62
765.114	40.54
765.293	40.62
765.471	40.62
765.65	40.3
765.828	39.28
766.006	38.57
766.184	38.35
766.363	39.02
766.541	39.27
766.719	40.12
766.898	40.14
767.076	40.03
767.254	39.76
767.432	39.78
767.61	40.04
767.788	41.34
767.967	42.09
768.145	42.77
768.323	41.24
768.501	41.82
768.679	41.58
768.857	42.2
769.035	42.53
769.213	43.33
769.391	44.15
769.569	44.31
769.747	43.88
769.925	43.41
770.103	42.37
770.281	42.12
770.459	41.66
770.636	41.97
770.814	41.92
770.992	41.09
771.17	40.63
771.348	39.38
771.525	37.82
771.703	37.49
771.881	38.63
772.059	38.25
772.236	36.82
772.414	38.24
772.592	37.78
772.769	36.7
772.947	38.17
773.125	38.62
773.302	39.92
773.48	41.09
773.657	40.72
773.835	39.74
774.013	41.53
774.19	42.49
774.368	40.93
774.545	41.81
774.723	41.69
774.9	41.71
775.077	40.69
775.255	38.56
775.432	39.95
775.61	40.75
775.787	39.85
775.964	38.4
776.142	41.13
776.319	41.58
776.496	40.37
776.674	41.74
776.851	41.59
777.028	42.57
777.205	44.76
777.382	43.04
777.56	44.16
777.737	44.23
777.914	44.26
778.091	43.56
778.268	42.12
778.445	43.29
778.622	43.09
778.8	44.7
778.977	43.27
779.154	51.51
779.331	51.78
779.508	50.43
779.685	50.58
779.862	50
780.038	50.76
780.215	51.89
780.392	50.69
780.569	50.84
780.746	49.46
780.923	48.35
781.1	38.67
781.277	39
781.453	38.58
781.63	40.08
781.807	42.63
781.984	41.96
782.16	41.66
782.337	41.27
782.514	39.48
782.691	39.62
782.867	40.48
783.044	40.7
783.221	39.02
783.397	39.57
783.574	40.31
783.75	38.45
783.927	38.19
784.103	39.79
784.28	40.97
784.456	42.63
784.633	41.27
784.809	43.31
784.986	42.88
785.162	44.26
785.339	44.92
785.515	44.51
785.692	44.62
785.868	44.45
786.044	42.33
786.221	41.61
786.397	40.34
786.573	41.3
786.749	41.11
786.926	41.29
787.102	42.73
787.278	41.82
787.454	40.46
787.631	40.52
787.807	40.52
787.983	40.33
788.159	40.4
788.335	42.99
788.511	42.8
788.687	43.05
788.863	44.15
789.039	42.95
789.216	42.78
789.392	43.55
789.568	44.87
789.744	46.86
789.919	49.28
790.095	48.2
790.271	46.88
790.447	47.34
790.623	46.21
790.799	45.56
790.975	44.31
791.151	43.41
791.327	43.34
791.502	42.93
791.678	39.97
791.854	38.7
792.03	41.35
792.205	39.89
792.381	38.31
792.557	40.1
792.733	39.15
792.908	40.51
793.084	41.8
793.259	41.64
793.435	42.48
793.611	43
793.786	42.68
793.962	42.24
794.137	44.61
794.313	45.84
794.488	44.12
794.664	46.26
794.839	46.57
795.015	46.4
795.19	44.5
795.366	44.25
795.541	44.87
795.716	45.61
795.892	45.07
796.067	42.99
796.242	42.77
796.418	43.36
796.593	41.87
796.768	41.72
796.944	41.88
797.119	42.87
797.294	42.96
797.469	41.89
797.644	41.55
797.82	42.67
797.995	42.74
798.17	43.31
798.345	44.2
798.52	44.93
798.695	45.32
798.87	46.18
799.045	46.08
799.22	44.57
799.395	44.31
799.57	44.7
799.745	43.86
799.92	43.81
800.095	43.63
800.27	41
800.445	39.8
800.62	37.62
800.795	36.54
800.97	37.96
801.145	37.87
801.319	37.24
801.494	36.48
801.669	36.52
801.844	38.89
802.018	38.89
802.193	41.87
802.368	43.01
802.543	44.39
802.717	42.94
802.892	43.07
803.067	44.62
803.241	47.01
803.416	49.19
803.59	49.95
803.765	47.36
803.94	47.58
804.114	47.14
804.289	44.69
804.463	45.32
804.638	45.89
804.812	45.16
804.986	46.44
805.161	46.65
805.335	44.03
805.51	42.21
805.684	42.84
805.858	41.3
806.033	41.5
806.207	41.92
806.381	43.36
806.556	44.59
806.73	45.4
806.904	44.47
807.078	44.76
807.253	46.68
807.427	48.58
807.601	48.96
807.775	49.74
807.949	47.02
808.123	45.16
808.298	43.46
808.472	43.32
808.646	42.35
808.82	43.33
808.994	43.26
809.168	40.89
809.342	39.23
809.516	37.76
809.69	36.74
809.864	37.93
810.038	42.41
810.212	41.27
810.385	40.2
810.559	40.47
810.733	37.07
810.907	35.06
811.081	35.63
811.255	33.91
811.428	34.79
811.602	38.15
811.776	38.85
811.95	35.83
812.123	35.68
812.297	36.54
812.471	36.67
812.644	38.01
812.818	41.51
812.992	41.57
813.165	43.54
813.339	43.11
813.512	41.87
813.686	40.04
813.86	42.6
814.033	43.92
814.207	43.46
814.38	42.16
814.554	41.24
814.727	41.66
814.9	45.95
815.074	45.61
815.247	46.4
815.421	41.56
815.594	43.23
815.767	44.11
815.941	39.91
816.114	40.55
816.287	40.69
816.46	43.5
816.634	38.27
816.807	32.67
816.98	33.69
817.153	34.95
817.327	39.22
817.5	41.37
817.673	40.9
817.846	45.71
818.019	45.69
818.192	46.69
818.365	40.49
818.538	41.06
818.711	42.44
818.884	40.62
819.057	39.49
819.23	40.26
819.403	37.35
819.576	35.62
819.749	33.84
819.922	35.39
820.095	35.88
820.268	38.44
820.441	40.02
820.614	39.56
820.786	39.26
820.959	39.66
821.132	40.08
821.305	39.74
821.477	39.66
821.65	41.79
821.823	40.45
821.996	39.79
822.168	40.04
822.341	39.6
822.514	39.65
822.686	39.55
822.859	39
823.031	38.86
823.204	39.33
823.376	39.36
823.549	38.76
823.722	38.92
823.894	39.44
824.067	39.7
824.239	39.9
824.411	40.36
824.584	40.63
824.756	40.88
824.929	40.16
825.101	40.1
825.273	40.3
825.446	39.93
825.618	39.48
825.79	38.99
825.963	38.47
826.135	38.35
826.307	37.25
826.479	38.74
826.652	38.77
826.824	38.93
826.996	38.36
827.168	38.77
827.34	38.48
827.512	38.94
827.684	39.36
827.856	39.42
828.029	39.66
828.201	39.67
828.373	38.59
828.545	39
828.717	39.65
828.889	39.28
829.061	39.54
829.232	40.8
829.404	41.68
829.576	41.21
829.748	41.02
829.92	40.32
830.092	41.54
830.264	40.81
830.436	39.59
830.607	39.52
830.779	40.07
830.951	38.01
831.123	36.83
831.294	35.73
831.466	35.85
831.638	36.13
831.809	36.87
831.981	35.86
832.153	35.43
832.324	38.06
832.496	38.88
832.667	41.58
832.839	40.69
833.011	39.34
833.182	39.18
833.354	39
833.525	37.34
833.697	39.11
833.868	39.51
834.039	40.72
834.211	41.32
834.382	40.51
834.554	39.39
834.725	41.15
834.896	42.1
835.068	40.33
835.239	40.24
835.41	40.98
835.581	40.8
835.753	39.85
835.924	40.16
836.095	37.68
836.266	35.75
836.438	35.62
836.609	35.2
836.78	34.57
836.951	35.53
837.122	32.77
837.293	33.37
837.464	31.88
837.635	33.31
837.806	33.15
837.977	33.49
838.148	35.68
838.319	35.41
838.49	33.66
838.661	35.05
838.832	36.56
839.003	43.52
839.174	45.03
839.345	48.51
839.516	47.85
839.687	45.42
839.857	45.85
840.028	43.66
840.199	43.46
840.37	43.2
840.54	41.46
840.711	38.14
840.882	34.89
841.053	33.24
841.223	27.81
841.394	23.77
841.564	24.22
841.735	26.41
841.906	30.9
842.076	33.24
842.247	37.68
842.417	40.16
842.588	43.82
842.758	39.39
842.929	37.25
843.099	39.28
843.27	44.35
843.44	45.64
843.611	43.28
843.781	38.95
843.951	38.32
844.122	31.53
844.292	28.59
844.462	25.66
844.633	30.64
844.803	34.08
844.973	33.42
845.144	34.15
845.314	29.45
845.484	30.78
845.654	35.24
845.824	35.38
845.995	42.8
846.165	48.93
846.335	53.8
846.505	56.72
846.675	53.08
846.845	55.18
847.015	49.58
847.185	58.68
847.355	58.6
847.525	62.11
847.695	62.5
847.865	66.56
848.035	52.87
848.205	57.46
848.375	49.05
848.545	42.84
848.715	44.85
848.884	48.93
849.054	41.15
849.224	43.99
849.394	46.11
849.564	45.81
849.733	43.11
849.903	51.34
850.073	42.72
850.243	47.39
850.412	57.01
850.582	60.49
850.752	53.97
850.921	56.44
851.091	52.85
851.26	48.45
851.43	49
851.599	53.9
851.769	45.52
851.939	49.93
852.108	45.75
852.278	42.93
852.447	35.04
852.616	43.69
852.786	46.1
852.955	50.49
853.125	49.65
853.294	47.13
853.463	32.74
853.633	39.45
853.802	48.63
853.971	54.72
854.141	49.36
854.31	53.46
854.479	55.11
854.648	44.99
854.818	33.15
854.987	28.05
855.156	27.14
855.325	42.93
855.494	43.25
855.663	28.77
855.832	17.78
856.001	29.86
856.171	29.6
856.34	22.38
856.509	20.61
856.678	21.07
856.847	34.03
857.016	43.2
857.185	43.77
857.353	34.15
857.522	37.25
857.691	42.73
857.86	36.47
858.029	31.72
858.198	34.94
858.367	37.92
858.535	47.45
858.704	44.19
858.873	39.33
859.042	33.14
859.21	41.27
859.379	37.95
859.548	45.48
859.717	41.23
859.885	51.39
860.054	54.73
860.222	53.41
860.391	56.95
860.56	60.34
860.728	58.46
860.897	58.48
861.065	54
861.234	60.53
861.402	55.1
861.571	53.31
861.739	48.54
861.908	46.22
862.076	47.53
862.244	40.89
862.413	38.78
862.581	37.88
862.749	48.72
862.918	53.89
863.086	51.21
863.254	48.31
863.423	48.29
863.591	47.25
863.759	48.1
863.927	52.6
864.096	54.61
864.264	45.66
864.432	41.74
864.6	41.39
864.768	40.6
864.936	42.7
865.104	39.12
865.272	44.4
865.44	44.05
865.608	32.17
865.776	27.27
865.944	19.09
866.112	31.19
866.28	34.77
866.448	26.44
866.616	21.41
866.784	8.91
866.952	8.23
867.12	9.3
867.288	19.32
867.455	27.99
867.623	28.18
867.791	29.02
867.959	25.72
868.127	26.95
868.294	28.75
868.462	37.12
868.63	42.45
868.797	48.43
868.965	51.62
869.133	37.41
869.3	44.92
869.468	40.92
869.636	46.66
869.803	43.87
869.971	48.43
870.138	43.53
870.306	36.54
870.473	38.42
870.641	39.78
870.808	42.71
870.975	53.04
871.143	49.88
871.31	58.51
871.478	61.08
871.645	55.49
871.812	65.05
871.98	69.06
872.147	59.44
872.314	70.34
872.482	55.72
872.649	56.16
872.816	47.14
872.983	39.35
873.15	28.33
873.318	20.62
873.485	28.38
873.652	14.77
873.819	6
873.986	12.09
874.153	7.04
874.32	7.47
874.487	-2.14
874.654	-2.91
874.821	-5.09
874.988	-3.25
875.155	7.22
875.322	6.56
875.489	3.5
875.656	7.74
875.823	8.51
875.99	15.99
876.157	20.06
876.324	19.75
876.49	28.55
876.657	37.76
876.824	37.62
876.991	28.79
877.157	26.16
877.324	30.87
877.491	40.98
877.658	45.68
877.824	53.72
877.991	48.16
878.157	50.51
878.324	51.22
878.491	50.4
878.657	65.32
878.824	65.79
878.99	71.75
879.157	62.84
879.323	51.81
879.49	41.15
879.656	34.3
879.823	39.08
879.989	44.79
880.156	41.43
880.322	42.08
880.488	29.38
880.655	36.39
880.821	28.37
880.987	33.21
881.154	35.16
881.32	35.26
881.486	36.63
881.652	34.82
881.819	38.56
881.985	36.74
882.151	38.32
882.317	40.7
882.483	42.04
882.649	43.92
882.816	42.47
882.982	42.12
883.148	42.74
883.314	42.82
883.48	44.57
883.646	43.08
883.812	43.64
883.978	42.63
884.144	43.06
884.31	41.73
884.476	40.83
884.642	40.45
884.807	40.37
884.973	40.49
885.139	39.79
885.305	37.89
885.471	38.38
885.637	39.39
885.802	38.55
885.968	38.07
886.134	38.69
886.3	41.08
886.465	43.85
886.631	43.26
886.797	42.11
886.962	43.78
887.128	46.25
887.293	47.25
887.459	45.17
887.625	48.37
887.79	51.77
887.956	51.8
888.121	48.73
888.287	45.43
888.452	47.75
888.618	51.95
888.783	46.94
