Data from LC_252_Reflection_3.txt Node
Date: Thu Nov 19 23:09:29 EST 2015
User: robert
Spectrometer: USB4E03001
Autoset integration time: false
Trigger mode: 4
Integration Time (sec): 1.000000E-1
Scans to average: 15
Electric dark correction enabled: true
Nonlinearity correction enabled: false
Boxcar width: 5
Stray light correction enabled: false
XAxis mode: Wavelengths
Stop averaging: false
Number of Pixels in Spectrum: 3648
>>>>>Begin Spectral Data<<<<<
177.566	-2.15
177.785	22.55
178.005	32.54
178.225	30.75
178.445	21.87
178.665	-3.09
178.885	8.01
179.105	20.83
179.324	-20.37
179.544	-98.01
179.764	37.22
179.984	21.94
180.204	-0.38
180.423	-16.8
180.643	-11.65
180.863	20.55
181.083	97.82
181.302	39.37
181.522	34.66
181.742	65.4
181.961	97.76
182.181	141.06
182.401	154.37
182.621	117.79
182.84	240.54
183.06	192.51
183.279	174.95
183.499	85.14
183.719	323.46
183.938	439.39
184.158	149.71
184.377	51.28
184.597	-229.96
184.816	1565.09
185.036	150.81
185.256	-1058.89
185.475	-7.9
185.695	30.28
185.914	11.6
186.134	159.15
186.353	157.4
186.572	150.78
186.792	261.89
187.011	-2273.09
187.231	-614.31
187.45	-924.3
187.67	-43.39
187.889	-64.24
188.108	-13.25
188.328	-30.29
188.547	-60.4
188.766	-176.81
188.986	-30.88
189.205	1241.18
189.424	51.98
189.644	88.07
189.863	66.95
190.082	61.62
190.302	41.68
190.521	65.22
190.74	84.52
190.959	113.46
191.178	92.91
191.398	111.68
191.617	95.58
191.836	257.51
192.055	140.33
192.274	225.66
192.494	175.06
192.713	97.32
192.932	76.45
193.151	61.15
193.37	58.24
193.589	63.29
193.808	52.13
194.027	47.47
194.246	55.44
194.465	43.66
194.685	29.03
194.904	50.93
195.123	47.8
195.342	41.07
195.561	20.79
195.78	31.59
195.999	26.19
196.218	21.91
196.436	25.92
196.655	-7.56
196.874	6.63
197.093	8.68
197.312	-22.81
197.531	-5.37
197.75	-16.48
197.969	65.94
198.188	104.43
198.407	17.6
198.625	10.67
198.844	-9.4
199.063	-1084.67
199.282	-67.33
199.501	-22.63
199.719	-2.98
199.938	47.61
200.157	-37.66
200.376	25.69
200.594	241.37
200.813	-113.69
201.032	23.64
201.251	-101.31
201.469	-122.25
201.688	21.65
201.907	131.35
202.125	424.65
202.344	115.15
202.563	83.95
202.781	39.82
203	4.38
203.218	23.99
203.437	53.94
203.656	81.98
203.874	41.53
204.093	27.77
204.311	5.68
204.53	3.56
204.748	10.67
204.967	24.4
205.185	2.78
205.404	-68.67
205.622	-73.89
205.841	-6.21
206.059	-22.99
206.278	-15.26
206.496	-6.13
206.715	-4.09
206.933	-20.32
207.151	30.24
207.37	31.58
207.588	38.41
207.806	146.88
208.025	119
208.243	-1.04
208.461	-156.47
208.68	-221.8
208.898	-103.52
209.116	-65.58
209.335	-59.42
209.553	-362.13
209.771	1984.03
209.989	-234.81
210.208	365.07
210.426	401.61
210.644	-9.43
210.862	80.98
211.081	155.15
211.299	126.61
211.517	115.22
211.735	80.96
211.953	78.85
212.171	71.95
212.39	100.29
212.608	94.68
212.826	108.65
213.044	154.98
213.262	132.59
213.48	109.21
213.698	96.84
213.916	118.36
214.134	105.27
214.352	152.27
214.57	194.65
214.788	379.6
215.006	161.2
215.224	-26.61
215.442	-41.68
215.66	1.82
215.878	-129.93
216.096	-63.14
216.314	71.35
216.532	297.63
216.75	362.92
216.968	6.39
217.185	251.09
217.403	139.49
217.621	-330.92
217.839	-32.66
218.057	-18.09
218.275	36.21
218.492	28.9
218.71	10.28
218.928	-21.12
219.146	-54.74
219.363	-12.2
219.581	-14.34
219.799	5.57
220.017	14.42
220.234	24.2
220.452	31.38
220.67	34.74
220.887	32.63
221.105	46.84
221.323	46.25
221.54	44.66
221.758	57.17
221.976	46.01
222.193	49.54
222.411	51.85
222.629	54.59
222.846	58.14
223.064	60.8
223.281	58.36
223.499	51.55
223.716	57.48
223.934	58.11
224.151	40.37
224.369	37.29
224.586	33.57
224.804	31.33
225.021	39.16
225.239	37.25
225.456	29.96
225.674	24.79
225.891	22.85
226.108	22.41
226.326	18.45
226.543	30.42
226.76	29.08
226.978	17.65
227.195	10.23
227.413	4.46
227.63	2.89
227.847	5.57
228.064	9.19
228.282	8.53
228.499	8.44
228.716	7.47
228.934	5.72
229.151	7.96
229.368	6.75
229.585	8.76
229.802	7.91
230.02	6.55
230.237	5.99
230.454	5.23
230.671	4.97
230.888	5.54
231.105	4.9
231.323	5.63
231.54	-0.34
231.757	0.93
231.974	1.16
232.191	0.88
232.408	5.81
232.625	7.88
232.842	12.06
233.059	17.71
233.276	21.22
233.493	25.52
233.71	25.85
233.927	31.72
234.144	32.99
234.361	25.57
234.578	25.25
234.795	23.51
235.012	22.95
235.229	16.68
235.446	14.36
235.663	6.59
235.879	2.8
236.096	-1.37
236.313	-7
236.53	-3.2
236.747	3.03
236.964	7.28
237.181	4.81
237.397	3.02
237.614	3.23
237.831	5.85
238.048	14.14
238.264	17.01
238.481	15.87
238.698	17.5
238.915	20.37
239.131	14.51
239.348	12.55
239.565	16.19
239.781	16.82
239.998	17.13
240.215	11.98
240.431	8.98
240.648	9.6
240.865	11
241.081	9.17
241.298	5.88
241.514	7.08
241.731	8.28
241.947	6.98
242.164	5.85
242.38	6.6
242.597	7.71
242.814	7.59
243.03	6.59
243.246	7.39
243.463	7.89
243.679	7.15
243.896	8.14
244.112	7.92
244.329	7.71
244.545	9.55
244.762	9.44
244.978	8.63
245.194	8.46
245.411	10.1
245.627	9.09
245.843	10.56
246.06	11.98
246.276	11.44
246.492	11.62
246.709	11.57
246.925	10.6
247.141	9.85
247.357	10.42
247.574	10.64
247.79	10.18
248.006	10.48
248.222	9.88
248.439	9.74
248.655	8.9
248.871	7.88
249.087	8.27
249.303	8.04
249.519	7.45
249.736	7.55
249.952	6.49
250.168	6.06
250.384	5.79
250.6	4.99
250.816	4.63
251.032	6.15
251.248	6.84
251.464	5.98
251.68	6.64
251.896	7.35
252.112	6.74
252.328	7.74
252.544	7.74
252.76	7.82
252.976	9.71
253.192	9.07
253.408	7.66
253.624	7.97
253.84	7.44
254.056	6.88
254.272	7.33
254.487	5.57
254.703	4.53
254.919	5.02
255.135	4.87
255.351	4.79
255.567	7.69
255.782	9.4
255.998	10.05
256.214	10.08
256.43	8.54
256.646	11.53
256.861	12.8
257.077	13.18
257.293	13
257.508	14.15
257.724	12.88
257.94	10.93
258.155	10.56
258.371	10
258.587	9.65
258.802	9.73
259.018	8.96
259.234	9.61
259.449	9.35
259.665	9.31
259.88	8.73
260.096	8.59
260.312	8.01
260.527	8.47
260.743	8.39
260.958	8.31
261.174	8.71
261.389	8.49
261.605	8.25
261.82	8.4
262.036	7.63
262.251	7.37
262.466	7.51
262.682	8.42
262.897	8.59
263.113	8.16
263.328	9.83
263.543	10.3
263.759	9.8
263.974	8.41
264.189	9.99
264.405	9.06
264.62	8.51
264.835	8.49
265.051	8.22
265.266	7.84
265.481	9.16
265.696	9.02
265.912	8.16
266.127	9.7
266.342	9.63
266.557	9.41
266.773	10.82
266.988	11.1
267.203	10.33
267.418	10.96
267.633	9.38
267.848	8.3
268.064	7.58
268.279	7.51
268.494	6.66
268.709	6.5
268.924	5.25
269.139	4.79
269.354	4.51
269.569	4
269.784	3.8
269.999	4.22
270.214	4.81
270.429	4.73
270.644	4.6
270.859	4.26
271.074	4.03
271.289	4.48
271.504	4.91
271.719	5.49
271.934	5.41
272.149	4.96
272.363	5.15
272.578	5.9
272.793	6.16
273.008	6.56
273.223	6.43
273.438	7.89
273.653	7.65
273.867	7.42
274.082	6.79
274.297	6.6
274.512	7.05
274.726	8.24
274.941	6.27
275.156	5.42
275.371	4.92
275.585	5.16
275.8	3.76
276.015	4.05
276.229	4.92
276.444	5.11
276.659	6.02
276.873	5.13
277.088	4.15
277.302	4.62
277.517	4.67
277.732	5.5
277.946	5.91
278.161	7
278.375	6.01
278.59	5.01
278.804	5.21
279.019	5.94
279.233	6.27
279.448	8.06
279.662	9.27
279.877	9.44
280.091	9.05
280.306	8.6
280.52	8.26
280.735	9.87
280.949	10.25
281.163	9.85
281.378	9.46
281.592	10.76
281.806	10.26
282.021	10.9
282.235	10.66
282.449	10.64
282.664	10.85
282.878	10.67
283.092	9.42
283.307	10.51
283.521	11.08
283.735	11.71
283.949	10.96
284.164	9.98
284.378	8.42
284.592	7.92
284.806	8.27
285.02	8.8
285.234	9.51
285.449	9.64
285.663	9.22
285.877	10
286.091	9.35
286.305	9.02
286.519	9.26
286.733	9.02
286.947	10.12
287.161	9.01
287.375	8.49
287.589	6.85
287.803	7.34
288.017	7.15
288.231	6.18
288.445	5.79
288.659	6.07
288.873	5.88
289.087	5.92
289.301	5.55
289.515	5.96
289.729	5.73
289.943	6.9
290.157	7.63
290.371	7.35
290.584	7.76
290.798	8.53
291.012	8.77
291.226	8.54
291.44	9.7
291.654	9.22
291.867	9.37
292.081	9.04
292.295	9.15
292.509	7.41
292.722	7.87
292.936	7.45
293.15	7.11
293.364	8.2
293.577	8.28
293.791	6.9
294.005	8.17
294.218	8.44
294.432	9.45
294.645	9.77
294.859	10.05
295.073	9.29
295.286	9.35
295.5	9.55
295.713	8.65
295.927	9.2
296.14	9.94
296.354	8.98
296.568	9.11
296.781	8.65
296.994	8.86
297.208	9.05
297.421	9.68
297.635	10.03
297.848	9.93
298.062	10.5
298.275	10.37
298.489	10.43
298.702	11.17
298.915	11.42
299.129	12.42
299.342	11.31
299.555	11.7
299.769	10.28
299.982	9.65
300.195	10.15
300.409	9.6
300.622	8.79
300.835	9.26
301.048	9.65
301.262	8.72
301.475	7.06
301.688	7.53
301.901	7.79
302.115	7.91
302.328	8.11
302.541	6.7
302.754	6.94
302.967	8.15
303.18	7.45
303.393	6.7
303.607	7.93
303.82	8.88
304.033	9.45
304.246	9.45
304.459	10.65
304.672	10.72
304.885	11.83
305.098	11.63
305.311	11.32
305.524	11.04
305.737	10.2
305.95	10.06
306.163	9.26
306.376	9.1
306.589	8.71
306.802	7.57
307.015	7.22
307.228	7.76
307.44	6.88
307.653	6.8
307.866	8.27
308.079	9.36
308.292	9.63
308.505	10.38
308.718	10
308.93	9.95
309.143	10.56
309.356	10.76
309.569	10.33
309.781	10.66
309.994	10.84
310.207	10.32
310.42	10.95
310.632	10.09
310.845	10.24
311.058	10.36
311.27	10.14
311.483	10.19
311.696	9.54
311.908	9.92
312.121	9.8
312.333	9.53
312.546	8.95
312.759	8.36
312.971	9.07
313.184	8.69
313.396	9.39
313.609	9.4
313.821	9.8
314.034	10.93
314.246	10.01
314.459	10.64
314.671	11.3
314.884	12.01
315.096	12.46
315.309	12.43
315.521	12.52
315.733	11.3
315.946	12.73
316.158	12.88
316.371	12.66
316.583	13.14
316.795	11.79
317.008	10.81
317.22	10.46
317.432	9.73
317.644	10.14
317.857	9.09
318.069	9.14
318.281	7.44
318.494	8.04
318.706	7.08
318.918	6.14
319.13	7.5
319.342	6.52
319.555	6.15
319.767	6.45
319.979	5.98
320.191	7.03
320.403	7.6
320.615	8.78
320.827	8.15
321.039	7.02
321.252	7.87
321.464	7.83
321.676	9.12
321.888	8.88
322.1	8.75
322.312	7.9
322.524	9.32
322.736	8.45
322.948	8.72
323.16	8.3
323.372	9.63
323.584	9.5
323.796	7.61
324.007	8.11
324.219	8.66
324.431	9.25
324.643	9.74
324.855	8.9
325.067	9.09
325.279	8.53
325.491	9.08
325.702	9.1
325.914	9.29
326.126	10.55
326.338	10.52
326.55	10.15
326.761	10.49
326.973	10.69
327.185	10.74
327.396	11.73
327.608	12.32
327.82	12.08
328.032	12.09
328.243	12.57
328.455	12.82
328.666	12.89
328.878	12.14
329.09	11.62
329.301	12.22
329.513	12.2
329.725	11.5
329.936	10.6
330.148	10.86
330.359	11.57
330.571	11.88
330.782	12.32
330.994	12.11
331.205	13.38
331.417	13.57
331.628	13.31
331.84	13.3
332.051	13.55
332.262	13.79
332.474	14.54
332.685	14.48
332.897	14.17
333.108	13.49
333.319	14.37
333.531	14.37
333.742	14.51
333.953	14.42
334.165	14.65
334.376	15.46
334.587	15.66
334.799	14.57
335.01	14.14
335.221	13.6
335.432	13.97
335.644	12.96
335.855	12.82
336.066	13.11
336.277	12.51
336.488	12.05
336.7	11.41
336.911	11.17
337.122	11.46
337.333	11.73
337.544	11.25
337.755	11.2
337.966	10.95
338.177	11.29
338.388	10.86
338.599	11.35
338.811	11.49
339.022	10.43
339.233	9.3
339.444	9.74
339.655	9.29
339.866	9.41
340.076	9.05
340.287	9.3
340.498	8.88
340.709	8.62
340.92	8.57
341.131	8.33
341.342	8.92
341.553	10.55
341.764	9.34
341.975	9.55
342.185	9.87
342.396	9.98
342.607	10.25
342.818	10.04
343.029	10.42
343.239	10.25
343.45	10.45
343.661	11.12
343.872	11.2
344.082	11.65
344.293	12.13
344.504	12.56
344.714	12.79
344.925	12.66
345.136	12.4
345.346	11.09
345.557	10.76
345.768	10.28
345.978	9.94
346.189	8.85
346.399	9.21
346.61	8.66
346.821	8.21
347.031	7.65
347.242	8.41
347.452	9.64
347.663	10.44
347.873	11.22
348.084	12.16
348.294	12.28
348.504	12.99
348.715	13.42
348.925	13.46
349.136	14.09
349.346	14.31
349.557	13.88
349.767	13.14
349.977	13.45
350.188	12.66
350.398	11.93
350.608	12.32
350.819	12.8
351.029	11.69
351.239	11.84
351.449	11.16
351.66	11.42
351.87	11.27
352.08	11.15
352.29	11.31
352.501	11.1
352.711	11.3
352.921	10.68
353.131	9.38
353.341	9.27
353.552	9.45
353.762	8.84
353.972	8.52
354.182	8.53
354.392	8.48
354.602	7.74
354.812	7.61
355.022	7.69
355.232	7.98
355.442	8.44
355.652	8.37
355.862	8.34
356.072	8.73
356.282	9.39
356.492	9.07
356.702	9
356.912	9.03
357.122	10.22
357.332	10.37
357.542	9.94
357.752	9.51
357.962	9.92
358.171	10.04
358.381	10.45
358.591	9.96
358.801	9.72
359.011	10.14
359.221	10.33
359.43	9.57
359.64	9.12
359.85	9.63
360.06	10.02
360.269	10.27
360.479	9.57
360.689	8.66
360.899	8.63
361.108	8.81
361.318	8.51
361.528	8.82
361.737	8.46
361.947	8.64
362.156	8.33
362.366	8.55
362.576	8.35
362.785	8.45
362.995	8.75
363.204	8.91
363.414	9
363.623	9.15
363.833	9.31
364.042	9.7
364.252	9.92
364.461	9.55
364.671	9.04
364.88	9.56
365.09	9.67
365.299	10.27
365.509	10.62
365.718	10.51
365.927	10.61
366.137	10.03
366.346	9.91
366.555	9.35
366.765	9.47
366.974	9.6
367.183	9.01
367.393	8.66
367.602	9.14
367.811	9.27
368.021	9.64
368.23	8.72
368.439	8.82
368.648	9.03
368.857	9.73
369.067	9.78
369.276	10.19
369.485	10.05
369.694	10.2
369.903	8.92
370.112	8.25
370.321	7.73
370.531	8.54
370.74	8.16
370.949	7.87
371.158	7.17
371.367	7.33
371.576	6.68
371.785	6.91
371.994	7.35
372.203	7.84
372.412	8.01
372.621	7.78
372.83	7.54
373.039	7.76
373.248	8.21
373.457	8.73
373.666	9.29
373.874	9.23
374.083	8.64
374.292	8.86
374.501	8.63
374.71	8.74
374.919	8.86
375.128	8.9
375.336	8.69
375.545	8.37
375.754	7.71
375.963	7.25
376.171	7.4
376.38	7.78
376.589	7.17
376.798	6.9
377.006	6.75
377.215	6.72
377.424	6.31
377.632	6.58
377.841	6.53
378.05	7.07
378.258	6.78
378.467	6.76
378.675	6.73
378.884	7.06
379.093	7.44
379.301	7.24
379.51	7.42
379.718	7.78
379.927	7.62
380.135	7.88
380.344	7.09
380.552	7.64
380.761	7.62
380.969	7.54
381.177	7.47
381.386	7.05
381.594	7.36
381.803	6.92
382.011	6.59
382.219	6.77
382.428	6.86
382.636	7
382.845	6.92
383.053	6.8
383.261	6.92
383.469	6.83
383.678	7.19
383.886	6.93
384.094	7.21
384.302	7.6
384.511	7.3
384.719	7
384.927	7.18
385.135	7.01
385.343	7.16
385.552	7.16
385.76	6.93
385.968	6.77
386.176	6.77
386.384	6.89
386.592	6.82
386.8	7.03
387.008	6.65
387.216	6.51
387.424	6.5
387.633	6.42
387.841	6.1
388.049	5.97
388.257	6.23
388.465	6
388.672	5.84
388.88	5.61
389.088	5.35
389.296	5.56
389.504	5.38
389.712	5.37
389.92	5.38
390.128	5.48
390.336	5.61
390.544	5.1
390.751	5.24
390.959	5.26
391.167	5.49
391.375	5.53
391.583	5.23
391.79	5.37
391.998	5.3
392.206	5.45
392.414	5.41
392.621	5.59
392.829	5.88
393.037	5.99
393.244	5.96
393.452	5.79
393.66	5.6
393.867	5.95
394.075	6.04
394.283	5.85
394.49	5.69
394.698	5.57
394.905	5.55
395.113	5.36
395.32	5.38
395.528	5.46
395.735	5.58
395.943	5.64
396.15	5.37
396.358	5.42
396.565	5.83
396.773	5.83
396.98	6.25
397.188	6.07
397.395	5.82
397.602	5.45
397.81	5.27
398.017	5.19
398.225	5.19
398.432	5.19
398.639	5.05
398.847	4.61
399.054	4.22
399.261	4.05
399.468	4.2
399.676	4.55
399.883	4.52
400.09	4.46
400.297	4.44
400.505	4.93
400.712	5.13
400.919	5.27
401.126	5.52
401.333	6.01
401.54	5.83
401.748	6
401.955	5.99
402.162	6.18
402.369	6.5
402.576	6.59
402.783	5.99
402.99	6.32
403.197	6.38
403.404	6.26
403.611	6.11
403.818	6.23
404.025	5.83
404.232	5.63
404.439	5.85
404.646	5.82
404.853	5.85
405.06	6.02
405.267	5.8
405.474	5.79
405.681	5.78
405.887	5.97
406.094	5.9
406.301	5.96
406.508	6.23
406.715	5.78
406.922	5.54
407.128	5.32
407.335	5.15
407.542	5.04
407.749	4.93
407.955	4.95
408.162	4.87
408.369	4.65
408.575	4.97
408.782	4.68
408.989	4.97
409.195	5.02
409.402	5.13
409.609	5.13
409.815	5.11
410.022	4.95
410.228	5.11
410.435	5.01
410.642	5.32
410.848	5.16
411.055	5.32
411.261	5.41
411.468	5.56
411.674	5.52
411.881	5.77
412.087	5.6
412.294	5.74
412.5	5.48
412.706	5.53
412.913	5.37
413.119	5.1
413.326	4.8
413.532	4.69
413.738	4.67
413.945	4.53
414.151	4.42
414.357	4.75
414.564	4.72
414.77	4.76
414.976	4.72
415.182	4.76
415.389	5.09
415.595	5.23
415.801	5.08
416.007	4.98
416.214	5.06
416.42	5.06
416.626	4.91
416.832	4.97
417.038	4.81
417.244	4.86
417.45	4.99
417.657	4.91
417.863	5.09
418.069	5.28
418.275	5.31
418.481	5.26
418.687	5.17
418.893	5.26
419.099	5.27
419.305	5.48
419.511	5.4
419.717	5.13
419.923	5.06
420.129	4.87
420.335	4.67
420.541	4.58
420.746	4.53
420.952	4.62
421.158	4.63
421.364	4.47
421.57	4.3
421.776	4.43
421.982	4.48
422.187	4.55
422.393	4.64
422.599	4.71
422.805	4.74
423.01	4.77
423.216	4.69
423.422	4.5
423.628	4.61
423.833	4.6
424.039	4.56
424.245	4.61
424.45	4.61
424.656	4.67
424.862	4.75
425.067	4.69
425.273	4.76
425.478	4.89
425.684	5.1
425.889	5.16
426.095	5.21
426.301	5.16
426.506	5.2
426.712	5.14
426.917	5.16
427.123	5.06
427.328	5.04
427.533	5.07
427.739	5.11
427.944	5.02
428.15	4.89
428.355	4.8
428.561	4.77
428.766	4.77
428.971	4.86
429.177	4.74
429.382	4.75
429.587	5.03
429.793	5.02
429.998	4.8
430.203	4.61
430.408	4.59
430.614	4.93
430.819	4.78
431.024	4.78
431.229	4.6
431.434	4.45
431.64	4.41
431.845	4.47
432.05	4.44
432.255	4.37
432.46	4.43
432.665	4.45
432.87	4.29
433.076	4.29
433.281	4.25
433.486	4.43
433.691	4.47
433.896	4.48
434.101	4.34
434.306	4.19
434.511	4.22
434.716	4.28
434.921	4.37
435.126	4.52
435.331	4.64
435.535	4.62
435.74	4.42
435.945	4.58
436.15	4.59
436.355	4.57
436.56	4.68
436.765	4.77
436.97	4.75
437.174	4.62
437.379	4.32
437.584	4.32
437.789	4.35
437.993	4.29
438.198	4.11
438.403	3.95
438.608	4.08
438.812	4.13
439.017	4.1
439.222	4.13
439.426	4.11
439.631	4.21
439.836	4.27
440.04	4.36
440.245	4.48
440.45	4.58
440.654	4.68
440.859	4.54
441.063	4.62
441.268	4.63
441.472	4.48
441.677	4.48
441.881	4.47
442.086	4.24
442.29	4.22
442.495	4.11
442.699	4.13
442.904	4.38
443.108	4.5
443.312	4.32
443.517	4.33
443.721	4.51
443.925	4.67
444.13	4.65
444.334	4.82
444.538	4.82
444.743	4.91
444.947	4.84
445.151	4.56
445.356	4.64
445.56	4.6
445.764	4.56
445.968	4.58
446.173	4.52
446.377	4.58
446.581	4.6
446.785	4.55
446.989	4.56
447.193	4.49
447.398	4.39
447.602	4.1
447.806	4.21
448.01	4.22
448.214	4.15
448.418	4.03
448.622	3.92
448.826	3.88
449.03	3.75
449.234	3.51
449.438	3.54
449.642	3.6
449.846	3.73
450.05	3.78
450.254	3.82
450.458	3.78
450.662	3.86
450.866	3.88
451.069	3.92
451.273	4.08
451.477	4.17
451.681	4.17
451.885	4.32
452.089	4.4
452.292	4.26
452.496	4.13
452.7	4.23
452.904	4.13
453.107	4.31
453.311	4.42
453.515	4.41
453.719	4.6
453.922	4.65
454.126	4.46
454.33	4.48
454.533	4.39
454.737	4.45
454.94	4.39
455.144	4.48
455.348	4.3
455.551	4.2
455.755	3.97
455.958	3.92
456.162	3.94
456.365	4.08
456.569	4.04
456.772	4.2
456.976	4.26
457.179	4.43
457.383	4.45
457.586	4.48
457.79	4.56
457.993	4.64
458.196	4.63
458.4	4.68
458.603	4.74
458.807	4.79
459.01	4.72
459.213	4.76
459.417	4.57
459.62	4.61
459.823	4.62
460.026	4.51
460.23	4.66
460.433	4.62
460.636	4.52
460.839	4.46
461.042	4.46
461.246	4.47
461.449	4.35
461.652	4.38
461.855	4.26
462.058	4.12
462.261	4.2
462.464	4.08
462.668	4.14
462.871	4.34
463.074	4.38
463.277	4.21
463.48	4.23
463.683	4.23
463.886	4.34
464.089	4.36
464.292	4.48
464.495	4.57
464.698	4.39
464.901	4.29
465.104	4.18
465.306	4.11
465.509	4.15
465.712	4.14
465.915	4.23
466.118	4.12
466.321	4.23
466.524	4.2
466.726	3.99
466.929	4.12
467.132	4.27
467.335	4.3
467.538	4.11
467.74	4.11
467.943	4.02
468.146	4.07
468.348	4.19
468.551	3.96
468.754	3.99
468.956	4.07
469.159	4
469.362	3.95
469.564	3.78
469.767	4.01
469.969	3.97
470.172	4.14
470.375	3.95
470.577	3.8
470.78	4.04
470.982	4.09
471.185	4.13
471.387	4.17
471.59	4.14
471.792	4.34
471.995	4.47
472.197	4.5
472.399	4.47
472.602	4.57
472.804	4.51
473.007	4.48
473.209	4.25
473.411	4.19
473.614	4.25
473.816	4.33
474.018	4.31
474.22	4.23
474.423	4.32
474.625	4.19
474.827	4.18
475.03	4.22
475.232	4.28
475.434	4.57
475.636	4.54
475.838	4.47
476.04	4.25
476.243	4.09
476.445	4
476.647	4.01
476.849	4.09
477.051	4.12
477.253	4.12
477.455	4.07
477.657	3.97
477.859	3.95
478.061	3.92
478.263	4.01
478.465	4.05
478.667	4
478.869	4.01
479.071	3.9
479.273	3.88
479.475	3.86
479.677	3.89
479.879	3.97
480.081	4.03
480.283	4.1
480.485	4.01
480.686	3.96
480.888	4
481.09	4.01
481.292	4.08
481.494	4.06
481.695	4.2
481.897	4.14
482.099	4.04
482.301	4.05
482.502	4.03
482.704	4.1
482.906	4.16
483.107	4.13
483.309	4.16
483.511	4.15
483.712	4.14
483.914	4.13
484.115	4.13
484.317	4.16
484.519	4.14
484.72	4.15
484.922	4.14
485.123	4.14
485.325	4.21
485.526	4.16
485.728	4.2
485.929	4.25
486.131	4.18
486.332	4.23
486.534	4.18
486.735	4.22
486.936	4.23
487.138	4.27
487.339	4.21
487.541	4.19
487.742	4.13
487.943	4.14
488.144	4.11
488.346	4.17
488.547	4.13
488.748	4.23
488.95	4.27
489.151	4.29
489.352	4.22
489.553	4.36
489.755	4.33
489.956	4.41
490.157	4.39
490.358	4.41
490.559	4.41
490.76	4.41
490.961	4.37
491.163	4.34
491.364	4.32
491.565	4.37
491.766	4.3
491.967	4.36
492.168	4.32
492.369	4.36
492.57	4.27
492.771	4.24
492.972	4.21
493.173	4.2
493.374	4.21
493.575	4.23
493.776	4.21
493.976	4.07
494.177	3.99
494.378	4.17
494.579	3.93
494.78	4.01
494.981	3.94
495.182	4.04
495.382	3.95
495.583	3.78
495.784	3.68
495.985	3.75
496.185	3.79
496.386	3.85
496.587	3.74
496.788	3.79
496.988	3.92
497.189	3.91
497.39	4.05
497.59	4.1
497.791	4.22
497.992	4.22
498.192	4.3
498.393	4.41
498.593	4.43
498.794	4.48
498.994	4.6
499.195	4.49
499.395	4.59
499.596	4.31
499.796	4.39
499.997	4.35
500.197	4.34
500.398	4.23
500.598	4.14
500.799	4.13
500.999	3.99
501.199	3.98
501.4	4.04
501.6	3.95
501.801	4.05
502.001	3.89
502.201	3.84
502.402	3.99
502.602	3.98
502.802	4.05
503.002	4.05
503.203	4.17
503.403	4.1
503.603	3.98
503.803	4.16
504.003	4.24
504.204	4.35
504.404	4.39
504.604	4.29
504.804	4.42
505.004	4.42
505.204	4.46
505.404	4.42
505.604	4.58
505.804	4.74
506.005	4.62
506.205	4.56
506.405	4.58
506.605	4.64
506.805	4.68
507.005	4.49
507.204	4.49
507.404	4.29
507.604	4.26
507.804	4.24
508.004	4.37
508.204	4.34
508.404	4.35
508.604	4.39
508.804	4.36
509.003	4.45
509.203	4.45
509.403	4.42
509.603	4.52
509.803	4.61
510.002	4.5
510.202	4.19
510.402	4.26
510.602	4.21
510.801	4.21
511.001	4.16
511.201	3.99
511.4	4.06
511.6	4.17
511.8	4.12
511.999	4.05
512.199	4.22
512.398	4.24
512.598	4.26
512.797	4.43
512.997	4.4
513.197	4.52
513.396	4.64
513.596	4.59
513.795	4.46
513.994	4.54
514.194	4.74
514.393	4.65
514.593	4.81
514.792	4.76
514.992	4.62
515.191	4.67
515.39	4.69
515.59	4.71
515.789	4.71
515.988	4.88
516.188	4.86
516.387	4.67
516.586	4.77
516.786	4.7
516.985	4.72
517.184	4.77
517.383	4.73
517.582	4.71
517.782	4.65
517.981	4.63
518.18	4.52
518.379	4.68
518.578	4.71
518.777	4.66
518.976	4.67
519.176	4.79
519.375	4.81
519.574	4.85
519.773	4.87
519.972	4.95
520.171	5.01
520.37	5.01
520.569	5
520.768	5.03
520.967	5.09
521.166	5.21
521.365	5.14
521.564	5.05
521.762	4.99
521.961	4.84
522.16	4.71
522.359	4.79
522.558	4.98
522.757	4.91
522.956	4.89
523.154	4.72
523.353	4.7
523.552	4.83
523.751	4.93
523.949	4.89
524.148	4.93
524.347	5.13
524.546	5.05
524.744	5.01
524.943	5.13
525.142	5.16
525.34	5.31
525.539	5.27
525.737	5.25
525.936	5.31
526.135	5.46
526.333	5.48
526.532	5.44
526.73	5.51
526.929	5.45
527.127	5.33
527.326	5.32
527.524	5.31
527.723	5.31
527.921	5.26
528.12	5.25
528.318	5.21
528.516	5.19
528.715	5.27
528.913	5.3
529.112	5.32
529.31	5.37
529.508	5.39
529.707	5.37
529.905	5.41
530.103	5.47
530.301	5.48
530.5	5.54
530.698	5.62
530.896	5.52
531.094	5.52
531.293	5.57
531.491	5.54
531.689	5.56
531.887	5.66
532.085	5.71
532.283	5.66
532.481	5.62
532.68	5.65
532.878	5.75
533.076	5.84
533.274	5.79
533.472	5.72
533.67	5.77
533.868	5.7
534.066	5.67
534.264	5.64
534.462	5.69
534.66	5.83
534.858	5.75
535.056	5.68
535.253	5.62
535.451	5.68
535.649	5.76
535.847	5.74
536.045	5.78
536.243	5.9
536.441	6.01
536.638	6.02
536.836	6.01
537.034	6.07
537.232	6.21
537.43	6.33
537.627	6.22
537.825	6.21
538.023	6.22
538.22	6.45
538.418	6.37
538.616	6.26
538.813	6.38
539.011	6.34
539.209	6.55
539.406	6.55
539.604	6.53
539.801	6.84
539.999	6.92
540.196	7
540.394	6.98
540.591	6.92
540.789	7.01
540.986	6.94
541.184	6.93
541.381	6.88
541.579	6.87
541.776	6.91
541.974	6.89
542.171	6.9
542.368	6.92
542.566	6.95
542.763	6.94
542.96	6.94
543.158	7.04
543.355	7.08
543.552	7.1
543.75	7.15
543.947	7.24
544.144	7.13
544.341	7.19
544.539	7.21
544.736	7.31
544.933	7.45
545.13	7.53
545.327	7.48
545.524	7.49
545.722	7.54
545.919	7.56
546.116	7.52
546.313	7.69
546.51	7.68
546.707	7.74
546.904	7.65
547.101	7.81
547.298	7.78
547.495	7.83
547.692	8
547.889	7.99
548.086	8.09
548.283	8.22
548.48	8.28
548.677	8.35
548.874	8.36
549.07	8.52
549.267	8.41
549.464	8.74
549.661	8.79
549.858	8.85
550.055	8.94
550.251	8.98
550.448	8.96
550.645	9.16
550.842	9.28
551.038	9.38
551.235	9.52
551.432	9.69
551.628	9.52
551.825	9.59
552.022	9.6
552.218	9.65
552.415	9.69
552.612	9.68
552.808	9.65
553.005	9.68
553.201	9.62
553.398	9.61
553.594	9.36
553.791	9.48
553.987	9.71
554.184	9.64
554.38	9.8
554.577	9.82
554.773	10.08
554.97	10.16
555.166	10.38
555.362	10.4
555.559	10.41
555.755	10.74
555.952	10.79
556.148	10.71
556.344	11.04
556.541	11.03
556.737	10.93
556.933	10.88
557.129	10.69
557.326	10.5
557.522	10.66
557.718	10.72
557.914	10.95
558.11	10.81
558.307	10.91
558.503	10.84
558.699	10.82
558.895	11.1
559.091	11.17
559.287	11.52
559.483	11.65
559.679	11.84
559.876	11.93
560.072	11.86
560.268	12.07
560.464	11.99
560.66	12.12
560.856	12.4
561.052	12.29
561.247	12.45
561.443	12.44
561.639	12.55
561.835	12.66
562.031	12.77
562.227	12.92
562.423	13.1
562.619	13.31
562.815	13.38
563.01	13.48
563.206	13.76
563.402	13.73
563.598	13.85
563.793	14.04
563.989	14.16
564.185	14.21
564.381	14.44
564.576	14.57
564.772	14.74
564.968	14.8
565.163	14.82
565.359	14.81
565.555	14.98
565.75	15.24
565.946	15.37
566.141	15.43
566.337	15.6
566.532	15.75
566.728	15.92
566.923	15.88
567.119	16.02
567.314	16.18
567.51	16.43
567.705	16.56
567.901	16.55
568.096	16.64
568.292	16.6
568.487	16.56
568.682	16.47
568.878	16.5
569.073	16.86
569.268	16.96
569.464	17.04
569.659	17.16
569.854	17.2
570.05	17.3
570.245	17.3
570.44	17.44
570.635	17.64
570.831	17.74
571.026	17.7
571.221	17.58
571.416	17.57
571.611	17.58
571.806	17.57
572.002	17.69
572.197	17.73
572.392	17.96
572.587	18.15
572.782	18.16
572.977	18.32
573.172	18.56
573.367	18.61
573.562	18.86
573.757	19.05
573.952	19.13
574.147	19.16
574.342	19.37
574.537	19.33
574.732	19.43
574.927	19.61
575.121	19.76
575.316	19.81
575.511	19.95
575.706	19.9
575.901	19.89
576.096	20.02
576.29	20.08
576.485	20.07
576.68	19.99
576.875	20.03
577.069	20.03
577.264	19.95
577.459	20
577.654	20.35
577.848	20.38
578.043	20.58
578.238	20.72
578.432	20.75
578.627	20.86
578.821	21.2
579.016	20.93
579.21	21
579.405	21.14
579.6	21.14
579.794	21.02
579.989	20.94
580.183	21.31
580.378	21.4
580.572	21.5
580.766	21.69
580.961	21.67
581.155	21.96
581.35	22.07
581.544	22.07
581.738	22.16
581.933	22.26
582.127	22.56
582.321	22.27
582.516	22.49
582.71	22.83
582.904	22.8
583.099	22.95
583.293	23.14
583.487	23.27
583.681	23.46
583.875	23.61
584.07	23.62
584.264	23.72
584.458	23.71
584.652	23.57
584.846	23.48
585.04	23.6
585.234	23.65
585.428	23.6
585.623	23.72
585.817	23.61
586.011	23.8
586.205	23.91
586.399	24.01
586.593	24.17
586.787	24.08
586.981	24.14
587.174	24.2
587.368	24.33
587.562	24.44
587.756	24.47
587.95	24.67
588.144	24.48
588.338	24.47
588.532	24.66
588.725	24.52
588.919	24.57
589.113	24.76
589.307	24.54
589.501	24.54
589.694	24.65
589.888	24.77
590.082	24.93
590.275	25.04
590.469	25.09
590.663	25.13
590.856	25.11
591.05	25.38
591.244	25.27
591.437	25.52
591.631	25.59
591.824	25.55
592.018	25.42
592.212	25.3
592.405	25.38
592.599	25.44
592.792	25.32
592.986	25.65
593.179	25.79
593.372	26.04
593.566	26.25
593.759	26.12
593.953	26.33
594.146	26.36
594.339	26.73
594.533	26.67
594.726	26.65
594.92	26.74
595.113	26.83
595.306	26.74
595.499	26.55
595.693	26.43
595.886	26.72
596.079	26.84
596.272	26.98
596.466	26.87
596.659	27.01
596.852	27.15
597.045	27.16
597.238	26.93
597.431	26.86
597.624	26.95
597.818	27.18
598.011	27.18
598.204	27
598.397	26.98
598.59	26.81
598.783	26.76
598.976	26.55
599.169	26.66
599.362	26.77
599.555	26.73
599.748	26.97
599.941	26.83
600.134	26.97
600.326	27.22
600.519	27.34
600.712	27.51
600.905	27.68
601.098	28.01
601.291	27.9
601.483	28.16
601.676	28.47
601.869	28.41
602.062	28.39
602.255	28.36
602.447	28.35
602.64	28.39
602.833	28.37
603.025	28.35
603.218	28.2
603.411	28.28
603.603	28.14
603.796	28.21
603.989	28.06
604.181	28.22
604.374	28.22
604.566	28.17
604.759	28.1
604.951	28.22
605.144	28.23
605.336	28.21
605.529	28.09
605.721	28.19
605.914	28.02
606.106	28.09
606.299	28.04
606.491	27.89
606.683	27.99
606.876	28.22
607.068	28.25
607.26	28.01
607.453	28.36
607.645	28.33
607.837	28.35
608.03	28.45
608.222	28.52
608.414	28.35
608.606	28.49
608.799	28.52
608.991	28.46
609.183	28.66
609.375	28.99
609.567	28.97
609.759	29.14
609.952	29.27
610.144	29.4
610.336	29.57
610.528	29.91
610.72	30.1
610.912	30.25
611.104	30.33
611.296	30.09
611.488	30.05
611.68	29.99
611.872	30.18
612.064	30.35
612.256	30.15
612.448	30.02
612.64	29.83
612.832	29.67
613.023	29.71
613.215	29.58
613.407	29.76
613.599	29.79
613.791	29.9
613.983	30.05
614.174	29.66
614.366	29.77
614.558	29.73
614.75	29.77
614.941	29.93
615.133	29.77
615.325	29.96
615.516	30.16
615.708	30.23
615.9	30.01
616.091	29.8
616.283	29.97
616.475	30.3
616.666	30.51
616.858	30.47
617.049	30.59
617.241	30.62
617.432	30.42
617.624	30.43
617.815	30.51
618.007	30.53
618.198	30.63
618.39	30.74
618.581	30.66
618.773	30.63
618.964	30.66
619.155	30.58
619.347	30.47
619.538	30.55
619.729	30.43
619.921	30.34
620.112	30.6
620.303	30.41
620.494	30.47
620.686	30.37
620.877	30.3
621.068	30.1
621.259	29.99
621.451	30.13
621.642	30.12
621.833	30.24
622.024	30.11
622.215	29.95
622.406	30.09
622.597	29.94
622.788	29.84
622.98	29.78
623.171	30.2
623.362	30.42
623.553	30.62
623.744	30.95
623.935	30.87
624.126	31.25
624.317	31.37
624.508	31.53
624.698	31.55
624.889	31.58
625.08	32.03
625.271	32.08
625.462	31.99
625.653	31.78
625.844	31.66
626.034	31.72
626.225	31.44
626.416	31.54
626.607	31.64
626.798	31.72
626.988	31.77
627.179	31.56
627.37	31.35
627.56	31.51
627.751	31.75
627.942	31.69
628.132	31.65
628.323	31.8
628.514	31.6
628.704	31.48
628.895	31.46
629.085	31.77
629.276	31.86
629.466	32.13
629.657	32.05
629.847	31.93
630.038	32.19
630.228	32.39
630.419	32.25
630.609	32.44
630.8	32.47
630.99	32.75
631.181	32.67
631.371	32.33
631.561	32.28
631.752	32.33
631.942	32.33
632.132	32.11
632.323	31.75
632.513	31.84
632.703	31.87
632.893	31.85
633.084	31.76
633.274	31.81
633.464	32.13
633.654	32.03
633.844	31.9
634.034	31.87
634.225	32.01
634.415	32.3
634.605	32.21
634.795	32.36
634.985	32.12
635.175	32
635.365	31.94
635.555	32
635.745	32.29
635.935	32.62
636.125	32.81
636.315	32.95
636.505	32.92
636.695	33.09
636.885	32.89
637.075	32.91
637.265	33.14
637.455	32.81
637.644	32.75
637.834	32.41
638.024	31.99
638.214	31.94
638.404	31.88
638.593	31.86
638.783	32
638.973	32.09
639.163	32.4
639.352	32.16
639.542	32.28
639.732	32.51
639.921	32.88
640.111	33.01
640.301	33.03
640.49	33.07
640.68	32.91
640.87	32.99
641.059	32.99
641.249	33.21
641.438	33.26
641.628	33.49
641.817	33.27
642.007	33.32
642.196	33.54
642.386	33.47
642.575	34
642.764	34.35
642.954	34.28
643.143	34.34
643.333	34.3
643.522	34.52
643.711	34.43
643.901	34.5
644.09	34.36
644.279	34.17
644.469	34.12
644.658	33.48
644.847	33.25
645.036	33.33
645.226	33.6
645.415	33.01
645.604	32.78
645.793	33.03
645.982	32.75
646.171	32.82
646.361	33.01
646.55	33.02
646.739	33.19
646.928	33.41
647.117	33.63
647.306	33.3
647.495	33.65
647.684	33.79
647.873	34.1
648.062	34.5
648.251	34.27
648.44	33.96
648.629	34
648.818	34.04
649.007	33.78
649.196	33.75
649.384	34.08
649.573	34.19
649.762	34.34
649.951	34.09
650.14	33.98
650.328	33.82
650.517	33.82
650.706	33.89
650.895	33.83
651.083	33.73
651.272	33.04
651.461	33.15
651.65	33.29
651.838	33.08
652.027	32.9
652.216	32.93
652.404	33.16
652.593	33.48
652.781	33.01
652.97	33.06
653.158	33.32
653.347	33.78
653.535	33.55
653.724	33.24
653.912	33.56
654.101	33.96
654.289	33.82
654.478	34.03
654.666	34.21
654.855	34.56
655.043	34.52
655.231	34.2
655.42	34.43
655.608	34.63
655.796	35
655.985	34.83
656.173	34.73
656.361	34.86
656.55	34.77
656.738	34.61
656.926	35.21
657.114	35.4
657.302	35.74
657.491	35.64
657.679	35.45
657.867	35.59
658.055	35.65
658.243	35.46
658.431	35.61
658.619	35.62
658.807	35.37
658.996	35.29
659.184	35.1
659.372	34.72
659.56	34.69
659.748	34.56
659.936	34.58
660.124	34.66
660.311	34.84
660.499	34.51
660.687	34.32
660.875	34.81
661.063	34.7
661.251	34.58
661.439	34.82
661.627	35.11
661.814	35.14
662.002	34.77
662.19	34.75
662.378	34.81
662.565	35.13
662.753	35.22
662.941	34.89
663.129	34.76
663.316	35.24
663.504	35.3
663.692	34.98
663.879	35.14
664.067	35.58
664.254	35.56
664.442	35.28
664.63	35.07
664.817	35.53
665.005	35.65
665.192	35.99
665.38	35.62
665.567	36.27
665.755	36.53
665.942	36.59
666.13	36.66
666.317	36.42
666.504	36.31
666.692	36.41
666.879	36.11
667.067	36.18
667.254	35.97
667.441	36.29
667.629	35.9
667.816	35.79
668.003	35.83
668.19	35.95
668.378	36.21
668.565	36.43
668.752	36.91
668.939	36.9
669.127	36.63
669.314	36.44
669.501	35.99
669.688	35.9
669.875	35.9
670.062	35.91
670.249	35.51
670.436	35.55
670.623	35.79
670.81	35.33
670.997	35.25
671.184	35.35
671.371	35.75
671.558	35.97
671.745	36.18
671.932	36.25
672.119	36.01
672.306	36.08
672.493	35.81
672.68	35.7
672.867	36
673.054	36.1
673.24	36.25
673.427	36.13
673.614	36.24
673.801	36.32
673.988	36.6
674.174	37.2
674.361	37.41
674.548	37.51
674.734	37.47
674.921	37.2
675.108	37.5
675.294	37.56
675.481	37.6
675.668	37.34
675.854	37.26
676.041	36.78
676.227	36.29
676.414	36.34
676.601	36.27
676.787	36.34
676.974	36.43
677.16	36.12
677.347	35.98
677.533	35.83
677.719	36.14
677.906	35.72
678.092	35.97
678.279	36.3
678.465	35.75
678.651	35.79
678.838	35.62
679.024	35.52
679.21	35.73
679.397	35.83
679.583	35.86
679.769	36.11
679.955	36.27
680.142	36.43
680.328	36.51
680.514	36.68
680.7	36.65
680.886	36.64
681.073	36.73
681.259	36.59
681.445	36.5
681.631	36.68
681.817	36.42
682.003	36.84
682.189	36.57
682.375	36.42
682.561	36.53
682.747	36.93
682.933	36.84
683.119	36.92
683.305	36.87
683.491	36.51
683.677	36.5
683.863	36.45
684.049	36.49
684.235	36.47
684.42	36.32
684.606	36.59
684.792	36.51
684.978	36.77
685.164	36.94
685.349	37.35
685.535	37.67
685.721	37.37
685.907	37.62
686.092	37.21
686.278	37.44
686.464	37.68
686.649	37.59
686.835	37.33
687.021	37.49
687.206	37.49
687.392	37.35
687.577	37.67
687.763	37.85
687.948	37.62
688.134	37.62
688.319	37.56
688.505	37.41
688.69	37.33
688.876	37.48
689.061	37.2
689.247	37.16
689.432	37.18
689.618	37.02
689.803	36.85
689.988	37.27
690.174	37.21
690.359	37.1
690.544	37.29
690.73	37.54
690.915	37.53
691.1	37.61
691.285	37.77
691.471	37.62
691.656	37.89
691.841	38.01
692.026	37.96
692.211	37.64
692.396	37.45
692.582	37.3
692.767	37.24
692.952	37.11
693.137	37.71
693.322	37.53
693.507	37.22
693.692	37.28
693.877	37.45
694.062	37.43
694.247	37.53
694.432	38.19
694.617	38.87
694.802	39.05
694.987	39.61
695.172	38.89
695.357	39.2
695.541	39.55
695.726	39.47
695.911	39.54
696.096	39.33
696.281	39.5
696.466	39.63
696.65	38.63
696.835	38.44
697.02	37.96
697.204	37.72
697.389	37.39
697.574	37.67
697.759	37.22
697.943	36.83
698.128	36.77
698.312	36.79
698.497	36.49
698.682	36.93
698.866	36.93
699.051	37.04
699.235	37.55
699.42	37.66
699.604	37.62
699.789	37.75
699.973	38.1
700.158	38.17
700.342	38.23
700.527	38.5
700.711	38.22
700.895	38.12
701.08	38.14
701.264	38.17
701.448	38.16
701.633	37.95
701.817	38.41
702.001	38.03
702.186	38.36
702.37	38.57
702.554	38.71
702.738	38.97
702.923	39.55
703.107	39.44
703.291	38.97
703.475	39.17
703.659	39.54
703.843	39.63
704.027	40.39
704.212	39.96
704.396	40.2
704.58	39.4
704.764	39.45
704.948	38.72
705.132	38.77
705.316	38.85
705.5	38.52
705.684	38.52
705.868	38.63
706.052	38.47
706.235	38.65
706.419	37.62
706.603	38.27
706.787	38.16
706.971	38.32
707.155	38.46
707.339	38.58
707.522	38.77
707.706	38.77
707.89	38.51
708.074	38.18
708.257	38.26
708.441	39.3
708.625	38.92
708.808	38.66
708.992	38.95
709.176	38.81
709.359	38.83
709.543	38.88
709.727	38.69
709.91	38.32
710.094	38.94
710.277	38.84
710.461	38.45
710.644	38.69
710.828	39.13
711.011	39.29
711.195	39.75
711.378	40.3
711.562	40.53
711.745	40.33
711.928	40.44
712.112	39.88
712.295	40.12
712.478	39.73
712.662	40.1
712.845	40
713.028	39.74
713.212	39.53
713.395	39.24
713.578	38.67
713.761	39.09
713.945	38.43
714.128	38.32
714.311	38.82
714.494	39.31
714.677	38.95
714.86	39.44
715.043	39.39
715.227	39.1
715.41	38.92
715.593	39.44
715.776	39.54
715.959	40.42
716.142	40.4
716.325	39.91
716.508	40.07
716.691	39.79
716.874	39.4
717.057	39.27
717.239	39.28
717.422	39.19
717.605	39.22
717.788	39.14
717.971	39.48
718.154	40.37
718.337	40.18
718.519	39.8
718.702	39.96
718.885	39.73
719.068	40.04
719.25	40.19
719.433	40.79
719.616	40.31
719.798	39.71
719.981	39.58
720.164	38.98
720.346	39.19
720.529	39.57
720.712	39.26
720.894	40.14
721.077	40.06
721.259	40.29
721.442	39.53
721.624	39.94
721.807	40.71
721.989	40.87
722.172	41.18
722.354	40.86
722.537	41.02
722.719	41.93
722.901	41.32
723.084	40.78
723.266	40.87
723.448	40.83
723.631	41.77
723.813	40.88
723.995	41.15
724.178	40.3
724.36	41
724.542	40.7
724.724	40.26
724.907	40.32
725.089	40.78
725.271	39.92
725.453	39.5
725.635	38.63
725.817	39.5
725.999	38.98
726.181	39.77
726.364	39.09
726.546	39.56
726.728	39.78
726.91	39.16
727.092	38.97
727.274	40.17
727.456	40.98
727.638	40.96
727.819	40.26
728.001	40.52
728.183	39.72
728.365	39.9
728.547	40.02
728.729	39.92
728.911	41.12
729.093	41.23
729.274	40.69
729.456	40.48
729.638	39.8
729.82	40.45
730.001	39.49
730.183	39.96
730.365	40.43
730.546	39.81
730.728	39.55
730.91	39.06
731.091	39.13
731.273	39.47
731.455	39.43
731.636	39.43
731.818	39.58
731.999	39.88
732.181	39.73
732.362	39.56
732.544	39.24
732.725	39.31
732.907	39.7
733.088	39.9
733.27	39.83
733.451	40.28
733.633	41.97
733.814	41.48
733.995	41.15
734.177	41.49
734.358	41.65
734.539	42.01
734.721	41.87
734.902	40.66
735.083	40.22
735.264	40.21
735.446	39.52
735.627	38.5
735.808	38.6
735.989	38.72
736.17	38.71
736.351	38.14
736.533	38.14
736.714	38.61
736.895	38.95
737.076	39.22
737.257	39.31
737.438	39.8
737.619	39.23
737.8	38.94
737.981	39.69
738.162	39.22
738.343	38.46
738.524	39.43
738.705	39.94
738.886	40.32
739.067	40.18
739.247	40.3
739.428	40.28
739.609	40.18
739.79	40.49
739.971	40.34
740.151	40.34
740.332	41.23
740.513	41.52
740.694	40.9
740.874	40.63
741.055	41.56
741.236	41.58
741.417	41.26
741.597	40.83
741.778	40.55
741.958	39.55
742.139	39.46
742.32	39.06
742.5	38.04
742.681	38.1
742.861	38.04
743.042	37.13
743.222	36.16
743.403	36.25
743.583	36.96
743.764	37.85
743.944	39.05
744.124	38.67
744.305	39.53
744.485	39.99
744.666	39.87
744.846	39.64
745.026	39.59
745.207	39.88
745.387	40.29
745.567	40.34
745.747	39.35
745.928	39.26
746.108	39.95
746.288	39.43
746.468	39.34
746.648	39.19
746.829	39.28
747.009	39.95
747.189	40.33
747.369	40.68
747.549	40.44
747.729	40.2
747.909	40.41
748.089	40.59
748.269	40.46
748.449	40.07
748.629	40.76
748.809	41.44
748.989	40.63
749.169	40.08
749.349	39.14
749.529	40.49
749.709	41.86
749.889	41.61
750.068	41.15
750.248	41.88
750.428	41.04
750.608	40.93
750.788	40.47
750.967	41.06
751.147	42.16
751.327	41.82
751.507	40.63
751.686	40.64
751.866	41.33
752.046	42.13
752.225	42.41
752.405	43.67
752.585	42.77
752.764	42.81
752.944	42.47
753.123	41.79
753.303	43.48
753.482	43.4
753.662	42.81
753.841	41.62
754.021	41.31
754.2	40.89
754.38	40.84
754.559	41.03
754.739	40.63
754.918	40.46
755.097	39.89
755.277	39.52
755.456	39.54
755.635	39.41
755.815	40.22
755.994	40.85
756.173	40.08
756.352	39.81
756.532	40.52
756.711	41.56
756.89	41.94
757.069	42.18
757.248	41.36
757.427	41.33
757.607	41.29
757.786	40.47
757.965	39.89
758.144	39.42
758.323	39.48
758.502	38.37
758.681	38.58
758.86	38.27
759.039	38.84
759.218	39.47
759.397	40.51
759.576	40.3
759.755	40.34
759.934	39.44
760.113	40.61
760.291	40.76
760.47	40.97
760.649	40.85
760.828	40.26
761.007	40.33
761.186	40.69
761.364	39.32
761.543	40.03
761.722	40.49
761.901	40.96
762.079	39.86
762.258	39.25
762.437	39.13
762.615	39.79
762.794	40.21
762.972	40.25
763.151	39.55
763.33	39.59
763.508	38.96
763.687	39.4
763.865	39.66
764.044	40.45
764.222	40.63
764.401	41.22
764.579	40.09
764.758	39.75
764.936	40.06
765.114	40.35
765.293	40.67
765.471	40.41
765.65	40.35
765.828	40.76
766.006	40.69
766.184	41.09
766.363	40.63
766.541	40.63
766.719	41.42
766.898	41.05
767.076	40.62
767.254	41.25
767.432	41.72
767.61	41.66
767.788	41.39
767.967	41.58
768.145	41.3
768.323	41.62
768.501	43.22
768.679	43.43
768.857	43.4
769.035	44.19
769.213	44.71
769.391	45.02
769.569	44.61
769.747	44.77
769.925	44.17
770.103	44.54
770.281	45.04
770.459	44.62
770.636	43.8
770.814	43.37
770.992	41.55
771.17	39.62
771.348	38.57
771.525	38.99
771.703	39.17
771.881	40.97
772.059	41.97
772.236	40.64
772.414	40.56
772.592	40.59
772.769	39.89
772.947	41.73
773.125	43.47
773.302	44.61
773.48	44
773.657	43.74
773.835	43.47
774.013	41.85
774.19	42.88
774.368	41.56
774.545	41.5
774.723	42.91
774.9	42.7
775.077	43.06
775.255	42.8
775.432	43.11
775.61	42.64
775.787	40.5
775.964	39.03
776.142	39.66
776.319	40.82
776.496	41.44
776.674	41.19
776.851	41.42
777.028	40.95
777.205	41.31
777.382	40.77
777.56	41.76
777.737	41.57
777.914	43.1
778.091	42.76
778.268	40.79
778.445	40.22
778.622	39.24
778.8	40.56
778.977	38.81
779.154	39.3
779.331	39.61
779.508	39.26
779.685	40.74
779.862	40.4
780.038	39.47
780.215	41.06
780.392	41.32
780.569	42.55
780.746	40.13
780.923	41.33
781.1	40.13
781.277	40.36
781.453	39.39
781.63	38.62
781.807	40.56
781.984	42.34
782.16	42.23
782.337	43.17
782.514	42.29
782.691	43.92
782.867	43.77
783.044	42.93
783.221	42.91
783.397	45.14
783.574	46.77
783.75	46.71
783.927	45.82
784.103	46.32
784.28	45.74
784.456	45.75
784.633	44.78
784.809	44.3
784.986	45.46
785.162	45.59
785.339	43.61
785.515	42.84
785.692	41.81
785.868	41.08
786.044	38.56
786.221	37.85
786.397	38.45
786.573	38.42
786.749	37.85
786.926	38.27
787.102	38.18
787.278	38.79
787.454	40.03
787.631	39.65
787.807	40.3
787.983	42.32
788.159	43.94
788.335	45.24
788.511	46.03
788.687	46.75
788.863	47.94
789.039	48.66
789.216	48.59
789.392	47.49
789.568	48.01
789.744	49.38
789.919	50.81
790.095	49.94
790.271	48.1
790.447	48.07
790.623	48.9
790.799	47.12
790.975	45.89
791.151	46.21
791.327	45.84
791.502	45.28
791.678	43.75
791.854	43.76
792.03	45.56
792.205	46.23
792.381	46.43
792.557	45.37
792.733	44.83
792.908	46.25
793.084	46.6
793.259	45.61
793.435	45.83
793.611	45.06
793.786	43.38
793.962	40.75
794.137	41.42
794.313	40.76
794.488	42.25
794.664	42.99
794.839	42.28
795.015	41.26
795.19	41.59
795.366	42.21
795.541	43.98
795.716	45
795.892	45.47
796.067	44.12
796.242	43.79
796.418	43.09
796.593	42.85
796.768	44.3
796.944	44.65
797.119	44.67
797.294	46.87
797.469	45.35
797.644	44.53
797.82	43.81
797.995	43.36
798.17	44.12
798.345	43.25
798.52	42.18
798.695	38.99
798.87	38.69
799.045	39.33
799.22	36.09
799.395	36.06
799.57	37.51
799.745	39.06
799.92	37.43
800.095	34.95
800.27	35.21
800.445	36.04
800.62	37.65
800.795	38.91
800.97	38.16
801.145	37.84
801.319	37.8
801.494	35.31
801.669	34.88
801.844	38.94
802.018	40.11
802.193	42.42
802.368	42.97
802.543	42.43
802.717	39.72
802.892	40.17
803.067	41.94
803.241	42.24
803.416	44.22
803.59	42.36
803.765	41.52
803.94	41.88
804.114	40.51
804.289	42.78
804.463	44.17
804.638	44.85
804.812	45.17
804.986	44.41
805.161	44.14
805.335	42.44
805.51	44.17
805.684	43.55
805.858	44.28
806.033	45.34
806.207	42.72
806.381	42.97
806.556	44.59
806.73	46.83
806.904	46.96
807.078	46.96
807.253	48.04
807.427	46.02
807.601	46.32
807.775	46.43
807.949	43.87
808.123	44.28
808.298	41.92
808.472	39.92
808.646	34.54
808.82	35.72
808.994	34.47
809.168	33.71
809.342	35.01
809.516	34.36
809.69	31.1
809.864	31.45
810.038	33.97
810.212	35.06
810.385	34.88
810.559	38.5
810.733	34.93
810.907	37.11
811.081	38.98
811.255	39.13
811.428	38.59
811.602	42.34
811.776	43.74
811.95	42.67
812.123	42.31
812.297	45.18
812.471	45.74
812.644	48.45
812.818	49.35
812.992	48.15
813.165	49.77
813.339	50.14
813.512	49.24
813.686	46.58
813.86	46.48
814.033	46.06
814.207	45.89
814.38	45.67
814.554	44.97
814.727	43.17
814.9	45.8
815.074	44.75
815.247	45.37
815.421	43.61
815.594	42.9
815.767	41.67
815.941	41.66
816.114	41.99
816.287	43.22
816.46	43.27
816.634	44.55
816.807	39.2
816.98	39.63
817.153	39.36
817.327	41.08
817.5	44.31
817.673	44.73
817.846	46.4
818.019	46
818.192	46.95
818.365	43.81
818.538	41.68
818.711	43.23
818.884	43.69
819.057	43.8
819.23	46.09
819.403	42.83
819.576	44.34
819.749	41.4
819.922	40.95
820.095	38.31
820.268	41.16
820.441	43.67
820.614	43.31
820.786	40.18
820.959	40.55
821.132	39.63
821.305	40.22
821.477	39.12
821.65	39.81
821.823	39.02
821.996	39.33
822.168	38.44
822.341	37.4
822.514	37.01
822.686	37.87
822.859	37.77
823.031	37.36
823.204	37.7
823.376	37.55
823.549	37.77
823.722	38.27
823.894	38.16
824.067	38.62
824.239	38.83
824.411	39.23
824.584	39.5
824.756	39.34
824.929	39.44
825.101	39.56
825.273	40.04
825.446	39.01
825.618	38.32
825.79	38.34
825.963	38.21
826.135	38.03
826.307	38.43
826.479	39.19
826.652	39.82
826.824	40.35
826.996	40.05
827.168	40.04
827.34	40.53
827.512	41.86
827.684	41.9
827.856	41.48
828.029	41.93
828.201	41.95
828.373	41.24
828.545	40.39
828.717	40.41
828.889	40.03
829.061	39.94
829.232	40.82
829.404	41.41
829.576	41.66
829.748	42.92
829.92	42.95
830.092	43.24
830.264	43.24
830.436	44.26
830.607	43.58
830.779	42.85
830.951	41.28
831.123	39.99
831.294	35.72
831.466	36.05
831.638	36.03
831.809	36.7
831.981	34.83
832.153	32.69
832.324	31.19
832.496	32.25
832.667	36.8
832.839	39.11
833.011	40.34
833.182	40.71
833.354	41.22
833.525	39.24
833.697	37.44
833.868	38.82
834.039	40.66
834.211	42.2
834.382	41.21
834.554	41.14
834.725	40.66
834.896	41.49
835.068	42.09
835.239	40.77
835.41	40.37
835.581	41.93
835.753	41.91
835.924	41.96
836.095	40.01
836.266	40.74
836.438	38.99
836.609	40.16
836.78	40.8
836.951	41.34
837.122	40.51
837.293	42.6
837.464	40.28
837.635	40.89
837.806	39.71
837.977	42.54
838.148	40.81
838.319	39.38
838.49	37.21
838.661	38.01
838.832	36.75
839.003	40.64
839.174	41.23
839.345	44.49
839.516	43.33
839.687	46.1
839.857	40.99
840.028	39.09
840.199	40.51
840.37	43.4
840.54	37.26
840.711	40.58
840.882	36.73
841.053	36.22
841.223	36.87
841.394	33.28
841.564	30.89
841.735	34.38
841.906	38.27
842.076	38.04
842.247	38.84
842.417	38.75
842.588	36.64
842.758	32.87
842.929	28.14
843.099	24.31
843.27	29.56
843.44	28.54
843.611	30.57
843.781	28.27
843.951	29.13
844.122	26.35
844.292	25.79
844.462	24.46
844.633	27.63
844.803	30.18
844.973	28.59
845.144	28.09
845.314	25.91
845.484	24.74
845.654	29.87
845.824	32.86
845.995	29.15
846.165	32.51
846.335	40.88
846.505	49.78
846.675	51.85
846.845	57.23
847.015	51.6
847.185	58.61
847.355	60.34
847.525	63.63
847.695	63.43
847.865	75.34
848.035	71.44
848.205	64.98
848.375	61.91
848.545	60.3
848.715	58.36
848.884	62.42
849.054	55.9
849.224	51.89
849.394	50.29
849.564	46.84
849.733	46
849.903	49.08
850.073	47.31
850.243	46.79
850.412	52.2
850.582	54.85
850.752	47.73
850.921	47.87
851.091	50.41
851.26	53.89
851.43	57.6
851.599	50.23
851.769	55.88
851.939	58.58
852.108	59.31
852.278	53.88
852.447	45.79
852.616	53.33
852.786	56.25
852.955	55.68
853.125	46.4
853.294	43.24
853.463	45.05
853.633	36.04
853.802	40.03
853.971	31.85
854.141	36.95
854.31	40.37
854.479	34.18
854.648	32.23
854.818	23.09
854.987	28.23
855.156	30.98
855.325	31.61
855.494	38.42
855.663	33.09
855.832	41.3
856.001	38.81
856.171	36.05
856.34	41.27
856.509	45.93
856.678	46.36
856.847	55.07
857.016	63.29
857.185	69.31
857.353	66.04
857.522	62.64
857.691	59.07
857.86	55.05
858.029	58.36
858.198	57.55
858.367	54.37
858.535	58.36
858.704	56.92
858.873	45.28
859.042	36.65
859.21	44.81
859.379	41.56
859.548	41.87
859.717	39.25
859.885	41.68
860.054	45.83
860.222	44.7
860.391	49.31
860.56	42.29
860.728	44.17
860.897	49.03
861.065	34.62
861.234	36.88
861.402	35.24
861.571	36.04
861.739	34.73
861.908	28.59
862.076	32.63
862.244	32.43
862.413	39.29
862.581	40.13
862.749	44.26
862.918	54.65
863.086	52.86
863.254	50.96
863.423	43.52
863.591	38.97
863.759	41.4
863.927	42.73
864.096	34.54
864.264	25.07
864.432	28.89
864.6	28.01
864.768	25.84
864.936	28.7
865.104	22.07
865.272	41
865.44	47.11
865.608	40.57
865.776	36.37
865.944	36.95
866.112	36.76
866.28	38.37
866.448	42.15
866.616	40.79
866.784	37.31
866.952	43.53
867.12	29.83
867.288	34.4
867.455	41.34
867.623	44.21
867.791	39.66
867.959	41.97
868.127	42.35
868.294	41.13
868.462	43.81
868.63	47.69
868.797	55.5
868.965	69.48
869.133	59.69
869.3	65.94
869.468	63.25
869.636	69.28
869.803	68.97
869.971	70.08
870.138	60.76
870.306	62.1
870.473	53.94
870.641	42.77
870.808	35.03
870.975	40.32
871.143	23.19
871.31	22.48
871.478	22.27
871.645	21.81
871.812	31.79
871.98	45.56
872.147	51.75
872.314	68.38
872.482	59.6
872.649	60.84
872.816	54.62
872.983	65.68
873.15	56.71
873.318	59.02
873.485	54.35
873.652	43.54
873.819	33.76
873.986	39.28
874.153	28.37
874.32	41.83
874.487	37.97
874.654	42.62
874.821	32.86
874.988	36.29
875.155	32.53
875.322	34.69
875.489	27.28
875.656	15.41
875.823	10.35
875.99	20.54
876.157	24.79
876.324	24.14
876.49	24.39
876.657	30.59
876.824	31.97
876.991	34.08
877.157	28.39
877.324	41.36
877.491	51.04
877.658	44.13
877.824	45.12
877.991	40.07
878.157	42.79
878.324	38.91
878.491	32.4
878.657	33.81
878.824	32.42
878.99	44.49
879.157	40.21
879.323	40.66
879.49	43.51
879.656	44.68
879.823	36.01
879.989	31.38
880.156	36.24
880.322	35.48
880.488	26.29
880.655	23.89
880.821	20.98
880.987	22.44
881.154	27.81
881.32	25.64
881.486	26.45
881.652	30.15
881.819	31.68
881.985	28.66
882.151	33.79
882.317	34.28
882.483	35.5
882.649	36.68
882.816	35.67
882.982	33.63
883.148	36.09
883.314	36.7
883.48	37.48
883.646	38
883.812	39.16
883.978	38.78
884.144	40.07
884.31	39.92
884.476	38.95
884.642	38.51
884.807	38.31
884.973	38.7
885.139	37.07
885.305	35.47
885.471	36.57
885.637	36.29
885.802	35.99
885.968	35.18
886.134	35.96
886.3	35.41
886.465	37.32
886.631	38.12
886.797	38.51
886.962	39.48
887.128	44.67
887.293	43.56
887.459	46.82
887.625	49.4
887.79	55.13
887.956	53.21
888.121	58.23
888.287	56.97
888.452	61.39
888.618	56.76
888.783	64.09
