Data from LC_246_Reflection_1.txt Node
Date: Thu Nov 19 22:49:34 EST 2015
User: robert
Spectrometer: USB4E03001
Autoset integration time: false
Trigger mode: 4
Integration Time (sec): 1.000000E-1
Scans to average: 15
Electric dark correction enabled: true
Nonlinearity correction enabled: false
Boxcar width: 5
Stray light correction enabled: false
XAxis mode: Wavelengths
Stop averaging: false
Number of Pixels in Spectrum: 3648
>>>>>Begin Spectral Data<<<<<
177.566	-10.02
177.785	3.75
178.005	32.29
178.225	10.6
178.445	46.93
178.665	16.76
178.885	25.88
179.105	-177.98
179.324	-124.17
179.544	-3.58
179.764	36.24
179.984	5
180.204	43.33
180.423	61.35
180.643	106.84
180.863	52
181.083	105.12
181.302	71.15
181.522	73.67
181.742	96.78
181.961	120.78
182.181	164.58
182.401	229.3
182.621	262.65
182.84	458.03
183.06	320.87
183.279	288.51
183.499	196.19
183.719	538.01
183.938	1256.23
184.158	-303.93
184.377	-469.71
184.597	336.9
184.816	-3679.25
185.036	-47.6
185.256	780
185.475	173.66
185.695	166.87
185.914	211.96
186.134	480.25
186.353	311.62
186.572	249.96
186.792	317.88
187.011	-1540.16
187.231	33.22
187.45	-374.21
187.67	-27.97
187.889	-26.7
188.108	3.23
188.328	21.08
188.547	-18.11
188.766	-12.6
188.986	-117.7
189.205	5480.39
189.424	236.36
189.644	262.19
189.863	130.25
190.082	107.87
190.302	134.05
190.521	154.06
190.74	164.4
190.959	161.42
191.178	157.3
191.398	168.29
191.617	146.34
191.836	585.46
192.055	217.54
192.274	353.13
192.494	340.3
192.713	151.11
192.932	120.78
193.151	129.03
193.37	136.04
193.589	176.87
193.808	169.72
194.027	182.03
194.246	150.61
194.465	180.69
194.685	156.23
194.904	127.17
195.123	126.09
195.342	170.37
195.561	167.19
195.78	141.36
195.999	113.85
196.218	115.88
196.436	107.46
196.655	105.48
196.874	90.47
197.093	133.2
197.312	165.6
197.531	226.45
197.75	337.37
197.969	316.44
198.188	-767.72
198.407	-206.44
198.625	-313.65
198.844	-123.45
199.063	-1450.65
199.282	-123.14
199.501	-188.64
199.719	-249.4
199.938	2.56
200.157	95
200.376	171.21
200.594	-874.4
200.813	-823.62
201.032	-588.37
201.251	-511.5
201.469	-628.05
201.688	-101
201.907	-170.84
202.125	-307.33
202.344	-7.12
202.563	-2.11
202.781	10.9
203	77.35
203.218	87.35
203.437	127.52
203.656	165.34
203.874	368.7
204.093	565.4
204.311	191.34
204.53	155.99
204.748	166.45
204.967	141.09
205.185	133.5
205.404	165.56
205.622	224.44
205.841	175.74
206.059	179.52
206.278	132.24
206.496	102.81
206.715	142.28
206.933	133.27
207.151	157.09
207.37	251.17
207.588	277.1
207.806	175.8
208.025	164.44
208.243	128.51
208.461	168.17
208.68	2.11
208.898	42.56
209.116	43.57
209.335	1.6
209.553	-415.71
209.771	1999.16
209.989	-116.94
210.208	116.03
210.426	236.51
210.644	114.53
210.862	99.46
211.081	114.38
211.299	136.3
211.517	120
211.735	113.21
211.953	98.08
212.171	77.25
212.39	84.27
212.608	91.9
212.826	115.84
213.044	161.39
213.262	149.2
213.48	193.8
213.698	160.83
213.916	224.54
214.134	210.84
214.352	393.39
214.57	540.33
214.788	1108.06
215.006	674.53
215.224	570.39
215.442	883.37
215.66	357.07
215.878	535.63
216.096	726.89
216.314	608.68
216.532	717.7
216.75	1132.05
216.968	-130.42
217.185	-208.48
217.403	-326.92
217.621	-475.1
217.839	68.06
218.057	60.12
218.275	83.55
218.492	77.47
218.71	68.3
218.928	55.03
219.146	38
219.363	45.3
219.581	56.97
219.799	78.41
220.017	77.65
220.234	84.92
220.452	92.45
220.67	86.77
220.887	75.11
221.105	75.73
221.323	93.72
221.54	81.09
221.758	78.67
221.976	67.07
222.193	60.27
222.411	59.18
222.629	67.7
222.846	64.61
223.064	56.65
223.281	51.88
223.499	81.23
223.716	71.2
223.934	60.76
224.151	65.35
224.369	60.81
224.586	57.9
224.804	65.62
225.021	64.19
225.239	69.43
225.456	63.91
225.674	71.21
225.891	52.52
226.108	60.18
226.326	53.37
226.543	55.43
226.76	48.8
226.978	52
227.195	50.09
227.413	32.42
227.63	27.51
227.847	30.32
228.064	24.37
228.282	23.55
228.499	20.86
228.716	23.43
228.934	20.16
229.151	22.31
229.368	19.96
229.585	19.17
229.802	19.68
230.02	19.29
230.237	17.98
230.454	17.98
230.671	17.66
230.888	17.04
231.105	13.74
231.323	15.13
231.54	9.89
231.757	8.57
231.974	10.59
232.191	10.57
232.408	10.01
232.625	12.95
232.842	17.36
233.059	20.27
233.276	23.76
233.493	27.4
233.71	24.78
233.927	29.82
234.144	34.23
234.361	23.18
234.578	24.17
234.795	23.16
235.012	19.14
235.229	14.37
235.446	13.7
235.663	12.22
235.879	7.93
236.096	5.75
236.313	3.13
236.53	1.01
236.747	14.61
236.964	13.79
237.181	12.93
237.397	14.73
237.614	14.56
237.831	14.46
238.048	15.95
238.264	18.19
238.481	22.68
238.698	23.59
238.915	27.95
239.131	18.44
239.348	17.77
239.565	17.82
239.781	18.18
239.998	18.78
240.215	18.48
240.431	15.16
240.648	16.76
240.865	16.39
241.081	14.76
241.298	13.93
241.514	15.43
241.731	14.69
241.947	13.92
242.164	13.75
242.38	14.09
242.597	13.51
242.814	13.49
243.03	13.37
243.246	13.32
243.463	12.42
243.679	11.22
243.896	11.21
244.112	11.77
244.329	11.63
244.545	12.23
244.762	12.45
244.978	11.88
245.194	12.66
245.411	13.04
245.627	12.75
245.843	13.09
246.06	15.41
246.276	15.39
246.492	15.43
246.709	15.53
246.925	13.53
247.141	12.82
247.357	12.59
247.574	12.86
247.79	12.69
248.006	13.1
248.222	13.46
248.439	12.59
248.655	11.94
248.871	11.37
249.087	11.24
249.303	12.21
249.519	12.77
249.736	13.22
249.952	12.98
250.168	12.19
250.384	11.38
250.6	11.96
250.816	12.64
251.032	11.66
251.248	13.59
251.464	13.89
251.68	14.99
251.896	15.16
252.112	15.9
252.328	16.06
252.544	16.06
252.76	17.6
252.976	17.65
253.192	16.82
253.408	18.59
253.624	18.7
253.84	19.7
254.056	18.09
254.272	16.01
254.487	12.77
254.703	12.38
254.919	13.02
255.135	11.8
255.351	11.28
255.567	12.18
255.782	10.98
255.998	11.06
256.214	9.2
256.43	10.48
256.646	14.42
256.861	18.86
257.077	17.75
257.293	17.52
257.508	17.22
257.724	15.41
257.94	14.07
258.155	14.1
258.371	14.1
258.587	14.55
258.802	13.78
259.018	12.82
259.234	11.71
259.449	12.07
259.665	11.76
259.88	11.11
260.096	11.96
260.312	11.58
260.527	11.32
260.743	11.11
260.958	11.05
261.174	11.44
261.389	11.79
261.605	12.6
261.82	12.42
262.036	12.4
262.251	12.47
262.466	12.6
262.682	13.53
262.897	14.75
263.113	14.08
263.328	15.01
263.543	16.37
263.759	16.92
263.974	16.02
264.189	16.56
264.405	17.31
264.62	17.61
264.835	16.19
265.051	15.73
265.266	15.26
265.481	15.81
265.696	13.91
265.912	10.97
266.127	9.95
266.342	10.5
266.557	10.55
266.773	10.33
266.988	9.9
267.203	10.12
267.418	10.19
267.633	8.71
267.848	7.56
268.064	7.92
268.279	8.3
268.494	8.04
268.709	7.1
268.924	5.54
269.139	6.13
269.354	6.29
269.569	6.15
269.784	5.62
269.999	6.14
270.214	7.62
270.429	7.98
270.644	8.36
270.859	8.35
271.074	7.76
271.289	9.42
271.504	9.76
271.719	10.32
271.934	10.53
272.149	11.5
272.363	12.51
272.578	12.69
272.793	12.44
273.008	12.62
273.223	12.98
273.438	14.47
273.653	13.65
273.867	13.02
274.082	12.49
274.297	11.61
274.512	11.47
274.726	11.36
274.941	10.94
275.156	9.6
275.371	9.89
275.585	10.02
275.8	8.93
276.015	9.87
276.229	10.46
276.444	11.13
276.659	11.26
276.873	10.99
277.088	11.56
277.302	11.13
277.517	13.02
277.732	13.21
277.946	13.34
278.161	13.41
278.375	13.07
278.59	11.87
278.804	11.92
279.019	13.57
279.233	13.31
279.448	12.86
279.662	13.98
279.877	13.23
280.091	13.01
280.306	11.84
280.52	12.33
280.735	12.62
280.949	13.31
281.163	12.76
281.378	12.44
281.592	12.35
281.806	11.59
282.021	11.83
282.235	11.43
282.449	10.67
282.664	11.6
282.878	11.03
283.092	10.06
283.307	11.05
283.521	11.45
283.735	10.77
283.949	11.47
284.164	10.89
284.378	9.65
284.592	9.22
284.806	9.55
285.02	9.76
285.234	9.92
285.449	9.83
285.663	8.44
285.877	8.25
286.091	8.82
286.305	8.34
286.519	8.63
286.733	8.63
286.947	9.3
287.161	8.83
287.375	9.2
287.589	8.51
287.803	9.1
288.017	10.25
288.231	10.19
288.445	9.93
288.659	10.26
288.873	10.24
289.087	9.82
289.301	9.94
289.515	10.4
289.729	8.46
289.943	9.31
290.157	10.01
290.371	9.78
290.584	9.79
290.798	9.94
291.012	9.68
291.226	9.78
291.44	11.18
291.654	10.96
291.867	10.4
292.081	11.21
292.295	10.99
292.509	9.56
292.722	9.87
292.936	10.63
293.15	9.69
293.364	11.11
293.577	11.47
293.791	11.02
294.005	11.02
294.218	12.35
294.432	12.33
294.645	11.94
294.859	12.82
295.073	12.15
295.286	12.21
295.5	12.32
295.713	10.96
295.927	10.98
296.14	10.65
296.354	10.39
296.568	10.76
296.781	11.17
296.994	11.7
297.208	11.18
297.421	11.12
297.635	10.63
297.848	10.66
298.062	11.22
298.275	11.16
298.489	11.11
298.702	11.29
298.915	10.8
299.129	10.27
299.342	9.96
299.555	8.83
299.769	8.16
299.982	7.56
300.195	7.75
300.409	7.19
300.622	6.87
300.835	7.42
301.048	8.3
301.262	7.94
301.475	7.5
301.688	6.33
301.901	7.38
302.115	8.79
302.328	9.59
302.541	8.69
302.754	8.51
302.967	9.48
303.18	9.08
303.393	8.39
303.607	9.08
303.82	9.98
304.033	11.42
304.246	12.56
304.459	12.34
304.672	12.43
304.885	13.56
305.098	13.4
305.311	13.14
305.524	13.37
305.737	12.91
305.95	12.34
306.163	11.73
306.376	12.07
306.589	11.04
306.802	9.81
307.015	9.94
307.228	9.59
307.44	9.66
307.653	9.19
307.866	8.87
308.079	10.03
308.292	10.34
308.505	11.4
308.718	10.27
308.93	10.16
309.143	10.69
309.356	10.37
309.569	10.3
309.781	10.42
309.994	10.51
310.207	10.51
310.42	10.73
310.632	10.13
310.845	10.06
311.058	10.71
311.27	10.51
311.483	10.76
311.696	11.22
311.908	11.95
312.121	11.79
312.333	12.15
312.546	11.76
312.759	11.34
312.971	12.34
313.184	11.42
313.396	11.92
313.609	12.96
313.821	13.05
314.034	12.92
314.246	11.64
314.459	12.25
314.671	12.66
314.884	13.71
315.096	13.05
315.309	12.22
315.521	12.96
315.733	12.28
315.946	12.68
316.158	13.1
316.371	13.7
316.583	14.07
316.795	12.4
317.008	11.18
317.22	10.19
317.432	10.27
317.644	11.25
317.857	11.01
318.069	10.61
318.281	10.35
318.494	9.63
318.706	8.09
318.918	8.08
319.13	9.69
319.342	8.68
319.555	8.34
319.767	8.52
319.979	7.22
320.191	7.56
320.403	8.58
320.615	7.91
320.827	7.15
321.039	5.73
321.252	6.55
321.464	7.61
321.676	8.59
321.888	8.88
322.1	9.22
322.312	9.86
322.524	10.43
322.736	9.09
322.948	9.96
323.16	11.4
323.372	12.74
323.584	12.38
323.796	11.04
324.007	11.37
324.219	12.34
324.431	13.14
324.643	13.06
324.855	12.61
325.067	13.97
325.279	13.87
325.491	14.09
325.702	14.08
325.914	13.88
326.126	14.92
326.338	15.52
326.55	14.48
326.761	13.35
326.973	13.52
327.185	13.23
327.396	12.3
327.608	12.7
327.82	12.26
328.032	12.37
328.243	13.07
328.455	12.76
328.666	12.06
328.878	12.31
329.09	12.94
329.301	13.88
329.513	14.18
329.725	14.97
329.936	14.9
330.148	14.33
330.359	14.9
330.571	14.61
330.782	14.88
330.994	14.85
331.205	15.06
331.417	15.29
331.628	14.41
331.84	14.26
332.051	13.98
332.262	14.01
332.474	15.2
332.685	15.19
332.897	15.86
333.108	14.88
333.319	15.52
333.531	15.87
333.742	15.42
333.953	15.82
334.165	16.61
334.376	16.38
334.587	15.79
334.799	15.16
335.01	14.54
335.221	13.98
335.432	14.62
335.644	13.82
335.855	13.58
336.066	13.87
336.277	13.16
336.488	12.45
336.7	12.51
336.911	11.96
337.122	12.81
337.333	13.76
337.544	12.65
337.755	12.32
337.966	12.18
338.177	12.28
338.388	12.05
338.599	12.29
338.811	12.43
339.022	12.36
339.233	11.9
339.444	11.67
339.655	11.42
339.866	12.01
340.076	11.67
340.287	12.64
340.498	12.47
340.709	12.92
340.92	12.66
341.131	12.61
341.342	13.01
341.553	14.17
341.764	13.3
341.975	12.62
342.185	12.9
342.396	13.08
342.607	12.57
342.818	12.33
343.029	12.93
343.239	13.16
343.45	12.92
343.661	12.3
343.872	11.86
344.082	11.96
344.293	12.73
344.504	12.69
344.714	13.32
344.925	12.84
345.136	12.75
345.346	10.52
345.557	10.34
345.768	10.39
345.978	10.93
346.189	10.44
346.399	10.32
346.61	9.43
346.821	9.17
347.031	9.12
347.242	9.92
347.452	10.81
347.663	12.46
347.873	13.09
348.084	13.27
348.294	12.35
348.504	13.2
348.715	13.56
348.925	14.29
349.136	14.99
349.346	13.77
349.557	13.53
349.767	13.05
349.977	12.83
350.188	11.88
350.398	11.79
350.608	12.67
350.819	12.63
351.029	12.24
351.239	11.57
351.449	11.14
351.66	11.33
351.87	10.96
352.08	10.43
352.29	10.96
352.501	11.67
352.711	11.69
352.921	11.42
353.131	11.07
353.341	10.84
353.552	11.38
353.762	11.67
353.972	12.14
354.182	12.75
354.392	12.73
354.602	12.17
354.812	11.99
355.022	11.77
355.232	11.88
355.442	12.24
355.652	11.56
355.862	11.62
356.072	11.73
356.282	12.56
356.492	12.09
356.702	12.29
356.912	12.16
357.122	12.06
357.332	12.24
357.542	11.75
357.752	11.34
357.962	12.22
358.171	12.31
358.381	11.94
358.591	10.83
358.801	10.65
359.011	10.83
359.221	10.75
359.43	10.35
359.64	9.94
359.85	10.14
360.06	10.39
360.269	10.51
360.479	9.81
360.689	9.74
360.899	9.8
361.108	10.54
361.318	10.17
361.528	10.53
361.737	10.91
361.947	11.03
362.156	11.14
362.366	11.21
362.576	11.12
362.785	11.23
362.995	10.99
363.204	11.33
363.414	10.38
363.623	10.62
363.833	10.34
364.042	10.22
364.252	10.41
364.461	10.23
364.671	9.98
364.88	10.14
365.09	10.76
365.299	11.52
365.509	11.81
365.718	11.95
365.927	12.14
366.137	12.16
366.346	12.12
366.555	11.39
366.765	11.78
366.974	11.95
367.183	11.5
367.393	10.45
367.602	10.42
367.811	10.33
368.021	10.81
368.23	9.68
368.439	9.7
368.648	9.45
368.857	10.32
369.067	9.88
369.276	10
369.485	9.34
369.694	9.57
369.903	9.47
370.112	8.98
370.321	8.81
370.531	9.54
370.74	9.26
370.949	9.19
371.158	8.73
371.367	8.59
371.576	8.23
371.785	8.88
371.994	9.05
372.203	8.62
372.412	9.05
372.621	8.69
372.83	9.03
373.039	9.38
373.248	9.89
373.457	10.15
373.666	10.32
373.874	10.4
374.083	10.37
374.292	10.26
374.501	10.23
374.71	9.84
374.919	10.2
375.128	10.24
375.336	9.44
375.545	9.07
375.754	8.44
375.963	8.57
376.171	8.36
376.38	8.44
376.589	8.52
376.798	8.37
377.006	8.22
377.215	7.99
377.424	7.36
377.632	7.96
377.841	8.19
378.05	8.48
378.258	8.28
378.467	8.05
378.675	7.73
378.884	7.78
379.093	7.98
379.301	8.18
379.51	8.35
379.718	8.65
379.927	8.64
380.135	8.73
380.344	8.84
380.552	9.38
380.761	9.28
380.969	9.55
381.177	9.43
381.386	9.19
381.594	9.35
381.803	9.05
382.011	8.9
382.219	8.85
382.428	8.43
382.636	8.12
382.845	7.61
383.053	7.8
383.261	7.5
383.469	7.42
383.678	7.64
383.886	7.12
384.094	7.37
384.302	7.57
384.511	7.35
384.719	7.42
384.927	7.69
385.135	7.56
385.343	7.81
385.552	8.09
385.76	8.3
385.968	8.14
386.176	8.25
386.384	7.95
386.592	8.09
386.8	8.35
387.008	8.38
387.216	8.17
387.424	8.28
387.633	8.32
387.841	8.17
388.049	8.05
388.257	8.07
388.465	8.01
388.672	8.24
388.88	7.94
389.088	7.7
389.296	7.75
389.504	7.99
389.712	8.01
389.92	8.01
390.128	7.91
390.336	7.91
390.544	7.94
390.751	8
390.959	7.93
391.167	7.87
391.375	7.82
391.583	7.54
391.79	7.33
391.998	7.62
392.206	7.61
392.414	7.73
392.621	7.7
392.829	7.75
393.037	7.95
393.244	7.97
393.452	8.01
393.66	7.93
393.867	8.24
394.075	8.37
394.283	7.92
394.49	7.61
394.698	7.43
394.905	7.39
395.113	7.27
395.32	7.14
395.528	7.21
395.735	7.22
395.943	7.36
396.15	7.07
396.358	6.8
396.565	7.28
396.773	7.44
396.98	7.62
397.188	7.61
397.395	7.75
397.602	7.76
397.81	7.48
398.017	7.33
398.225	7.21
398.432	7.21
398.639	7.32
398.847	7.08
399.054	7.12
399.261	7.07
399.468	7.15
399.676	7.21
399.883	6.89
400.09	7.09
400.297	7.33
400.505	7.46
400.712	7.7
400.919	7.74
401.126	7.51
401.333	7.65
401.54	7.56
401.748	7.54
401.955	7.49
402.162	7.76
402.369	8.04
402.576	8.13
402.783	8.01
402.99	8
403.197	8.26
403.404	8.37
403.611	8.13
403.818	8.18
404.025	8.16
404.232	7.88
404.439	8.03
404.646	7.93
404.853	7.83
405.06	7.74
405.267	7.77
405.474	7.54
405.681	7.57
405.887	7.95
406.094	7.83
406.301	7.83
406.508	8.09
406.715	7.75
406.922	7.41
407.128	7.13
407.335	7.19
407.542	7.11
407.749	7.04
407.955	7.1
408.162	6.84
408.369	6.8
408.575	6.93
408.782	6.87
408.989	7.02
409.195	7.02
409.402	7.29
409.609	7.28
409.815	7.05
410.022	7.08
410.228	6.76
410.435	6.55
410.642	6.53
410.848	6.51
411.055	6.42
411.261	6.6
411.468	6.6
411.674	6.54
411.881	6.67
412.087	6.61
412.294	6.63
412.5	6.56
412.706	6.49
412.913	6.69
413.119	6.5
413.326	6.49
413.532	6.32
413.738	6.24
413.945	6.15
414.151	6.22
414.357	6.49
414.564	6.24
414.77	6.48
414.976	6.71
415.182	6.4
415.389	6.42
415.595	6.31
415.801	6.33
416.007	6.42
416.214	6.59
416.42	6.35
416.626	6.19
416.832	6.43
417.038	6.34
417.244	6.11
417.45	6.43
417.657	6.45
417.863	6.57
418.069	6.45
418.275	6.59
418.481	6.69
418.687	6.83
418.893	6.98
419.099	6.97
419.305	7.07
419.511	7.18
419.717	6.98
419.923	6.86
420.129	6.78
420.335	6.81
420.541	6.77
420.746	6.6
420.952	6.58
421.158	6.46
421.364	6.39
421.57	6.34
421.776	6.43
421.982	6.58
422.187	6.65
422.393	6.55
422.599	6.5
422.805	6.38
423.01	6.26
423.216	6.11
423.422	5.98
423.628	6.04
423.833	5.89
424.039	5.78
424.245	5.68
424.45	5.73
424.656	5.91
424.862	5.9
425.067	5.86
425.273	5.97
425.478	6.09
425.684	6.25
425.889	6.26
426.095	6.45
426.301	6.45
426.506	6.48
426.712	6.4
426.917	6.47
427.123	6.46
427.328	6.53
427.533	6.52
427.739	6.6
427.944	6.66
428.15	6.46
428.355	6.27
428.561	6.18
428.766	6.21
428.971	6.16
429.177	6.01
429.382	6.1
429.587	6.28
429.793	6.2
429.998	5.99
430.203	5.85
430.408	5.95
430.614	6.14
430.819	6.08
431.024	5.98
431.229	5.99
431.434	5.73
431.64	5.78
431.845	5.81
432.05	5.95
432.255	5.93
432.46	5.98
432.665	6.11
432.87	6.07
433.076	6.16
433.281	6.16
433.486	6.38
433.691	6.51
433.896	6.43
434.101	6.27
434.306	6.16
434.511	6.23
434.716	6.21
434.921	6.12
435.126	6.08
435.331	5.98
435.535	5.95
435.74	5.72
435.945	5.86
436.15	5.87
436.355	6.03
436.56	6.13
436.765	6.24
436.97	6.19
437.174	6.19
437.379	6.2
437.584	6.28
437.789	6.43
437.993	6.5
438.198	6.29
438.403	6.17
438.608	6.18
438.812	6.04
439.017	6
439.222	6.03
439.426	5.96
439.631	5.96
439.836	6.06
440.04	6.02
440.245	5.99
440.45	6.03
440.654	6.16
440.859	6.06
441.063	6.22
441.268	6.19
441.472	6.14
441.677	6.16
441.881	6.14
442.086	5.93
442.29	5.9
442.495	5.77
442.699	5.83
442.904	5.86
443.108	5.85
443.312	5.57
443.517	5.46
443.721	5.71
443.925	5.82
444.13	5.85
444.334	6.14
444.538	6.23
444.743	6.35
444.947	6.31
445.151	6.27
445.356	6.35
445.56	6.48
445.764	6.47
445.968	6.3
446.173	6.17
446.377	6.17
446.581	6.06
446.785	5.93
446.989	5.9
447.193	5.81
447.398	5.66
447.602	5.59
447.806	5.58
448.01	5.62
448.214	5.56
448.418	5.58
448.622	5.45
448.826	5.39
449.03	5.5
449.234	5.42
449.438	5.41
449.642	5.54
449.846	5.44
450.05	5.45
450.254	5.51
450.458	5.51
450.662	5.64
450.866	5.6
451.069	5.7
451.273	5.57
451.477	5.62
451.681	5.62
451.885	5.55
452.089	5.77
452.292	5.78
452.496	5.63
452.7	5.5
452.904	5.33
453.107	5.47
453.311	5.55
453.515	5.6
453.719	5.72
453.922	5.7
454.126	5.53
454.33	5.4
454.533	5.35
454.737	5.45
454.94	5.57
455.144	5.73
455.348	5.7
455.551	5.7
455.755	5.61
455.958	5.55
456.162	5.69
456.365	6.01
456.569	5.96
456.772	5.94
456.976	6.05
457.179	6.07
457.383	5.99
457.586	5.84
457.79	5.77
457.993	5.77
458.196	5.77
458.4	5.8
458.603	5.75
458.807	5.76
459.01	5.81
459.213	5.66
459.417	5.72
459.62	5.68
459.823	5.8
460.026	5.75
460.23	5.78
460.433	5.72
460.636	5.66
460.839	5.59
461.042	5.64
461.246	5.61
461.449	5.7
461.652	5.64
461.855	5.71
462.058	5.68
462.261	5.62
462.464	5.55
462.668	5.51
462.871	5.59
463.074	5.56
463.277	5.44
463.48	5.46
463.683	5.41
463.886	5.52
464.089	5.48
464.292	5.49
464.495	5.7
464.698	5.62
464.901	5.8
465.104	5.94
465.306	6.18
465.509	6.21
465.712	6.16
465.915	6.02
466.118	5.91
466.321	5.88
466.524	5.93
466.726	5.79
466.929	5.9
467.132	5.79
467.335	5.68
467.538	5.47
467.74	5.46
467.943	5.46
468.146	5.6
468.348	5.67
468.551	5.58
468.754	5.58
468.956	5.63
469.159	5.71
469.362	5.72
469.564	5.63
469.767	5.72
469.969	5.77
470.172	5.88
470.375	5.73
470.577	5.68
470.78	6.01
470.982	6.06
471.185	6.03
471.387	5.88
471.59	5.9
471.792	5.87
471.995	5.89
472.197	5.86
472.399	5.97
472.602	6.11
472.804	6.02
473.007	5.88
473.209	5.77
473.411	5.83
473.614	5.93
473.816	6.07
474.018	5.96
474.22	5.99
474.423	6.02
474.625	5.86
474.827	5.78
475.03	5.67
475.232	5.61
475.434	5.7
475.636	5.58
475.838	5.6
476.04	5.47
476.243	5.58
476.445	5.56
476.647	5.56
476.849	5.54
477.051	5.6
477.253	5.77
477.455	5.78
477.657	5.59
477.859	5.72
478.061	5.63
478.263	5.7
478.465	5.61
478.667	5.63
478.869	5.61
479.071	5.46
479.273	5.34
479.475	5.26
479.677	5.21
479.879	5.32
480.081	5.28
480.283	5.33
480.485	5.12
480.686	5.27
480.888	5.23
481.09	5.29
481.292	5.53
481.494	5.62
481.695	5.71
481.897	5.75
482.099	5.6
482.301	5.54
482.502	5.54
482.704	5.53
482.906	5.49
483.107	5.53
483.309	5.47
483.511	5.42
483.712	5.38
483.914	5.34
484.115	5.33
484.317	5.41
484.519	5.43
484.72	5.45
484.922	5.49
485.123	5.5
485.325	5.49
485.526	5.48
485.728	5.47
485.929	5.53
486.131	5.56
486.332	5.64
486.534	5.61
486.735	5.62
486.936	5.58
487.138	5.57
487.339	5.56
487.541	5.56
487.742	5.57
487.943	5.56
488.144	5.53
488.346	5.58
488.547	5.53
488.748	5.58
488.95	5.62
489.151	5.68
489.352	5.68
489.553	5.74
489.755	5.69
489.956	5.73
490.157	5.79
490.358	5.75
490.559	5.81
490.76	5.8
490.961	5.78
491.163	5.68
491.364	5.66
491.565	5.7
491.766	5.68
491.967	5.72
492.168	5.7
492.369	5.73
492.57	5.73
492.771	5.62
492.972	5.59
493.173	5.62
493.374	5.72
493.575	5.71
493.776	5.63
493.976	5.54
494.177	5.49
494.378	5.63
494.579	5.46
494.78	5.56
494.981	5.72
495.182	5.84
495.382	5.7
495.583	5.56
495.784	5.52
495.985	5.72
496.185	5.8
496.386	5.85
496.587	5.82
496.788	5.82
496.988	5.89
497.189	5.73
497.39	5.77
497.59	5.87
497.791	5.92
497.992	5.9
498.192	5.86
498.393	5.92
498.593	6.02
498.794	5.99
498.994	6.04
499.195	5.92
499.395	5.91
499.596	5.79
499.796	5.73
499.997	5.71
500.197	5.88
500.398	5.98
500.598	5.91
500.799	5.8
500.999	5.75
501.199	5.79
501.4	5.86
501.6	5.94
501.801	5.91
502.001	6
502.201	6.03
502.402	6
502.602	5.85
502.802	5.91
503.002	6.1
503.203	6.25
503.403	6.17
503.603	6.23
503.803	6.36
504.003	6.46
504.204	6.43
504.404	6.43
504.604	6.37
504.804	6.46
505.004	6.53
505.204	6.41
505.404	6.39
505.604	6.5
505.804	6.45
506.005	6.29
506.205	6.26
506.405	6.31
506.605	6.46
506.805	6.52
507.005	6.33
507.204	6.37
507.404	6.3
507.604	6.22
507.804	6.21
508.004	6.39
508.204	6.56
508.404	6.61
508.604	6.72
508.804	6.63
509.003	6.71
509.203	6.82
509.403	6.73
509.603	6.78
509.803	6.9
510.002	6.92
510.202	6.76
510.402	6.76
510.602	6.72
510.801	6.72
511.001	6.78
511.201	6.67
511.4	6.75
511.6	6.91
511.8	6.94
511.999	6.87
512.199	7.05
512.398	7.1
512.598	7.11
512.797	7.36
512.997	7.34
513.197	7.36
513.396	7.48
513.596	7.5
513.795	7.42
513.994	7.54
514.194	7.73
514.393	7.6
514.593	7.75
514.792	7.8
514.992	7.64
515.191	7.71
515.39	7.76
515.59	7.79
515.789	7.75
515.988	7.86
516.188	7.84
516.387	7.73
516.586	7.85
516.786	7.74
516.985	7.72
517.184	7.7
517.383	7.67
517.582	7.62
517.782	7.61
517.981	7.73
518.18	7.67
518.379	7.65
518.578	7.71
518.777	7.69
518.976	7.77
519.176	7.86
519.375	7.97
519.574	8.02
519.773	8.16
519.972	8.2
520.171	8.19
520.37	8.28
520.569	8.37
520.768	8.46
520.967	8.54
521.166	8.65
521.365	8.68
521.564	8.63
521.762	8.6
521.961	8.63
522.16	8.78
522.359	8.84
522.558	8.9
522.757	8.82
522.956	8.86
523.154	8.89
523.353	8.94
523.552	8.99
523.751	9.11
523.949	9.18
524.148	9.06
524.347	9.01
524.546	8.99
524.744	9.11
524.943	9.38
525.142	9.32
525.34	9.29
525.539	9.17
525.737	9.21
525.936	9.32
526.135	9.42
526.333	9.54
526.532	9.61
526.73	9.65
526.929	9.6
527.127	9.52
527.326	9.57
527.524	9.66
527.723	9.76
527.921	9.77
528.12	9.72
528.318	9.78
528.516	9.8
528.715	9.84
528.913	9.9
529.112	9.94
529.31	9.97
529.508	10.01
529.707	9.98
529.905	10.03
530.103	10.11
530.301	10.15
530.5	10.08
530.698	10.1
530.896	10.2
531.094	10.22
531.293	10.21
531.491	10.21
531.689	10.27
531.887	10.43
532.085	10.49
532.283	10.44
532.481	10.49
532.68	10.68
532.878	10.8
533.076	10.78
533.274	10.82
533.472	10.82
533.67	11
533.868	10.96
534.066	10.91
534.264	10.93
534.462	11.1
534.66	11.22
534.858	11.16
535.056	11.11
535.253	11.13
535.451	11.21
535.649	11.49
535.847	11.47
536.045	11.7
536.243	11.86
536.441	12.06
536.638	12.04
536.836	12.07
537.034	12.15
537.232	12.32
537.43	12.39
537.627	12.39
537.825	12.38
538.023	12.38
538.22	12.41
538.418	12.36
538.616	12.2
538.813	12.31
539.011	12.36
539.209	12.63
539.406	12.76
539.604	12.8
539.801	13.01
539.999	13.03
540.196	13.19
540.394	13.19
540.591	13.28
540.789	13.36
540.986	13.37
541.184	13.4
541.381	13.34
541.579	13.36
541.776	13.37
541.974	13.41
542.171	13.44
542.368	13.51
542.566	13.56
542.763	13.58
542.96	13.64
543.158	13.67
543.355	13.71
543.552	13.78
543.75	13.82
543.947	13.96
544.144	13.94
544.341	14.12
544.539	14.15
544.736	14.28
544.933	14.31
545.13	14.45
545.327	14.47
545.524	14.62
545.722	14.72
545.919	14.69
546.116	14.68
546.313	14.88
546.51	14.76
546.707	14.88
546.904	15
547.101	15.15
547.298	15.23
547.495	15.36
547.692	15.4
547.889	15.36
548.086	15.58
548.283	15.8
548.48	15.8
548.677	15.94
548.874	16.08
549.07	16.26
549.267	16.41
549.464	16.68
549.661	16.78
549.858	16.95
550.055	17.15
550.251	17.27
550.448	17.13
550.645	17.28
550.842	17.43
551.038	17.49
551.235	17.5
551.432	17.77
551.628	17.59
551.825	17.67
552.022	17.77
552.218	17.93
552.415	18.01
552.612	18.26
552.808	18.28
553.005	18.48
553.201	18.42
553.398	18.52
553.594	18.26
553.791	18.44
553.987	18.6
554.184	18.49
554.38	18.51
554.577	18.5
554.773	18.52
554.97	18.57
555.166	18.53
555.362	18.55
555.559	18.56
555.755	18.77
555.952	18.77
556.148	18.69
556.344	18.82
556.541	18.95
556.737	18.92
556.933	19
557.129	19.15
557.326	19.18
557.522	19.41
557.718	19.48
557.914	19.65
558.11	19.61
558.307	19.8
558.503	19.89
558.699	19.86
558.895	20.23
559.091	20.39
559.287	20.66
559.483	20.91
559.679	21.04
559.876	21.11
560.072	21.05
560.268	21.3
560.464	21.13
560.66	21.26
560.856	21.6
561.052	21.64
561.247	21.71
561.443	21.56
561.639	21.35
561.835	21.44
562.031	21.49
562.227	21.56
562.423	21.6
562.619	21.96
562.815	21.93
563.01	21.83
563.206	21.81
563.402	21.9
563.598	22.05
563.793	22.39
563.989	22.32
564.185	22.29
564.381	22.72
564.576	22.85
564.772	23.13
564.968	23.33
565.163	23.56
565.359	23.73
565.555	23.72
565.75	23.7
565.946	23.77
566.141	23.8
566.337	24.01
566.532	24.05
566.728	24.2
566.923	24.11
567.119	24.2
567.314	24.19
567.51	24.28
567.705	24.33
567.901	24.43
568.096	24.56
568.292	24.75
568.487	24.73
568.682	24.63
568.878	24.6
569.073	24.69
569.268	24.78
569.464	24.87
569.659	24.81
569.854	25.04
570.05	25.11
570.245	25.07
570.44	25.06
570.635	25.16
570.831	25.23
571.026	25.36
571.221	25.45
571.416	25.42
571.611	25.58
571.806	25.57
572.002	25.5
572.197	25.58
572.392	25.73
572.587	25.89
572.782	25.99
572.977	26.05
573.172	26.15
573.367	26.14
573.562	26.35
573.757	26.48
573.952	26.57
574.147	26.8
574.342	26.9
574.537	26.77
574.732	26.82
574.927	26.76
575.121	26.81
575.316	26.86
575.511	26.89
575.706	26.95
575.901	26.77
576.096	26.89
576.29	26.86
576.485	26.86
576.68	26.83
576.875	26.79
577.069	26.8
577.264	26.84
577.459	26.8
577.654	26.94
577.848	26.88
578.043	27.13
578.238	27.29
578.432	27.17
578.627	27.25
578.821	27.66
579.016	27.69
579.21	27.87
579.405	27.9
579.6	28.02
579.794	28.01
579.989	28.08
580.183	27.99
580.378	27.8
580.572	27.91
580.766	27.89
580.961	27.62
581.155	27.86
581.35	28.05
581.544	28.22
581.738	28.27
581.933	28.21
582.127	28.2
582.321	28.28
582.516	28.68
582.71	28.7
582.904	28.71
583.099	28.81
583.293	28.85
583.487	28.86
583.681	28.94
583.875	29.09
584.07	29.15
584.264	29.32
584.458	29.35
584.652	29.3
584.846	29.51
585.04	29.77
585.234	30.04
585.428	30
585.623	30.05
585.817	29.9
586.011	29.6
586.205	29.74
586.399	29.98
586.593	29.94
586.787	29.89
586.981	29.89
587.174	29.67
587.368	29.59
587.562	29.53
587.756	29.36
587.95	29.51
588.144	29.53
588.338	29.58
588.532	29.35
588.725	29.36
588.919	29.13
589.113	29.26
589.307	29.44
589.501	29.62
589.694	29.74
589.888	30.01
590.082	30.12
590.275	30.19
590.469	30.19
590.663	30.49
590.856	30.57
591.05	30.79
591.244	30.65
591.437	30.54
591.631	30.76
591.824	30.77
592.018	30.57
592.212	30.49
592.405	30.75
592.599	30.85
592.792	30.84
592.986	30.84
593.179	31.01
593.372	31.28
593.566	31.41
593.759	31.11
593.953	31.24
594.146	31.35
594.339	31.57
594.533	31.52
594.726	31.48
594.92	31.26
595.113	31.36
595.306	31.39
595.499	31.32
595.693	31.5
595.886	31.59
596.079	31.57
596.272	31.62
596.466	31.58
596.659	31.54
596.852	31.53
597.045	31.46
597.238	31.26
597.431	31.08
597.624	31.1
597.818	31.08
598.011	31.06
598.204	31.19
598.397	31.28
598.59	31.22
598.783	31.35
598.976	31.35
599.169	31.75
599.362	31.91
599.555	32.03
599.748	32.12
599.941	32.11
600.134	32.26
600.326	32.09
600.519	32.06
600.712	32.06
600.905	31.96
601.098	32.16
601.291	31.97
601.483	32.23
601.676	32.53
601.869	32.52
602.062	32.47
602.255	32.49
602.447	32.51
602.64	32.5
602.833	32.44
603.025	32.68
603.218	32.58
603.411	32.69
603.603	32.56
603.796	32.55
603.989	32.43
604.181	32.55
604.374	32.56
604.566	32.6
604.759	32.52
604.951	32.56
605.144	32.45
605.336	32.59
605.529	32.58
605.721	32.67
605.914	32.65
606.106	32.79
606.299	32.76
606.491	32.83
606.683	32.93
606.876	33.07
607.068	33.31
607.26	33.26
607.453	33.32
607.645	33.4
607.837	33.46
608.03	33.38
608.222	33.42
608.414	33.37
608.606	33.23
608.799	33.18
608.991	33.3
609.183	33.31
609.375	33.37
609.567	33.29
609.759	33.09
609.952	33.02
610.144	33.02
610.336	32.94
610.528	32.93
610.72	32.98
610.912	33.13
611.104	33.15
611.296	32.93
611.488	32.99
611.68	32.86
611.872	32.99
612.064	32.91
612.256	32.85
612.448	32.79
612.64	33.05
612.832	33.15
613.023	33.01
613.215	32.87
613.407	32.96
613.599	32.94
613.791	32.92
613.983	32.87
614.174	32.93
614.366	32.96
614.558	33.1
614.75	33.02
614.941	33.3
615.133	33.42
615.325	33.44
615.516	33.79
615.708	34.04
615.9	34.34
616.091	34.43
616.283	34.57
616.475	34.55
616.666	34.79
616.858	34.79
617.049	34.49
617.241	34.58
617.432	34.58
617.624	34.43
617.815	34.38
618.007	34.18
618.198	34.15
618.39	34.1
618.581	34.4
618.773	34.29
618.964	34.47
619.155	34.52
619.347	34.33
619.538	34.63
619.729	34.58
619.921	34.63
620.112	34.82
620.303	34.9
620.494	34.96
620.686	34.82
620.877	34.83
621.068	34.51
621.259	34.85
621.451	35.24
621.642	35.05
621.833	35.15
622.024	35.05
622.215	34.93
622.406	34.94
622.597	35.18
622.788	35.03
622.98	34.66
623.171	34.96
623.362	34.68
623.553	34.32
623.744	34.56
623.935	34.74
624.126	34.92
624.317	34.98
624.508	35.02
624.698	34.97
624.889	35.08
625.08	35.49
625.271	35.58
625.462	35.61
625.653	35.78
625.844	35.66
626.034	35.39
626.225	35.36
626.416	35.5
626.607	35.67
626.798	35.65
626.988	35.69
627.179	35.62
627.37	35.45
627.56	35.29
627.751	35.31
627.942	35.42
628.132	35.64
628.323	35.54
628.514	35.28
628.704	35.25
628.895	35.11
629.085	35.15
629.276	35.14
629.466	35.46
629.657	35.64
629.847	35.64
630.038	35.73
630.228	35.64
630.419	35.71
630.609	35.98
630.8	35.99
630.99	36.27
631.181	36.4
631.371	36.27
631.561	35.89
631.752	35.67
631.942	35.91
632.132	35.42
632.323	35.26
632.513	35.26
632.703	35.42
632.893	35.14
633.084	35.08
633.274	35.08
633.464	35.34
633.654	35.29
633.844	35.48
634.034	35.04
634.225	35.19
634.415	35.61
634.605	35.53
634.795	35.39
634.985	35.67
635.175	35.63
635.365	35.67
635.555	35.71
635.745	35.71
635.935	35.61
636.125	35.99
636.315	36.03
636.505	35.94
636.695	35.74
636.885	35.82
637.075	35.59
637.265	35.57
637.455	35.62
637.644	35.54
637.834	35.53
638.024	35.62
638.214	35.52
638.404	35.77
638.593	35.69
638.783	36.13
638.973	36.05
639.163	36.05
639.352	36.18
639.542	36.13
639.732	36.21
639.921	36.33
640.111	36.27
640.301	36.43
640.49	36.63
640.68	36.46
640.87	36.54
641.059	36.74
641.249	37.23
641.438	37.23
641.628	37.2
641.817	37
642.007	37.16
642.196	37.36
642.386	37.09
642.575	36.79
642.764	37.04
642.954	36.83
643.143	37.07
643.333	37.05
643.522	36.85
643.711	36.96
643.901	36.97
644.09	37.03
644.279	36.97
644.469	37.04
644.658	37.12
644.847	36.88
645.036	37.02
645.226	36.65
645.415	36.24
645.604	36.11
645.793	36.08
645.982	36.29
646.171	35.98
646.361	36.21
646.55	35.95
646.739	35.64
646.928	35.98
647.117	35.86
647.306	35.82
647.495	36.07
647.684	36.3
647.873	36.58
648.062	36.55
648.251	36.8
648.44	36.42
648.629	36.8
648.818	36.85
649.007	36.6
649.196	36.78
649.384	36.58
649.573	36.53
649.762	36.75
649.951	36.69
650.14	36.73
650.328	36.8
650.517	37.02
650.706	37.12
650.895	37.1
651.083	37.15
651.272	36.69
651.461	37.08
651.65	36.91
651.838	36.88
652.027	36.53
652.216	36.36
652.404	36.43
652.593	36.45
652.781	36.14
652.97	36.34
653.158	36.57
653.347	36.83
653.535	36.6
653.724	36.81
653.912	36.87
654.101	36.98
654.289	37.24
654.478	37.17
654.666	37
654.855	37.2
655.043	37.33
655.231	37.24
655.42	37.25
655.608	37.59
655.796	37.56
655.985	37.65
656.173	37.68
656.361	37.53
656.55	37.57
656.738	37.7
656.926	37.85
657.114	37.89
657.302	37.49
657.491	37.39
657.679	37.17
657.867	37.14
658.055	36.95
658.243	37.18
658.431	37.21
658.619	37.11
658.807	36.91
658.996	36.83
659.184	36.52
659.372	36.82
659.56	37.11
659.748	37.19
659.936	37.44
660.124	37.58
660.311	37.54
660.499	37.5
660.687	37.51
660.875	38.09
661.063	38.05
661.251	38.61
661.439	38.44
661.627	38.6
661.814	38.48
662.002	38.29
662.19	38.45
662.378	38.3
662.565	38.16
662.753	38.34
662.941	37.84
663.129	37.86
663.316	37.76
663.504	38.05
663.692	37.98
663.879	38.14
664.067	38.16
664.254	38.08
664.442	38.43
664.63	38.68
664.817	38.53
665.005	38.49
665.192	38.47
665.38	37.94
665.567	37.92
665.755	37.45
665.942	37.79
666.13	38.32
666.317	37.97
666.504	37.38
666.692	37.24
666.879	37.39
667.067	37.93
667.254	37.91
667.441	38.69
667.629	38.68
667.816	39.17
668.003	38.75
668.19	38.33
668.378	38.65
668.565	38.92
668.752	39.06
668.939	39.03
669.127	38.51
669.314	38.84
669.501	38.07
669.688	38.1
669.875	38.13
670.062	38.32
670.249	38.15
670.436	37.95
670.623	38.16
670.81	38.25
670.997	38.29
671.184	38.68
671.371	38.84
671.558	39.5
671.745	39.25
671.932	39.05
672.119	38.83
672.306	38.93
672.493	38.79
672.68	38.78
672.867	39.5
673.054	39.66
673.24	39.88
673.427	39.6
673.614	39.13
673.801	39.43
673.988	39.37
674.174	39.8
674.361	39.81
674.548	40.11
674.734	40.36
674.921	39.74
675.108	39.58
675.294	39.16
675.481	39.15
675.668	39.12
675.854	39.24
676.041	39.43
676.227	39.53
676.414	39.85
676.601	39.64
676.787	39.16
676.974	38.91
677.16	39.12
677.347	39.4
677.533	39.45
677.719	39.29
677.906	38.98
678.092	38.77
678.279	38.59
678.465	38.63
678.651	38.72
678.838	38.77
679.024	38.72
679.21	38.86
679.397	38.76
679.583	38.68
679.769	38.92
679.955	39.09
680.142	39.51
680.328	39.57
680.514	39.02
680.7	39.06
680.886	39.45
681.073	39.46
681.259	39.29
681.445	39.07
681.631	39.28
681.817	39.57
682.003	39.44
682.189	39.26
682.375	39.06
682.561	39.36
682.747	39.4
682.933	39.14
683.119	39.55
683.305	39.55
683.491	39.57
683.677	39.61
683.863	39.28
684.049	39.43
684.235	39.5
684.42	39.34
684.606	39.17
684.792	39.31
684.978	39.32
685.164	39.42
685.349	39.66
685.535	40.05
685.721	39.7
685.907	39.65
686.092	39.82
686.278	39.8
686.464	40.24
686.649	40.16
686.835	40.49
687.021	40.34
687.206	39.86
687.392	39.68
687.577	39.92
687.763	39.86
687.948	40
688.134	39.74
688.319	39.66
688.505	39.49
688.69	40.01
688.876	39.45
689.061	39.2
689.247	39.34
689.432	38.91
689.618	38.41
689.803	38.7
689.988	39.14
690.174	39.31
690.359	39.07
690.544	39.02
690.73	38.71
690.915	38.84
691.1	39.13
691.285	39.71
691.471	40.37
691.656	40.63
691.841	40.81
692.026	40.42
692.211	40.56
692.396	40.55
692.582	40.51
692.767	40.73
692.952	40.56
693.137	40.94
693.322	40.48
693.507	40.06
693.692	39.89
693.877	39.67
694.062	39.53
694.247	38.98
694.432	39.53
694.617	39.35
694.802	39.42
694.987	39.57
695.172	39.56
695.357	39.65
695.541	40.14
695.726	40.28
695.911	40.61
696.096	40.47
696.281	40.84
696.466	40.67
696.65	40.91
696.835	41.38
697.02	41.19
697.204	40.86
697.389	40.78
697.574	40.47
697.759	40.26
697.943	39.92
698.128	40.05
698.312	39.8
698.497	39.58
698.682	39.55
698.866	39.57
699.051	39.89
699.235	40.07
699.42	40.15
699.604	40.23
699.789	40.36
699.973	40.39
700.158	40.89
700.342	41.17
700.527	41.19
700.711	41.2
700.895	40.81
701.08	40.75
701.264	40.48
701.448	40.69
701.633	40.39
701.817	40.57
702.001	40.28
702.186	40.05
702.37	39.93
702.554	39.92
702.738	39.59
702.923	40.06
703.107	40.27
703.291	40.56
703.475	40.25
703.659	40.72
703.843	41.12
704.027	41.54
704.212	41.09
704.396	41.9
704.58	42.35
704.764	42.17
704.948	41.29
705.132	40.78
705.316	40.73
705.5	40.83
705.684	40.93
705.868	40.74
706.052	41.32
706.235	41.16
706.419	40.41
706.603	40.41
706.787	40.89
706.971	41.33
707.155	41.76
707.339	41.88
707.522	41.51
707.706	40.77
707.89	40.05
708.074	39.73
708.257	40.18
708.441	41.06
708.625	40.87
708.808	41.22
708.992	40.91
709.176	40.18
709.359	40.4
709.543	40.86
709.727	41.3
709.91	41.72
710.094	41.4
710.277	41.2
710.461	40.26
710.644	40.38
710.828	39.99
711.011	40.06
711.195	40.37
711.378	40.08
711.562	40.07
711.745	40.11
711.928	40.27
712.112	40.2
712.295	40.53
712.478	40.08
712.662	40.06
712.845	40.27
713.028	40.73
713.212	40.25
713.395	40.29
713.578	40.07
713.761	40.06
713.945	39.96
714.128	40.15
714.311	40.26
714.494	41.14
714.677	41
714.86	41.43
715.043	40.86
715.227	41.48
715.41	41.41
715.593	41.79
715.776	41.85
715.959	41.63
716.142	41.27
716.325	41
716.508	40.6
716.691	40.93
716.874	40.61
717.057	41.24
717.239	41.4
717.422	41.14
717.605	41.06
717.788	41.3
717.971	41.3
718.154	41.92
718.337	42.1
718.519	41.99
718.702	41.94
718.885	41.64
719.068	41.28
719.25	41.27
719.433	42.47
719.616	42.35
719.798	41.79
719.981	43.12
720.164	42.79
720.346	42.65
720.529	42.24
720.712	41.42
720.894	42.03
721.077	42.16
721.259	42.82
721.442	42.03
721.624	42.01
721.807	42.14
721.989	41.17
722.172	41.42
722.354	41.36
722.537	42.13
722.719	43.19
722.901	42.95
723.084	42.95
723.266	42.31
723.448	42.48
723.631	43.15
723.813	43.15
723.995	43.01
724.178	42.87
724.36	42.9
724.542	42.78
724.724	42.48
724.907	43.34
725.089	43.31
725.271	43.71
725.453	43.67
725.635	43.48
725.817	44.53
725.999	43.93
726.181	44.65
726.364	44.74
726.546	44.43
726.728	44.18
726.91	43.59
727.092	43.47
727.274	43.03
727.456	42.58
727.638	41.93
727.819	41.09
728.001	41.92
728.183	41.69
728.365	41.68
728.547	42.53
728.729	42.53
728.911	42.33
729.093	42.22
729.274	42.19
729.456	42.04
729.638	41.6
729.82	41.44
730.001	41.11
730.183	41.22
730.365	40.84
730.546	40.68
730.728	41.14
730.91	41.68
731.091	41.6
731.273	41.88
731.455	42
731.636	43.08
731.818	43.92
731.999	43.12
732.181	42.79
732.362	43.15
732.544	43.68
732.725	42.79
732.907	42.3
733.088	41.91
733.27	41.59
733.451	42.01
733.633	41.97
733.814	41.46
733.995	42.43
734.177	42.55
734.358	42.94
734.539	42.24
734.721	42.78
734.902	43.35
735.083	43.93
735.264	43.84
735.446	43.49
735.627	43.31
735.808	43.3
735.989	43.24
736.17	43.6
736.351	42.83
736.533	42.63
736.714	42.91
736.895	42.03
737.076	42.26
737.257	42.32
737.438	42.99
737.619	41.91
737.8	41.39
737.981	41.1
738.162	40.91
738.343	41.22
738.524	41.22
738.705	41.47
738.886	42.4
739.067	42.42
739.247	43.01
739.428	42.38
739.609	42.76
739.79	43.8
739.971	44.62
740.151	44.44
740.332	44.59
740.513	44.47
740.694	43.47
740.874	42.48
741.055	43.1
741.236	43.36
741.417	43.78
741.597	43.71
741.778	42.73
741.958	42.24
742.139	41.9
742.32	41.8
742.5	42.2
742.681	43.4
742.861	44.08
743.042	43.11
743.222	42.63
743.403	42.95
743.583	43.67
743.764	44.76
743.944	44.24
744.124	43.88
744.305	44.01
744.485	43.96
744.666	43.35
744.846	43.18
745.026	44.15
745.207	43.76
745.387	44.57
745.567	43.68
745.747	42.42
745.928	42.43
746.108	43
746.288	43.07
746.468	43.86
746.648	43.73
746.829	43.57
747.009	42.82
747.189	42.73
747.369	41.56
747.549	40.91
747.729	41.12
747.909	42.19
748.089	42.62
748.269	42.16
748.449	41.75
748.629	42.03
748.809	42.19
748.989	42.49
749.169	43.73
749.349	43.99
749.529	45.72
749.709	46.78
749.889	45.43
750.068	44.55
750.248	45.56
750.428	45.64
750.608	45.8
750.788	45.45
750.967	45.73
751.147	45.24
751.327	43.74
751.507	43.41
751.686	42.3
751.866	42.74
752.046	43.82
752.225	43.44
752.405	42.94
752.585	41.93
752.764	42.34
752.944	41.73
753.123	41.94
753.303	43.48
753.482	43.74
753.662	44.79
753.841	44.47
754.021	44.19
754.2	43.93
754.38	44.21
754.559	45.31
754.739	44.7
754.918	44.28
755.097	43.86
755.277	43.73
755.456	43.46
755.635	41.8
755.815	42.06
755.994	42.09
756.173	42.29
756.352	42.63
756.532	42.49
756.711	43.32
756.89	44.17
757.069	43.76
757.248	42.71
757.427	42.62
757.607	42.9
757.786	43.81
757.965	44.22
758.144	43.91
758.323	43.39
758.502	42.39
758.681	42.12
758.86	41.16
759.039	41.86
759.218	42.31
759.397	42.5
759.576	43.3
759.755	42.41
759.934	41.09
760.113	40.75
760.291	40.96
760.47	42.42
760.649	42.9
760.828	43.36
761.007	43.08
761.186	43.83
761.364	43.76
761.543	43.82
761.722	44.41
761.901	45.05
762.079	45.43
762.258	44.94
762.437	44.72
762.615	44.04
762.794	43.74
762.972	43.81
763.151	43.58
763.33	43.33
763.508	43.08
763.687	43.52
763.865	43.69
764.044	44.09
764.222	44.18
764.401	43.59
764.579	43.2
764.758	43.83
764.936	43.66
765.114	43.57
765.293	43.92
765.471	44.37
765.65	43.49
765.828	43.12
766.006	42.6
766.184	43.17
766.363	44.08
766.541	44.4
766.719	44.3
766.898	44.72
767.076	45
767.254	44.95
767.432	45.59
767.61	45.78
767.788	45.68
767.967	46.03
768.145	45.19
768.323	44.43
768.501	45.36
768.679	44.83
768.857	44.41
769.035	44.29
769.213	45.04
769.391	43.85
769.569	44.38
769.747	44.64
769.925	43.68
770.103	43.04
770.281	43.17
770.459	43.44
770.636	43.23
770.814	44.55
770.992	43.64
771.17	41.81
771.348	41.39
771.525	40.19
771.703	40.34
771.881	40.76
772.059	42.13
772.236	41.56
772.414	41.4
772.592	42.09
772.769	38.74
772.947	39.67
773.125	41.08
773.302	41.49
773.48	42.33
773.657	42.44
773.835	42.8
774.013	43.43
774.19	43.74
774.368	43.44
774.545	44.05
774.723	46.05
774.9	46.5
775.077	45.86
775.255	45.47
775.432	45.66
775.61	46.29
775.787	45.41
775.964	44.45
776.142	44.21
776.319	44.57
776.496	43.76
776.674	43.19
776.851	42.18
777.028	42.67
777.205	43.26
777.382	42.4
777.56	41.88
777.737	42.64
777.914	43.31
778.091	44.46
778.268	44.05
778.445	45.36
778.622	46.34
778.8	49.19
778.977	47.64
779.154	57.76
779.331	58.81
779.508	58.53
779.685	59.43
779.862	59.94
780.038	61.13
780.215	62.43
780.392	60.64
780.569	60.09
780.746	57.16
780.923	57.4
781.1	46.8
781.277	45.98
781.453	45.17
781.63	45.42
781.807	45.15
781.984	44.2
782.16	43.51
782.337	45
782.514	44.42
782.691	45.54
782.867	44.96
783.044	44.44
783.221	45.16
783.397	47.13
783.574	46.23
783.75	46.64
783.927	46.59
784.103	45.85
784.28	45.25
784.456	47.15
784.633	46.72
784.809	48.34
784.986	47.19
785.162	47.74
785.339	46.06
785.515	47.79
785.692	47.38
785.868	46.71
786.044	45.08
786.221	45.92
786.397	45.98
786.573	45.61
786.749	45.65
786.926	47.19
787.102	47.45
787.278	49.25
787.454	48.06
787.631	48.03
787.807	46.84
787.983	46.73
788.159	46.54
788.335	45.74
788.511	46.12
788.687	47.46
788.863	47.8
789.039	48.49
789.216	48.26
789.392	48.44
789.568	47.11
789.744	49.42
789.919	52.86
790.095	51.3
790.271	51.2
790.447	51.12
790.623	51.99
790.799	51.72
790.975	49.37
791.151	48.93
791.327	48.43
791.502	48.94
791.678	47.87
791.854	47.76
792.03	49.38
792.205	49.38
792.381	51.33
792.557	49.25
792.733	47.45
792.908	50.19
793.084	49.32
793.259	49.16
793.435	49.24
793.611	49.44
793.786	48.63
793.962	48.6
794.137	48.7
794.313	45.7
794.488	45.77
794.664	48.81
794.839	46.98
795.015	48.47
795.19	49.34
795.366	50.05
795.541	50.87
795.716	49.72
795.892	48.66
796.067	49.24
796.242	50.78
796.418	50.64
796.593	47.78
796.768	48.2
796.944	47.98
797.119	47.14
797.294	48.03
797.469	47.91
797.644	50.03
797.82	50.84
797.995	50.31
798.17	51.65
798.345	52.67
798.52	55.59
798.695	53.7
798.87	54.04
799.045	54.65
799.22	53.28
799.395	52.61
799.57	50.98
799.745	51.45
799.92	49.98
800.095	48.09
800.27	47.24
800.445	47.28
800.62	49.27
800.795	48.31
800.97	47.43
801.145	47.47
801.319	46.27
801.494	44.88
801.669	44.81
801.844	47.41
802.018	45.28
802.193	44.89
802.368	43.02
802.543	41.14
802.717	42.17
802.892	41.94
803.067	42.84
803.241	43.41
803.416	42.28
803.59	41.85
803.765	41.11
803.94	42.04
804.114	43.3
804.289	46.6
804.463	49.4
804.638	48.05
804.812	49.46
804.986	49.6
805.161	52.18
805.335	53.52
805.51	53.01
805.684	51.51
805.858	51.57
806.033	49.26
806.207	44.87
806.381	44.4
806.556	45.19
806.73	46.47
806.904	45.46
807.078	44.48
807.253	46.63
807.427	46.11
807.601	48.22
807.775	49.86
807.949	48.97
808.123	49.04
808.298	48.93
808.472	48.35
808.646	45.82
808.82	47.6
808.994	48.45
809.168	45.81
809.342	45.64
809.516	45.33
809.69	43.72
809.864	46.84
810.038	52.27
810.212	51.29
810.385	50.72
810.559	50.98
810.733	50.32
810.907	48.06
811.081	49.2
811.255	46.64
811.428	47.2
811.602	48.33
811.776	48.56
811.95	47.58
812.123	48.54
812.297	47.51
812.471	50.52
812.644	52.12
812.818	53.91
812.992	54.38
813.165	57.3
813.339	54.71
813.512	56.83
813.686	53.72
813.86	52.47
814.033	50.9
814.207	55.51
814.38	52.84
814.554	48.89
814.727	48.69
814.9	50.71
815.074	54.03
815.247	55.49
815.421	50.9
815.594	51.56
815.767	51.68
815.941	49.58
816.114	48.67
816.287	49.15
816.46	53.14
816.634	52.47
816.807	46.79
816.98	43.66
817.153	43.74
817.327	46.79
817.5	48.6
817.673	46.54
817.846	49.33
818.019	48.7
818.192	51.37
818.365	48.76
818.538	49.18
818.711	52.36
818.884	52.46
819.057	53.47
819.23	52.56
819.403	51.65
819.576	53.04
819.749	54.4
819.922	52.8
820.095	51.73
820.268	50.02
820.441	49.69
820.614	48.36
820.786	47.79
820.959	47.17
821.132	47.47
821.305	47.14
821.477	46.67
821.65	46.4
821.823	46.68
821.996	46.26
822.168	46.43
822.341	46.24
822.514	45.64
822.686	45.73
822.859	45.67
823.031	45.55
823.204	45.82
823.376	45.75
823.549	45.6
823.722	45.45
823.894	45.48
824.067	45.56
824.239	45.74
824.411	45.98
824.584	46.47
824.756	46.45
824.929	46.29
825.101	46.25
825.273	46.39
825.446	45.75
825.618	45.56
825.79	45.26
825.963	45.72
826.135	45.31
826.307	45.24
826.479	44.68
826.652	44.73
826.824	44.26
826.996	44.2
827.168	43.83
827.34	43.98
827.512	44.54
827.684	44.95
827.856	44.87
828.029	44.96
828.201	45.64
828.373	46.09
828.545	46.13
828.717	47.56
828.889	47.59
829.061	47.4
829.232	48.54
829.404	49.52
829.576	49.11
829.748	48.93
829.92	48.93
830.092	50.75
830.264	49.03
830.436	48.9
830.607	48.05
830.779	46.9
830.951	45.96
831.123	45.03
831.294	43.24
831.466	44.62
831.638	44.02
831.809	43.66
831.981	40.66
832.153	41.01
832.324	41.39
832.496	41.94
832.667	45.21
832.839	47.55
833.011	45.82
833.182	46.21
833.354	45.62
833.525	45.55
833.697	45.47
833.868	46.26
834.039	47.87
834.211	47.2
834.382	46.91
834.554	47.34
834.725	47.71
834.896	48.09
835.068	46.39
835.239	44.06
835.41	44.43
835.581	45.61
835.753	45.84
835.924	45.21
836.095	44.08
836.266	43.31
836.438	39.95
836.609	41.14
836.78	41.5
836.951	41.24
837.122	41.84
837.293	42.9
837.464	42.66
837.635	42.02
837.806	43.55
837.977	43.94
838.148	45.24
838.319	46.89
838.49	46.6
838.661	50.85
838.832	54.85
839.003	58.08
839.174	58.14
839.345	58.85
839.516	59.67
839.687	59.99
839.857	59.14
840.028	57.25
840.199	57.89
840.37	56.03
840.54	53.07
840.711	51.82
840.882	51.13
841.053	53.36
841.223	52.31
841.394	49.88
841.564	48.17
841.735	50.6
841.906	53.02
842.076	56.62
842.247	55.87
842.417	55.16
842.588	57.64
842.758	56.83
842.929	52.82
843.099	54.16
843.27	56.96
843.44	60.54
843.611	64.38
843.781	59.64
843.951	57.18
844.122	54.07
844.292	53.61
844.462	47.89
844.633	45.11
844.803	47.64
844.973	42.67
845.144	46.53
845.314	45.17
845.484	42.68
845.654	45.11
845.824	43.58
845.995	48.21
846.165	45.03
846.335	48.99
846.505	55.67
846.675	58.95
846.845	65.69
847.015	59.01
847.185	56.84
847.355	54.73
847.525	56.04
847.695	55.67
847.865	56.92
848.035	53.86
848.205	48.48
848.375	47.17
848.545	42.18
848.715	45.53
848.884	48.88
849.054	49.09
849.224	51.06
849.394	54.37
849.564	62.11
849.733	63.38
849.903	69.03
850.073	73.45
850.243	75.45
850.412	79.19
850.582	80.43
850.752	78.01
850.921	73.21
851.091	71.62
851.26	77.59
851.43	74.8
851.599	74.12
851.769	76.65
851.939	76.36
852.108	76.57
852.278	71.67
852.447	70.1
852.616	72.12
852.786	80.29
852.955	81.37
853.125	72.74
853.294	72.28
853.463	65.55
853.633	60.7
853.802	69.22
853.971	69.67
854.141	66.65
854.31	64.32
854.479	63.26
854.648	64.14
854.818	59.87
854.987	58.04
855.156	58.53
855.325	69.82
855.494	71.07
855.663	54.68
855.832	50.38
856.001	52.23
856.171	46.41
856.34	51.2
856.509	44.71
856.678	48.95
856.847	60.86
857.016	66.04
857.185	62.46
857.353	61.39
857.522	66.2
857.691	65.95
857.86	61.28
858.029	62.74
858.198	55.66
858.367	54.11
858.535	52.8
858.704	45.99
858.873	43.76
859.042	42.78
859.21	47.61
859.379	50.25
859.548	43.09
859.717	50.72
859.885	54.79
860.054	64.78
860.222	64.62
860.391	72.85
860.56	72.16
860.728	66.38
860.897	69.29
861.065	64.42
861.234	59.7
861.402	63.49
861.571	58.59
861.739	54.13
861.908	50.98
862.076	51.51
862.244	43.27
862.413	45.16
862.581	51.66
862.749	53.84
862.918	56.4
863.086	63.31
863.254	58.72
863.423	59.96
863.591	60.14
863.759	56.81
863.927	68.89
864.096	79.98
864.264	81.38
864.432	69.21
864.6	73.29
864.768	76.54
864.936	68.14
865.104	66.42
865.272	59.77
865.44	73.69
865.608	69.34
865.776	61.15
865.944	51.98
866.112	51.61
866.28	60.44
866.448	52.39
866.616	48.49
866.784	42.78
866.952	48.96
867.12	59.57
867.288	49.4
867.455	56.01
867.623	54.05
867.791	62.19
867.959	64.87
868.127	67.17
868.294	69.58
868.462	75.7
868.63	78.17
868.797	82.02
868.965	91.29
869.133	79.43
869.3	81.93
869.468	77.07
869.636	75.69
869.803	67.58
869.971	63.59
870.138	58.36
870.306	59.96
870.473	55.83
870.641	46.89
870.808	38.66
870.975	56.7
871.143	53.61
871.31	60.79
871.478	50.06
871.645	62.25
871.812	54.15
871.98	47.97
872.147	46.92
872.314	51.95
872.482	60.29
872.649	58.33
872.816	47.18
872.983	46.81
873.15	28.64
873.318	39.93
873.485	35.13
873.652	41.22
873.819	48.94
873.986	40.55
874.153	43.05
874.32	39.04
874.487	46.52
874.654	51.92
874.821	52.44
874.988	67.58
875.155	59.58
875.322	51.29
875.489	42.09
875.656	32.42
875.823	38.91
875.99	39.92
876.157	53.51
876.324	48.29
876.49	51.12
876.657	45.83
876.824	43.84
876.991	43.93
877.157	45.73
877.324	52.15
877.491	55.22
877.658	67.94
877.824	66.75
877.991	56.09
878.157	59.43
878.324	66.44
878.491	70.21
878.657	73.92
878.824	76.84
878.99	77.65
879.157	71.6
879.323	76.33
879.49	60.13
879.656	66.89
879.823	67.24
879.989	62.49
880.156	51.7
880.322	56.67
880.488	44.91
880.655	46.59
880.821	48.02
880.987	44.7
881.154	42.51
881.32	46.66
881.486	42.69
881.652	41.95
881.819	46.84
881.985	45.31
882.151	45.92
882.317	48.54
882.483	49.18
882.649	48.19
882.816	46.78
882.982	47.25
883.148	47.09
883.314	46.81
883.48	47.44
883.646	46.5
883.812	47.83
883.978	46.52
884.144	46.9
884.31	47.73
884.476	47.19
884.642	48.03
884.807	48.69
884.973	48.91
885.139	48.13
885.305	46.9
885.471	47.96
885.637	46.94
885.802	46.65
885.968	46.16
886.134	43.76
886.3	44.38
886.465	45.33
886.631	45.02
886.797	45.69
886.962	46.82
887.128	47.26
887.293	45.52
887.459	46.64
887.625	47.12
887.79	51.99
887.956	54.25
888.121	57.62
888.287	57.84
888.452	53.15
888.618	47.13
888.783	51.18
