Data from LC_237_Reflection_2.txt Node
Date: Thu Nov 19 22:11:39 EST 2015
User: robert
Spectrometer: USB4E03001
Autoset integration time: false
Trigger mode: 4
Integration Time (sec): 1.000000E-1
Scans to average: 15
Electric dark correction enabled: true
Nonlinearity correction enabled: false
Boxcar width: 5
Stray light correction enabled: false
XAxis mode: Wavelengths
Stop averaging: false
Number of Pixels in Spectrum: 3648
>>>>>Begin Spectral Data<<<<<
177.566	-9.48
177.785	-16.33
178.005	-3.69
178.225	-35.13
178.445	-18.92
178.665	-45.17
178.885	-31.49
179.105	-219.64
179.324	-352.7
179.544	-285.9
179.764	-46.44
179.984	-46.37
180.204	-44.41
180.423	70.58
180.643	73.34
180.863	19.26
181.083	-18.51
181.302	-33.3
181.522	-32.22
181.742	-1.47
181.961	-0.98
182.181	-24.64
182.401	-27.32
182.621	-22.81
182.84	-200.04
183.06	-202.79
183.279	-270.82
183.499	-125.51
183.719	-601.9
183.938	-3146.13
184.158	2239.29
184.377	1408.58
184.597	-701.06
184.816	9023.58
185.036	564.06
185.256	-6917.22
185.475	-299.21
185.695	-122.25
185.914	-148.47
186.134	-237.05
186.353	-48.92
186.572	-37.3
186.792	-283.36
187.011	1732.13
187.231	725.89
187.45	628.79
187.67	93.1
187.889	50.66
188.108	70.92
188.328	50.03
188.547	80.49
188.766	94.78
188.986	48.1
189.205	15.69
189.424	6.97
189.644	51.49
189.863	63.09
190.082	61.5
190.302	23.3
190.521	44.11
190.74	25.13
190.959	-14.22
191.178	-22.34
191.398	-43.69
191.617	-84.34
191.836	-715.33
192.055	-221.75
192.274	-278.75
192.494	-195.07
192.713	-28.5
192.932	-30.7
193.151	-39.46
193.37	-48.87
193.589	-65.13
193.808	-38.72
194.027	-14.56
194.246	10.54
194.465	8.88
194.685	-15.89
194.904	-30.76
195.123	-53.21
195.342	-98.1
195.561	-75.9
195.78	-38.31
195.999	-32.42
196.218	-52.4
196.436	-51.2
196.655	-96.43
196.874	-93.62
197.093	-145.69
197.312	-224.85
197.531	-179.82
197.75	-240.12
197.969	-106.95
198.188	416.83
198.407	121.07
198.625	144.57
198.844	71.29
199.063	-559.44
199.282	-45.45
199.501	-116.09
199.719	-162.57
199.938	16.26
200.157	-61.9
200.376	30.86
200.594	4.76
200.813	221.63
201.032	214.03
201.251	268.89
201.469	39.65
201.688	68.78
201.907	53.29
202.125	284.7
202.344	120.43
202.563	6.44
202.781	16.96
203	-21.85
203.218	-16.25
203.437	-13.83
203.656	17.62
203.874	16.11
204.093	-42.14
204.311	1.17
204.53	-11.5
204.748	-23.18
204.967	25.55
205.185	-2.86
205.404	-32.56
205.622	-22.23
205.841	9.7
206.059	-38.55
206.278	-35.6
206.496	-8.54
206.715	2.01
206.933	-9.16
207.151	4.46
207.37	-37.17
207.588	-58.72
207.806	25.01
208.025	-48.79
208.243	-284.65
208.461	-425.87
208.68	-422.13
208.898	-252.11
209.116	-194.49
209.335	-302.25
209.553	-1275.88
209.771	6388.24
209.989	-795.44
210.208	957.87
210.426	1191.83
210.644	-281.39
210.862	-148.97
211.081	-109.63
211.299	-103.68
211.517	-89.52
211.735	-36.07
211.953	8.57
212.171	7.12
212.39	13.71
212.608	26.9
212.826	45.73
213.044	68.17
213.262	41.3
213.48	11.65
213.698	1.92
213.916	-27.53
214.134	-67.45
214.352	-177.84
214.57	-235.3
214.788	-391.08
215.006	-226.22
215.224	-379.43
215.442	-960.85
215.66	-224.94
215.878	-372.64
216.096	-487.07
216.314	-464.55
216.532	-244.12
216.75	52.85
216.968	175.35
217.185	678.69
217.403	1059.33
217.621	1914.86
217.839	-152.23
218.057	-88.36
218.275	-5.58
218.492	11.69
218.71	-15.32
218.928	-44.68
219.146	-107.84
219.363	-30.06
219.581	-43.96
219.799	-40.92
220.017	-43.43
220.234	-33.31
220.452	-15.94
220.67	-38.96
220.887	-43.88
221.105	-8.73
221.323	-3.99
221.54	6.44
221.758	14.1
221.976	5.79
222.193	15.93
222.411	22.14
222.629	17.23
222.846	2.45
223.064	6.78
223.281	9.16
223.499	-12.83
223.716	-15.13
223.934	-15.03
224.151	-12.55
224.369	-0.17
224.586	-11.32
224.804	-13.78
225.021	-3.5
225.239	6.46
225.456	-7.22
225.674	-8.51
225.891	0.56
226.108	1.27
226.326	-4.19
226.543	-1.98
226.76	-6.12
226.978	-1.95
227.195	5.94
227.413	-3.76
227.63	-7.84
227.847	-1.28
228.064	2.17
228.282	2.44
228.499	2.84
228.716	7.14
228.934	4.97
229.151	7.06
229.368	5.49
229.585	5.2
229.802	5.63
230.02	5.62
230.237	5.43
230.454	5.56
230.671	4.58
230.888	5
231.105	1.15
231.323	4.38
231.54	-0.38
231.757	-1.95
231.974	1.44
232.191	3.1
232.408	5.47
232.625	6.12
232.842	6.52
233.059	12.8
233.276	16.8
233.493	15.72
233.71	7.95
233.927	14.14
234.144	14.57
234.361	7.57
234.578	5.99
234.795	4.33
235.012	3.78
235.229	-2.58
235.446	-2.78
235.663	-9.51
235.879	-9.18
236.096	-8.04
236.313	-13.18
236.53	-7.24
236.747	-6.65
236.964	-2.89
237.181	-4.41
237.397	-6.13
237.614	-2.35
237.831	-3.87
238.048	-4.74
238.264	1.23
238.481	0.16
238.698	2.91
238.915	6.63
239.131	4.92
239.348	3.36
239.565	5.04
239.781	7.6
239.998	7.66
240.215	6.81
240.431	6.49
240.648	4.96
240.865	6.27
241.081	4.6
241.298	2.6
241.514	3.76
241.731	4.5
241.947	5.67
242.164	3.67
242.38	3.11
242.597	2.92
242.814	4.18
243.03	4.02
243.246	4.86
243.463	4.68
243.679	3.15
243.896	4.29
244.112	2.85
244.329	2.66
244.545	5.07
244.762	6.67
244.978	8.24
245.194	8.82
245.411	9.65
245.627	9.94
245.843	11.46
246.06	13.7
246.276	12.04
246.492	12.77
246.709	11.87
246.925	11
247.141	10.72
247.357	10.37
247.574	10.51
247.79	10.48
248.006	10.89
248.222	10.29
248.439	8.97
248.655	9.05
248.871	9.62
249.087	9
249.303	8.35
249.519	7.6
249.736	7.75
249.952	6.72
250.168	6.69
250.384	4.84
250.6	5.64
250.816	7
251.032	6.56
251.248	5.58
251.464	6.71
251.68	6.47
251.896	6.8
252.112	6.12
252.328	6.13
252.544	6.18
252.76	7.58
252.976	7.44
253.192	7.81
253.408	8
253.624	9.48
253.84	8.97
254.056	10.3
254.272	9.6
254.487	7.38
254.703	10
254.919	9.48
255.135	9.01
255.351	8.26
255.567	8.03
255.782	5.62
255.998	1.59
256.214	3.32
256.43	2.76
256.646	6.63
256.861	8.47
257.077	5.93
257.293	6.27
257.508	6.89
257.724	7.35
257.94	7.72
258.155	10.29
258.371	10.28
258.587	9.49
258.802	9.13
259.018	8.48
259.234	8.98
259.449	9.16
259.665	9.06
259.88	8.92
260.096	9.34
260.312	8.79
260.527	8.03
260.743	8.17
260.958	8.62
261.174	8.9
261.389	8.15
261.605	8.14
261.82	7.3
262.036	6.69
262.251	6.45
262.466	5.61
262.682	5.56
262.897	6.46
263.113	6.04
263.328	6.28
263.543	6.11
263.759	7.64
263.974	8.43
264.189	9.2
264.405	9.93
264.62	10.42
264.835	10.8
265.051	11.14
265.266	10.28
265.481	9.47
265.696	8.53
265.912	8.68
266.127	8.54
266.342	6.61
266.557	7.37
266.773	8.12
266.988	5.69
267.203	4.96
267.418	5.08
267.633	5.14
267.848	5.47
268.064	5.99
268.279	6.06
268.494	5.99
268.709	6.65
268.924	4.62
269.139	5.28
269.354	6.34
269.569	6.2
269.784	5.89
269.999	5.46
270.214	7.21
270.429	6.46
270.644	5.93
270.859	5.62
271.074	4.49
271.289	6.35
271.504	5.5
271.719	5.67
271.934	5.76
272.149	5.95
272.363	6.26
272.578	6.43
272.793	6.7
273.008	6.77
273.223	7.19
273.438	8.68
273.653	8
273.867	7.71
274.082	8.49
274.297	8.39
274.512	8.86
274.726	9.3
274.941	8.06
275.156	7.63
275.371	7.04
275.585	6.56
275.8	5.01
276.015	5.07
276.229	5.47
276.444	5.17
276.659	4.99
276.873	4.84
277.088	4.75
277.302	5.42
277.517	6.13
277.732	7.17
277.946	6.78
278.161	7.99
278.375	7.48
278.59	7.71
278.804	6.83
279.019	7.3
279.233	6.66
279.448	7.21
279.662	6.9
279.877	6.35
280.091	6.27
280.306	6.21
280.52	6.57
280.735	8.01
280.949	6.75
281.163	6.58
281.378	8
281.592	8.12
281.806	7.68
282.021	7.94
282.235	8.18
282.449	7.56
282.664	8.99
282.878	8.24
283.092	8.27
283.307	9.87
283.521	9.34
283.735	8.23
283.949	9.06
284.164	8.49
284.378	8.28
284.592	6.99
284.806	7.82
285.02	6.68
285.234	7.25
285.449	6.51
285.663	5.88
285.877	6.95
286.091	6.67
286.305	5.65
286.519	6.07
286.733	5.42
286.947	6.48
287.161	5.67
287.375	5.77
287.589	4.34
287.803	4.85
288.017	5.08
288.231	4.93
288.445	5.36
288.659	6.05
288.873	6.25
289.087	6.11
289.301	6.02
289.515	6.28
289.729	5.93
289.943	6.89
290.157	7.09
290.371	7.43
290.584	7.11
290.798	7.41
291.012	7.02
291.226	7.02
291.44	8.26
291.654	8.29
291.867	8.26
292.081	8.79
292.295	8.7
292.509	8.13
292.722	7.36
292.936	8.03
293.15	6.75
293.364	8.49
293.577	8.37
293.791	7.53
294.005	7.95
294.218	8.47
294.432	8.29
294.645	8.23
294.859	8.22
295.073	8.33
295.286	8.16
295.5	9.19
295.713	7.4
295.927	7.77
296.14	7.38
296.354	6.62
296.568	6.95
296.781	7.29
296.994	7.65
297.208	7.02
297.421	7.02
297.635	6.95
297.848	6.41
298.062	7.7
298.275	7.37
298.489	7.29
298.702	7.69
298.915	7.67
299.129	7.81
299.342	7.14
299.555	7.21
299.769	6.89
299.982	6.81
300.195	7.6
300.409	5.97
300.622	4.7
300.835	5.53
301.048	6.02
301.262	5.73
301.475	4.54
301.688	4.08
301.901	4.59
302.115	5.07
302.328	5.22
302.541	4.55
302.754	5.31
302.967	6.73
303.18	6.33
303.393	5.2
303.607	5.62
303.82	5.23
304.033	5.9
304.246	6.9
304.459	7.09
304.672	6.62
304.885	7.22
305.098	6.87
305.311	6.22
305.524	6.75
305.737	7.19
305.95	6.71
306.163	7.96
306.376	8.62
306.589	7.92
306.802	6.81
307.015	6.55
307.228	7.12
307.44	7.51
307.653	8.17
307.866	7.61
308.079	8.29
308.292	9.02
308.505	9.23
308.718	8.85
308.93	8.93
309.143	9.04
309.356	9.87
309.569	8.92
309.781	9.24
309.994	8.62
310.207	8.92
310.42	9.11
310.632	8.71
310.845	8.13
311.058	8.82
311.27	8.81
311.483	8.24
311.696	7.77
311.908	8.12
312.121	7.67
312.333	8.24
312.546	7.65
312.759	7.26
312.971	6.56
313.184	6.94
313.396	6.91
313.609	6.88
313.821	8.34
314.034	8.09
314.246	7.23
314.459	7.25
314.671	7.55
314.884	7.72
315.096	7.7
315.309	7.7
315.521	7.39
315.733	6.63
315.946	7.23
316.158	7.16
316.371	6.59
316.583	6.87
316.795	6.4
317.008	5.74
317.22	5.84
317.432	5.59
317.644	6.58
317.857	4.7
318.069	4.2
318.281	4
318.494	4.12
318.706	4
318.918	4.32
319.13	4.15
319.342	4.01
319.555	4.39
319.767	4
319.979	3.64
320.191	6.1
320.403	6.78
320.615	6.06
320.827	5.22
321.039	5.69
321.252	6.28
321.464	6.53
321.676	6.87
321.888	6.28
322.1	6.46
322.312	5.81
322.524	6.13
322.736	4.79
322.948	5.72
323.16	5.84
323.372	5.61
323.584	5.22
323.796	4.98
324.007	4.97
324.219	5.45
324.431	5.48
324.643	5.64
324.855	5.95
325.067	7.25
325.279	6.27
325.491	6.46
325.702	6.75
325.914	6.65
326.126	7.34
326.338	7.27
326.55	6.82
326.761	6.92
326.973	6.98
327.185	6.73
327.396	6.39
327.608	6.59
327.82	6.92
328.032	7.48
328.243	7.62
328.455	7.21
328.666	7.41
328.878	7.59
329.09	7.93
329.301	9
329.513	9.02
329.725	9.3
329.936	8.73
330.148	9.07
330.359	8.98
330.571	9.37
330.782	9.44
330.994	9.09
331.205	9.83
331.417	9.97
331.628	9.93
331.84	9.31
332.051	8.83
332.262	9.77
332.474	10.18
332.685	9.96
332.897	10.17
333.108	10.04
333.319	10.68
333.531	9.72
333.742	9.1
333.953	8.6
334.165	9.58
334.376	9.51
334.587	9.23
334.799	7.7
335.01	7.79
335.221	7.08
335.432	7.71
335.644	7.22
335.855	6.98
336.066	7.3
336.277	6.83
336.488	5.47
336.7	5.74
336.911	5.98
337.122	6.93
337.333	7.24
337.544	7.03
337.755	7.15
337.966	6.71
338.177	7.12
338.388	7.58
338.599	7.74
338.811	8.64
339.022	8.64
339.233	8.35
339.444	8.92
339.655	9.12
339.866	10.06
340.076	9.47
340.287	10.22
340.498	10.43
340.709	10.44
340.92	10.82
341.131	10.18
341.342	10.8
341.553	11.25
341.764	10.06
341.975	9.64
342.185	9.61
342.396	9.39
342.607	9.08
342.818	8.61
343.029	8.56
343.239	8.71
343.45	9.11
343.661	8.81
343.872	8.06
344.082	8.71
344.293	8.81
344.504	8.59
344.714	9.46
344.925	9.86
345.136	10.41
345.346	10.38
345.557	10.22
345.768	10.09
345.978	9.71
346.189	9.47
346.399	9.06
346.61	8.61
346.821	9.04
347.031	8.49
347.242	8.82
347.452	9.22
347.663	8.91
347.873	9.21
348.084	9.41
348.294	9.85
348.504	11.13
348.715	11.32
348.925	12.38
349.136	11.44
349.346	11.5
349.557	11.46
349.767	11.28
349.977	12.12
350.188	11.87
350.398	11.56
350.608	11.68
350.819	10.54
351.029	10.43
351.239	10.17
351.449	10.04
351.66	10.09
351.87	9.34
352.08	9.15
352.29	8.85
352.501	8.43
352.711	8.94
352.921	8.52
353.131	8.83
353.341	8.33
353.552	8.43
353.762	8.37
353.972	8.79
354.182	9.34
354.392	9.05
354.602	8.61
354.812	8.89
355.022	8.64
355.232	8.68
355.442	9.34
355.652	9.25
355.862	8.95
356.072	9.52
356.282	9.51
356.492	9.37
356.702	9.72
356.912	10.17
357.122	10.44
357.332	10.43
357.542	10.17
357.752	9.65
357.962	9.87
358.171	9.8
358.381	10.02
358.591	9.27
358.801	9.18
359.011	9.17
359.221	8.53
359.43	8.1
359.64	8.03
359.85	8.18
360.06	8.99
360.269	9.23
360.479	9.25
360.689	8.62
360.899	9.2
361.108	9.01
361.318	8.83
361.528	9.11
361.737	9.25
361.947	9.06
362.156	9.02
362.366	8.63
362.576	8.67
362.785	8.5
362.995	8.72
363.204	8.5
363.414	8.41
363.623	8.55
363.833	8.1
364.042	7.68
364.252	7.9
364.461	7.8
364.671	7.47
364.88	7.45
365.09	7.53
365.299	7.83
365.509	7.9
365.718	8.52
365.927	8.72
366.137	9.28
366.346	10.13
366.555	10.17
366.765	10.1
366.974	10.09
367.183	9.68
367.393	9.59
367.602	9.87
367.811	10.26
368.021	9.75
368.23	8.97
368.439	8.23
368.648	7.57
368.857	7.83
369.067	7.83
369.276	8.61
369.485	8.54
369.694	8.57
369.903	7.66
370.112	7
370.321	7.05
370.531	7.63
370.74	7.77
370.949	7.84
371.158	7.41
371.367	7.61
371.576	6.81
371.785	7.33
371.994	7.3
372.203	7.48
372.412	7.68
372.621	7.49
372.83	7.35
373.039	7.83
373.248	8.39
373.457	8.78
373.666	8.68
373.874	8.9
374.083	8.66
374.292	9.04
374.501	9.22
374.71	9.1
374.919	9.16
375.128	9.36
375.336	9.16
375.545	8.55
375.754	8
375.963	8.31
376.171	8.38
376.38	8.59
376.589	7.62
376.798	7.27
377.006	7.28
377.215	7.58
377.424	6.9
377.632	6.74
377.841	6.68
378.05	6.86
378.258	6.57
378.467	6.47
378.675	6.29
378.884	7.05
379.093	7.45
379.301	7.41
379.51	7.11
379.718	7.28
379.927	7.33
380.135	7.58
380.344	7.44
380.552	7.35
380.761	7.41
380.969	7.42
381.177	7.21
381.386	7.02
381.594	6.98
381.803	7.05
382.011	7.11
382.219	7.55
382.428	7.24
382.636	7.45
382.845	7.6
383.053	6.93
383.261	6.9
383.469	7.27
383.678	7.31
383.886	7.38
384.094	7.4
384.302	7.43
384.511	6.99
384.719	6.85
384.927	6.81
385.135	6.87
385.343	7.29
385.552	7.51
385.76	6.95
385.968	6.7
386.176	6.59
386.384	6.62
386.592	6.96
386.8	6.93
387.008	7.07
387.216	6.95
387.424	6.72
387.633	6.78
387.841	6.43
388.049	6.67
388.257	6.84
388.465	7
388.672	6.82
388.88	6.31
389.088	6.33
389.296	6.25
389.504	6.35
389.712	6.45
389.92	6.37
390.128	6.47
390.336	6.4
390.544	6.25
390.751	6.22
390.959	6.19
391.167	6.48
391.375	6.32
391.583	6.17
391.79	5.86
391.998	5.94
392.206	5.94
392.414	6.12
392.621	6.13
392.829	6.02
393.037	6.06
393.244	6.19
393.452	6.07
393.66	6.12
393.867	6.22
394.075	6.55
394.283	6.29
394.49	6.22
394.698	6.23
394.905	6.2
395.113	6.53
395.32	6.5
395.528	6.38
395.735	6.52
395.943	6.49
396.15	6.44
396.358	6.42
396.565	6.71
396.773	6.78
396.98	6.58
397.188	6.62
397.395	6.44
397.602	6.21
397.81	6.07
398.017	5.94
398.225	5.95
398.432	6.02
398.639	5.68
398.847	5.67
399.054	5.6
399.261	5.45
399.468	5.46
399.676	5.39
399.883	5.35
400.09	5.64
400.297	5.77
400.505	5.9
400.712	6.17
400.919	6.54
401.126	6.51
401.333	6.55
401.54	6.81
401.748	6.89
401.955	7.14
402.162	7.55
402.369	7.56
402.576	7.69
402.783	7.64
402.99	7.33
403.197	7.24
403.404	7.07
403.611	7.24
403.818	7.12
404.025	7.16
404.232	6.64
404.439	6.64
404.646	6.63
404.853	6.36
405.06	6.24
405.267	6.59
405.474	6.53
405.681	6.66
405.887	6.8
406.094	6.87
406.301	6.8
406.508	7.23
406.715	7.02
406.922	6.56
407.128	6.6
407.335	6.82
407.542	6.62
407.749	6.63
407.955	6.67
408.162	6.61
408.369	6.46
408.575	6.58
408.782	6.58
408.989	6.44
409.195	6.77
409.402	6.86
409.609	6.64
409.815	6.7
410.022	6.65
410.228	6.54
410.435	6.49
410.642	6.51
410.848	6.41
411.055	6.22
411.261	6.5
411.468	6.47
411.674	6.44
411.881	6.83
412.087	6.58
412.294	6.49
412.5	6.36
412.706	6.01
412.913	6.24
413.119	6.15
413.326	6.19
413.532	6.02
413.738	5.96
413.945	6.03
414.151	6.03
414.357	6.31
414.564	6.42
414.77	6.49
414.976	6.6
415.182	6.36
415.389	6.38
415.595	6.16
415.801	6.14
416.007	6.2
416.214	6.2
416.42	5.86
416.626	5.76
416.832	5.94
417.038	5.87
417.244	5.78
417.45	5.8
417.657	5.83
417.863	6.17
418.069	6.26
418.275	6.41
418.481	6.46
418.687	6.48
418.893	6.56
419.099	6.56
419.305	6.72
419.511	6.85
419.717	6.82
419.923	6.75
420.129	6.43
420.335	6.3
420.541	6.21
420.746	6.12
420.952	6.2
421.158	6.18
421.364	6.13
421.57	6.04
421.776	6.09
421.982	6.14
422.187	6.15
422.393	6.2
422.599	6.25
422.805	6.21
423.01	6.11
423.216	5.92
423.422	5.79
423.628	5.87
423.833	5.85
424.039	5.78
424.245	5.76
424.45	5.93
424.656	6.12
424.862	6.07
425.067	6.01
425.273	6.12
425.478	6.37
425.684	6.53
425.889	6.43
426.095	6.47
426.301	6.51
426.506	6.66
426.712	6.56
426.917	6.59
427.123	6.77
427.328	6.8
427.533	6.8
427.739	6.72
427.944	6.71
428.15	6.64
428.355	6.56
428.561	6.48
428.766	6.37
428.971	6.28
429.177	6.22
429.382	6.11
429.587	6.28
429.793	6.36
429.998	6.25
430.203	6.11
430.408	6.38
430.614	6.59
430.819	6.73
431.024	6.6
431.229	6.75
431.434	6.66
431.64	6.64
431.845	6.81
432.05	6.7
432.255	6.74
432.46	6.85
432.665	6.68
432.87	6.62
433.076	6.58
433.281	6.53
433.486	6.41
433.691	6.57
433.896	6.57
434.101	6.35
434.306	6.4
434.511	6.39
434.716	6.37
434.921	6.39
435.126	6.46
435.331	6.38
435.535	6.51
435.74	6.54
435.945	6.39
436.15	6.44
436.355	6.7
436.56	6.74
436.765	6.77
436.97	6.77
437.174	6.74
437.379	6.58
437.584	6.5
437.789	6.6
437.993	6.58
438.198	6.62
438.403	6.44
438.608	6.43
438.812	6.36
439.017	6.4
439.222	6.39
439.426	6.39
439.631	6.43
439.836	6.57
440.04	6.48
440.245	6.5
440.45	6.49
440.654	6.65
440.859	6.57
441.063	6.63
441.268	6.61
441.472	6.63
441.677	6.53
441.881	6.6
442.086	6.42
442.29	6.37
442.495	6.41
442.699	6.55
442.904	6.6
443.108	6.65
443.312	6.55
443.517	6.44
443.721	6.44
443.925	6.78
444.13	6.66
444.334	6.84
444.538	6.93
444.743	6.82
444.947	6.68
445.151	6.57
445.356	6.57
445.56	6.66
445.764	6.77
445.968	6.8
446.173	6.75
446.377	6.78
446.581	6.68
446.785	6.59
446.989	6.68
447.193	6.65
447.398	6.59
447.602	6.48
447.806	6.37
448.01	6.26
448.214	6.17
448.418	6.03
448.622	5.97
448.826	6.11
449.03	6.16
449.234	6.05
449.438	6.1
449.642	6.16
449.846	6.27
450.05	6.41
450.254	6.66
450.458	6.76
450.662	6.7
450.866	6.6
451.069	6.61
451.273	6.59
451.477	6.58
451.681	6.57
451.885	6.54
452.089	6.62
452.292	6.54
452.496	6.36
452.7	6.25
452.904	6.33
453.107	6.41
453.311	6.53
453.515	6.41
453.719	6.46
453.922	6.5
454.126	6.5
454.33	6.41
454.533	6.33
454.737	6.35
454.94	6.38
455.144	6.39
455.348	6.46
455.551	6.24
455.755	6.27
455.958	6.23
456.162	6.31
456.365	6.28
456.569	6.29
456.772	6.46
456.976	6.49
457.179	6.61
457.383	6.54
457.586	6.46
457.79	6.4
457.993	6.43
458.196	6.51
458.4	6.38
458.603	6.52
458.807	6.55
459.01	6.47
459.213	6.5
459.417	6.48
459.62	6.56
459.823	6.62
460.026	6.64
460.23	6.69
460.433	6.72
460.636	6.7
460.839	6.52
461.042	6.49
461.246	6.45
461.449	6.29
461.652	6.24
461.855	6.15
462.058	6.01
462.261	6.06
462.464	6.04
462.668	5.93
462.871	6.13
463.074	6.24
463.277	6
463.48	6.21
463.683	6.37
463.886	6.41
464.089	6.3
464.292	6.34
464.495	6.36
464.698	6.24
464.901	6.24
465.104	6.11
465.306	6.37
465.509	6.57
465.712	6.41
465.915	6.3
466.118	6.22
466.321	6.34
466.524	6.31
466.726	6.23
466.929	6.33
467.132	6.33
467.335	6.26
467.538	6.05
467.74	5.98
467.943	5.88
468.146	5.92
468.348	5.95
468.551	5.92
468.754	6.04
468.956	6.1
469.159	6.11
469.362	6.02
469.564	6.1
469.767	6.29
469.969	6.29
470.172	6.51
470.375	6.59
470.577	6.73
470.78	6.75
470.982	6.83
471.185	6.88
471.387	6.75
471.59	7.01
471.792	6.97
471.995	6.8
472.197	6.84
472.399	6.85
472.602	6.82
472.804	6.59
473.007	6.66
473.209	6.5
473.411	6.33
473.614	6.55
473.816	6.49
474.018	6.48
474.22	6.63
474.423	6.62
474.625	6.48
474.827	6.49
475.03	6.43
475.232	6.32
475.434	6.58
475.636	6.69
475.838	6.66
476.04	6.58
476.243	6.57
476.445	6.38
476.647	6.34
476.849	6.51
477.051	6.5
477.253	6.59
477.455	6.68
477.657	6.49
477.859	6.5
478.061	6.43
478.263	6.48
478.465	6.38
478.667	6.41
478.869	6.59
479.071	6.39
479.273	6.36
479.475	6.29
479.677	6.32
479.879	6.33
480.081	6.28
480.283	6.36
480.485	6.19
480.686	6.36
480.888	6.38
481.09	6.23
481.292	6.34
481.494	6.5
481.695	6.64
481.897	6.67
482.099	6.68
482.301	6.74
482.502	6.69
482.704	6.77
482.906	6.73
483.107	6.73
483.309	6.76
483.511	6.74
483.712	6.67
483.914	6.71
484.115	6.66
484.317	6.67
484.519	6.62
484.72	6.62
484.922	6.58
485.123	6.6
485.325	6.6
485.526	6.57
485.728	6.61
485.929	6.65
486.131	6.54
486.332	6.57
486.534	6.55
486.735	6.58
486.936	6.61
487.138	6.64
487.339	6.6
487.541	6.63
487.742	6.65
487.943	6.61
488.144	6.63
488.346	6.69
488.547	6.66
488.748	6.68
488.95	6.67
489.151	6.64
489.352	6.61
489.553	6.7
489.755	6.61
489.956	6.67
490.157	6.7
490.358	6.69
490.559	6.68
490.76	6.69
490.961	6.75
491.163	6.74
491.364	6.72
491.565	6.82
491.766	6.72
491.967	6.77
492.168	6.73
492.369	6.78
492.57	6.74
492.771	6.69
492.972	6.67
493.173	6.62
493.374	6.76
493.575	6.78
493.776	6.7
493.976	6.64
494.177	6.52
494.378	6.55
494.579	6.42
494.78	6.34
494.981	6.32
495.182	6.32
495.382	6.28
495.583	6.17
495.784	6.11
495.985	6.22
496.185	6.31
496.386	6.55
496.587	6.53
496.788	6.56
496.988	6.71
497.189	6.69
497.39	6.85
497.59	6.92
497.791	6.83
497.992	6.87
498.192	6.92
498.393	7.1
498.593	7.13
498.794	7.18
498.994	7.18
499.195	7.15
499.395	7.18
499.596	7.12
499.796	7.04
499.997	7.1
500.197	7.07
500.398	7.01
500.598	6.82
500.799	6.67
500.999	6.45
501.199	6.48
501.4	6.42
501.6	6.61
501.801	6.54
502.001	6.58
502.201	6.57
502.402	6.65
502.602	6.68
502.802	6.68
503.002	6.84
503.203	6.97
503.403	6.75
503.603	6.74
503.803	6.67
504.003	6.81
504.204	6.82
504.404	6.87
504.604	6.88
504.804	6.88
505.004	6.93
505.204	6.97
505.404	7.11
505.604	7.36
505.804	7.48
506.005	7.49
506.205	7.43
506.405	7.45
506.605	7.58
506.805	7.56
507.005	7.65
507.204	7.67
507.404	7.47
507.604	7.38
507.804	7.38
508.004	7.37
508.204	7.37
508.404	7.44
508.604	7.41
508.804	7.28
509.003	7.42
509.203	7.25
509.403	7.15
509.603	7.24
509.803	7.29
510.002	7.16
510.202	7.03
510.402	7.02
510.602	6.99
510.801	7
511.001	6.98
511.201	6.8
511.4	6.79
511.6	6.99
511.8	6.93
511.999	6.9
512.199	7.04
512.398	7.01
512.598	7.1
512.797	7.14
512.997	7.1
513.197	7.23
513.396	7.31
513.596	7.36
513.795	7.24
513.994	7.32
514.194	7.43
514.393	7.33
514.593	7.52
514.792	7.5
514.992	7.39
515.191	7.5
515.39	7.4
515.59	7.52
515.789	7.62
515.988	7.69
516.188	7.77
516.387	7.68
516.586	7.79
516.786	7.74
516.985	7.82
517.184	7.87
517.383	7.88
517.582	7.91
517.782	7.87
517.981	7.9
518.18	7.89
518.379	7.85
518.578	7.81
518.777	7.76
518.976	7.73
519.176	7.77
519.375	7.81
519.574	7.73
519.773	7.85
519.972	7.95
520.171	7.89
520.37	7.91
520.569	8.02
520.768	8.15
520.967	8.26
521.166	8.45
521.365	8.48
521.564	8.32
521.762	8.36
521.961	8.26
522.16	8.13
522.359	8.2
522.558	8.36
522.757	8.18
522.956	8.18
523.154	8.11
523.353	8.16
523.552	8.17
523.751	8.38
523.949	8.5
524.148	8.51
524.347	8.49
524.546	8.43
524.744	8.35
524.943	8.52
525.142	8.45
525.34	8.57
525.539	8.5
525.737	8.49
525.936	8.56
526.135	8.58
526.333	8.6
526.532	8.62
526.73	8.74
526.929	8.71
527.127	8.65
527.326	8.67
527.524	8.68
527.723	8.72
527.921	8.73
528.12	8.69
528.318	8.72
528.516	8.77
528.715	8.86
528.913	8.86
529.112	8.91
529.31	8.94
529.508	8.97
529.707	8.97
529.905	8.98
530.103	9.03
530.301	9.02
530.5	9.01
530.698	9.01
530.896	8.95
531.094	8.95
531.293	8.99
531.491	9.09
531.689	9.18
531.887	9.17
532.085	9.18
532.283	9.16
532.481	9.17
532.68	9.25
532.878	9.34
533.076	9.42
533.274	9.45
533.472	9.41
533.67	9.38
533.868	9.35
534.066	9.4
534.264	9.43
534.462	9.54
534.66	9.72
534.858	9.63
535.056	9.58
535.253	9.56
535.451	9.55
535.649	9.63
535.847	9.75
536.045	9.82
536.243	9.84
536.441	10.03
536.638	9.97
536.836	9.88
537.034	10.02
537.232	10.11
537.43	10.14
537.627	10.2
537.825	10.19
538.023	10.09
538.22	10.13
538.418	10.11
538.616	9.98
538.813	10.02
539.011	10.07
539.209	10.23
539.406	10.25
539.604	10.3
539.801	10.43
539.999	10.5
540.196	10.57
540.394	10.58
540.591	10.69
540.789	10.72
540.986	10.67
541.184	10.68
541.381	10.66
541.579	10.68
541.776	10.73
541.974	10.7
542.171	10.68
542.368	10.7
542.566	10.79
542.763	10.79
542.96	10.77
543.158	10.9
543.355	10.94
543.552	10.93
543.75	10.92
543.947	11.05
544.144	11.08
544.341	11.23
544.539	11.28
544.736	11.27
544.933	11.29
545.13	11.4
545.327	11.38
545.524	11.53
545.722	11.58
545.919	11.75
546.116	11.7
546.313	11.87
546.51	11.87
546.707	11.93
546.904	11.95
547.101	12.07
547.298	12.15
547.495	12.13
547.692	12.17
547.889	12.21
548.086	12.25
548.283	12.33
548.48	12.35
548.677	12.37
548.874	12.52
549.07	12.76
549.267	12.81
549.464	12.97
549.661	13.29
549.858	13.43
550.055	13.44
550.251	13.57
550.448	13.68
550.645	13.85
550.842	14.04
551.038	13.95
551.235	13.99
551.432	14.03
551.628	13.97
551.825	14.05
552.022	13.88
552.218	14.01
552.415	14.01
552.612	13.95
552.808	13.91
553.005	13.96
553.201	14.01
553.398	13.93
553.594	13.92
553.791	14.05
553.987	14.14
554.184	14.21
554.38	14.27
554.577	14.32
554.773	14.47
554.97	14.52
555.166	14.68
555.362	14.74
555.559	14.86
555.755	14.95
555.952	14.98
556.148	15.01
556.344	15.25
556.541	15.27
556.737	15.2
556.933	15.3
557.129	15.21
557.326	15.1
557.522	15.16
557.718	15.23
557.914	15.5
558.11	15.41
558.307	15.41
558.503	15.42
558.699	15.64
558.895	15.74
559.091	15.81
559.287	16.07
559.483	16.2
559.679	16.32
559.876	16.45
560.072	16.49
560.268	16.67
560.464	16.66
560.66	16.92
560.856	17.1
561.052	17.12
561.247	17.26
561.443	17.32
561.639	17.43
561.835	17.62
562.031	17.7
562.227	17.71
562.423	17.92
562.619	18.14
562.815	18.09
563.01	18.1
563.206	18.45
563.402	18.52
563.598	18.67
563.793	18.83
563.989	19
564.185	19.11
564.381	19.19
564.576	19.33
564.772	19.47
564.968	19.6
565.163	19.74
565.359	19.71
565.555	19.9
565.75	20.07
565.946	20.13
566.141	20.11
566.337	20.2
566.532	20.31
566.728	20.39
566.923	20.28
567.119	20.38
567.314	20.44
567.51	20.56
567.705	20.58
567.901	20.44
568.096	20.57
568.292	20.66
568.487	20.59
568.682	20.63
568.878	20.65
569.073	20.95
569.268	21.01
569.464	21.04
569.659	21.09
569.854	21.11
570.05	21.37
570.245	21.32
570.44	21.44
570.635	21.8
570.831	22.02
571.026	22.25
571.221	22.22
571.416	22.33
571.611	22.62
571.806	22.84
572.002	22.95
572.197	22.9
572.392	23.26
572.587	23.44
572.782	23.34
572.977	23.4
573.172	23.52
573.367	23.62
573.562	23.87
573.757	23.9
573.952	23.94
574.147	23.95
574.342	24.27
574.537	24.22
574.732	24.26
574.927	24.36
575.121	24.47
575.316	24.58
575.511	24.75
575.706	24.71
575.901	24.73
576.096	24.9
576.29	25.07
576.485	25.14
576.68	25.03
576.875	25.16
577.069	25.29
577.264	25.35
577.459	25.38
577.654	25.49
577.848	25.44
578.043	25.63
578.238	25.82
578.432	25.61
578.627	25.57
578.821	25.84
579.016	25.81
579.21	25.83
579.405	25.81
579.6	25.77
579.794	25.94
579.989	26.12
580.183	25.91
580.378	25.75
580.572	26.25
580.766	26.41
580.961	26.11
581.155	26.16
581.35	26.29
581.544	26.57
581.738	26.58
581.933	26.45
582.127	26.53
582.321	26.93
582.516	27.09
582.71	27.13
582.904	27.25
583.099	27.64
583.293	27.93
583.487	27.92
583.681	27.97
583.875	28.25
584.07	28.33
584.264	28.26
584.458	28
584.652	27.94
584.846	27.99
585.04	27.97
585.234	28.12
585.428	27.96
585.623	28.11
585.817	27.94
586.011	27.91
586.205	28.13
586.399	28.49
586.593	28.68
586.787	28.68
586.981	28.61
587.174	28.59
587.368	28.65
587.562	28.67
587.756	28.85
587.95	29.04
588.144	28.9
588.338	28.91
588.532	28.87
588.725	29.09
588.919	29.31
589.113	29.56
589.307	29.56
589.501	29.72
589.694	29.9
589.888	30.06
590.082	30.25
590.275	30.42
590.469	30.37
590.663	30.38
590.856	30.09
591.05	29.99
591.244	30.03
591.437	30.32
591.631	30.25
591.824	30.31
592.018	30
592.212	29.91
592.405	29.95
592.599	30.02
592.792	30.16
592.986	30.46
593.179	30.69
593.372	30.84
593.566	31.01
593.759	31.1
593.953	30.97
594.146	31.1
594.339	31.23
594.533	31.38
594.726	31.41
594.92	31.56
595.113	31.55
595.306	31.7
595.499	31.68
595.693	31.66
595.886	31.88
596.079	32.05
596.272	32.17
596.466	32.38
596.659	32.34
596.852	32.53
597.045	32.48
597.238	32.45
597.431	32.34
597.624	32.33
597.818	32.51
598.011	32.39
598.204	32.37
598.397	32.54
598.59	32.2
598.783	32.19
598.976	32.09
599.169	31.98
599.362	31.92
599.555	31.78
599.748	31.96
599.941	31.57
600.134	31.7
600.326	31.83
600.519	31.41
600.712	31.61
600.905	31.96
601.098	32.08
601.291	32.33
601.483	32.66
601.676	32.99
601.869	32.87
602.062	32.88
602.255	32.95
602.447	33.06
602.64	33.42
602.833	33.58
603.025	33.5
603.218	33.38
603.411	33.15
603.603	33.21
603.796	33.34
603.989	33.36
604.181	33.53
604.374	33.65
604.566	33.77
604.759	33.66
604.951	33.68
605.144	33.67
605.336	33.81
605.529	33.84
605.721	33.78
605.914	33.63
606.106	33.66
606.299	33.71
606.491	33.61
606.683	33.52
606.876	33.69
607.068	33.67
607.26	33.84
607.453	33.89
607.645	34.25
607.837	34.26
608.03	34.33
608.222	34.65
608.414	34.56
608.606	34.54
608.799	34.73
608.991	34.85
609.183	34.95
609.375	34.96
609.567	35.01
609.759	34.89
609.952	35.14
610.144	35.09
610.336	34.9
610.528	34.99
610.72	35.13
610.912	35.04
611.104	35.01
611.296	35.02
611.488	34.96
611.68	34.99
611.872	35.29
612.064	35.05
612.256	35.04
612.448	35.01
612.64	35.15
612.832	34.99
613.023	34.95
613.215	34.83
613.407	34.63
613.599	34.72
613.791	34.49
613.983	34.39
614.174	34.41
614.366	34.63
614.558	34.62
614.75	34.48
614.941	34.79
615.133	34.84
615.325	35.1
615.516	35.51
615.708	35.58
615.9	35.59
616.091	35.55
616.283	35.79
616.475	35.94
616.666	36.37
616.858	36.45
617.049	36.27
617.241	36.26
617.432	36.16
617.624	36.07
617.815	36.2
618.007	36.2
618.198	36.17
618.39	36.23
618.581	36.26
618.773	36.12
618.964	36.11
619.155	36.36
619.347	36.31
619.538	36.4
619.729	36.28
619.921	36.23
620.112	36.6
620.303	36.83
620.494	36.68
620.686	36.53
620.877	36.45
621.068	36.55
621.259	36.63
621.451	37.14
621.642	37.22
621.833	37.54
622.024	37.44
622.215	37.32
622.406	37.31
622.597	37.25
622.788	37.37
622.98	37.21
623.171	37.3
623.362	36.87
623.553	36.78
623.744	36.83
623.935	36.83
624.126	37.12
624.317	37.33
624.508	37.3
624.698	37.39
624.889	37.25
625.08	37.44
625.271	37.39
625.462	37.77
625.653	37.68
625.844	37.72
626.034	37.43
626.225	37.37
626.416	37.22
626.607	37.55
626.798	37.68
626.988	37.78
627.179	37.73
627.37	37.68
627.56	37.63
627.751	37.56
627.942	37.51
628.132	37.83
628.323	37.7
628.514	37.74
628.704	37.73
628.895	37.63
629.085	37.63
629.276	37.74
629.466	37.87
629.657	37.74
629.847	37.84
630.038	38.04
630.228	38.16
630.419	38.37
630.609	38.82
630.8	38.69
630.99	39.07
631.181	39.13
631.371	39.15
631.561	39.21
631.752	39.2
631.942	39.28
632.132	39.04
632.323	38.95
632.513	38.86
632.703	38.34
632.893	38.14
633.084	37.94
633.274	38.11
633.464	38.28
633.654	38.29
633.844	38.51
634.034	38.21
634.225	38.34
634.415	38.16
634.605	38.08
634.795	38.29
634.985	38.14
635.175	38.09
635.365	37.91
635.555	37.81
635.745	37.8
635.935	37.93
636.125	38.18
636.315	38.19
636.505	38.32
636.695	38.21
636.885	37.98
637.075	38.09
637.265	38.34
637.455	38.47
637.644	38.64
637.834	38.72
638.024	38.33
638.214	38.23
638.404	38.35
638.593	38.59
638.783	38.9
638.973	39.11
639.163	39.36
639.352	39.21
639.542	39.05
639.732	38.87
639.921	39.02
640.111	39.36
640.301	39.65
640.49	39.4
640.68	39.09
640.87	39.12
641.059	39.13
641.249	39.21
641.438	39.14
641.628	39.08
641.817	39.29
642.007	39.05
642.196	38.89
642.386	38.79
642.575	39.02
642.764	39.33
642.954	39.45
643.143	39.87
643.333	39.97
643.522	40.05
643.711	40.4
643.901	40.54
644.09	40.63
644.279	41.07
644.469	41
644.658	41.03
644.847	40.83
645.036	40.83
645.226	40.67
645.415	40.12
645.604	40.07
645.793	39.84
645.982	39.41
646.171	39.39
646.361	39.23
646.55	39.08
646.739	39.18
646.928	39.46
647.117	39.52
647.306	39.19
647.495	39.78
647.684	39.79
647.873	39.92
648.062	40.24
648.251	40.04
648.44	40.28
648.629	40.62
648.818	40.71
649.007	40.7
649.196	40.57
649.384	40.89
649.573	40.45
649.762	40.61
649.951	41.25
650.14	41.18
650.328	41.37
650.517	41.14
650.706	41.17
650.895	41.1
651.083	41.03
651.272	40.56
651.461	40.57
651.65	40.78
651.838	41.16
652.027	40.71
652.216	40.51
652.404	40.82
652.593	41.02
652.781	40.97
652.97	40.78
653.158	40.63
653.347	41.4
653.535	41.19
653.724	41.2
653.912	40.92
654.101	40.98
654.289	41.03
654.478	40.92
654.666	40.66
654.855	40.62
655.043	40.72
655.231	40.7
655.42	40.48
655.608	40.98
655.796	40.99
655.985	41.2
656.173	41.32
656.361	41.97
656.55	41.86
656.738	42.05
656.926	42.1
657.114	42.28
657.302	42.18
657.491	42.32
657.679	42
657.867	42.01
658.055	41.94
658.243	42.06
658.431	41.9
658.619	42.09
658.807	41.77
658.996	42.01
659.184	42.02
659.372	42.34
659.56	42.23
659.748	42.54
659.936	42.69
660.124	42.73
660.311	42.77
660.499	42.49
660.687	42.43
660.875	42.86
661.063	42.72
661.251	42.65
661.439	42.35
661.627	42.58
661.814	42.25
662.002	41.85
662.19	41.95
662.378	41.56
662.565	41.81
662.753	41.69
662.941	41.42
663.129	41.13
663.316	41.11
663.504	41.26
663.692	40.84
663.879	40.94
664.067	41.52
664.254	41.45
664.442	41.65
664.63	41.53
664.817	41.56
665.005	41.6
665.192	41.97
665.38	42.18
665.567	42.58
665.755	42.71
665.942	42.61
666.13	42.7
666.317	42.83
666.504	42.68
666.692	42.82
666.879	42.94
667.067	43.05
667.254	42.98
667.441	42.91
667.629	42.58
667.816	42.54
668.003	42.85
668.19	43.08
668.378	42.67
668.565	43.19
668.752	43.46
668.939	43.49
669.127	43.33
669.314	43.58
669.501	43.41
669.688	43.64
669.875	43.94
670.062	44.32
670.249	43.74
670.436	44.04
670.623	43.94
670.81	43.97
670.997	44.24
671.184	44.46
671.371	44.6
671.558	44.83
671.745	44.91
671.932	44.55
672.119	43.55
672.306	44.01
672.493	43.8
672.68	43.41
672.867	43.3
673.054	42.94
673.24	43.12
673.427	43.13
673.614	43.22
673.801	43.21
673.988	43.46
674.174	43.98
674.361	43.91
674.548	44.01
674.734	44.37
674.921	44.54
675.108	44.65
675.294	44.58
675.481	44.41
675.668	44.09
675.854	43.94
676.041	44.14
676.227	44.17
676.414	44.04
676.601	44.17
676.787	43.87
676.974	43.68
677.16	43.72
677.347	43.78
677.533	43.81
677.719	44.19
677.906	44.16
678.092	43.85
678.279	44.28
678.465	44.06
678.651	43.84
678.838	43.51
679.024	43.54
679.21	43.66
679.397	43.83
679.583	44.13
679.769	44.05
679.955	44.37
680.142	44.56
680.328	44.7
680.514	44.74
680.7	44.55
680.886	44.86
681.073	44.76
681.259	44.89
681.445	44.52
681.631	44.01
681.817	44.36
682.003	43.97
682.189	44.19
682.375	43.68
682.561	43.96
682.747	44.29
682.933	44.13
683.119	44.27
683.305	44.11
683.491	44.22
683.677	44.65
683.863	44.22
684.049	44.82
684.235	44.8
684.42	45
684.606	45.14
684.792	45.49
684.978	46.28
685.164	46.06
685.349	46.05
685.535	45.79
685.721	45.6
685.907	45.79
686.092	45.69
686.278	45.34
686.464	45.18
686.649	44.9
686.835	44.49
687.021	44.15
687.206	44.46
687.392	44.67
687.577	45.15
687.763	44.93
687.948	44.8
688.134	44.68
688.319	44.82
688.505	44.81
688.69	45.22
688.876	45.71
689.061	45.27
689.247	45.4
689.432	45.21
689.618	45.01
689.803	45.59
689.988	45.44
690.174	45.16
690.359	45.43
690.544	45.85
690.73	45.51
690.915	44.99
691.1	44.9
691.285	44.97
691.471	45.43
691.656	45.5
691.841	45.01
692.026	45.19
692.211	45.45
692.396	44.97
692.582	44.27
692.767	44.45
692.952	44.72
693.137	45.34
693.322	45.16
693.507	45.15
693.692	45.02
693.877	44.89
694.062	44.64
694.247	44.4
694.432	44.69
694.617	45.19
694.802	45.03
694.987	45.31
695.172	45.37
695.357	45.42
695.541	45.24
695.726	45.32
695.911	45.67
696.096	46.1
696.281	46.23
696.466	46.27
696.65	46.28
696.835	46.65
697.02	46.24
697.204	46.19
697.389	46.38
697.574	46.11
697.759	45.92
697.943	45.91
698.128	45.68
698.312	45.88
698.497	45.86
698.682	45.91
698.866	45.92
699.051	46.56
699.235	46.71
699.42	46.72
699.604	46.84
699.789	46.98
699.973	47.16
700.158	47.59
700.342	47.09
700.527	47.22
700.711	47.03
700.895	46.78
701.08	45.92
701.264	45.7
701.448	45.56
701.633	45.2
701.817	45.23
702.001	45.03
702.186	44.67
702.37	45.39
702.554	45.55
702.738	45.5
702.923	45.86
703.107	45.99
703.291	46.1
703.475	45.99
703.659	46.63
703.843	46.96
704.027	47.35
704.212	47.19
704.396	47.45
704.58	46.82
704.764	46.97
704.948	46.11
705.132	46.63
705.316	46.31
705.5	46.39
705.684	46.25
705.868	45.95
706.052	46.03
706.235	46.03
706.419	45.19
706.603	45.8
706.787	45.51
706.971	46.08
707.155	46.35
707.339	46.58
707.522	46.74
707.706	46.42
707.89	46.39
708.074	46.02
708.257	46.38
708.441	47.07
708.625	46.44
708.808	46.41
708.992	46.13
709.176	45.68
709.359	45.95
709.543	45.69
709.727	45.91
709.91	46.11
710.094	45.91
710.277	45.46
710.461	44.98
710.644	44.95
710.828	45.39
711.011	45.75
711.195	45.62
711.378	45.86
711.562	46.07
711.745	45.63
711.928	45.18
712.112	45.45
712.295	45.88
712.478	45.3
712.662	45.78
712.845	45.61
713.028	45.41
713.212	45.53
713.395	45.37
713.578	45.01
713.761	45.53
713.945	46.04
714.128	46.11
714.311	46.31
714.494	47.49
714.677	47.44
714.86	47.98
715.043	48.57
715.227	48.57
715.41	48.11
715.593	48.76
715.776	48.68
715.959	48.68
716.142	48.56
716.325	48.17
716.508	47.81
716.691	48.14
716.874	48.16
717.057	47.77
717.239	48.06
717.422	48.39
717.605	48.5
717.788	48.63
717.971	48.45
718.154	48.95
718.337	48.96
718.519	48.69
718.702	48.18
718.885	47.38
719.068	46.72
719.25	46.44
719.433	46.68
719.616	45.94
719.798	45.41
719.981	45.42
720.164	44.91
720.346	45.09
720.529	44.51
720.712	44.41
720.894	44.92
721.077	45.57
721.259	45.47
721.442	44.73
721.624	44.58
721.807	44.19
721.989	44.01
722.172	43.7
722.354	44.04
722.537	45.12
722.719	46.17
722.901	46.47
723.084	46.15
723.266	46.1
723.448	46.05
723.631	47.29
723.813	48.04
723.995	48.91
724.178	48.99
724.36	48.62
724.542	48.54
724.724	46.92
724.907	46.45
725.089	47.02
725.271	47.47
725.453	48.1
725.635	46.91
725.817	48.13
725.999	47.47
726.181	47.55
726.364	47.22
726.546	47.27
726.728	48.04
726.91	47.76
727.092	47.37
727.274	47.05
727.456	46.63
727.638	47.15
727.819	45.87
728.001	45.77
728.183	45.34
728.365	45.75
728.547	45.6
728.729	45.54
728.911	45.71
729.093	46.02
729.274	46.36
729.456	46.5
729.638	46.05
729.82	46.59
730.001	46.59
730.183	47.31
730.365	46.69
730.546	46.65
730.728	46.61
730.91	47.21
731.091	46.86
731.273	46.46
731.455	46.79
731.636	46.61
731.818	46.8
731.999	47.26
732.181	46.99
732.362	47.61
732.544	47.41
732.725	47.59
732.907	47.78
733.088	48
733.27	48.15
733.451	47.92
733.633	48.04
733.814	48.01
733.995	47.61
734.177	47.1
734.358	47.36
734.539	47.76
734.721	47.7
734.902	47.19
735.083	46.56
735.264	46.65
735.446	46.95
735.627	48.23
735.808	47.66
735.989	47.36
736.17	48.42
736.351	47.83
736.533	47.84
736.714	47.88
736.895	47.56
737.076	48.78
737.257	48.35
737.438	47.65
737.619	45.65
737.8	45.69
737.981	45.91
738.162	45.52
738.343	45.09
738.524	45.6
738.705	46.18
738.886	46.12
739.067	44.94
739.247	45.76
739.428	45.96
739.609	46.47
739.79	47.19
739.971	47.61
740.151	47.39
740.332	48.05
740.513	47.74
740.694	46.79
740.874	46.59
741.055	47.5
741.236	47.23
741.417	47.49
741.597	47.55
741.778	46.46
741.958	46.55
742.139	47.07
742.32	46.78
742.5	46.51
742.681	47.17
742.861	47.69
743.042	47.07
743.222	47.32
743.403	47.3
743.583	48.22
743.764	48.94
743.944	48.64
744.124	47.82
744.305	48.21
744.485	48.1
744.666	46.95
744.846	46.83
745.026	46.94
745.207	47.22
745.387	47.23
745.567	46.76
745.747	46.24
745.928	46.33
746.108	47.57
746.288	47.19
746.468	47.9
746.648	48.22
746.829	48.01
747.009	47.95
747.189	47.2
747.369	47.77
747.549	47.45
747.729	47.5
747.909	47.49
748.089	47.5
748.269	47.54
748.449	47.4
748.629	48.31
748.809	49.43
748.989	49.58
749.169	50.1
749.349	49.47
749.529	49.71
749.709	50.75
749.889	50.44
750.068	49.69
750.248	50.41
750.428	49.61
750.608	49.95
750.788	49.43
750.967	50.91
751.147	50.81
751.327	49.94
751.507	50.01
751.686	49.15
751.866	49.75
752.046	50.37
752.225	50.22
752.405	51
752.585	49.59
752.764	48.98
752.944	47.51
753.123	46.5
753.303	47.66
753.482	47.33
753.662	47.74
753.841	47.11
754.021	46.43
754.2	46.05
754.38	45.78
754.559	46.32
754.739	46.43
754.918	45.9
755.097	46.45
755.277	46.2
755.456	46.62
755.635	46.64
755.815	47.71
755.994	47.91
756.173	48.41
756.352	48.17
756.532	48.05
756.711	48.9
756.89	49.59
757.069	49.66
757.248	49.26
757.427	48.85
757.607	49.01
757.786	48.92
757.965	49.23
758.144	48.45
758.323	47.74
758.502	47.25
758.681	46.41
758.86	46.24
759.039	46.27
759.218	46.77
759.397	46.51
759.576	45.64
759.755	44.93
759.934	44
760.113	43.53
760.291	44.31
760.47	45.22
760.649	46.18
760.828	45.28
761.007	45.5
761.186	45.12
761.364	44.84
761.543	45.22
761.722	45.46
761.901	45.41
762.079	46.29
762.258	46.5
762.437	46.49
762.615	46.16
762.794	47.36
762.972	47.61
763.151	47.47
763.33	48.24
763.508	48.31
763.687	48.53
763.865	49.27
764.044	49.82
764.222	49.36
764.401	49.34
764.579	49.02
764.758	48.94
764.936	48.98
765.114	49.16
765.293	48.6
765.471	48.4
765.65	47.81
765.828	47.13
766.006	46.19
766.184	46.65
766.363	46.48
766.541	46.13
766.719	46.32
766.898	45.74
767.076	45.68
767.254	45.73
767.432	45.83
767.61	46.77
767.788	47.28
767.967	47.11
768.145	47.57
768.323	47.43
768.501	47.71
768.679	46.83
768.857	46.46
769.035	46.38
769.213	46.82
769.391	47.07
769.569	45.72
769.747	45.51
769.925	45.82
770.103	44.07
770.281	45.07
770.459	45.11
770.636	45.96
770.814	46.18
770.992	46.67
771.17	46.53
771.348	45.92
771.525	46.29
771.703	47.22
771.881	47.16
772.059	48.38
772.236	47.59
772.414	48.38
772.592	47.9
772.769	47.35
772.947	48.07
773.125	48.18
773.302	48.99
773.48	49.19
773.657	48.36
773.835	49.59
774.013	50.58
774.19	50.21
774.368	49.35
774.545	49.12
774.723	48.48
774.9	48.29
775.077	49.62
775.255	49.26
775.432	49.43
775.61	49.31
775.787	47.81
775.964	46.31
776.142	46.96
776.319	46.91
776.496	46.18
776.674	47.43
776.851	47.58
777.028	47.19
777.205	46.92
777.382	46.17
777.56	45.67
777.737	45.44
777.914	44.64
778.091	44.78
778.268	44.61
778.445	46.64
778.622	46.68
778.8	45.37
778.977	42.8
779.154	49.1
779.331	49.89
779.508	51.64
779.685	53.15
779.862	54.37
780.038	53.96
780.215	55.13
780.392	53.08
780.569	53.03
780.746	52.54
780.923	53.24
781.1	46.62
781.277	46.4
781.453	45.2
781.63	43.95
781.807	44.49
781.984	45.24
782.16	45.4
782.337	45.85
782.514	46.6
782.691	48.67
782.867	48.96
783.044	48.46
783.221	48.69
783.397	48.42
783.574	48.49
783.75	49.66
783.927	49.48
784.103	48.58
784.28	48.99
784.456	51.48
784.633	50.36
784.809	51.58
784.986	52.39
785.162	52.9
785.339	52.03
785.515	53.52
785.692	52.61
785.868	53.36
786.044	51.88
786.221	52.08
786.397	49.07
786.573	48.99
786.749	48.05
786.926	46.94
787.102	46.89
787.278	47.78
787.454	47.37
787.631	45.57
787.807	44.15
787.983	44.87
788.159	45.35
788.335	44.75
788.511	46.56
788.687	48.04
788.863	49.36
789.039	49
789.216	49.36
789.392	49.11
789.568	49.37
789.744	49.71
789.919	50.11
790.095	48.82
790.271	50.02
790.447	48.11
790.623	45.81
790.799	44.79
790.975	45.47
791.151	45.05
791.327	43.36
791.502	43.84
791.678	43.63
791.854	45.39
792.03	45.76
792.205	45.71
792.381	48.63
792.557	51.45
792.733	51.35
792.908	50.78
793.084	51.96
793.259	52.58
793.435	53.52
793.611	52.86
793.786	51.5
793.962	51.3
794.137	50.58
794.313	48.73
794.488	46.07
794.664	47.04
794.839	44.84
795.015	43.22
795.19	44.39
795.366	44.81
795.541	45.31
795.716	44.15
795.892	44.19
796.067	44.76
796.242	43.37
796.418	45.8
796.593	44.18
796.768	46.44
796.944	47.75
797.119	47.42
797.294	45.28
797.469	44.28
797.644	46.21
797.82	46.15
797.995	44.45
798.17	45.54
798.345	44.38
798.52	43.42
798.695	41.55
798.87	40.57
799.045	41.56
799.22	42.22
799.395	43.05
799.57	41.62
799.745	43.11
799.92	43.44
800.095	41.9
800.27	38.56
800.445	42.22
800.62	43.34
800.795	43.31
800.97	41.45
801.145	42.53
801.319	41.46
801.494	43.4
801.669	41.84
801.844	43.19
802.018	43.5
802.193	47.33
802.368	46.91
802.543	45.32
802.717	44.2
802.892	44.08
803.067	43.49
803.241	44.8
803.416	43.67
803.59	43.99
803.765	42.98
803.94	43.32
804.114	43.38
804.289	42.04
804.463	43.39
804.638	42.89
804.812	44.6
804.986	44.9
805.161	45.82
805.335	45.05
805.51	44.52
805.684	44.82
805.858	45.76
806.033	44.75
806.207	44.44
806.381	45.12
806.556	48.49
806.73	49.98
806.904	51.01
807.078	50.9
807.253	51.78
807.427	51.11
807.601	51.31
807.775	49.4
807.949	48.65
808.123	47.87
808.298	49.33
808.472	48.02
808.646	45.63
808.82	44.85
808.994	45.19
809.168	43.58
809.342	44.04
809.516	43.3
809.69	43.52
809.864	45.29
810.038	49.28
810.212	47.11
810.385	46.14
810.559	43.94
810.733	42
810.907	39.12
811.081	41.62
811.255	41.25
811.428	43.28
811.602	43.2
811.776	43.5
811.95	38.4
812.123	38.4
812.297	37.17
812.471	39.77
812.644	43.34
812.818	44.65
812.992	41.89
813.165	43.12
813.339	41.42
813.512	43.25
813.686	40.13
813.86	42.73
814.033	42.65
814.207	45.17
814.38	45.76
814.554	43.2
814.727	46.18
814.9	47.52
815.074	48.17
815.247	50.18
815.421	48.82
815.594	47.86
815.767	48.31
815.941	45.55
816.114	45.13
816.287	43.42
816.46	45.36
816.634	43.85
816.807	40.11
816.98	38.59
817.153	36.65
817.327	38.98
817.5	43.58
817.673	42.69
817.846	46.06
818.019	46.22
818.192	46.83
818.365	41.91
818.538	40.44
818.711	44.38
818.884	44.58
819.057	45.32
819.23	44.04
819.403	41.8
819.576	44.21
819.749	46.47
819.922	47.14
820.095	46.19
820.268	49.12
820.441	51.42
820.614	50.2
820.786	50.16
820.959	50.52
821.132	50.56
821.305	50.46
821.477	48.89
821.65	48.43
821.823	48.19
821.996	48.73
822.168	48.73
822.341	48.41
822.514	48.66
822.686	48.41
822.859	48.15
823.031	48.1
823.204	48.15
823.376	48.16
823.549	48.16
823.722	48.25
823.894	48.37
824.067	48.39
824.239	47.84
824.411	47.69
824.584	48.42
824.756	48.22
824.929	47.68
825.101	48.03
825.273	48.84
825.446	48.18
825.618	48.38
825.79	47.95
825.963	48.08
826.135	48.45
826.307	48.33
826.479	48.17
826.652	48.23
826.824	48.83
826.996	48.48
827.168	48.14
827.34	48.99
827.512	49.04
827.684	49.5
827.856	49.08
828.029	49.47
828.201	49.23
828.373	49.15
828.545	48.57
828.717	48.92
828.889	49.68
829.061	49.83
829.232	49.2
829.404	49.94
829.576	49.58
829.748	50.31
829.92	50.41
830.092	51.19
830.264	51.2
830.436	51.75
830.607	51.35
830.779	49.74
830.951	49.39
831.123	50.04
831.294	48.4
831.466	49.96
831.638	48.81
831.809	49.68
831.981	47.8
832.153	46.97
832.324	48.37
832.496	49.69
832.667	50.21
832.839	50.22
833.011	49.02
833.182	48.1
833.354	46.58
833.525	46.34
833.697	45.4
833.868	47.89
834.039	47.87
834.211	47.49
834.382	47.47
834.554	48.99
834.725	47.1
834.896	48.01
835.068	47.65
835.239	46.61
835.41	47.9
835.581	48.22
835.753	47.22
835.924	48.03
836.095	47.5
836.266	47.35
836.438	45.62
836.609	48.1
836.78	47.92
836.951	48.6
837.122	47.26
837.293	44.99
837.464	43.55
837.635	44.83
837.806	44.39
837.977	45.99
838.148	45.24
838.319	44.48
838.49	42.83
838.661	41.7
838.832	42.19
839.003	48.08
839.174	51.9
839.345	58.24
839.516	57.78
839.687	58.48
839.857	56.74
840.028	56.23
840.199	57.82
840.37	56.48
840.54	56.33
840.711	58.21
840.882	55.29
841.053	50.89
841.223	44.29
841.394	42.57
841.564	40.11
841.735	39.09
841.906	42.44
842.076	41.24
842.247	41.9
842.417	43.04
842.588	40.5
842.758	41.09
842.929	43.29
843.099	40.67
843.27	44.08
843.44	45.43
843.611	48.66
843.781	42.41
843.951	43.09
844.122	41.76
844.292	39.3
844.462	37.11
844.633	34.69
844.803	30.44
844.973	25.95
845.144	27.97
845.314	23.19
845.484	15.72
845.654	17.87
845.824	15.36
845.995	13.1
846.165	14.64
846.335	18.18
846.505	22.73
846.675	24.67
846.845	38.49
847.015	24.44
847.185	32.2
847.355	32
847.525	35.49
847.695	35.81
847.865	43.58
848.035	40.35
848.205	35.39
848.375	32.36
848.545	33.67
848.715	29.18
848.884	38.08
849.054	32.36
849.224	38.2
849.394	35.51
849.564	38.6
849.733	40.6
849.903	49.83
850.073	49.81
850.243	51.88
850.412	54.92
850.582	52.83
850.752	50.49
850.921	52.64
851.091	48.65
851.26	53.16
851.43	56.57
851.599	57.46
851.769	58.21
851.939	63.6
852.108	55.21
852.278	55.53
852.447	56.15
852.616	59.06
852.786	62.5
852.955	67.84
853.125	58.87
853.294	57.62
853.463	54.53
853.633	49.06
853.802	48.48
853.971	55.75
854.141	45.26
854.31	36.84
854.479	21.47
854.648	14.28
854.818	7.18
854.987	0.42
855.156	3.79
855.325	1.96
855.494	2.23
855.663	4.9
855.832	0.23
856.001	3.74
856.171	16.47
856.34	22.77
856.509	17.25
856.678	15.31
856.847	30.17
857.016	38.33
857.185	25.13
857.353	21.95
857.522	23.76
857.691	36.04
857.86	31.93
858.029	27.24
858.198	28.93
858.367	32.26
858.535	38.05
858.704	36.16
858.873	33
859.042	30.04
859.21	27.41
859.379	27.6
859.548	12.65
859.717	13.29
859.885	16.41
860.054	17.22
860.222	12.77
860.391	13.75
860.56	12.51
860.728	9.15
860.897	17.02
861.065	22.56
861.234	20.42
861.402	22.93
861.571	31.92
861.739	31.9
861.908	35.79
862.076	47.27
862.244	44.24
862.413	46.27
862.581	39.2
862.749	40.96
862.918	37.8
863.086	41.31
863.254	44.08
863.423	32.43
863.591	29.29
863.759	21.28
863.927	11.92
864.096	16.68
864.264	8.79
864.432	28.13
864.6	36.88
864.768	31.91
864.936	29.37
865.104	22.88
865.272	37.04
865.44	42.87
865.608	41.62
865.776	43.97
865.944	41.8
866.112	44.43
866.28	43.36
866.448	39.58
866.616	40.83
866.784	27.32
866.952	31.3
867.12	23.82
867.288	17.88
867.455	20.89
867.623	15.51
867.791	19.85
867.959	26.87
868.127	30.38
868.294	28.07
868.462	36.83
868.63	47.73
868.797	45.29
868.965	49.68
869.133	53.81
869.3	60.78
869.468	56.16
869.636	44.24
869.803	34.19
869.971	35.86
870.138	39.04
870.306	28.31
870.473	23.36
870.641	21.86
870.808	17.39
870.975	17.29
871.143	7.29
871.31	10.89
871.478	19.69
871.645	26.71
871.812	22.12
871.98	16.06
872.147	30.01
872.314	37.53
872.482	38.38
872.649	47.71
872.816	49.3
872.983	48.78
873.15	48.93
873.318	42.19
873.485	30.42
873.652	27.21
873.819	17.19
873.986	22.21
874.153	19.31
874.32	13.07
874.487	9.66
874.654	0.93
874.821	-5.09
874.988	-15.18
875.155	-11.16
875.322	0.47
875.489	-13.58
875.656	-17.31
875.823	-13.17
875.99	-10.74
876.157	3.57
876.324	-3.87
876.49	2.14
876.657	12.01
876.824	24.13
876.991	23.41
877.157	18.73
877.324	26.45
877.491	33.21
877.658	31.35
877.824	34.61
877.991	30.45
878.157	32.82
878.324	31.52
878.491	28.99
878.657	23.93
878.824	28.23
878.99	31.03
879.157	37.63
879.323	37.56
879.49	32.04
879.656	29.75
879.823	33.33
879.989	36.58
880.156	37.31
880.322	34.4
880.488	35.47
880.655	33.56
880.821	43.55
880.987	43.3
881.154	42.62
881.32	46.47
881.486	51.88
881.652	53.88
881.819	56.29
881.985	53.59
882.151	55.88
882.317	53.26
882.483	56.41
882.649	51.83
882.816	49.21
882.982	49.82
883.148	49.38
883.314	48.45
883.48	47.34
883.646	46.7
883.812	47.92
883.978	46.93
884.144	47.55
884.31	46.64
884.476	47.21
884.642	48.7
884.807	49.24
884.973	49.76
885.139	50.49
885.305	49.91
885.471	50.64
885.637	50.49
885.802	51.63
885.968	51.01
886.134	51.11
886.3	52.19
886.465	53.19
886.631	50.02
886.797	50.06
886.962	46.92
887.128	48.17
887.293	48.56
887.459	47.13
887.625	42.81
887.79	49.03
887.956	45.35
888.121	42.8
888.287	37.73
888.452	44.65
888.618	40.32
888.783	46.18
