Data from LC_208__Reflection_1.txt Node
Date: Thu Nov 19 11:58:53 EST 2015
User: robert
Spectrometer: USB4E03001
Autoset integration time: false
Trigger mode: 4
Integration Time (sec): 1.000000E-1
Scans to average: 15
Electric dark correction enabled: true
Nonlinearity correction enabled: false
Boxcar width: 5
Stray light correction enabled: false
XAxis mode: Wavelengths
Stop averaging: false
Number of Pixels in Spectrum: 3648
>>>>>Begin Spectral Data<<<<<
177.566	125.82
177.785	112.53
178.005	100
178.225	103.77
178.445	85.62
178.665	78.55
178.885	276.89
179.105	222.52
179.324	149.59
179.544	142.46
179.764	96.9
179.984	103.09
180.204	78.45
180.423	64.89
180.643	49.26
180.863	22.42
181.083	-17.34
181.302	-3352.6
181.522	217.44
181.742	123.27
181.961	103.84
182.181	84.47
182.401	109.86
182.621	106.45
182.84	101.7
183.06	68.06
183.279	68.43
183.499	71.02
183.719	61.84
183.938	66.4
184.158	59.57
184.377	108.52
184.597	139.5
184.816	113.9
185.036	85.15
185.256	76.8
185.475	191.2
185.695	162.66
185.914	258.45
186.134	168.42
186.353	133.96
186.572	-361.93
186.792	-94.36
187.011	-415.85
187.231	-156.54
187.45	-538.22
187.67	-570.08
187.889	-125.99
188.108	-35.06
188.328	-50.17
188.547	-62.82
188.766	-41.02
188.986	-964.33
189.205	300.81
189.424	485.94
189.644	97.12
189.863	-21.75
190.082	-99.58
190.302	-179.04
190.521	-77.98
190.74	-251.69
190.959	-374.32
191.178	1339.68
191.398	206
191.617	316.53
191.836	843.38
192.055	449.54
192.274	-1253.38
192.494	-288.55
192.713	-125.56
192.932	-124.09
193.151	-157.73
193.37	-479.34
193.589	-359.82
193.808	-237.13
194.027	-146.64
194.246	-212.87
194.465	-451.08
194.685	-6479.13
194.904	-1668.85
195.123	-2910.19
195.342	618.76
195.561	146.73
195.78	167.47
195.999	160.45
196.218	76.56
196.436	57.19
196.655	58.48
196.874	74.84
197.093	110.02
197.312	72.52
197.531	99.13
197.75	78.48
197.969	135.52
198.188	176.85
198.407	212.07
198.625	275.4
198.844	310.23
199.063	218.75
199.282	610.04
199.501	97.54
199.719	60.77
199.938	63.29
200.157	71.39
200.376	-116.24
200.594	-27.09
200.813	1344.68
201.032	198.22
201.251	3.32
201.469	48.34
201.688	-147.56
201.907	-80.67
202.125	-127.3
202.344	-31.58
202.563	-76.1
202.781	-554.18
203	-681.6
203.218	-196.91
203.437	-210.55
203.656	-479.19
203.874	738
204.093	3768.64
204.311	7568.87
204.53	708.67
204.748	928.9
204.967	-6196.88
205.185	-857.65
205.404	504.17
205.622	293.16
205.841	221.38
206.059	308.85
206.278	234.37
206.496	254.07
206.715	142.49
206.933	108.9
207.151	102.47
207.37	116.08
207.588	92.86
207.806	74.38
208.025	97.89
208.243	132.71
208.461	109.16
208.68	240.4
208.898	139.54
209.116	213.68
209.335	-2803.59
209.553	-106.53
209.771	-8881.82
209.989	-62.93
210.208	1824.31
210.426	361.58
210.644	110.17
210.862	100
211.081	84.65
211.299	72.8
211.517	70.9
211.735	58.52
211.953	83.69
212.171	81.96
212.39	88.16
212.608	83.79
212.826	91.44
213.044	144.45
213.262	125.21
213.48	115
213.698	99.75
213.916	97.78
214.134	95.46
214.352	91.32
214.57	93.23
214.788	78.38
215.006	81.29
215.224	72.59
215.442	53.85
215.66	67.92
215.878	66.04
216.096	69.42
216.314	81.4
216.532	80.75
216.75	91.33
216.968	83.15
217.185	82.41
217.403	71.48
217.621	67.82
217.839	73.14
218.057	64.79
218.275	80.45
218.492	90.43
218.71	87.92
218.928	132.28
219.146	111.86
219.363	135.92
219.581	149.23
219.799	137.49
220.017	124.8
220.234	137.51
220.452	181.85
220.67	296.08
220.887	185.02
221.105	161.65
221.323	102.02
221.54	102.98
221.758	56.79
221.976	4.85
222.193	55.57
222.411	89.91
222.629	99.41
222.846	94.14
223.064	62.99
223.281	49.91
223.499	72.83
223.716	81.53
223.934	94.89
224.151	91.87
224.369	93.1
224.586	77.33
224.804	67.76
225.021	68.51
225.239	61.64
225.456	61.6
225.674	64.18
225.891	60.86
226.108	52.32
226.326	45.15
226.543	42.99
226.76	46.86
226.978	45.79
227.195	46.52
227.413	40.42
227.63	36.36
227.847	28.91
228.064	25.51
228.282	20.4
228.499	15.39
228.716	18.28
228.934	16.42
229.151	13.15
229.368	10.62
229.585	8.7
229.802	9.61
230.02	9.97
230.237	9.76
230.454	8.59
230.671	11.99
230.888	14.13
231.105	13.12
231.323	10.18
231.54	11.74
231.757	11.89
231.974	15.07
232.191	11.83
232.408	12.42
232.625	16.35
232.842	16.76
233.059	18.94
233.276	18.01
233.493	19.38
233.71	23.21
233.927	25.55
234.144	25.46
234.361	24.77
234.578	24.94
234.795	23.84
235.012	22.42
235.229	23.7
235.446	23.52
235.663	27.27
235.879	26.66
236.096	27.72
236.313	23.47
236.53	24.57
236.747	22.71
236.964	21.84
237.181	22.32
237.397	27.33
237.614	26.9
237.831	25.3
238.048	24.88
238.264	21.07
238.481	22.3
238.698	25.7
238.915	26.87
239.131	27.66
239.348	27.6
239.565	27.24
239.781	26.08
239.998	25.16
240.215	25.41
240.431	23.49
240.648	22.44
240.865	19.76
241.081	17.16
241.298	15.53
241.514	15.45
241.731	14.53
241.947	15.01
242.164	12.53
242.38	12.51
242.597	11.76
242.814	11.07
243.03	10.89
243.246	12.17
243.463	14.32
243.679	13.48
243.896	13.01
244.112	13.79
244.329	13.15
244.545	13.69
244.762	14.18
244.978	13.65
245.194	13.01
245.411	13.01
245.627	12.27
245.843	11.68
246.06	11.55
246.276	11.65
246.492	11.47
246.709	11.25
246.925	11.67
247.141	11.93
247.357	12.74
247.574	12.88
247.79	12.87
248.006	12.71
248.222	12.15
248.439	13.33
248.655	14.2
248.871	14.7
249.087	14.68
249.303	14.53
249.519	14.63
249.736	13.66
249.952	14.22
250.168	15.27
250.384	17.07
250.6	19.32
250.816	16.38
251.032	15.19
251.248	14.41
251.464	16.54
251.68	17.25
251.896	15.66
252.112	16.85
252.328	15.84
252.544	15.46
252.76	15.13
252.976	13.85
253.192	15.68
253.408	15.15
253.624	14.68
253.84	12.55
254.056	11.13
254.272	12.52
254.487	10.08
254.703	11.19
254.919	11.75
255.135	11.07
255.351	11.82
255.567	10.24
255.782	9.56
255.998	10.81
256.214	11.56
256.43	12.63
256.646	11.73
256.861	11.88
257.077	11.85
257.293	10.54
257.508	10.9
257.724	8.02
257.94	9.52
258.155	11.47
258.371	11.31
258.587	11.41
258.802	10.44
259.018	10.62
259.234	9.81
259.449	10.2
259.665	9.63
259.88	8.92
260.096	9.25
260.312	8.87
260.527	8.72
260.743	8.61
260.958	8.65
261.174	9.21
261.389	8.71
261.605	9.31
261.82	9.23
262.036	9.58
262.251	10.39
262.466	11.12
262.682	10.98
262.897	10.54
263.113	11.03
263.328	13.09
263.543	12.93
263.759	13.08
263.974	14.3
264.189	13.93
264.405	15.37
264.62	15.1
264.835	14.46
265.051	16.04
265.266	14.91
265.481	14.12
265.696	11.32
265.912	11.96
266.127	12.67
266.342	11.15
266.557	10.8
266.773	9.17
266.988	8.46
267.203	8.71
267.418	7.61
267.633	10.09
267.848	10.57
268.064	11.02
268.279	10.71
268.494	10.3
268.709	11.6
268.924	11.33
269.139	12.19
269.354	12.92
269.569	13.34
269.784	13.64
269.999	10.81
270.214	10.35
270.429	10.67
270.644	10.27
270.859	10.12
271.074	10.37
271.289	12.44
271.504	11.83
271.719	11.38
271.934	11.94
272.149	11.2
272.363	12.59
272.578	12.4
272.793	12.26
273.008	12.43
273.223	13.28
273.438	11.92
273.653	10.45
273.867	11.27
274.082	12.27
274.297	12.01
274.512	13.04
274.726	12.21
274.941	12.73
275.156	12.75
275.371	12.65
275.585	11.25
275.8	13.17
276.015	12.92
276.229	13.12
276.444	11.6
276.659	10.31
276.873	8.66
277.088	9.71
277.302	9.08
277.517	7.03
277.732	7.47
277.946	8.73
278.161	7.35
278.375	6.29
278.59	5.16
278.804	6.17
279.019	6
279.233	7.3
279.448	6.48
279.662	6.55
279.877	8.75
280.091	8.55
280.306	8.71
280.52	7.83
280.735	8.85
280.949	10.38
281.163	9.8
281.378	10.34
281.592	9.8
281.806	10.79
282.021	11.09
282.235	10.48
282.449	11.02
282.664	11.21
282.878	11.96
283.092	13.52
283.307	13.13
283.521	13.27
283.735	13.14
283.949	14.2
284.164	13
284.378	13.05
284.592	12.98
284.806	12.83
285.02	12.05
285.234	12.12
285.449	11.44
285.663	10.82
285.877	10.46
286.091	10.39
286.305	9.86
286.519	9.77
286.733	9.96
286.947	10.25
287.161	9.61
287.375	9.68
287.589	9.24
287.803	9.11
288.017	8.95
288.231	9.26
288.445	9.16
288.659	9.7
288.873	9.98
289.087	10.1
289.301	10.23
289.515	10.46
289.729	11.2
289.943	10.82
290.157	10.21
290.371	10.11
290.584	9.26
290.798	10.38
291.012	10.96
291.226	11.01
291.44	11.29
291.654	11.71
291.867	10.9
292.081	9.79
292.295	11.11
292.509	11.57
292.722	11.89
292.936	13.59
293.15	12.71
293.364	11.14
293.577	12.13
293.791	11.24
294.005	8.92
294.218	10.6
294.432	11.13
294.645	10.18
294.859	10.85
295.073	11.05
295.286	10.88
295.5	10.74
295.713	11.32
295.927	10.48
296.14	10.51
296.354	11.89
296.568	10.54
296.781	10.63
296.994	10.58
297.208	10.11
297.421	9.89
297.635	9.36
297.848	9.84
298.062	9.87
298.275	10.14
298.489	10.1
298.702	10.42
298.915	11.5
299.129	11.32
299.342	12.02
299.555	12.05
299.769	12.24
299.982	12.64
300.195	12.33
300.409	11.8
300.622	11.98
300.835	11.99
301.048	10.78
301.262	9.68
301.475	9.66
301.688	9.9
301.901	9.52
302.115	10.73
302.328	10.4
302.541	9.91
302.754	10.2
302.967	10.6
303.18	11.62
303.393	12.33
303.607	12.29
303.82	12.94
304.033	12.46
304.246	14.14
304.459	13.55
304.672	13.57
304.885	14.24
305.098	13.74
305.311	13.39
305.524	12.62
305.737	12.41
305.95	13.46
306.163	12.93
306.376	13.26
306.589	11.7
306.802	11.4
307.015	11.19
307.228	10.57
307.44	11.75
307.653	11.4
307.866	11.7
308.079	11.86
308.292	11.78
308.505	11.51
308.718	11.35
308.93	10.62
309.143	11.1
309.356	11.46
309.569	11.71
309.781	10.89
309.994	10.67
310.207	10.62
310.42	10.4
310.632	9.58
310.845	10.61
311.058	10.12
311.27	10.72
311.483	10.49
311.696	9.74
311.908	10.17
312.121	10.91
312.333	12.49
312.546	12.64
312.759	12.93
312.971	14
313.184	13.33
313.396	14.14
313.609	13.5
313.821	12.92
314.034	14.48
314.246	14.3
314.459	14.68
314.671	12.9
314.884	12.16
315.096	11.94
315.309	11.48
315.521	11.43
315.733	10.9
315.946	12.21
316.158	12.92
316.371	11.68
316.583	11.64
316.795	10.5
317.008	10.24
317.22	10.91
317.432	11.94
317.644	12.05
317.857	12.43
318.069	12.24
318.281	11.63
318.494	11.09
318.706	12.16
318.918	12.35
319.13	13.26
319.342	14.46
319.555	13.29
319.767	12.42
319.979	12.42
320.191	11.57
320.403	11.86
320.615	12.07
320.827	11.97
321.039	12.23
321.252	12.13
321.464	11.56
321.676	10.01
321.888	11.25
322.1	11.22
322.312	10.84
322.524	10.8
322.736	10.84
322.948	11.16
323.16	12.12
323.372	12.06
323.584	11.88
323.796	11.49
324.007	12.17
324.219	11.9
324.431	11.11
324.643	11.39
324.855	11.69
325.067	12.03
325.279	12.54
325.491	11.38
325.702	10.76
325.914	9.91
326.126	9.87
326.338	9.73
326.55	10.25
326.761	11.39
326.973	11.78
327.185	11.15
327.396	10.56
327.608	8.91
327.82	10.02
328.032	10.2
328.243	10.56
328.455	11.75
328.666	12.14
328.878	12.12
329.09	11.24
329.301	11.25
329.513	11.73
329.725	12.53
329.936	14.13
330.148	13.54
330.359	14.32
330.571	15.33
330.782	14.37
330.994	13.74
331.205	13.09
331.417	13.33
331.628	13.38
331.84	13.58
332.051	12.4
332.262	11.56
332.474	11.5
332.685	10.61
332.897	9.83
333.108	10.4
333.319	10.37
333.531	10.19
333.742	10.66
333.953	9.35
334.165	10.36
334.376	11.16
334.587	11.7
334.799	11.97
335.01	11.82
335.221	12.36
335.432	12.37
335.644	12.72
335.855	12.89
336.066	12.94
336.277	14.57
336.488	13.93
336.7	14.02
336.911	13.46
337.122	13.71
337.333	13.64
337.544	13.78
337.755	13.46
337.966	13.3
338.177	13.15
338.388	13.66
338.599	12.81
338.811	12.66
339.022	12.12
339.233	12.63
339.444	11.9
339.655	13.1
339.866	13.1
340.076	12.69
340.287	13.24
340.498	13.79
340.709	13.05
340.92	12.86
341.131	13.07
341.342	13.03
341.553	12.66
341.764	11.97
341.975	11.67
342.185	11.32
342.396	11.87
342.607	10.96
342.818	11.14
343.029	10.43
343.239	10.67
343.45	10.29
343.661	10.69
343.872	11.76
344.082	12.32
344.293	12.37
344.504	13.1
344.714	13.97
344.925	14.75
345.136	14.71
345.346	15.61
345.557	15.09
345.768	15.05
345.978	14.66
346.189	14.07
346.399	14.69
346.61	13.88
346.821	13.84
347.031	12.81
347.242	12.86
347.452	12.56
347.663	12.46
347.873	12.17
348.084	11.99
348.294	12.41
348.504	12.02
348.715	11.73
348.925	11.68
349.136	10.7
349.346	10.8
349.557	9.83
349.767	9.19
349.977	8.46
350.188	9.1
350.398	9.32
350.608	9.1
350.819	9.02
351.029	9.08
351.239	9.65
351.449	10.77
351.66	10.33
351.87	11.38
352.08	11.6
352.29	11.92
352.501	12.38
352.711	12.75
352.921	12.82
353.131	12.69
353.341	11.9
353.552	11.82
353.762	11.16
353.972	10.96
354.182	11.24
354.392	12.36
354.602	12.47
354.812	11.66
355.022	11.16
355.232	10.81
355.442	11.06
355.652	11.43
355.862	11.08
356.072	10.31
356.282	11.18
356.492	10.7
356.702	9.44
356.912	9.93
357.122	10.36
357.332	10.9
357.542	11.11
357.752	10.85
357.962	11.39
358.171	11.88
358.381	11.87
358.591	11.31
358.801	10.62
359.011	11
359.221	10.57
359.43	10.72
359.64	10.3
359.85	10.01
360.06	10.36
360.269	9.97
360.479	10.06
360.689	9.95
360.899	10.42
361.108	10.19
361.318	10.61
361.528	10.57
361.737	9.97
361.947	9.7
362.156	9.87
362.366	9.71
362.576	9.33
362.785	8.75
362.995	9.36
363.204	9.18
363.414	9.32
363.623	8.96
363.833	9.1
364.042	9.42
364.252	9.35
364.461	9.16
364.671	8.92
364.88	8.8
365.09	9.38
365.299	9.29
365.509	9.26
365.718	9.91
365.927	9.94
366.137	9.35
366.346	9.98
366.555	9.87
366.765	10.78
366.974	11.09
367.183	11.71
367.393	11.42
367.602	11.01
367.811	10.63
368.021	10
368.23	9.73
368.439	10.03
368.648	9.48
368.857	9.77
369.067	9.05
369.276	9.02
369.485	8.8
369.694	8.68
369.903	9.26
370.112	9.2
370.321	8.89
370.531	9.46
370.74	9.36
370.949	9.49
371.158	9.48
371.367	9.36
371.576	9.65
371.785	9.44
371.994	9.47
372.203	8.87
372.412	9.2
372.621	9.98
372.83	9.26
373.039	9.45
373.248	9.56
373.457	10.07
373.666	10.17
373.874	10.15
374.083	9.84
374.292	9.31
374.501	10.12
374.71	9.73
374.919	9.12
375.128	9.3
375.336	9.3
375.545	8.54
375.754	8.23
375.963	8.25
376.171	8.05
376.38	8.52
376.589	9.37
376.798	8.76
377.006	8.75
377.215	8.75
377.424	8.72
377.632	8.64
377.841	9.04
378.05	9.24
378.258	9.18
378.467	9.35
378.675	9.06
378.884	8.5
379.093	8.74
379.301	9.28
379.51	9.87
379.718	10.17
379.927	10.01
380.135	10.3
380.344	10.09
380.552	9.45
380.761	9
380.969	8.94
381.177	9.22
381.386	8.84
381.594	8.44
381.803	8.29
382.011	7.93
382.219	8.39
382.428	7.8
382.636	7.61
382.845	8.2
383.053	8.12
383.261	8.47
383.469	8.5
383.678	8.64
383.886	8.89
384.094	8.95
384.302	9.12
384.511	8.62
384.719	8.9
384.927	9.13
385.135	8.95
385.343	9.18
385.552	8.73
385.76	8.41
385.968	8.55
386.176	8.48
386.384	8.44
386.592	8.06
386.8	8.25
387.008	8.12
387.216	7.91
387.424	8.14
387.633	8.06
387.841	8.32
388.049	8.35
388.257	8.3
388.465	8.17
388.672	7.81
388.88	8.39
389.088	8.44
389.296	8.3
389.504	8.47
389.712	8.54
389.92	8.33
390.128	8.3
390.336	8.21
390.544	8.15
390.751	8.03
390.959	8.11
391.167	7.63
391.375	7.56
391.583	7.64
391.79	7.39
391.998	7.2
392.206	7.57
392.414	7.69
392.621	7.74
392.829	7.74
393.037	7.83
393.244	7.85
393.452	7.99
393.66	8.2
393.867	8.06
394.075	8.11
394.283	7.79
394.49	7.82
394.698	7.94
394.905	8.01
395.113	7.74
395.32	7.8
395.528	7.75
395.735	7.75
395.943	7.51
396.15	7.42
396.358	7.43
396.565	7.85
396.773	7.65
396.98	7.44
397.188	7.53
397.395	7.79
397.602	7.79
397.81	8.19
398.017	8.13
398.225	7.79
398.432	8.02
398.639	7.76
398.847	7.64
399.054	7.53
399.261	7.42
399.468	7.34
399.676	7.26
399.883	7.3
400.09	6.76
400.297	6.92
400.505	7.24
400.712	7.57
400.919	8.2
401.126	8.24
401.333	8.32
401.54	8.43
401.748	8.42
401.955	8.3
402.162	7.9
402.369	7.99
402.576	7.99
402.783	7.92
402.99	7.41
403.197	7.11
403.404	6.74
403.611	6.48
403.818	6.4
404.025	6.39
404.232	6.48
404.439	6.56
404.646	6.52
404.853	6.27
405.06	6.46
405.267	6.75
405.474	6.79
405.681	6.98
405.887	7.11
406.094	6.96
406.301	6.91
406.508	6.94
406.715	6.98
406.922	6.96
407.128	6.92
407.335	6.79
407.542	6.64
407.749	6.57
407.955	6.56
408.162	6.28
408.369	6.41
408.575	6.17
408.782	6.22
408.989	6.34
409.195	6.32
409.402	6.35
409.609	6.27
409.815	6.46
410.022	6.82
410.228	6.95
410.435	7.28
410.642	7.22
410.848	7.59
411.055	7.9
411.261	8.07
411.468	8.11
411.674	8.2
411.881	8.37
412.087	8.27
412.294	7.9
412.5	7.78
412.706	7.99
412.913	8.18
413.119	7.86
413.326	7.19
413.532	6.77
413.738	6.72
413.945	6.86
414.151	6.85
414.357	6.75
414.564	6.52
414.77	6.66
414.976	6.5
415.182	6.42
415.389	6.42
415.595	6.42
415.801	6.63
416.007	6.47
416.214	6.64
416.42	6.65
416.626	6.58
416.832	6.97
417.038	6.87
417.244	6.79
417.45	6.85
417.657	7.08
417.863	7.38
418.069	7.43
418.275	7.63
418.481	7.49
418.687	7.4
418.893	7.4
419.099	7.34
419.305	7.48
419.511	7.45
419.717	7.43
419.923	7.4
420.129	7.37
420.335	7.3
420.541	7.33
420.746	7.35
420.952	7.23
421.158	7.28
421.364	7.07
421.57	6.95
421.776	6.92
421.982	6.84
422.187	6.77
422.393	6.68
422.599	6.62
422.805	6.44
423.01	6.28
423.216	6.41
423.422	6.39
423.628	6.5
423.833	6.54
424.039	6.47
424.245	6.51
424.45	6.49
424.656	6.55
424.862	6.66
425.067	6.69
425.273	6.72
425.478	6.75
425.684	6.69
425.889	6.71
426.095	6.57
426.301	6.82
426.506	6.82
426.712	6.77
426.917	6.67
427.123	6.57
427.328	6.6
427.533	6.68
427.739	6.71
427.944	6.84
428.15	6.76
428.355	6.9
428.561	6.55
428.766	6.75
428.971	6.86
429.177	6.86
429.382	6.82
429.587	6.89
429.793	6.77
429.998	6.69
430.203	6.68
430.408	6.79
430.614	6.76
430.819	7.06
431.024	6.84
431.229	6.87
431.434	6.91
431.64	6.95
431.845	6.85
432.05	6.99
432.255	6.92
432.46	6.91
432.665	7.04
432.87	6.94
433.076	6.93
433.281	6.99
433.486	6.91
433.691	6.88
433.896	6.95
434.101	7.21
434.306	7.12
434.511	7.2
434.716	7.07
434.921	6.97
435.126	7.21
435.331	7.12
435.535	7.14
435.74	7.29
435.945	7.38
436.15	7.48
436.355	7.23
436.56	7.34
436.765	7.35
436.97	7.3
437.174	7.36
437.379	7.15
437.584	7.24
437.789	7.3
437.993	7.35
438.198	7.3
438.403	7.16
438.608	7.24
438.812	7.21
439.017	7.14
439.222	7.39
439.426	7.21
439.631	7.25
439.836	7.16
440.04	7.01
440.245	6.93
440.45	6.88
440.654	6.97
440.859	7
441.063	6.97
441.268	6.91
441.472	6.72
441.677	6.75
441.881	6.86
442.086	6.96
442.29	7.07
442.495	7.07
442.699	7.11
442.904	7.07
443.108	7
443.312	6.95
443.517	6.9
443.721	6.96
443.925	6.93
444.13	6.68
444.334	6.65
444.538	6.67
444.743	6.69
444.947	6.58
445.151	6.56
445.356	6.57
445.56	6.67
445.764	6.83
445.968	6.79
446.173	6.81
446.377	6.82
446.581	6.83
446.785	6.71
446.989	6.64
447.193	6.77
447.398	6.72
447.602	6.69
447.806	6.67
448.01	6.58
448.214	6.64
448.418	6.54
448.622	6.66
448.826	6.59
449.03	6.66
449.234	6.79
449.438	6.65
449.642	6.73
449.846	6.84
450.05	6.69
450.254	6.71
450.458	6.82
450.662	6.92
450.866	6.73
451.069	6.65
451.273	6.54
451.477	6.27
451.681	6.31
451.885	6.19
452.089	6.17
452.292	6.22
452.496	6.15
452.7	5.97
452.904	5.81
453.107	5.97
453.311	5.94
453.515	5.94
453.719	6.12
453.922	6.06
454.126	6.06
454.33	5.95
454.533	5.89
454.737	5.85
454.94	5.9
455.144	5.96
455.348	6.1
455.551	6.32
455.755	6.36
455.958	6.34
456.162	6.19
456.365	6.05
456.569	5.97
456.772	6
456.976	6.05
457.179	5.9
457.383	6.09
457.586	5.89
457.79	5.69
457.993	5.76
458.196	5.66
458.4	5.79
458.603	5.83
458.807	5.96
459.01	6.05
459.213	6.15
459.417	6.29
459.62	6.17
459.823	6.14
460.026	6.2
460.23	6.1
460.433	6.13
460.636	6.2
460.839	6.18
461.042	6.19
461.246	6.19
461.449	6.14
461.652	5.97
461.855	6.03
462.058	6.12
462.261	6.1
462.464	6.2
462.668	6.35
462.871	6.3
463.074	6.47
463.277	6.55
463.48	6.49
463.683	6.44
463.886	6.53
464.089	6.6
464.292	6.59
464.495	6.61
464.698	6.64
464.901	6.63
465.104	6.62
465.306	6.53
465.509	6.41
465.712	6.4
465.915	6.43
466.118	6.5
466.321	6.45
466.524	6.53
466.726	6.23
466.929	6.09
467.132	5.94
467.335	5.85
467.538	5.71
467.74	5.74
467.943	5.74
468.146	5.69
468.348	5.85
468.551	5.84
468.754	5.77
468.956	6
469.159	6.02
469.362	6.08
469.564	6.23
469.767	6.43
469.969	6.38
470.172	6.44
470.375	6.59
470.577	6.49
470.78	6.44
470.982	6.29
471.185	6.32
471.387	6.41
471.59	6.4
471.792	6.29
471.995	6.41
472.197	6.43
472.399	6.38
472.602	6.21
472.804	6.19
473.007	6.15
473.209	6.22
473.411	6.23
473.614	6.27
473.816	6.28
474.018	6.4
474.22	6.04
474.423	6.08
474.625	5.78
474.827	5.77
475.03	5.6
475.232	5.59
475.434	5.63
475.636	5.6
475.838	5.44
476.04	5.27
476.243	5.45
476.445	5.75
476.647	5.76
476.849	6.06
477.051	6.12
477.253	6.2
477.455	6.31
477.657	6.42
477.859	6.46
478.061	6.64
478.263	6.78
478.465	6.49
478.667	6.33
478.869	6.28
479.071	6.3
479.273	6.25
479.475	6.18
479.677	6.1
479.879	5.96
480.081	5.93
480.283	5.73
480.485	5.65
480.686	5.82
480.888	5.85
481.09	5.81
481.292	5.79
481.494	5.84
481.695	5.91
481.897	5.93
482.099	5.89
482.301	5.86
482.502	5.97
482.704	5.92
482.906	5.87
483.107	5.86
483.309	5.85
483.511	5.89
483.712	5.9
483.914	5.91
484.115	5.92
484.317	5.94
484.519	5.91
484.72	5.89
484.922	5.91
485.123	5.93
485.325	5.97
485.526	6
485.728	5.96
485.929	5.93
486.131	5.9
486.332	5.91
486.534	5.89
486.735	5.99
486.936	5.96
487.138	6
487.339	6
487.541	5.99
487.742	5.97
487.943	6.04
488.144	6.05
488.346	6.02
488.547	6.02
488.748	6.04
488.95	5.98
489.151	6.06
489.352	6.04
489.553	6.02
489.755	6.01
489.956	5.94
490.157	5.9
490.358	6
490.559	6.03
490.76	6.05
490.961	6.08
491.163	6.07
491.364	5.95
491.565	5.96
491.766	5.94
491.967	5.94
492.168	6.03
492.369	6.03
492.57	5.98
492.771	5.96
492.972	5.96
493.173	5.94
493.374	5.88
493.575	5.98
493.776	5.98
493.976	6.02
494.177	6.05
494.378	6.05
494.579	6.04
494.78	6.08
494.981	6.17
495.182	6.17
495.382	6.28
495.583	6.48
495.784	6.62
495.985	6.74
496.185	6.68
496.386	6.57
496.587	6.59
496.788	6.63
496.988	6.61
497.189	6.52
497.39	6.61
497.59	6.49
497.791	6.41
497.992	6.24
498.192	6.07
498.393	6.04
498.593	6.14
498.794	6.14
498.994	5.95
499.195	5.83
499.395	5.95
499.596	5.82
499.796	5.92
499.997	5.94
500.197	5.92
500.398	5.86
500.598	5.94
500.799	6.12
500.999	6.15
501.199	6.31
501.4	6.42
501.6	6.34
501.801	6.35
502.001	6.37
502.201	6.54
502.402	6.51
502.602	6.82
502.802	6.87
503.002	6.64
503.203	6.65
503.403	6.66
503.603	6.63
503.803	6.63
504.003	6.76
504.204	6.74
504.404	6.74
504.604	6.92
504.804	6.91
505.004	6.92
505.204	6.98
505.404	6.91
505.604	7.02
505.804	7.06
506.005	7.1
506.205	7.17
506.405	7.14
506.605	6.9
506.805	6.78
507.005	6.71
507.204	6.7
507.404	6.67
507.604	6.8
507.804	6.69
508.004	6.68
508.204	6.74
508.404	6.63
508.604	6.6
508.804	6.81
509.003	6.83
509.203	6.91
509.403	6.97
509.603	6.92
509.803	6.91
510.002	6.92
510.202	6.85
510.402	6.91
510.602	6.93
510.801	6.96
511.001	6.93
511.201	6.99
511.4	7.01
511.6	7
511.8	7.2
511.999	7.16
512.199	7.18
512.398	7.24
512.598	7.19
512.797	7.14
512.997	7.23
513.197	7.19
513.396	7.05
513.596	6.96
513.795	6.92
513.994	6.87
514.194	6.87
514.393	6.79
514.593	6.83
514.792	6.78
514.992	6.82
515.191	6.81
515.39	6.8
515.59	6.96
515.789	7.12
515.988	7.23
516.188	7.2
516.387	7.39
516.586	7.42
516.786	7.46
516.985	7.49
517.184	7.41
517.383	7.37
517.582	7.42
517.782	7.42
517.981	7.48
518.18	7.52
518.379	7.7
518.578	7.63
518.777	7.66
518.976	7.72
519.176	7.71
519.375	7.89
519.574	7.92
519.773	7.98
519.972	8.11
520.171	8.01
520.37	7.93
520.569	7.83
520.768	7.78
520.967	7.86
521.166	7.87
521.365	7.97
521.564	7.89
521.762	7.87
521.961	7.91
522.16	7.73
522.359	7.78
522.558	7.8
522.757	7.75
522.956	7.83
523.154	7.91
523.353	7.95
523.552	7.84
523.751	7.98
523.949	8.09
524.148	8.04
524.347	8.26
524.546	8.34
524.744	8.4
524.943	8.36
525.142	8.45
525.34	8.38
525.539	8.38
525.737	8.45
525.936	8.46
526.135	8.38
526.333	8.44
526.532	8.27
526.73	8.19
526.929	8.29
527.127	8.4
527.326	8.42
527.524	8.52
527.723	8.55
527.921	8.64
528.12	8.62
528.318	8.68
528.516	8.7
528.715	8.82
528.913	8.87
529.112	8.83
529.31	8.84
529.508	8.82
529.707	8.84
529.905	8.84
530.103	8.86
530.301	8.87
530.5	8.94
530.698	8.97
530.896	9.04
531.094	9.08
531.293	9.17
531.491	9.17
531.689	9.26
531.887	9.33
532.085	9.38
532.283	9.36
532.481	9.47
532.68	9.45
532.878	9.48
533.076	9.41
533.274	9.42
533.472	9.48
533.67	9.59
533.868	9.62
534.066	9.6
534.264	9.6
534.462	9.68
534.66	9.66
534.858	9.75
535.056	9.77
535.253	9.75
535.451	9.83
535.649	9.72
535.847	9.76
536.045	9.77
536.243	9.86
536.441	9.96
536.638	9.97
536.836	10.11
537.034	10.09
537.232	10.22
537.43	10.42
537.627	10.52
537.825	10.67
538.023	10.74
538.22	10.75
538.418	10.74
538.616	10.67
538.813	10.61
539.011	10.51
539.209	10.64
539.406	10.73
539.604	10.73
539.801	10.72
539.999	10.76
540.196	10.73
540.394	10.82
540.591	10.91
540.789	11.07
540.986	11.16
541.184	11.33
541.381	11.3
541.579	11.31
541.776	11.37
541.974	11.37
542.171	11.4
542.368	11.46
542.566	11.6
542.763	11.6
542.96	11.69
543.158	11.73
543.355	11.7
543.552	11.79
543.75	11.75
543.947	11.78
544.144	11.96
544.341	12.02
544.539	12.1
544.736	12.11
544.933	12.15
545.13	12.21
545.327	12.27
545.524	12.3
545.722	12.36
545.919	12.49
546.116	12.49
546.313	12.49
546.51	12.59
546.707	12.71
546.904	12.76
547.101	12.88
547.298	12.92
547.495	12.99
547.692	13.11
547.889	13.21
548.086	13.37
548.283	13.44
548.48	13.56
548.677	13.57
548.874	13.54
549.07	13.48
549.267	13.65
549.464	13.64
549.661	13.81
549.858	13.9
550.055	14.12
550.251	14.2
550.448	14.26
550.645	14.3
550.842	14.41
551.038	14.59
551.235	14.74
551.432	14.71
551.628	14.95
551.825	15.09
552.022	15.12
552.218	15.19
552.415	15.21
552.612	15.38
552.808	15.61
553.005	15.75
553.201	15.92
553.398	16.01
553.594	15.99
553.791	16
553.987	16.15
554.184	16.11
554.38	16.01
554.577	16.16
554.773	16.06
554.97	15.99
555.166	16.1
555.362	15.98
555.559	16.02
555.755	16.24
555.952	16.21
556.148	16.11
556.344	16.37
556.541	16.67
556.737	16.71
556.933	17.03
557.129	17.13
557.326	17.3
557.522	17.39
557.718	17.62
557.914	17.76
558.11	17.85
558.307	18
558.503	18.11
558.699	17.96
558.895	17.96
559.091	18.1
559.287	18.3
559.483	18.29
559.679	18.46
559.876	18.44
560.072	18.46
560.268	18.74
560.464	18.82
560.66	18.88
560.856	19.07
561.052	19.15
561.247	19.1
561.443	19.04
561.639	19.1
561.835	19.26
562.031	19.39
562.227	19.41
562.423	19.33
562.619	19.51
562.815	19.56
563.01	19.59
563.206	19.77
563.402	20.02
563.598	20.07
563.793	20.13
563.989	20.15
564.185	20.28
564.381	20.38
564.576	20.77
564.772	20.68
564.968	20.88
565.163	21.07
565.359	21.04
565.555	20.96
565.75	21.04
565.946	21.21
566.141	21.33
566.337	21.35
566.532	21.3
566.728	21.21
566.923	21.37
567.119	21.35
567.314	21.31
567.51	21.4
567.705	21.51
567.901	21.7
568.096	21.75
568.292	21.62
568.487	21.65
568.682	22.01
568.878	22.17
569.073	22.1
569.268	22.23
569.464	22.3
569.659	22.4
569.854	22.44
570.05	22.45
570.245	22.59
570.44	22.7
570.635	22.71
570.831	22.56
571.026	22.75
571.221	22.92
571.416	23.03
571.611	23.08
571.806	23.18
572.002	23.37
572.197	23.34
572.392	23.32
572.587	23.33
572.782	23.53
572.977	23.79
573.172	23.64
573.367	23.63
573.562	23.51
573.757	23.71
573.952	23.88
574.147	23.94
574.342	24.22
574.537	24.35
574.732	24.52
574.927	24.48
575.121	24.41
575.316	24.54
575.511	24.7
575.706	24.71
575.901	24.8
576.096	24.86
576.29	24.83
576.485	24.86
576.68	25.05
576.875	25.07
577.069	25.26
577.264	25.53
577.459	25.52
577.654	25.62
577.848	25.96
578.043	25.82
578.238	25.6
578.432	25.6
578.627	25.67
578.821	25.48
579.016	25.74
579.21	25.59
579.405	25.42
579.6	25.52
579.794	25.53
579.989	25.51
580.183	25.73
580.378	25.8
580.572	26.17
580.766	26.19
580.961	26.3
581.155	26.35
581.35	26.68
581.544	26.79
581.738	26.9
581.933	26.94
582.127	26.85
582.321	26.93
582.516	27.24
582.71	27.04
582.904	26.99
583.099	27.11
583.293	27.08
583.487	27.06
583.681	27.41
583.875	27.3
584.07	27.52
584.264	27.71
584.458	27.8
584.652	27.7
584.846	27.98
585.04	28.16
585.234	28.28
585.428	28.4
585.623	28.42
585.817	28.16
586.011	28.63
586.205	28.59
586.399	28.76
586.593	28.74
586.787	28.95
586.981	28.67
587.174	28.6
587.368	28.41
587.562	28.26
587.756	28.46
587.95	28.45
588.144	28.22
588.338	28.18
588.532	28.05
588.725	27.99
588.919	28
589.113	28.29
589.307	28.25
589.501	28.28
589.694	28.59
589.888	28.46
590.082	28.46
590.275	28.18
590.469	28.21
590.663	28.24
590.856	28.36
591.05	28.49
591.244	28.4
591.437	28.46
591.631	28.6
591.824	28.74
592.018	28.92
592.212	29.19
592.405	29.76
592.599	29.85
592.792	29.9
592.986	30.05
593.179	29.93
593.372	30.07
593.566	30.31
593.759	30.46
593.953	30.49
594.146	30.43
594.339	30.47
594.533	30.62
594.726	30.69
594.92	30.91
595.113	30.88
595.306	31
595.499	30.95
595.693	30.87
595.886	30.77
596.079	30.59
596.272	30.75
596.466	30.72
596.659	30.56
596.852	30.49
597.045	30.42
597.238	30.5
597.431	30.44
597.624	30.6
597.818	30.6
598.011	30.74
598.204	30.79
598.397	30.75
598.59	30.93
598.783	30.76
598.976	30.9
599.169	30.87
599.362	30.87
599.555	31.11
599.748	31
599.941	31
600.134	31.14
600.326	31.42
600.519	31.43
600.712	31.4
600.905	31.59
601.098	31.6
601.291	31.89
601.483	31.99
601.676	31.88
601.869	31.81
602.062	32.08
602.255	32.1
602.447	31.93
602.64	32.03
602.833	31.93
603.025	31.97
603.218	32.35
603.411	32.32
603.603	32.48
603.796	32.43
603.989	32.66
604.181	32.64
604.374	32.56
604.566	32.56
604.759	32.67
604.951	32.89
605.144	33
605.336	32.74
605.529	32.76
605.721	32.78
605.914	33
606.106	32.9
606.299	32.89
606.491	32.82
606.683	32.82
606.876	32.68
607.068	32.62
607.26	32.62
607.453	32.89
607.645	33.13
607.837	33.13
608.03	33.13
608.222	33.31
608.414	33.35
608.606	33.55
608.799	33.69
608.991	33.75
609.183	33.75
609.375	33.74
609.567	33.63
609.759	33.3
609.952	33.1
610.144	32.95
610.336	32.97
610.528	33.08
610.72	33.13
610.912	33.16
611.104	33.22
611.296	33.38
611.488	33.38
611.68	33.5
611.872	33.64
612.064	33.86
612.256	34.01
612.448	34.14
612.64	34.34
612.832	34.19
613.023	34.23
613.215	34.37
613.407	34.18
613.599	34.51
613.791	34.63
613.983	34.73
614.174	34.79
614.366	34.92
614.558	34.68
614.75	34.29
614.941	34.62
615.133	34.47
615.325	34.52
615.516	34.54
615.708	34.17
615.9	34.14
616.091	34.39
616.283	34.31
616.475	34.21
616.666	34.18
616.858	34.17
617.049	33.92
617.241	33.96
617.432	33.73
617.624	33.64
617.815	33.78
618.007	33.41
618.198	33.31
618.39	33.48
618.581	33.68
618.773	34.05
618.964	34.23
619.155	34.4
619.347	34.56
619.538	34.71
619.729	34.77
619.921	34.78
620.112	35.2
620.303	35.06
620.494	34.7
620.686	34.67
620.877	34.4
621.068	34.46
621.259	34.74
621.451	34.69
621.642	34.77
621.833	35.15
622.024	35.27
622.215	35.4
622.406	35.68
622.597	36.09
622.788	36
622.98	36.26
623.171	36.22
623.362	36.02
623.553	36.29
623.744	36.07
623.935	35.73
624.126	35.79
624.317	35.7
624.508	35.45
624.698	35.58
624.889	35.71
625.08	35.62
625.271	35.52
625.462	35.38
625.653	35.23
625.844	35.38
626.034	35.57
626.225	35.65
626.416	35.51
626.607	35.84
626.798	35.77
626.988	35.71
627.179	35.9
627.37	36.44
627.56	36.53
627.751	36.34
627.942	36.36
628.132	36.36
628.323	36.38
628.514	36.69
628.704	36.62
628.895	36.68
629.085	36.86
629.276	36.58
629.466	36.29
629.657	36.25
629.847	36.72
630.038	36.92
630.228	37.24
630.419	37.29
630.609	37.12
630.8	37.05
630.99	36.75
631.181	36.94
631.371	37.3
631.561	37.42
631.752	37.58
631.942	37.56
632.132	37.59
632.323	37.39
632.513	37.18
632.703	37.08
632.893	37.3
633.084	37.66
633.274	37.53
633.464	37.39
633.654	37.52
633.844	37.75
634.034	37.57
634.225	37.57
634.415	37.72
634.605	37.77
634.795	37.95
634.985	37.88
635.175	38.09
635.365	38.08
635.555	38.36
635.745	38.1
635.935	38.01
636.125	38.31
636.315	38.11
636.505	37.89
636.695	38.24
636.885	38.34
637.075	38.21
637.265	38.04
637.455	37.94
637.644	37.9
637.834	37.97
638.024	37.92
638.214	37.74
638.404	37.67
638.593	38.07
638.783	37.99
638.973	37.97
639.163	38.07
639.352	38.01
639.542	38.4
639.732	38.12
639.921	37.98
640.111	37.94
640.301	38.04
640.49	38.43
640.68	38.03
640.87	38.07
641.059	38.36
641.249	38.62
641.438	38.64
641.628	38.33
641.817	38.63
642.007	38.85
642.196	39.44
642.386	39.07
642.575	39.06
642.764	39.05
642.954	38.8
643.143	38.35
643.333	37.99
643.522	38.06
643.711	38.28
643.901	38.17
644.09	38.17
644.279	37.53
644.469	37.9
644.658	37.77
644.847	37.74
645.036	37.62
645.226	37.84
645.415	38.52
645.604	38.51
645.793	38.28
645.982	38.2
646.171	38.5
646.361	38.82
646.55	38.99
646.739	39.46
646.928	39.72
647.117	40.19
647.306	40.33
647.495	39.57
647.684	39.44
647.873	39.67
648.062	39.86
648.251	39.63
648.44	39.57
648.629	39.61
648.818	39.34
649.007	39.19
649.196	39.04
649.384	38.68
649.573	39.06
649.762	39.18
649.951	39.3
650.14	39.04
650.328	39.23
650.517	39.33
650.706	39.06
650.895	38.94
651.083	38.87
651.272	38.57
651.461	38.65
651.65	38.37
651.838	38.25
652.027	38.27
652.216	38.49
652.404	38.08
652.593	38
652.781	38.36
652.97	38.27
653.158	38.67
653.347	39.01
653.535	39.2
653.724	39.74
653.912	39.72
654.101	39.7
654.289	40.02
654.478	40.28
654.666	40.11
654.855	39.88
655.043	40.13
655.231	39.91
655.42	39.81
655.608	39.78
655.796	39.83
655.985	39.98
656.173	39.74
656.361	39.63
656.55	39.55
656.738	39.45
656.926	39.23
657.114	39.08
657.302	39.42
657.491	39.4
657.679	39.44
657.867	38.96
658.055	38.92
658.243	39.11
658.431	39.17
658.619	39.46
658.807	39.89
658.996	40.42
659.184	40.51
659.372	40.34
659.56	40.21
659.748	40.44
659.936	40.51
660.124	40.49
660.311	40.61
660.499	40.62
660.687	40.58
660.875	40.35
661.063	40.19
661.251	40.45
661.439	40.41
661.627	40.66
661.814	40.44
662.002	40.7
662.19	40.85
662.378	40.88
662.565	40.69
662.753	40.65
662.941	40.95
663.129	41.13
663.316	41.04
663.504	41.01
663.692	41.21
663.879	41.47
664.067	41.56
664.254	41.7
664.442	41.59
664.63	41.5
664.817	41.7
665.005	41.88
665.192	41.71
665.38	41.82
665.567	42.01
665.755	42.03
665.942	42.03
666.13	42.3
666.317	42.52
666.504	42.54
666.692	43.01
666.879	42.95
667.067	42.61
667.254	42.77
667.441	42.42
667.629	42.41
667.816	42.45
668.003	42.31
668.19	41.92
668.378	41.85
668.565	42.37
668.752	42.07
668.939	42.2
669.127	42
669.314	41.74
669.501	41.61
669.688	41.62
669.875	41.14
670.062	41.13
670.249	41.2
670.436	41.49
670.623	40.99
670.81	40.99
670.997	41
671.184	41.29
671.371	41.52
671.558	41.7
671.745	42.13
671.932	42.39
672.119	42.31
672.306	42.26
672.493	41.72
672.68	41.77
672.867	41.86
673.054	41.41
673.24	41.47
673.427	41.59
673.614	41.99
673.801	41.68
673.988	41.63
674.174	41.99
674.361	41.88
674.548	42.31
674.734	42.43
674.921	42.52
675.108	43.07
675.294	42.89
675.481	42.94
675.668	42.87
675.854	42.76
676.041	42.98
676.227	42.65
676.414	42.69
676.601	42.27
676.787	42.26
676.974	42.33
677.16	42.03
677.347	42.61
677.533	41.95
677.719	41.87
677.906	41.78
678.092	41.71
678.279	41.84
678.465	41.61
678.651	41.71
678.838	41.76
679.024	41.89
679.21	41.87
679.397	41.26
679.583	41.85
679.769	42.03
679.955	42.17
680.142	42.44
680.328	42.55
680.514	42.98
680.7	43.16
680.886	43.59
681.073	43.66
681.259	43.97
681.445	44.24
681.631	43.92
681.817	44.05
682.003	44.09
682.189	43.94
682.375	44.04
682.561	44.08
682.747	44.07
682.933	43.8
683.119	43.42
683.305	43.32
683.491	43.54
683.677	43.95
683.863	44.05
684.049	44.31
684.235	44.47
684.42	44.75
684.606	44.44
684.792	44.5
684.978	43.97
685.164	44.08
685.349	43.74
685.535	43.31
685.721	43.14
685.907	42.94
686.092	43
686.278	43.13
686.464	42.68
686.649	42.77
686.835	42.94
687.021	43.04
687.206	43.06
687.392	43.43
687.577	43.73
687.763	43.88
687.948	43.38
688.134	42.84
688.319	42.4
688.505	42.48
688.69	42.76
688.876	43.03
689.061	43.06
689.247	43.29
689.432	43.59
689.618	43.42
689.803	43.28
689.988	43.76
690.174	44.15
690.359	44.15
690.544	44.37
690.73	44.58
690.915	44.19
691.1	43.79
691.285	43.89
691.471	43.45
691.656	43.71
691.841	43.66
692.026	43.49
692.211	43.55
692.396	44.12
692.582	44.37
692.767	43.81
692.952	43.67
693.137	43.97
693.322	43.96
693.507	43.57
693.692	43.34
693.877	43.33
694.062	43.55
694.247	43.54
694.432	43.45
694.617	43.39
694.802	43.46
694.987	44.09
695.172	44.34
695.357	44.14
695.541	44.7
695.726	44.65
695.911	44.8
696.096	45.01
696.281	45.11
696.466	44.73
696.65	44.51
696.835	45
697.02	44.29
697.204	44.23
697.389	44.62
697.574	44.36
697.759	44.45
697.943	44.02
698.128	43.62
698.312	43.67
698.497	43.73
698.682	43.61
698.866	43.54
699.051	43.98
699.235	44.38
699.42	44.2
699.604	44.27
699.789	44.17
699.973	44.34
700.158	44.21
700.342	44.31
700.527	44.23
700.711	44.57
700.895	44.26
701.08	44.07
701.264	43.22
701.448	43.11
701.633	43.08
701.817	43.46
702.001	43.56
702.186	44.28
702.37	44.33
702.554	44.67
702.738	44.78
702.923	45.28
703.107	45.45
703.291	46.1
703.475	46.27
703.659	46.34
703.843	46.48
704.027	46.94
704.212	46.26
704.396	46.04
704.58	46.37
704.764	45.52
704.948	45.62
705.132	45.72
705.316	45.82
705.5	45.29
705.684	45.42
705.868	45.03
706.052	44.41
706.235	44.64
706.419	44.89
706.603	44.49
706.787	44.72
706.971	44.44
707.155	44.15
707.339	44.42
707.522	45.11
707.706	45.38
707.89	45.41
708.074	46.16
708.257	46.15
708.441	45.71
708.625	46.06
708.808	46.41
708.992	46.73
709.176	47.14
709.359	46.81
709.543	47
709.727	47.41
709.91	47.27
710.094	47.1
710.277	47.1
710.461	47.03
710.644	46.68
710.828	46.6
711.011	46.44
711.195	45.72
711.378	45.7
711.562	45.37
711.745	44.94
711.928	45.05
712.112	45.12
712.295	45.39
712.478	45.32
712.662	45.65
712.845	45.69
713.028	45.2
713.212	45.31
713.395	45.11
713.578	44.91
713.761	44.87
713.945	45.12
714.128	45.05
714.311	44.67
714.494	45.22
714.677	44.97
714.86	44.16
715.043	44.08
715.227	44.33
715.41	44.45
715.593	44.93
715.776	44.84
715.959	44.39
716.142	44.62
716.325	45.36
716.508	45.32
716.691	45.54
716.874	46.2
717.057	46.58
717.239	46.87
717.422	47.35
717.605	46.95
717.788	47.1
717.971	47.72
718.154	47.76
718.337	47.41
718.519	46.79
718.702	46.53
718.885	46.75
719.068	47.16
719.25	47
719.433	46.49
719.616	46.5
719.798	46.2
719.981	45.62
720.164	45.34
720.346	45.55
720.529	45.61
720.712	45.6
720.894	45.77
721.077	46.09
721.259	46.09
721.442	46.26
721.624	46.51
721.807	46.44
721.989	46.95
722.172	46.78
722.354	46.37
722.537	46.94
722.719	47.32
722.901	47.08
723.084	46.78
723.266	46.01
723.448	45.78
723.631	45.53
723.813	46.24
723.995	45.9
724.178	45.42
724.36	45.28
724.542	45.57
724.724	45.6
724.907	45.36
725.089	44.96
725.271	45.96
725.453	46.01
725.635	45.78
725.817	45.73
725.999	46.47
726.181	47.32
726.364	48.07
726.546	47.32
726.728	46.88
726.91	47.64
727.092	48.23
727.274	47.94
727.456	48.17
727.638	48.73
727.819	48.75
728.001	48.41
728.183	48.28
728.365	48.31
728.547	48.41
728.729	48.92
728.911	48.93
729.093	48.4
729.274	48.53
729.456	48.38
729.638	47.62
729.82	47.31
730.001	47.3
730.183	46.93
730.365	46.38
730.546	46.02
730.728	45.7
730.91	45.17
731.091	44.5
731.273	44.92
731.455	45.1
731.636	45.23
731.818	46.03
731.999	45.61
732.181	45.32
732.362	45.06
732.544	45.45
732.725	45.35
732.907	45.05
733.088	45.44
733.27	45.22
733.451	45.2
733.633	46.01
733.814	45.36
733.995	45.86
734.177	46.33
734.358	46.81
734.539	47.22
734.721	47.45
734.902	47.15
735.083	47.72
735.264	47.01
735.446	47.65
735.627	47.63
735.808	47.16
735.989	47.25
736.17	47
736.351	47.03
736.533	46.65
736.714	47.05
736.895	47.86
737.076	47.97
737.257	48.9
737.438	48.72
737.619	47.95
737.8	47.95
737.981	47.87
738.162	48.46
738.343	48.38
738.524	48.86
738.705	48.16
738.886	48.25
739.067	47.46
739.247	47.09
739.428	46.08
739.609	46.37
739.79	46.02
739.971	45.96
740.151	45.44
740.332	44.72
740.513	44.93
740.694	45.75
740.874	45.27
741.055	46.52
741.236	45.35
741.417	46.2
741.597	46.21
741.778	47.31
741.958	47.3
742.139	47.55
742.32	49.04
742.5	48.78
742.681	48.49
742.861	48.94
743.042	48.3
743.222	48.89
743.403	49.27
743.583	49.03
743.764	48.7
743.944	48.39
744.124	48.73
744.305	47.52
744.485	47.42
744.666	46.67
744.846	46.88
745.026	47.3
745.207	47.61
745.387	47.26
745.567	47.62
745.747	47.87
745.928	48.79
746.108	48.41
746.288	49.11
746.468	49.83
746.648	49.98
746.829	49.28
747.009	48.95
747.189	48.92
747.369	48.6
747.549	48.41
747.729	48.35
747.909	47.92
748.089	48.58
748.269	48.87
748.449	47.44
748.629	47.4
748.809	47.64
748.989	47.55
749.169	48.66
749.349	48.81
749.529	48.92
749.709	49.35
749.889	50.22
750.068	50.52
750.248	50.47
750.428	50.59
750.608	50.47
750.788	50.33
750.967	50.77
751.147	50.29
751.327	50.25
751.507	50.95
751.686	50.41
751.866	49.65
752.046	49.01
752.225	48.08
752.405	49.66
752.585	49.79
752.764	49.77
752.944	49.24
753.123	48.84
753.303	49.09
753.482	48.23
753.662	49.36
753.841	49.84
754.021	49.72
754.2	50.92
754.38	50.16
754.559	50.5
754.739	50.53
754.918	50.46
755.097	49.91
755.277	49.54
755.456	48.74
755.635	47.87
755.815	47.15
755.994	47.2
756.173	46.51
756.352	46.19
756.532	46.17
756.711	45.86
756.89	46.05
757.069	46.97
757.248	47.22
757.427	49.04
757.607	49.44
757.786	49.07
757.965	49.55
758.144	50.11
758.323	49.93
758.502	50.07
758.681	51.04
758.86	50.39
759.039	50.03
759.218	50.14
759.397	48.78
759.576	48.25
759.755	49.04
759.934	48.53
760.113	48.11
760.291	48.56
760.47	48.87
760.649	48.81
760.828	49.06
761.007	49.26
761.186	49.26
761.364	49.9
761.543	49.07
761.722	47.61
761.901	47.37
762.079	47.86
762.258	48.06
762.437	46.95
762.615	46.44
762.794	46.63
762.972	45.99
763.151	45.94
763.33	46.13
763.508	47.06
763.687	48.16
763.865	48.17
764.044	48.04
764.222	48.1
764.401	47.95
764.579	47.48
764.758	47.06
764.936	47.76
765.114	47.66
765.293	47.21
765.471	46.73
765.65	46.35
765.828	46.27
766.006	46.1
766.184	45.04
766.363	46.82
766.541	47.46
766.719	47.99
766.898	48.28
767.076	48.27
767.254	48.38
767.432	48.64
767.61	48.82
767.788	48.92
767.967	49.11
768.145	49.74
768.323	48.56
768.501	49.01
768.679	49.58
768.857	49.36
769.035	48.85
769.213	49.15
769.391	49.91
769.569	50.1
769.747	51.15
769.925	50.71
770.103	50.68
770.281	51.99
770.459	51.07
770.636	50.82
770.814	51.64
770.992	51.61
771.17	51.62
771.348	50.41
771.525	49
771.703	47.41
771.881	46.22
772.059	45.68
772.236	44.14
772.414	45.58
772.592	45.55
772.769	46.5
772.947	48.13
773.125	47.79
773.302	49
773.48	51.1
773.657	53.28
773.835	54.81
774.013	56.84
774.19	56.44
774.368	56.76
774.545	57.08
774.723	56.04
774.9	55.27
775.077	56.62
775.255	56.29
775.432	56.85
775.61	56.38
775.787	55.76
775.964	55.86
776.142	58.51
776.319	58.42
776.496	57.86
776.674	57.06
776.851	56.13
777.028	54.52
777.205	55.61
777.382	54.04
777.56	53.67
777.737	54.48
777.914	52.9
778.091	52.24
778.268	50.45
778.445	50.21
778.622	50.52
778.8	51.53
778.977	52.18
779.154	43.08
779.331	43.61
779.508	43.21
779.685	43.72
779.862	44
780.038	41.95
780.215	42.41
780.392	43.48
780.569	43.38
780.746	41.46
780.923	41.16
781.1	49.41
781.277	49.55
781.453	51.19
781.63	49.68
781.807	49.91
781.984	49.63
782.16	50.27
782.337	47.45
782.514	47.81
782.691	49.49
782.867	49.87
783.044	49.63
783.221	50.21
783.397	50.7
783.574	51.62
783.75	52.55
783.927	54.08
784.103	53.86
784.28	55.14
784.456	54.12
784.633	54.42
784.809	55.46
784.986	54.89
785.162	56.54
785.339	55.84
785.515	56.99
785.692	55.64
785.868	55.34
786.044	56.35
786.221	58.45
786.397	59.78
786.573	59.95
786.749	58.39
786.926	58.23
787.102	58.02
787.278	56.22
787.454	55.65
787.631	56.56
787.807	56.77
787.983	55.96
788.159	56
788.335	54.61
788.511	53.69
788.687	54.82
788.863	56.06
789.039	54.66
789.216	56.35
789.392	55.66
789.568	56.02
789.744	55.26
789.919	54.95
790.095	55.1
790.271	55.88
790.447	55.52
790.623	54.03
790.799	53.45
790.975	52.06
791.151	50.71
791.327	50.53
791.502	48.9
791.678	49.87
791.854	51.61
792.03	48.67
792.205	48.89
792.381	49.12
792.557	50.3
792.733	49.79
792.908	50.65
793.084	49.95
793.259	50.25
793.435	51.02
793.611	50.59
793.786	48.91
793.962	50.95
794.137	51.32
794.313	51.9
794.488	52.94
794.664	53.73
794.839	53.66
795.015	54.31
795.19	54.3
795.366	54.95
795.541	54.73
795.716	54.16
795.892	54.17
796.067	53.3
796.242	54.3
796.418	54.41
796.593	55.6
796.768	56.27
796.944	54.77
797.119	55.65
797.294	55.25
797.469	55.81
797.644	56.99
797.82	56.91
797.995	55.79
798.17	56.38
798.345	55.49
798.52	53.04
798.695	52.76
798.87	56.13
799.045	55.4
799.22	53.67
799.395	51.5
799.57	50.8
799.745	51.13
799.92	53.04
800.095	52.76
800.27	53.76
800.445	54.41
800.62	54.04
800.795	52.42
800.97	50.92
801.145	51.34
801.319	54.9
801.494	54.13
801.669	54.89
801.844	54.46
802.018	54.21
802.193	53.7
802.368	55.88
802.543	55.5
802.717	56.83
802.892	58.05
803.067	60.66
803.241	59.22
803.416	60.37
803.59	58.12
803.765	57.37
803.94	56.8
804.114	56.63
804.289	55.49
804.463	56.83
804.638	55.71
804.812	54.61
804.986	53.84
805.161	55.14
805.335	56.74
805.51	58.57
805.684	59.53
805.858	58.16
806.033	58.38
806.207	57.96
806.381	57.2
806.556	58.12
806.73	61.89
806.904	62.49
807.078	59.24
807.253	58.86
807.427	58.38
807.601	56.6
807.775	58.15
807.949	57.07
808.123	57.8
808.298	56.28
808.472	55.87
808.646	51.68
808.82	50.51
808.994	51.78
809.168	51.52
809.342	52.02
809.516	51.94
809.69	54.33
809.864	52.92
810.038	52.98
810.212	53.12
810.385	52.8
810.559	53.89
810.733	54.45
810.907	55.29
811.081	51.57
811.255	51.37
811.428	51.54
811.602	50.87
811.776	52.27
811.95	48.93
812.123	49.53
812.297	48.26
812.471	47.98
812.644	45.82
812.818	45.84
812.992	48.29
813.165	48.83
813.339	47.94
813.512	44.25
813.686	42.86
813.86	45.44
814.033	44.78
814.207	45.28
814.38	45.58
814.554	45.44
814.727	43.55
814.9	43.65
815.074	43.25
815.247	44.55
815.421	46.95
815.594	48.83
815.767	48.88
815.941	50.28
816.114	52.37
816.287	51.97
816.46	53.54
816.634	55.17
816.807	55.37
816.98	55.37
817.153	55.79
817.327	55.18
817.5	55.85
817.673	56.86
817.846	59.16
818.019	59.41
818.192	60.72
818.365	62.36
818.538	63.74
818.711	63.66
818.884	63.34
819.057	64.13
819.23	62.59
819.403	60.7
819.576	58.84
819.749	57.56
819.922	56.36
820.095	55.56
820.268	53.51
820.441	50.66
820.614	51.66
820.786	52.64
820.959	51.55
821.132	53.04
821.305	52.28
821.477	51.33
821.65	50.51
821.823	49.78
821.996	49.39
822.168	49.25
822.341	49.33
822.514	49.16
822.686	47.67
822.859	47.32
823.031	46.29
823.204	46.48
823.376	47.06
823.549	46.88
823.722	46.54
823.894	46.89
824.067	46.74
824.239	46.85
824.411	46.63
824.584	47.29
824.756	48.04
824.929	48.18
825.101	47.92
825.273	47.14
825.446	47.37
825.618	47.15
825.79	47.43
825.963	48.19
826.135	47.82
826.307	47.62
826.479	47.59
826.652	47.72
826.824	47.85
826.996	47.83
827.168	48.03
827.34	48.82
827.512	49.52
827.684	48.52
827.856	47.83
828.029	47.94
828.201	48.18
828.373	47.6
828.545	47.26
828.717	48.01
828.889	49.18
829.061	50.24
829.232	49.19
829.404	50.52
829.576	51.16
829.748	51.78
829.92	52.94
830.092	52.76
830.264	53.36
830.436	53.52
830.607	52.77
830.779	52.1
830.951	49.52
831.123	49.32
831.294	47.65
831.466	47.66
831.638	45.95
831.809	45.65
831.981	46.72
832.153	50.7
832.324	50.55
832.496	50.48
832.667	49.05
832.839	52.11
833.011	53.55
833.182	51.2
833.354	49.6
833.525	51.89
833.697	51.74
833.868	49.84
834.039	47.45
834.211	45.19
834.382	44.59
834.554	46.53
834.725	47.49
834.896	45.46
835.068	46.22
835.239	46.61
835.41	45.93
835.581	45.1
835.753	45.86
835.924	46.72
836.095	48.7
836.266	49.08
836.438	46.49
836.609	44.82
836.78	45.03
836.951	46.23
837.122	47.63
837.293	48.41
837.464	49.94
837.635	51.05
837.806	50.97
837.977	50.53
838.148	54.9
838.319	57.8
838.49	60.36
838.661	63.76
838.832	63.09
839.003	63.33
839.174	64.61
839.345	64.01
839.516	62.29
839.687	60.09
839.857	61.03
840.028	57.9
840.199	56.68
840.37	52.28
840.54	51.22
840.711	53.84
840.882	55.6
841.053	52.68
841.223	53.3
841.394	56.21
841.564	56.76
841.735	58.14
841.906	57.38
842.076	58.33
842.247	58.74
842.417	57.33
842.588	56.28
842.758	55.26
842.929	55.39
843.099	54.62
843.27	58.25
843.44	60.02
843.611	57.69
843.781	59.93
843.951	65.1
844.122	73.21
844.292	75.5
844.462	73.89
844.633	78.35
844.803	79.58
844.973	80.07
845.144	77.21
845.314	76.74
845.484	79.5
845.654	78.95
845.824	82.66
845.995	78.55
846.165	80.01
846.335	86.07
846.505	80.95
846.675	81.33
846.845	77.98
847.015	75.5
847.185	72.01
847.355	67.66
847.525	60.21
847.695	51.01
847.865	53.02
848.035	56.62
848.205	59.66
848.375	60.4
848.545	57.36
848.715	57.9
848.884	65.7
849.054	74.85
849.224	78.96
849.394	86.68
849.564	89.35
849.733	91.21
849.903	86.38
850.073	84.33
850.243	81.86
850.412	82.29
850.582	77.48
850.752	66.56
850.921	56.96
851.091	56
851.26	60.38
851.43	51.62
851.599	44.31
851.769	51.5
851.939	61.33
852.108	56.13
852.278	56.43
852.447	71.38
852.616	71.54
852.786	70.14
852.955	82.14
853.125	90.64
853.294	102.22
853.463	104.62
853.633	95
853.802	96.38
853.971	106.31
854.141	109.57
854.31	91.95
854.479	92.46
854.648	95.36
854.818	91.21
854.987	86.71
855.156	85.52
855.325	92.83
855.494	99.95
855.663	94.42
855.832	90.14
856.001	100.19
856.171	121
856.34	114.09
856.509	113.98
856.678	110.37
856.847	103.57
857.016	93.4
857.185	70.06
857.353	70.9
857.522	59.1
857.691	46.18
857.86	41.76
858.029	41.13
858.198	38.58
858.367	45.88
858.535	36.44
858.704	36.09
858.873	37.44
859.042	41.53
859.21	34.69
859.379	42.82
859.548	50.76
859.717	44.91
859.885	36.94
860.054	46.7
860.222	45.45
860.391	55.03
860.56	64.09
860.728	72.76
860.897	72.67
861.065	81.9
861.234	86.5
861.402	85.84
861.571	93.54
861.739	100.58
861.908	101.09
862.076	106.63
862.244	98.73
862.413	95.99
862.581	96.7
862.749	96.86
862.918	89.13
863.086	93.27
863.254	89.65
863.423	89.92
863.591	83.59
863.759	82.01
863.927	77.8
864.096	83.41
864.264	79.75
864.432	61.33
864.6	61.92
864.768	75.58
864.936	66.45
865.104	63.52
865.272	54.87
865.44	49.41
865.608	46.62
865.776	49.93
865.944	43.34
866.112	35.01
866.28	34.69
866.448	38.08
866.616	36.8
866.784	33.82
866.952	36.38
867.12	45.66
867.288	39.32
867.455	50.57
867.623	46.91
867.791	50.39
867.959	57.29
868.127	65.92
868.294	59.94
868.462	61.18
868.63	61.17
868.797	69.3
868.965	58.44
869.133	73.87
869.3	65.81
869.468	64.74
869.636	63.58
869.803	69.12
869.971	67.97
870.138	74.55
870.306	73.37
870.473	73.39
870.641	60.51
870.808	72.56
870.975	61.64
871.143	68.42
871.31	65.95
871.478	76.08
871.645	69.44
871.812	65.02
871.98	60.82
872.147	59.59
872.314	64.9
872.482	67.66
872.649	62.72
872.816	67.1
872.983	65.05
873.15	72.06
873.318	63.29
873.485	70.28
873.652	80.31
873.819	78.73
873.986	72.23
874.153	70.76
874.32	77.82
874.487	67.02
874.654	61.6
874.821	58.05
874.988	53.17
875.155	62.95
875.322	53.54
875.489	47.66
875.656	48.19
875.823	53.71
875.99	51.78
876.157	49.48
876.324	58.34
876.49	71.6
876.657	71.58
876.824	71.42
876.991	69.46
877.157	73.58
877.324	82.47
877.491	77.98
877.658	68.63
877.824	67.64
877.991	63.61
878.157	63.11
878.324	53.45
878.491	60.6
878.657	60.17
878.824	58.32
878.99	52.08
879.157	46.98
879.323	52.75
879.49	56.86
879.656	67.07
879.823	69.19
879.989	70.03
880.156	69.94
880.322	63.44
880.488	55.56
880.655	56.62
880.821	57.65
880.987	57.19
881.154	57.38
881.32	59.83
881.486	53.17
881.652	55.73
881.819	54.86
881.985	54.82
882.151	55.33
882.317	57.5
882.483	53.99
882.649	54.26
882.816	53.74
882.982	51.62
883.148	50.1
883.314	48.9
883.48	48.69
883.646	47.71
883.812	47.76
883.978	47.05
884.144	46.56
884.31	48.13
884.476	47.32
884.642	48.01
884.807	47.92
884.973	48.53
885.139	49.73
885.305	50.4
885.471	51.38
885.637	49.71
885.802	49.99
885.968	49.9
886.134	48.71
886.3	50.94
886.465	47.88
886.631	48.61
886.797	47.98
886.962	46.52
887.128	43.34
887.293	41.92
887.459	46.54
887.625	46.2
887.79	47.21
887.956	47.34
888.121	44.14
888.287	48.14
888.452	48.47
888.618	49.3
888.783	50.18
