Data from LC_209__Reflection_2.txt Node
Date: Thu Nov 19 12:09:26 EST 2015
User: robert
Spectrometer: USB4E03001
Autoset integration time: false
Trigger mode: 4
Integration Time (sec): 1.000000E-1
Scans to average: 15
Electric dark correction enabled: true
Nonlinearity correction enabled: false
Boxcar width: 5
Stray light correction enabled: false
XAxis mode: Wavelengths
Stop averaging: false
Number of Pixels in Spectrum: 3648
>>>>>Begin Spectral Data<<<<<
177.566	1128.43
177.785	-1070.85
178.005	416.46
178.225	169.03
178.445	143.95
178.665	70.72
178.885	-337.12
179.105	-1085.16
179.324	-518.59
179.544	-1414.26
179.764	467.81
179.984	2030.37
180.204	1089.32
180.423	373.42
180.643	219.74
180.863	160.16
181.083	195.41
181.302	265.09
181.522	484.16
181.742	192.29
181.961	183.9
182.181	184.56
182.401	144.71
182.621	166.04
182.84	164.74
183.06	157.83
183.279	197.87
183.499	121.22
183.719	141.12
183.938	122.45
184.158	377.63
184.377	309.12
184.597	834.12
184.816	-739.84
185.036	-255.96
185.256	-107.83
185.475	-54.62
185.695	-9.44
185.914	2.05
186.134	-12.9
186.353	-10.56
186.572	-16.23
186.792	-51.53
187.011	-0.33
187.231	132.64
187.45	545.98
187.67	320.4
187.889	266.58
188.108	1470.99
188.328	455.37
188.547	406.41
188.766	-1262.95
188.986	-137.7
189.205	-86.29
189.424	-105.08
189.644	-131.23
189.863	-292.05
190.082	-218.27
190.302	-205.69
190.521	-271.37
190.74	-262.44
190.959	-1910.54
191.178	-1774.14
191.398	-1225.47
191.617	-4147.58
191.836	-3818.86
192.055	-917.2
192.274	-466.1
192.494	-137.69
192.713	-246.38
192.932	-242.9
193.151	-395.91
193.37	-162.12
193.589	-494.13
193.808	1338.46
194.027	-920.09
194.246	-197.26
194.465	752.01
194.685	-3698.9
194.904	326.34
195.123	1804.4
195.342	550.66
195.561	387.41
195.78	2360.95
195.999	658.22
196.218	-1052.35
196.436	22892.31
196.655	-1652.82
196.874	-51.81
197.093	-114.4
197.312	-62.76
197.531	55.5
197.75	-162.12
197.969	31.74
198.188	-521.54
198.407	178.9
198.625	115.64
198.844	110.64
199.063	114.11
199.282	89.05
199.501	93.82
199.719	98.06
199.938	121.65
200.157	113.66
200.376	164.17
200.594	159.42
200.813	149.96
201.032	182.43
201.251	173.17
201.469	58.58
201.688	104.64
201.907	128.25
202.125	142.03
202.344	119.37
202.563	120.42
202.781	117.72
203	164.88
203.218	196.22
203.437	306.19
203.656	586.79
203.874	3084.84
204.093	1109.94
204.311	-1127.53
204.53	-223.42
204.748	-99.26
204.967	-71.99
205.185	-45.28
205.404	-52.53
205.622	-47.83
205.841	-123.31
206.059	-357.8
206.278	-5060.36
206.496	-526.86
206.715	-2319.23
206.933	163.06
207.151	101.31
207.37	121.49
207.588	195.91
207.806	116.85
208.025	150.5
208.243	115.81
208.461	288.56
208.68	804.2
208.898	365.74
209.116	-20221.15
209.335	785.92
209.553	-439.28
209.771	-363.49
209.989	-1050.42
210.208	-408.08
210.426	-670.03
210.644	689
210.862	442.21
211.081	862.92
211.299	343.18
211.517	248.59
211.735	5960.58
211.953	516.08
212.171	158.89
212.39	160.21
212.608	124.94
212.826	172.02
213.044	343.67
213.262	263.55
213.48	150.8
213.698	304.59
213.916	182.09
214.134	155.71
214.352	177.62
214.57	241.03
214.788	550.94
215.006	-4136.54
215.224	-329.48
215.442	-183.71
215.66	-122.49
215.878	-173.46
216.096	-160.77
216.314	-229.54
216.532	-202.2
216.75	-189.96
216.968	-109.55
217.185	-97.72
217.403	-71.77
217.621	-158.92
217.839	-168.98
218.057	-164.27
218.275	-38.21
218.492	-33.41
218.71	-4.55
218.928	-14.73
219.146	-20.27
219.363	-24.85
219.581	-26.89
219.799	-39.81
220.017	-6.05
220.234	-16.34
220.452	-34.47
220.67	-264.28
220.887	-110.4
221.105	-60.28
221.323	-51.83
221.54	0.46
221.758	20.58
221.976	1.72
222.193	-6.01
222.411	-5.32
222.629	-3.11
222.846	-4.35
223.064	-3.91
223.281	-15.65
223.499	-21
223.716	-14.78
223.934	-41.7
224.151	-82.06
224.369	-99.97
224.586	-90.85
224.804	-428.42
225.021	-233.7
225.239	-297.51
225.456	-385.81
225.674	-379.67
225.891	-161.99
226.108	-141.61
226.326	-124.59
226.543	-116.69
226.76	-114.96
226.978	-130.13
227.195	-66.26
227.413	-59.99
227.63	-46.11
227.847	-25.38
228.064	-20.27
228.282	-15.64
228.499	-16.17
228.716	-7.46
228.934	-1.89
229.151	2.53
229.368	2.19
229.585	2.91
229.802	3.13
230.02	9.39
230.237	8.46
230.454	10.33
230.671	7.86
230.888	8.22
231.105	3.92
231.323	4.27
231.54	3.61
231.757	4.06
231.974	2.21
232.191	9.08
232.408	2.72
232.625	4.49
232.842	4.78
233.059	11.26
233.276	12.48
233.493	14.37
233.71	17.13
233.927	16.36
234.144	18.02
234.361	16.13
234.578	7.69
234.795	9.99
235.012	10.09
235.229	2.68
235.446	3.64
235.663	-2.52
235.879	2.34
236.096	-4.54
236.313	-11.99
236.53	-14.82
236.747	-7.52
236.964	-5.14
237.181	-1.88
237.397	-4.24
237.614	5.53
237.831	-1.3
238.048	4.21
238.264	0.31
238.481	4.02
238.698	11.55
238.915	14.46
239.131	7.16
239.348	8.62
239.565	10.97
239.781	9
239.998	8.66
240.215	10.61
240.431	12.13
240.648	10.86
240.865	14.4
241.081	14.08
241.298	15.53
241.514	15.96
241.731	15.8
241.947	14.22
242.164	13.33
242.38	12.48
242.597	12.74
242.814	14.23
243.03	13.68
243.246	11.95
243.463	12.02
243.679	12.61
243.896	12.8
244.112	12.59
244.329	11.7
244.545	15.01
244.762	15.37
244.978	13.82
245.194	10.78
245.411	10.48
245.627	11.31
245.843	13.16
246.06	10.4
246.276	9.51
246.492	10.56
246.709	11.55
246.925	10.79
247.141	9.98
247.357	11.59
247.574	12.62
247.79	13.89
248.006	13.22
248.222	11.51
248.439	11.93
248.655	11.94
248.871	11.08
249.087	10.04
249.303	9.35
249.519	9.54
249.736	6.92
249.952	5.59
250.168	3.61
250.384	3
250.6	4.81
250.816	5.24
251.032	4.28
251.248	3.14
251.464	4.71
251.68	7.25
251.896	8.07
252.112	9.1
252.328	7.22
252.544	8.85
252.76	9.85
252.976	9.23
253.192	8.38
253.408	9.98
253.624	9.94
253.84	7.42
254.056	5.68
254.272	4.13
254.487	2.85
254.703	6.41
254.919	3.71
255.135	3.74
255.351	4.23
255.567	2.44
255.782	-2.37
255.998	-4.33
256.214	-6.13
256.43	-5.03
256.646	-3.75
256.861	-3.83
257.077	-7.05
257.293	-5.4
257.508	-5.52
257.724	-4.52
257.94	-2.48
258.155	0.98
258.371	3.21
258.587	4
258.802	5.5
259.018	5.5
259.234	6.9
259.449	7.8
259.665	7.33
259.88	7.24
260.096	6.48
260.312	7.2
260.527	6.49
260.743	6.97
260.958	8.32
261.174	7.82
261.389	7.91
261.605	8.27
261.82	7.97
262.036	7.01
262.251	7.69
262.466	9.08
262.682	7.87
262.897	7.96
263.113	6.9
263.328	6.79
263.543	5.48
263.759	5.41
263.974	2.09
264.189	0.81
264.405	1.63
264.62	-0.59
264.835	-0.88
265.051	-3.1
265.266	-2.68
265.481	-2.28
265.696	-3.47
265.912	-2.63
266.127	-1.26
266.342	1.09
266.557	2.82
266.773	4.58
266.988	4.73
267.203	4.85
267.418	6.6
267.633	8.54
267.848	8.61
268.064	8.16
268.279	9.04
268.494	8.02
268.709	8.44
268.924	8.38
269.139	8.89
269.354	8.52
269.569	7.78
269.784	6.71
269.999	5.85
270.214	5.48
270.429	7.1
270.644	5.69
270.859	6.44
271.074	5.5
271.289	5.61
271.504	5.42
271.719	6.56
271.934	6.39
272.149	6.93
272.363	7.04
272.578	6.63
272.793	5.85
273.008	8.23
273.223	7.86
273.438	7.95
273.653	7.52
273.867	7.82
274.082	7.92
274.297	8.68
274.512	8.58
274.726	7.29
274.941	9.71
275.156	9.08
275.371	7.25
275.585	8.53
275.8	6.97
276.015	6.15
276.229	5.62
276.444	5.32
276.659	4.93
276.873	4.65
277.088	5.23
277.302	3.55
277.517	4.66
277.732	5.25
277.946	3.5
278.161	5.13
278.375	4.76
278.59	4.68
278.804	5.17
279.019	4.52
279.233	5.7
279.448	6.24
279.662	5.76
279.877	5.26
280.091	4.02
280.306	4.84
280.52	5.32
280.735	6.35
280.949	7.32
281.163	7.05
281.378	7.04
281.592	6.7
281.806	5.8
282.021	6.49
282.235	5.51
282.449	5.54
282.664	5.6
282.878	5.32
283.092	6.14
283.307	5.68
283.521	4.89
283.735	5.07
283.949	5.85
284.164	5.86
284.378	5.27
284.592	6.66
284.806	7.76
285.02	6.84
285.234	6.83
285.449	6.11
285.663	5.44
285.877	5.68
286.091	6.13
286.305	5.45
286.519	5.8
286.733	6.13
286.947	6.21
287.161	4.94
287.375	5.67
287.589	5.82
287.803	6.19
288.017	7.04
288.231	7.11
288.445	7.09
288.659	6.62
288.873	6.27
289.087	7.06
289.301	6.57
289.515	6.75
289.729	6.81
289.943	5.95
290.157	6.03
290.371	5.84
290.584	6.27
290.798	6.2
291.012	6.63
291.226	7.57
291.44	6.39
291.654	6.43
291.867	6.9
292.081	6.72
292.295	8.83
292.509	8.23
292.722	8.19
292.936	7.65
293.15	9.21
293.364	8.71
293.577	7.43
293.791	8.02
294.005	8.31
294.218	9
294.432	9.29
294.645	9.3
294.859	8.73
295.073	7.7
295.286	8.89
295.5	7.71
295.713	8.54
295.927	8.76
296.14	8.45
296.354	8.51
296.568	8.4
296.781	8.9
296.994	7.99
297.208	8.27
297.421	8.47
297.635	9.28
297.848	10.06
298.062	10.66
298.275	11.96
298.489	12.68
298.702	12.37
298.915	13.18
299.129	13.39
299.342	13.22
299.555	13.94
299.769	14.43
299.982	13.45
300.195	13.2
300.409	12.87
300.622	12.39
300.835	11.07
301.048	12.54
301.262	12.02
301.475	11.79
301.688	11.28
301.901	11.33
302.115	13.03
302.328	12.93
302.541	13.24
302.754	13.7
302.967	13.28
303.18	14.98
303.393	13.66
303.607	13.19
303.82	13.76
304.033	14.07
304.246	15.06
304.459	13.43
304.672	13.8
304.885	12.24
305.098	11.98
305.311	13.02
305.524	12.79
305.737	12.79
305.95	13.29
306.163	12.17
306.376	12.96
306.589	11.83
306.802	11.37
307.015	10.8
307.228	12
307.44	11.62
307.653	9.97
307.866	9.44
308.079	9.89
308.292	9.42
308.505	10.85
308.718	11.88
308.93	11.95
309.143	12.54
309.356	12.16
309.569	12.44
309.781	12.12
309.994	13.19
310.207	13.84
310.42	13.42
310.632	14.12
310.845	12.74
311.058	11.29
311.27	11.63
311.483	12.25
311.696	13.64
311.908	13.34
312.121	13.23
312.333	12.78
312.546	11.58
312.759	12.68
312.971	12.38
313.184	13
313.396	13.14
313.609	12.53
313.821	11.44
314.034	10.49
314.246	10.16
314.459	10.07
314.671	10.25
314.884	10.67
315.096	8.87
315.309	7.72
315.521	7.38
315.733	8.88
315.946	10.24
316.158	11.51
316.371	12.24
316.583	12.55
316.795	13.91
317.008	13.42
317.22	13.18
317.432	13.86
317.644	13.56
317.857	14.29
318.069	13.37
318.281	12.74
318.494	10.86
318.706	9.05
318.918	8.98
319.13	8.23
319.342	9.17
319.555	9.76
319.767	9.86
319.979	9.95
320.191	10.28
320.403	12.27
320.615	11.11
320.827	12.39
321.039	13.48
321.252	12.78
321.464	11.91
321.676	11.21
321.888	10.1
322.1	10.3
322.312	11.13
322.524	10.23
322.736	8.63
322.948	8.83
323.16	8.76
323.372	9.31
323.584	10.04
323.796	8.65
324.007	8.83
324.219	10.33
324.431	10.7
324.643	10.14
324.855	10.14
325.067	10.41
325.279	10.46
325.491	10.06
325.702	8.99
325.914	7.72
326.126	9.69
326.338	9.23
326.55	8.45
326.761	7.56
326.973	8.46
327.185	8.41
327.396	7.6
327.608	7.15
327.82	8.24
328.032	8.61
328.243	9.7
328.455	9
328.666	10.43
328.878	11.17
329.09	11.22
329.301	11.34
329.513	11.64
329.725	11.01
329.936	10.86
330.148	10.84
330.359	10.07
330.571	10.85
330.782	10.48
330.994	8.96
331.205	7.84
331.417	8
331.628	7.08
331.84	7.02
332.051	9.08
332.262	10.76
332.474	10.32
332.685	10.95
332.897	10.23
333.108	10.7
333.319	12.22
333.531	12.51
333.742	13.35
333.953	13.87
334.165	12.87
334.376	11.9
334.587	11.68
334.799	11.56
335.01	11.37
335.221	11.26
335.432	11.41
335.644	10.56
335.855	10.34
336.066	9.82
336.277	9.47
336.488	10.33
336.7	10.36
336.911	10.46
337.122	9.78
337.333	9.27
337.544	9.67
337.755	10.3
337.966	9.94
338.177	10.31
338.388	10.45
338.599	10.04
338.811	10.12
339.022	10.24
339.233	9.63
339.444	10.07
339.655	10.32
339.866	9.2
340.076	8.62
340.287	8.98
340.498	8.03
340.709	8.19
340.92	8.2
341.131	7.85
341.342	7.65
341.553	7.99
341.764	7.95
341.975	8.21
342.185	8.52
342.396	8.63
342.607	7.85
342.818	8.79
343.029	8.12
343.239	8
343.45	8.25
343.661	8.31
343.872	7.31
344.082	7.6
344.293	7.65
344.504	8.34
344.714	8.33
344.925	8.51
345.136	8.51
345.346	8.38
345.557	9.07
345.768	8.47
345.978	8.79
346.189	9.48
346.399	8.89
346.61	9.46
346.821	9.34
347.031	8.62
347.242	8.49
347.452	8.78
347.663	9.1
347.873	9.39
348.084	10.27
348.294	10.38
348.504	11.09
348.715	12.79
348.925	11.51
349.136	11.18
349.346	12.33
349.557	12.99
349.767	12.75
349.977	13.07
350.188	12.91
350.398	12.14
350.608	11.63
350.819	11
351.029	9.24
351.239	9.68
351.449	9.27
351.66	8.2
351.87	7.25
352.08	7.41
352.29	7.65
352.501	7.34
352.711	7.03
352.921	7.11
353.131	6.66
353.341	7.26
353.552	7.13
353.762	7.67
353.972	8.34
354.182	9.56
354.392	8.78
354.602	8.7
354.812	8.28
355.022	8.95
355.232	9.5
355.442	10.12
355.652	9.91
355.862	10
356.072	9.24
356.282	9.07
356.492	8.29
356.702	9.08
356.912	8.92
357.122	8.58
357.332	8.79
357.542	7.64
357.752	7.57
357.962	7.2
358.171	7.67
358.381	7.62
358.591	7.71
358.801	8.1
359.011	6.99
359.221	5.87
359.43	7.02
359.64	7.02
359.85	8.21
360.06	8.28
360.269	8.38
360.479	8.34
360.689	9
360.899	8.68
361.108	9.25
361.318	9.68
361.528	10.02
361.737	9.84
361.947	9.56
362.156	9
362.366	8.36
362.576	8.8
362.785	8.67
362.995	9.15
363.204	8.96
363.414	8.08
363.623	8.28
363.833	8.11
364.042	7.47
364.252	7.73
364.461	7.73
364.671	8.3
364.88	7.78
365.09	7.44
365.299	6.35
365.509	6.26
365.718	6.74
365.927	6.57
366.137	6.64
366.346	6.43
366.555	5.78
366.765	5.52
366.974	5.35
367.183	5.93
367.393	5.85
367.602	5.56
367.811	5.66
368.021	4.71
368.23	4.62
368.439	5.55
368.648	5.65
368.857	6.14
369.067	6.15
369.276	6.22
369.485	5.79
369.694	6.41
369.903	7.08
370.112	7.52
370.321	8.03
370.531	8.25
370.74	7.91
370.949	8.35
371.158	8.46
371.367	8.78
371.576	8.69
371.785	8.12
371.994	7.71
372.203	7.4
372.412	7.46
372.621	7.67
372.83	7.96
373.039	7.47
373.248	7.34
373.457	6.95
373.666	6.77
373.874	6.56
374.083	6.83
374.292	7.16
374.501	7.24
374.71	7
374.919	6.94
375.128	5.8
375.336	5.78
375.545	5.58
375.754	5.75
375.963	5.84
376.171	6
376.38	6.04
376.589	5.34
376.798	4.79
377.006	5.21
377.215	5.16
377.424	6.08
377.632	6.33
377.841	6.38
378.05	6.6
378.258	6.28
378.467	6.31
378.675	6.55
378.884	6.8
379.093	7.43
379.301	7.03
379.51	6.76
379.718	6.3
379.927	5.95
380.135	5.71
380.344	5.65
380.552	5.74
380.761	5.73
380.969	6.11
381.177	5.94
381.386	5.86
381.594	5.88
381.803	6.51
382.011	6.72
382.219	7.03
382.428	7.62
382.636	7.35
382.845	7.3
383.053	7.16
383.261	6.96
383.469	7.58
383.678	7.12
383.886	6.9
384.094	6.17
384.302	5.86
384.511	5.83
384.719	5.79
384.927	5.48
385.135	5.53
385.343	5.88
385.552	5.55
385.76	4.78
385.968	4.97
386.176	4.91
386.384	5.17
386.592	5.38
386.8	5.03
387.008	5.05
387.216	5.33
387.424	5.94
387.633	6.1
387.841	6.11
388.049	6.49
388.257	6.65
388.465	6.72
388.672	6.86
388.88	6.56
389.088	6.91
389.296	6.5
389.504	6.41
389.712	5.83
389.92	5.82
390.128	5.79
390.336	5.71
390.544	5.57
390.751	5.65
390.959	5.62
391.167	5.93
391.375	5.93
391.583	5.93
391.79	6.1
391.998	5.91
392.206	5.55
392.414	5.32
392.621	5.31
392.829	5.38
393.037	5.46
393.244	5.33
393.452	5.14
393.66	4.71
393.867	4.85
394.075	4.95
394.283	5.07
394.49	4.87
394.698	5.32
394.905	5.29
395.113	5.19
395.32	4.93
395.528	4.76
395.735	4.67
395.943	5.01
396.15	4.9
396.358	4.81
396.565	4.86
396.773	5.12
396.98	4.87
397.188	4.91
397.395	5.12
397.602	5.14
397.81	5.3
398.017	5.45
398.225	5.32
398.432	5.48
398.639	5.36
398.847	5.45
399.054	5.14
399.261	5.13
399.468	4.97
399.676	4.68
399.883	4.81
400.09	4.73
400.297	4.89
400.505	4.91
400.712	4.88
400.919	4.75
401.126	4.54
401.333	5.09
401.54	4.85
401.748	5.17
401.955	5.21
402.162	5.17
402.369	5.28
402.576	5.24
402.783	5.37
402.99	5.07
403.197	5.09
403.404	5.27
403.611	5.2
403.818	5.55
404.025	5.5
404.232	5.55
404.439	5.58
404.646	5.61
404.853	5.48
405.06	5.3
405.267	5.6
405.474	5.53
405.681	5.38
405.887	5.16
406.094	4.94
406.301	4.8
406.508	4.58
406.715	4.68
406.922	4.63
407.128	4.54
407.335	4.6
407.542	4.38
407.749	4.53
407.955	4.69
408.162	4.6
408.369	4.77
408.575	4.74
408.782	4.92
408.989	4.68
409.195	4.53
409.402	4.45
409.609	4.48
409.815	4.51
410.022	4.35
410.228	4.62
410.435	4.48
410.642	4.32
410.848	4.39
411.055	4.17
411.261	4.17
411.468	4.4
411.674	4.66
411.881	4.76
412.087	4.9
412.294	5.03
412.5	4.72
412.706	4.79
412.913	4.61
413.119	4.52
413.326	5.07
413.532	5.29
413.738	5.21
413.945	4.6
414.151	4.43
414.357	4.23
414.564	4.14
414.77	4.36
414.976	4.36
415.182	4.82
415.389	4.93
415.595	4.43
415.801	4.34
416.007	4.26
416.214	4.71
416.42	4.79
416.626	4.77
416.832	4.79
417.038	4.47
417.244	4.85
417.45	4.63
417.657	4.6
417.863	4.87
418.069	5.01
418.275	5.25
418.481	5.27
418.687	5.41
418.893	5.47
419.099	5.45
419.305	5.65
419.511	5.33
419.717	5.31
419.923	5.38
420.129	5.28
420.335	5.01
420.541	4.85
420.746	4.89
420.952	4.84
421.158	4.75
421.364	4.67
421.57	4.65
421.776	4.78
421.982	4.83
422.187	4.7
422.393	4.74
422.599	4.81
422.805	5.06
423.01	4.92
423.216	4.92
423.422	5.01
423.628	5.12
423.833	5.09
424.039	5.01
424.245	4.93
424.45	5.02
424.656	5.13
424.862	5.28
425.067	4.93
425.273	4.93
425.478	4.85
425.684	4.85
425.889	4.87
426.095	4.85
426.301	4.81
426.506	4.88
426.712	4.81
426.917	4.52
427.123	4.51
427.328	4.69
427.533	4.79
427.739	4.87
427.944	4.8
428.15	4.66
428.355	4.67
428.561	4.73
428.766	4.66
428.971	4.74
429.177	5
429.382	4.73
429.587	4.73
429.793	4.66
429.998	4.72
430.203	4.63
430.408	4.64
430.614	4.64
430.819	4.53
431.024	4.53
431.229	4.48
431.434	4.52
431.64	4.4
431.845	4.38
432.05	4.28
432.255	4.11
432.46	4.32
432.665	4.33
432.87	4.43
433.076	4.57
433.281	4.53
433.486	4.6
433.691	4.42
433.896	4.71
434.101	4.58
434.306	4.67
434.511	4.58
434.716	4.4
434.921	4.38
435.126	4.28
435.331	4.23
435.535	4.21
435.74	4.28
435.945	4.5
436.15	4.53
436.355	4.68
436.56	4.75
436.765	5.03
436.97	5.07
437.174	5.21
437.379	5.02
437.584	5.15
437.789	5.15
437.993	5.05
438.198	4.79
438.403	4.75
438.608	4.58
438.812	4.48
439.017	4.42
439.222	4.52
439.426	4.49
439.631	4.6
439.836	4.54
440.04	4.59
440.245	4.6
440.45	4.67
440.654	4.69
440.859	4.74
441.063	4.73
441.268	4.66
441.472	4.6
441.677	4.56
441.881	4.63
442.086	4.62
442.29	4.76
442.495	4.71
442.699	4.74
442.904	4.57
443.108	4.57
443.312	4.57
443.517	4.53
443.721	4.63
443.925	4.74
444.13	4.67
444.334	4.63
444.538	4.55
444.743	4.62
444.947	4.5
445.151	4.32
445.356	4.38
445.56	4.46
445.764	4.66
445.968	4.64
446.173	4.63
446.377	4.61
446.581	4.58
446.785	4.5
446.989	4.44
447.193	4.49
447.398	4.68
447.602	4.63
447.806	4.58
448.01	4.36
448.214	4.32
448.418	4.35
448.622	4.24
448.826	4.11
449.03	4.09
449.234	4.13
449.438	4.19
449.642	4.16
449.846	4.25
450.05	4.25
450.254	4.31
450.458	4.36
450.662	4.18
450.866	4.34
451.069	4.76
451.273	4.79
451.477	4.69
451.681	4.53
451.885	4.56
452.089	4.58
452.292	4.53
452.496	4.71
452.7	4.8
452.904	4.75
453.107	4.65
453.311	4.42
453.515	4.53
453.719	4.59
453.922	4.73
454.126	4.75
454.33	4.47
454.533	4.44
454.737	4.23
454.94	4.11
455.144	4.11
455.348	4.22
455.551	4.1
455.755	3.98
455.958	4.07
456.162	4.02
456.365	3.9
456.569	4.23
456.772	4.47
456.976	4.45
457.179	4.51
457.383	4.7
457.586	4.53
457.79	4.59
457.993	4.74
458.196	4.66
458.4	4.65
458.603	4.84
458.807	4.68
459.01	4.6
459.213	4.72
459.417	4.63
459.62	4.5
459.823	4.56
460.026	4.69
460.23	4.58
460.433	4.57
460.636	4.57
460.839	4.46
461.042	4.51
461.246	4.39
461.449	4.26
461.652	4.3
461.855	4.35
462.058	4.45
462.261	4.36
462.464	4.39
462.668	4.3
462.871	4.21
463.074	4.17
463.277	4.05
463.48	4.11
463.683	4.13
463.886	4.15
464.089	4.1
464.292	3.88
464.495	3.79
464.698	3.72
464.901	3.95
465.104	4.08
465.306	4.19
465.509	4.37
465.712	4.38
465.915	4.33
466.118	4.2
466.321	4.23
466.524	4.22
466.726	4.32
466.929	4.21
467.132	4.1
467.335	3.99
467.538	3.96
467.74	4.01
467.943	4.04
468.146	4.02
468.348	3.93
468.551	3.91
468.754	3.96
468.956	3.88
469.159	4.04
469.362	3.94
469.564	3.84
469.767	3.85
469.969	3.75
470.172	3.62
470.375	3.83
470.577	3.82
470.78	3.92
470.982	3.99
471.185	4.06
471.387	3.99
471.59	4.02
471.792	4.1
471.995	4.15
472.197	4.25
472.399	4.35
472.602	4.24
472.804	4.35
473.007	4.28
473.209	4.22
473.411	4.25
473.614	4.2
473.816	4.27
474.018	4.5
474.22	4.36
474.423	4.24
474.625	4.22
474.827	4.31
475.03	4.34
475.232	4.19
475.434	4.21
475.636	4.17
475.838	4.38
476.04	4.44
476.243	4.49
476.445	4.64
476.647	4.76
476.849	4.63
477.051	4.57
477.253	4.43
477.455	4.63
477.657	4.63
477.859	4.67
478.061	4.48
478.263	4.48
478.465	4.42
478.667	4.38
478.869	4.29
479.071	4.35
479.273	4.38
479.475	4.25
479.677	4.27
479.879	4.17
480.081	4.04
480.283	4.16
480.485	4.12
480.686	4.11
480.888	3.99
481.09	3.9
481.292	3.95
481.494	4.02
481.695	4.21
481.897	4.11
482.099	4.13
482.301	4.28
482.502	4.31
482.704	4.37
482.906	4.33
483.107	4.48
483.309	4.49
483.511	4.53
483.712	4.52
483.914	4.51
484.115	4.55
484.317	4.57
484.519	4.53
484.72	4.49
484.922	4.45
485.123	4.46
485.325	4.35
485.526	4.37
485.728	4.31
485.929	4.3
486.131	4.32
486.332	4.23
486.534	4.22
486.735	4.24
486.936	4.29
487.138	4.29
487.339	4.34
487.541	4.46
487.742	4.44
487.943	4.48
488.144	4.44
488.346	4.38
488.547	4.41
488.748	4.45
488.95	4.36
489.151	4.33
489.352	4.24
489.553	4.13
489.755	4
489.956	4.06
490.157	4.05
490.358	4.03
490.559	4.09
490.76	4.14
490.961	4.16
491.163	4.26
491.364	4.28
491.565	4.35
491.766	4.44
491.967	4.5
492.168	4.44
492.369	4.38
492.57	4.38
492.771	4.45
492.972	4.42
493.173	4.47
493.374	4.5
493.575	4.47
493.776	4.5
493.976	4.46
494.177	4.35
494.378	4.3
494.579	4.26
494.78	4.34
494.981	4.18
495.182	4.3
495.382	4.17
495.583	4.26
495.784	4.28
495.985	4.37
496.185	4.29
496.386	4.46
496.587	4.58
496.788	4.61
496.988	4.71
497.189	4.85
497.39	4.81
497.59	4.83
497.791	4.69
497.992	4.65
498.192	4.59
498.393	4.62
498.593	4.59
498.794	4.56
498.994	4.67
499.195	4.6
499.395	4.45
499.596	4.51
499.796	4.53
499.997	4.6
500.197	4.73
500.398	4.53
500.598	4.53
500.799	4.59
500.999	4.58
501.199	4.64
501.4	4.64
501.6	4.62
501.801	4.46
502.001	4.48
502.201	4.62
502.402	4.49
502.602	4.8
502.802	4.89
503.002	4.78
503.203	4.8
503.403	4.68
503.603	4.74
503.803	4.99
504.003	5.1
504.204	4.98
504.404	4.93
504.604	4.92
504.804	4.8
505.004	4.78
505.204	4.87
505.404	4.84
505.604	4.98
505.804	5.03
506.005	4.88
506.205	4.8
506.405	4.88
506.605	4.7
506.805	4.86
507.005	4.88
507.204	4.84
507.404	4.87
507.604	5.01
507.804	4.91
508.004	4.79
508.204	4.85
508.404	4.92
508.604	4.94
508.804	5.12
509.003	5.03
509.203	5.05
509.403	5.04
509.603	5.12
509.803	5.02
510.002	5.01
510.202	5.07
510.402	5.11
510.602	5.09
510.801	5.15
511.001	5.14
511.201	5.27
511.4	5.42
511.6	5.45
511.8	5.42
511.999	5.52
512.199	5.64
512.398	5.67
512.598	5.71
512.797	5.85
512.997	5.75
513.197	5.77
513.396	5.69
513.596	5.6
513.795	5.53
513.994	5.48
514.194	5.54
514.393	5.37
514.593	5.32
514.792	5.25
514.992	5.33
515.191	5.41
515.39	5.46
515.59	5.51
515.789	5.56
515.988	5.71
516.188	5.78
516.387	5.91
516.586	5.94
516.786	6.13
516.985	6.24
517.184	6.23
517.383	6.27
517.582	6.37
517.782	6.41
517.981	6.45
518.18	6.52
518.379	6.52
518.578	6.43
518.777	6.56
518.976	6.6
519.176	6.58
519.375	6.6
519.574	6.61
519.773	6.48
519.972	6.55
520.171	6.55
520.37	6.58
520.569	6.64
520.768	6.63
520.967	6.69
521.166	6.57
521.365	6.51
521.564	6.36
521.762	6.38
521.961	6.39
522.16	6.3
522.359	6.48
522.558	6.4
522.757	6.44
522.956	6.4
523.154	6.58
523.353	6.62
523.552	6.7
523.751	6.84
523.949	6.94
524.148	7.07
524.347	7.15
524.546	7.02
524.744	7.09
524.943	7.01
525.142	7.06
525.34	7.02
525.539	7.02
525.737	7.07
525.936	7.08
526.135	7.11
526.333	7.11
526.532	7.13
526.73	7.2
526.929	7.21
527.127	7.25
527.326	7.31
527.524	7.31
527.723	7.42
527.921	7.47
528.12	7.52
528.318	7.55
528.516	7.62
528.715	7.66
528.913	7.66
529.112	7.71
529.31	7.74
529.508	7.79
529.707	7.8
529.905	7.75
530.103	7.75
530.301	7.76
530.5	7.76
530.698	7.72
530.896	7.64
531.094	7.57
531.293	7.58
531.491	7.63
531.689	7.62
531.887	7.64
532.085	7.72
532.283	7.8
532.481	7.96
532.68	7.92
532.878	7.94
533.076	8.05
533.274	8.22
533.472	8.26
533.67	8.28
533.868	8.29
534.066	8.37
534.264	8.42
534.462	8.44
534.66	8.3
534.858	8.33
535.056	8.41
535.253	8.52
535.451	8.55
535.649	8.62
535.847	8.63
536.045	8.67
536.243	8.68
536.441	8.65
536.638	8.65
536.836	8.73
537.034	8.87
537.232	8.85
537.43	8.75
537.627	8.69
537.825	8.64
538.023	8.64
538.22	8.63
538.418	8.62
538.616	8.57
538.813	8.57
539.011	8.65
539.209	8.62
539.406	8.7
539.604	8.81
539.801	8.95
539.999	9.03
540.196	9.09
540.394	9.22
540.591	9.29
540.789	9.42
540.986	9.48
541.184	9.46
541.381	9.51
541.579	9.56
541.776	9.58
541.974	9.61
542.171	9.64
542.368	9.66
542.566	9.7
542.763	9.74
542.96	9.8
543.158	9.84
543.355	9.89
543.552	9.94
543.75	9.96
543.947	9.97
544.144	10.02
544.341	10.05
544.539	10.13
544.736	10.08
544.933	10.15
545.13	10.06
545.327	10.25
545.524	10.31
545.722	10.3
545.919	10.41
546.116	10.53
546.313	10.63
546.51	10.7
546.707	10.76
546.904	10.85
547.101	10.91
547.298	11.06
547.495	10.99
547.692	11.06
547.889	11.09
548.086	11
548.283	11.03
548.48	10.91
548.677	10.77
548.874	10.67
549.07	10.65
549.267	10.6
549.464	10.59
549.661	10.6
549.858	10.49
550.055	10.64
550.251	10.73
550.448	10.61
550.645	10.81
550.842	11.05
551.038	11.35
551.235	11.41
551.432	11.46
551.628	11.52
551.825	11.46
552.022	11.59
552.218	11.77
552.415	11.97
552.612	12.25
552.808	12.2
553.005	12.25
553.201	12.11
553.398	12.3
553.594	12.39
553.791	12.34
553.987	12.44
554.184	12.5
554.38	12.41
554.577	12.3
554.773	12.21
554.97	12.25
555.166	12.19
555.362	12.39
555.559	12.35
555.755	12.49
555.952	12.87
556.148	13.08
556.344	13.26
556.541	13.41
556.737	13.46
556.933	13.71
557.129	13.82
557.326	13.99
557.522	14.07
557.718	14.38
557.914	14.36
558.11	14.08
558.307	13.95
558.503	14.25
558.699	14.22
558.895	14.51
559.091	14.62
559.287	14.67
559.483	14.92
559.679	15.03
559.876	14.93
560.072	15.03
560.268	15.32
560.464	15.39
560.66	15.23
560.856	15.45
561.052	15.44
561.247	15.45
561.443	15.55
561.639	15.58
561.835	15.57
562.031	15.41
562.227	15.48
562.423	15.54
562.619	15.7
562.815	15.69
563.01	15.74
563.206	15.87
563.402	15.83
563.598	16
563.793	16.01
563.989	15.93
564.185	16.28
564.381	16.42
564.576	16.43
564.772	16.53
564.968	16.58
565.163	16.71
565.359	16.73
565.555	16.85
565.75	17.12
565.946	17.32
566.141	17.52
566.337	17.71
566.532	17.77
566.728	17.85
566.923	17.84
567.119	18.03
567.314	18.09
567.51	18.1
567.705	18.13
567.901	17.85
568.096	17.92
568.292	18
568.487	17.86
568.682	17.98
568.878	18.21
569.073	18.43
569.268	18.36
569.464	18.41
569.659	18.66
569.854	18.82
570.05	18.92
570.245	18.97
570.44	19.1
570.635	18.97
570.831	18.91
571.026	18.92
571.221	18.84
571.416	19.07
571.611	19.12
571.806	19.03
572.002	19.06
572.197	19.2
572.392	19.25
572.587	19.35
572.782	19.64
572.977	19.66
573.172	19.64
573.367	19.78
573.562	19.92
573.757	19.88
573.952	20.1
574.147	20.23
574.342	20.24
574.537	20.16
574.732	20.19
574.927	20.28
575.121	20.44
575.316	20.42
575.511	20.44
575.706	20.4
575.901	20.4
576.096	20.39
576.29	20.47
576.485	20.57
576.68	20.79
576.875	20.9
577.069	20.85
577.264	20.99
577.459	21.15
577.654	21.42
577.848	21.35
578.043	21.75
578.238	21.91
578.432	22.01
578.627	22.01
578.821	22.11
579.016	22.14
579.21	22.44
579.405	22.47
579.6	22.7
579.794	22.49
579.989	22.72
580.183	22.48
580.378	22.46
580.572	22.3
580.766	22.33
580.961	22.42
581.155	22.27
581.35	22.17
581.544	22.2
581.738	22.02
581.933	22.34
582.127	22.29
582.321	22.39
582.516	22.28
582.71	22.34
582.904	22.44
583.099	22.23
583.293	22.48
583.487	22.55
583.681	22.62
583.875	22.9
584.07	22.76
584.264	22.74
584.458	22.74
584.652	22.81
584.846	23
585.04	23.31
585.234	23.56
585.428	23.52
585.623	23.64
585.817	23.51
586.011	23.49
586.205	23.58
586.399	23.97
586.593	24.27
586.787	24.43
586.981	24.49
587.174	24.29
587.368	24.04
587.562	24.29
587.756	24.26
587.95	24.2
588.144	24.35
588.338	24.45
588.532	24.18
588.725	24.03
588.919	24.03
589.113	24.17
589.307	24.34
589.501	24.69
589.694	24.57
589.888	24.59
590.082	24.87
590.275	24.86
590.469	25.19
590.663	25.38
590.856	25.56
591.05	25.75
591.244	25.74
591.437	25.94
591.631	25.92
591.824	25.98
592.018	26.03
592.212	26.04
592.405	25.95
592.599	25.65
592.792	25.74
592.986	25.73
593.179	25.91
593.372	25.86
593.566	25.68
593.759	26
593.953	26.26
594.146	26.27
594.339	26.36
594.533	26.51
594.726	26.78
594.92	26.93
595.113	27.22
595.306	27.04
595.499	27.2
595.693	27.42
595.886	27.21
596.079	27.11
596.272	27.25
596.466	27.11
596.659	27.03
596.852	26.94
597.045	26.88
597.238	26.59
597.431	26.57
597.624	26.5
597.818	26.47
598.011	26.43
598.204	26.43
598.397	26.24
598.59	26.39
598.783	26.29
598.976	26.41
599.169	26.58
599.362	26.71
599.555	26.75
599.748	26.64
599.941	26.82
600.134	26.83
600.326	26.85
600.519	27.15
600.712	27.18
600.905	27.42
601.098	27.47
601.291	27.3
601.483	27.5
601.676	27.38
601.869	27.65
602.062	27.43
602.255	27.63
602.447	27.69
602.64	27.65
602.833	27.96
603.025	28.21
603.218	28.2
603.411	28.3
603.603	28.29
603.796	28.54
603.989	28.65
604.181	28.8
604.374	28.73
604.566	28.77
604.759	28.76
604.951	28.5
605.144	28.45
605.336	28.39
605.529	28.27
605.721	28.22
605.914	28.18
606.106	28.1
606.299	28.05
606.491	28
606.683	28.03
606.876	28.15
607.068	28.22
607.26	27.99
607.453	28.09
607.645	28.13
607.837	28.05
608.03	27.98
608.222	28.03
608.414	28.1
608.606	28.12
608.799	28.06
608.991	28.17
609.183	28.2
609.375	28.39
609.567	28.44
609.759	28.49
609.952	28.59
610.144	28.81
610.336	28.73
610.528	28.63
610.72	28.88
610.912	28.83
611.104	28.89
611.296	28.94
611.488	29.22
611.68	29.12
611.872	29.2
612.064	29.15
612.256	29.33
612.448	29.4
612.64	29.5
612.832	29.56
613.023	29.59
613.215	29.34
613.407	29.49
613.599	29.21
613.791	29.26
613.983	28.98
614.174	29.11
614.366	28.92
614.558	29.22
614.75	29.33
614.941	29.49
615.133	29.93
615.325	30.12
615.516	29.93
615.708	30.13
615.9	30.3
616.091	30.64
616.283	30.64
616.475	30.7
616.666	30.73
616.858	30.67
617.049	30.44
617.241	30.3
617.432	30.26
617.624	30.29
617.815	30.12
618.007	30.03
618.198	30.24
618.39	30.31
618.581	29.98
618.773	29.93
618.964	29.93
619.155	30.08
619.347	30.07
619.538	30.24
619.729	30.41
619.921	30.56
620.112	30.96
620.303	30.75
620.494	30.95
620.686	31.57
620.877	31.44
621.068	31.31
621.259	31.49
621.451	31.68
621.642	31.54
621.833	31.58
622.024	31.45
622.215	31.46
622.406	31.51
622.597	31.55
622.788	31.38
622.98	31.36
623.171	31.56
623.362	31.32
623.553	31.34
623.744	31.63
623.935	31.66
624.126	31.67
624.317	31.26
624.508	31.41
624.698	31.49
624.889	31.31
625.08	31.56
625.271	31.6
625.462	31.66
625.653	31.61
625.844	31.46
626.034	31.58
626.225	31.75
626.416	32.03
626.607	32.04
626.798	31.92
626.988	32.27
627.179	32.42
627.37	32.55
627.56	32.52
627.751	32.6
627.942	32.66
628.132	32.57
628.323	32.64
628.514	32.59
628.704	32.53
628.895	32.53
629.085	32.37
629.276	31.9
629.466	31.8
629.657	31.81
629.847	31.57
630.038	31.45
630.228	31.5
630.419	31.37
630.609	31.33
630.8	31.42
630.99	31.62
631.181	31.59
631.371	31.74
631.561	31.53
631.752	31.59
631.942	31.71
632.132	31.6
632.323	31.68
632.513	31.69
632.703	31.59
632.893	31.91
633.084	31.94
633.274	32.22
633.464	32.41
633.654	32.6
633.844	32.48
634.034	32.66
634.225	33.07
634.415	33.05
634.605	33.24
634.795	33.54
634.985	33.18
635.175	32.82
635.365	32.6
635.555	32.69
635.745	32.69
635.935	32.96
636.125	32.81
636.315	32.56
636.505	32.96
636.695	32.74
636.885	32.54
637.075	32.77
637.265	33.05
637.455	33.09
637.644	33.11
637.834	33.24
638.024	33.16
638.214	33.13
638.404	33.21
638.593	32.97
638.783	33.13
638.973	33.32
639.163	33.41
639.352	33.32
639.542	33.38
639.732	33.17
639.921	33.43
640.111	33.47
640.301	33.65
640.49	33.71
640.68	33.81
640.87	33.7
641.059	33.73
641.249	33.69
641.438	33.9
641.628	34
641.817	33.99
642.007	34.1
642.196	34.09
642.386	33.87
642.575	33.66
642.764	33.86
642.954	34.08
643.143	33.99
643.333	33.89
643.522	33.88
643.711	33.88
643.901	34.28
644.09	33.74
644.279	33.85
644.469	33.97
644.658	34.42
644.847	33.8
645.036	33.72
645.226	34.28
645.415	34.32
645.604	34.29
645.793	34.28
645.982	33.88
646.171	34.01
646.361	33.7
646.55	33.97
646.739	33.94
646.928	34.67
647.117	34.45
647.306	34.13
647.495	34.23
647.684	34.48
647.873	34.37
648.062	34.52
648.251	34.93
648.44	35.51
648.629	35.45
648.818	35.46
649.007	35.13
649.196	35.47
649.384	35.51
649.573	35.63
649.762	35.64
649.951	35.4
650.14	35.61
650.328	35.18
650.517	34.92
650.706	35.02
650.895	34.99
651.083	35.15
651.272	35.03
651.461	34.82
651.65	34.83
651.838	34.5
652.027	35.03
652.216	34.72
652.404	35.09
652.593	34.92
652.781	35.05
652.97	35.07
653.158	34.7
653.347	34.72
653.535	34.83
653.724	35.17
653.912	35.39
654.101	35.11
654.289	35.44
654.478	35.2
654.666	35.34
654.855	35.12
655.043	34.79
655.231	35.27
655.42	35.48
655.608	35.47
655.796	34.99
655.985	34.9
656.173	35.02
656.361	35.18
656.55	35.2
656.738	35.38
656.926	35.34
657.114	35.91
657.302	36.11
657.491	36.27
657.679	36.23
657.867	36.4
658.055	36.81
658.243	37.15
658.431	36.97
658.619	37.33
658.807	37.24
658.996	37.41
659.184	37.32
659.372	37.15
659.56	36.82
659.748	37.31
659.936	37.23
660.124	37.09
660.311	36.84
660.499	36.69
660.687	36.38
660.875	36.53
661.063	36.6
661.251	36.51
661.439	36.74
661.627	37.11
661.814	36.69
662.002	36.58
662.19	36.52
662.378	36.9
662.565	36.93
662.753	37.44
662.941	37.4
663.129	37.04
663.316	36.88
663.504	36.14
663.692	35.99
663.879	36.11
664.067	36.37
664.254	36.63
664.442	36.29
664.63	36.79
664.817	36.89
665.005	36.94
665.192	37.5
665.38	37.59
665.567	38.06
665.755	37.89
665.942	37.78
666.13	37.9
666.317	37.68
666.504	37.53
666.692	37.64
666.879	37.38
667.067	37.57
667.254	37.06
667.441	37.19
667.629	37
667.816	37.2
668.003	37.34
668.19	37.36
668.378	37.39
668.565	37.76
668.752	37.53
668.939	37.83
669.127	38.1
669.314	38.43
669.501	38.44
669.688	38.41
669.875	38.47
670.062	38.46
670.249	38.6
670.436	38.26
670.623	38.14
670.81	38.56
670.997	38.38
671.184	38.09
671.371	38.3
671.558	38.59
671.745	39.07
671.932	38.68
672.119	38.97
672.306	38.63
672.493	39.29
672.68	39.32
672.867	39.06
673.054	39.31
673.24	39.36
673.427	38.77
673.614	38.61
673.801	38.5
673.988	39.02
674.174	38.63
674.361	39.15
674.548	39.09
674.734	38.67
674.921	38.61
675.108	38.24
675.294	38.08
675.481	38.69
675.668	38.8
675.854	38.71
676.041	38.81
676.227	38.88
676.414	38.43
676.601	38.08
676.787	38.63
676.974	38.39
677.16	38.41
677.347	38.03
677.533	37.9
677.719	38
677.906	37.85
678.092	37.5
678.279	37.97
678.465	37.82
678.651	37.94
678.838	38.09
679.024	38.53
679.21	38.79
679.397	39.28
679.583	39.24
679.769	39.17
679.955	39.52
680.142	40.13
680.328	39.98
680.514	40.34
680.7	40.75
680.886	40.57
681.073	40.93
681.259	41.08
681.445	41.14
681.631	41.29
681.817	41.24
682.003	41.11
682.189	40.82
682.375	40.87
682.561	40.72
682.747	40.49
682.933	40.54
683.119	39.8
683.305	39.57
683.491	39.66
683.677	39.84
683.863	40.09
684.049	40.4
684.235	40.59
684.42	40.44
684.606	40.27
684.792	40.22
684.978	40.09
685.164	40.31
685.349	39.81
685.535	39.9
685.721	39.73
685.907	39.6
686.092	39.55
686.278	39.34
686.464	39.49
686.649	39.91
686.835	39.8
687.021	40.2
687.206	40.25
687.392	40.87
687.577	40.95
687.763	40.98
687.948	40.61
688.134	40.2
688.319	40.51
688.505	40.71
688.69	40.47
688.876	40.64
689.061	40.34
689.247	40.69
689.432	40.79
689.618	40.35
689.803	40.21
689.988	40.71
690.174	40.76
690.359	40.34
690.544	40.08
690.73	40.53
690.915	40.22
691.1	40.37
691.285	39.98
691.471	39.77
691.656	40.05
691.841	40.42
692.026	40.65
692.211	40.61
692.396	40.97
692.582	41.16
692.767	40.72
692.952	41.06
693.137	41.37
693.322	41.5
693.507	41.36
693.692	41.42
693.877	41.23
694.062	41
694.247	41.07
694.432	40.75
694.617	41.26
694.802	40.88
694.987	41.24
695.172	41.39
695.357	41.32
695.541	41.5
695.726	41.5
695.911	41.88
696.096	41.88
696.281	42.26
696.466	42.68
696.65	41.93
696.835	42.75
697.02	42.66
697.204	42.67
697.389	43.3
697.574	43.24
697.759	43.19
697.943	42.88
698.128	42.92
698.312	42.7
698.497	42.9
698.682	43.18
698.866	43.13
699.051	42.93
699.235	42.7
699.42	42.59
699.604	42.61
699.789	42.84
699.973	42.66
700.158	42.35
700.342	42.48
700.527	42.44
700.711	42.12
700.895	41.78
701.08	41.8
701.264	41.5
701.448	41.37
701.633	40.96
701.817	40.35
702.001	40.49
702.186	40.96
702.37	41.57
702.554	41.69
702.738	41.82
702.923	41.94
703.107	42.07
703.291	42.4
703.475	41.77
703.659	42.08
703.843	42.57
704.027	42.72
704.212	42.5
704.396	42.31
704.58	41.93
704.764	42.1
704.948	42.42
705.132	42.51
705.316	42.37
705.5	42.6
705.684	42.98
705.868	43.19
706.052	43.04
706.235	42.58
706.419	41.98
706.603	41.75
706.787	41.28
706.971	41.23
707.155	40.89
707.339	41.63
707.522	41.47
707.706	41.68
707.89	41.22
708.074	41.66
708.257	42.29
708.441	42.43
708.625	42.52
708.808	42.88
708.992	42.96
709.176	43.21
709.359	43.06
709.543	42.88
709.727	42.46
709.91	42.62
710.094	42.31
710.277	42.57
710.461	42.2
710.644	42.06
710.828	42.46
711.011	42.62
711.195	42.94
711.378	42.92
711.562	43.25
711.745	43.36
711.928	43.35
712.112	42.86
712.295	42.84
712.478	43.28
712.662	43
712.845	42.54
713.028	42.3
713.212	42.28
713.395	42.32
713.578	42.66
713.761	43.14
713.945	43.22
714.128	43.53
714.311	43.58
714.494	43.49
714.677	43.94
714.86	43.92
715.043	43.67
715.227	43.47
715.41	43.13
715.593	42.94
715.776	42.9
715.959	42.77
716.142	43.53
716.325	42.99
716.508	43.28
716.691	43.36
716.874	43.38
717.057	43.89
717.239	44.35
717.422	44.19
717.605	44.34
717.788	43.7
717.971	43.83
718.154	43.15
718.337	43.11
718.519	42.54
718.702	42.13
718.885	42.19
719.068	41.76
719.25	40.75
719.433	41.14
719.616	40.89
719.798	41.27
719.981	41.07
720.164	40.98
720.346	41.59
720.529	41.85
720.712	42.32
720.894	42.38
721.077	42.88
721.259	43.69
721.442	43.78
721.624	44.15
721.807	44.3
721.989	44.11
722.172	44.94
722.354	45.2
722.537	45.22
722.719	45.46
722.901	45.63
723.084	44.88
723.266	44.26
723.448	43.61
723.631	43.7
723.813	43.64
723.995	43.42
724.178	43.31
724.36	42.78
724.542	43.22
724.724	43.23
724.907	42.85
725.089	43.08
725.271	43.6
725.453	44.51
725.635	44.17
725.817	44.47
725.999	45.85
726.181	44.88
726.364	44.89
726.546	44.73
726.728	44.95
726.91	45.5
727.092	45.2
727.274	45.56
727.456	45.04
727.638	45.4
727.819	44.7
728.001	44.42
728.183	44.89
728.365	45.05
728.547	44.91
728.729	44.39
728.911	44.66
729.093	45.14
729.274	44.95
729.456	45.76
729.638	45.8
729.82	46.01
730.001	46.07
730.183	46.02
730.365	45.88
730.546	46.3
730.728	46.12
730.91	45.95
731.091	45.8
731.273	45.84
731.455	45.33
731.636	44.6
731.818	44.66
731.999	45.13
732.181	45.6
732.362	44.88
732.544	44.81
732.725	45.68
732.907	45.37
733.088	45.59
733.27	45.68
733.451	45.31
733.633	46.03
733.814	46.4
733.995	45.45
734.177	45.84
734.358	46.73
734.539	46.52
734.721	46.4
734.902	46.85
735.083	47.01
735.264	46.06
735.446	46.61
735.627	46.39
735.808	46.31
735.989	46.99
736.17	45.74
736.351	45.78
736.533	46.06
736.714	45.65
736.895	45.66
737.076	45.38
737.257	45.49
737.438	45.49
737.619	44.54
737.8	44.35
737.981	43.62
738.162	44.31
738.343	43.44
738.524	42.2
738.705	42.22
738.886	42.09
739.067	43.22
739.247	43.91
739.428	43.6
739.609	44.29
739.79	44.36
739.971	45.09
740.151	44.76
740.332	46.37
740.513	47.24
740.694	46.63
740.874	46.64
741.055	45.25
741.236	45.95
741.417	46.51
741.597	46.82
741.778	46.82
741.958	45.84
742.139	45.94
742.32	44.94
742.5	45.16
742.681	45.64
742.861	46.01
743.042	45.08
743.222	43.69
743.403	43.03
743.583	42.66
743.764	42.16
743.944	42.79
744.124	42.78
744.305	43.44
744.485	44.37
744.666	44.43
744.846	44.3
745.026	46.35
745.207	46.39
745.387	45.88
745.567	46.59
745.747	47.38
745.928	46.86
746.108	47.2
746.288	46.61
746.468	45.78
746.648	45.18
746.829	43.59
747.009	43
747.189	43.12
747.369	44.41
747.549	43.42
747.729	42.12
747.909	41.75
748.089	41.68
748.269	41.44
748.449	41.08
748.629	42.08
748.809	43.59
748.989	44.21
749.169	44.09
749.349	43.54
749.529	44.66
749.709	45
749.889	45.85
750.068	45.53
750.248	46.33
750.428	47.13
750.608	46.01
750.788	45.48
750.967	44.39
751.147	44.97
751.327	45.35
751.507	45.41
751.686	45.97
751.866	46.56
752.046	46.8
752.225	46.53
752.405	46.32
752.585	46.69
752.764	47.28
752.944	46.93
753.123	47.06
753.303	46.32
753.482	46.76
753.662	46.13
753.841	44.98
754.021	44.53
754.2	44.21
754.38	43.4
754.559	43.73
754.739	43.68
754.918	44.7
755.097	45.06
755.277	45.46
755.456	44.82
755.635	45.81
755.815	46.59
755.994	46.65
756.173	46.42
756.352	46.27
756.532	45.93
756.711	45.52
756.89	45.86
757.069	45.77
757.248	45.41
757.427	45.39
757.607	45.48
757.786	44.99
757.965	44.9
758.144	45.66
758.323	46.65
758.502	47.06
758.681	46.52
758.86	45.8
759.039	45.81
759.218	46.27
759.397	45.95
759.576	45.38
759.755	45.8
759.934	46.71
760.113	46.95
760.291	46.52
760.47	46.25
760.649	47.34
760.828	47.42
761.007	46.64
761.186	46.9
761.364	46.36
761.543	47.19
761.722	46.57
761.901	46.41
762.079	45.67
762.258	45.52
762.437	46.3
762.615	46.37
762.794	46.9
762.972	47.08
763.151	46.25
763.33	46.32
763.508	46.49
763.687	46.97
763.865	46.86
764.044	47.38
764.222	47
764.401	46.4
764.579	46.47
764.758	46.76
764.936	46.89
765.114	46.93
765.293	47.44
765.471	46.09
765.65	45.97
765.828	45.94
766.006	45.47
766.184	45.4
766.363	45.37
766.541	45.42
766.719	44.55
766.898	44.69
767.076	44.85
767.254	44.35
767.432	45.1
767.61	45.34
767.788	45.41
767.967	45.58
768.145	46.21
768.323	45.92
768.501	45.53
768.679	46.36
768.857	46
769.035	46.72
769.213	46.88
769.391	46.91
769.569	47.16
769.747	47.14
769.925	46.5
770.103	46.79
770.281	46.47
770.459	46.96
770.636	45.79
770.814	46.65
770.992	45.97
771.17	46.47
771.348	47.18
771.525	45.72
771.703	46.02
771.881	47.9
772.059	47.21
772.236	47.39
772.414	46.42
772.592	46.59
772.769	45.24
772.947	45.59
773.125	46.17
773.302	44.61
773.48	45.74
773.657	45.27
773.835	44.58
774.013	45.09
774.19	46.71
774.368	46.77
774.545	47.32
774.723	47.7
774.9	47.39
775.077	46.77
775.255	46.8
775.432	46
775.61	44.94
775.787	45.6
775.964	45.54
776.142	46.63
776.319	47.36
776.496	47.11
776.674	48.51
776.851	48.81
777.028	48.57
777.205	50.67
777.382	51.22
777.56	52.34
777.737	51.3
777.914	51.52
778.091	48.74
778.268	48.38
778.445	48.6
778.622	48.03
778.8	48.3
778.977	48.55
779.154	55
779.331	55.52
779.508	55.28
779.685	56.18
779.862	56.57
780.038	57.73
780.215	56.93
780.392	57.76
780.569	58.42
780.746	59.72
780.923	60.52
781.1	51.76
781.277	51.02
781.453	51.49
781.63	50.45
781.807	50.67
781.984	49.73
782.16	48.06
782.337	48.04
782.514	45.64
782.691	44.25
782.867	42.11
783.044	42.98
783.221	43.72
783.397	42.95
783.574	41.7
783.75	41.34
783.927	42.47
784.103	45.58
784.28	42.74
784.456	44.34
784.633	43.21
784.809	43.53
784.986	44.18
785.162	42.62
785.339	41.39
785.515	39.98
785.692	39.89
785.868	40.04
786.044	38.27
786.221	39.62
786.397	39.22
786.573	41.48
786.749	43.84
786.926	42.87
787.102	44.1
787.278	45.2
787.454	48.08
787.631	48.08
787.807	46.46
787.983	46.28
788.159	46.43
788.335	47.69
788.511	46.28
788.687	45.84
788.863	45.83
789.039	45.97
789.216	46.21
789.392	44.85
789.568	45.71
789.744	44.03
789.919	45.52
790.095	45.77
790.271	43.47
790.447	43.18
790.623	43.91
790.799	44.98
790.975	43.69
791.151	42.37
791.327	43.06
791.502	43.94
791.678	46.58
791.854	45.63
792.03	45.22
792.205	45.03
792.381	47.12
792.557	44.65
792.733	43.89
792.908	44.65
793.084	47.11
793.259	45.5
793.435	42.97
793.611	45
793.786	43.54
793.962	43.37
794.137	43.42
794.313	40.73
794.488	43.34
794.664	44.27
794.839	46.35
795.015	46.08
795.19	48.23
795.366	48.69
795.541	46.14
795.716	46.58
795.892	45.73
796.067	44.7
796.242	45.33
796.418	42.85
796.593	43.03
796.768	41.52
796.944	42.86
797.119	41.17
797.294	42.65
797.469	42.42
797.644	44.38
797.82	45.59
797.995	48.14
798.17	47.98
798.345	48.95
798.52	46.75
798.695	47.5
798.87	46.02
799.045	48.12
799.22	47.46
799.395	47.7
799.57	47.27
799.745	47.59
799.92	48.42
800.095	49.85
800.27	49.42
800.445	51.07
800.62	51.01
800.795	48.61
800.97	49.24
801.145	46.73
801.319	48.08
801.494	47.39
801.669	48.75
801.844	50.64
802.018	50.03
802.193	50.88
802.368	51.66
802.543	51.66
802.717	53.41
802.892	53
803.067	52.96
803.241	50.91
803.416	52.96
803.59	51.42
803.765	48.26
803.94	47.35
804.114	48.32
804.289	47.7
804.463	48.05
804.638	48.51
804.812	46.89
804.986	49.15
805.161	50.59
805.335	47.2
805.51	46.02
805.684	45.05
805.858	43.15
806.033	42.13
806.207	41.26
806.381	41.02
806.556	40.18
806.73	39.17
806.904	38.58
807.078	37.5
807.253	39.6
807.427	40.67
807.601	38.72
807.775	39.88
807.949	39.76
808.123	40
808.298	36.59
808.472	34.94
808.646	36.57
808.82	38.09
808.994	37.96
809.168	38.51
809.342	35.83
809.516	37.57
809.69	41.28
809.864	40.23
810.038	37.76
810.212	39.66
810.385	39.45
810.559	38.96
810.733	36.69
810.907	39.78
811.081	39.11
811.255	40.81
811.428	41.8
811.602	39.1
811.776	40.19
811.95	41.38
812.123	38.53
812.297	41.44
812.471	40.05
812.644	39.68
812.818	37.09
812.992	34.15
813.165	35.28
813.339	34.56
813.512	36.18
813.686	35.14
813.86	38.22
814.033	41.85
814.207	40.81
814.38	41.3
814.554	43.34
814.727	43.93
814.9	46.17
815.074	45.34
815.247	42.89
815.421	42.38
815.594	43.69
815.767	42.91
815.941	42.78
816.114	43.46
816.287	44.6
816.46	44.62
816.634	45.88
816.807	46.74
816.98	48.04
817.153	53.54
817.327	53.85
817.5	55.15
817.673	53.5
817.846	52.41
818.019	50.91
818.192	51.45
818.365	51.17
818.538	53.13
818.711	51.22
818.884	48.53
819.057	47.73
819.23	44.9
819.403	42.16
819.576	43.24
819.749	45.34
819.922	46.02
820.095	47.37
820.268	46.33
820.441	44.87
820.614	45.65
820.786	47.63
820.959	47.61
821.132	48.88
821.305	50.52
821.477	51.15
821.65	50.84
821.823	51.24
821.996	50.58
822.168	51.33
822.341	51.17
822.514	50.99
822.686	51.33
822.859	50.63
823.031	51.07
823.204	50.89
823.376	51.44
823.549	50.92
823.722	50.27
823.894	50.48
824.067	50.05
824.239	50.08
824.411	50.2
824.584	49.7
824.756	50.11
824.929	49.94
825.101	50.07
825.273	49.11
825.446	49.75
825.618	50.26
825.79	50.04
825.963	49.52
826.135	49.68
826.307	49.44
826.479	49.38
826.652	48.74
826.824	48.3
826.996	47.67
827.168	47.61
827.34	47.21
827.512	47.32
827.684	47.23
827.856	47.6
828.029	47.47
828.201	47.54
828.373	47.67
828.545	49.12
828.717	49.03
828.889	49.54
829.061	49.34
829.232	49.78
829.404	49.82
829.576	50
829.748	51.18
829.92	50.94
830.092	50.77
830.264	51.5
830.436	50.87
830.607	50.84
830.779	50.5
830.951	51.66
831.123	49.45
831.294	50.73
831.466	49.78
831.638	48.16
831.809	48.36
831.981	50.62
832.153	49.72
832.324	50.15
832.496	48.9
832.667	49.33
832.839	47.81
833.011	50.14
833.182	48.96
833.354	50.69
833.525	52.53
833.697	50.2
833.868	49.26
834.039	48.56
834.211	47.28
834.382	46.21
834.554	46.82
834.725	47.5
834.896	47.44
835.068	46.36
835.239	46.97
835.41	45.58
835.581	46.64
835.753	46.46
835.924	46.47
836.095	46.4
836.266	48.5
836.438	45.72
836.609	45.47
836.78	43.43
836.951	44.12
837.122	40.3
837.293	41.19
837.464	40.7
837.635	39.59
837.806	39.12
837.977	39.01
838.148	38.49
838.319	40.12
838.49	38.22
838.661	39.73
838.832	39.42
839.003	40.54
839.174	39.27
839.345	40.66
839.516	40.68
839.687	40.53
839.857	40.73
840.028	43.19
840.199	41.13
840.37	42.38
840.54	42.81
840.711	42.23
840.882	41.33
841.053	41.61
841.223	38.56
841.394	39.29
841.564	39.1
841.735	41.74
841.906	40.7
842.076	44.99
842.247	40.6
842.417	37.66
842.588	38.66
842.758	40.7
842.929	38.94
843.099	41.03
843.27	40.42
843.44	37.89
843.611	31.67
843.781	24.29
843.951	20.93
844.122	23.47
844.292	23.71
844.462	26.02
844.633	23.99
844.803	25.68
844.973	23.07
845.144	19.84
845.314	22.34
845.484	17.67
845.654	27.75
845.824	26.89
845.995	32.51
846.165	36.31
846.335	31.11
846.505	34.58
846.675	32.66
846.845	31.75
847.015	34.55
847.185	39.77
847.355	47.56
847.525	42.82
847.695	41.86
847.865	35.98
848.035	33.12
848.205	35.68
848.375	31.82
848.545	36.61
848.715	39.79
848.884	34.74
849.054	36.66
849.224	33.52
849.394	30.6
849.564	30.38
849.733	36.7
849.903	35.48
850.073	35.54
850.243	41.08
850.412	38.16
850.582	35.99
850.752	36.71
850.921	18.69
851.091	26.15
851.26	31.85
851.43	37.52
851.599	32.39
851.769	34.73
851.939	36.95
852.108	34.51
852.278	35.28
852.447	43.34
852.616	51.24
852.786	61.72
852.955	55
853.125	59.38
853.294	56.26
853.463	57.35
853.633	60.36
853.802	62.03
853.971	56.4
854.141	60.5
854.31	63.1
854.479	54.73
854.648	52.12
854.818	58.26
854.987	51.99
855.156	55.24
855.325	57.95
855.494	52.99
855.663	52.94
855.832	45.28
856.001	45.86
856.171	38.79
856.34	37.85
856.509	33.63
856.678	26.94
856.847	24.72
857.016	23.73
857.185	19.87
857.353	25.27
857.522	20.39
857.691	28.26
857.86	31.88
858.029	33.34
858.198	33.81
858.367	36.2
858.535	39.22
858.704	39.76
858.873	42.34
859.042	46.67
859.21	40.85
859.379	45.84
859.548	49.63
859.717	49.82
859.885	47.17
860.054	43.94
860.222	39.64
860.391	43.68
860.56	42.92
860.728	42.34
860.897	36.77
861.065	38.83
861.234	28.09
861.402	19.01
861.571	13.02
861.739	13.26
861.908	22.34
862.076	20.26
862.244	20.17
862.413	19.41
862.581	14.06
862.749	11.28
862.918	17.12
863.086	23.07
863.254	31.54
863.423	28.73
863.591	36.22
863.759	28.7
863.927	28.53
864.096	29.22
864.264	41.48
864.432	46.38
864.6	49.75
864.768	46.98
864.936	37.56
865.104	36.28
865.272	36.5
865.44	32.29
865.608	31.1
865.776	41.01
865.944	42.26
866.112	42.14
866.28	36.08
866.448	31.17
866.616	29.63
866.784	41.04
866.952	36.76
867.12	39.49
867.288	37.31
867.455	35.52
867.623	36.33
867.791	34.61
867.959	32.59
868.127	35.35
868.294	38.32
868.462	34.94
868.63	26.27
868.797	30.48
868.965	26.56
869.133	28.23
869.3	34.17
869.468	26.56
869.636	26.38
869.803	22.04
869.971	17.48
870.138	21.28
870.306	28.91
870.473	38.14
870.641	40.37
870.808	40.62
870.975	40
871.143	35.74
871.31	43.55
871.478	39
871.645	39.43
871.812	40.24
871.98	33.84
872.147	23.84
872.314	20.56
872.482	23.46
872.649	24.37
872.816	17.6
872.983	11.19
873.15	7.73
873.318	9.23
873.485	9.53
873.652	8.62
873.819	11.83
873.986	14.84
874.153	9.62
874.32	3.7
874.487	9.85
874.654	12.78
874.821	18.62
874.988	23.55
875.155	27.85
875.322	23.06
875.489	27.69
875.656	21.81
875.823	25.88
875.99	27.59
876.157	25.68
876.324	22.82
876.49	28.26
876.657	31.66
876.824	22.73
876.991	8.43
877.157	8.62
877.324	-4.73
877.491	10.23
877.658	15.21
877.824	17.77
877.991	15.77
878.157	17.91
878.324	16.2
878.491	10.5
878.657	20.44
878.824	44.93
878.99	59.68
879.157	56.9
879.323	59.23
879.49	55.46
879.656	62.1
879.823	66.82
879.989	72.49
880.156	76.11
880.322	71.92
880.488	70.31
880.655	59.28
880.821	51.01
880.987	55.02
881.154	55.07
881.32	57.68
881.486	50.81
881.652	49.24
881.819	47.42
881.985	43.52
882.151	42.78
882.317	44.82
882.483	44.99
882.649	46.07
882.816	46.55
882.982	47.08
883.148	46.25
883.314	46.3
883.48	47.02
883.646	46.74
883.812	48.11
883.978	48.98
884.144	47.65
884.31	48.17
884.476	48.78
884.642	47.75
884.807	47.18
884.973	46.36
885.139	46.78
885.305	46.56
885.471	46.82
885.637	45.08
885.802	43.59
885.968	43.36
886.134	44.31
886.3	43.63
886.465	44.2
886.631	42.79
886.797	43.11
886.962	41.05
887.128	40.17
887.293	37.49
887.459	39.14
887.625	40.76
887.79	38.83
887.956	31.99
888.121	28.9
888.287	27.08
888.452	24.9
888.618	17.91
888.783	20.26
