Data from LC_238_Reflection_3.txt Node
Date: Thu Nov 19 22:16:08 EST 2015
User: robert
Spectrometer: USB4E03001
Autoset integration time: false
Trigger mode: 4
Integration Time (sec): 1.000000E-1
Scans to average: 15
Electric dark correction enabled: true
Nonlinearity correction enabled: false
Boxcar width: 5
Stray light correction enabled: false
XAxis mode: Wavelengths
Stop averaging: false
Number of Pixels in Spectrum: 3648
>>>>>Begin Spectral Data<<<<<
177.566	-28.49
177.785	5.05
178.005	22.82
178.225	20.99
178.445	53.3
178.665	47.91
178.885	70.41
179.105	174.4
179.324	164.67
179.544	72.49
179.764	115.74
179.984	169.41
180.204	302.16
180.423	299.8
180.643	250.88
180.863	141.4
181.083	230.55
181.302	152.08
181.522	129
181.742	116.62
181.961	134.87
182.181	171.91
182.401	202.21
182.621	183.57
182.84	198.52
183.06	182.27
183.279	170.41
183.499	74.53
183.719	131.77
183.938	87.88
184.158	-163.65
184.377	-9.67
184.597	-166.47
184.816	-405.66
185.036	7.01
185.256	925
185.475	111.77
185.695	134
185.914	205.49
186.134	332.31
186.353	234.46
186.572	230.93
186.792	512.31
187.011	-3352.21
187.231	-837.31
187.45	-1275.89
187.67	-94.14
187.889	-73.08
188.108	-39.59
188.328	-46.93
188.547	-285.17
188.766	-446.98
188.986	-417.3
189.205	4359.8
189.424	202.31
189.644	181.56
189.863	103.87
190.082	98.43
190.302	136.75
190.521	135.33
190.74	168.57
190.959	168.47
191.178	146.63
191.398	170.07
191.617	179.5
191.836	668.15
192.055	258.38
192.274	350.94
192.494	290.71
192.713	117.37
192.932	98.01
193.151	90.24
193.37	100.59
193.589	130.68
193.808	119.66
194.027	132.5
194.246	121.15
194.465	133.69
194.685	132.85
194.904	136.61
195.123	153.02
195.342	185.48
195.561	148.8
195.78	125.17
195.999	115.03
196.218	126.23
196.436	130.29
196.655	139.35
196.874	136.47
197.093	191.93
197.312	216.73
197.531	251.18
197.75	387.97
197.969	380.29
198.188	-1259.15
198.407	-381.66
198.625	-562.55
198.844	-286.82
199.063	-2272.15
199.282	-286.57
199.501	-335.97
199.719	-633.4
199.938	-232.6
200.157	-658.59
200.376	-678.18
200.594	3049.11
200.813	2175.5
201.032	1178.51
201.251	1019.74
201.469	392.9
201.688	162.76
201.907	206.93
202.125	816.94
202.344	211.89
202.563	231.81
202.781	215.05
203	170.52
203.218	165.36
203.437	214.81
203.656	283.61
203.874	429.66
204.093	555.59
204.311	157.12
204.53	98.47
204.748	109.01
204.967	104.73
205.185	151.51
205.404	150.63
205.622	121.71
205.841	116.41
206.059	109.89
206.278	135.06
206.496	173.08
206.715	297.88
206.933	352.99
207.151	243.11
207.37	291.43
207.588	196.17
207.806	249.67
208.025	261.87
208.243	395.93
208.461	386.48
208.68	234.82
208.898	157.61
209.116	114.85
209.335	53.28
209.553	-160.31
209.771	-1694.12
209.989	487.62
210.208	-3.84
210.426	94.8
210.644	54.63
210.862	87.38
211.081	109.43
211.299	126.26
211.517	149.95
211.735	126.4
211.953	106.89
212.171	76.14
212.39	65.88
212.608	66.51
212.826	80.49
213.044	93.42
213.262	114.18
213.48	113.62
213.698	106.55
213.916	136.76
214.134	162.92
214.352	263.1
214.57	417.99
214.788	792.87
215.006	630.75
215.224	481.76
215.442	962.58
215.66	336.35
215.878	505.57
216.096	599.11
216.314	394.84
216.532	438.19
216.75	944.63
216.968	-46.48
217.185	-41.81
217.403	81.53
217.621	-919.28
217.839	92.4
218.057	66.96
218.275	78.66
218.492	71.19
218.71	80.84
218.928	72.17
219.146	51.99
219.363	59.44
219.581	77.45
219.799	89.34
220.017	95.62
220.234	110.85
220.452	134.61
220.67	132.86
220.887	111.1
221.105	106.12
221.323	106.86
221.54	98.2
221.758	104.9
221.976	86.43
222.193	81.57
222.411	62.89
222.629	54.35
222.846	36.82
223.064	53.24
223.281	52.17
223.499	43.86
223.716	57.02
223.934	44.93
224.151	26.73
224.369	27.97
224.586	17.96
224.804	35.01
225.021	42.23
225.239	46.45
225.456	31.71
225.674	36.29
225.891	39.14
226.108	33.06
226.326	33.27
226.543	49.69
226.76	39.93
226.978	39.32
227.195	20.94
227.413	4.45
227.63	-4.62
227.847	-2.86
228.064	-6.24
228.282	-3.87
228.499	-1.36
228.716	0.99
228.934	0.31
229.151	3.83
229.368	3.23
229.585	5.52
229.802	7.33
230.02	9.1
230.237	10.3
230.454	12.1
230.671	12.39
230.888	12.03
231.105	10.3
231.323	10.95
231.54	8.63
231.757	6.88
231.974	8.98
232.191	9.43
232.408	9.04
232.625	12.03
232.842	11.14
233.059	12.73
233.276	18.69
233.493	20.25
233.71	20.21
233.927	20.63
234.144	23.27
234.361	15.29
234.578	17.26
234.795	17.4
235.012	14.39
235.229	13.73
235.446	20.04
235.663	12.5
235.879	13.13
236.096	15.96
236.313	17.43
236.53	16.59
236.747	19.55
236.964	21.06
237.181	17.57
237.397	19.07
237.614	17.57
237.831	9.98
238.048	14.76
238.264	15.32
238.481	11.85
238.698	13.75
238.915	23.87
239.131	19.37
239.348	18.35
239.565	22.42
239.781	21.54
239.998	21.26
240.215	20.95
240.431	18.85
240.648	19.69
240.865	18.63
241.081	15.45
241.298	12.91
241.514	13.99
241.731	12.4
241.947	12.13
242.164	11.34
242.38	11.6
242.597	12.04
242.814	12.31
243.03	11.81
243.246	12.13
243.463	11.26
243.679	9.23
243.896	9.86
244.112	9.94
244.329	8.92
244.545	10.42
244.762	10.44
244.978	9
245.194	9.35
245.411	9.2
245.627	9.38
245.843	11.6
246.06	13.01
246.276	11.34
246.492	11.9
246.709	11.96
246.925	11.1
247.141	10.79
247.357	11.45
247.574	11.14
247.79	11.27
248.006	12.03
248.222	11.77
248.439	11.83
248.655	12.74
248.871	12.26
249.087	11.69
249.303	12.4
249.519	12.44
249.736	12.83
249.952	12.08
250.168	11.7
250.384	9.57
250.6	9.3
250.816	8.55
251.032	9.21
251.248	11.15
251.464	11.43
251.68	10.52
251.896	11.87
252.112	11.01
252.328	12.87
252.544	12.53
252.76	14.01
252.976	15.55
253.192	15.04
253.408	14.43
253.624	15.14
253.84	15.42
254.056	16.84
254.272	15.65
254.487	15.51
254.703	14.17
254.919	13.47
255.135	13.21
255.351	13.02
255.567	13.8
255.782	12.11
255.998	11.49
256.214	13.04
256.43	11.78
256.646	12.67
256.861	12.58
257.077	13.05
257.293	13.36
257.508	13.08
257.724	12.15
257.94	11.82
258.155	13.45
258.371	12.12
258.587	10.81
258.802	9.87
259.018	10.29
259.234	10.31
259.449	10.3
259.665	9.95
259.88	10.09
260.096	9.93
260.312	9.12
260.527	8.34
260.743	8.75
260.958	9.18
261.174	9.42
261.389	9.21
261.605	9.92
261.82	8.71
262.036	8.63
262.251	8.05
262.466	8.65
262.682	9.6
262.897	11.26
263.113	9.71
263.328	10.2
263.543	10.04
263.759	9.42
263.974	8.99
264.189	10.61
264.405	10.33
264.62	9.84
264.835	9.2
265.051	8.66
265.266	7.78
265.481	8.08
265.696	7.5
265.912	6.41
266.127	7.31
266.342	6.17
266.557	6.7
266.773	8
266.988	8.41
267.203	7.77
267.418	9.38
267.633	9.64
267.848	9.4
268.064	9.64
268.279	10.13
268.494	9.93
268.709	9.75
268.924	9.02
269.139	9.11
269.354	8.15
269.569	7.55
269.784	5.76
269.999	4.55
270.214	6.53
270.429	5.3
270.644	5.99
270.859	6.22
271.074	6.26
271.289	7.64
271.504	7.76
271.719	8.15
271.934	9.01
272.149	9.27
272.363	9.51
272.578	9.34
272.793	9.81
273.008	9.41
273.223	9.65
273.438	10.77
273.653	10.52
273.867	10.03
274.082	10.77
274.297	10.58
274.512	10.57
274.726	11.33
274.941	10.99
275.156	10.69
275.371	10.93
275.585	10.7
275.8	10.62
276.015	10.33
276.229	11.92
276.444	10.81
276.659	10.67
276.873	11.34
277.088	10.69
277.302	8.81
277.517	9.1
277.732	10.26
277.946	10.78
278.161	9.46
278.375	9.71
278.59	7.85
278.804	9.06
279.019	9.38
279.233	8.91
279.448	9.71
279.662	12.09
279.877	11.82
280.091	10.51
280.306	9.74
280.52	9.32
280.735	8.71
280.949	8.8
281.163	7.43
281.378	7.91
281.592	9.41
281.806	9.16
282.021	9.63
282.235	9.59
282.449	9.52
282.664	9.7
282.878	10.08
283.092	10
283.307	10.09
283.521	11.11
283.735	10.9
283.949	9.81
284.164	9.53
284.378	8.46
284.592	8.16
284.806	8.56
285.02	7.84
285.234	8.54
285.449	8.41
285.663	8.89
285.877	8.9
286.091	8.79
286.305	8.7
286.519	9.15
286.733	9.12
286.947	9.62
287.161	9.48
287.375	9.95
287.589	8.45
287.803	8.51
288.017	8.26
288.231	8.29
288.445	7.9
288.659	8.17
288.873	7.78
289.087	7.46
289.301	7.99
289.515	7.61
289.729	7.57
289.943	8.5
290.157	9.26
290.371	9.18
290.584	8.5
290.798	8.87
291.012	8.8
291.226	8.39
291.44	8.9
291.654	8.38
291.867	8.82
292.081	8.13
292.295	7.98
292.509	7.33
292.722	7.58
292.936	7.47
293.15	6.48
293.364	7.55
293.577	7.73
293.791	7.13
294.005	7.38
294.218	7.17
294.432	8.23
294.645	7.47
294.859	7.21
295.073	6.99
295.286	7.92
295.5	8.77
295.713	6.94
295.927	7.71
296.14	7.89
296.354	6.82
296.568	7.69
296.781	7.57
296.994	8.28
297.208	8.68
297.421	9.48
297.635	9.6
297.848	9.7
298.062	11.2
298.275	10.83
298.489	11.13
298.702	12.48
298.915	12.32
299.129	11.95
299.342	11.86
299.555	11.21
299.769	9.87
299.982	9.21
300.195	9
300.409	8.4
300.622	8.8
300.835	9.17
301.048	9.1
301.262	8.71
301.475	8.03
301.688	7.48
301.901	7.59
302.115	8.6
302.328	8.85
302.541	8.4
302.754	8.56
302.967	9.45
303.18	9.01
303.393	9.22
303.607	10.55
303.82	11.33
304.033	12.56
304.246	13.28
304.459	12.85
304.672	12.83
304.885	13.85
305.098	13.09
305.311	11.65
305.524	12.01
305.737	11.55
305.95	10.24
306.163	10.27
306.376	10.9
306.589	10.64
306.802	9.73
307.015	9.54
307.228	9.43
307.44	10.29
307.653	10.95
307.866	10.33
308.079	10.75
308.292	10.62
308.505	11.52
308.718	9.83
308.93	10.11
309.143	10.92
309.356	10.38
309.569	9.57
309.781	9.58
309.994	9.78
310.207	9.62
310.42	9.83
310.632	9.62
310.845	8.93
311.058	9.96
311.27	9.62
311.483	8.93
311.696	9.55
311.908	9.94
312.121	9.09
312.333	9.52
312.546	9.86
312.759	9.6
312.971	9.7
313.184	10.19
313.396	9.75
313.609	10.66
313.821	11.27
314.034	11.64
314.246	11.61
314.459	11.67
314.671	10.82
314.884	10.22
315.096	10.26
315.309	10.59
315.521	10.49
315.733	11.42
315.946	10.77
316.158	11.09
316.371	10.88
316.583	11.34
316.795	11.25
317.008	10.88
317.22	10.59
317.432	10.16
317.644	10.66
317.857	10.14
318.069	8.63
318.281	7.95
318.494	9.1
318.706	8.9
318.918	7.8
319.13	8.16
319.342	7.78
319.555	8.41
319.767	8.43
319.979	7.01
320.191	8.33
320.403	9.23
320.615	9.55
320.827	8.24
321.039	6.78
321.252	8.28
321.464	8.6
321.676	9.27
321.888	7.79
322.1	7.61
322.312	8.59
322.524	8.69
322.736	7.95
322.948	9.18
323.16	9.06
323.372	9.74
323.584	9.28
323.796	7.57
324.007	7.48
324.219	8.88
324.431	9.1
324.643	9.08
324.855	8.91
325.067	9.22
325.279	8.46
325.491	9.8
325.702	10.46
325.914	10.1
326.126	12.64
326.338	13.18
326.55	13.09
326.761	13.34
326.973	13.72
327.185	13.11
327.396	13.69
327.608	13.95
327.82	12.93
328.032	13.28
328.243	13.89
328.455	13.6
328.666	12.82
328.878	13.28
329.09	13.59
329.301	14.24
329.513	14.81
329.725	14.74
329.936	14.79
330.148	15.46
330.359	15.63
330.571	16.29
330.782	15.75
330.994	17.06
331.205	17.21
331.417	17.67
331.628	16.4
331.84	16.76
332.051	16.68
332.262	18.06
332.474	18.95
332.685	19.01
332.897	19.03
333.108	18.63
333.319	18.77
333.531	18.68
333.742	18
333.953	18.7
334.165	19.77
334.376	20.59
334.587	20.06
334.799	19.18
335.01	18.6
335.221	18.18
335.432	19.48
335.644	18.82
335.855	19.22
336.066	20.3
336.277	20.28
336.488	18.98
336.7	18.39
336.911	18.18
337.122	18.71
337.333	19.68
337.544	19.43
337.755	18.68
337.966	18.3
338.177	18.55
338.388	18.09
338.599	17.7
338.811	18.11
339.022	17.79
339.233	17.39
339.444	17.98
339.655	17.32
339.866	17.36
340.076	17.75
340.287	18.13
340.498	17.09
340.709	17.53
340.92	18.27
341.131	18.02
341.342	18.56
341.553	19.44
341.764	18.37
341.975	18.44
342.185	19.15
342.396	19.12
342.607	19.72
342.818	20.36
343.029	20.37
343.239	19.68
343.45	19.7
343.661	19.56
343.872	19.33
344.082	19.48
344.293	20.11
344.504	19.56
344.714	19.55
344.925	19.72
345.136	19.96
345.346	19.62
345.557	19.67
345.768	20.06
345.978	20.42
346.189	20.31
346.399	19.87
346.61	18.71
346.821	18.85
347.031	19.02
347.242	19.33
347.452	19.44
347.663	18.76
347.873	19.77
348.084	19.99
348.294	19.75
348.504	19.78
348.715	20.64
348.925	22.25
349.136	22.68
349.346	22.49
349.557	22.12
349.767	21.49
349.977	21.5
350.188	20.74
350.398	20.47
350.608	20.75
350.819	20.53
351.029	19.91
351.239	19.48
351.449	18.94
351.66	19.22
351.87	19.3
352.08	19.04
352.29	20.6
352.501	20.17
352.711	19.93
352.921	19.95
353.131	19.1
353.341	19.22
353.552	18.47
353.762	18.35
353.972	17.96
354.182	16.98
354.392	17.63
354.602	15.97
354.812	15.92
355.022	15.85
355.232	15.53
355.442	16.55
355.652	16.59
355.862	16.86
356.072	16.79
356.282	17.21
356.492	17.08
356.702	16.99
356.912	17.36
357.122	17.74
357.332	17.74
357.542	17.01
357.752	16.42
357.962	16.36
358.171	16.66
358.381	17.05
358.591	17.15
358.801	17.9
359.011	18.12
359.221	18.15
359.43	18.03
359.64	17.84
359.85	18.47
360.06	19.23
360.269	19.51
360.479	19.06
360.689	18.58
360.899	17.78
361.108	17.97
361.318	17.79
361.528	17.55
361.737	17.84
361.947	17.72
362.156	17.64
362.366	17.44
362.576	17.28
362.785	17.42
362.995	17.14
363.204	17.48
363.414	17.09
363.623	16.88
363.833	16.98
364.042	16.33
364.252	17.02
364.461	16.89
364.671	16.63
364.88	16.89
365.09	16.96
365.299	17.67
365.509	17.96
365.718	18.02
365.927	18.2
366.137	18.28
366.346	18.77
366.555	18.64
366.765	18.9
366.974	18.51
367.183	17.87
367.393	17.16
367.602	17.77
367.811	17.58
368.021	17.67
368.23	17.22
368.439	16.85
368.648	17.12
368.857	16.94
369.067	17.11
369.276	17.65
369.485	18.15
369.694	18.37
369.903	17.62
370.112	16.72
370.321	16.13
370.531	16.58
370.74	16.76
370.949	16.42
371.158	15.9
371.367	15.85
371.576	15.45
371.785	15.62
371.994	16.02
372.203	15.87
372.412	16.75
372.621	17.01
372.83	16.75
373.039	16.81
373.248	17.1
373.457	17.62
373.666	17.78
373.874	18.24
374.083	17.74
374.292	17.5
374.501	17.46
374.71	17.16
374.919	16.67
375.128	16.98
375.336	16.6
375.545	16.32
375.754	15.81
375.963	15.28
376.171	14.75
376.38	14.7
376.589	14.31
376.798	14.26
377.006	14.31
377.215	14.84
377.424	14.56
377.632	14.83
377.841	14.62
378.05	14.98
378.258	14.93
378.467	14.83
378.675	14.6
378.884	15.41
379.093	15.85
379.301	15.97
379.51	15.65
379.718	15.89
379.927	15.67
380.135	15.73
380.344	15.31
380.552	15.26
380.761	15.51
380.969	16.03
381.177	14.97
381.386	14.44
381.594	14.45
381.803	14.22
382.011	13.69
382.219	13.63
382.428	13.45
382.636	13.44
382.845	13.71
383.053	13.53
383.261	13.05
383.469	13.64
383.678	13.78
383.886	13.78
384.094	14.12
384.302	14.56
384.511	14.56
384.719	14.78
384.927	14.81
385.135	14.8
385.343	15.05
385.552	15.46
385.76	15.24
385.968	15.13
386.176	15.03
386.384	14.85
386.592	14.95
386.8	15.01
387.008	14.6
387.216	14.75
387.424	14.53
387.633	14.48
387.841	14.11
388.049	14.33
388.257	14.18
388.465	13.87
388.672	13.65
388.88	13.16
389.088	13.17
389.296	13.39
389.504	13.36
389.712	13.26
389.92	13.18
390.128	13.39
390.336	13.33
390.544	13.54
390.751	13.81
390.959	13.99
391.167	14.32
391.375	14.21
391.583	14.05
391.79	14.04
391.998	14.3
392.206	13.88
392.414	13.94
392.621	13.69
392.829	13.68
393.037	13.76
393.244	13.67
393.452	13.43
393.66	13.55
393.867	13.65
394.075	13.46
394.283	13.06
394.49	13.46
394.698	13.29
394.905	13.41
395.113	13.13
395.32	13.11
395.528	13.22
395.735	13.47
395.943	13.56
396.15	13.37
396.358	13.44
396.565	13.61
396.773	13.53
396.98	13.64
397.188	13.59
397.395	13.72
397.602	13.38
397.81	13
398.017	12.46
398.225	12.11
398.432	12.23
398.639	11.82
398.847	11.95
399.054	11.95
399.261	11.72
399.468	11.72
399.676	11.42
399.883	11.51
400.09	11.92
400.297	12.41
400.505	12.45
400.712	12.4
400.919	12.68
401.126	12.69
401.333	12.72
401.54	12.77
401.748	12.81
401.955	13.12
402.162	12.98
402.369	13.05
402.576	13.04
402.783	13.19
402.99	13.31
403.197	13.27
403.404	12.88
403.611	12.84
403.818	12.84
404.025	12.94
404.232	12.59
404.439	12.86
404.646	12.76
404.853	12.4
405.06	12.3
405.267	12.47
405.474	12.41
405.681	12.76
405.887	12.74
406.094	12.68
406.301	12.47
406.508	12.84
406.715	12.33
406.922	12.11
407.128	12.09
407.335	12.1
407.542	12.03
407.749	12.23
407.955	12.19
408.162	12.27
408.369	12.35
408.575	12.5
408.782	12.37
408.989	12.66
409.195	12.65
409.402	12.96
409.609	12.87
409.815	12.64
410.022	12.74
410.228	12.63
410.435	12.5
410.642	12.62
410.848	12.44
411.055	12.4
411.261	12.47
411.468	12.42
411.674	12.27
411.881	12.64
412.087	12.57
412.294	12.6
412.5	12.51
412.706	12.51
412.913	12.46
413.119	12.46
413.326	12.23
413.532	12.34
413.738	12.43
413.945	12.5
414.151	12.24
414.357	12.39
414.564	12.33
414.77	12.45
414.976	12.46
415.182	12.22
415.389	12.44
415.595	12.68
415.801	12.56
416.007	12.82
416.214	12.7
416.42	12.66
416.626	12.71
416.832	12.71
417.038	12.65
417.244	12.56
417.45	12.67
417.657	12.66
417.863	12.88
418.069	12.8
418.275	12.66
418.481	12.81
418.687	12.81
418.893	12.78
419.099	12.65
419.305	12.61
419.511	12.71
419.717	12.65
419.923	12.5
420.129	12.36
420.335	12.31
420.541	12.23
420.746	12.07
420.952	11.97
421.158	11.92
421.364	11.92
421.57	11.95
421.776	11.97
421.982	12.03
422.187	12.01
422.393	11.85
422.599	11.78
422.805	11.77
423.01	11.69
423.216	11.73
423.422	11.69
423.628	11.66
423.833	11.44
424.039	11.27
424.245	11.21
424.45	11.34
424.656	11.51
424.862	11.59
425.067	11.52
425.273	11.65
425.478	11.6
425.684	11.56
425.889	11.73
426.095	12
426.301	12
426.506	12.01
426.712	11.89
426.917	11.86
427.123	11.84
427.328	11.9
427.533	11.94
427.739	12.17
427.944	12.17
428.15	11.87
428.355	11.66
428.561	11.85
428.766	11.92
428.971	11.87
429.177	11.8
429.382	11.88
429.587	12.01
429.793	11.92
429.998	11.71
430.203	11.68
430.408	11.9
430.614	12.12
430.819	12.13
431.024	11.98
431.229	11.97
431.434	11.85
431.64	11.77
431.845	11.57
432.05	11.67
432.255	11.58
432.46	11.63
432.665	11.52
432.87	11.44
433.076	11.38
433.281	11.39
433.486	11.54
433.691	11.66
433.896	11.64
434.101	11.73
434.306	11.57
434.511	11.61
434.716	11.61
434.921	11.49
435.126	11.64
435.331	11.62
435.535	11.66
435.74	11.54
435.945	11.58
436.15	11.56
436.355	11.67
436.56	11.7
436.765	11.74
436.97	11.77
437.174	11.95
437.379	11.76
437.584	11.56
437.789	11.41
437.993	11.32
438.198	11.26
438.403	11.29
438.608	11.31
438.812	11.34
439.017	11.33
439.222	11.4
439.426	11.3
439.631	11.37
439.836	11.72
440.04	11.88
440.245	12
440.45	11.91
440.654	12.05
440.859	11.98
441.063	12.09
441.268	12.1
441.472	11.89
441.677	11.91
441.881	11.77
442.086	11.35
442.29	11.29
442.495	11.28
442.699	11.29
442.904	11.06
443.108	10.98
443.312	10.88
443.517	10.92
443.721	11
443.925	11.11
444.13	11.2
444.334	11.53
444.538	11.51
444.743	11.48
444.947	11.5
445.151	11.47
445.356	11.65
445.56	11.73
445.764	11.68
445.968	11.8
446.173	11.7
446.377	11.69
446.581	11.67
446.785	11.68
446.989	11.66
447.193	11.65
447.398	11.61
447.602	11.47
447.806	11.33
448.01	11.24
448.214	11.18
448.418	11.15
448.622	11.18
448.826	11.27
449.03	11.27
449.234	11.16
449.438	11.14
449.642	11.22
449.846	11.16
450.05	11.27
450.254	11.34
450.458	11.37
450.662	11.51
450.866	11.37
451.069	11.21
451.273	11.21
451.477	11.33
451.681	11.39
451.885	11.39
452.089	11.54
452.292	11.42
452.496	11.41
452.7	11.26
452.904	11.04
453.107	11.19
453.311	11.24
453.515	11.14
453.719	11.21
453.922	11.2
454.126	11.25
454.33	11.35
454.533	11.27
454.737	11.25
454.94	11.28
455.144	11.43
455.348	11.32
455.551	11.28
455.755	11.25
455.958	11.08
456.162	11.15
456.365	11.32
456.569	11.22
456.772	11.29
456.976	11.54
457.179	11.64
457.383	11.52
457.586	11.53
457.79	11.58
457.993	11.7
458.196	11.69
458.4	11.65
458.603	11.62
458.807	11.55
459.01	11.57
459.213	11.36
459.417	11.34
459.62	11.39
459.823	11.32
460.026	11.22
460.23	11.24
460.433	11.26
460.636	11.17
460.839	11.09
461.042	11.05
461.246	11.02
461.449	10.97
461.652	10.99
461.855	10.95
462.058	11.03
462.261	11.24
462.464	11.24
462.668	11.44
462.871	11.62
463.074	11.58
463.277	11.59
463.48	11.68
463.683	11.93
463.886	11.95
464.089	11.99
464.292	12.03
464.495	11.93
464.698	11.81
464.901	11.65
465.104	11.6
465.306	11.72
465.509	11.74
465.712	11.79
465.915	11.64
466.118	11.63
466.321	11.7
466.524	11.75
466.726	11.66
466.929	11.69
467.132	11.62
467.335	11.63
467.538	11.43
467.74	11.44
467.943	11.36
468.146	11.39
468.348	11.42
468.551	11.35
468.754	11.21
468.956	11.29
469.159	11.35
469.362	11.45
469.564	11.46
469.767	11.74
469.969	11.72
470.172	11.78
470.375	11.76
470.577	11.75
470.78	11.86
470.982	12
471.185	11.97
471.387	11.54
471.59	11.6
471.792	11.6
471.995	11.45
472.197	11.49
472.399	11.55
472.602	11.64
472.804	11.47
473.007	11.28
473.209	11.14
473.411	11.09
473.614	11.49
473.816	11.52
474.018	11.51
474.22	11.55
474.423	11.57
474.625	11.42
474.827	11.46
475.03	11.53
475.232	11.79
475.434	11.92
475.636	11.88
475.838	11.94
476.04	11.8
476.243	11.76
476.445	11.73
476.647	11.69
476.849	11.76
477.051	11.69
477.253	11.74
477.455	11.72
477.657	11.64
477.859	11.75
478.061	11.59
478.263	11.7
478.465	11.69
478.667	11.7
478.869	11.77
479.071	11.61
479.273	11.48
479.475	11.3
479.677	11.17
479.879	11.31
480.081	11.24
480.283	11.29
480.485	11.05
480.686	11.02
480.888	11.01
481.09	10.94
481.292	11.04
481.494	11.05
481.695	11.25
481.897	11.3
482.099	11.21
482.301	11.21
482.502	11.22
482.704	11.3
482.906	11.35
483.107	11.38
483.309	11.39
483.511	11.34
483.712	11.32
483.914	11.3
484.115	11.25
484.317	11.28
484.519	11.27
484.72	11.25
484.922	11.22
485.123	11.2
485.325	11.14
485.526	11.12
485.728	11.18
485.929	11.25
486.131	11.23
486.332	11.26
486.534	11.2
486.735	11.21
486.936	11.24
487.138	11.26
487.339	11.23
487.541	11.28
487.742	11.27
487.943	11.27
488.144	11.23
488.346	11.25
488.547	11.25
488.748	11.27
488.95	11.31
489.151	11.3
489.352	11.29
489.553	11.39
489.755	11.35
489.956	11.38
490.157	11.33
490.358	11.41
490.559	11.43
490.76	11.44
490.961	11.51
491.163	11.49
491.364	11.41
491.565	11.49
491.766	11.45
491.967	11.53
492.168	11.53
492.369	11.54
492.57	11.48
492.771	11.48
492.972	11.43
493.173	11.44
493.374	11.48
493.575	11.53
493.776	11.48
493.976	11.44
494.177	11.38
494.378	11.45
494.579	11.37
494.78	11.36
494.981	11.34
495.182	11.5
495.382	11.26
495.583	11.18
495.784	11.15
495.985	11.09
496.185	11.08
496.386	11.1
496.587	11.04
496.788	11.11
496.988	11.24
497.189	11.17
497.39	11.21
497.59	11.42
497.791	11.5
497.992	11.6
498.192	11.85
498.393	11.89
498.593	11.97
498.794	12.02
498.994	12.1
499.195	12.16
499.395	12.26
499.596	12.28
499.796	12.2
499.997	12.23
500.197	12.19
500.398	12.08
500.598	12.07
500.799	11.94
500.999	11.83
501.199	11.87
501.4	11.68
501.6	11.75
501.801	11.53
502.001	11.36
502.201	11.33
502.402	11.51
502.602	11.59
502.802	11.68
503.002	11.81
503.203	11.92
503.403	11.87
503.603	11.89
503.803	11.9
504.003	12.15
504.204	12.42
504.404	12.28
504.604	12.32
504.804	12.42
505.004	12.52
505.204	12.52
505.404	12.62
505.604	12.52
505.804	12.8
506.005	12.92
506.205	12.89
506.405	12.76
506.605	13.05
506.805	13
507.005	12.83
507.204	12.72
507.404	12.78
507.604	12.72
507.804	12.84
508.004	12.84
508.204	12.82
508.404	12.91
508.604	13.03
508.804	12.98
509.003	13.05
509.203	13.12
509.403	13.17
509.603	13.1
509.803	13.28
510.002	13.33
510.202	13.25
510.402	13.22
510.602	13.18
510.801	13.22
511.001	13.23
511.201	13.2
511.4	13.25
511.6	13.41
511.8	13.47
511.999	13.41
512.199	13.58
512.398	13.53
512.598	13.64
512.797	13.83
512.997	13.77
513.197	13.88
513.396	13.94
513.596	13.91
513.795	13.84
513.994	13.95
514.194	14.01
514.393	13.96
514.593	14.21
514.792	14.31
514.992	14.14
515.191	14.38
515.39	14.43
515.59	14.56
515.789	14.62
515.988	14.76
516.188	14.86
516.387	15
516.586	15.18
516.786	15.15
516.985	15.15
517.184	15.17
517.383	15.21
517.582	15.22
517.782	15.33
517.981	15.46
518.18	15.44
518.379	15.44
518.578	15.52
518.777	15.57
518.976	15.63
519.176	15.72
519.375	15.89
519.574	15.95
519.773	16.01
519.972	16.1
520.171	16.14
520.37	16.31
520.569	16.43
520.768	16.52
520.967	16.54
521.166	16.69
521.365	16.85
521.564	16.85
521.762	16.91
521.961	17.02
522.16	16.99
522.359	17.2
522.558	17.22
522.757	17.27
522.956	17.28
523.154	17.33
523.353	17.38
523.552	17.31
523.751	17.49
523.949	17.64
524.148	17.7
524.347	17.8
524.546	17.77
524.744	17.87
524.943	18.05
525.142	18.06
525.34	18.18
525.539	18.3
525.737	18.46
525.936	18.6
526.135	18.64
526.333	18.72
526.532	18.86
526.73	18.99
526.929	19.1
527.127	19.11
527.326	19.21
527.524	19.34
527.723	19.38
527.921	19.44
528.12	19.46
528.318	19.53
528.516	19.56
528.715	19.55
528.913	19.6
529.112	19.68
529.31	19.71
529.508	19.73
529.707	19.7
529.905	19.75
530.103	19.82
530.301	19.88
530.5	19.91
530.698	19.98
530.896	20.08
531.094	20.16
531.293	20.17
531.491	20.37
531.689	20.54
531.887	20.75
532.085	20.81
532.283	20.8
532.481	20.81
532.68	20.97
532.878	21.19
533.076	21.29
533.274	21.32
533.472	21.34
533.67	21.35
533.868	21.34
534.066	21.35
534.264	21.45
534.462	21.52
534.66	21.7
534.858	21.67
535.056	21.69
535.253	21.67
535.451	21.79
535.649	21.94
535.847	22.04
536.045	22.18
536.243	22.36
536.441	22.48
536.638	22.5
536.836	22.56
537.034	22.65
537.232	22.69
537.43	22.9
537.627	22.97
537.825	23.07
538.023	23.01
538.22	23.14
538.418	23.04
538.616	22.88
538.813	23.07
539.011	23.17
539.209	23.44
539.406	23.55
539.604	23.54
539.801	23.69
539.999	23.79
540.196	24.02
540.394	23.99
540.591	24.13
540.789	24.38
540.986	24.32
541.184	24.32
541.381	24.32
541.579	24.37
541.776	24.46
541.974	24.43
542.171	24.4
542.368	24.43
542.566	24.52
542.763	24.5
542.96	24.48
543.158	24.65
543.355	24.67
543.552	24.73
543.75	24.81
543.947	24.81
544.144	24.88
544.341	25.08
544.539	25.08
544.736	25.18
544.933	25.34
545.13	25.41
545.327	25.32
545.524	25.4
545.722	25.41
545.919	25.4
546.116	25.46
546.313	25.53
546.51	25.47
546.707	25.48
546.904	25.48
547.101	25.53
547.298	25.51
547.495	25.66
547.692	25.76
547.889	25.81
548.086	25.83
548.283	25.89
548.48	26.05
548.677	26.24
548.874	26.46
549.07	26.55
549.267	26.54
549.464	26.9
549.661	26.97
549.858	27.19
550.055	27.26
550.251	27.55
550.448	27.51
550.645	27.65
550.842	27.6
551.038	27.42
551.235	27.73
551.432	27.95
551.628	27.9
551.825	27.98
552.022	27.88
552.218	27.86
552.415	27.79
552.612	28.07
552.808	28.09
553.005	28.19
553.201	28.32
553.398	28.02
553.594	27.8
553.791	27.81
553.987	27.99
554.184	28.07
554.38	28.1
554.577	28.15
554.773	28.21
554.97	28.24
555.166	28.35
555.362	28.46
555.559	28.56
555.755	28.8
555.952	28.94
556.148	28.86
556.344	29.02
556.541	29.13
556.737	29.24
556.933	29.16
557.129	29.01
557.326	28.91
557.522	28.88
557.718	29.09
557.914	29.18
558.11	28.97
558.307	29.12
558.503	29.04
558.699	29.05
558.895	28.99
559.091	28.96
559.287	29.16
559.483	29.31
559.679	29.32
559.876	29.38
560.072	29.35
560.268	29.48
560.464	29.3
560.66	29.34
560.856	29.62
561.052	29.65
561.247	29.83
561.443	29.9
561.639	29.79
561.835	30.08
562.031	30.15
562.227	30.11
562.423	30.39
562.619	30.59
562.815	30.73
563.01	30.64
563.206	30.75
563.402	30.7
563.598	30.74
563.793	31.01
563.989	31.06
564.185	30.96
564.381	31.18
564.576	31.16
564.772	31.42
564.968	31.33
565.163	31.43
565.359	31.4
565.555	31.6
565.75	31.6
565.946	31.68
566.141	31.69
566.337	31.84
566.532	31.96
566.728	31.93
566.923	31.81
567.119	32.02
567.314	32.01
567.51	32.14
567.705	32.11
567.901	32.12
568.096	32.08
568.292	32.04
568.487	31.99
568.682	31.9
568.878	32.13
569.073	32.39
569.268	32.38
569.464	32.59
569.659	32.8
569.854	32.97
570.05	33.13
570.245	33.15
570.44	33.23
570.635	33.42
570.831	33.47
571.026	33.32
571.221	33.17
571.416	33.17
571.611	33.31
571.806	33.19
572.002	33.11
572.197	33.13
572.392	33.25
572.587	33.52
572.782	33.33
572.977	33.42
573.172	33.48
573.367	33.52
573.562	33.68
573.757	33.58
573.952	33.64
574.147	33.71
574.342	33.83
574.537	33.91
574.732	33.8
574.927	33.86
575.121	33.9
575.316	34.11
575.511	33.95
575.706	33.94
575.901	33.95
576.096	33.93
576.29	34.07
576.485	34.03
576.68	33.9
576.875	33.88
577.069	34.06
577.264	34.08
577.459	33.96
577.654	34.24
577.848	34.27
578.043	34.21
578.238	34.38
578.432	34.29
578.627	34.5
578.821	34.6
579.016	34.53
579.21	34.88
579.405	34.94
579.6	35.11
579.794	35.12
579.989	35.08
580.183	35.23
580.378	35.26
580.572	35.26
580.766	35.12
580.961	35.08
581.155	35.29
581.35	35.1
581.544	35.16
581.738	35.12
581.933	35.24
582.127	35.31
582.321	35.55
582.516	35.82
582.71	36.01
582.904	36.28
583.099	36.4
583.293	36.56
583.487	36.52
583.681	36.79
583.875	36.91
584.07	37.04
584.264	37
584.458	36.79
584.652	36.65
584.846	36.69
585.04	36.74
585.234	36.82
585.428	36.45
585.623	36.52
585.817	36.18
586.011	36.16
586.205	36.11
586.399	36.39
586.593	36.32
586.787	36.2
586.981	36.18
587.174	36.05
587.368	35.87
587.562	36.21
587.756	36.25
587.95	36.25
588.144	36.15
588.338	36.07
588.532	36.07
588.725	36.26
588.919	36.32
589.113	36.5
589.307	36.52
589.501	36.78
589.694	36.72
589.888	36.88
590.082	37.27
590.275	37.35
590.469	37.4
590.663	37.39
590.856	37.43
591.05	37.4
591.244	37.23
591.437	37.19
591.631	37.4
591.824	37.4
592.018	37.08
592.212	36.98
592.405	36.96
592.599	37.12
592.792	37.27
592.986	37.37
593.179	37.59
593.372	37.8
593.566	37.95
593.759	37.56
593.953	37.63
594.146	37.87
594.339	37.87
594.533	38.01
594.726	37.92
594.92	37.87
595.113	37.83
595.306	37.8
595.499	37.44
595.693	37.58
595.886	37.92
596.079	37.94
596.272	37.96
596.466	38.01
596.659	37.91
596.852	37.89
597.045	37.94
597.238	37.93
597.431	38.04
597.624	38.23
597.818	38.06
598.011	37.96
598.204	38
598.397	38.03
598.59	38.07
598.783	38.29
598.976	38.4
599.169	38.52
599.362	38.52
599.555	38.32
599.748	38.44
599.941	38.63
600.134	38.68
600.326	38.73
600.519	38.59
600.712	38.37
600.905	38.29
601.098	38.41
601.291	38.39
601.483	38.48
601.676	38.68
601.869	38.6
602.062	38.58
602.255	38.62
602.447	38.77
602.64	38.85
602.833	38.94
603.025	38.91
603.218	38.74
603.411	38.57
603.603	38.44
603.796	38.35
603.989	38.38
604.181	38.46
604.374	38.36
604.566	38.35
604.759	38.29
604.951	38.39
605.144	38.5
605.336	38.52
605.529	38.55
605.721	38.55
605.914	38.48
606.106	38.48
606.299	38.48
606.491	38.55
606.683	38.41
606.876	38.74
607.068	38.73
607.26	38.49
607.453	38.66
607.645	38.7
607.837	39.05
608.03	39.38
608.222	39.48
608.414	39.25
608.606	39.28
608.799	39.35
608.991	39.26
609.183	39.49
609.375	39.71
609.567	39.55
609.759	39.61
609.952	39.58
610.144	39.59
610.336	39.64
610.528	39.88
610.72	40.07
610.912	40.29
611.104	40.31
611.296	40.02
611.488	40.05
611.68	40.14
611.872	40.11
612.064	40.1
612.256	39.83
612.448	39.67
612.64	39.55
612.832	39.49
613.023	39.37
613.215	39.26
613.407	39.5
613.599	39.37
613.791	39.45
613.983	39.58
614.174	39.55
614.366	39.61
614.558	39.8
614.75	39.84
614.941	39.9
615.133	39.99
615.325	40.17
615.516	40.1
615.708	40.29
615.9	40.21
616.091	40.14
616.283	40.43
616.475	40.78
616.666	40.91
616.858	41.09
617.049	41.22
617.241	40.92
617.432	40.78
617.624	40.77
617.815	40.95
618.007	40.92
618.198	40.75
618.39	40.4
618.581	40.5
618.773	40.51
618.964	40.29
619.155	40
619.347	40.12
619.538	40.1
619.729	40.27
619.921	40.07
620.112	40.13
620.303	40.48
620.494	40.59
620.686	40.44
620.877	40.41
621.068	40.22
621.259	40.35
621.451	40.65
621.642	40.99
621.833	40.86
622.024	40.76
622.215	40.87
622.406	40.85
622.597	40.56
622.788	40.36
622.98	40.36
623.171	40.78
623.362	40.62
623.553	40.52
623.744	40.46
623.935	40.43
624.126	40.98
624.317	40.79
624.508	40.71
624.698	41.12
624.889	41.27
625.08	41.46
625.271	41.42
625.462	41.42
625.653	41.38
625.844	41.37
626.034	41.48
626.225	41.31
626.416	41.52
626.607	41.73
626.798	41.62
626.988	41.72
627.179	41.67
627.37	41.84
627.56	41.76
627.751	41.76
627.942	41.8
628.132	41.81
628.323	41.63
628.514	41.68
628.704	41.67
628.895	41.63
629.085	41.41
629.276	41.06
629.466	40.97
629.657	41.15
629.847	41.21
630.038	41.19
630.228	41.24
630.419	41.09
630.609	41.16
630.8	41.19
630.99	41.57
631.181	42.01
631.371	42.12
631.561	41.92
631.752	41.96
631.942	41.96
632.132	41.88
632.323	41.69
632.513	41.98
632.703	41.91
632.893	41.64
633.084	41.48
633.274	41.42
633.464	41.82
633.654	41.77
633.844	41.76
634.034	41.64
634.225	41.64
634.415	41.78
634.605	41.59
634.795	41.78
634.985	41.73
635.175	41.38
635.365	41.04
635.555	40.85
635.745	41.1
635.935	41.36
636.125	41.66
636.315	41.8
636.505	41.79
636.695	41.83
636.885	41.7
637.075	41.94
637.265	42.57
637.455	42.79
637.644	42.78
637.834	42.85
638.024	42.5
638.214	42.47
638.404	42.56
638.593	42.77
638.783	42.94
638.973	43.09
639.163	42.97
639.352	42.59
639.542	42.58
639.732	42.66
639.921	42.52
640.111	42.62
640.301	42.4
640.49	42.48
640.68	42.39
640.87	42.57
641.059	42.56
641.249	42.71
641.438	42.84
641.628	42.93
641.817	43.15
642.007	43.41
642.196	43.62
642.386	43.61
642.575	43.62
642.764	43.8
642.954	43.69
643.143	43.73
643.333	43.88
643.522	44.07
643.711	44.21
643.901	43.98
644.09	43.78
644.279	43.97
644.469	44.28
644.658	43.95
644.847	43.71
645.036	43.63
645.226	43.84
645.415	43.28
645.604	43.07
645.793	43.12
645.982	43.2
646.171	42.99
646.361	42.84
646.55	42.78
646.739	42.83
646.928	43.07
647.117	43.16
647.306	42.77
647.495	42.95
647.684	42.96
647.873	42.77
648.062	42.89
648.251	43.07
648.44	42.58
648.629	42.6
648.818	43.03
649.007	42.93
649.196	43
649.384	43.1
649.573	43.49
649.762	43.5
649.951	43.78
650.14	43.8
650.328	43.77
650.517	43.93
650.706	44.11
650.895	43.83
651.083	43.71
651.272	43.65
651.461	43.9
651.65	43.9
651.838	43.87
652.027	43.68
652.216	43.38
652.404	43.61
652.593	43.92
652.781	43.36
652.97	43.13
653.158	43.25
653.347	43.66
653.535	43.35
653.724	43.13
653.912	43.27
654.101	43.43
654.289	43.44
654.478	43.55
654.666	43.33
654.855	43.52
655.043	43.66
655.231	43.85
655.42	43.68
655.608	44.04
655.796	44.34
655.985	44.75
656.173	44.91
656.361	45.26
656.55	44.67
656.738	44.66
656.926	45.07
657.114	45.08
657.302	44.99
657.491	44.78
657.679	44.27
657.867	44.16
658.055	44.06
658.243	43.8
658.431	43.63
658.619	43.99
658.807	43.62
658.996	43.63
659.184	43.93
659.372	43.81
659.56	43.83
659.748	43.92
659.936	43.99
660.124	43.78
660.311	44.11
660.499	43.89
660.687	44.16
660.875	44.33
661.063	44.05
661.251	43.73
661.439	43.84
661.627	44.12
661.814	44.14
662.002	43.88
662.19	44.04
662.378	43.84
662.565	44.03
662.753	43.69
662.941	44.26
663.129	43.98
663.316	43.94
663.504	43.67
663.692	43.02
663.879	43.35
664.067	43.62
664.254	43.46
664.442	43.67
664.63	43.45
664.817	43.33
665.005	43.14
665.192	43.87
665.38	43.97
665.567	44.28
665.755	44.73
665.942	44.57
666.13	44.53
666.317	44.69
666.504	44.11
666.692	44.51
666.879	44.53
667.067	44.53
667.254	44.12
667.441	44.3
667.629	44.31
667.816	44.12
668.003	44.13
668.19	44.58
668.378	44.6
668.565	44.92
668.752	45.09
668.939	45.2
669.127	45.63
669.314	45.97
669.501	45.75
669.688	45.74
669.875	45.52
670.062	45.55
670.249	45.1
670.436	44.89
670.623	45.17
670.81	45.02
670.997	45.48
671.184	45.04
671.371	45.46
671.558	45.99
671.745	46.53
671.932	47.25
672.119	46.89
672.306	46.9
672.493	47.03
672.68	46.93
672.867	47.37
673.054	47.06
673.24	47.63
673.427	47.12
673.614	46.78
673.801	46.3
673.988	45.94
674.174	46.36
674.361	46.45
674.548	46.4
674.734	46.06
674.921	45.67
675.108	45.93
675.294	45.53
675.481	45.27
675.668	45.2
675.854	45.4
676.041	45.56
676.227	45.57
676.414	46.13
676.601	46.25
676.787	46.41
676.974	46.63
677.16	46.46
677.347	46.51
677.533	46.63
677.719	46.81
677.906	46.3
678.092	46.28
678.279	46.55
678.465	45.96
678.651	45.73
678.838	45.45
679.024	45.36
679.21	45.2
679.397	44.98
679.583	45.06
679.769	44.88
679.955	45.22
680.142	45.22
680.328	45.01
680.514	44.91
680.7	44.89
680.886	45.45
681.073	45.29
681.259	45.7
681.445	45.71
681.631	45.61
681.817	45.82
682.003	45.88
682.189	45.72
682.375	45.34
682.561	45.65
682.747	45.94
682.933	45.04
683.119	45.19
683.305	44.8
683.491	44.97
683.677	45.41
683.863	45.56
684.049	45.45
684.235	45.56
684.42	45.72
684.606	45.75
684.792	45.75
684.978	46.63
685.164	46.56
685.349	46.46
685.535	46.38
685.721	45.97
685.907	45.86
686.092	45.8
686.278	46.01
686.464	46.3
686.649	46.05
686.835	45.92
687.021	45.84
687.206	45.78
687.392	45.91
687.577	46.08
687.763	46.03
687.948	45.74
688.134	45.98
688.319	45.68
688.505	45.7
688.69	45.7
688.876	46.01
689.061	45.49
689.247	45.64
689.432	45.32
689.618	45.19
689.803	45.51
689.988	46.03
690.174	45.77
690.359	46.17
690.544	46.43
690.73	46.64
690.915	46.33
691.1	46.6
691.285	46.88
691.471	47.55
691.656	47.88
691.841	47.81
692.026	47.75
692.211	47.8
692.396	47.25
692.582	47.38
692.767	47.4
692.952	47.74
693.137	48.06
693.322	47.7
693.507	47.21
693.692	46.6
693.877	46.64
694.062	46.31
694.247	46.52
694.432	47.06
694.617	46.98
694.802	46.98
694.987	47
695.172	46.82
695.357	46.64
695.541	46.7
695.726	47.34
695.911	47.53
696.096	47.62
696.281	47.3
696.466	47.46
696.65	47.21
696.835	47.43
697.02	47.14
697.204	47.4
697.389	48.07
697.574	47.85
697.759	47.27
697.943	47.23
698.128	47.04
698.312	46.85
698.497	46.22
698.682	46.22
698.866	46.14
699.051	46.26
699.235	46.06
699.42	45.73
699.604	45.75
699.789	45.73
699.973	45.68
700.158	45.78
700.342	45.92
700.527	46.6
700.711	46.29
700.895	46.24
701.08	45.82
701.264	45.82
701.448	45.74
701.633	46.1
701.817	46.41
702.001	46.07
702.186	46.37
702.37	46.4
702.554	45.95
702.738	46.05
702.923	46.22
703.107	46.64
703.291	46.65
703.475	46.58
703.659	46.39
703.843	46.68
704.027	47.32
704.212	47.13
704.396	47.93
704.58	48.03
704.764	48.5
704.948	48.19
705.132	48.58
705.316	48.05
705.5	48.33
705.684	49.03
705.868	48.84
706.052	48.65
706.235	47.86
706.419	47.38
706.603	47.77
706.787	47.31
706.971	47.2
707.155	47.54
707.339	47.84
707.522	47.91
707.706	47.47
707.89	47.32
708.074	47.66
708.257	48.15
708.441	48.44
708.625	48.13
708.808	48.27
708.992	48.08
709.176	47.91
709.359	48.02
709.543	47.58
709.727	47.41
709.91	47.01
710.094	46.73
710.277	46.88
710.461	45.86
710.644	45.89
710.828	46.24
711.011	46.66
711.195	46.2
711.378	46.65
711.562	47.43
711.745	47.71
711.928	48
712.112	48.02
712.295	48.27
712.478	48.3
712.662	48.3
712.845	47.88
713.028	47.66
713.212	47.53
713.395	47.24
713.578	47.04
713.761	47.2
713.945	47.13
714.128	46.86
714.311	47.41
714.494	48.13
714.677	47.78
714.86	48.78
715.043	49.1
715.227	49.33
715.41	49.53
715.593	49.47
715.776	48.93
715.959	49.88
716.142	50.06
716.325	49.3
716.508	49.49
716.691	50.32
716.874	49.73
717.057	49.72
717.239	49.83
717.422	49.27
717.605	49.85
717.788	50.39
717.971	49.89
718.154	50.04
718.337	50.23
718.519	49.85
718.702	49.44
718.885	49.69
719.068	49.45
719.25	49.86
719.433	50.62
719.616	49.29
719.798	48.91
719.981	48.93
720.164	48.99
720.346	48.95
720.529	48.58
720.712	47.92
720.894	47.1
721.077	47.04
721.259	46.66
721.442	45.94
721.624	46.29
721.807	46.51
721.989	46.66
722.172	46.8
722.354	46.34
722.537	47.05
722.719	48.25
722.901	49.27
723.084	49.33
723.266	49.49
723.448	49.81
723.631	50.77
723.813	51.36
723.995	51.12
724.178	50.64
724.36	50.98
724.542	50.8
724.724	49.51
724.907	48.94
725.089	49.62
725.271	48.89
725.453	49.21
725.635	48.94
725.817	49.18
725.999	49.3
726.181	49.51
726.364	49.72
726.546	49.93
726.728	51.02
726.91	51.46
727.092	51.28
727.274	52.09
727.456	51.62
727.638	51.06
727.819	50.17
728.001	50.67
728.183	50.27
728.365	49.77
728.547	49.78
728.729	49.28
728.911	48.86
729.093	48.29
729.274	48.73
729.456	48.72
729.638	48.74
729.82	49.39
730.001	48.44
730.183	48.32
730.365	48.35
730.546	48.2
730.728	47.86
730.91	48.58
731.091	48.57
731.273	47.73
731.455	47.91
731.636	47.71
731.818	46.92
731.999	47.19
732.181	47.47
732.362	48.1
732.544	48.1
732.725	48.05
732.907	47.61
733.088	47.77
733.27	48
733.451	48.4
733.633	48.39
733.814	48.55
733.995	47.93
734.177	47.6
734.358	47.82
734.539	48.17
734.721	48.27
734.902	47.96
735.083	48.27
735.264	48.21
735.446	47.55
735.627	48.07
735.808	48.27
735.989	49.17
736.17	50.35
736.351	49.17
736.533	49
736.714	49.48
736.895	49.39
737.076	49.47
737.257	49.84
737.438	50.31
737.619	49.67
737.8	49.25
737.981	49.31
738.162	49.08
738.343	49.39
738.524	50.38
738.705	51.29
738.886	51.83
739.067	51.03
739.247	50.76
739.428	50.52
739.609	51.34
739.79	52.37
739.971	52.38
740.151	52.16
740.332	52.77
740.513	51.7
740.694	50.67
740.874	49.99
741.055	51.74
741.236	52.21
741.417	52.5
741.597	52.35
741.778	51.05
741.958	50.32
742.139	50.62
742.32	50.5
742.5	49.75
742.681	49.62
742.861	50.46
743.042	49
743.222	48.22
743.403	48.72
743.583	48.59
743.764	49.85
743.944	50.99
744.124	50.05
744.305	50.05
744.485	50.66
744.666	50.25
744.846	49.19
745.026	49.85
745.207	49.75
745.387	49.01
745.567	48.51
745.747	47.45
745.928	47.08
746.108	47.65
746.288	47.44
746.468	47.4
746.648	47.81
746.829	48.33
747.009	48.44
747.189	48.64
747.369	49.62
747.549	49.52
747.729	50.13
747.909	49.97
748.089	50.01
748.269	49.63
748.449	50.01
748.629	50.95
748.809	50.85
748.989	51.05
749.169	50.63
749.349	49.43
749.529	50.69
749.709	50.34
749.889	50.3
750.068	49.9
750.248	50.63
750.428	50.57
750.608	51.11
750.788	51.57
750.967	50.91
751.147	51.25
751.327	50.38
751.507	49.27
751.686	49.48
751.866	49.89
752.046	49.83
752.225	50.49
752.405	50.56
752.585	49.22
752.764	49.7
752.944	49.65
753.123	49.24
753.303	51.24
753.482	51.88
753.662	52.19
753.841	51.09
754.021	51.5
754.2	50.82
754.38	50.78
754.559	51.16
754.739	50.15
754.918	50.26
755.097	51.67
755.277	50.83
755.456	50.39
755.635	49.63
755.815	50.5
755.994	50.55
756.173	50.17
756.352	50.59
756.532	50.38
756.711	52.31
756.89	52.12
757.069	50.78
757.248	49.89
757.427	49.83
757.607	50.38
757.786	51.24
757.965	51.58
758.144	52.6
758.323	51.79
758.502	51.92
758.681	50.87
758.86	51.61
759.039	52
759.218	52.95
759.397	52.98
759.576	53.26
759.755	51.66
759.934	52.11
760.113	50.83
760.291	50.65
760.47	50.24
760.649	50.96
760.828	49.74
761.007	49.75
761.186	50.02
761.364	50.04
761.543	50.03
761.722	50.86
761.901	50.07
762.079	50.02
762.258	49.98
762.437	50.3
762.615	49.24
762.794	49.66
762.972	49.76
763.151	49.22
763.33	49.67
763.508	49.08
763.687	49.06
763.865	49.29
764.044	49.98
764.222	49.98
764.401	49.75
764.579	49.8
764.758	50.2
764.936	50.65
765.114	50.65
765.293	50.29
765.471	50.22
765.65	49.98
765.828	49.98
766.006	49.43
766.184	49.49
766.363	49.83
766.541	49.86
766.719	49.93
766.898	49.46
767.076	49.9
767.254	49.96
767.432	50.42
767.61	50.61
767.788	50.91
767.967	51.84
768.145	52.52
768.323	52.24
768.501	52.61
768.679	52.25
768.857	52.31
769.035	52.27
769.213	53.07
769.391	52.98
769.569	53.87
769.747	53.19
769.925	52.21
770.103	50.54
770.281	51.25
770.459	50.73
770.636	51.78
770.814	51.32
770.992	50.83
771.17	49.69
771.348	49.43
771.525	48.51
771.703	48.95
771.881	49.56
772.059	51.61
772.236	50.06
772.414	51.53
772.592	51.01
772.769	52.32
772.947	53.91
773.125	55.99
773.302	57.41
773.48	56.67
773.657	56.2
773.835	56.66
774.013	58.17
774.19	58.61
774.368	58.08
774.545	57.34
774.723	55.11
774.9	54.77
775.077	53
775.255	51.89
775.432	53.97
775.61	55.74
775.787	53.64
775.964	50.65
776.142	51.33
776.319	50.37
776.496	50.97
776.674	53.43
776.851	53.93
777.028	54.37
777.205	55.7
777.382	54.45
777.56	52.82
777.737	53.7
777.914	54.67
778.091	55.45
778.268	56.31
778.445	56.37
778.622	55.79
778.8	56.32
778.977	55.61
779.154	60.17
779.331	60.53
779.508	61.08
779.685	60.66
779.862	61.75
780.038	61.41
780.215	61.7
780.392	61.3
780.569	61.9
780.746	59.68
780.923	60.03
781.1	54.32
781.277	53.77
781.453	53.68
781.63	55.16
781.807	55.62
781.984	56.24
782.16	55.13
782.337	54.02
782.514	53.58
782.691	55.82
782.867	55.48
783.044	54.93
783.221	55.39
783.397	55.42
783.574	56.65
783.75	56.62
783.927	55.23
784.103	56.6
784.28	57.04
784.456	56.82
784.633	55.32
784.809	55.09
784.986	56.05
785.162	55.18
785.339	54.69
785.515	55.12
785.692	54.01
785.868	52.71
786.044	51.05
786.221	52.3
786.397	51.3
786.573	51.49
786.749	52.15
786.926	50.95
787.102	50.66
787.278	50.82
787.454	49.06
787.631	50.02
787.807	50.58
787.983	51.68
788.159	50.93
788.335	53.03
788.511	54.59
788.687	55.49
788.863	55.74
789.039	56.36
789.216	56.62
789.392	56.73
789.568	55.81
789.744	57.65
789.919	58.75
790.095	58.97
790.271	58.58
790.447	57.17
790.623	57.01
790.799	57.52
790.975	57
791.151	57.16
791.327	56.23
791.502	55.63
791.678	54.82
791.854	55.26
792.03	57.72
792.205	56.18
792.381	56.08
792.557	55.63
792.733	55.53
792.908	57.13
793.084	57.31
793.259	56.27
793.435	57.87
793.611	58.03
793.786	56.16
793.962	52.8
794.137	54.57
794.313	56.15
794.488	56.8
794.664	57.22
794.839	57.95
795.015	56.99
795.19	60.33
795.366	59.87
795.541	61.61
795.716	62.1
795.892	63.29
796.067	61.48
796.242	58.57
796.418	58.48
796.593	55.99
796.768	55.12
796.944	55.12
797.119	53.01
797.294	52.48
797.469	50.79
797.644	49.93
797.82	49.41
797.995	49.48
798.17	50.99
798.345	51.16
798.52	53.33
798.695	52.96
798.87	55.36
799.045	55.56
799.22	55.81
799.395	55.48
799.57	55.51
799.745	56.32
799.92	56.17
800.095	55.38
800.27	54.02
800.445	52.95
800.62	52.15
800.795	48.12
800.97	48.28
801.145	46.64
801.319	46.07
801.494	46.05
801.669	45.64
801.844	47.23
802.018	48.23
802.193	49.96
802.368	50.37
802.543	51.65
802.717	50.61
802.892	50.44
803.067	53.58
803.241	53.38
803.416	54.36
803.59	53.37
803.765	53.33
803.94	52.63
804.114	53.3
804.289	53.8
804.463	53.61
804.638	57.55
804.812	58.61
804.986	57.12
805.161	56.63
805.335	56.19
805.51	57.72
805.684	57.44
805.858	57.08
806.033	55.86
806.207	54.44
806.381	54.8
806.556	54.84
806.73	56.27
806.904	56.1
807.078	58.44
807.253	59.86
807.427	58.77
807.601	59.95
807.775	59.96
807.949	58.13
808.123	59.74
808.298	58.45
808.472	59.38
808.646	56.12
808.82	56.52
808.994	55.73
809.168	54.29
809.342	53.25
809.516	49.27
809.69	50.11
809.864	53.06
810.038	54.88
810.212	54.82
810.385	52.56
810.559	53.67
810.733	52.35
810.907	53.39
811.081	53.83
811.255	52.99
811.428	55.54
811.602	58.02
811.776	55.71
811.95	52.81
812.123	53.46
812.297	53.46
812.471	56.12
812.644	58.02
812.818	58.74
812.992	57.16
813.165	61.16
813.339	62.25
813.512	60.88
813.686	60.64
813.86	64.39
814.033	64.59
814.207	65.56
814.38	63
814.554	62.32
814.727	62.16
814.9	65.71
815.074	64.77
815.247	61.47
815.421	61.12
815.594	60.96
815.767	61.84
815.941	59.44
816.114	58.54
816.287	57.66
816.46	59.91
816.634	59.16
816.807	54.04
816.98	56.31
817.153	55.86
817.327	56.39
817.5	59.32
817.673	58.55
817.846	59.9
818.019	61.15
818.192	64.81
818.365	62.51
818.538	59.64
818.711	61.34
818.884	58.74
819.057	62.38
819.23	60.33
819.403	58.18
819.576	56.32
819.749	54.82
819.922	52.95
820.095	51.22
820.268	50.39
820.441	51.52
820.614	50.77
820.786	49.77
820.959	49.11
821.132	49.87
821.305	48.88
821.477	48.33
821.65	49.5
821.823	49.39
821.996	49.34
822.168	49.32
822.341	48.75
822.514	47.96
822.686	47.98
822.859	47.47
823.031	47.03
823.204	47.25
823.376	46.93
823.549	46.39
823.722	46.46
823.894	46.03
824.067	45.75
824.239	45.47
824.411	45.7
824.584	45.96
824.756	45.68
824.929	45.17
825.101	45.58
825.273	46.53
825.446	46.19
825.618	45.92
825.79	46
825.963	46.28
826.135	46.92
826.307	47.88
826.479	47.8
826.652	47.89
826.824	48.02
826.996	47.86
827.168	47.41
827.34	47.72
827.512	47.99
827.684	48.4
827.856	48.43
828.029	48.73
828.201	48.42
828.373	48.36
828.545	48.58
828.717	49.56
828.889	49.29
829.061	48.7
829.232	49.72
829.404	49.95
829.576	48.98
829.748	49.05
829.92	48.83
830.092	50.95
830.264	50.24
830.436	50.74
830.607	51.16
830.779	50.89
830.951	52.61
831.123	51.45
831.294	51.14
831.466	52.31
831.638	52.82
831.809	52.15
831.981	48.62
832.153	49.37
832.324	51.67
832.496	51.93
832.667	53.13
832.839	50.35
833.011	50.43
833.182	50.46
833.354	50.04
833.525	50.56
833.697	51.08
833.868	52
834.039	53.88
834.211	53.79
834.382	53.1
834.554	53.05
834.725	52.02
834.896	52.78
835.068	51.27
835.239	52.27
835.41	50.79
835.581	51.56
835.753	51.16
835.924	50.04
836.095	46.31
836.266	45.53
836.438	44.21
836.609	46.39
836.78	47.16
836.951	50.14
837.122	48.72
837.293	49.53
837.464	48.61
837.635	49.32
837.806	51.68
837.977	54.95
838.148	55.85
838.319	55.7
838.49	55.68
838.661	55.87
838.832	54.02
839.003	56.31
839.174	59.39
839.345	62.44
839.516	63.41
839.687	62.36
839.857	60.63
840.028	60.82
840.199	62.22
840.37	59.91
840.54	61.65
840.711	64.49
840.882	66.89
841.053	60.8
841.223	57.98
841.394	55.06
841.564	52.77
841.735	58.34
841.906	59.88
842.076	62.7
842.247	64.7
842.417	62.72
842.588	64.54
842.758	58.57
842.929	59.98
843.099	57.32
843.27	59.89
843.44	58.82
843.611	53.09
843.781	51.29
843.951	47.33
844.122	45.06
844.292	40.28
844.462	35.61
844.633	38.32
844.803	36.83
844.973	34.75
845.144	29.17
845.314	30.55
845.484	32.95
845.654	33.71
845.824	37.13
845.995	42.76
846.165	44.31
846.335	50.98
846.505	52.02
846.675	54.23
846.845	61.28
847.015	59.87
847.185	56.34
847.355	60.3
847.525	62.14
847.695	65.65
847.865	64.73
848.035	57.58
848.205	52.99
848.375	59.22
848.545	55.79
848.715	60.42
848.884	66.03
849.054	61.44
849.224	65.28
849.394	71.81
849.564	71.04
849.733	68.52
849.903	76.05
850.073	71.95
850.243	64.58
850.412	67.21
850.582	58.77
850.752	57.58
850.921	66.3
851.091	63.96
851.26	59.92
851.43	58.85
851.599	59.61
851.769	63.08
851.939	70.65
852.108	73.83
852.278	78.08
852.447	80.13
852.616	84.6
852.786	87.2
852.955	76.4
853.125	73.78
853.294	74.67
853.463	69.19
853.633	68.22
853.802	71.32
853.971	69.98
854.141	71.83
854.31	70.36
854.479	57.56
854.648	50.76
854.818	56.04
854.987	56.13
855.156	54.2
855.325	58.87
855.494	53.33
855.663	50.06
855.832	52.35
856.001	49.32
856.171	52
856.34	59.38
856.509	60.08
856.678	59.75
856.847	58.04
857.016	64.81
857.185	67.92
857.353	64.76
857.522	60.55
857.691	58.11
857.86	54.18
858.029	53.27
858.198	56.72
858.367	62.71
858.535	60.55
858.704	59.2
858.873	57.14
859.042	49.17
859.21	56.9
859.379	56.74
859.548	54.15
859.717	57.11
859.885	64.13
860.054	59.11
860.222	44.73
860.391	52.35
860.56	56.54
860.728	57.47
860.897	64.47
861.065	61.19
861.234	62.91
861.402	71.1
861.571	73.56
861.739	74.58
861.908	73.84
862.076	82.17
862.244	86.54
862.413	89.83
862.581	90.07
862.749	87.63
862.918	84.22
863.086	94.61
863.254	86.17
863.423	81.78
863.591	67.61
863.759	65.73
863.927	67.85
864.096	57.61
864.264	53.16
864.432	52.18
864.6	55.3
864.768	53.02
864.936	43.56
865.104	42.58
865.272	39.03
865.44	58.33
865.608	61.39
865.776	60.62
865.944	59.41
866.112	60.54
866.28	67.27
866.448	71.12
866.616	79.81
866.784	70.21
866.952	75.53
867.12	83.59
867.288	83.49
867.455	83.12
867.623	80.26
867.791	83.55
867.959	85.37
868.127	81.65
868.294	83.37
868.462	77.8
868.63	80.88
868.797	82.38
868.965	85.78
869.133	77.37
869.3	86.16
869.468	81.98
869.636	86.21
869.803	76.99
869.971	68.73
870.138	59.86
870.306	69.49
870.473	66.47
870.641	68.01
870.808	61.6
870.975	61.88
871.143	53
871.31	64.8
871.478	59.16
871.645	75.05
871.812	92.65
871.98	97.43
872.147	81.56
872.314	105.19
872.482	93.49
872.649	99.16
872.816	94.65
872.983	95.69
873.15	86.21
873.318	82.93
873.485	78.4
873.652	70.55
873.819	76.41
873.986	78.48
874.153	74.97
874.32	77.75
874.487	73.47
874.654	73.93
874.821	68.54
874.988	62.06
875.155	65.91
875.322	65.58
875.489	60.22
875.656	62.25
875.823	56.03
875.99	58.06
876.157	58.33
876.324	63.96
876.49	59.45
876.657	61.68
876.824	72.02
876.991	69.8
877.157	66.68
877.324	74.58
877.491	66.48
877.658	73.25
877.824	67.8
877.991	68.46
878.157	60.63
878.324	70.74
878.491	64.47
878.657	57.54
878.824	56.06
878.99	65.08
879.157	62.46
879.323	60.68
879.49	59.75
879.656	62.76
879.823	62.71
879.989	62.54
880.156	52.75
880.322	60.23
880.488	57.01
880.655	58.37
880.821	54.99
880.987	59.09
881.154	57.9
881.32	64.36
881.486	58.82
881.652	56.25
881.819	58.01
881.985	56.96
882.151	53.63
882.317	53.85
882.483	53.93
882.649	52.54
882.816	48.12
882.982	49
883.148	45.99
883.314	46.97
883.48	47.84
883.646	47.17
883.812	46.91
883.978	46.36
884.144	44.67
884.31	44.04
884.476	42.8
884.642	44.66
884.807	44.64
884.973	44.47
885.139	44.18
885.305	41.64
885.471	42.25
885.637	43.91
885.802	44.33
885.968	45.8
886.134	46.05
886.3	47.82
886.465	48.43
886.631	46.78
886.797	50.26
886.962	49.48
887.128	53.08
887.293	54.16
887.459	53.87
887.625	56.6
887.79	65.12
887.956	65.81
888.121	68.07
888.287	68.04
888.452	73.95
888.618	66.77
888.783	76.12
