Data from LC_240_Reflection_3.txt Node
Date: Thu Nov 19 22:26:47 EST 2015
User: robert
Spectrometer: USB4E03001
Autoset integration time: false
Trigger mode: 4
Integration Time (sec): 1.000000E-1
Scans to average: 15
Electric dark correction enabled: true
Nonlinearity correction enabled: false
Boxcar width: 5
Stray light correction enabled: false
XAxis mode: Wavelengths
Stop averaging: false
Number of Pixels in Spectrum: 3648
>>>>>Begin Spectral Data<<<<<
177.566	-86.67
177.785	-39.51
178.005	13.89
178.225	-26.94
178.445	-34.85
178.665	-29.57
178.885	41.3
179.105	494.64
179.324	273.53
179.544	269.88
179.764	190.59
179.984	225.07
180.204	438.73
180.423	197.02
180.643	295.46
180.863	205.67
181.083	325.46
181.302	193.87
181.522	141.03
181.742	150.76
181.961	168.08
182.181	217.4
182.401	269.81
182.621	246.62
182.84	504.31
183.06	341.91
183.279	332.37
183.499	227.09
183.719	715.67
183.938	2288.55
184.158	-1427.31
184.377	-1456.2
184.597	887.76
184.816	-8742.45
185.036	-378.39
185.256	5560
185.475	393.48
185.695	355.96
185.914	416.98
186.134	763.78
186.353	485.96
186.572	382.94
186.792	694.83
187.011	-4447.39
187.231	-1642.93
187.45	-2096.64
187.67	-188.7
187.889	-160.37
188.108	-84.42
188.328	-78.69
188.547	-328.27
188.766	-623.19
188.986	-658.77
189.205	10053.92
189.424	335.28
189.644	266.65
189.863	152.01
190.082	128.99
190.302	158.72
190.521	153.89
190.74	197.08
190.959	212.49
191.178	180.15
191.398	215.72
191.617	207.44
191.836	694.76
192.055	234.61
192.274	434.45
192.494	361.74
192.713	174.86
192.932	149.36
193.151	136.3
193.37	158.74
193.589	177
193.808	161.65
194.027	174.01
194.246	152.41
194.465	189.52
194.685	146.99
194.904	148.92
195.123	168.71
195.342	224.05
195.561	195.5
195.78	150.2
195.999	131.44
196.218	130.94
196.436	126.07
196.655	142.17
196.874	123.6
197.093	181.16
197.312	229.2
197.531	263.72
197.75	359.35
197.969	384.2
198.188	-1052.85
198.407	-314.04
198.625	-488.54
198.844	-289.24
199.063	-1914.39
199.282	-244.19
199.501	-315.81
199.719	-437.53
199.938	-98.94
200.157	-396.94
200.376	-386.77
200.594	2084.82
200.813	1560.71
201.032	1270.16
201.251	1143.4
201.469	822.6
201.688	293.45
201.907	448.89
202.125	1907.84
202.344	491.67
202.563	596.72
202.781	574.62
203	458.29
203.218	396.81
203.437	427.63
203.656	401.45
203.874	535.41
204.093	728.15
204.311	215.92
204.53	147.74
204.748	175.79
204.967	152.8
205.185	183.58
205.404	182.37
205.622	207.83
205.841	156.62
206.059	225.38
206.278	232.94
206.496	328.37
206.715	458.56
206.933	524.71
207.151	276.1
207.37	439.47
207.588	337.87
207.806	321.87
208.025	305.72
208.243	514.61
208.461	669.69
208.68	518.06
208.898	312.37
209.116	230.7
209.335	362.98
209.553	1307.01
209.771	-6880.67
209.989	1065.89
210.208	-692.23
210.426	-1127.6
210.644	497.12
210.862	321.63
211.081	314.72
211.299	254.03
211.517	240.69
211.735	149.83
211.953	105.95
212.171	111.69
212.39	121.73
212.608	115.81
212.826	117.29
213.044	139.41
213.262	109.6
213.48	96.96
213.698	118.33
213.916	161.65
214.134	164.82
214.352	281.97
214.57	419.94
214.788	720.33
215.006	565.17
215.224	399.64
215.442	724.95
215.66	264.84
215.878	528.18
216.096	436.18
216.314	376.14
216.532	595.34
216.75	1160.07
216.968	-130.82
217.185	-403.32
217.403	-375.05
217.621	-1669.88
217.839	166.44
218.057	116.17
218.275	94.27
218.492	110.74
218.71	106.91
218.928	85.93
219.146	82.88
219.363	60.14
219.581	72.39
219.799	93.16
220.017	95.25
220.234	108.68
220.452	121.97
220.67	138.68
220.887	124.41
221.105	144.8
221.323	150.88
221.54	126.91
221.758	139.84
221.976	125.04
222.193	119.76
222.411	108.54
222.629	115.54
222.846	107.99
223.064	106.61
223.281	106.02
223.499	90.06
223.716	78.89
223.934	69.26
224.151	53.37
224.369	47.52
224.586	49.72
224.804	60.12
225.021	61.01
225.239	68.88
225.456	62.19
225.674	58.26
225.891	68.27
226.108	71.29
226.326	71.43
226.543	88.44
226.76	88.13
226.978	64.55
227.195	60.11
227.413	40.59
227.63	31.04
227.847	30.38
228.064	28.16
228.282	21.82
228.499	19.86
228.716	20.8
228.934	18.28
229.151	19
229.368	16.79
229.585	16.13
229.802	15.37
230.02	15.93
230.237	14.65
230.454	13.74
230.671	12.99
230.888	14.63
231.105	12.33
231.323	15.48
231.54	13.36
231.757	16.49
231.974	16.33
232.191	20.36
232.408	24.15
232.625	27.54
232.842	31.43
233.059	42.25
233.276	42.84
233.493	41.91
233.71	38.56
233.927	39.87
234.144	39.38
234.361	36.45
234.578	33.98
234.795	29.92
235.012	27.95
235.229	22.42
235.446	19.31
235.663	12.5
235.879	13.56
236.096	12.99
236.313	8.72
236.53	11.2
236.747	12.63
236.964	13.97
237.181	11.28
237.397	14.2
237.614	17.83
237.831	13.35
238.048	19.36
238.264	15.23
238.481	19.1
238.698	23.98
238.915	24.16
239.131	24.49
239.348	21.33
239.565	23.47
239.781	24.83
239.998	20.52
240.215	17.4
240.431	16.59
240.648	18.28
240.865	16.27
241.081	14.1
241.298	13.46
241.514	12.36
241.731	14.15
241.947	13.23
242.164	11.41
242.38	11.87
242.597	11.71
242.814	11.76
243.03	12.17
243.246	12.47
243.463	12.67
243.679	12.45
243.896	12
244.112	12.28
244.329	13.3
244.545	15.39
244.762	16.1
244.978	16.36
245.194	16.48
245.411	15.43
245.627	14.89
245.843	13.67
246.06	14.71
246.276	14.54
246.492	13.68
246.709	12.99
246.925	11.38
247.141	10.9
247.357	10.62
247.574	10.61
247.79	10.49
248.006	10.69
248.222	10.78
248.439	9.77
248.655	9.34
248.871	9.28
249.087	8.62
249.303	9
249.519	9.86
249.736	10.53
249.952	10.71
250.168	11.3
250.384	11.21
250.6	11.86
250.816	12.65
251.032	13.29
251.248	13.11
251.464	13.73
251.68	14.32
251.896	12.51
252.112	12.71
252.328	13.38
252.544	13.23
252.76	12.8
252.976	13.18
253.192	12.92
253.408	14.13
253.624	16.06
253.84	16.94
254.056	15.95
254.272	16.3
254.487	16.65
254.703	14.54
254.919	14.03
255.135	14
255.351	13.4
255.567	15.05
255.782	11.32
255.998	10.09
256.214	9.92
256.43	9.56
256.646	12.83
256.861	12.53
257.077	14.3
257.293	14.78
257.508	15.97
257.724	16.45
257.94	14.33
258.155	15.54
258.371	13.51
258.587	12.12
258.802	10.8
259.018	10.45
259.234	9.56
259.449	8.79
259.665	8.39
259.88	8.09
260.096	8.4
260.312	7.53
260.527	7.14
260.743	7.11
260.958	7.3
261.174	8.21
261.389	8.23
261.605	9.37
261.82	8.85
262.036	8.13
262.251	7.45
262.466	6.68
262.682	7.88
262.897	9.17
263.113	9.25
263.328	10.13
263.543	9.79
263.759	8.24
263.974	7.56
264.189	9.79
264.405	10.87
264.62	12.91
264.835	12.42
265.051	11.64
265.266	11.54
265.481	11.14
265.696	10.45
265.912	8.99
266.127	10.68
266.342	8.92
266.557	8.43
266.773	7.98
266.988	5.27
267.203	4.9
267.418	6.43
267.633	4.62
267.848	4.16
268.064	4.27
268.279	5.41
268.494	4.9
268.709	5.55
268.924	4.54
269.139	6.12
269.354	7.42
269.569	7.4
269.784	6.93
269.999	7.54
270.214	8.33
270.429	8.33
270.644	7.32
270.859	6.85
271.074	5.95
271.289	6.54
271.504	5.8
271.719	5.5
271.934	6.13
272.149	6.45
272.363	6.81
272.578	7.42
272.793	6.69
273.008	6.68
273.223	7.01
273.438	8.58
273.653	8.44
273.867	8.02
274.082	9.07
274.297	8.46
274.512	7.94
274.726	8.1
274.941	6.11
275.156	5.84
275.371	6.59
275.585	6.69
275.8	5.87
276.015	5.63
276.229	6.68
276.444	5.96
276.659	6.25
276.873	6.59
277.088	6.73
277.302	7.41
277.517	8.17
277.732	7.33
277.946	7.14
278.161	6.66
278.375	7.25
278.59	7.36
278.804	7.75
279.019	7.83
279.233	8.47
279.448	9.12
279.662	10.88
279.877	11.23
280.091	11.98
280.306	11.51
280.52	11.77
280.735	12.65
280.949	11.4
281.163	10.64
281.378	10.8
281.592	11.11
281.806	10.2
282.021	9.27
282.235	8.58
282.449	7.99
282.664	8.1
282.878	7.34
283.092	6.11
283.307	7.24
283.521	6.89
283.735	6.82
283.949	5.86
284.164	6
284.378	5.62
284.592	5.59
284.806	5.49
285.02	5.67
285.234	6.68
285.449	6.75
285.663	7.15
285.877	8.06
286.091	7.9
286.305	7.8
286.519	7.54
286.733	7.74
286.947	8.48
287.161	8.38
287.375	8.74
287.589	6.88
287.803	6.6
288.017	6.17
288.231	6.7
288.445	6.81
288.659	6.93
288.873	6.23
289.087	5.42
289.301	5.26
289.515	5.66
289.729	4.73
289.943	6.74
290.157	8.29
290.371	7.7
290.584	6.28
290.798	6.49
291.012	6.45
291.226	7.09
291.44	9.2
291.654	9.05
291.867	9.71
292.081	10.27
292.295	10.4
292.509	9.33
292.722	10.46
292.936	11.86
293.15	11.22
293.364	12.75
293.577	13.78
293.791	13.21
294.005	13.33
294.218	13.23
294.432	12.26
294.645	11.32
294.859	11.4
295.073	10.58
295.286	9.93
295.5	10.25
295.713	9.04
295.927	8.76
296.14	8.3
296.354	6.86
296.568	7.02
296.781	7.51
296.994	8.17
297.208	7.73
297.421	7.89
297.635	8.06
297.848	7.82
298.062	8.04
298.275	7.03
298.489	7.21
298.702	9.61
298.915	9.39
299.129	9.55
299.342	9.21
299.555	9.18
299.769	8.59
299.982	8.55
300.195	8.79
300.409	9.14
300.622	9.64
300.835	9.11
301.048	8.11
301.262	8.26
301.475	8.3
301.688	7.78
301.901	8.23
302.115	8.88
302.328	8.58
302.541	8.16
302.754	7.27
302.967	8.43
303.18	8.71
303.393	8.66
303.607	9.37
303.82	9.29
304.033	9.91
304.246	10.29
304.459	9.62
304.672	10.49
304.885	10.6
305.098	10.56
305.311	10.32
305.524	9.79
305.737	9.75
305.95	9.1
306.163	9.43
306.376	9.14
306.589	8.13
306.802	7.98
307.015	7.07
307.228	8.86
307.44	9.51
307.653	9.74
307.866	10.6
308.079	10.48
308.292	10.6
308.505	10.19
308.718	10.26
308.93	10.95
309.143	11.05
309.356	11.13
309.569	10.45
309.781	10.1
309.994	9.22
310.207	8.66
310.42	9.13
310.632	8.89
310.845	9.49
311.058	9.77
311.27	9.79
311.483	9.97
311.696	9.83
311.908	9.98
312.121	10.01
312.333	10.3
312.546	10.15
312.759	9.98
312.971	10.47
313.184	10.08
313.396	10.05
313.609	10.87
313.821	11.04
314.034	11.86
314.246	10.87
314.459	10.66
314.671	11.57
314.884	12.56
315.096	12.3
315.309	11.58
315.521	11.56
315.733	11.86
315.946	11.68
316.158	12.58
316.371	11.37
316.583	11.46
316.795	10.27
317.008	9.47
317.22	8.69
317.432	9.07
317.644	10.04
317.857	9.08
318.069	8.03
318.281	6.86
318.494	6.97
318.706	7.71
318.918	7.92
319.13	9.78
319.342	8.85
319.555	8.8
319.767	8.1
319.979	6.98
320.191	8.5
320.403	10.15
320.615	9.84
320.827	9.8
321.039	8.81
321.252	9.19
321.464	9.48
321.676	11
321.888	10.58
322.1	11.08
322.312	12.32
322.524	12.58
322.736	11.25
322.948	12.21
323.16	11.71
323.372	11.85
323.584	12.24
323.796	11.3
324.007	10.27
324.219	11.49
324.431	11.2
324.643	10.68
324.855	10.71
325.067	11.54
325.279	10.81
325.491	11.06
325.702	12.14
325.914	11.67
326.126	12.42
326.338	13.64
326.55	12.61
326.761	13.46
326.973	14.03
327.185	13.07
327.396	13.38
327.608	13.82
327.82	14.43
328.032	14.58
328.243	15.61
328.455	16.15
328.666	16.68
328.878	17.75
329.09	18.14
329.301	19.22
329.513	20.71
329.725	20.1
329.936	21.71
330.148	21.99
330.359	21.55
330.571	20.86
330.782	20.96
330.994	21.14
331.205	22.26
331.417	22.69
331.628	21.56
331.84	21.66
332.051	22.98
332.262	23.23
332.474	23.42
332.685	24.05
332.897	24.59
333.108	24.74
333.319	25.07
333.531	24.24
333.742	24.5
333.953	25.62
334.165	26.41
334.376	26.67
334.587	26.55
334.799	25.99
335.01	26.06
335.221	26.02
335.432	26.91
335.644	27.01
335.855	27.61
336.066	28.32
336.277	27.86
336.488	27.28
336.7	27.53
336.911	27.53
337.122	28.52
337.333	29.4
337.544	29.49
337.755	29.34
337.966	29.02
338.177	28.92
338.388	28.12
338.599	28.51
338.811	28.98
339.022	28.8
339.233	28.73
339.444	29.02
339.655	28.62
339.866	29.27
340.076	29.59
340.287	29.67
340.498	29.94
340.709	30.48
340.92	30.8
341.131	30.78
341.342	30.85
341.553	31.7
341.764	31.18
341.975	31.74
342.185	31.65
342.396	31.16
342.607	31.96
342.818	31.98
343.029	32.63
343.239	32.11
343.45	32.12
343.661	31.53
343.872	31.2
344.082	31.55
344.293	32.14
344.504	31.98
344.714	32.68
344.925	32.37
345.136	31.91
345.346	31.44
345.557	31.69
345.768	31.77
345.978	32.38
346.189	31.8
346.399	31.33
346.61	30.57
346.821	31.14
347.031	30.91
347.242	30.92
347.452	32.24
347.663	31.09
347.873	31.89
348.084	32.4
348.294	32.7
348.504	33.12
348.715	33.67
348.925	33.93
349.136	34.31
349.346	33.61
349.557	33.99
349.767	34.04
349.977	35.23
350.188	34.18
350.398	33.46
350.608	33.94
350.819	34.35
351.029	34.35
351.239	33.9
351.449	33.1
351.66	32.92
351.87	32.59
352.08	31.91
352.29	32.14
352.501	32.44
352.711	33.31
352.921	32.15
353.131	31.21
353.341	30.48
353.552	30.47
353.762	30.67
353.972	31.58
354.182	31.76
354.392	31.48
354.602	30.57
354.812	30.56
355.022	29.31
355.232	29.93
355.442	30.39
355.652	30.47
355.862	30.85
356.072	30.8
356.282	31
356.492	30.5
356.702	30.84
356.912	31.13
357.122	31.21
357.332	31.63
357.542	31.03
357.752	31.25
357.962	31.59
358.171	31.81
358.381	31.87
358.591	31.21
358.801	31.25
359.011	31.48
359.221	31.37
359.43	31.35
359.64	31.55
359.85	32.08
360.06	32.07
360.269	31.98
360.479	31.73
360.689	31.53
360.899	31.27
361.108	31.66
361.318	31.51
361.528	31.7
361.737	31.83
361.947	31.77
362.156	31.64
362.366	31.61
362.576	31.57
362.785	31.56
362.995	31.55
363.204	31.95
363.414	31.4
363.623	31.24
363.833	31.25
364.042	30.87
364.252	30.5
364.461	30.04
364.671	29.68
364.88	29.74
365.09	29.54
365.299	29.58
365.509	29.26
365.718	29.52
365.927	29.91
366.137	29.51
366.346	29.47
366.555	29.95
366.765	30.63
366.974	30.35
367.183	30.33
367.393	30.05
367.602	30.56
367.811	30.73
368.021	30.8
368.23	29.39
368.439	29.77
368.648	30.11
368.857	30.34
369.067	29.77
369.276	30.64
369.485	30.38
369.694	30.4
369.903	30.11
370.112	29.98
370.321	29.72
370.531	30.65
370.74	29.95
370.949	29.52
371.158	29.01
371.367	29.48
371.576	28.64
371.785	28.8
371.994	28.73
372.203	28.26
372.412	28.2
372.621	27.98
372.83	28.04
373.039	28.05
373.248	28.44
373.457	28.68
373.666	28.38
373.874	28.64
374.083	28.01
374.292	28.1
374.501	27.97
374.71	28.19
374.919	28.27
375.128	28.08
375.336	28.14
375.545	27.72
375.754	27.22
375.963	27.07
376.171	27.12
376.38	27.16
376.589	26.79
376.798	26.57
377.006	26.28
377.215	26.53
377.424	26.48
377.632	26.41
377.841	26.64
378.05	26.93
378.258	26.76
378.467	26.67
378.675	26.79
378.884	26.8
379.093	27.23
379.301	27.54
379.51	27.52
379.718	27.74
379.927	27.7
380.135	27.97
380.344	27.89
380.552	28.16
380.761	27.63
380.969	27.99
381.177	28.02
381.386	27.87
381.594	27.79
381.803	27.1
382.011	26.67
382.219	26.85
382.428	26.3
382.636	26.03
382.845	26.12
383.053	26.6
383.261	26.22
383.469	26.87
383.678	26.98
383.886	26.88
384.094	27.58
384.302	27.62
384.511	27.49
384.719	27.28
384.927	27.44
385.135	27.43
385.343	27.52
385.552	28.06
385.76	27.37
385.968	27.23
386.176	27.08
386.384	26.67
386.592	26.47
386.8	26.35
387.008	26.3
387.216	26.15
387.424	25.81
387.633	25.54
387.841	25.29
388.049	25.22
388.257	25.18
388.465	25.21
388.672	25.28
388.88	25.45
389.088	25.59
389.296	26.11
389.504	26.18
389.712	26.12
389.92	26.13
390.128	25.73
390.336	25.87
390.544	25.75
390.751	25.67
390.959	25.61
391.167	25.58
391.375	25.4
391.583	24.71
391.79	24.58
391.998	24.91
392.206	24.9
392.414	25.2
392.621	25.23
392.829	25.17
393.037	25.27
393.244	25.16
393.452	25.03
393.66	24.91
393.867	25.19
394.075	25.24
394.283	24.84
394.49	24.61
394.698	24.49
394.905	24.4
395.113	24.37
395.32	24.41
395.528	24.49
395.735	24.73
395.943	25.02
396.15	24.85
396.358	24.95
396.565	25.15
396.773	25.31
396.98	25.27
397.188	25.32
397.395	25.49
397.602	25.19
397.81	24.93
398.017	24.47
398.225	24.18
398.432	24.16
398.639	23.95
398.847	23.93
399.054	23.95
399.261	23.84
399.468	23.63
399.676	23.73
399.883	23.65
400.09	23.9
400.297	24.4
400.505	24.75
400.712	24.95
400.919	24.98
401.126	25.14
401.333	25.15
401.54	25.18
401.748	25.51
401.955	25.46
402.162	25.83
402.369	25.91
402.576	25.88
402.783	25.77
402.99	25.7
403.197	25.88
403.404	25.66
403.611	25.81
403.818	25.77
404.025	25.73
404.232	25.55
404.439	25.59
404.646	25.54
404.853	25.44
405.06	25.37
405.267	25.6
405.474	25.61
405.681	25.53
405.887	25.5
406.094	25.6
406.301	25.68
406.508	25.78
406.715	25.63
406.922	25.58
407.128	25.4
407.335	25.52
407.542	25.47
407.749	25.34
407.955	25.59
408.162	25.69
408.369	25.68
408.575	25.76
408.782	25.74
408.989	25.65
409.195	25.51
409.402	25.73
409.609	25.48
409.815	25.35
410.022	25.16
410.228	25.19
410.435	24.94
410.642	25.09
410.848	24.78
411.055	24.74
411.261	25.02
411.468	25.4
411.674	25.57
411.881	25.88
412.087	25.71
412.294	25.87
412.5	25.53
412.706	25.7
412.913	25.66
413.119	25.89
413.326	25.72
413.532	25.62
413.738	25.36
413.945	25.07
414.151	25.16
414.357	25.39
414.564	25.22
414.77	25.26
414.976	25.2
415.182	24.96
415.389	24.77
415.595	24.69
415.801	24.63
416.007	24.66
416.214	24.62
416.42	24.43
416.626	24.41
416.832	24.56
417.038	24.74
417.244	24.57
417.45	24.7
417.657	24.74
417.863	25.08
418.069	25
418.275	25.08
418.481	25.07
418.687	24.99
418.893	24.97
419.099	24.89
419.305	24.83
419.511	24.92
419.717	24.8
419.923	24.93
420.129	24.82
420.335	24.72
420.541	24.62
420.746	24.55
420.952	24.56
421.158	24.55
421.364	24.59
421.57	24.54
421.776	24.55
421.982	24.57
422.187	24.45
422.393	24.34
422.599	24.34
422.805	24.31
423.01	24.33
423.216	24.19
423.422	24.13
423.628	24.1
423.833	24.15
424.039	24.09
424.245	24.11
424.45	24.19
424.656	24.24
424.862	24.29
425.067	24.26
425.273	24.33
425.478	24.51
425.684	24.59
425.889	24.71
426.095	24.62
426.301	24.63
426.506	24.67
426.712	24.64
426.917	24.71
427.123	24.78
427.328	24.85
427.533	24.9
427.739	24.91
427.944	24.85
428.15	24.69
428.355	24.74
428.561	24.68
428.766	24.69
428.971	24.71
429.177	24.76
429.382	24.69
429.587	24.77
429.793	24.65
429.998	24.59
430.203	24.59
430.408	24.75
430.614	24.91
430.819	25.01
431.024	24.85
431.229	24.62
431.434	24.43
431.64	24.34
431.845	24.23
432.05	24.33
432.255	24.26
432.46	24.19
432.665	24.13
432.87	23.97
433.076	23.87
433.281	24.08
433.486	24.26
433.691	24.35
433.896	24.3
434.101	24.3
434.306	24.25
434.511	24.35
434.716	24.41
434.921	24.38
435.126	24.65
435.331	24.66
435.535	24.53
435.74	24.43
435.945	24.47
436.15	24.57
436.355	24.81
436.56	24.88
436.765	24.78
436.97	24.8
437.174	24.79
437.379	24.46
437.584	24.48
437.789	24.45
437.993	24.39
438.198	24.3
438.403	24.22
438.608	24.2
438.812	24.1
439.017	24.03
439.222	24.12
439.426	24
439.631	24.02
439.836	24.19
440.04	24.36
440.245	24.46
440.45	24.41
440.654	24.59
440.859	24.39
441.063	24.53
441.268	24.58
441.472	24.48
441.677	24.55
441.881	24.6
442.086	24.28
442.29	24.17
442.495	24.02
442.699	24.08
442.904	23.97
443.108	24.12
443.312	23.82
443.517	23.76
443.721	23.86
443.925	23.96
444.13	24.1
444.334	24.32
444.538	24.27
444.743	24.32
444.947	24.34
445.151	24.25
445.356	24.3
445.56	24.44
445.764	24.49
445.968	24.45
446.173	24.36
446.377	24.2
446.581	24.18
446.785	24.17
446.989	24.14
447.193	24.14
447.398	24.17
447.602	24.06
447.806	24.1
448.01	24.03
448.214	24.02
448.418	24.02
448.622	24
448.826	24.12
449.03	24.16
449.234	24.15
449.438	24.1
449.642	24.15
449.846	24.09
450.05	24.04
450.254	24.15
450.458	23.96
450.662	23.9
450.866	23.98
451.069	23.78
451.273	23.7
451.477	23.83
451.681	23.94
451.885	23.82
452.089	24.03
452.292	24
452.496	23.92
452.7	24.08
452.904	24.04
453.107	24.08
453.311	24.24
453.515	24.37
453.719	24.42
453.922	24.3
454.126	24.22
454.33	24.09
454.533	24.01
454.737	23.95
454.94	23.88
455.144	24.1
455.348	23.99
455.551	23.89
455.755	23.82
455.958	23.61
456.162	23.62
456.365	23.82
456.569	23.79
456.772	23.78
456.976	24.01
457.179	23.94
457.383	23.76
457.586	23.58
457.79	23.57
457.993	23.35
458.196	23.37
458.4	23.51
458.603	23.56
458.807	23.53
459.01	23.57
459.213	23.57
459.417	23.71
459.62	23.76
459.823	23.93
460.026	23.85
460.23	23.98
460.433	24.09
460.636	23.96
460.839	23.99
461.042	24.05
461.246	24.09
461.449	23.95
461.652	23.92
461.855	24.02
462.058	24
462.261	24.22
462.464	24.22
462.668	24.08
462.871	24.24
463.074	24.07
463.277	24.05
463.48	24.07
463.683	24.09
463.886	24.03
464.089	23.93
464.292	23.88
464.495	23.95
464.698	23.95
464.901	24.02
465.104	23.97
465.306	23.98
465.509	23.93
465.712	23.86
465.915	23.83
466.118	24.13
466.321	24.18
466.524	24.31
466.726	24
466.929	24.01
467.132	23.97
467.335	23.98
467.538	23.99
467.74	24.02
467.943	24.03
468.146	24.19
468.348	24.01
468.551	23.81
468.754	23.65
468.956	23.9
469.159	23.81
469.362	23.83
469.564	23.85
469.767	23.91
469.969	23.83
470.172	24.05
470.375	23.87
470.577	23.75
470.78	23.84
470.982	23.84
471.185	23.74
471.387	23.86
471.59	23.94
471.792	23.88
471.995	23.88
472.197	24
472.399	23.93
472.602	24.14
472.804	24.19
473.007	24.35
473.209	24.47
473.411	24.49
473.614	24.56
473.816	24.75
474.018	24.81
474.22	24.92
474.423	24.86
474.625	24.7
474.827	24.58
475.03	24.48
475.232	24.29
475.434	24.38
475.636	24.39
475.838	24.41
476.04	24.16
476.243	24.1
476.445	23.99
476.647	24.11
476.849	24.1
477.051	24.23
477.253	24.37
477.455	24.48
477.657	24.32
477.859	24.31
478.061	24.22
478.263	24.23
478.465	24.2
478.667	24.2
478.869	24.18
479.071	24.11
479.273	23.88
479.475	23.76
479.677	23.71
479.879	23.76
480.081	23.67
480.283	23.65
480.485	23.62
480.686	23.79
480.888	23.72
481.09	23.61
481.292	23.68
481.494	23.78
481.695	23.82
481.897	23.86
482.099	23.79
482.301	23.74
482.502	23.71
482.704	23.66
482.906	23.63
483.107	23.73
483.309	23.77
483.511	23.73
483.712	23.71
483.914	23.7
484.115	23.63
484.317	23.64
484.519	23.66
484.72	23.71
484.922	23.7
485.123	23.65
485.325	23.61
485.526	23.55
485.728	23.61
485.929	23.61
486.131	23.59
486.332	23.72
486.534	23.71
486.735	23.7
486.936	23.67
487.138	23.65
487.339	23.66
487.541	23.65
487.742	23.67
487.943	23.71
488.144	23.73
488.346	23.73
488.547	23.64
488.748	23.68
488.95	23.73
489.151	23.7
489.352	23.78
489.553	23.84
489.755	23.81
489.956	23.92
490.157	23.9
490.358	23.87
490.559	23.93
490.76	23.94
490.961	24.02
491.163	23.97
491.364	24.05
491.565	24.11
491.766	24.05
491.967	24.1
492.168	24
492.369	23.97
492.57	23.96
492.771	23.9
492.972	23.87
493.173	23.8
493.374	23.84
493.575	23.76
493.776	23.6
493.976	23.53
494.177	23.48
494.378	23.7
494.579	23.73
494.78	23.81
494.981	23.87
495.182	24.02
495.382	23.94
495.583	24.01
495.784	24.09
495.985	24.32
496.185	24.36
496.386	24.32
496.587	24.19
496.788	24.12
496.988	24.26
497.189	24.22
497.39	24.37
497.59	24.38
497.791	24.32
497.992	24.26
498.192	24.26
498.393	24.38
498.593	24.51
498.794	24.46
498.994	24.5
499.195	24.35
499.395	24.45
499.596	24.27
499.796	24.28
499.997	24.24
500.197	24.35
500.398	24.31
500.598	24.32
500.799	24.48
500.999	24.35
501.199	24.41
501.4	24.47
501.6	24.35
501.801	24.42
502.001	24.49
502.201	24.52
502.402	24.61
502.602	24.62
502.802	24.61
503.002	24.62
503.203	24.79
503.403	24.76
503.603	24.75
503.803	24.93
504.003	25.05
504.204	25.25
504.404	25.25
504.604	25.21
504.804	25.38
505.004	25.47
505.204	25.27
505.404	25.41
505.604	25.61
505.804	25.71
506.005	25.71
506.205	25.65
506.405	25.57
506.605	25.78
506.805	25.75
507.005	25.6
507.204	25.62
507.404	25.72
507.604	25.68
507.804	25.63
508.004	25.74
508.204	25.76
508.404	25.81
508.604	25.78
508.804	25.74
509.003	25.87
509.203	25.88
509.403	25.71
509.603	25.71
509.803	25.82
510.002	25.8
510.202	25.65
510.402	25.64
510.602	25.61
510.801	25.62
511.001	25.69
511.201	25.59
511.4	25.61
511.6	25.91
511.8	25.96
511.999	25.86
512.199	25.82
512.398	25.83
512.598	25.9
512.797	25.96
512.997	26
513.197	26
513.396	26.15
513.596	26.15
513.795	25.96
513.994	25.91
514.194	26.09
514.393	26.23
514.593	26.37
514.792	26.43
514.992	26.37
515.191	26.47
515.39	26.39
515.59	26.4
515.789	26.55
515.988	26.65
516.188	26.73
516.387	26.65
516.586	26.66
516.786	26.7
516.985	26.67
517.184	26.73
517.383	26.74
517.582	26.74
517.782	26.71
517.981	26.86
518.18	26.84
518.379	26.85
518.578	26.93
518.777	26.91
518.976	26.93
519.176	27.04
519.375	27.1
519.574	27.13
519.773	27.24
519.972	27.32
520.171	27.21
520.37	27.29
520.569	27.35
520.768	27.38
520.967	27.37
521.166	27.46
521.365	27.54
521.564	27.55
521.762	27.57
521.961	27.68
522.16	27.65
522.359	27.71
522.558	27.85
522.757	27.85
522.956	27.94
523.154	28.12
523.353	28.24
523.552	28.21
523.751	28.3
523.949	28.47
524.148	28.33
524.347	28.41
524.546	28.49
524.744	28.52
524.943	28.65
525.142	28.68
525.34	28.63
525.539	28.52
525.737	28.47
525.936	28.56
526.135	28.47
526.333	28.62
526.532	28.7
526.73	28.69
526.929	28.62
527.127	28.55
527.326	28.52
527.524	28.58
527.723	28.65
527.921	28.77
528.12	28.7
528.318	28.74
528.516	28.74
528.715	28.73
528.913	28.75
529.112	28.83
529.31	28.84
529.508	28.89
529.707	28.87
529.905	28.91
530.103	28.9
530.301	28.97
530.5	28.99
530.698	28.95
530.896	29.01
531.094	29
531.293	29.03
531.491	29.16
531.689	29.23
531.887	29.33
532.085	29.4
532.283	29.38
532.481	29.41
532.68	29.5
532.878	29.63
533.076	29.69
533.274	29.78
533.472	29.78
533.67	29.79
533.868	29.76
534.066	29.8
534.264	29.82
534.462	29.9
534.66	29.95
534.858	29.92
535.056	29.97
535.253	29.95
535.451	29.97
535.649	29.98
535.847	30.01
536.045	30.14
536.243	30.26
536.441	30.33
536.638	30.37
536.836	30.38
537.034	30.47
537.232	30.47
537.43	30.58
537.627	30.63
537.825	30.71
538.023	30.81
538.22	30.84
538.418	30.74
538.616	30.71
538.813	30.75
539.011	30.78
539.209	30.82
539.406	30.98
539.604	30.95
539.801	31.01
539.999	30.94
540.196	30.88
540.394	30.87
540.591	30.89
540.789	30.87
540.986	30.86
541.184	30.89
541.381	30.86
541.579	30.77
541.776	30.81
541.974	30.79
542.171	30.86
542.368	30.98
542.566	31.01
542.763	31.08
542.96	31.14
543.158	31.23
543.355	31.26
543.552	31.38
543.75	31.53
543.947	31.66
544.144	31.75
544.341	31.81
544.539	31.8
544.736	31.9
544.933	31.89
545.13	32.08
545.327	31.99
545.524	32.12
545.722	32.11
545.919	32.1
546.116	32
546.313	32.03
546.51	31.95
546.707	31.92
546.904	31.92
547.101	32.15
547.298	32.03
547.495	32.16
547.692	32.26
547.889	32.31
548.086	32.45
548.283	32.49
548.48	32.64
548.677	32.81
548.874	33.05
549.07	33.21
549.267	33.06
549.464	33.27
549.661	33.3
549.858	33.4
550.055	33.39
550.251	33.36
550.448	33.43
550.645	33.45
550.842	33.59
551.038	33.52
551.235	33.38
551.432	33.57
551.628	33.52
551.825	33.56
552.022	33.4
552.218	33.47
552.415	33.48
552.612	33.63
552.808	33.48
553.005	33.47
553.201	33.47
553.398	33.59
553.594	33.39
553.791	33.42
553.987	33.48
554.184	33.53
554.38	33.66
554.577	33.68
554.773	33.72
554.97	33.83
555.166	33.88
555.362	33.83
555.559	33.78
555.755	33.85
555.952	33.93
556.148	33.96
556.344	34.06
556.541	34.05
556.737	34.18
556.933	34.21
557.129	34.14
557.326	34.13
557.522	34.36
557.718	34.44
557.914	34.62
558.11	34.47
558.307	34.57
558.503	34.5
558.699	34.56
558.895	34.31
559.091	34.2
559.287	34.48
559.483	34.53
559.679	34.35
559.876	34.37
560.072	34.4
560.268	34.59
560.464	34.34
560.66	34.43
560.856	34.5
561.052	34.78
561.247	34.9
561.443	34.85
561.639	34.93
561.835	35.11
562.031	35.08
562.227	34.97
562.423	35.06
562.619	35.39
562.815	35.48
563.01	35.39
563.206	35.21
563.402	35.19
563.598	35.19
563.793	35.21
563.989	35.28
564.185	35.2
564.381	35.47
564.576	35.47
564.772	35.32
564.968	35.44
565.163	35.67
565.359	35.79
565.555	36.02
565.75	36.09
565.946	36.03
566.141	36.01
566.337	36.19
566.532	36.12
566.728	36.13
566.923	36.21
567.119	36.17
567.314	36.21
567.51	36.21
567.705	35.98
567.901	36.02
568.096	36.24
568.292	36.2
568.487	36.23
568.682	36.22
568.878	36.21
569.073	36.27
569.268	36.28
569.464	36.25
569.659	36.43
569.854	36.67
570.05	36.67
570.245	36.54
570.44	36.72
570.635	36.76
570.831	36.79
571.026	36.89
571.221	37
571.416	36.9
571.611	36.94
571.806	36.93
572.002	36.96
572.197	37
572.392	36.88
572.587	36.99
572.782	36.86
572.977	36.9
573.172	37.05
573.367	36.88
573.562	37.05
573.757	37.15
573.952	37.1
574.147	37.1
574.342	37.21
574.537	37.28
574.732	37.07
574.927	37.14
575.121	37.2
575.316	37.17
575.511	37.22
575.706	37.29
575.901	37.15
576.096	37.33
576.29	37.36
576.485	37.27
576.68	37.36
576.875	37.52
577.069	37.59
577.264	37.55
577.459	37.44
577.654	37.67
577.848	37.62
578.043	37.84
578.238	37.78
578.432	37.77
578.627	37.84
578.821	38.02
579.016	38.13
579.21	38.34
579.405	38.41
579.6	38.47
579.794	38.43
579.989	38.54
580.183	38.48
580.378	38.51
580.572	38.56
580.766	38.64
580.961	38.49
581.155	38.35
581.35	38.07
581.544	38.18
581.738	38.22
581.933	38.22
582.127	38.13
582.321	38.06
582.516	38.45
582.71	38.54
582.904	38.64
583.099	38.82
583.293	39.01
583.487	39.36
583.681	39.35
583.875	39.45
584.07	39.51
584.264	39.73
584.458	39.64
584.652	39.29
584.846	39.42
585.04	39.54
585.234	39.52
585.428	39.44
585.623	39.36
585.817	39.38
586.011	39.17
586.205	38.99
586.399	38.98
586.593	39.14
586.787	39.13
586.981	38.91
587.174	38.72
587.368	38.61
587.562	38.64
587.756	38.74
587.95	38.74
588.144	38.96
588.338	39.24
588.532	39.14
588.725	39.19
588.919	39.11
589.113	39.26
589.307	39.36
589.501	39.45
589.694	39.6
589.888	39.75
590.082	39.91
590.275	39.84
590.469	39.81
590.663	39.96
590.856	40
591.05	39.99
591.244	40.12
591.437	40.14
591.631	40.36
591.824	40.27
592.018	40.02
592.212	40.08
592.405	40.21
592.599	40.14
592.792	40.19
592.986	40.5
593.179	40.65
593.372	40.61
593.566	40.66
593.759	40.61
593.953	40.62
594.146	40.65
594.339	40.65
594.533	40.68
594.726	40.86
594.92	40.69
595.113	40.39
595.306	40.45
595.499	40.29
595.693	40.32
595.886	40.3
596.079	40.2
596.272	40.31
596.466	40.5
596.659	40.35
596.852	40.35
597.045	40.27
597.238	40.22
597.431	40.15
597.624	40.33
597.818	40.45
598.011	40.54
598.204	40.76
598.397	40.82
598.59	40.53
598.783	40.74
598.976	40.54
599.169	40.81
599.362	40.74
599.555	40.75
599.748	40.89
599.941	40.57
600.134	40.68
600.326	40.47
600.519	40.21
600.712	40.21
600.905	40.31
601.098	40.66
601.291	40.54
601.483	40.93
601.676	41.28
601.869	41.13
602.062	41.47
602.255	41.29
602.447	41.42
602.64	41.59
602.833	41.77
603.025	41.91
603.218	41.74
603.411	41.65
603.603	41.53
603.796	41.38
603.989	41.28
604.181	41.26
604.374	41.36
604.566	41.44
604.759	41.51
604.951	41.52
605.144	41.49
605.336	41.63
605.529	41.77
605.721	41.84
605.914	41.86
606.106	41.97
606.299	41.99
606.491	41.83
606.683	41.75
606.876	41.67
607.068	41.58
607.26	41.37
607.453	41.36
607.645	41.41
607.837	41.48
608.03	41.42
608.222	41.72
608.414	41.65
608.606	41.76
608.799	41.86
608.991	42.07
609.183	42.14
609.375	42.25
609.567	42.24
609.759	42.19
609.952	42.1
610.144	42.21
610.336	42.04
610.528	41.98
610.72	42.02
610.912	41.95
611.104	41.8
611.296	41.71
611.488	41.68
611.68	41.63
611.872	41.67
612.064	41.75
612.256	41.64
612.448	41.62
612.64	41.72
612.832	41.97
613.023	42.1
613.215	42.11
613.407	42.19
613.599	42.11
613.791	42.28
613.983	42.52
614.174	42.54
614.366	42.42
614.558	42.49
614.75	42.53
614.941	42.54
615.133	42.59
615.325	42.57
615.516	42.78
615.708	43.04
615.9	42.65
616.091	42.69
616.283	42.69
616.475	42.98
616.666	43.16
616.858	43.21
617.049	43.15
617.241	43.13
617.432	43.14
617.624	43.24
617.815	43.12
618.007	43.41
618.198	43.25
618.39	43.19
618.581	43.27
618.773	43.23
618.964	43.17
619.155	43.19
619.347	43.22
619.538	43.38
619.729	43.14
619.921	43.26
620.112	43.34
620.303	43.35
620.494	43.42
620.686	43.33
620.877	43.29
621.068	43.27
621.259	43.22
621.451	43.23
621.642	43.31
621.833	43.43
622.024	43.23
622.215	42.97
622.406	42.96
622.597	43.02
622.788	43.19
622.98	42.81
623.171	42.93
623.362	42.75
623.553	42.99
623.744	42.97
623.935	43.07
624.126	43.4
624.317	43.69
624.508	43.85
624.698	44.02
624.889	44.07
625.08	44.53
625.271	44.47
625.462	44.64
625.653	44.32
625.844	44.39
626.034	44.22
626.225	43.9
626.416	43.92
626.607	43.86
626.798	43.88
626.988	43.72
627.179	43.47
627.37	43.59
627.56	43.41
627.751	43.41
627.942	43.45
628.132	43.43
628.323	43.49
628.514	43.33
628.704	43.44
628.895	43.17
629.085	43.11
629.276	43.27
629.466	43.38
629.657	43.46
629.847	43.66
630.038	43.56
630.228	43.72
630.419	43.75
630.609	44.14
630.8	44.27
630.99	44.65
631.181	44.96
631.371	44.82
631.561	44.44
631.752	44.36
631.942	44.43
632.132	44.55
632.323	44.42
632.513	44.57
632.703	44.28
632.893	44.02
633.084	43.82
633.274	43.9
633.464	44.14
633.654	44.46
633.844	44.66
634.034	44.56
634.225	44.66
634.415	44.9
634.605	44.6
634.795	44.8
634.985	44.85
635.175	44.71
635.365	44.66
635.555	44.61
635.745	44.55
635.935	44.66
636.125	44.77
636.315	44.66
636.505	44.74
636.695	44.89
636.885	44.65
637.075	44.64
637.265	45.06
637.455	44.93
637.644	44.88
637.834	44.96
638.024	44.89
638.214	44.9
638.404	44.95
638.593	44.75
638.783	45.17
638.973	45.2
639.163	45.35
639.352	45.37
639.542	45.4
639.732	45.48
639.921	45.47
640.111	45.39
640.301	45.14
640.49	45.28
640.68	45.3
640.87	45.11
641.059	45.26
641.249	45.32
641.438	44.79
641.628	44.79
641.817	44.68
642.007	44.59
642.196	44.6
642.386	44.93
642.575	44.9
642.764	45.51
642.954	45.58
643.143	45.84
643.333	45.63
643.522	45.75
643.711	45.78
643.901	45.8
644.09	46.11
644.279	46.51
644.469	46.67
644.658	46.52
644.847	45.82
645.036	45.86
645.226	45.82
645.415	45.54
645.604	45.78
645.793	45.8
645.982	45.54
646.171	45.52
646.361	45.63
646.55	45.28
646.739	45.67
646.928	45.84
647.117	46.02
647.306	46.02
647.495	46.54
647.684	46.64
647.873	46.81
648.062	47.43
648.251	47.34
648.44	46.91
648.629	46.83
648.818	46.47
649.007	46.5
649.196	46.22
649.384	46.03
649.573	45.77
649.762	46.11
649.951	46.37
650.14	46.2
650.328	46.11
650.517	45.92
650.706	46.09
650.895	45.92
651.083	45.87
651.272	45.43
651.461	45.61
651.65	45.81
651.838	45.34
652.027	45.18
652.216	45.33
652.404	45.34
652.593	45.59
652.781	45.6
652.97	45.73
653.158	45.84
653.347	46.43
653.535	46.51
653.724	46.22
653.912	46.43
654.101	46.15
654.289	46.07
654.478	46.27
654.666	46.32
654.855	46.26
655.043	46.6
655.231	46.49
655.42	46.28
655.608	46.28
655.796	46.81
655.985	46.7
656.173	47.08
656.361	47.19
656.55	46.86
656.738	47.12
656.926	47.2
657.114	47.03
657.302	47.03
657.491	47.17
657.679	47.2
657.867	46.8
658.055	46.89
658.243	46.79
658.431	46.74
658.619	46.98
658.807	46.51
658.996	46.75
659.184	46.69
659.372	46.85
659.56	46.74
659.748	46.81
659.936	47
660.124	47.03
660.311	47.1
660.499	46.72
660.687	47.08
660.875	47.46
661.063	47.26
661.251	47.27
661.439	47.2
661.627	47.57
661.814	47.17
662.002	46.95
662.19	47.31
662.378	47.36
662.565	47.72
662.753	47.08
662.941	47.09
663.129	46.91
663.316	46.97
663.504	47.03
663.692	46.89
663.879	47.2
664.067	47.46
664.254	46.88
664.442	46.75
664.63	46.81
664.817	47.33
665.005	47.35
665.192	47.69
665.38	47.42
665.567	48.02
665.755	48.17
665.942	48.31
666.13	48.58
666.317	48.7
666.504	48.42
666.692	48.08
666.879	48.08
667.067	48.26
667.254	48.47
667.441	49.32
667.629	48.6
667.816	48.4
668.003	48.33
668.19	48.5
668.378	48.7
668.565	48.88
668.752	49.23
668.939	48.63
669.127	48.31
669.314	48.33
669.501	47.71
669.688	47.9
669.875	48.24
670.062	48.43
670.249	48.13
670.436	48.09
670.623	48.65
670.81	48.74
670.997	49.08
671.184	49.33
671.371	49.51
671.558	49.77
671.745	50.14
671.932	49.75
672.119	49.44
672.306	49.56
672.493	49.8
672.68	49.3
672.867	49.39
673.054	49.48
673.24	49.94
673.427	50.04
673.614	49.86
673.801	49.55
673.988	50.02
674.174	50.24
674.361	50.19
674.548	50.18
674.734	50.17
674.921	50.14
675.108	50.07
675.294	49.78
675.481	49.57
675.668	50.11
675.854	50.01
676.041	49.67
676.227	49.62
676.414	49.97
676.601	49.63
676.787	49.66
676.974	49.53
677.16	49.57
677.347	49.73
677.533	49.6
677.719	49.22
677.906	49.14
678.092	49.14
678.279	49.37
678.465	48.94
678.651	49.13
678.838	48.96
679.024	49.01
679.21	49.06
679.397	48.76
679.583	48.65
679.769	48.69
679.955	48.8
680.142	48.62
680.328	48.68
680.514	48.29
680.7	47.94
680.886	48.27
681.073	48.04
681.259	48.17
681.445	47.99
681.631	48.28
681.817	48.42
682.003	48.55
682.189	49.03
682.375	48.91
682.561	49.65
682.747	49.99
682.933	49.7
683.119	50.17
683.305	49.97
683.491	50.28
683.677	50.22
683.863	49.93
684.049	50.41
684.235	50.04
684.42	49.85
684.606	49.44
684.792	49.72
684.978	50
685.164	49.84
685.349	50.23
685.535	50.16
685.721	50.12
685.907	50.3
686.092	49.58
686.278	49.64
686.464	49.96
686.649	50.05
686.835	49.68
687.021	49.7
687.206	49.75
687.392	49.37
687.577	49.33
687.763	49.43
687.948	49.59
688.134	49.85
688.319	49.93
688.505	49.76
688.69	49.92
688.876	50.05
689.061	49.93
689.247	49.69
689.432	50
689.618	50.05
689.803	50.02
689.988	50.24
690.174	50.26
690.359	50.23
690.544	50.51
690.73	50.66
690.915	50.45
691.1	50.53
691.285	51.6
691.471	51.6
691.656	51.89
691.841	51.52
692.026	51.19
692.211	51.17
692.396	50.87
692.582	50.44
692.767	50.4
692.952	50.64
693.137	50.57
693.322	50.08
693.507	49.92
693.692	49.5
693.877	49.81
694.062	49.67
694.247	49.54
694.432	50.06
694.617	50.23
694.802	50.48
694.987	50.68
695.172	50.7
695.357	50.43
695.541	50.93
695.726	51.34
695.911	51.6
696.096	51.86
696.281	51.81
696.466	51.9
696.65	52.21
696.835	51.65
697.02	51.35
697.204	51.39
697.389	51.32
697.574	50.92
697.759	50.68
697.943	50.73
698.128	50.48
698.312	50.47
698.497	49.97
698.682	49.62
698.866	50.01
699.051	50.11
699.235	50.31
699.42	50.46
699.604	50.5
699.789	50.63
699.973	50.47
700.158	50.42
700.342	50.42
700.527	51.11
700.711	51.14
700.895	50.93
701.08	51.08
701.264	50.84
701.448	50.54
701.633	50.22
701.817	50.8
702.001	50.75
702.186	51.27
702.37	51.7
702.554	51.35
702.738	51.64
702.923	51.87
703.107	51.61
703.291	52.11
703.475	51.85
703.659	52.48
703.843	51.88
704.027	51.67
704.212	50.85
704.396	50.59
704.58	50.76
704.764	50.47
704.948	49.71
705.132	50.17
705.316	49.88
705.5	50.6
705.684	50.91
705.868	50.86
706.052	51.69
706.235	52.4
706.419	52.48
706.603	52.61
706.787	52.9
706.971	53.66
707.155	53.12
707.339	52.8
707.522	52.76
707.706	51.95
707.89	51.93
708.074	51.49
708.257	51.27
708.441	51.71
708.625	51.66
708.808	51.7
708.992	51.35
709.176	51.99
709.359	51.96
709.543	52.27
709.727	52.55
709.91	52.99
710.094	52.86
710.277	53
710.461	51.93
710.644	51.93
710.828	52.08
711.011	52.32
711.195	52.07
711.378	52.56
711.562	52.59
711.745	52.36
711.928	51.94
712.112	52.24
712.295	52.49
712.478	53.12
712.662	53.01
712.845	52.45
713.028	52.19
713.212	51.63
713.395	51.82
713.578	51.62
713.761	52.38
713.945	52.02
714.128	51.59
714.311	51.95
714.494	51.95
714.677	51.65
714.86	51.98
715.043	52.36
715.227	52.48
715.41	52.27
715.593	52.47
715.776	52
715.959	52.34
716.142	52.61
716.325	51.95
716.508	51.72
716.691	52.57
716.874	53.11
717.057	53.09
717.239	53.52
717.422	53.3
717.605	53.64
717.788	54.26
717.971	54.95
718.154	55.27
718.337	55.61
718.519	55.95
718.702	55.4
718.885	54.71
719.068	54.14
719.25	54.7
719.433	55.99
719.616	55.73
719.798	54.91
719.981	55.3
720.164	55.27
720.346	55.16
720.529	53.59
720.712	53.79
720.894	53.61
721.077	53.62
721.259	53.05
721.442	51.48
721.624	50.75
721.807	51.1
721.989	50.09
722.172	50.23
722.354	50.09
722.537	52.31
722.719	52.25
722.901	52.5
723.084	53.33
723.266	53.3
723.448	53.53
723.631	54.26
723.813	53.95
723.995	54.22
724.178	53.9
724.36	53.91
724.542	52.9
724.724	52.74
724.907	53.95
725.089	54.05
725.271	54.43
725.453	54.87
725.635	54.27
725.817	55.24
725.999	54.46
726.181	54.66
726.364	54.65
726.546	55.56
726.728	56.37
726.91	56.04
727.092	55.72
727.274	55.33
727.456	54.52
727.638	54.07
727.819	53.51
728.001	53.88
728.183	53.14
728.365	53.47
728.547	52.9
728.729	52.7
728.911	51.98
729.093	52.03
729.274	53.12
729.456	53.43
729.638	53.6
729.82	53.42
730.001	53.55
730.183	53.95
730.365	53.51
730.546	53.75
730.728	52.74
730.91	53.34
731.091	53.06
731.273	52.09
731.455	52.24
731.636	52.74
731.818	53
731.999	52.63
732.181	52.61
732.362	52.98
732.544	52.78
732.725	53.4
732.907	53.27
733.088	53.29
733.27	53.24
733.451	53.04
733.633	54.07
733.814	54.14
733.995	55
734.177	55.16
734.358	56.41
734.539	56.71
734.721	56.53
734.902	56
735.083	56.35
735.264	57.07
735.446	56.78
735.627	56.39
735.808	56.82
735.989	56.08
736.17	56.49
736.351	55.11
736.533	55.07
736.714	55.68
736.895	55.65
737.076	55.62
737.257	54.96
737.438	55.96
737.619	54.8
737.8	54.11
737.981	54.07
738.162	53.89
738.343	53.8
738.524	53.86
738.705	54.36
738.886	54.69
739.067	54.61
739.247	54.73
739.428	53.91
739.609	55.08
739.79	55.08
739.971	55.57
740.151	55.36
740.332	56.3
740.513	56.37
740.694	55.02
740.874	55.1
741.055	56.57
741.236	57.09
741.417	57.89
741.597	56.86
741.778	56.36
741.958	56.71
742.139	57.05
742.32	57.02
742.5	55.6
742.681	55.86
742.861	56.49
743.042	54.69
743.222	53.75
743.403	52.88
743.583	53.99
743.764	54.68
743.944	54.46
744.124	54.08
744.305	53.71
744.485	55.46
744.666	55.38
744.846	55.55
745.026	55.92
745.207	56.44
745.387	56.17
745.567	54.45
745.747	54.28
745.928	53.9
746.108	53.68
746.288	53.41
746.468	53.25
746.648	54.11
746.829	54.01
747.009	54.17
747.189	54.59
747.369	55.69
747.549	56.27
747.729	57.44
747.909	58.44
748.089	58.87
748.269	58.81
748.449	59.02
748.629	59.29
748.809	58.45
748.989	59.09
749.169	58.51
749.349	57.99
749.529	57.93
749.709	57.17
749.889	56.89
750.068	56.62
750.248	57.35
750.428	56.91
750.608	56.71
750.788	56.9
750.967	56.09
751.147	56.5
751.327	55.93
751.507	55.72
751.686	55.52
751.866	55.88
752.046	55.92
752.225	56.1
752.405	55.88
752.585	54.83
752.764	54.67
752.944	54.31
753.123	55.18
753.303	57.18
753.482	57.25
753.662	57.15
753.841	55.87
754.021	55.74
754.2	55.18
754.38	55.31
754.559	56.27
754.739	55.51
754.918	56.87
755.097	55.58
755.277	54.37
755.456	54.45
755.635	54.48
755.815	55.14
755.994	56.17
756.173	56.17
756.352	57.08
756.532	57.79
756.711	60.18
756.89	59.71
757.069	60.73
757.248	60.19
757.427	60.15
757.607	60
757.786	59.4
757.965	58.96
758.144	58.12
758.323	57.67
758.502	56.94
758.681	55.46
758.86	54.82
759.039	54.31
759.218	55.38
759.397	57.18
759.576	58.74
759.755	58.43
759.934	57.81
760.113	58.15
760.291	58.23
760.47	57.72
760.649	58.09
760.828	58.34
761.007	57.87
761.186	56.8
761.364	55.13
761.543	53.73
761.722	54.39
761.901	54.49
762.079	54.95
762.258	54.23
762.437	54.53
762.615	55.11
762.794	56.2
762.972	56.97
763.151	57.38
763.33	57.6
763.508	57.63
763.687	57.72
763.865	57.98
764.044	57.3
764.222	57.44
764.401	57.37
764.579	56.51
764.758	55.29
764.936	54.93
765.114	55.24
765.293	55.12
765.471	55.1
765.65	55.84
765.828	56.1
766.006	56.81
766.184	56.9
766.363	57.04
766.541	57.21
766.719	57.71
766.898	57.63
767.076	57.19
767.254	57.05
767.432	57.22
767.61	56.09
767.788	55.25
767.967	55.56
768.145	55.74
768.323	55.58
768.501	56.5
768.679	56.42
768.857	56.77
769.035	56.16
769.213	56.77
769.391	57.43
769.569	57.28
769.747	58.3
769.925	57.99
770.103	57.74
770.281	57.74
770.459	57.46
770.636	57.75
770.814	57.8
770.992	58.05
771.17	57.55
771.348	56.29
771.525	57.01
771.703	57.7
771.881	58.24
772.059	58.83
772.236	58.39
772.414	58.26
772.592	58.89
772.769	57.66
772.947	59.23
773.125	60.81
773.302	61.81
773.48	60.94
773.657	60.77
773.835	60.22
774.013	61.51
774.19	62.27
774.368	62.4
774.545	61.86
774.723	62.52
774.9	62.17
775.077	62.52
775.255	60.95
775.432	60.53
775.61	59.24
775.787	58.35
775.964	56.44
776.142	56.78
776.319	57.11
776.496	56.64
776.674	57.53
776.851	58.32
777.028	57.4
777.205	60.7
777.382	61.9
777.56	61.89
777.737	61.58
777.914	61.32
778.091	61.3
778.268	60.88
778.445	61.63
778.622	62.15
778.8	61.38
778.977	60.37
779.154	67.87
779.331	68.04
779.508	69.42
779.685	70.82
779.862	71.29
780.038	71.06
780.215	71.13
780.392	71.63
780.569	72.24
780.746	71.73
780.923	71.13
781.1	60.41
781.277	58.68
781.453	58.04
781.63	56.9
781.807	57.11
781.984	58.11
782.16	57.09
782.337	56.38
782.514	55.02
782.691	54.82
782.867	55.82
783.044	56.52
783.221	58.16
783.397	59.52
783.574	61.7
783.75	62.94
783.927	61.52
784.103	64.54
784.28	63.82
784.456	62.48
784.633	62.82
784.809	62.33
784.986	61.49
785.162	61.68
785.339	58.99
785.515	58.72
785.692	59.16
785.868	61.21
786.044	58.7
786.221	59.65
786.397	62.34
786.573	62.88
786.749	62.76
786.926	62.71
787.102	61.51
787.278	62.28
787.454	61.32
787.631	60.34
787.807	58.88
787.983	59.73
788.159	59.29
788.335	58.62
788.511	58.79
788.687	59.96
788.863	61.15
789.039	61.38
789.216	61.54
789.392	60.88
789.568	60.33
789.744	61.23
789.919	62.56
790.095	63.53
790.271	63.43
790.447	63.19
790.623	63.2
790.799	62.34
790.975	63.44
791.151	63.33
791.327	64.33
791.502	63
791.678	61.85
791.854	63.33
792.03	64.61
792.205	63.74
792.381	64.58
792.557	64.26
792.733	63.8
792.908	63.23
793.084	65.22
793.259	64.56
793.435	66.9
793.611	67.78
793.786	64.82
793.962	63.29
794.137	65.1
794.313	63.65
794.488	65.65
794.664	67.62
794.839	66.73
795.015	64.26
795.19	65.05
795.366	64.24
795.541	64.3
795.716	63.27
795.892	61.6
796.067	61.01
796.242	59.92
796.418	57.28
796.593	56.19
796.768	57.98
796.944	57.92
797.119	57.16
797.294	60.29
797.469	60.65
797.644	61.62
797.82	63.1
797.995	61.4
798.17	62.24
798.345	64.29
798.52	64.94
798.695	64.7
798.87	65.67
799.045	66.9
799.22	64.62
799.395	63.34
799.57	64.06
799.745	63.46
799.92	63.73
800.095	64.21
800.27	61.24
800.445	60.37
800.62	58.04
800.795	57.83
800.97	56.35
801.145	55.35
801.319	54.72
801.494	54.66
801.669	56.09
801.844	57.32
802.018	57.84
802.193	59.31
802.368	59.77
802.543	61.79
802.717	59.33
802.892	58.78
803.067	60.7
803.241	62.13
803.416	60.72
803.59	58.88
803.765	58.98
803.94	58.36
804.114	58.69
804.289	59.54
804.463	60.39
804.638	61.49
804.812	63.53
804.986	63.1
805.161	62.52
805.335	61.92
805.51	63.46
805.684	63.08
805.858	64.42
806.033	66.48
806.207	64.81
806.381	63.54
806.556	64.29
806.73	66.49
806.904	66.62
807.078	68.33
807.253	69.68
807.427	68.61
807.601	69.34
807.775	69.73
807.949	68.76
808.123	69.76
808.298	69.72
808.472	70.35
808.646	63.98
808.82	64.03
808.994	62.27
809.168	62.68
809.342	62.73
809.516	62.16
809.69	59.86
809.864	59.34
810.038	58.3
810.212	57.1
810.385	56.21
810.559	60.11
810.733	57.88
810.907	58.85
811.081	60.18
811.255	60.68
811.428	61.21
811.602	63.44
811.776	62.23
811.95	63.9
812.123	64.17
812.297	62.52
812.471	62.52
812.644	62.56
812.818	65.77
812.992	63.22
813.165	65.57
813.339	63.6
813.512	62.71
813.686	61.47
813.86	59.89
814.033	60.57
814.207	64.05
814.38	64.85
814.554	68.1
814.727	64.16
814.9	66.06
815.074	64.78
815.247	67.03
815.421	63.87
815.594	63.38
815.767	65.56
815.941	64.01
816.114	63.54
816.287	65.27
816.46	64.43
816.634	65.42
816.807	61.9
816.98	62.25
817.153	63.07
817.327	68.56
817.5	71.82
817.673	72.19
817.846	72.15
818.019	71.12
818.192	70.04
818.365	66.31
818.538	66.74
818.711	69.41
818.884	66.56
819.057	65.3
819.23	63.49
819.403	62.71
819.576	62.55
819.749	64.71
819.922	64.87
820.095	63.02
820.268	64.88
820.441	64.63
820.614	62.42
820.786	61.85
820.959	61.47
821.132	61.09
821.305	59.89
821.477	59.48
821.65	59.63
821.823	58.81
821.996	59.3
822.168	58.65
822.341	57.26
822.514	57.46
822.686	57.94
822.859	57.64
823.031	57.9
823.204	58.12
823.376	57.46
823.549	57.29
823.722	57.92
823.894	57.61
824.067	57.62
824.239	58.12
824.411	58.45
824.584	58.26
824.756	58.4
824.929	57.83
825.101	58.31
825.273	59.26
825.446	58.93
825.618	58.58
825.79	58.51
825.963	59.17
826.135	59.06
826.307	58.53
826.479	58.88
826.652	58.55
826.824	59.42
826.996	59.28
827.168	59.11
827.34	59.01
827.512	59.39
827.684	60.23
827.856	60.21
828.029	61.25
828.201	61.95
828.373	62.04
828.545	62.74
828.717	62.8
828.889	62.98
829.061	63.48
829.232	65.01
829.404	65.79
829.576	65.64
829.748	65.57
829.92	66.02
830.092	67.42
830.264	67.31
830.436	67.92
830.607	66.38
830.779	66.59
830.951	66.92
831.123	65.21
831.294	63.02
831.466	64.19
831.638	64.89
831.809	64.6
831.981	62.59
832.153	61.51
832.324	62.42
832.496	64.98
832.667	63.94
832.839	63.94
833.011	63.62
833.182	66.08
833.354	64.74
833.525	64.32
833.697	63.18
833.868	64.36
834.039	65.47
834.211	66.02
834.382	64.81
834.554	64.98
834.725	64.09
834.896	65.56
835.068	63.54
835.239	62.8
835.41	62.76
835.581	64.4
835.753	63.15
835.924	64.16
836.095	61.46
836.266	60.81
836.438	60.2
836.609	60.62
836.78	61.02
836.951	61.2
837.122	60.91
837.293	60.74
837.464	57.94
837.635	60.84
837.806	60.53
837.977	61.22
838.148	63.7
838.319	64.65
838.49	64.45
838.661	65.76
838.832	69.33
839.003	70.34
839.174	74.25
839.345	78.56
839.516	75.14
839.687	72.66
839.857	73.56
840.028	72.69
840.199	72.58
840.37	69.77
840.54	68.29
840.711	65.75
840.882	71.47
841.053	69.74
841.223	67.86
841.394	69.46
841.564	72.87
841.735	77.76
841.906	79.75
842.076	81.7
842.247	86.8
842.417	82.47
842.588	83.36
842.758	77.77
842.929	76.48
843.099	74.66
843.27	79.02
843.44	81.23
843.611	79.19
843.781	79.6
843.951	80.03
844.122	76.03
844.292	77.63
844.462	70.5
844.633	71.55
844.803	74.13
844.973	76.22
845.144	70.45
845.314	68.29
845.484	67.23
845.654	59.57
845.824	57.61
845.995	59.4
846.165	62.11
846.335	73.91
846.505	79.13
846.675	74.35
846.845	80.98
847.015	79.75
847.185	80.65
847.355	81.54
847.525	92.09
847.695	99.76
847.865	113.87
848.035	100.86
848.205	96.45
848.375	94.02
848.545	96.2
848.715	87.1
848.884	87.48
849.054	85.04
849.224	80.58
849.394	88.56
849.564	84.2
849.733	73.69
849.903	91.01
850.073	84.48
850.243	79.72
850.412	80.89
850.582	84.95
850.752	83.11
850.921	80.65
851.091	87.87
851.26	81.11
851.43	86
851.599	87.87
851.769	86.19
851.939	97.93
852.108	105.83
852.278	102.97
852.447	106.39
852.616	112.56
852.786	123.74
852.955	120.85
853.125	115.99
853.294	116.22
853.463	114.89
853.633	102.4
853.802	109.99
853.971	107.56
854.141	117.48
854.31	119.67
854.479	115.17
854.648	98.11
854.818	92.05
854.987	95.18
855.156	83.23
855.325	93.49
855.494	106.36
855.663	90.43
855.832	100.16
856.001	94.69
856.171	84.22
856.34	86.09
856.509	96.3
856.678	93.33
856.847	99.76
857.016	111.17
857.185	103.87
857.353	94.32
857.522	97.05
857.691	82.4
857.86	76.68
858.029	82.12
858.198	86.03
858.367	79.3
858.535	83.71
858.704	76.88
858.873	76.71
859.042	73.35
859.21	77.98
859.379	74.14
859.548	77.69
859.717	81.56
859.885	78.72
860.054	81.12
860.222	81.27
860.391	85.96
860.56	86.22
860.728	80.63
860.897	88.32
861.065	79.63
861.234	82.25
861.402	87.61
861.571	88.31
861.739	83.36
861.908	78.59
862.076	77.41
862.244	74.93
862.413	82.65
862.581	84.5
862.749	88.61
862.918	94.75
863.086	102.91
863.254	91.37
863.423	96.16
863.591	98.77
863.759	95.26
863.927	110.1
864.096	104.18
864.264	105.66
864.432	101.18
864.6	93.63
864.768	93.12
864.936	87.59
865.104	91.78
865.272	95.24
865.44	98.26
865.608	96.43
865.776	82.05
865.944	75.73
866.112	74.26
866.28	75.49
866.448	77.5
866.616	81.73
866.784	73.71
866.952	75.24
867.12	78.14
867.288	71.31
867.455	80.34
867.623	80.63
867.791	90.21
867.959	85.77
868.127	86.21
868.294	86.17
868.462	95.22
868.63	98.85
868.797	105.86
868.965	108.98
869.133	108.36
869.3	103.5
869.468	107.7
869.636	106.71
869.803	101.48
869.971	101.08
870.138	94.29
870.306	88.93
870.473	78.16
870.641	70.39
870.808	65.58
870.975	78.27
871.143	78.06
871.31	84.07
871.478	87.2
871.645	103.53
871.812	110.44
871.98	110.5
872.147	100.34
872.314	117.63
872.482	110.05
872.649	110.15
872.816	104.76
872.983	101.01
873.15	91.63
873.318	80.72
873.485	80.98
873.652	74.36
873.819	72.97
873.986	75.69
874.153	65.21
874.32	72.71
874.487	70.11
874.654	66.79
874.821	71.91
874.988	70.31
875.155	81.09
875.322	67.9
875.489	78.46
875.656	83.75
875.823	70.34
875.99	83.32
876.157	76.75
876.324	78.7
876.49	77.61
876.657	76.79
876.824	86.95
876.991	87.67
877.157	96.72
877.324	88.7
877.491	93.56
877.658	102.73
877.824	105.48
877.991	105.9
878.157	102.99
878.324	116.38
878.491	117.13
878.657	101.71
878.824	112.91
878.99	106.23
879.157	111.23
879.323	105.61
879.49	100.6
879.656	106.23
879.823	103.73
879.989	104.06
880.156	98.05
880.322	104.07
880.488	103.27
880.655	95.91
880.821	94.3
880.987	92.28
881.154	88.13
881.32	97.95
881.486	90.44
881.652	86.08
881.819	80.78
881.985	76.82
882.151	74.67
882.317	71.98
882.483	70.54
882.649	69.61
882.816	67.94
882.982	67.78
883.148	64.93
883.314	63.86
883.48	64.23
883.646	64.28
883.812	65
883.978	63.97
884.144	65
884.31	64.81
884.476	64.43
884.642	63.6
884.807	62.47
884.973	62.74
885.139	63.64
885.305	62.6
885.471	62.76
885.637	61.59
885.802	62.09
885.968	61.88
886.134	62.36
886.3	62.65
886.465	64.62
886.631	64.75
886.797	66.05
886.962	66.54
887.128	68.2
887.293	70.15
887.459	70.49
887.625	72.49
887.79	76.81
887.956	76.77
888.121	79.09
888.287	78.38
888.452	82.44
888.618	76.55
888.783	73.88
