Data from LC_263_Reflection_1.txt Node
Date: Sat Nov 21 11:45:15 EST 2015
User: robert
Spectrometer: USB4E03001
Autoset integration time: false
Trigger mode: 4
Integration Time (sec): 1.000000E-1
Scans to average: 15
Electric dark correction enabled: true
Nonlinearity correction enabled: false
Boxcar width: 5
Stray light correction enabled: false
XAxis mode: Wavelengths
Stop averaging: false
Number of Pixels in Spectrum: 3648
>>>>>Begin Spectral Data<<<<<
177.566	38.08
177.785	95.03
178.005	387.32
178.225	-66.38
178.445	-121.06
178.665	25.29
178.885	58.25
179.105	-118.69
179.324	-28.11
179.544	-13.76
179.764	101.33
179.984	65.95
180.204	75.43
180.423	45.37
180.643	57.95
180.863	72.71
181.083	85.47
181.302	65.82
181.522	73.59
181.742	61.69
181.961	39.15
182.181	39.74
182.401	59.3
182.621	12.34
182.84	27.17
183.06	36.63
183.279	62.28
183.499	46.67
183.719	54.08
183.938	70.47
184.158	100.08
184.377	117.24
184.597	108.19
184.816	83.12
185.036	84.91
185.256	77.19
185.475	56.23
185.695	38.9
185.914	49.93
186.134	51.3
186.353	43.04
186.572	43.13
186.792	22.3
187.011	45.21
187.231	43.91
187.45	54.01
187.67	71.58
187.889	81.36
188.108	98.39
188.328	126.87
188.547	111.9
188.766	68.91
188.986	63.44
189.205	93.47
189.424	-155.53
189.644	-53.56
189.863	191.44
190.082	508.43
190.302	-791.67
190.521	-82.69
190.74	-78.56
190.959	-68.47
191.178	-27.95
191.398	-28.89
191.617	-28.45
191.836	-32.78
192.055	-58.57
192.274	-28.84
192.494	-38.1
192.713	-55.3
192.932	-52.58
193.151	-62.12
193.37	-45.6
193.589	-47.92
193.808	-62.11
194.027	-28.86
194.246	-11.39
194.465	-12.61
194.685	3.64
194.904	7.04
195.123	8.82
195.342	0.36
195.561	-11.48
195.78	-19.72
195.999	-28.85
196.218	-26.06
196.436	-58.27
196.655	-101.62
196.874	-43.97
197.093	-34.31
197.312	-13.15
197.531	22.28
197.75	19.47
197.969	30.79
198.188	32.6
198.407	31.2
198.625	23.07
198.844	34.12
199.063	46.82
199.282	32.65
199.501	32.09
199.719	-0.04
199.938	-6.28
200.157	29.14
200.376	23.02
200.594	22.23
200.813	33.26
201.032	50.33
201.251	15.54
201.469	0.25
201.688	-8.84
201.907	-23.42
202.125	25.12
202.344	18.26
202.563	-10.61
202.781	4.31
203	14.42
203.218	48.75
203.437	11.25
203.656	98.56
203.874	83.8
204.093	82.76
204.311	77.88
204.53	78.66
204.748	66.91
204.967	52.05
205.185	24.94
205.404	-12.7
205.622	-180.12
205.841	-130.53
206.059	-87.94
206.278	-97.14
206.496	-93.25
206.715	-302.75
206.933	-155.46
207.151	-107.58
207.37	-81.95
207.588	-123.23
207.806	-44.26
208.025	-54.92
208.243	-8.58
208.461	-13.83
208.68	29.14
208.898	25.56
209.116	39.44
209.335	16.01
209.553	20.02
209.771	7.15
209.989	17.2
210.208	-0.48
210.426	33.7
210.644	-9.59
210.862	-30.06
211.081	-79.72
211.299	-2.59
211.517	11.07
211.735	29.98
211.953	26.86
212.171	34.22
212.39	28.26
212.608	24.97
212.826	39.73
213.044	53.92
213.262	38.58
213.48	41.53
213.698	41.14
213.916	24.31
214.134	42.02
214.352	44.29
214.57	62.62
214.788	67.81
215.006	82.89
215.224	60.99
215.442	44.71
215.66	71.28
215.878	58.12
216.096	48.77
216.314	75.7
216.532	70.57
216.75	48.95
216.968	26.23
217.185	30.34
217.403	0.29
217.621	25.85
217.839	44.69
218.057	42.81
218.275	18.1
218.492	16.46
218.71	-5.85
218.928	-9.97
219.146	13.27
219.363	27.57
219.581	25.82
219.799	49.08
220.017	19.05
220.234	3.8
220.452	8.96
220.67	49.39
220.887	52.84
221.105	54.03
221.323	38.27
221.54	7.92
221.758	14.11
221.976	25.66
222.193	24.97
222.411	37.84
222.629	23.97
222.846	11.52
223.064	-0.48
223.281	5.34
223.499	-2.46
223.716	16.19
223.934	18.03
224.151	8.12
224.369	-19.33
224.586	-7.59
224.804	-4.25
225.021	0.05
225.239	14.58
225.456	15.54
225.674	22.94
225.891	25.21
226.108	17.95
226.326	29.88
226.543	29.5
226.76	33.58
226.978	28.44
227.195	23.55
227.413	20.28
227.63	15.79
227.847	14.46
228.064	11.71
228.282	7.94
228.499	12.27
228.716	7.22
228.934	6.92
229.151	7.8
229.368	7.55
229.585	8.34
229.802	9.63
230.02	10.53
230.237	10.55
230.454	11.24
230.671	12.76
230.888	11.78
231.105	13.35
231.323	15.11
231.54	15.01
231.757	18.77
231.974	19.77
232.191	17.36
232.408	18.58
232.625	17.7
232.842	13.67
233.059	13.07
233.276	14.35
233.493	20.72
233.71	20.61
233.927	20.66
234.144	18.1
234.361	15.76
234.578	16.26
234.795	15.91
235.012	14.03
235.229	17.25
235.446	17.68
235.663	12
235.879	7.7
236.096	7.48
236.313	8.02
236.53	9.3
236.747	13.14
236.964	12.58
237.181	10.75
237.397	10.1
237.614	9.95
237.831	6.32
238.048	11.7
238.264	11.17
238.481	6.71
238.698	6.81
238.915	7.22
239.131	0.27
239.348	1.78
239.565	6.49
239.781	12.64
239.998	13.46
240.215	14.93
240.431	11.15
240.648	7.47
240.865	10.02
241.081	7.39
241.298	7.17
241.514	10.74
241.731	11.53
241.947	11.42
242.164	12.69
242.38	12.82
242.597	12.98
242.814	13.07
243.03	15.23
243.246	14.19
243.463	15.33
243.679	14.77
243.896	15.2
244.112	15.1
244.329	15.49
244.545	11.93
244.762	11.56
244.978	12.57
245.194	14.05
245.411	12.62
245.627	13.05
245.843	11.23
246.06	10.71
246.276	9.13
246.492	9.97
246.709	8.3
246.925	9.3
247.141	9.08
247.357	8.53
247.574	8.09
247.79	7.98
248.006	7.85
248.222	8.19
248.439	9.07
248.655	9.74
248.871	9.87
249.087	10.34
249.303	10.31
249.519	10.47
249.736	12.17
249.952	13.01
250.168	13.7
250.384	14.78
250.6	15.36
250.816	15.22
251.032	14.67
251.248	13.48
251.464	13.39
251.68	12.69
251.896	12.43
252.112	11.58
252.328	10.48
252.544	11.12
252.76	11.91
252.976	11.66
253.192	11.53
253.408	12.6
253.624	12.04
253.84	14.23
254.056	15.73
254.272	15.78
254.487	16.27
254.703	18.1
254.919	17.32
255.135	15.25
255.351	16.09
255.567	15.08
255.782	13.97
255.998	16.22
256.214	11.35
256.43	10.38
256.646	8.72
256.861	6.29
257.077	5.58
257.293	6.24
257.508	5.66
257.724	5.88
257.94	7.71
258.155	8.15
258.371	7.5
258.587	8.29
258.802	7.91
259.018	8.07
259.234	9.35
259.449	9.87
259.665	10.26
259.88	10.89
260.096	10.96
260.312	11
260.527	10.92
260.743	10.77
260.958	10.74
261.174	10.35
261.389	10.97
261.605	10.59
261.82	10.36
262.036	10.36
262.251	10.02
262.466	10.63
262.682	9.77
262.897	8.42
263.113	9.15
263.328	10.54
263.543	11.4
263.759	10.43
263.974	10.53
264.189	12.05
264.405	12.35
264.62	12.16
264.835	11.28
265.051	10.16
265.266	11.99
265.481	10.9
265.696	9.14
265.912	8.14
266.127	8.73
266.342	9.34
266.557	7.39
266.773	6.14
266.988	6.28
267.203	6.16
267.418	6.96
267.633	6.62
267.848	6.01
268.064	6.21
268.279	7.7
268.494	7.92
268.709	7.3
268.924	7.47
269.139	7.24
269.354	6.71
269.569	6.71
269.784	6.09
269.999	5.61
270.214	7
270.429	6.59
270.644	5.69
270.859	5.07
271.074	4.16
271.289	4.57
271.504	5.38
271.719	5.25
271.934	5.4
272.149	5.15
272.363	4.98
272.578	4.19
272.793	4.58
273.008	6
273.223	6.63
273.438	7.92
273.653	8.99
273.867	9.12
274.082	9.64
274.297	9.48
274.512	9.24
274.726	10.35
274.941	11.2
275.156	12.79
275.371	11.18
275.585	11.83
275.8	10.78
276.015	8.75
276.229	7.42
276.444	7.64
276.659	8.16
276.873	9.3
277.088	9.02
277.302	9.35
277.517	8.15
277.732	8.53
277.946	9.35
278.161	9.61
278.375	10.53
278.59	12.42
278.804	12.15
279.019	11.27
279.233	10.94
279.448	9.95
279.662	9.29
279.877	9.08
280.091	9.61
280.306	7.47
280.52	7.23
280.735	7.42
280.949	6.02
281.163	6.39
281.378	5.63
281.592	6.38
281.806	7
282.021	7.96
282.235	7.74
282.449	7.26
282.664	7.36
282.878	7.5
283.092	8.08
283.307	9.01
283.521	8.74
283.735	9.34
283.949	8.63
284.164	7.77
284.378	7.44
284.592	6.67
284.806	7.26
285.02	7.29
285.234	7.62
285.449	6.59
285.663	6.45
285.877	6.53
286.091	7.06
286.305	7.15
286.519	7.5
286.733	6.84
286.947	7.67
287.161	7.38
287.375	8
287.589	7.87
287.803	9.13
288.017	8.91
288.231	8.57
288.445	9.19
288.659	8.67
288.873	8.7
289.087	9.4
289.301	9.29
289.515	9.8
289.729	10.2
289.943	10.29
290.157	9.99
290.371	9.95
290.584	10.55
290.798	10.31
291.012	10.35
291.226	11.09
291.44	10.22
291.654	10.87
291.867	9.94
292.081	10.01
292.295	9.59
292.509	9.3
292.722	9.55
292.936	9.32
293.15	8.17
293.364	9.21
293.577	8.89
293.791	9.34
294.005	8.45
294.218	9.03
294.432	8.4
294.645	9.54
294.859	10.08
295.073	9.6
295.286	10.08
295.5	11.08
295.713	11.02
295.927	10.52
296.14	10.34
296.354	10.61
296.568	11.4
296.781	10.92
296.994	11.1
297.208	10.37
297.421	11.42
297.635	11.6
297.848	10.94
298.062	11.17
298.275	11.74
298.489	12.23
298.702	12.19
298.915	11.87
299.129	12.53
299.342	12.15
299.555	12.36
299.769	12.39
299.982	12.21
300.195	12.54
300.409	12.41
300.622	12.19
300.835	11.39
301.048	12.71
301.262	12.34
301.475	12.28
301.688	12.01
301.901	12.53
302.115	11.42
302.328	11.82
302.541	11.75
302.754	11.95
302.967	12.51
303.18	13.75
303.393	13.27
303.607	13.05
303.82	13.2
304.033	13.06
304.246	13.57
304.459	14.32
304.672	14
304.885	15.38
305.098	14.96
305.311	14.01
305.524	13.38
305.737	12.33
305.95	11.73
306.163	11.66
306.376	12.11
306.589	11.34
306.802	10.33
307.015	10.18
307.228	9.02
307.44	8.44
307.653	9.27
307.866	9.86
308.079	9.49
308.292	9.18
308.505	9.28
308.718	9.02
308.93	8.94
309.143	8.48
309.356	8.74
309.569	7.92
309.781	9.17
309.994	8.55
310.207	8.15
310.42	8.83
310.632	8.68
310.845	8.51
311.058	8.44
311.27	8.16
311.483	9.94
311.696	9.6
311.908	10.5
312.121	9.08
312.333	10.16
312.546	10.12
312.759	9.71
312.971	11.01
313.184	11.37
313.396	11.34
313.609	11.13
313.821	9.2
314.034	9.8
314.246	9.45
314.459	10.32
314.671	9.5
314.884	10.21
315.096	10.54
315.309	9.64
315.521	9.5
315.733	9.78
315.946	10.39
316.158	10.37
316.371	9.73
316.583	9.68
316.795	9.41
317.008	9.57
317.22	8.12
317.432	8.42
317.644	8.96
317.857	8.5
318.069	7.85
318.281	8.38
318.494	9.45
318.706	8.54
318.918	8.2
319.13	7.53
319.342	7.39
319.555	7.77
319.767	7.62
319.979	7.84
320.191	7.79
320.403	7.76
320.615	7.41
320.827	6.78
321.039	7.23
321.252	6.69
321.464	7.38
321.676	5.35
321.888	6.06
322.1	6.32
322.312	5.8
322.524	5.4
322.736	5.36
322.948	6.14
323.16	6.76
323.372	6.65
323.584	7.19
323.796	7.93
324.007	9.71
324.219	9.4
324.431	8.9
324.643	9.73
324.855	9.12
325.067	10.6
325.279	10.21
325.491	10.15
325.702	10.54
325.914	10.88
326.126	10.01
326.338	8.66
326.55	8.49
326.761	8.62
326.973	8.41
327.185	9.67
327.396	8.85
327.608	8.42
327.82	8.69
328.032	8.45
328.243	7.54
328.455	7.82
328.666	8.16
328.878	8.68
329.09	8.6
329.301	9.5
329.513	8.76
329.725	8.84
329.936	9.55
330.148	8.82
330.359	9.29
330.571	10.24
330.782	9.99
330.994	10.34
331.205	10.88
331.417	11.17
331.628	10.51
331.84	10.81
332.051	10.58
332.262	9.79
332.474	11.11
332.685	10.74
332.897	10.15
333.108	9.82
333.319	10.29
333.531	9.26
333.742	9.44
333.953	9.37
334.165	10.05
334.376	10.05
334.587	10.74
334.799	10.09
335.01	10.43
335.221	11.58
335.432	12.08
335.644	12.38
335.855	12.77
336.066	12.88
336.277	13
336.488	12.06
336.7	12.02
336.911	12.61
337.122	13.42
337.333	13.29
337.544	13.05
337.755	13.32
337.966	13.2
338.177	13.24
338.388	13.36
338.599	13.25
338.811	13.8
339.022	13.82
339.233	12.6
339.444	11.63
339.655	12.61
339.866	12.19
340.076	11.64
340.287	11.62
340.498	12.15
340.709	11.8
340.92	11.66
341.131	12.04
341.342	12.88
341.553	12.87
341.764	12.48
341.975	11.81
342.185	11.72
342.396	12.17
342.607	12.38
342.818	12.01
343.029	12.4
343.239	12.99
343.45	11.8
343.661	11.04
343.872	10.93
344.082	12.3
344.293	12.13
344.504	12.05
344.714	12.21
344.925	12.19
345.136	12.09
345.346	11.68
345.557	11.02
345.768	11.84
345.978	12
346.189	12.77
346.399	11.7
346.61	11.95
346.821	12.21
347.031	11.71
347.242	11.22
347.452	11.35
347.663	11.58
347.873	11.58
348.084	11.8
348.294	11.03
348.504	10.46
348.715	10.21
348.925	9.97
349.136	10.11
349.346	10.78
349.557	10.82
349.767	10.21
349.977	9.87
350.188	9.85
350.398	9.38
350.608	10.06
350.819	10.81
351.029	10.83
351.239	11.12
351.449	11.36
351.66	11.11
351.87	11.63
352.08	12.54
352.29	12.79
352.501	12.63
352.711	12.25
352.921	11.95
353.131	11.13
353.341	11.08
353.552	10.38
353.762	9.99
353.972	9.79
354.182	10.03
354.392	10.14
354.602	9.33
354.812	9.33
355.022	10.25
355.232	10.49
355.442	10.38
355.652	10.85
355.862	10.83
356.072	10.49
356.282	10.61
356.492	9.93
356.702	9.11
356.912	9.56
357.122	9.95
357.332	9.05
357.542	8.89
357.752	9.1
357.962	9.22
358.171	9.6
358.381	9.92
358.591	10.31
358.801	10.58
359.011	10.89
359.221	11.09
359.43	10.81
359.64	11.08
359.85	11.23
360.06	11.39
360.269	11.5
360.479	11.2
360.689	10.66
360.899	10.07
361.108	9.81
361.318	9.41
361.528	9.48
361.737	9.51
361.947	9.76
362.156	9.8
362.366	9.57
362.576	9.57
362.785	9.43
362.995	10.06
363.204	10.13
363.414	9.96
363.623	10.65
363.833	9.93
364.042	10.25
364.252	10.04
364.461	9.91
364.671	9.81
364.88	9.24
365.09	9.6
365.299	9.5
365.509	9.53
365.718	9.87
365.927	10.28
366.137	10.18
366.346	9.85
366.555	10.07
366.765	9.78
366.974	9.92
367.183	9.68
367.393	9.89
367.602	9.82
367.811	10.13
368.021	9.91
368.23	9.21
368.439	9.9
368.648	9.91
368.857	10.15
369.067	10.64
369.276	11.01
369.485	11.3
369.694	10.82
369.903	10.31
370.112	10.02
370.321	10.69
370.531	10.31
370.74	9.86
370.949	9.72
371.158	9.23
371.367	8.62
371.576	8.46
371.785	8.77
371.994	9.04
372.203	9.39
372.412	9.24
372.621	8.77
372.83	8.64
373.039	8.93
373.248	8.35
373.457	8.28
373.666	8.09
373.874	7.61
374.083	7.48
374.292	7.2
374.501	7.33
374.71	7.17
374.919	6.62
375.128	7.21
375.336	7.52
375.545	8.2
375.754	8.5
375.963	9.06
376.171	9.27
376.38	9.05
376.589	9.01
376.798	8.73
377.006	8.99
377.215	9.5
377.424	8.98
377.632	8.94
377.841	9.03
378.05	8.76
378.258	8.71
378.467	8.77
378.675	8.87
378.884	8.66
379.093	8.5
379.301	8.58
379.51	8.57
379.718	8.85
379.927	8.67
380.135	8.12
380.344	8.32
380.552	7.81
380.761	7.68
380.969	7.57
381.177	7.66
381.386	7.88
381.594	7.85
381.803	7.59
382.011	7.23
382.219	7.28
382.428	7.39
382.636	7.5
382.845	8.11
383.053	8.32
383.261	8.7
383.469	8.57
383.678	8.26
383.886	8.05
384.094	7.91
384.302	7.67
384.511	7.72
384.719	7.79
384.927	7.66
385.135	7.61
385.343	7.59
385.552	7.42
385.76	7.89
385.968	8.13
386.176	8.15
386.384	8.41
386.592	8.8
386.8	8.25
387.008	8.39
387.216	8.35
387.424	8.22
387.633	7.66
387.841	7.38
388.049	6.91
388.257	6.89
388.465	7.1
388.672	6.96
388.88	6.78
389.088	7.11
389.296	7.09
389.504	6.66
389.712	6.54
389.92	6.95
390.128	7.12
390.336	7.37
390.544	7.12
390.751	7.39
390.959	7.62
391.167	7.63
391.375	7.58
391.583	7.56
391.79	7.61
391.998	7.67
392.206	7.71
392.414	7.22
392.621	7.17
392.829	7.35
393.037	6.78
393.244	6.39
393.452	6.48
393.66	6.61
393.867	6.73
394.075	7.33
394.283	7.22
394.49	7.03
394.698	7.55
394.905	7.64
395.113	7.65
395.32	7.94
395.528	8.15
395.735	8.07
395.943	7.99
396.15	7.65
396.358	6.82
396.565	6.77
396.773	6.87
396.98	6.6
397.188	6.32
397.395	6.05
397.602	6.07
397.81	6.03
398.017	6.01
398.225	6.14
398.432	6.19
398.639	6.84
398.847	6.84
399.054	6.84
399.261	7.1
399.468	7.55
399.676	7.98
399.883	7.82
400.09	7.82
400.297	8.04
400.505	7.94
400.712	7.98
400.919	7.54
401.126	7.87
401.333	7.91
401.54	8.01
401.748	7.59
401.955	7.27
402.162	7.22
402.369	7.3
402.576	7.02
402.783	6.9
402.99	6.85
403.197	7.22
403.404	7.2
403.611	7.3
403.818	6.96
404.025	6.82
404.232	6.68
404.439	6.62
404.646	6.51
404.853	6.7
405.06	6.65
405.267	6.94
405.474	6.8
405.681	6.74
405.887	6.61
406.094	6.88
406.301	7.1
406.508	7.02
406.715	6.86
406.922	6.69
407.128	6.72
407.335	6.7
407.542	6.4
407.749	6.29
407.955	6.01
408.162	6.18
408.369	6.13
408.575	6.01
408.782	6.51
408.989	6.57
409.195	6.72
409.402	6.69
409.609	6.79
409.815	6.63
410.022	6.85
410.228	7.07
410.435	6.74
410.642	6.49
410.848	6.77
411.055	6.51
411.261	6.24
411.468	6.22
411.674	5.94
411.881	5.81
412.087	5.83
412.294	5.7
412.5	5.58
412.706	5.41
412.913	5.52
413.119	5.25
413.326	5.53
413.532	5.86
413.738	5.98
413.945	6.3
414.151	6.34
414.357	6.43
414.564	6.73
414.77	6.99
414.976	7.21
415.182	7.11
415.389	7.3
415.595	7.22
415.801	7.31
416.007	7.27
416.214	7.01
416.42	7.06
416.626	7.14
416.832	6.65
417.038	6.5
417.244	6.59
417.45	6.91
417.657	6.76
417.863	6.69
418.069	6.91
418.275	7
418.481	7.18
418.687	7.13
418.893	6.97
419.099	7.05
419.305	7.02
419.511	7.08
419.717	6.82
419.923	6.91
420.129	6.95
420.335	6.71
420.541	6.63
420.746	6.36
420.952	6.36
421.158	6.4
421.364	6.48
421.57	6.51
421.776	6.51
421.982	6.57
422.187	6.55
422.393	6.46
422.599	6.38
422.805	6.41
423.01	6.63
423.216	6.66
423.422	6.72
423.628	6.71
423.833	6.68
424.039	6.59
424.245	6.58
424.45	6.6
424.656	6.61
424.862	6.84
425.067	6.75
425.273	6.57
425.478	6.58
425.684	6.57
425.889	6.57
426.095	6.64
426.301	6.72
426.506	6.64
426.712	6.51
426.917	6.47
427.123	6.34
427.328	6.3
427.533	6.45
427.739	6.5
427.944	6.6
428.15	6.6
428.355	6.55
428.561	6.51
428.766	6.52
428.971	6.58
429.177	6.74
429.382	6.93
429.587	7.11
429.793	7.27
429.998	7.44
430.203	7.26
430.408	7.22
430.614	7.06
430.819	6.96
431.024	7.07
431.229	6.98
431.434	6.82
431.64	6.53
431.845	6.4
432.05	6.2
432.255	6.11
432.46	6.05
432.665	5.78
432.87	5.78
433.076	5.83
433.281	5.78
433.486	5.86
433.691	5.91
433.896	5.98
434.101	5.92
434.306	5.93
434.511	5.81
434.716	5.78
434.921	5.88
435.126	6.04
435.331	6.05
435.535	6.09
435.74	5.92
435.945	5.87
436.15	5.87
436.355	6.11
436.56	6.09
436.765	6.21
436.97	6.3
437.174	6.47
437.379	6.47
437.584	6.46
437.789	6.52
437.993	6.6
438.198	6.69
438.403	6.7
438.608	6.65
438.812	6.6
439.017	6.57
439.222	6.8
439.426	6.74
439.631	6.82
439.836	6.79
440.04	6.75
440.245	6.78
440.45	6.71
440.654	6.6
440.859	6.51
441.063	6.56
441.268	6.56
441.472	6.43
441.677	6.53
441.881	6.47
442.086	6.39
442.29	6.5
442.495	6.56
442.699	6.61
442.904	6.71
443.108	6.71
443.312	6.8
443.517	6.78
443.721	6.82
443.925	6.63
444.13	6.44
444.334	6.58
444.538	6.35
444.743	6.31
444.947	6.23
445.151	6.28
445.356	6.3
445.56	6.39
445.764	6.32
445.968	6.27
446.173	6.36
446.377	6.47
446.581	6.47
446.785	6.45
446.989	6.38
447.193	6.44
447.398	6.36
447.602	6.36
447.806	6.19
448.01	6.24
448.214	6.3
448.418	6.25
448.622	6.23
448.826	6.14
449.03	6.19
449.234	6.25
449.438	6.22
449.642	6.14
449.846	6.16
450.05	6.28
450.254	6.34
450.458	6.05
450.662	6.26
450.866	6.24
451.069	6.29
451.273	6.33
451.477	6.16
451.681	6.16
451.885	6.23
452.089	6.17
452.292	6.18
452.496	6.11
452.7	6.33
452.904	6.08
453.107	6.02
453.311	5.94
453.515	5.76
453.719	5.95
453.922	6.01
454.126	5.97
454.33	5.98
454.533	5.9
454.737	5.73
454.94	5.64
455.144	5.75
455.348	5.78
455.551	5.81
455.755	6.07
455.958	6.12
456.162	6.11
456.365	6.22
456.569	6.35
456.772	6.28
456.976	6.37
457.179	6.38
457.383	6.29
457.586	6.31
457.79	6.4
457.993	6.35
458.196	6.31
458.4	6.24
458.603	6.2
458.807	6.15
459.01	6.33
459.213	6.49
459.417	6.63
459.62	6.61
459.823	6.48
460.026	6.53
460.23	6.5
460.433	6.52
460.636	6.53
460.839	6.59
461.042	6.72
461.246	6.56
461.449	6.48
461.652	6.33
461.855	6.27
462.058	6.34
462.261	6.08
462.464	6.01
462.668	6
462.871	6.14
463.074	5.97
463.277	5.93
463.48	5.99
463.683	5.91
463.886	5.9
464.089	5.91
464.292	5.95
464.495	6.06
464.698	6.29
464.901	6.24
465.104	6.21
465.306	6.36
465.509	6.14
465.712	6.14
465.915	6.14
466.118	6.28
466.321	6.33
466.524	6.3
466.726	6.39
466.929	6.18
467.132	6.2
467.335	6.15
467.538	6.13
467.74	6.16
467.943	6.33
468.146	6.4
468.348	6.35
468.551	6.48
468.754	6.58
468.956	6.48
469.159	6.55
469.362	6.45
469.564	6.48
469.767	6.44
469.969	6.53
470.172	6.47
470.375	6.5
470.577	6.51
470.78	6.22
470.982	6.12
471.185	6.13
471.387	6.18
471.59	6.13
471.792	6.08
471.995	6.06
472.197	5.95
472.399	5.91
472.602	5.76
472.804	5.71
473.007	5.82
473.209	5.86
473.411	5.83
473.614	5.77
473.816	5.83
474.018	5.81
474.22	5.87
474.423	6.03
474.625	5.9
474.827	5.97
475.03	6.01
475.232	6.24
475.434	6.25
475.636	6.33
475.838	6.36
476.04	6.39
476.243	6.36
476.445	6.34
476.647	6.23
476.849	6.27
477.051	6.15
477.253	6.12
477.455	5.98
477.657	5.85
477.859	5.95
478.061	5.79
478.263	5.83
478.465	5.74
478.667	5.78
478.869	5.8
479.071	5.78
479.273	5.82
479.475	5.87
479.677	5.7
479.879	5.87
480.081	5.8
480.283	5.95
480.485	5.97
480.686	6.19
480.888	6.13
481.09	6.14
481.292	6.2
481.494	6.19
481.695	6.1
481.897	6.21
482.099	6.21
482.301	6.18
482.502	6.19
482.704	6.17
482.906	6.11
483.107	6.1
483.309	6.07
483.511	6.06
483.712	6.01
483.914	6.04
484.115	6.04
484.317	6
484.519	5.98
484.72	5.94
484.922	5.93
485.123	5.88
485.325	5.88
485.526	5.87
485.728	5.87
485.929	5.97
486.131	5.94
486.332	5.93
486.534	5.91
486.735	5.89
486.936	5.92
487.138	5.94
487.339	6
487.541	6.02
487.742	6.06
487.943	6.07
488.144	6
488.346	6.04
488.547	6
488.748	6.01
488.95	6.03
489.151	6.03
489.352	5.92
489.553	5.86
489.755	5.85
489.956	5.81
490.157	5.75
490.358	5.83
490.559	5.74
490.76	5.85
490.961	5.92
491.163	5.96
491.364	5.93
491.565	6.04
491.766	6.04
491.967	6.05
492.168	6.03
492.369	6.01
492.57	5.99
492.771	6
492.972	5.93
493.173	5.86
493.374	5.77
493.575	5.73
493.776	5.61
493.976	5.65
494.177	5.61
494.378	5.69
494.579	5.81
494.78	5.74
494.981	5.81
495.182	5.79
495.382	5.95
495.583	5.98
495.784	6.04
495.985	6.21
496.185	6.31
496.386	6.23
496.587	6.04
496.788	6.09
496.988	6.06
497.189	6.12
497.39	6.21
497.59	6.16
497.791	6.28
497.992	6.32
498.192	6.29
498.393	6.25
498.593	6.47
498.794	6.66
498.994	6.58
499.195	6.59
499.395	6.63
499.596	6.61
499.796	6.71
499.997	6.6
500.197	6.74
500.398	6.57
500.598	6.49
500.799	6.3
500.999	6.35
501.199	6.38
501.4	6.42
501.6	6.39
501.801	6.53
502.001	6.41
502.201	6.53
502.402	6.42
502.602	6.49
502.802	6.57
503.002	6.69
503.203	6.72
503.403	6.75
503.603	6.77
503.803	6.74
504.003	6.64
504.204	6.63
504.404	6.67
504.604	6.63
504.804	6.85
505.004	6.76
505.204	6.79
505.404	6.63
505.604	6.55
505.804	6.54
506.005	6.52
506.205	6.56
506.405	6.55
506.605	6.52
506.805	6.51
507.005	6.42
507.204	6.55
507.404	6.48
507.604	6.55
507.804	6.49
508.004	6.62
508.204	6.77
508.404	6.72
508.604	6.78
508.804	6.83
509.003	6.99
509.203	7.06
509.403	7.05
509.603	7.07
509.803	7.06
510.002	7.23
510.202	7.2
510.402	7.09
510.602	6.99
510.801	6.91
511.001	6.86
511.201	6.7
511.4	6.68
511.6	6.68
511.8	6.72
511.999	6.79
512.199	6.8
512.398	6.71
512.598	6.83
512.797	7.01
512.997	7.01
513.197	6.97
513.396	7.22
513.596	7.16
513.795	7.23
513.994	7.27
514.194	7.19
514.393	7.21
514.593	7.44
514.792	7.4
514.992	7.33
515.191	7.41
515.39	7.57
515.59	7.46
515.789	7.45
515.988	7.44
516.188	7.43
516.387	7.5
516.586	7.47
516.786	7.38
516.985	7.26
517.184	7.34
517.383	7.42
517.582	7.36
517.782	7.37
517.981	7.47
518.18	7.38
518.379	7.34
518.578	7.35
518.777	7.29
518.976	7.35
519.176	7.38
519.375	7.37
519.574	7.29
519.773	7.34
519.972	7.33
520.171	7.33
520.37	7.36
520.569	7.47
520.768	7.57
520.967	7.7
521.166	7.67
521.365	7.77
521.564	7.88
521.762	8.01
521.961	8.01
522.16	8.11
522.359	8.15
522.558	8.25
522.757	8.16
522.956	8.27
523.154	8.39
523.353	8.45
523.552	8.58
523.751	8.63
523.949	8.66
524.148	8.66
524.347	8.59
524.546	8.61
524.744	8.61
524.943	8.68
525.142	8.59
525.34	8.49
525.539	8.55
525.737	8.51
525.936	8.63
526.135	8.75
526.333	8.73
526.532	8.84
526.73	8.91
526.929	8.97
527.127	9.02
527.326	9.03
527.524	9.05
527.723	9.01
527.921	8.99
528.12	8.88
528.318	8.77
528.516	8.86
528.715	8.89
528.913	8.88
529.112	8.92
529.31	8.91
529.508	8.91
529.707	8.95
529.905	8.98
530.103	9.05
530.301	9.15
530.5	9.24
530.698	9.19
530.896	9.2
531.094	9.16
531.293	9.21
531.491	9.24
531.689	9.25
531.887	9.32
532.085	9.4
532.283	9.45
532.481	9.39
532.68	9.49
532.878	9.59
533.076	9.62
533.274	9.71
533.472	9.76
533.67	9.72
533.868	9.8
534.066	9.84
534.264	9.86
534.462	9.86
534.66	9.89
534.858	9.8
535.056	9.83
535.253	9.77
535.451	9.85
535.649	9.78
535.847	9.99
536.045	10.05
536.243	10.07
536.441	10.08
536.638	10.19
536.836	10.32
537.034	10.33
537.232	10.32
537.43	10.42
537.627	10.38
537.825	10.48
538.023	10.42
538.22	10.44
538.418	10.42
538.616	10.51
538.813	10.52
539.011	10.58
539.209	10.72
539.406	10.84
539.604	10.96
539.801	11.11
539.999	11.26
540.196	11.37
540.394	11.42
540.591	11.52
540.789	11.53
540.986	11.51
541.184	11.56
541.381	11.64
541.579	11.68
541.776	11.66
541.974	11.67
542.171	11.65
542.368	11.69
542.566	11.76
542.763	11.75
542.96	11.85
543.158	11.89
543.355	11.94
543.552	12.1
543.75	12.2
543.947	12.37
544.144	12.5
544.341	12.56
544.539	12.56
544.736	12.63
544.933	12.72
545.13	12.69
545.327	12.8
545.524	12.81
545.722	12.77
545.919	12.82
546.116	12.82
546.313	12.96
546.51	13.06
546.707	13.24
546.904	13.27
547.101	13.45
547.298	13.57
547.495	13.67
547.692	13.64
547.889	13.77
548.086	13.79
548.283	13.89
548.48	13.88
548.677	13.94
548.874	14.04
549.07	14.18
549.267	14.21
549.464	14.31
549.661	14.19
549.858	14.45
550.055	14.47
550.251	14.5
550.448	14.39
550.645	14.49
550.842	14.43
551.038	14.31
551.235	14.57
551.432	14.7
551.628	14.68
551.825	14.89
552.022	14.9
552.218	14.97
552.415	15.12
552.612	15.36
552.808	15.41
553.005	15.46
553.201	15.55
553.398	15.43
553.594	15.33
553.791	15.61
553.987	15.66
554.184	15.75
554.38	15.93
554.577	16.03
554.773	16.02
554.97	16.17
555.166	16.47
555.362	16.68
555.559	16.65
555.755	16.79
555.952	16.79
556.148	17.07
556.344	17.25
556.541	17.1
556.737	17.05
556.933	17.19
557.129	17.26
557.326	17.39
557.522	17.5
557.718	17.81
557.914	17.82
558.11	17.82
558.307	17.79
558.503	17.91
558.699	18.07
558.895	18.22
559.091	18.43
559.287	18.51
559.483	18.32
559.679	18.44
559.876	18.83
560.072	18.99
560.268	19.06
560.464	19.36
560.66	19.35
560.856	19.64
561.052	19.89
561.247	20.06
561.443	20.06
561.639	20.38
561.835	20.45
562.031	20.28
562.227	20.45
562.423	20.67
562.619	20.71
562.815	20.97
563.01	20.72
563.206	20.78
563.402	20.69
563.598	20.72
563.793	20.73
563.989	20.82
564.185	20.89
564.381	21.1
564.576	21.31
564.772	21.34
564.968	21.46
565.163	21.79
565.359	21.89
565.555	21.93
565.75	22.12
565.946	22.22
566.141	22.29
566.337	22.31
566.532	22.24
566.728	22.2
566.923	22.22
567.119	22.08
567.314	22.05
567.51	22.01
567.705	22.32
567.901	22.34
568.096	22.38
568.292	22.46
568.487	22.58
568.682	22.58
568.878	22.63
569.073	22.65
569.268	22.85
569.464	22.74
569.659	23.1
569.854	23.02
570.05	23.25
570.245	23.43
570.44	23.46
570.635	23.51
570.831	23.63
571.026	23.87
571.221	24.06
571.416	24.21
571.611	24.61
571.806	24.44
572.002	24.6
572.197	24.57
572.392	24.57
572.587	24.54
572.782	24.67
572.977	24.89
573.172	24.76
573.367	24.95
573.562	25.05
573.757	24.91
573.952	25.08
574.147	25.13
574.342	25.32
574.537	25.55
574.732	25.73
574.927	25.87
575.121	25.93
575.316	26.19
575.511	26.28
575.706	26.28
575.901	26.44
576.096	26.57
576.29	26.71
576.485	26.7
576.68	26.68
576.875	26.75
577.069	26.7
577.264	26.79
577.459	26.85
577.654	26.82
577.848	26.85
578.043	26.95
578.238	26.87
578.432	26.75
578.627	26.81
578.821	26.82
579.016	27.02
579.21	27.11
579.405	26.92
579.6	26.88
579.794	27.12
579.989	27.18
580.183	27.3
580.378	27.52
580.572	27.53
580.766	27.75
580.961	27.82
581.155	27.85
581.35	28.13
581.544	28.27
581.738	28.37
581.933	28.15
582.127	28.22
582.321	28.3
582.516	28.49
582.71	28.46
582.904	28.52
583.099	28.7
583.293	28.74
583.487	28.61
583.681	28.62
583.875	28.63
584.07	28.69
584.264	28.59
584.458	28.83
584.652	28.79
584.846	29.02
585.04	28.73
585.234	28.67
585.428	28.71
585.623	28.88
585.817	29.15
586.011	29.22
586.205	29.46
586.399	29.69
586.593	29.75
586.787	29.73
586.981	29.81
587.174	30.22
587.368	30.26
587.562	30.29
587.756	30.19
587.95	30.18
588.144	30.14
588.338	29.88
588.532	29.95
588.725	29.69
588.919	29.66
589.113	29.83
589.307	29.65
589.501	29.63
589.694	29.73
589.888	29.9
590.082	29.97
590.275	30.05
590.469	30.2
590.663	30.18
590.856	30.45
591.05	30.33
591.244	30.39
591.437	30.54
591.631	30.54
591.824	30.69
592.018	30.75
592.212	30.69
592.405	30.72
592.599	30.7
592.792	30.83
592.986	30.75
593.179	30.95
593.372	30.8
593.566	30.7
593.759	30.83
593.953	30.64
594.146	30.58
594.339	30.62
594.533	30.65
594.726	30.75
594.92	30.69
595.113	30.78
595.306	30.98
595.499	31.13
595.693	31.06
595.886	31.03
596.079	31.18
596.272	31.22
596.466	31.33
596.659	31.48
596.852	31.62
597.045	31.66
597.238	31.61
597.431	31.69
597.624	31.78
597.818	31.99
598.011	32.21
598.204	32.18
598.397	32.24
598.59	32.22
598.783	32.24
598.976	32.14
599.169	32.45
599.362	32.67
599.555	32.59
599.748	32.67
599.941	32.72
600.134	32.68
600.326	32.72
600.519	32.94
600.712	33.25
600.905	33.21
601.098	33.17
601.291	33
601.483	32.78
601.676	32.59
601.869	32.42
602.062	32.35
602.255	32.36
602.447	32.58
602.64	32.56
602.833	32.38
603.025	32.49
603.218	32.84
603.411	32.96
603.603	33.02
603.796	33.13
603.989	33.12
604.181	33.27
604.374	33.37
604.566	33.43
604.759	33.18
604.951	33.1
605.144	32.99
605.336	32.95
605.529	32.86
605.721	32.94
605.914	33.09
606.106	33.09
606.299	33.13
606.491	32.94
606.683	32.86
606.876	33.21
607.068	33.49
607.26	33.51
607.453	33.47
607.645	33.42
607.837	33.45
608.03	33.22
608.222	33.4
608.414	33.44
608.606	33.63
608.799	33.62
608.991	33.47
609.183	33.22
609.375	33.4
609.567	33.37
609.759	33.74
609.952	33.98
610.144	34.23
610.336	34.36
610.528	34.3
610.72	34.26
610.912	34.3
611.104	34.46
611.296	34.65
611.488	34.71
611.68	34.66
611.872	34.35
612.064	34
612.256	34.04
612.448	33.87
612.64	33.97
612.832	33.91
613.023	33.91
613.215	33.78
613.407	34.06
613.599	34.18
613.791	34.51
613.983	34.43
614.174	34.55
614.366	34.52
614.558	34.71
614.75	34.64
614.941	35.05
615.133	35.22
615.325	35.43
615.516	35.23
615.708	35.08
615.9	34.84
616.091	35.13
616.283	34.91
616.475	34.96
616.666	34.62
616.858	34.64
617.049	34.55
617.241	34.39
617.432	34.16
617.624	34.41
617.815	34.43
618.007	34.52
618.198	34.49
618.39	34.8
618.581	35.09
618.773	35.31
618.964	35.28
619.155	35.1
619.347	35.16
619.538	35.21
619.729	34.97
619.921	35.08
620.112	35.24
620.303	35.19
620.494	35.13
620.686	34.79
620.877	35
621.068	35.26
621.259	35.44
621.451	35.58
621.642	35.77
621.833	35.75
622.024	35.81
622.215	35.81
622.406	35.98
622.597	35.97
622.788	36.05
622.98	36.18
623.171	36.07
623.362	36.02
623.553	36.11
623.744	36.27
623.935	36.23
624.126	36.37
624.317	36.21
624.508	35.99
624.698	36.2
624.889	36.14
625.08	36.08
625.271	36.3
625.462	36.34
625.653	36.27
625.844	35.95
626.034	35.73
626.225	35.58
626.416	35.75
626.607	35.77
626.798	35.79
626.988	36.08
627.179	36.12
627.37	36.2
627.56	36.11
627.751	36.25
627.942	36.52
628.132	36.87
628.323	37.07
628.514	37.24
628.704	37.41
628.895	37.5
629.085	37.38
629.276	37.2
629.466	36.85
629.657	36.95
629.847	36.68
630.038	36.57
630.228	36.48
630.419	36.44
630.609	36.29
630.8	36.27
630.99	36.21
631.181	36.14
631.371	36.2
631.561	36.63
631.752	36.73
631.942	36.86
632.132	36.87
632.323	37.1
632.513	37.16
632.703	37.42
632.893	37.44
633.084	37.25
633.274	37.23
633.464	37.3
633.654	37.07
633.844	37.1
634.034	37.15
634.225	37.35
634.415	37.32
634.605	37.29
634.795	37.11
634.985	37.21
635.175	37.32
635.365	37.5
635.555	37.62
635.745	37.83
635.935	38.03
636.125	37.83
636.315	37.78
636.505	37.84
636.695	37.95
636.885	37.78
637.075	37.69
637.265	37.52
637.455	37.34
637.644	37.43
637.834	37.17
638.024	36.79
638.214	36.88
638.404	36.49
638.593	36.25
638.783	36.22
638.973	36.47
639.163	36.48
639.352	36.46
639.542	36.59
639.732	36.29
639.921	36.33
640.111	36.61
640.301	36.71
640.49	36.95
640.68	37.36
640.87	37.21
641.059	36.92
641.249	36.94
641.438	37.05
641.628	36.72
641.817	36.94
642.007	36.79
642.196	36.75
642.386	36.75
642.575	36.83
642.764	36.63
642.954	36.81
643.143	36.99
643.333	37.14
643.522	37.34
643.711	37.67
643.901	37.96
644.09	38.59
644.279	38.59
644.469	38.68
644.658	38.94
644.847	39.47
645.036	39.35
645.226	39.07
645.415	39.06
645.604	39.13
645.793	39.02
645.982	38.35
646.171	38.03
646.361	38.01
646.55	38.32
646.739	38.57
646.928	38.12
647.117	38.34
647.306	38.68
647.495	38.62
647.684	38.78
647.873	38.95
648.062	39.26
648.251	39.58
648.44	39.67
648.629	39.84
648.818	39.54
649.007	39.6
649.196	39.59
649.384	39.54
649.573	39.75
649.762	39.87
649.951	39.95
650.14	39.78
650.328	39.76
650.517	39.84
650.706	39.53
650.895	39.49
651.083	39.52
651.272	39.48
651.461	39.74
651.65	39.89
651.838	39.94
652.027	39.72
652.216	39.69
652.404	39.66
652.593	39.53
652.781	39.54
652.97	39.36
653.158	39.53
653.347	39.39
653.535	39.18
653.724	38.81
653.912	38.48
654.101	38.76
654.289	39.01
654.478	38.72
654.666	38.87
654.855	38.95
655.043	39.2
655.231	39.05
655.42	39.27
655.608	39.37
655.796	39.52
655.985	39.83
656.173	39.77
656.361	39.75
656.55	39.69
656.738	39.66
656.926	39.81
657.114	39.57
657.302	39.61
657.491	39.68
657.679	40.09
657.867	40.04
658.055	40.17
658.243	39.92
658.431	40.14
658.619	40.17
658.807	40.56
658.996	40.78
659.184	40.85
659.372	41.04
659.56	40.93
659.748	40.61
659.936	40.68
660.124	40.72
660.311	40.9
660.499	40.75
660.687	40.9
660.875	40.68
661.063	40.21
661.251	40.15
661.439	40.04
661.627	40.27
661.814	40.14
662.002	40.24
662.19	39.89
662.378	39.93
662.565	40.01
662.753	39.86
662.941	39.79
663.129	39.91
663.316	40.2
663.504	39.66
663.692	39.36
663.879	39.75
664.067	40.03
664.254	40.29
664.442	40.5
664.63	40.29
664.817	40.26
665.005	40.14
665.192	40.14
665.38	40.1
665.567	40.46
665.755	40.66
665.942	40.45
666.13	39.82
666.317	39.81
666.504	39.78
666.692	40.01
666.879	40.16
667.067	40.26
667.254	39.97
667.441	40.53
667.629	40.45
667.816	40.17
668.003	40.39
668.19	40.74
668.378	40.58
668.565	40.5
668.752	40.69
668.939	40.66
669.127	40.8
669.314	40.8
669.501	40.41
669.688	40.77
669.875	40.97
670.062	40.78
670.249	40.71
670.436	41.07
670.623	40.85
670.81	40.52
670.997	40.47
671.184	40.19
671.371	40.61
671.558	40.69
671.745	40.53
671.932	40.61
672.119	40.79
672.306	40.87
672.493	40.38
672.68	40.95
672.867	40.99
673.054	41.41
673.24	41.79
673.427	41.76
673.614	41.92
673.801	41.87
673.988	41.67
674.174	41.65
674.361	41.54
674.548	41.56
674.734	41.46
674.921	41.64
675.108	41.43
675.294	41.42
675.481	41.32
675.668	41.03
675.854	41.29
676.041	41.42
676.227	41.3
676.414	41.24
676.601	41.6
676.787	41.73
676.974	41.42
677.16	41.95
677.347	41.65
677.533	41.66
677.719	41.58
677.906	41.85
678.092	41.8
678.279	42.01
678.465	42.23
678.651	42.25
678.838	41.88
679.024	41.8
679.21	41.61
679.397	41.98
679.583	41.94
679.769	42.1
679.955	42.08
680.142	41.98
680.328	41.91
680.514	42.05
680.7	41.38
680.886	41.78
681.073	42.25
681.259	42.23
681.445	42.02
681.631	42.15
681.817	42.05
682.003	41.57
682.189	41.6
682.375	41.46
682.561	41.18
682.747	42.1
682.933	41.88
683.119	41.68
683.305	41.54
683.491	41.54
683.677	41.49
683.863	41.59
684.049	42
684.235	42.29
684.42	42.62
684.606	42.44
684.792	42.2
684.978	42.59
685.164	42.49
685.349	42.44
685.535	42.52
685.721	42.53
685.907	42.34
686.092	42.57
686.278	42.51
686.464	42.07
686.649	42.07
686.835	42.08
687.021	41.26
687.206	41.54
687.392	41.42
687.577	41.24
687.763	41.23
687.948	41.43
688.134	41.35
688.319	41.59
688.505	41.91
688.69	42.54
688.876	42.72
689.061	42.92
689.247	42.49
689.432	42.79
689.618	42.98
689.803	43.1
689.988	42.88
690.174	42.83
690.359	42.68
690.544	42.53
690.73	42.1
690.915	41.82
691.1	41.8
691.285	42.44
691.471	42.39
691.656	42.85
691.841	42.76
692.026	42.74
692.211	42.67
692.396	42.76
692.582	43.13
692.767	43.1
692.952	42.84
693.137	43.1
693.322	42.53
693.507	42.74
693.692	42.23
693.877	42.85
694.062	43.13
694.247	43.32
694.432	43.42
694.617	43.05
694.802	43.57
694.987	43.83
695.172	43.62
695.357	44.52
695.541	44.39
695.726	44.69
695.911	44.33
696.096	44.49
696.281	43.69
696.466	43.55
696.65	43.52
696.835	43.37
697.02	43.52
697.204	43.81
697.389	43.34
697.574	43.16
697.759	42.82
697.943	42.62
698.128	42.66
698.312	42.97
698.497	42.76
698.682	43.15
698.866	43.4
699.051	43.83
699.235	43.73
699.42	43.88
699.604	44.21
699.789	44.57
699.973	44.9
700.158	44.83
700.342	45.03
700.527	45.34
700.711	44.95
700.895	44.85
701.08	44.34
701.264	44.21
701.448	43.95
701.633	43.37
701.817	43.01
702.001	42.74
702.186	42.76
702.37	41.97
702.554	41.74
702.738	41.92
702.923	41.59
703.107	41.95
703.291	42.62
703.475	42.75
703.659	43
703.843	43.09
704.027	42.98
704.212	43.04
704.396	43.9
704.58	44.35
704.764	44.13
704.948	44.15
705.132	43.35
705.316	43.07
705.5	43.52
705.684	44.34
705.868	44.3
706.052	44.21
706.235	44.52
706.419	44.39
706.603	44.49
706.787	44.61
706.971	44.92
707.155	45.4
707.339	45.13
707.522	44.56
707.706	44.15
707.89	44.28
708.074	44.52
708.257	44.14
708.441	44.32
708.625	44.4
708.808	44.55
708.992	44.18
709.176	43.79
709.359	44.05
709.543	43.9
709.727	43.42
709.91	43.75
710.094	43.48
710.277	43.52
710.461	43.46
710.644	43.37
710.828	43.3
711.011	43.36
711.195	43.47
711.378	43.97
711.562	44.38
711.745	44.91
711.928	44.61
712.112	44.99
712.295	45.09
712.478	45.8
712.662	45.46
712.845	45.11
713.028	45.34
713.212	45.22
713.395	45.1
713.578	45.1
713.761	45.19
713.945	45.48
714.128	45.5
714.311	45.59
714.494	45.02
714.677	44.9
714.86	45.43
715.043	45.49
715.227	46.14
715.41	45.25
715.593	44.93
715.776	45.17
715.959	44.79
716.142	44.8
716.325	44.78
716.508	44.36
716.691	45.3
716.874	45.02
717.057	45.23
717.239	44.87
717.422	45.75
717.605	46.29
717.788	45.59
717.971	45.98
718.154	45.71
718.337	45.64
718.519	45.8
718.702	45.21
718.885	45.5
719.068	45.45
719.25	45.15
719.433	45.06
719.616	44.73
719.798	44.84
719.981	44.71
720.164	44.38
720.346	44.43
720.529	43.87
720.712	43.84
720.894	44.05
721.077	44.17
721.259	44.08
721.442	44.01
721.624	43.77
721.807	43.82
721.989	43.75
722.172	44.71
722.354	44.44
722.537	44.74
722.719	45.1
722.901	45.42
723.084	45.21
723.266	45.57
723.448	46.09
723.631	46.04
723.813	46.58
723.995	46.43
724.178	45.85
724.36	45.91
724.542	46.21
724.724	45.56
724.907	45.06
725.089	44.17
725.271	44.36
725.453	44.25
725.635	44.93
725.817	44.14
725.999	44.37
726.181	44.36
726.364	44.31
726.546	44.34
726.728	44.35
726.91	44.23
727.092	45.59
727.274	45.97
727.456	45.88
727.638	45.75
727.819	46.37
728.001	46.36
728.183	47.19
728.365	47.87
728.547	47.96
728.729	48.16
728.911	48.19
729.093	47.09
729.274	46.5
729.456	46.09
729.638	46.02
729.82	45.43
730.001	44.68
730.183	43.84
730.365	44.23
730.546	43.67
730.728	44.44
730.91	44.71
731.091	44.89
731.273	45.92
731.455	45.47
731.636	46.18
731.818	46.41
731.999	47.52
732.181	47.33
732.362	46.81
732.544	47.86
732.725	47.19
732.907	46.24
733.088	46.98
733.27	45.74
733.451	46.35
733.633	45.73
733.814	45.82
733.995	45.29
734.177	45.69
734.358	44.92
734.539	44.26
734.721	44.3
734.902	45.89
735.083	44.71
735.264	45.45
735.446	45.72
735.627	45.5
735.808	44.92
735.989	44.46
736.17	44.94
736.351	45.62
736.533	46.2
736.714	45.62
736.895	44.32
737.076	45.11
737.257	44.77
737.438	44.16
737.619	44.29
737.8	44.88
737.981	46.37
738.162	45.72
738.343	46.47
738.524	46.09
738.705	46.4
738.886	47.01
739.067	46.77
739.247	46.49
739.428	46.25
739.609	46.2
739.79	45.9
739.971	44.75
740.151	44.99
740.332	44.56
740.513	44.05
740.694	44.31
740.874	44.11
741.055	44.42
741.236	45.06
741.417	45.83
741.597	46.16
741.778	46.76
741.958	47.09
742.139	46.66
742.32	45.27
742.5	45.95
742.681	45.37
742.861	44.73
743.042	45.69
743.222	45.65
743.403	44.39
743.583	44.64
743.764	43.25
743.944	43.86
744.124	43.96
744.305	45.39
744.485	45.44
744.666	46.24
744.846	46.09
745.026	45.33
745.207	44.83
745.387	46.11
745.567	45.19
745.747	46.11
745.928	46.43
746.108	47.18
746.288	47
746.468	46.26
746.648	45.99
746.829	46.91
747.009	46.56
747.189	47.12
747.369	46.89
747.549	47.45
747.729	46.99
747.909	46.23
748.089	45.73
748.269	45.09
748.449	45.85
748.629	45.82
748.809	45.89
748.989	45.95
749.169	45.63
749.349	44.7
749.529	44.26
749.709	44.52
749.889	44.27
750.068	44.69
750.248	44.98
750.428	45.57
750.608	45.41
750.788	45.84
750.967	45.83
751.147	46.66
751.327	47.74
751.507	47.93
751.686	47.85
751.866	48.6
752.046	48.65
752.225	48.67
752.405	47.69
752.585	47.85
752.764	47.25
752.944	47.27
753.123	46.64
753.303	46.37
753.482	46.68
753.662	47.33
753.841	46.63
754.021	46.4
754.2	46.57
754.38	47.52
754.559	47.62
754.739	46.87
754.918	46.36
755.097	45.7
755.277	46.31
755.456	46.27
755.635	45.91
755.815	46.18
755.994	45.88
756.173	45.42
756.352	45.35
756.532	45.3
756.711	45.72
756.89	46.89
757.069	47.89
757.248	47.08
757.427	47.14
757.607	47.5
757.786	47.56
757.965	47.98
758.144	47.87
758.323	46.91
758.502	47.48
758.681	47.27
758.86	46.97
759.039	46.46
759.218	46.25
759.397	45.98
759.576	46
759.755	46.55
759.934	46.33
760.113	47.45
760.291	47.46
760.47	47.23
760.649	47.58
760.828	47.06
761.007	47.83
761.186	48.3
761.364	48.84
761.543	47.76
761.722	47.09
761.901	47.04
762.079	45.98
762.258	46.43
762.437	46.08
762.615	46.64
762.794	46.8
762.972	46.56
763.151	47.09
763.33	47.15
763.508	48.23
763.687	48.35
763.865	48.68
764.044	49.02
764.222	48.84
764.401	49.04
764.579	49.26
764.758	48.55
764.936	48.59
765.114	47.72
765.293	47.07
765.471	46.95
765.65	46.69
765.828	45.84
766.006	44.92
766.184	45.03
766.363	45.43
766.541	45.64
766.719	46.4
766.898	46.15
767.076	46.52
767.254	47.18
767.432	46.89
767.61	47.08
767.788	47.43
767.967	48.25
768.145	47.44
768.323	46.69
768.501	45.83
768.679	46.25
768.857	46.66
769.035	46.83
769.213	45.72
769.391	45.34
769.569	46.04
769.747	47.08
769.925	48.35
770.103	49.33
770.281	48.84
770.459	49.15
770.636	47.43
770.814	46.35
770.992	46.92
771.17	47.89
771.348	47.86
771.525	47.52
771.703	46.73
771.881	44.67
772.059	44.22
772.236	43.58
772.414	43.13
772.592	44.39
772.769	45.46
772.947	45.21
773.125	44.2
773.302	44.11
773.48	44.34
773.657	43.84
773.835	45.83
774.013	44.74
774.19	46.7
774.368	45.86
774.545	45.76
774.723	44.55
774.9	44.6
775.077	45.66
775.255	46.32
775.432	45.32
775.61	45.97
775.787	45.59
775.964	47.59
776.142	47.05
776.319	47.57
776.496	46.54
776.674	47.31
776.851	46.66
777.028	46.44
777.205	46.57
777.382	45.42
777.56	45.26
777.737	44.97
777.914	43.38
778.091	43.11
778.268	42.93
778.445	44.1
778.622	43.9
778.8	44.57
778.977	44.17
779.154	49.73
779.331	51.99
779.508	51.59
779.685	51.25
779.862	51.1
780.038	50.9
780.215	52.95
780.392	53.26
780.569	55.15
780.746	53.34
780.923	52.86
781.1	46.15
781.277	45.93
781.453	45.43
781.63	44.52
781.807	46
781.984	45.63
782.16	44.4
782.337	43.81
782.514	41.93
782.691	43.35
782.867	45.17
783.044	45.76
783.221	45.27
783.397	46.97
783.574	46.82
783.75	45.88
783.927	47.21
784.103	45.77
784.28	47.24
784.456	45.39
784.633	46.49
784.809	43.98
784.986	44.01
785.162	43.25
785.339	43.73
785.515	44.41
785.692	46.22
785.868	47.1
786.044	48.01
786.221	46.68
786.397	48.66
786.573	48.42
786.749	48.36
786.926	46.34
787.102	48.13
787.278	45.36
787.454	44.81
787.631	44.22
787.807	42.18
787.983	42.67
788.159	43.16
788.335	43.85
788.511	43.32
788.687	45.6
788.863	47.61
789.039	46.44
789.216	48.39
789.392	49.89
789.568	50.22
789.744	50.04
789.919	51.06
790.095	50.85
790.271	49.35
790.447	47.12
790.623	46.1
790.799	45.72
790.975	44.95
791.151	45.04
791.327	43.74
791.502	43.37
791.678	44.04
791.854	43.1
792.03	42.64
792.205	44.2
792.381	45.55
792.557	45.05
792.733	45.13
792.908	45.08
793.084	45.53
793.259	45.86
793.435	46.57
793.611	48.02
793.786	48.23
793.962	48.39
794.137	48.21
794.313	50.43
794.488	50.4
794.664	50.21
794.839	50.86
795.015	49.51
795.19	50.58
795.366	50.43
795.541	48.82
795.716	47.14
795.892	48.08
796.067	46.15
796.242	43.61
796.418	45.42
796.593	46.05
796.768	45.83
796.944	44.41
797.119	44.76
797.294	43.49
797.469	44.96
797.644	46.41
797.82	46.92
797.995	48.43
798.17	49.08
798.345	47.65
798.52	47.25
798.695	47.21
798.87	47.27
799.045	46.25
799.22	47.05
799.395	45.17
799.57	44.28
799.745	44.19
799.92	45.28
800.095	46.09
800.27	46.67
800.445	46.98
800.62	46.35
800.795	47.53
800.97	47.17
801.145	47.64
801.319	49.1
801.494	49.64
801.669	47.12
801.844	44.61
802.018	43.56
802.193	42.17
802.368	41.73
802.543	42.99
802.717	44.51
802.892	45.79
803.067	45.51
803.241	44.32
803.416	45.19
803.59	46.9
803.765	48.14
803.94	48.57
804.114	51.33
804.289	52.78
804.463	50.89
804.638	50.32
804.812	49.26
804.986	48.8
805.161	50.53
805.335	50.16
805.51	50.66
805.684	50.68
805.858	50.28
806.033	48.7
806.207	46.46
806.381	48.67
806.556	45.97
806.73	45.76
806.904	46.19
807.078	45.09
807.253	42.71
807.427	41.51
807.601	40.1
807.775	39.64
807.949	37.84
808.123	38.12
808.298	37.44
808.472	40.68
808.646	41.32
808.82	42.52
808.994	41.89
809.168	43.36
809.342	44.79
809.516	43.69
809.69	42.09
809.864	46.42
810.038	46.15
810.212	46.2
810.385	45.27
810.559	44.91
810.733	45.41
810.907	45.77
811.081	43.65
811.255	40.62
811.428	41.99
811.602	43.71
811.776	41.2
811.95	42.96
812.123	44.49
812.297	46.11
812.471	47.06
812.644	44.28
812.818	43.5
812.992	44.85
813.165	47.55
813.339	48.79
813.512	49.93
813.686	51.24
813.86	49.79
814.033	50.58
814.207	51.52
814.38	51.6
814.554	50.04
814.727	49.04
814.9	48.84
815.074	49.82
815.247	49.91
815.421	49.94
815.594	48.37
815.767	49.31
815.941	47.11
816.114	42.53
816.287	41.55
816.46	43.37
816.634	46.34
816.807	47.94
816.98	47.62
817.153	47.28
817.327	47.62
817.5	48.7
817.673	48.94
817.846	46.16
818.019	50.61
818.192	50.28
818.365	48.95
818.538	48.58
818.711	46.77
818.884	48.06
819.057	48.63
819.23	49.49
819.403	47.85
819.576	47.49
819.749	49.97
819.922	47.12
820.095	47.58
820.268	48.95
820.441	47.25
820.614	47.03
820.786	45.13
820.959	44.68
821.132	43.77
821.305	44.38
821.477	44.95
821.65	45.1
821.823	47.13
821.996	47.42
822.168	47.29
822.341	47.98
822.514	48.39
822.686	48.65
822.859	48.77
823.031	49.06
823.204	49.55
823.376	49.36
823.549	48.88
823.722	48
823.894	48.18
824.067	48.04
824.239	47.79
824.411	47.63
824.584	47.62
824.756	47.77
824.929	47.42
825.101	47.29
825.273	46.67
825.446	47.65
825.618	47.38
825.79	46.42
825.963	47
826.135	46.71
826.307	47.08
826.479	47.18
826.652	47.38
826.824	47.28
826.996	45.89
827.168	46.66
827.34	46.24
827.512	47.23
827.684	48.12
827.856	47.66
828.029	47.9
828.201	46.78
828.373	46.13
828.545	45.13
828.717	45.62
828.889	46.85
829.061	46.93
829.232	46.13
829.404	44.89
829.576	44.84
829.748	44.3
829.92	44.98
830.092	46.5
830.264	47.13
830.436	48.04
830.607	46.96
830.779	46.3
830.951	45.72
831.123	45.93
831.294	46.72
831.466	46.39
831.638	46.62
831.809	45.2
831.981	44.15
832.153	43.54
832.324	43.71
832.496	45.32
832.667	46.27
832.839	47.77
833.011	45.91
833.182	47.53
833.354	45.73
833.525	46.2
833.697	46.37
833.868	45.96
834.039	45.59
834.211	43.3
834.382	42.6
834.554	40.86
834.725	39.3
834.896	41.95
835.068	41.63
835.239	42.59
835.41	43.09
835.581	43.24
835.753	45.01
835.924	45.82
836.095	48.9
836.266	49.19
836.438	49.42
836.609	50.64
836.78	48.56
836.951	47.49
837.122	48.28
837.293	48.92
837.464	48.77
837.635	45.82
837.806	46.36
837.977	43.82
838.148	43.66
838.319	46.7
838.49	47.54
838.661	48.54
838.832	48.92
839.003	49.44
839.174	47.1
839.345	47.07
839.516	47.74
839.687	43.17
839.857	42.28
840.028	42.98
840.199	43.85
840.37	42.38
840.54	45.44
840.711	48.3
840.882	49.33
841.053	52.9
841.223	49.55
841.394	51.59
841.564	55.03
841.735	58.26
841.906	57.84
842.076	55.25
842.247	56.35
842.417	58.07
842.588	59.37
842.758	57.8
842.929	56.77
843.099	60.34
843.27	57.94
843.44	57.32
843.611	58.43
843.781	58.6
843.951	64.67
844.122	63.74
844.292	64.45
844.462	56.61
844.633	55.55
844.803	51.28
844.973	54.09
845.144	56.99
845.314	57.68
845.484	58.43
845.654	58.93
845.824	52.73
845.995	51.98
846.165	47.13
846.335	49.09
846.505	49.8
846.675	52.63
846.845	49.04
847.015	47.23
847.185	45.74
847.355	36.61
847.525	31.24
847.695	28.66
847.865	38.03
848.035	40.02
848.205	43.03
848.375	41.44
848.545	37.57
848.715	39.52
848.884	39.35
849.054	37.9
849.224	43.8
849.394	46.72
849.564	46.08
849.733	35.42
849.903	32.23
850.073	27.77
850.243	24.54
850.412	26.97
850.582	18.09
850.752	20.41
850.921	23.48
851.091	30.14
851.26	32.09
851.43	33.8
851.599	37.89
851.769	34.1
851.939	29.59
852.108	36.98
852.278	30.43
852.447	33.16
852.616	38.73
852.786	37.58
852.955	30.6
853.125	31.18
853.294	27.97
853.463	26.9
853.633	32.83
853.802	33.29
853.971	29.04
854.141	35.58
854.31	39.79
854.479	30.77
854.648	37.65
854.818	45.31
854.987	40.57
855.156	47.6
855.325	45.59
855.494	46.41
855.663	57.35
855.832	48.32
856.001	47.79
856.171	43.76
856.34	46.28
856.509	38.61
856.678	38.29
856.847	36.2
857.016	34.71
857.185	36.62
857.353	35.96
857.522	24.49
857.691	31.05
857.86	47.21
858.029	50.44
858.198	49.91
858.367	50.7
858.535	46.81
858.704	49.61
858.873	47.41
859.042	46.78
859.21	43.59
859.379	50.01
859.548	45.57
859.717	35.63
859.885	34
860.054	33.08
860.222	37.43
860.391	44.51
860.56	47.78
860.728	46.18
860.897	50.72
861.065	49.88
861.234	49.89
861.402	59.65
861.571	57.45
861.739	46.05
861.908	46.42
862.076	49.9
862.244	42.52
862.413	44.55
862.581	49.22
862.749	49.08
862.918	46.17
863.086	46.92
863.254	46.76
863.423	54.36
863.591	63.98
863.759	63.66
863.927	62.36
864.096	64.69
864.264	59.52
864.432	58.26
864.6	50.22
864.768	54.35
864.936	52.01
865.104	56.59
865.272	53.66
865.44	59.64
865.608	62.23
865.776	58.11
865.944	52.58
866.112	51.94
866.28	42.53
866.448	48.04
866.616	52.33
866.784	59.26
866.952	51.45
867.12	47.24
867.288	45.04
867.455	44.43
867.623	37.43
867.791	41.92
867.959	45.84
868.127	54.14
868.294	49.6
868.462	45.79
868.63	42.57
868.797	46.98
868.965	49.66
869.133	45.84
869.3	41.57
869.468	47.05
869.636	42.19
869.803	41.64
869.971	40.16
870.138	44.96
870.306	43.33
870.473	37.13
870.641	23.69
870.808	25.48
870.975	30.02
871.143	27.84
871.31	25.95
871.478	34.96
871.645	37.52
871.812	43.44
871.98	35.54
872.147	37.33
872.314	39.05
872.482	50.46
872.649	43.48
872.816	29.33
872.983	36.23
873.15	35.7
873.318	29.42
873.485	24.99
873.652	19.96
873.819	23.13
873.986	29.85
874.153	29.34
874.32	28.33
874.487	39.22
874.654	45.94
874.821	38.05
874.988	36.46
875.155	40.99
875.322	48.11
875.489	50.76
875.656	54.09
875.823	38.65
875.99	43.52
876.157	42.81
876.324	31.27
876.49	36.27
876.657	37.76
876.824	35.15
876.991	37.08
877.157	35.98
877.324	38.34
877.491	34.78
877.658	39.63
877.824	39.58
877.991	44
878.157	46.01
878.324	49.29
878.491	54.28
878.657	57.14
878.824	60.73
878.99	60
879.157	60.9
879.323	65.45
879.49	58.94
879.656	53.32
879.823	44.64
879.989	40
880.156	35.33
880.322	29.22
880.488	30.29
880.655	21.48
880.821	21.73
880.987	20.86
881.154	18.39
881.32	20.89
881.486	21.82
881.652	27.56
881.819	32.95
881.985	35.86
882.151	37.51
882.317	39.07
882.483	39.1
882.649	38.86
882.816	40.18
882.982	41.89
883.148	44.02
883.314	44.06
883.48	43.77
883.646	43.06
883.812	41.59
883.978	42.41
884.144	43.48
884.31	44.38
884.476	44.82
884.642	47.15
884.807	46.54
884.973	46.94
885.139	46.3
885.305	46.67
885.471	46.83
885.637	48.19
885.802	48.42
885.968	47.58
886.134	49.24
886.3	49.9
886.465	47.74
886.631	49.98
886.797	48.71
886.962	50.41
887.128	50.89
887.293	48.82
887.459	47.68
887.625	48.92
887.79	50.29
887.956	48.57
888.121	49.07
888.287	48.89
888.452	44.28
888.618	43
888.783	44.62
