Data from LC_268_Reflection_4.txt Node
Date: Sat Nov 21 12:01:53 EST 2015
User: robert
Spectrometer: USB4E03001
Autoset integration time: false
Trigger mode: 4
Integration Time (sec): 1.000000E-1
Scans to average: 15
Electric dark correction enabled: true
Nonlinearity correction enabled: false
Boxcar width: 5
Stray light correction enabled: false
XAxis mode: Wavelengths
Stop averaging: false
Number of Pixels in Spectrum: 3648
>>>>>Begin Spectral Data<<<<<
177.566	-7.24
177.785	-16.38
178.005	-78.7
178.225	161.01
178.445	389.57
178.665	601.76
178.885	397.42
179.105	210.61
179.324	116.19
179.544	129.57
179.764	563.35
179.984	122.1
180.204	116.27
180.423	114.91
180.643	129.89
180.863	168.08
181.083	183.81
181.302	162.56
181.522	143.52
181.742	122.99
181.961	115.51
182.181	86.21
182.401	128.34
182.621	124.68
182.84	100.29
183.06	101.8
183.279	80.53
183.499	76.86
183.719	61.19
183.938	87.02
184.158	123.83
184.377	131.33
184.597	160.78
184.816	136.63
185.036	160.82
185.256	158.7
185.475	127.01
185.695	137.05
185.914	138.9
186.134	156.22
186.353	146.62
186.572	128.46
186.792	121.02
187.011	108.23
187.231	102.82
187.45	91.7
187.67	91.1
187.889	102.09
188.108	131.56
188.328	141.91
188.547	120.09
188.766	142.93
188.986	179.23
189.205	125.82
189.424	-15.88
189.644	110.98
189.863	127.73
190.082	211.62
190.302	-185.38
190.521	-65.09
190.74	-40.09
190.959	-13.2
191.178	-4.61
191.398	-19.72
191.617	20.51
191.836	59.26
192.055	32.95
192.274	42.53
192.494	51
192.713	43.97
192.932	73.27
193.151	61.27
193.37	70.94
193.589	61.08
193.808	85.97
194.027	80.96
194.246	55.54
194.465	66.03
194.685	62.73
194.904	55.78
195.123	74.03
195.342	71.92
195.561	74.34
195.78	45.25
195.999	61.19
196.218	94.12
196.436	104.85
196.655	138.47
196.874	134.84
197.093	156.86
197.312	207.27
197.531	177.07
197.75	143.9
197.969	137.11
198.188	149
198.407	148.55
198.625	138.9
198.844	147.22
199.063	135.56
199.282	156.97
199.501	176.02
199.719	159.28
199.938	188.39
200.157	176.55
200.376	156.51
200.594	160.62
200.813	125.14
201.032	115.91
201.251	77.44
201.469	97.09
201.688	79.08
201.907	58.82
202.125	64.08
202.344	64.56
202.563	67.06
202.781	90
203	90.23
203.218	114.25
203.437	167.93
203.656	300.35
203.874	168.79
204.093	119.4
204.311	139.06
204.53	213.4
204.748	145.77
204.967	165.38
205.185	90.04
205.404	79.74
205.622	127.34
205.841	121.37
206.059	122.13
206.278	186.37
206.496	212.42
206.715	430.08
206.933	329
207.151	274.18
207.37	197.18
207.588	316.95
207.806	283.2
208.025	176.64
208.243	158.67
208.461	161.75
208.68	151.47
208.898	185.91
209.116	134.59
209.335	120.05
209.553	139.19
209.771	161.94
209.989	132.24
210.208	169.57
210.426	206.4
210.644	200.14
210.862	231.61
211.081	125.96
211.299	44.57
211.517	54.59
211.735	48.18
211.953	51.45
212.171	56.91
212.39	72.03
212.608	45.56
212.826	67.35
213.044	61.97
213.262	58.55
213.48	62.4
213.698	61.59
213.916	53.28
214.134	60.13
214.352	61.88
214.57	64.31
214.788	78.2
215.006	98.34
215.224	62.45
215.442	63.49
215.66	75.5
215.878	75.07
216.096	110.26
216.314	123.2
216.532	115.99
216.75	114.93
216.968	127.75
217.185	99.44
217.403	101.87
217.621	121.73
217.839	121.47
218.057	125.38
218.275	111.74
218.492	89.72
218.71	74.61
218.928	91.06
219.146	83.88
219.363	75.04
219.581	130.31
219.799	89.52
220.017	71.6
220.234	89.95
220.452	70.33
220.67	86.76
220.887	85.59
221.105	102.81
221.323	111.86
221.54	96.01
221.758	82.24
221.976	66.06
222.193	70.74
222.411	80.67
222.629	61.63
222.846	69.19
223.064	84.71
223.281	82
223.499	74.43
223.716	74.79
223.934	81.24
224.151	95.08
224.369	90.7
224.586	98.66
224.804	87.07
225.021	94.01
225.239	87.07
225.456	76.39
225.674	75.51
225.891	69.25
226.108	58.17
226.326	56.78
226.543	49.32
226.76	50.48
226.978	37.2
227.195	32.97
227.413	33.2
227.63	32.74
227.847	31.72
228.064	28.57
228.282	22.63
228.499	25.74
228.716	22.46
228.934	20.38
229.151	20.39
229.368	19.28
229.585	21.33
229.802	20.4
230.02	19.17
230.237	18.25
230.454	21.41
230.671	22.79
230.888	23.38
231.105	22.47
231.323	22.07
231.54	22.27
231.757	26.35
231.974	27.17
232.191	25.98
232.408	26.21
232.625	21.59
232.842	18.38
233.059	19.19
233.276	20.04
233.493	32.11
233.71	36.89
233.927	35.06
234.144	33.49
234.361	31.66
234.578	32.47
234.795	34.13
235.012	34.16
235.229	30.83
235.446	27.34
235.663	19.39
235.879	9.53
236.096	4.16
236.313	10.61
236.53	7.12
236.747	6.96
236.964	3.8
237.181	2.19
237.397	2.5
237.614	-0.51
237.831	-0.65
238.048	6.16
238.264	7.42
238.481	6.3
238.698	0.52
238.915	4.05
239.131	-3.44
239.348	-1.86
239.565	-0.66
239.781	2.79
239.998	5.55
240.215	8.45
240.431	3.74
240.648	3.28
240.865	1.7
241.081	2.43
241.298	4.5
241.514	10.95
241.731	11.78
241.947	13.52
242.164	14.75
242.38	14.22
242.597	14.5
242.814	14.38
243.03	15.91
243.246	18.41
243.463	17.21
243.679	17.83
243.896	15.6
244.112	17.47
244.329	18.68
244.545	15.6
244.762	16.76
244.978	17.26
245.194	18.76
245.411	18.96
245.627	16.21
245.843	14.95
246.06	14.28
246.276	14.52
246.492	13.2
246.709	11.22
246.925	12.28
247.141	11.41
247.357	10.59
247.574	10.21
247.79	9.1
248.006	9.84
248.222	10.7
248.439	11.02
248.655	11.31
248.871	12.26
249.087	12.66
249.303	12.63
249.519	13.79
249.736	14.55
249.952	15.7
250.168	16.51
250.384	17.73
250.6	18.27
250.816	17.71
251.032	17.8
251.248	15.33
251.464	14.91
251.68	15.25
251.896	16.14
252.112	15.75
252.328	15.14
252.544	16.47
252.76	15.84
252.976	15.71
253.192	16.04
253.408	17.45
253.624	17.61
253.84	17.68
254.056	16.03
254.272	14.22
254.487	15.02
254.703	16.19
254.919	14.4
255.135	15.19
255.351	14.71
255.567	12.91
255.782	9.79
255.998	11.78
256.214	12.26
256.43	13.79
256.646	11.77
256.861	8.93
257.077	8.29
257.293	10.87
257.508	9.8
257.724	9.9
257.94	11.32
258.155	11.73
258.371	10.84
258.587	10.95
258.802	10.86
259.018	11.43
259.234	12.02
259.449	11.72
259.665	10.87
259.88	11.22
260.096	11.21
260.312	11.43
260.527	11.39
260.743	11.68
260.958	11.57
261.174	11.13
261.389	11.91
261.605	12.14
261.82	12.34
262.036	13.54
262.251	13.09
262.466	13.87
262.682	13.06
262.897	12.11
263.113	11.12
263.328	11.9
263.543	13.3
263.759	11.78
263.974	13.07
264.189	14.51
264.405	13.18
264.62	13.73
264.835	14.64
265.051	14.72
265.266	16.47
265.481	17
265.696	15.81
265.912	15.24
266.127	15.6
266.342	15.33
266.557	14.19
266.773	13.2
266.988	13.53
267.203	11.1
267.418	10.19
267.633	10
267.848	10.18
268.064	10.71
268.279	11.57
268.494	11.18
268.709	10.81
268.924	10.33
269.139	10.82
269.354	9.42
269.569	9.85
269.784	10.9
269.999	9.77
270.214	9.86
270.429	9.68
270.644	7.97
270.859	8.17
271.074	7.9
271.289	8.62
271.504	8.99
271.719	8.84
271.934	9.68
272.149	9.7
272.363	9.96
272.578	9.29
272.793	8.47
273.008	10.35
273.223	10.48
273.438	10.66
273.653	11.25
273.867	11.26
274.082	12.77
274.297	11.84
274.512	11.97
274.726	12.67
274.941	13.31
275.156	14.64
275.371	13.4
275.585	14.39
275.8	14.17
276.015	12.48
276.229	11.76
276.444	10.99
276.659	11.94
276.873	11.8
277.088	12.13
277.302	12.4
277.517	11.52
277.732	10.85
277.946	10.32
278.161	10.22
278.375	10.71
278.59	11.95
278.804	11.51
279.019	12.25
279.233	12.69
279.448	11.16
279.662	11.1
279.877	11.43
280.091	12.96
280.306	11.11
280.52	10.3
280.735	10.46
280.949	9.26
281.163	9.22
281.378	7.9
281.592	6.92
281.806	8.97
282.021	8.73
282.235	8.6
282.449	8.81
282.664	9.58
282.878	10.27
283.092	11.64
283.307	12.56
283.521	12.53
283.735	13.02
283.949	12.28
284.164	10.96
284.378	11.02
284.592	10.11
284.806	8.63
285.02	8.36
285.234	8.49
285.449	6.69
285.663	6.74
285.877	6.73
286.091	7.35
286.305	7.79
286.519	7.42
286.733	7.68
286.947	8.33
287.161	9.12
287.375	9.98
287.589	10.49
287.803	11.06
288.017	11.51
288.231	10.98
288.445	10.95
288.659	11.02
288.873	11.89
289.087	11.56
289.301	12.41
289.515	12.33
289.729	12.41
289.943	11.98
290.157	12.37
290.371	11.46
290.584	13.15
290.798	12.62
291.012	12.67
291.226	12.57
291.44	12.14
291.654	11.23
291.867	10.82
292.081	11.45
292.295	11.45
292.509	11.31
292.722	10.74
292.936	9.87
293.15	9.19
293.364	9.27
293.577	8.76
293.791	9.63
294.005	10.23
294.218	10.26
294.432	8.76
294.645	10.19
294.859	10.75
295.073	11.25
295.286	10.99
295.5	11.59
295.713	12.51
295.927	12.65
296.14	12.55
296.354	12.71
296.568	13.86
296.781	14.24
296.994	13.32
297.208	12.46
297.421	13.28
297.635	13.06
297.848	12.4
298.062	12.12
298.275	12.63
298.489	12.19
298.702	12.24
298.915	11.69
299.129	11.65
299.342	10.64
299.555	11.71
299.769	11.04
299.982	11.72
300.195	12.69
300.409	12.96
300.622	12.45
300.835	13.29
301.048	13.76
301.262	12.53
301.475	13.56
301.688	14.67
301.901	14.44
302.115	14.3
302.328	14.26
302.541	14.25
302.754	14.98
302.967	15.64
303.18	16.11
303.393	15.59
303.607	15.6
303.82	14.51
304.033	14.33
304.246	14.59
304.459	15.46
304.672	15.71
304.885	16.16
305.098	15.74
305.311	15.35
305.524	14.61
305.737	14.03
305.95	14.69
306.163	14.93
306.376	14.08
306.589	13.91
306.802	12.86
307.015	12.37
307.228	12.46
307.44	11.51
307.653	12.37
307.866	13.08
308.079	13.59
308.292	12.68
308.505	12.13
308.718	12.53
308.93	11.86
309.143	10.71
309.356	9.94
309.569	9.62
309.781	10.21
309.994	9.4
310.207	9
310.42	8.71
310.632	8.69
310.845	8.65
311.058	9.13
311.27	10.16
311.483	11.59
311.696	11.64
311.908	11.86
312.121	11.72
312.333	12.25
312.546	12.69
312.759	12.65
312.971	13.33
313.184	14.02
313.396	13.62
313.609	11.9
313.821	10.46
314.034	11.6
314.246	11.66
314.459	11.61
314.671	10.28
314.884	9.4
315.096	9.84
315.309	8.81
315.521	8.9
315.733	9.74
315.946	10.48
316.158	10.96
316.371	11.62
316.583	12.21
316.795	12.74
317.008	13.72
317.22	13.42
317.432	14.17
317.644	15.89
317.857	15.61
318.069	14.83
318.281	15.32
318.494	15.54
318.706	14.85
318.918	13.33
319.13	12.15
319.342	12.15
319.555	12.22
319.767	12.33
319.979	11.21
320.191	11.31
320.403	12.45
320.615	11.36
320.827	11.11
321.039	9.53
321.252	9.67
321.464	10.05
321.676	8.39
321.888	8.96
322.1	8.19
322.312	8.45
322.524	7.57
322.736	7.42
322.948	9.08
323.16	9.76
323.372	11.74
323.584	12.63
323.796	12.57
324.007	13.15
324.219	12.68
324.431	12.51
324.643	13.15
324.855	12.56
325.067	13.37
325.279	13.01
325.491	13.11
325.702	12.08
325.914	11.4
326.126	11.54
326.338	10.17
326.55	11
326.761	10.37
326.973	10.59
327.185	11.84
327.396	11.1
327.608	10.08
327.82	9.9
328.032	10.08
328.243	9.67
328.455	10.21
328.666	12.06
328.878	12.6
329.09	12.78
329.301	13.2
329.513	13.47
329.725	13.53
329.936	15.31
330.148	14.71
330.359	15.08
330.571	15.98
330.782	15.39
330.994	15.79
331.205	15.55
331.417	16.77
331.628	17.03
331.84	16.88
332.051	16.65
332.262	15.79
332.474	16.49
332.685	15.61
332.897	15.32
333.108	14.95
333.319	15.1
333.531	14.48
333.742	14.5
333.953	13.96
334.165	13.99
334.376	13.74
334.587	14.23
334.799	13.83
335.01	14.53
335.221	15.27
335.432	15.83
335.644	16.13
335.855	16.46
336.066	16.84
336.277	16.67
336.488	16.24
336.7	15.43
336.911	15.1
337.122	16.3
337.333	16.65
337.544	17.07
337.755	17.1
337.966	16.59
338.177	16.72
338.388	16.28
338.599	15.68
338.811	16.54
339.022	17.88
339.233	16.54
339.444	15.82
339.655	15.56
339.866	14.52
340.076	14.11
340.287	14.31
340.498	14.39
340.709	14.24
340.92	14.62
341.131	14.32
341.342	13.85
341.553	15.37
341.764	15.42
341.975	15.13
342.185	14.49
342.396	15.21
342.607	15.12
342.818	14.66
343.029	14.92
343.239	15.89
343.45	15.08
343.661	15.66
343.872	15.01
344.082	15.67
344.293	15.68
344.504	16.01
344.714	15.25
344.925	14.89
345.136	14.57
345.346	14.68
345.557	13.72
345.768	14.03
345.978	13.24
346.189	13.5
346.399	12.31
346.61	12.33
346.821	13.05
347.031	13.17
347.242	13.83
347.452	14.52
347.663	14.18
347.873	15.05
348.084	14.9
348.294	14.68
348.504	14.82
348.715	15.66
348.925	15.55
349.136	14.97
349.346	15.36
349.557	13.97
349.767	13.61
349.977	13.51
350.188	12.23
350.398	12.52
350.608	12.82
350.819	13.14
351.029	12.54
351.239	12.23
351.449	12.37
351.66	12.64
351.87	13.34
352.08	13.75
352.29	14.06
352.501	14.31
352.711	14.19
352.921	14.83
353.131	14.36
353.341	14.5
353.552	14.51
353.762	13.65
353.972	13.56
354.182	14.01
354.392	14.06
354.602	13.74
354.812	14.11
355.022	13.99
355.232	13.33
355.442	13.09
355.652	13.25
355.862	13.44
356.072	13.33
356.282	12.73
356.492	12.41
356.702	11.57
356.912	10.8
357.122	10.95
357.332	10.91
357.542	10.94
357.752	10.8
357.962	10.72
358.171	10.24
358.381	11.04
358.591	11.12
358.801	11.62
359.011	12.47
359.221	12.66
359.43	12.44
359.64	12.77
359.85	12.87
360.06	13.1
360.269	13.36
360.479	13.92
360.689	13.34
360.899	13.82
361.108	13.07
361.318	12.06
361.528	12.36
361.737	12.34
361.947	12.16
362.156	12.33
362.366	12.63
362.576	11.86
362.785	11.72
362.995	12.14
363.204	11.65
363.414	11.66
363.623	12.53
363.833	12.79
364.042	12.97
364.252	12.82
364.461	12.39
364.671	12.03
364.88	12.34
365.09	12.23
365.299	12.08
365.509	11.64
365.718	12.14
365.927	12.31
366.137	11.67
366.346	11.31
366.555	11.62
366.765	12.35
366.974	12.07
367.183	12.03
367.393	12.42
367.602	12.64
367.811	13.05
368.021	12.72
368.23	11.98
368.439	12.17
368.648	11.97
368.857	11.91
369.067	11.58
369.276	11.97
369.485	12.34
369.694	11.73
369.903	11.18
370.112	11.3
370.321	11.45
370.531	10.94
370.74	10.68
370.949	10.65
371.158	10.39
371.367	10.19
371.576	10.21
371.785	10.04
371.994	10.25
372.203	10.28
372.412	9.89
372.621	9.69
372.83	9.93
373.039	10.13
373.248	10.06
373.457	10.21
373.666	10.04
373.874	9.41
374.083	9.67
374.292	9.89
374.501	10.07
374.71	9.92
374.919	9.93
375.128	10.47
375.336	10.52
375.545	10.82
375.754	10.61
375.963	10.27
376.171	10.56
376.38	10.36
376.589	9.97
376.798	9.37
377.006	9.72
377.215	9.92
377.424	9.6
377.632	9.86
377.841	9.74
378.05	9.74
378.258	10.06
378.467	10.02
378.675	10.08
378.884	10.1
379.093	10.45
379.301	10.37
379.51	10.5
379.718	10.48
379.927	10.48
380.135	10.17
380.344	10.6
380.552	10.25
380.761	10.3
380.969	10.45
381.177	10.29
381.386	10.09
381.594	9.95
381.803	9.35
382.011	9.72
382.219	9.26
382.428	9.32
382.636	8.73
382.845	9.12
383.053	9.07
383.261	8.93
383.469	9.14
383.678	9.74
383.886	9.81
384.094	9.82
384.302	9.09
384.511	9.48
384.719	9.51
384.927	9.55
385.135	9.47
385.343	9.55
385.552	9.7
385.76	9.67
385.968	9.41
386.176	9.28
386.384	9.52
386.592	9.72
386.8	9.5
387.008	9.83
387.216	10.18
387.424	10
387.633	9.96
387.841	9.59
388.049	9.55
388.257	9.69
388.465	9.82
388.672	9.66
388.88	9.76
389.088	9.51
389.296	9.25
389.504	9.09
389.712	9.31
389.92	9.28
390.128	9.22
390.336	9.22
390.544	8.96
390.751	9.13
390.959	9.24
391.167	9.25
391.375	9.14
391.583	8.99
391.79	8.66
391.998	8.79
392.206	8.91
392.414	8.73
392.621	8.66
392.829	8.55
393.037	8.12
393.244	8.22
393.452	8.15
393.66	8.52
393.867	8.69
394.075	9.21
394.283	8.83
394.49	8.78
394.698	8.86
394.905	8.99
395.113	8.99
395.32	9.44
395.528	9.21
395.735	9.23
395.943	9.23
396.15	9.31
396.358	8.88
396.565	8.84
396.773	8.73
396.98	8.98
397.188	8.69
397.395	8.72
397.602	8.61
397.81	8.62
398.017	8.61
398.225	8.39
398.432	8.23
398.639	8.3
398.847	8.51
399.054	8.51
399.261	8.46
399.468	8.64
399.676	8.92
399.883	8.82
400.09	9.1
400.297	9.3
400.505	9.41
400.712	9.06
400.919	9.06
401.126	9.08
401.333	9.05
401.54	9.05
401.748	8.97
401.955	8.7
402.162	8.79
402.369	8.46
402.576	8.03
402.783	7.94
402.99	7.9
403.197	7.91
403.404	8.06
403.611	8.23
403.818	8.2
404.025	8.06
404.232	8.08
404.439	8.05
404.646	8.21
404.853	8.76
405.06	8.8
405.267	9.28
405.474	9.28
405.681	9.1
405.887	8.67
406.094	8.67
406.301	8.85
406.508	8.83
406.715	8.72
406.922	8.53
407.128	8.18
407.335	8.14
407.542	8.06
407.749	8.1
407.955	7.96
408.162	7.94
408.369	8
408.575	8.06
408.782	7.93
408.989	8.2
409.195	8.19
409.402	8.25
409.609	8.09
409.815	7.9
410.022	7.94
410.228	7.9
410.435	7.94
410.642	7.88
410.848	7.95
411.055	8.16
411.261	7.67
411.468	7.67
411.674	7.46
411.881	7.81
412.087	7.89
412.294	7.95
412.5	7.9
412.706	7.93
412.913	7.91
413.119	7.91
413.326	8.07
413.532	8.38
413.738	8.52
413.945	8.67
414.151	8.37
414.357	8.33
414.564	8.57
414.77	8.94
414.976	9.03
415.182	8.89
415.389	8.98
415.595	8.97
415.801	8.83
416.007	8.62
416.214	8.64
416.42	8.72
416.626	8.83
416.832	8.45
417.038	8.39
417.244	8.55
417.45	8.63
417.657	8.44
417.863	8.16
418.069	8.42
418.275	8.63
418.481	8.58
418.687	8.54
418.893	8.35
419.099	8.32
419.305	8.27
419.511	8.29
419.717	8.24
419.923	8.2
420.129	8.33
420.335	8.1
420.541	7.98
420.746	7.98
420.952	8.06
421.158	8.15
421.364	8.15
421.57	8.07
421.776	7.98
421.982	8.06
422.187	8.18
422.393	8.04
422.599	7.96
422.805	8.05
423.01	8.11
423.216	8.08
423.422	8.06
423.628	8.16
423.833	8.27
424.039	8.31
424.245	8.23
424.45	8.27
424.656	8.33
424.862	8.56
425.067	8.54
425.273	8.52
425.478	8.42
425.684	8.56
425.889	8.58
426.095	8.46
426.301	8.43
426.506	8.5
426.712	8.25
426.917	8.18
427.123	8.12
427.328	8.09
427.533	8.17
427.739	8.34
427.944	8.2
428.15	8.1
428.355	8.3
428.561	8.32
428.766	8.24
428.971	8.45
429.177	8.74
429.382	8.88
429.587	8.74
429.793	8.58
429.998	8.6
430.203	8.53
430.408	8.58
430.614	8.27
430.819	8.18
431.024	8.15
431.229	8.09
431.434	8.07
431.64	7.9
431.845	8.07
432.05	8.06
432.255	7.98
432.46	7.92
432.665	7.88
432.87	7.99
433.076	7.98
433.281	8.05
433.486	8.04
433.691	8.03
433.896	8.03
434.101	7.96
434.306	7.89
434.511	7.74
434.716	7.92
434.921	7.78
435.126	7.85
435.331	8.18
435.535	8.18
435.74	8.07
435.945	7.89
436.15	7.87
436.355	7.98
436.56	8.06
436.765	8.21
436.97	8.28
437.174	8.51
437.379	8.58
437.584	8.37
437.789	8.41
437.993	8.52
438.198	8.59
438.403	8.66
438.608	8.7
438.812	8.61
439.017	8.71
439.222	8.67
439.426	8.62
439.631	8.65
439.836	8.57
440.04	8.6
440.245	8.51
440.45	8.51
440.654	8.38
440.859	8.29
441.063	8.4
441.268	8.26
441.472	8.26
441.677	8.3
441.881	8.26
442.086	8.24
442.29	8.18
442.495	8.15
442.699	8.22
442.904	8.25
443.108	8.21
443.312	8.16
443.517	8.27
443.721	8.39
443.925	8.18
444.13	8.05
444.334	8.06
444.538	8.06
444.743	8.03
444.947	7.91
445.151	7.95
445.356	7.9
445.56	8
445.764	7.88
445.968	7.74
446.173	7.87
446.377	8.02
446.581	7.99
446.785	7.92
446.989	7.89
447.193	7.96
447.398	7.97
447.602	8.06
447.806	8.05
448.01	8.2
448.214	8.2
448.418	8.15
448.622	8.14
448.826	8.2
449.03	8.27
449.234	8.43
449.438	8.33
449.642	8.3
449.846	8.36
450.05	8.25
450.254	8.3
450.458	8.12
450.662	8.27
450.866	8.13
451.069	8.17
451.273	8.21
451.477	8.23
451.681	8.14
451.885	8.08
452.089	8
452.292	8.03
452.496	7.98
452.7	8.2
452.904	8.15
453.107	8.02
453.311	7.98
453.515	7.87
453.719	7.9
453.922	8.06
454.126	8.09
454.33	8.17
454.533	8.07
454.737	8.05
454.94	8.01
455.144	8.07
455.348	8.12
455.551	8.17
455.755	8.35
455.958	8.44
456.162	8.47
456.365	8.51
456.569	8.45
456.772	8.46
456.976	8.28
457.179	8.29
457.383	8.16
457.586	8.33
457.79	8.26
457.993	8.24
458.196	8.06
458.4	8.05
458.603	8.05
458.807	8
459.01	8.09
459.213	8.14
459.417	8.07
459.62	8.08
459.823	7.92
460.026	7.98
460.23	7.86
460.433	7.9
460.636	7.86
460.839	7.83
461.042	7.9
461.246	7.84
461.449	7.93
461.652	7.92
461.855	7.86
462.058	7.99
462.261	7.87
462.464	8.05
462.668	7.89
462.871	8.11
463.074	8.16
463.277	8.21
463.48	8.29
463.683	8.26
463.886	8.19
464.089	8.45
464.292	8.27
464.495	8.26
464.698	8.17
464.901	8.33
465.104	8.42
465.306	8.51
465.509	8.41
465.712	8.29
465.915	8.22
466.118	8.27
466.321	8.08
466.524	8.23
466.726	8.41
466.929	8.46
467.132	8.47
467.335	8.3
467.538	8.26
467.74	8.19
467.943	8.25
468.146	8.22
468.348	8.25
468.551	8.3
468.754	8.42
468.956	8.29
469.159	8.12
469.362	8.04
469.564	7.88
469.767	7.95
469.969	8.12
470.172	8.02
470.375	8.14
470.577	8.15
470.78	8.02
470.982	7.88
471.185	7.82
471.387	7.97
471.59	7.97
471.792	8.16
471.995	8.06
472.197	7.91
472.399	8.07
472.602	7.9
472.804	7.66
473.007	7.61
473.209	7.73
473.411	7.8
473.614	7.88
473.816	7.97
474.018	7.74
474.22	7.79
474.423	7.86
474.625	7.82
474.827	8.13
475.03	8.47
475.232	8.66
475.434	8.59
475.636	8.62
475.838	8.72
476.04	8.69
476.243	8.6
476.445	8.59
476.647	8.68
476.849	8.63
477.051	8.31
477.253	8.26
477.455	8.2
477.657	8.1
477.859	8.06
478.061	7.82
478.263	7.88
478.465	7.99
478.667	7.85
478.869	7.73
479.071	7.66
479.273	7.77
479.475	7.74
479.677	7.75
479.879	7.88
480.081	7.98
480.283	8.1
480.485	8.04
480.686	8.07
480.888	8.09
481.09	8.1
481.292	8.08
481.494	8.09
481.695	7.93
481.897	7.91
482.099	7.79
482.301	7.72
482.502	7.69
482.704	7.63
482.906	7.6
483.107	7.6
483.309	7.56
483.511	7.56
483.712	7.47
483.914	7.55
484.115	7.51
484.317	7.51
484.519	7.5
484.72	7.44
484.922	7.46
485.123	7.47
485.325	7.5
485.526	7.49
485.728	7.54
485.929	7.62
486.131	7.52
486.332	7.55
486.534	7.53
486.735	7.52
486.936	7.56
487.138	7.52
487.339	7.55
487.541	7.53
487.742	7.57
487.943	7.56
488.144	7.53
488.346	7.58
488.547	7.55
488.748	7.56
488.95	7.55
489.151	7.55
489.352	7.53
489.553	7.49
489.755	7.44
489.956	7.39
490.157	7.33
490.358	7.31
490.559	7.31
490.76	7.29
490.961	7.32
491.163	7.37
491.364	7.41
491.565	7.44
491.766	7.43
491.967	7.47
492.168	7.53
492.369	7.56
492.57	7.62
492.771	7.66
492.972	7.68
493.173	7.67
493.374	7.65
493.575	7.57
493.776	7.59
493.976	7.62
494.177	7.67
494.378	7.61
494.579	7.72
494.78	7.7
494.981	7.87
495.182	7.93
495.382	7.97
495.583	8.01
495.784	8.09
495.985	8.11
496.185	8.14
496.386	8.1
496.587	8.17
496.788	8.05
496.988	8.06
497.189	7.83
497.39	7.86
497.59	7.78
497.791	7.77
497.992	7.85
498.192	7.89
498.393	7.91
498.593	7.98
498.794	7.96
498.994	7.94
499.195	7.8
499.395	8.02
499.596	8.16
499.796	8.31
499.997	8.47
500.197	8.5
500.398	8.38
500.598	8.43
500.799	8.35
500.999	8.43
501.199	8.48
501.4	8.69
501.6	8.6
501.801	8.58
502.001	8.62
502.201	8.55
502.402	8.47
502.602	8.52
502.802	8.55
503.002	8.64
503.203	8.63
503.403	8.67
503.603	8.72
503.803	8.6
504.003	8.58
504.204	8.48
504.404	8.63
504.604	8.67
504.804	8.81
505.004	8.78
505.204	8.85
505.404	8.72
505.604	8.7
505.804	8.66
506.005	8.9
506.205	8.92
506.405	8.87
506.605	8.73
506.805	8.82
507.005	8.67
507.204	8.73
507.404	8.75
507.604	8.93
507.804	9
508.004	8.98
508.204	9
508.404	8.83
508.604	9.03
508.804	9.09
509.003	9
509.203	9.09
509.403	9.05
509.603	9.12
509.803	9.08
510.002	8.98
510.202	8.98
510.402	8.77
510.602	8.83
510.801	8.76
511.001	8.78
511.201	8.77
511.4	8.8
511.6	8.8
511.8	8.71
511.999	8.74
512.199	8.84
512.398	8.88
512.598	9.05
512.797	9.15
512.997	9.02
513.197	8.9
513.396	9.08
513.596	9.11
513.795	9.2
513.994	9.13
514.194	9.18
514.393	9.21
514.593	9.24
514.792	9.19
514.992	9.26
515.191	9.5
515.39	9.65
515.59	9.67
515.789	9.77
515.988	9.76
516.188	9.93
516.387	9.94
516.586	9.94
516.786	10.03
516.985	10.14
517.184	10.12
517.383	10.17
517.582	10.13
517.782	10.05
517.981	10.08
518.18	10.03
518.379	10.11
518.578	10.08
518.777	10.06
518.976	10.05
519.176	10.05
519.375	10.05
519.574	10.02
519.773	10.01
519.972	9.96
520.171	9.88
520.37	9.86
520.569	9.87
520.768	9.97
520.967	10.09
521.166	9.94
521.365	9.92
521.564	9.98
521.762	9.95
521.961	10.09
522.16	10.1
522.359	10.14
522.558	10.28
522.757	10.21
522.956	10.2
523.154	10.19
523.353	10.38
523.552	10.47
523.751	10.51
523.949	10.64
524.148	10.67
524.347	10.85
524.546	10.97
524.744	10.88
524.943	10.87
525.142	10.9
525.34	10.91
525.539	10.95
525.737	11.05
525.936	11.13
526.135	11.17
526.333	11.15
526.532	11.2
526.73	11.22
526.929	11.31
527.127	11.3
527.326	11.31
527.524	11.3
527.723	11.34
527.921	11.28
528.12	11.24
528.318	11.17
528.516	11.18
528.715	11.11
528.913	11.12
529.112	11.13
529.31	11.1
529.508	11.12
529.707	11.2
529.905	11.22
530.103	11.24
530.301	11.28
530.5	11.38
530.698	11.38
530.896	11.53
531.094	11.58
531.293	11.7
531.491	11.86
531.689	11.89
531.887	11.85
532.085	11.83
532.283	11.89
532.481	11.85
532.68	11.89
532.878	11.96
533.076	11.97
533.274	11.92
533.472	11.98
533.67	11.97
533.868	12.04
534.066	12.1
534.264	12.08
534.462	12.15
534.66	12.22
534.858	12.17
535.056	12.26
535.253	12.26
535.451	12.35
535.649	12.22
535.847	12.29
536.045	12.3
536.243	12.38
536.441	12.47
536.638	12.5
536.836	12.55
537.034	12.64
537.232	12.63
537.43	12.73
537.627	12.78
537.825	12.92
538.023	13
538.22	13.1
538.418	13.15
538.616	13.22
538.813	13.24
539.011	13.26
539.209	13.35
539.406	13.44
539.604	13.58
539.801	13.64
539.999	13.79
540.196	13.89
540.394	13.87
540.591	13.84
540.789	13.95
540.986	13.94
541.184	13.99
541.381	13.98
541.579	14
541.776	13.9
541.974	13.97
542.171	13.92
542.368	13.92
542.566	14
542.763	14.06
542.96	14.02
543.158	13.98
543.355	14.06
543.552	14.26
543.75	14.29
543.947	14.38
544.144	14.48
544.341	14.61
544.539	14.7
544.736	14.77
544.933	14.82
545.13	14.98
545.327	15.31
545.524	15.34
545.722	15.2
545.919	15.26
546.116	15.46
546.313	15.5
546.51	15.59
546.707	15.62
546.904	15.64
547.101	15.82
547.298	15.94
547.495	15.92
547.692	15.96
547.889	16.16
548.086	16.26
548.283	16.28
548.48	16.35
548.677	16.28
548.874	16.37
549.07	16.59
549.267	16.51
549.464	16.52
549.661	16.55
549.858	16.68
550.055	16.76
550.251	16.83
550.448	16.62
550.645	16.71
550.842	16.82
551.038	16.78
551.235	16.73
551.432	16.85
551.628	16.82
551.825	17.03
552.022	17.19
552.218	17.1
552.415	17.29
552.612	17.6
552.808	17.6
553.005	17.67
553.201	17.91
553.398	17.92
553.594	17.94
553.791	18.22
553.987	18.33
554.184	18.27
554.38	18.59
554.577	18.6
554.773	18.63
554.97	18.72
555.166	18.74
555.362	18.79
555.559	18.9
555.755	19.07
555.952	19.13
556.148	19.26
556.344	19.46
556.541	19.46
556.737	19.35
556.933	19.52
557.129	19.61
557.326	19.87
557.522	20.15
557.718	20.32
557.914	20.34
558.11	20.43
558.307	20.27
558.503	20.48
558.699	20.63
558.895	20.81
559.091	20.98
559.287	21.04
559.483	20.94
559.679	20.99
559.876	21.18
560.072	21.26
560.268	21
560.464	21.16
560.66	21.27
560.856	21.37
561.052	21.51
561.247	21.8
561.443	22.03
561.639	22.43
561.835	22.53
562.031	22.58
562.227	22.73
562.423	23.07
562.619	23.44
562.815	23.59
563.01	23.69
563.206	23.97
563.402	23.63
563.598	23.57
563.793	23.59
563.989	23.43
564.185	23.38
564.381	23.62
564.576	23.71
564.772	23.61
564.968	23.67
565.163	23.58
565.359	23.57
565.555	23.74
565.75	23.77
565.946	23.78
566.141	23.97
566.337	23.95
566.532	23.95
566.728	24.01
566.923	24.06
567.119	23.92
567.314	24.05
567.51	24.09
567.705	24.21
567.901	24.3
568.096	24.51
568.292	24.64
568.487	24.79
568.682	24.89
568.878	24.84
569.073	24.87
569.268	25.08
569.464	25.01
569.659	25.19
569.854	25.46
570.05	25.52
570.245	25.55
570.44	25.47
570.635	25.62
570.831	25.67
571.026	25.76
571.221	25.82
571.416	25.93
571.611	26.31
571.806	26.4
572.002	26.32
572.197	26.48
572.392	26.38
572.587	26.39
572.782	26.46
572.977	26.53
573.172	26.59
573.367	26.68
573.562	26.71
573.757	26.49
573.952	26.48
574.147	26.49
574.342	26.64
574.537	26.83
574.732	26.96
574.927	27.07
575.121	27.12
575.316	27.24
575.511	27.26
575.706	27.28
575.901	27.36
576.096	27.36
576.29	27.43
576.485	27.35
576.68	27.44
576.875	27.54
577.069	27.52
577.264	27.5
577.459	27.63
577.654	27.72
577.848	27.82
578.043	27.89
578.238	27.97
578.432	28.19
578.627	28.17
578.821	27.99
579.016	27.99
579.21	27.8
579.405	27.79
579.6	27.77
579.794	27.88
579.989	27.83
580.183	28.39
580.378	28.54
580.572	28.47
580.766	28.7
580.961	28.77
581.155	28.88
581.35	29.17
581.544	29.23
581.738	29.28
581.933	29.27
582.127	29.57
582.321	29.05
582.516	29.02
582.71	28.87
582.904	28.87
583.099	29.1
583.293	29.23
583.487	29.42
583.681	29.76
583.875	30
584.07	30.18
584.264	29.91
584.458	30.32
584.652	30.35
584.846	30.64
585.04	30.72
585.234	30.67
585.428	30.73
585.623	30.63
585.817	30.37
586.011	30.38
586.205	30.44
586.399	30.75
586.593	30.55
586.787	31.02
586.981	31.09
587.174	31.26
587.368	31.45
587.562	31.43
587.756	31.62
587.95	31.67
588.144	31.66
588.338	31.37
588.532	31.16
588.725	31.01
588.919	30.66
589.113	30.62
589.307	30.55
589.501	30.54
589.694	30.43
589.888	30.33
590.082	30.61
590.275	30.5
590.469	30.79
590.663	30.79
590.856	31.11
591.05	31.17
591.244	31.32
591.437	31.55
591.631	31.7
591.824	31.84
592.018	31.98
592.212	31.91
592.405	31.96
592.599	31.86
592.792	32.1
592.986	32.09
593.179	32.04
593.372	31.77
593.566	31.38
593.759	31.27
593.953	31.18
594.146	31.13
594.339	31.22
594.533	31.42
594.726	31.44
594.92	31.33
595.113	31.59
595.306	31.71
595.499	31.97
595.693	32.13
595.886	32.09
596.079	32.15
596.272	32.14
596.466	32.13
596.659	32.26
596.852	32.29
597.045	32.38
597.238	32.16
597.431	32.28
597.624	32.29
597.818	32.4
598.011	32.42
598.204	32.52
598.397	32.66
598.59	32.6
598.783	32.49
598.976	32.59
599.169	32.71
599.362	32.74
599.555	32.86
599.748	32.99
599.941	33.03
600.134	33.01
600.326	33.1
600.519	33.16
600.712	33.39
600.905	33.48
601.098	33.56
601.291	33.43
601.483	33.56
601.676	33.1
601.869	32.89
602.062	32.84
602.255	32.89
602.447	32.85
602.64	32.82
602.833	32.64
603.025	32.5
603.218	32.55
603.411	32.53
603.603	32.6
603.796	32.76
603.989	32.82
604.181	32.87
604.374	33.05
604.566	33.14
604.759	33.03
604.951	32.94
605.144	32.85
605.336	32.8
605.529	32.98
605.721	33.06
605.914	33.17
606.106	33.26
606.299	33.45
606.491	33.36
606.683	33.37
606.876	33.37
607.068	33.53
607.26	33.86
607.453	33.81
607.645	33.81
607.837	33.68
608.03	33.36
608.222	33.46
608.414	33.33
608.606	33.42
608.799	33.5
608.991	33.7
609.183	33.88
609.375	33.72
609.567	33.84
609.759	33.83
609.952	33.86
610.144	34.09
610.336	34
610.528	33.77
610.72	33.62
610.912	33.59
611.104	33.67
611.296	33.62
611.488	33.79
611.68	33.55
611.872	33.47
612.064	33.45
612.256	33.45
612.448	33.49
612.64	33.78
612.832	34.02
613.023	34.06
613.215	33.91
613.407	34.07
613.599	34.21
613.791	34.49
613.983	34.53
614.174	34.76
614.366	34.95
614.558	34.85
614.75	34.85
614.941	35.07
615.133	34.74
615.325	34.99
615.516	34.57
615.708	34.18
615.9	34.01
616.091	34.04
616.283	33.63
616.475	33.78
616.666	33.87
616.858	33.89
617.049	33.48
617.241	33.61
617.432	33.49
617.624	33.88
617.815	34.16
618.007	34.18
618.198	34.41
618.39	34.8
618.581	34.62
618.773	34.44
618.964	34.37
619.155	34.69
619.347	34.74
619.538	34.69
619.729	34.71
619.921	34.72
620.112	35.07
620.303	34.79
620.494	34.9
620.686	34.79
620.877	35.01
621.068	35.01
621.259	35.01
621.451	35.26
621.642	35.16
621.833	34.86
622.024	35.11
622.215	34.85
622.406	34.75
622.597	34.68
622.788	34.76
622.98	34.93
623.171	35.2
623.362	35.17
623.553	35.16
623.744	35.36
623.935	35.42
624.126	35.21
624.317	35.28
624.508	35.54
624.698	35.38
624.889	35.3
625.08	35.18
625.271	35.09
625.462	35
625.653	34.94
625.844	34.75
626.034	34.87
626.225	35.1
626.416	35.21
626.607	35.13
626.798	35.32
626.988	35.65
627.179	35.59
627.37	35.59
627.56	35.65
627.751	35.81
627.942	36.03
628.132	36.02
628.323	35.87
628.514	35.8
628.704	35.8
628.895	35.76
629.085	35.61
629.276	35.59
629.466	35.52
629.657	35.62
629.847	35.68
630.038	35.76
630.228	35.71
630.419	35.69
630.609	35.7
630.8	36.15
630.99	36.06
631.181	35.79
631.371	35.96
631.561	36.31
631.752	36.41
631.942	36.15
632.132	36.18
632.323	36.26
632.513	36.36
632.703	36.54
632.893	36.3
633.084	36.55
633.274	36.69
633.464	36.64
633.654	36.31
633.844	36.26
634.034	36.28
634.225	36.12
634.415	36.23
634.605	36.27
634.795	36.22
634.985	36.17
635.175	36.01
635.365	35.91
635.555	35.94
635.745	36.17
635.935	36.12
636.125	35.96
636.315	35.94
636.505	35.89
636.695	35.97
636.885	35.82
637.075	35.7
637.265	35.76
637.455	35.91
637.644	36.11
637.834	35.86
638.024	35.86
638.214	36.27
638.404	36.16
638.593	36.31
638.783	36.14
638.973	36.38
639.163	36.65
639.352	36.36
639.542	36.47
639.732	36.49
639.921	36.78
640.111	36.93
640.301	36.88
640.49	37.29
640.68	37.36
640.87	37.54
641.059	37.55
641.249	37.79
641.438	37.94
641.628	37.51
641.817	37.37
642.007	37.12
642.196	37.14
642.386	37
642.575	36.92
642.764	36.91
642.954	36.64
643.143	36.54
643.333	36.06
643.522	35.99
643.711	36.23
643.901	36.51
644.09	36.85
644.279	36.65
644.469	36.5
644.658	36.57
644.847	36.55
645.036	36.64
645.226	36.69
645.415	36.78
645.604	36.75
645.793	36.89
645.982	36.41
646.171	36.14
646.361	36.04
646.55	36.22
646.739	36.13
646.928	36.07
647.117	36.38
647.306	36.44
647.495	36.34
647.684	36.71
647.873	36.74
648.062	36.88
648.251	36.72
648.44	36.86
648.629	36.77
648.818	36.37
649.007	36.73
649.196	36.54
649.384	36.37
649.573	36.72
649.762	36.7
649.951	36.92
650.14	36.92
650.328	37.08
650.517	37.11
650.706	37.53
650.895	37.81
651.083	37.71
651.272	37.78
651.461	38.03
651.65	38.05
651.838	37.9
652.027	37.78
652.216	37.67
652.404	37.39
652.593	37.59
652.781	37.23
652.97	37.34
653.158	37.17
653.347	37
653.535	36.78
653.724	36.49
653.912	36.56
654.101	36.52
654.289	36.96
654.478	37.41
654.666	37.13
654.855	37.25
655.043	37.64
655.231	37.76
655.42	37.8
655.608	37.83
655.796	38.16
655.985	38.25
656.173	38.29
656.361	38.28
656.55	38.17
656.738	38.29
656.926	38.33
657.114	37.93
657.302	37.93
657.491	38.1
657.679	38.33
657.867	38.33
658.055	38.7
658.243	38.53
658.431	38.64
658.619	38.75
658.807	38.74
658.996	38.77
659.184	39.09
659.372	38.87
659.56	38.77
659.748	38.64
659.936	38.53
660.124	38.26
660.311	38.51
660.499	38.36
660.687	38.19
660.875	38.15
661.063	37.86
661.251	37.28
661.439	37.37
661.627	37.06
661.814	36.85
662.002	36.85
662.19	36.64
662.378	36.58
662.565	36.62
662.753	36.76
662.941	36.75
663.129	37.1
663.316	37.48
663.504	36.93
663.692	37.44
663.879	37.82
664.067	37.82
664.254	37.77
664.442	37.9
664.63	37.6
664.817	37.46
665.005	37.5
665.192	37.54
665.38	37.48
665.567	37.98
665.755	38.16
665.942	38.11
666.13	38.13
666.317	38.65
666.504	38.44
666.692	38.61
666.879	38.67
667.067	38.94
667.254	38.52
667.441	38.51
667.629	38.37
667.816	38.18
668.003	38.1
668.19	38.06
668.378	37.65
668.565	37.6
668.752	37.35
668.939	37.72
669.127	37.8
669.314	38.06
669.501	38.37
669.688	38.67
669.875	38.51
670.062	38.76
670.249	38.54
670.436	38.61
670.623	38.83
670.81	39.13
670.997	38.63
671.184	38.56
671.371	38.77
671.558	38.78
671.745	38.87
671.932	38.99
672.119	38.91
672.306	39.32
672.493	39.5
672.68	39.73
672.867	39.52
673.054	40.04
673.24	40.07
673.427	39.68
673.614	39.66
673.801	39.67
673.988	39.92
674.174	39.89
674.361	39.49
674.548	39.29
674.734	38.88
674.921	38.85
675.108	38.5
675.294	38.21
675.481	38.29
675.668	38.38
675.854	38.33
676.041	37.98
676.227	37.69
676.414	38.22
676.601	38.71
676.787	39.25
676.974	39.27
677.16	39.46
677.347	39.65
677.533	39.48
677.719	39.4
677.906	39.25
678.092	39.25
678.279	39.7
678.465	39.06
678.651	38.62
678.838	38.02
679.024	38.19
679.21	38.04
679.397	37.93
679.583	38.3
679.769	38.23
679.955	38.2
680.142	38.61
680.328	38.61
680.514	38.75
680.7	38.88
680.886	39.39
681.073	39.4
681.259	39.76
681.445	39.78
681.631	39.8
681.817	39.7
682.003	39.77
682.189	39.45
682.375	39.49
682.561	39.66
682.747	39.79
682.933	39.22
683.119	39.28
683.305	38.93
683.491	39.04
683.677	38.87
683.863	38.62
684.049	38.97
684.235	39.02
684.42	38.42
684.606	38.43
684.792	38.28
684.978	38.66
685.164	38.54
685.349	38.79
685.535	38.49
685.721	38.7
685.907	38.6
686.092	38.46
686.278	37.95
686.464	38.66
686.649	38.45
686.835	38.88
687.021	38.66
687.206	39.11
687.392	38.97
687.577	39.07
687.763	38.8
687.948	39.47
688.134	39.55
688.319	39.77
688.505	39.83
688.69	40.15
688.876	39.8
689.061	40.03
689.247	39.74
689.432	39.59
689.618	39.37
689.803	39.41
689.988	39.3
690.174	38.97
690.359	39.17
690.544	38.61
690.73	38.11
690.915	38.03
691.1	37.7
691.285	37.84
691.471	37.87
691.656	38.34
691.841	38.19
692.026	37.93
692.211	37.79
692.396	37.61
692.582	37.83
692.767	38.44
692.952	38.05
693.137	38.35
693.322	38.02
693.507	38.5
693.692	38.31
693.877	38.82
694.062	39.14
694.247	39.5
694.432	40.01
694.617	39.95
694.802	40.02
694.987	40.44
695.172	40.5
695.357	40.61
695.541	40.11
695.726	40.06
695.911	39.92
696.096	39.8
696.281	39.41
696.466	39.35
696.65	39.36
696.835	39.25
697.02	39.3
697.204	39.52
697.389	39.42
697.574	39.77
697.759	39.45
697.943	39.56
698.128	39.25
698.312	39.46
698.497	39.18
698.682	39.3
698.866	39.37
699.051	39.32
699.235	39.04
699.42	39.6
699.604	39.73
699.789	40.13
699.973	40.1
700.158	40.58
700.342	40.7
700.527	40.87
700.711	40.86
700.895	40.77
701.08	40.97
701.264	41.16
701.448	41.04
701.633	40.53
701.817	40.64
702.001	40.69
702.186	40.87
702.37	40.57
702.554	40.3
702.738	40.53
702.923	40.6
703.107	40.38
703.291	40.72
703.475	40.11
703.659	40.2
703.843	40.33
704.027	40.43
704.212	40.13
704.396	40.66
704.58	41.32
704.764	41.2
704.948	40.99
705.132	40.8
705.316	40.68
705.5	41.48
705.684	42.05
705.868	42.24
706.052	42.22
706.235	42.26
706.419	41.71
706.603	41.57
706.787	41.75
706.971	41.66
707.155	42.1
707.339	41.33
707.522	40.37
707.706	39.99
707.89	39.71
708.074	39.15
708.257	38.58
708.441	39.17
708.625	39.3
708.808	38.68
708.992	38.96
709.176	39.29
709.359	39.48
709.543	39.92
709.727	40.21
709.91	40.27
710.094	40.67
710.277	41.61
710.461	41.43
710.644	41.86
710.828	41.92
711.011	42.08
711.195	41.35
711.378	41.3
711.562	41.11
711.745	41.03
711.928	40.46
712.112	40.19
712.295	39.28
712.478	39.75
712.662	39.05
712.845	39.19
713.028	39.19
713.212	39.41
713.395	39.3
713.578	39.7
713.761	39.69
713.945	40.2
714.128	40.36
714.311	40.86
714.494	40.72
714.677	40.86
714.86	40.47
715.043	40.58
715.227	41.11
715.41	41.04
715.593	40.97
715.776	41.2
715.959	41.17
716.142	41.39
716.325	41.83
716.508	41.09
716.691	41.42
716.874	41.41
717.057	41.25
717.239	41.01
717.422	41.82
717.605	41.55
717.788	41.01
717.971	41.23
718.154	41.19
718.337	41.14
718.519	41.29
718.702	41.09
718.885	42.26
719.068	42.46
719.25	42.71
719.433	42.86
719.616	43.02
719.798	43
719.981	42.74
720.164	41.84
720.346	41.8
720.529	42.05
720.712	41.85
720.894	41.42
721.077	41.7
721.259	41.11
721.442	40.53
721.624	40.81
721.807	40.84
721.989	40.58
722.172	41.83
722.354	42.02
722.537	42.2
722.719	42.41
722.901	42.51
723.084	41.82
723.266	42.17
723.448	42.7
723.631	42.42
723.813	42.39
723.995	42.58
724.178	41.5
724.36	40.45
724.542	39.86
724.724	40.06
724.907	40.41
725.089	40.55
725.271	40.46
725.453	39.94
725.635	40.55
725.817	41.41
725.999	42.35
726.181	43.08
726.364	43.43
726.546	43.57
726.728	42.81
726.91	42.51
727.092	43
727.274	42.7
727.456	42.6
727.638	42.56
727.819	42.48
728.001	42.06
728.183	41.81
728.365	41.32
728.547	42.19
728.729	42.57
728.911	42.93
729.093	42.54
729.274	42.4
729.456	42.62
729.638	42.28
729.82	42.26
730.001	42.01
730.183	42.54
730.365	43.27
730.546	42.68
730.728	42.76
730.91	41.74
731.091	42.04
731.273	42.22
731.455	42.33
731.636	42.35
731.818	42.01
731.999	41.98
732.181	41.79
732.362	42.02
732.544	42.8
732.725	42.35
732.907	42.76
733.088	42.69
733.27	42.08
733.451	41.72
733.633	41.88
733.814	41.79
733.995	41.59
734.177	42.08
734.358	41.74
734.539	41.14
734.721	41.6
734.902	42.11
735.083	42.73
735.264	43.82
735.446	44.64
735.627	44.34
735.808	44.78
735.989	44.94
736.17	44.53
736.351	44.13
736.533	43.59
736.714	43.62
736.895	43.25
737.076	41.88
737.257	41.35
737.438	40.99
737.619	40.82
737.8	40.3
737.981	41.27
738.162	41.27
738.343	41.78
738.524	41.99
738.705	42.45
738.886	42.63
739.067	43.16
739.247	44.06
739.428	43.83
739.609	43.67
739.79	44.24
739.971	43.39
740.151	43.26
740.332	43.1
740.513	44.3
740.694	43.4
740.874	44.01
741.055	44.57
741.236	44.48
741.417	44.76
741.597	45.84
741.778	45.03
741.958	44.45
742.139	44.08
742.32	44.06
742.5	42.69
742.681	42.52
742.861	41.62
743.042	41.65
743.222	40.98
743.403	40.81
743.583	41.06
743.764	41.06
743.944	41.43
744.124	41.04
744.305	42.23
744.485	43.1
744.666	44.01
744.846	44.19
745.026	44.02
745.207	44.53
745.387	44.78
745.567	43.17
745.747	43.18
745.928	43.97
746.108	44.59
746.288	43.04
746.468	42.26
746.648	42.3
746.829	42.14
747.009	42.01
747.189	41.89
747.369	41.12
747.549	41.48
747.729	41.93
747.909	41.86
748.089	41.73
748.269	41.71
748.449	43.23
748.629	42.34
748.809	41.79
748.989	42.21
749.169	41.72
749.349	41.81
749.529	41.77
749.709	41.2
749.889	40.78
750.068	41.01
750.248	41.42
750.428	41.29
750.608	40.77
750.788	42
750.967	41.08
751.147	42.12
751.327	43.25
751.507	43.51
751.686	43.59
751.866	42.98
752.046	42.32
752.225	42.7
752.405	41.96
752.585	42.36
752.764	42.03
752.944	42.84
753.123	42.54
753.303	41.42
753.482	41.96
753.662	42.74
753.841	42.66
754.021	43.73
754.2	43.25
754.38	44.11
754.559	46.11
754.739	45.51
754.918	45.03
755.097	44.23
755.277	45.19
755.456	44.7
755.635	43.96
755.815	44.91
755.994	43.89
756.173	44.11
756.352	44.2
756.532	43.65
756.711	44.63
756.89	45.72
757.069	46.5
757.248	46.03
757.427	45.99
757.607	46.83
757.786	47.37
757.965	48.31
758.144	47.61
758.323	46.28
758.502	46.39
758.681	44.99
758.86	43.66
759.039	43.73
759.218	43.58
759.397	42.68
759.576	41.51
759.755	40.07
759.934	40.31
760.113	40.73
760.291	40.97
760.47	40.18
760.649	40.69
760.828	40.96
761.007	40.32
761.186	40.22
761.364	41.97
761.543	42.38
761.722	42.86
761.901	42.44
762.079	42.55
762.258	43.12
762.437	43.22
762.615	43.17
762.794	43.23
762.972	43.22
763.151	43.33
763.33	43.13
763.508	43.21
763.687	43.39
763.865	42.89
764.044	43.28
764.222	42.73
764.401	43.08
764.579	43.2
764.758	42.09
764.936	43.04
765.114	43.5
765.293	43.75
765.471	43.63
765.65	43.57
765.828	44.14
766.006	43.9
766.184	43.87
766.363	43.46
766.541	43.8
766.719	45.14
766.898	43.92
767.076	43.07
767.254	42.25
767.432	42.55
767.61	42.63
767.788	42.69
767.967	42.05
768.145	42
768.323	41.91
768.501	41.66
768.679	40.77
768.857	41.77
769.035	41.87
769.213	41.8
769.391	41.1
769.569	41.02
769.747	41.25
769.925	42.32
770.103	42.96
770.281	42.32
770.459	42.69
770.636	42.8
770.814	42.72
770.992	43.28
771.17	43.07
771.348	44.57
771.525	44.89
771.703	45.74
771.881	44.01
772.059	43.86
772.236	45.11
772.414	43.04
772.592	44.59
772.769	44.69
772.947	44.53
773.125	44.85
773.302	44.18
773.48	44.21
773.657	42.71
773.835	44.75
774.013	43.89
774.19	43.69
774.368	46.31
774.545	45.54
774.723	44.74
774.9	44.55
775.077	45.75
775.255	44.41
775.432	44.33
775.61	44.16
775.787	43.47
775.964	44.33
776.142	43.7
776.319	42.25
776.496	41.38
776.674	41.08
776.851	42.33
777.028	42.6
777.205	45.33
777.382	45.07
777.56	45.33
777.737	47.43
777.914	47.29
778.091	47.98
778.268	48.43
778.445	48.29
778.622	49.11
778.8	49.31
778.977	47.21
779.154	53.3
779.331	52.48
779.508	52.79
779.685	51.03
779.862	50.74
780.038	49.89
780.215	50.57
780.392	51.69
780.569	51.24
780.746	50
780.923	51.61
781.1	44.51
781.277	46.65
781.453	46.39
781.63	45.72
781.807	46.74
781.984	46.01
782.16	46.04
782.337	46.82
782.514	46.62
782.691	47.07
782.867	46.83
783.044	47
783.221	45.43
783.397	45.99
783.574	44.64
783.75	44.45
783.927	46.03
784.103	45.83
784.28	45.69
784.456	45.78
784.633	45.8
784.809	44.43
784.986	42.39
785.162	41.69
785.339	40.61
785.515	41.41
785.692	40.69
785.868	41.03
786.044	40.01
786.221	38.95
786.397	38.04
786.573	38.86
786.749	37.63
786.926	38.09
787.102	40.27
787.278	41.4
787.454	41.47
787.631	41.66
787.807	40.19
787.983	40.75
788.159	41.73
788.335	42.87
788.511	42.3
788.687	44.17
788.863	44.95
789.039	44.43
789.216	43.59
789.392	44.94
789.568	47.29
789.744	47.74
789.919	49.22
790.095	47.91
790.271	47.71
790.447	46.76
790.623	46.16
790.799	45.53
790.975	44.66
791.151	44.74
791.327	44.36
791.502	43.14
791.678	43.54
791.854	43.34
792.03	43.85
792.205	43.15
792.381	43.71
792.557	43.5
792.733	43.69
792.908	44.34
793.084	45.34
793.259	44.41
793.435	42.96
793.611	42.94
793.786	43.36
793.962	44.44
794.137	46.75
794.313	47.08
794.488	47.08
794.664	46.72
794.839	46.03
795.015	44.62
795.19	47.13
795.366	49.26
795.541	47.7
795.716	45.81
795.892	46.54
796.067	45.36
796.242	44.93
796.418	46.86
796.593	47.33
796.768	47.54
796.944	49.79
797.119	47.9
797.294	46.63
797.469	48.51
797.644	48.77
797.82	47.21
797.995	46.45
798.17	47.25
798.345	46.58
798.52	46.92
798.695	47.49
798.87	45.15
799.045	44.07
799.22	42.63
799.395	41.76
799.57	41.07
799.745	41.28
799.92	43.81
800.095	42.9
800.27	44.13
800.445	44.03
800.62	44.38
800.795	45.82
800.97	47.18
801.145	48.48
801.319	49.82
801.494	49.8
801.669	50.4
801.844	49.66
802.018	49.59
802.193	47.42
802.368	46.16
802.543	45.12
802.717	46.5
802.892	43.66
803.067	44.26
803.241	43.97
803.416	43.48
803.59	43.62
803.765	43.25
803.94	45.9
804.114	48.02
804.289	49.35
804.463	49.5
804.638	47.33
804.812	49.56
804.986	49.3
805.161	50.26
805.335	52.22
805.51	51.76
805.684	50.69
805.858	48.62
806.033	46.34
806.207	47.64
806.381	47.78
806.556	46.66
806.73	47.41
806.904	49.24
807.078	47.62
807.253	46.42
807.427	45.96
807.601	46.18
807.775	46.85
807.949	45.91
808.123	45.16
808.298	44.99
808.472	47.07
808.646	46.76
808.82	45.65
808.994	44.64
809.168	45.07
809.342	48.33
809.516	47.49
809.69	43.75
809.864	46.3
810.038	45.01
810.212	47.54
810.385	46.25
810.559	47.81
810.733	46.19
810.907	46.37
811.081	45.26
811.255	43.4
811.428	45.63
811.602	47.94
811.776	44.44
811.95	45.24
812.123	44.38
812.297	44.78
812.471	43.88
812.644	43.44
812.818	42.99
812.992	42.98
813.165	41
813.339	38.02
813.512	39.53
813.686	42
813.86	42.95
814.033	43.02
814.207	43.28
814.38	43.54
814.554	44.55
814.727	46.75
814.9	46.69
815.074	48.87
815.247	50.58
815.421	49.58
815.594	50.16
815.767	48.25
815.941	44.25
816.114	43.44
816.287	41.73
816.46	39.94
816.634	40.51
816.807	40.13
816.98	39.55
817.153	40.89
817.327	40.55
817.5	38.41
817.673	38.15
817.846	41.57
818.019	44.4
818.192	45.85
818.365	44.63
818.538	43.28
818.711	44.83
818.884	46.48
819.057	44.41
819.23	43.82
819.403	45.9
819.576	46.05
819.749	48.02
819.922	46.08
820.095	46.24
820.268	47.19
820.441	47.02
820.614	46.62
820.786	45.68
820.959	46.9
821.132	45.48
821.305	45.29
821.477	45
821.65	43.49
821.823	43.51
821.996	43.51
822.168	43.5
822.341	42.95
822.514	42.87
822.686	42.67
822.859	42.09
823.031	42.58
823.204	42.65
823.376	42.97
823.549	42.67
823.722	42.49
823.894	42.46
824.067	42.6
824.239	43.2
824.411	43.08
824.584	42.7
824.756	42.51
824.929	42.26
825.101	42
825.273	40.9
825.446	41.62
825.618	41.35
825.79	41.17
825.963	41.32
826.135	40.75
826.307	40.94
826.479	42.51
826.652	42.98
826.824	43.6
826.996	43.54
827.168	44.47
827.34	43.99
827.512	44.69
827.684	45.01
827.856	44.6
828.029	44.51
828.201	44.3
828.373	43.56
828.545	43.33
828.717	43.15
828.889	43.23
829.061	42.95
829.232	43.27
829.404	42.74
829.576	42.38
829.748	42.43
829.92	41.52
830.092	42.58
830.264	42.48
830.436	42.16
830.607	40.73
830.779	40.59
830.951	41.94
831.123	41.04
831.294	40.34
831.466	41.56
831.638	43.53
831.809	44.21
831.981	42.29
832.153	41.31
832.324	41.7
832.496	42.35
832.667	43.85
832.839	42
833.011	42.28
833.182	44.2
833.354	41.55
833.525	38.66
833.697	38.7
833.868	39.57
834.039	38.12
834.211	37.94
834.382	38.51
834.554	38.3
834.725	37.22
834.896	38.93
835.068	39.18
835.239	39.49
835.41	40.49
835.581	41.92
835.753	42.46
835.924	44.9
836.095	47.08
836.266	48.03
836.438	46.9
836.609	48.56
836.78	45.81
836.951	44.97
837.122	46.02
837.293	47.69
837.464	48.92
837.635	49.35
837.806	48.92
837.977	47.36
838.148	48.4
838.319	49.97
838.49	51.54
838.661	54.42
838.832	53.02
839.003	54.01
839.174	51.6
839.345	50.75
839.516	49.16
839.687	47.86
839.857	47.99
840.028	44.57
840.199	44.86
840.37	43.34
840.54	43.95
840.711	46.62
840.882	45.29
841.053	47.43
841.223	42.21
841.394	44.71
841.564	43.25
841.735	45.15
841.906	48.07
842.076	46.81
842.247	48.51
842.417	49.32
842.588	52.84
842.758	57.31
842.929	58.73
843.099	62.12
843.27	62.42
843.44	64.78
843.611	60.44
843.781	62.2
843.951	65.77
844.122	65.43
844.292	66.17
844.462	62.11
844.633	55.36
844.803	49.28
844.973	52.57
845.144	49.76
845.314	45.93
845.484	49.21
845.654	42.69
845.824	42.19
845.995	36.46
846.165	35.07
846.335	34.28
846.505	33.77
846.675	43.36
846.845	32.74
847.015	32.21
847.185	37.81
847.355	37.92
847.525	42.75
847.695	43.02
847.865	49.13
848.035	51.04
848.205	51.48
848.375	55.38
848.545	50.4
848.715	58.58
848.884	59.91
849.054	56.25
849.224	52.99
849.394	54.39
849.564	49.89
849.733	44.66
849.903	48.08
850.073	49.54
850.243	50.37
850.412	57.35
850.582	50.57
850.752	43.98
850.921	39.31
851.091	52.46
851.26	52.25
851.43	55.28
851.599	58.27
851.769	53.28
851.939	50.24
852.108	50.71
852.278	39.79
852.447	42.77
852.616	50.75
852.786	52.01
852.955	50.14
853.125	50.24
853.294	50.22
853.463	52.31
853.633	55.23
853.802	52.97
853.971	49.78
854.141	59.81
854.31	69.89
854.479	68.41
854.648	68.6
854.818	67.85
854.987	65.52
855.156	71
855.325	66.31
855.494	67.87
855.663	71.07
855.832	66.88
856.001	64.63
856.171	50.23
856.34	52.32
856.509	49.59
856.678	48.9
856.847	36.84
857.016	26.33
857.185	27.3
857.353	19.35
857.522	16.82
857.691	17.11
857.86	17.55
858.029	26.89
858.198	26.28
858.367	28.66
858.535	31.57
858.704	41.93
858.873	45.23
859.042	41.07
859.21	44.19
859.379	48.33
859.548	47.68
859.717	51.67
859.885	56.44
860.054	57.86
860.222	56.04
860.391	47.55
860.56	47.56
860.728	47.05
860.897	48.77
861.065	48.06
861.234	43.35
861.402	53.37
861.571	52.35
861.739	53.82
861.908	51.05
862.076	53.45
862.244	58.5
862.413	62.62
862.581	65.1
862.749	73.31
862.918	71.46
863.086	78.05
863.254	74.02
863.423	73.64
863.591	68.82
863.759	67.4
863.927	69.27
864.096	69.55
864.264	65.8
864.432	67.78
864.6	66.94
864.768	73.09
864.936	63.65
865.104	66.99
865.272	72.56
865.44	75.29
865.608	75.1
865.776	68.47
865.944	68.34
866.112	63.48
866.28	51.2
866.448	43.31
866.616	41.63
866.784	50.78
866.952	49.12
867.12	44.72
867.288	46.83
867.455	49.01
867.623	48.27
867.791	49.97
867.959	45.26
868.127	53.44
868.294	56.4
868.462	51.95
868.63	44.89
868.797	42.87
868.965	44.04
869.133	41.06
869.3	42.18
869.468	47
869.636	49.05
869.803	56.18
869.971	61.19
870.138	61.44
870.306	63.85
870.473	66.23
870.641	60.64
870.808	66.44
870.975	61.67
871.143	62.02
871.31	66.03
871.478	64.96
871.645	68.28
871.812	65.71
871.98	61.86
872.147	60.66
872.314	55.76
872.482	67.08
872.649	53.59
872.816	53.62
872.983	56.96
873.15	53.25
873.318	48.9
873.485	41.24
873.652	43.4
873.819	47.22
873.986	52.58
874.153	52.57
874.32	48.28
874.487	48.8
874.654	54.71
874.821	45.57
874.988	41.86
875.155	48.85
875.322	60.62
875.489	49.33
875.656	46.63
875.823	44.34
875.99	48.25
876.157	48.87
876.324	54.52
876.49	50.35
876.657	47.77
876.824	53.67
876.991	43.46
877.157	36.78
877.324	43.4
877.491	42.42
877.658	43.78
877.824	46.28
877.991	48.66
878.157	54.7
878.324	58.15
878.491	61.5
878.657	59.88
878.824	65.8
878.99	65.19
879.157	63.46
879.323	64.01
879.49	57.05
879.656	52.61
879.823	50.85
879.989	40.86
880.156	39.81
880.322	36.67
880.488	37.71
880.655	33.05
880.821	35.11
880.987	38.17
881.154	34.99
881.32	34.76
881.486	34.29
881.652	34.23
881.819	35.54
881.985	36.25
882.151	38.25
882.317	36.91
882.483	38.73
882.649	39.26
882.816	38.87
882.982	39.43
883.148	41.73
883.314	41.72
883.48	40.97
883.646	42.17
883.812	41.46
883.978	42.47
884.144	43.51
884.31	42.72
884.476	42.49
884.642	44.26
884.807	44.1
884.973	43.56
885.139	43.66
885.305	44.72
885.471	43.72
885.637	44.42
885.802	44.53
885.968	44.48
886.134	45.41
886.3	44.7
886.465	42.79
886.631	44.74
886.797	44.84
886.962	44.26
887.128	44.75
887.293	44.78
887.459	45.81
887.625	41.68
887.79	42.28
887.956	42.39
888.121	44.83
888.287	45.77
888.452	43.5
888.618	42.99
888.783	45.52
