Data from LC_273_Reflection_5.txt Node
Date: Sat Nov 21 12:22:43 EST 2015
User: robert
Spectrometer: USB4E03001
Autoset integration time: false
Trigger mode: 4
Integration Time (sec): 1.000000E-1
Scans to average: 15
Electric dark correction enabled: true
Nonlinearity correction enabled: false
Boxcar width: 5
Stray light correction enabled: false
XAxis mode: Wavelengths
Stop averaging: false
Number of Pixels in Spectrum: 3648
>>>>>Begin Spectral Data<<<<<
177.566	-165.61
177.785	-35.56
178.005	-1.63
178.225	154.42
178.445	663.19
178.665	1700
178.885	64.95
179.105	294.95
179.324	99.54
179.544	97.16
179.764	667.6
179.984	112.9
180.204	76.16
180.423	52.15
180.643	78.35
180.863	127.59
181.083	161.04
181.302	173.22
181.522	159.5
181.742	179.7
181.961	185.09
182.181	154.71
182.401	304.73
182.621	278.58
182.84	315.73
183.06	314.18
183.279	255.17
183.499	233.51
183.719	208.97
183.938	203.95
184.158	221.08
184.377	213.36
184.597	233.32
184.816	210.14
185.036	211.18
185.256	205.37
185.475	161.83
185.695	157.14
185.914	141.12
186.134	135.41
186.353	155.16
186.572	164.34
186.792	155.79
187.011	149.79
187.231	149.4
187.45	146.8
187.67	169.59
187.889	201.23
188.108	285.97
188.328	340.57
188.547	365.51
188.766	329.47
188.986	370.47
189.205	605.32
189.424	1063.14
189.644	745.3
189.863	-544.85
190.082	-879.29
190.302	1477.2
190.521	192.74
190.74	236.67
190.959	323.72
191.178	335.66
191.398	196.76
191.617	219.06
191.836	266.19
192.055	278.66
192.274	175.48
192.494	182.39
192.713	179.19
192.932	211.78
193.151	185.61
193.37	166.75
193.589	150.91
193.808	187.84
194.027	187.42
194.246	150.44
194.465	139.62
194.685	157.72
194.904	149.15
195.123	165.44
195.342	198.25
195.561	236.65
195.78	177.75
195.999	204.27
196.218	192.59
196.436	208.56
196.655	222.56
196.874	219.15
197.093	245.22
197.312	271.08
197.531	258.82
197.75	186.39
197.969	166.19
198.188	227.33
198.407	242.51
198.625	234.93
198.844	217.83
199.063	201.45
199.282	199.88
199.501	204.09
199.719	193.66
199.938	201.69
200.157	200.12
200.376	202.99
200.594	156.74
200.813	132.52
201.032	137.26
201.251	117.62
201.469	132.86
201.688	210.85
201.907	217.49
202.125	174.46
202.344	171.2
202.563	231.83
202.781	256.25
203	273.34
203.218	250.62
203.437	502.59
203.656	978.35
203.874	1010.17
204.093	472.91
204.311	372.53
204.53	564.16
204.748	489.99
204.967	459.77
205.185	315.16
205.404	301.7
205.622	774.01
205.841	429.75
206.059	303.02
206.278	294.86
206.496	305.69
206.715	632.84
206.933	440.16
207.151	414.93
207.37	273.73
207.588	397.15
207.806	396.94
208.025	217.16
208.243	213.87
208.461	213.04
208.68	214.38
208.898	251.79
209.116	183.83
209.335	188
209.553	220.04
209.771	300.74
209.989	283.9
210.208	316.69
210.426	415.45
210.644	434.43
210.862	730.03
211.081	580.06
211.299	311.45
211.517	316.57
211.735	298.09
211.953	212.82
212.171	162.11
212.39	149.42
212.608	122.68
212.826	134.71
213.044	132.72
213.262	109.06
213.48	113.31
213.698	120.47
213.916	138.47
214.134	111.88
214.352	119.33
214.57	109.32
214.788	126.4
215.006	144.93
215.224	127.5
215.442	146.6
215.66	173.71
215.878	186.34
216.096	227.11
216.314	208.71
216.532	224.66
216.75	217.23
216.968	271.64
217.185	214.17
217.403	234.97
217.621	240.28
217.839	214.92
218.057	210.39
218.275	183.24
218.492	151.38
218.71	149.33
218.928	180.95
219.146	164.41
219.363	161.47
219.581	298.2
219.799	195.75
220.017	157.5
220.234	171.53
220.452	162.25
220.67	161.02
220.887	183.81
221.105	181.51
221.323	188.05
221.54	206.29
221.758	158.72
221.976	134.03
222.193	161.43
222.411	159.91
222.629	125.84
222.846	141.13
223.064	136.52
223.281	120.81
223.499	130.54
223.716	114.42
223.934	111.01
224.151	131.26
224.369	122.03
224.586	106.68
224.804	98.06
225.021	133.45
225.239	114.93
225.456	120.69
225.674	113.76
225.891	93.2
226.108	89.84
226.326	85.11
226.543	83.51
226.76	85.91
226.978	79.74
227.195	72.83
227.413	57.54
227.63	57.4
227.847	49.1
228.064	48.79
228.282	46.5
228.499	43.01
228.716	40.83
228.934	36.33
229.151	33.82
229.368	31.78
229.585	34.26
229.802	36.36
230.02	34.34
230.237	35.39
230.454	35.74
230.671	36.46
230.888	38.75
231.105	36.09
231.323	38.84
231.54	39.04
231.757	42.58
231.974	42.09
232.191	38.93
232.408	41.47
232.625	43.58
232.842	38.96
233.059	37.84
233.276	41.14
233.493	49.52
233.71	45.71
233.927	44.46
234.144	44.22
234.361	41.1
234.578	41.3
234.795	39.95
235.012	36.19
235.229	38.29
235.446	36.17
235.663	30.97
235.879	25.33
236.096	24.9
236.313	31.27
236.53	30.6
236.747	35.27
236.964	34.34
237.181	38.42
237.397	43.05
237.614	40.96
237.831	44.64
238.048	46.36
238.264	45.39
238.481	45.92
238.698	42.61
238.915	40.48
239.131	30.93
239.348	32.66
239.565	28.8
239.781	28.9
239.998	29.54
240.215	28.37
240.431	21.92
240.648	23
240.865	20.64
241.081	17.49
241.298	17.56
241.514	23.52
241.731	21.88
241.947	23.54
242.164	22.88
242.38	21.65
242.597	22.21
242.814	24.23
243.03	24.51
243.246	24.59
243.463	25.55
243.679	27.01
243.896	25.76
244.112	29.08
244.329	29.27
244.545	28.64
244.762	31.38
244.978	29.73
245.194	27.83
245.411	28.15
245.627	25.82
245.843	22.43
246.06	19.64
246.276	18.85
246.492	16.55
246.709	14.71
246.925	15.14
247.141	14.18
247.357	13.37
247.574	13.21
247.79	12.76
248.006	13.04
248.222	13.13
248.439	13.93
248.655	14.87
248.871	14.94
249.087	16.28
249.303	15.01
249.519	15.81
249.736	17.82
249.952	19.2
250.168	21.23
250.384	22.92
250.6	24.75
250.816	25.81
251.032	26.19
251.248	25.47
251.464	23.5
251.68	24.29
251.896	23
252.112	22.72
252.328	21.7
252.544	20.88
252.76	20.21
252.976	20.97
253.192	20.4
253.408	19.13
253.624	21.9
253.84	23.76
254.056	23.66
254.272	23.08
254.487	25.08
254.703	27.65
254.919	27.77
255.135	28.31
255.351	27.62
255.567	25.09
255.782	22.24
255.998	20.39
256.214	17.5
256.43	18.65
256.646	21.9
256.861	17.76
257.077	18.54
257.293	18.49
257.508	19.71
257.724	20.48
257.94	22.03
258.155	22.47
258.371	20.6
258.587	19.85
258.802	19.91
259.018	17.55
259.234	17.69
259.449	16.14
259.665	15.24
259.88	14.86
260.096	14.04
260.312	13.35
260.527	13.31
260.743	13.32
260.958	13.52
261.174	13.01
261.389	13.84
261.605	13.65
261.82	14.35
262.036	15.22
262.251	15.03
262.466	15.67
262.682	15.52
262.897	14.7
263.113	15.66
263.328	16.86
263.543	18.58
263.759	18
263.974	19.23
264.189	19.7
264.405	20.37
264.62	21.98
264.835	22.41
265.051	24.06
265.266	26.21
265.481	24.24
265.696	24.4
265.912	23.08
266.127	21.71
266.342	21.35
266.557	20.49
266.773	19.27
266.988	17.05
267.203	15.67
267.418	14.55
267.633	14.41
267.848	14.45
268.064	12.48
268.279	11.77
268.494	12.7
268.709	13.37
268.924	12.58
269.139	11.53
269.354	12.41
269.569	12.33
269.784	13.07
269.999	11.8
270.214	12.49
270.429	13.09
270.644	12.7
270.859	12.44
271.074	10.48
271.289	10.86
271.504	11.99
271.719	11.59
271.934	13.65
272.149	13.65
272.363	13.16
272.578	12.83
272.793	12.88
273.008	14.34
273.223	14.12
273.438	15.18
273.653	16.06
273.867	16.02
274.082	16.5
274.297	14.86
274.512	14.21
274.726	16.03
274.941	16.69
275.156	16.93
275.371	15.72
275.585	16.8
275.8	16.2
276.015	14.3
276.229	13.79
276.444	14.97
276.659	15.64
276.873	17.12
277.088	16.61
277.302	16.04
277.517	16.76
277.732	16.55
277.946	15.85
278.161	16.21
278.375	16.88
278.59	18.42
278.804	16.09
279.019	16.06
279.233	15.23
279.448	14.89
279.662	14.71
279.877	14.13
280.091	15.3
280.306	13.8
280.52	13.03
280.735	13.83
280.949	12.36
281.163	13.32
281.378	12.76
281.592	12.52
281.806	12.96
282.021	13.33
282.235	12.55
282.449	12.19
282.664	12.68
282.878	13.01
283.092	14.27
283.307	14.32
283.521	14.09
283.735	13.96
283.949	14.01
284.164	12.79
284.378	12.25
284.592	11.53
284.806	11.69
285.02	11.85
285.234	11.48
285.449	9.59
285.663	10.36
285.877	10.41
286.091	11.65
286.305	11.58
286.519	11.92
286.733	12.11
286.947	13.38
287.161	12.74
287.375	13.01
287.589	13.18
287.803	14.25
288.017	13.95
288.231	13.95
288.445	13.04
288.659	13.1
288.873	13.89
289.087	14.11
289.301	13.41
289.515	13.93
289.729	14.96
289.943	14.96
290.157	14.95
290.371	14.68
290.584	14.61
290.798	14.96
291.012	15.31
291.226	15.41
291.44	15.47
291.654	15.41
291.867	15.29
292.081	15.1
292.295	16.1
292.509	16.11
292.722	17.27
292.936	18.37
293.15	17.87
293.364	17.51
293.577	15.87
293.791	16.25
294.005	16.43
294.218	16.89
294.432	15.69
294.645	15.91
294.859	15.26
295.073	13.87
295.286	13.04
295.5	13.43
295.713	13.17
295.927	13.35
296.14	13.54
296.354	13.57
296.568	13.12
296.781	13.39
296.994	12.64
297.208	12.47
297.421	13.2
297.635	13.76
297.848	13.12
298.062	13.39
298.275	14.14
298.489	13.97
298.702	13.82
298.915	14.01
299.129	14.15
299.342	14.51
299.555	15.85
299.769	16.26
299.982	16.32
300.195	16.92
300.409	17.24
300.622	17.1
300.835	17.33
301.048	18.92
301.262	19.12
301.475	19.63
301.688	19.79
301.901	19.18
302.115	18.32
302.328	18.28
302.541	18.58
302.754	18.65
302.967	19.21
303.18	19.22
303.393	18.61
303.607	18.22
303.82	18.18
304.033	17.75
304.246	17.64
304.459	18.48
304.672	18.09
304.885	18.46
305.098	18.51
305.311	17.83
305.524	17.16
305.737	16.23
305.95	16.34
306.163	15.1
306.376	15.44
306.589	15.1
306.802	14.68
307.015	14.51
307.228	14.25
307.44	13.17
307.653	14.13
307.866	13.97
308.079	14.62
308.292	13.64
308.505	14.48
308.718	14.04
308.93	14.54
309.143	13.6
309.356	13.75
309.569	12.87
309.781	14.19
309.994	13.2
310.207	14.18
310.42	13.3
310.632	13.53
310.845	13.8
311.058	14.3
311.27	14.31
311.483	15.26
311.696	15.45
311.908	16.16
312.121	15.82
312.333	17.24
312.546	16.48
312.759	18.08
312.971	19.02
313.184	19.74
313.396	18.96
313.609	18.42
313.821	17.69
314.034	18.24
314.246	19.03
314.459	18.81
314.671	17.28
314.884	18.41
315.096	17.75
315.309	17.51
315.521	17.65
315.733	18.77
315.946	19.37
316.158	19.42
316.371	19.84
316.583	19.47
316.795	20.11
317.008	21.23
317.22	20.78
317.432	21.45
317.644	20.95
317.857	20.54
318.069	19.49
318.281	19.71
318.494	20.44
318.706	19.94
318.918	19.5
319.13	18.91
319.342	18.74
319.555	17.9
319.767	17.56
319.979	17.76
320.191	17.81
320.403	19.21
320.615	19.38
320.827	19.83
321.039	19.46
321.252	20.02
321.464	20.28
321.676	19.59
321.888	20.59
322.1	20.91
322.312	21.18
322.524	20.87
322.736	21.36
322.948	22.15
323.16	22.6
323.372	23.09
323.584	23.72
323.796	25.03
324.007	26.22
324.219	26.33
324.431	26.51
324.643	27.79
324.855	27.8
325.067	28.37
325.279	28.08
325.491	27.81
325.702	28.07
325.914	28
326.126	27.62
326.338	26.03
326.55	26.81
326.761	27.25
326.973	27.61
327.185	28.9
327.396	28.76
327.608	28.97
327.82	29.51
328.032	29.62
328.243	30.26
328.455	31.4
328.666	34.32
328.878	35.79
329.09	35.52
329.301	36.39
329.513	36.65
329.725	37.52
329.936	38.38
330.148	38.6
330.359	40.15
330.571	41.17
330.782	40.94
330.994	41.31
331.205	41.06
331.417	42.45
331.628	43.34
331.84	43.25
332.051	43.86
332.262	43.71
332.474	45.56
332.685	45.74
332.897	45.73
333.108	46.03
333.319	45.95
333.531	46.54
333.742	48.04
333.953	47.55
334.165	49.19
334.376	49.43
334.587	50.76
334.799	50.55
335.01	51.08
335.221	51.71
335.432	52.47
335.644	52.49
335.855	52.74
336.066	52.81
336.277	53.63
336.488	52.47
336.7	51.56
336.911	51.4
337.122	51.33
337.333	51.23
337.544	51.26
337.755	51.17
337.966	51.18
338.177	50.33
338.388	50.03
338.599	49.6
338.811	50.24
339.022	51.14
339.233	51.22
339.444	51.55
339.655	51.6
339.866	51.53
340.076	51.79
340.287	52.01
340.498	52.38
340.709	51.9
340.92	51.82
341.131	52.02
341.342	51.52
341.553	52.23
341.764	52.04
341.975	52
342.185	51.12
342.396	50.84
342.607	51.21
342.818	52.52
343.029	52.63
343.239	53.1
343.45	52.31
343.661	52.88
343.872	52.29
344.082	52.52
344.293	52.25
344.504	52.53
344.714	52.58
344.925	52.31
345.136	51.44
345.346	51.68
345.557	51.5
345.768	51.92
345.978	50.92
346.189	50.8
346.399	50.27
346.61	50.84
346.821	51.23
347.031	51.08
347.242	51.2
347.452	51.3
347.663	51.54
347.873	51.59
348.084	51.34
348.294	51.74
348.504	51.83
348.715	52.17
348.925	51.32
349.136	50.8
349.346	51.05
349.557	50.78
349.767	51.06
349.977	50.81
350.188	50.04
350.398	50.82
350.608	50.58
350.819	50.53
351.029	50.09
351.239	50.51
351.449	51.29
351.66	51.82
351.87	51.77
352.08	51.44
352.29	50.97
352.501	50.95
352.711	50.4
352.921	50.87
353.131	50.5
353.341	50.59
353.552	50.49
353.762	50.48
353.972	49.43
354.182	48.99
354.392	48.71
354.602	48.71
354.812	48.99
355.022	49.2
355.232	49.77
355.442	49.75
355.652	50.47
355.862	50.83
356.072	50.39
356.282	50.8
356.492	51.3
356.702	50.94
356.912	50.74
357.122	51.07
357.332	50.35
357.542	49.71
357.752	49.43
357.962	47.78
358.171	47.13
358.381	47.4
358.591	47.05
358.801	47.08
359.011	47.42
359.221	46.96
359.43	46.63
359.64	46.77
359.85	46.86
360.06	47.07
360.269	48.61
360.479	48.71
360.689	48.02
360.899	47.94
361.108	47.43
361.318	47.45
361.528	47.86
361.737	47.58
361.947	47.69
362.156	47.41
362.366	47.72
362.576	46.5
362.785	45.96
362.995	46.17
363.204	46.17
363.414	46.48
363.623	46.63
363.833	46.56
364.042	46.92
364.252	46.59
364.461	46.4
364.671	45.93
364.88	46.34
365.09	46.56
365.299	46.4
365.509	46.32
365.718	46.36
365.927	46.15
366.137	45.85
366.346	45.36
366.555	45.26
366.765	45.65
366.974	45.55
367.183	45.9
367.393	46.3
367.602	46.27
367.811	46.59
368.021	46.24
368.23	46.08
368.439	45.76
368.648	45.71
368.857	46.27
369.067	45.57
369.276	46.03
369.485	45.72
369.694	45.14
369.903	44.65
370.112	44.24
370.321	44.01
370.531	43.52
370.74	43.56
370.949	43.09
371.158	42.58
371.367	43.12
371.576	42.12
371.785	41.58
371.994	41.38
372.203	41.65
372.412	41.69
372.621	41.5
372.83	41.45
373.039	41.5
373.248	41.72
373.457	41.7
373.666	41.46
373.874	41.5
374.083	41.91
374.292	42.03
374.501	41.94
374.71	41.39
374.919	41.35
375.128	41.68
375.336	41.86
375.545	41.91
375.754	41.65
375.963	40.91
376.171	40.56
376.38	40.23
376.589	40.01
376.798	39.35
377.006	39.41
377.215	39.5
377.424	39
377.632	38.82
377.841	38.74
378.05	38.4
378.258	38.64
378.467	39.08
378.675	39.06
378.884	38.74
379.093	38.78
379.301	38.77
379.51	38.62
379.718	38.34
379.927	38.47
380.135	38.11
380.344	38.11
380.552	37.51
380.761	37.49
380.969	37.42
381.177	37.74
381.386	38.22
381.594	37.72
381.803	37.31
382.011	37.52
382.219	36.98
382.428	36.99
382.636	36.74
382.845	37.27
383.053	36.9
383.261	36.55
383.469	36.21
383.678	35.46
383.886	35.5
384.094	35.26
384.302	34.93
384.511	34.64
384.719	34.02
384.927	34.1
385.135	34.19
385.343	33.97
385.552	34.07
385.76	34.35
385.968	34.68
386.176	34.54
386.384	34.42
386.592	34.11
386.8	34.08
387.008	34.47
387.216	34.83
387.424	34.6
387.633	34.64
387.841	34.52
388.049	34.12
388.257	34.19
388.465	34.29
388.672	34.36
388.88	34.61
389.088	34.32
389.296	33.97
389.504	33.24
389.712	32.95
389.92	32.84
390.128	32.63
390.336	32.58
390.544	32.14
390.751	32.14
390.959	32
391.167	31.94
391.375	32.04
391.583	31.91
391.79	31.83
391.998	31.83
392.206	31.76
392.414	31.45
392.621	31.35
392.829	31.2
393.037	30.73
393.244	30.74
393.452	30.46
393.66	30.56
393.867	30.72
394.075	31.17
394.283	30.85
394.49	30.71
394.698	30.96
394.905	30.68
395.113	30.66
395.32	30.82
395.528	30.74
395.735	30.69
395.943	30.29
396.15	30.28
396.358	29.62
396.565	29.69
396.773	29.78
396.98	29.65
397.188	29.61
397.395	29.5
397.602	29.41
397.81	29.39
398.017	29.3
398.225	29.5
398.432	29.44
398.639	29.72
398.847	29.97
399.054	29.56
399.261	29.6
399.468	29.65
399.676	29.85
399.883	29.77
400.09	29.69
400.297	29.88
400.505	29.68
400.712	29.46
400.919	29.19
401.126	28.96
401.333	29.23
401.54	29.25
401.748	29.2
401.955	29.08
402.162	29.37
402.369	29.24
402.576	28.84
402.783	28.91
402.99	28.56
403.197	28.8
403.404	28.65
403.611	28.68
403.818	28.71
404.025	28.7
404.232	28.71
404.439	28.42
404.646	28.47
404.853	28.73
405.06	28.84
405.267	29.26
405.474	29.28
405.681	29.41
405.887	29.05
406.094	29
406.301	29.01
406.508	28.8
406.715	28.87
406.922	28.81
407.128	28.81
407.335	28.51
407.542	28.45
407.749	28.23
407.955	28.4
408.162	28.3
408.369	28.37
408.575	28.45
408.782	28.44
408.989	28.47
409.195	28.63
409.402	28.48
409.609	28.45
409.815	28
410.022	28.25
410.228	28.01
410.435	28.25
410.642	28.06
410.848	28.1
411.055	28.06
411.261	27.93
411.468	27.55
411.674	27.34
411.881	27.47
412.087	27.93
412.294	27.86
412.5	28.04
412.706	27.91
412.913	27.8
413.119	27.81
413.326	28.2
413.532	28.41
413.738	28.58
413.945	29.05
414.151	28.93
414.357	28.86
414.564	28.85
414.77	28.97
414.976	28.96
415.182	29.02
415.389	28.92
415.595	28.71
415.801	28.52
416.007	28.81
416.214	28.69
416.42	28.85
416.626	28.88
416.832	28.63
417.038	28.36
417.244	28.33
417.45	28.47
417.657	28.53
417.863	28.55
418.069	28.64
418.275	28.49
418.481	28.25
418.687	28.15
418.893	27.85
419.099	27.73
419.305	27.67
419.511	27.72
419.717	27.52
419.923	27.36
420.129	27.32
420.335	27.14
420.541	27.04
420.746	26.98
420.952	26.93
421.158	26.96
421.364	27.11
421.57	27.08
421.776	27.21
421.982	27.19
422.187	27.13
422.393	27.05
422.599	27.04
422.805	27.07
423.01	27.12
423.216	27.09
423.422	27.1
423.628	27.06
423.833	27.03
424.039	26.87
424.245	26.78
424.45	26.9
424.656	26.83
424.862	26.87
425.067	26.82
425.273	26.87
425.478	26.94
425.684	27.06
425.889	27.04
426.095	27.08
426.301	27.09
426.506	27.18
426.712	26.99
426.917	26.91
427.123	26.82
427.328	26.72
427.533	26.69
427.739	26.52
427.944	26.43
428.15	26.25
428.355	26.26
428.561	26.23
428.766	26.13
428.971	26.14
429.177	26.43
429.382	26.65
429.587	26.62
429.793	26.66
429.998	26.88
430.203	26.62
430.408	26.82
430.614	26.76
430.819	26.74
431.024	26.77
431.229	26.87
431.434	26.84
431.64	26.73
431.845	26.83
432.05	26.83
432.255	26.72
432.46	26.94
432.665	26.79
432.87	26.69
433.076	26.68
433.281	26.61
433.486	26.57
433.691	26.68
433.896	26.56
434.101	26.68
434.306	26.74
434.511	26.68
434.716	26.64
434.921	26.57
435.126	26.77
435.331	26.79
435.535	26.96
435.74	27
435.945	26.65
436.15	26.81
436.355	26.78
436.56	26.88
436.765	27.07
436.97	27.09
437.174	27.29
437.379	27.23
437.584	27.21
437.789	27.19
437.993	27.29
438.198	27.43
438.403	27.36
438.608	27.4
438.812	27.15
439.017	27.04
439.222	27.06
439.426	26.97
439.631	27
439.836	26.91
440.04	26.87
440.245	26.85
440.45	26.83
440.654	26.72
440.859	26.59
441.063	26.58
441.268	26.54
441.472	26.48
441.677	26.64
441.881	26.58
442.086	26.65
442.29	26.75
442.495	26.62
442.699	26.6
442.904	26.61
443.108	26.5
443.312	26.57
443.517	26.6
443.721	26.59
443.925	26.23
444.13	26.13
444.334	25.99
444.538	25.88
444.743	25.92
444.947	25.72
445.151	25.84
445.356	25.98
445.56	25.89
445.764	25.75
445.968	25.78
446.173	25.88
446.377	25.87
446.581	25.92
446.785	25.78
446.989	25.68
447.193	25.87
447.398	25.74
447.602	25.61
447.806	25.64
448.01	25.65
448.214	25.58
448.418	25.53
448.622	25.59
448.826	25.44
449.03	25.38
449.234	25.41
449.438	25.27
449.642	25.26
449.846	25.37
450.05	25.31
450.254	25.3
450.458	25.17
450.662	25.28
450.866	25.23
451.069	25.39
451.273	25.4
451.477	25.35
451.681	25.22
451.885	25.21
452.089	25.09
452.292	25.03
452.496	25.06
452.7	25.12
452.904	24.82
453.107	24.68
453.311	24.68
453.515	24.78
453.719	24.88
453.922	25.08
454.126	25.01
454.33	25.07
454.533	25.06
454.737	25.03
454.94	25.1
455.144	25.28
455.348	25.27
455.551	25.09
455.755	25.23
455.958	25.15
456.162	25.07
456.365	25.24
456.569	25.18
456.772	25.06
456.976	25.08
457.179	25.06
457.383	25.16
457.586	25.08
457.79	25.28
457.993	25.18
458.196	25.24
458.4	25.31
458.603	25.31
458.807	25.42
459.01	25.52
459.213	25.48
459.417	25.56
459.62	25.5
459.823	25.53
460.026	25.53
460.23	25.57
460.433	25.47
460.636	25.48
460.839	25.47
461.042	25.5
461.246	25.54
461.449	25.65
461.652	25.64
461.855	25.72
462.058	25.88
462.261	25.86
462.464	25.96
462.668	26.05
462.871	26.11
463.074	26.15
463.277	26.16
463.48	26.14
463.683	26.09
463.886	26.1
464.089	26.17
464.292	26.16
464.495	26.11
464.698	26.14
464.901	26.3
465.104	26.44
465.306	26.5
465.509	26.55
465.712	26.6
465.915	26.7
466.118	26.68
466.321	26.6
466.524	26.74
466.726	26.93
466.929	26.81
467.132	26.8
467.335	26.8
467.538	26.85
467.74	26.8
467.943	26.84
468.146	26.93
468.348	27.09
468.551	27.23
468.754	27.33
468.956	27.38
469.159	27.42
469.362	27.44
469.564	27.51
469.767	27.6
469.969	27.77
470.172	27.83
470.375	27.8
470.577	27.97
470.78	27.89
470.982	27.85
471.185	27.77
471.387	27.9
471.59	27.9
471.792	27.94
471.995	27.93
472.197	27.9
472.399	27.98
472.602	27.93
472.804	27.54
473.007	27.54
473.209	27.54
473.411	27.62
473.614	27.59
473.816	27.74
474.018	27.6
474.22	27.58
474.423	27.65
474.625	27.54
474.827	27.63
475.03	27.79
475.232	27.97
475.434	28.06
475.636	27.92
475.838	28.15
476.04	28.01
476.243	27.88
476.445	27.97
476.647	27.87
476.849	27.91
477.051	27.88
477.253	27.94
477.455	27.74
477.657	27.49
477.859	27.48
478.061	27.21
478.263	27.33
478.465	27.48
478.667	27.35
478.869	27.24
479.071	27.33
479.273	27.33
479.475	27.14
479.677	27.21
479.879	27.33
480.081	27.36
480.283	27.41
480.485	27.29
480.686	27.25
480.888	27.3
481.09	27.43
481.292	27.34
481.494	27.22
481.695	27.25
481.897	27.22
482.099	27.18
482.301	27.19
482.502	27.28
482.704	27.36
482.906	27.34
483.107	27.28
483.309	27.17
483.511	27.18
483.712	27.19
483.914	27.24
484.115	27.22
484.317	27.19
484.519	27.2
484.72	27.08
484.922	26.99
485.123	26.99
485.325	27.03
485.526	27.08
485.728	27.06
485.929	27.12
486.131	27.05
486.332	27.05
486.534	27.09
486.735	27.11
486.936	27.3
487.138	27.38
487.339	27.42
487.541	27.43
487.742	27.5
487.943	27.54
488.144	27.5
488.346	27.58
488.547	27.6
488.748	27.57
488.95	27.55
489.151	27.55
489.352	27.52
489.553	27.52
489.755	27.54
489.956	27.53
490.157	27.54
490.358	27.66
490.559	27.74
490.76	27.91
490.961	28.11
491.163	28.26
491.364	28.37
491.565	28.54
491.766	28.66
491.967	28.74
492.168	28.82
492.369	28.86
492.57	28.93
492.771	29
492.972	29.03
493.173	29.12
493.374	29.22
493.575	29.25
493.776	29.21
493.976	29.27
494.177	29.44
494.378	29.56
494.579	29.91
494.78	30.02
494.981	30.31
495.182	30.67
495.382	30.88
495.583	31.04
495.784	31.22
495.985	31.44
496.185	31.65
496.386	31.68
496.587	31.88
496.788	31.93
496.988	31.96
497.189	31.96
497.39	31.87
497.59	32.03
497.791	32.19
497.992	32.23
498.192	32.3
498.393	32.42
498.593	32.61
498.794	32.68
498.994	32.91
499.195	33.17
499.395	33.36
499.596	33.55
499.796	33.63
499.997	33.84
500.197	34.06
500.398	34.28
500.598	34.4
500.799	34.59
500.999	34.78
501.199	34.86
501.4	35.17
501.6	35.39
501.801	35.59
502.001	35.86
502.201	35.95
502.402	36.18
502.602	36.54
502.802	36.79
503.002	37.06
503.203	37.3
503.403	37.44
503.603	37.65
503.803	37.78
504.003	38.07
504.204	38.24
504.404	38.42
504.604	38.55
504.804	38.76
505.004	38.87
505.204	39
505.404	39.11
505.604	39.25
505.804	39.32
506.005	39.63
506.205	39.83
506.405	39.95
506.605	40.22
506.805	40.46
507.005	40.62
507.204	40.81
507.404	41
507.604	41.36
507.804	41.52
508.004	41.74
508.204	42.07
508.404	42.28
508.604	42.47
508.804	42.75
509.003	42.98
509.203	43.1
509.403	43.41
509.603	43.64
509.803	43.82
510.002	44.12
510.202	44.42
510.402	44.41
510.602	44.46
510.801	44.7
511.001	44.78
511.201	44.98
511.4	45.12
511.6	45.22
511.8	45.38
511.999	45.56
512.199	45.81
512.398	45.97
512.598	46.23
512.797	46.59
512.997	46.76
513.197	46.97
513.396	47.27
513.596	47.53
513.795	47.84
513.994	48
514.194	48.3
514.393	48.42
514.593	48.62
514.792	48.87
514.992	49.13
515.191	49.47
515.39	49.76
515.59	49.99
515.789	50.43
515.988	50.67
516.188	50.97
516.387	51.22
516.586	51.61
516.786	51.82
516.985	52.01
517.184	52.16
517.383	52.33
517.582	52.55
517.782	52.69
517.981	52.85
518.18	53.22
518.379	53.36
518.578	53.38
518.777	53.48
518.976	53.71
519.176	53.72
519.375	53.84
519.574	54.04
519.773	54.1
519.972	54.2
520.171	54.23
520.37	54.2
520.569	54.42
520.768	54.67
520.967	54.93
521.166	54.95
521.365	55.26
521.564	55.45
521.762	55.47
521.961	55.63
522.16	55.74
522.359	55.83
522.558	55.93
522.757	56.08
522.956	56.21
523.154	56.27
523.353	56.6
523.552	56.98
523.751	57.1
523.949	57.35
524.148	57.61
524.347	57.88
524.546	58.19
524.744	58.34
524.943	58.51
525.142	58.7
525.34	58.7
525.539	58.73
525.737	58.74
525.936	58.9
526.135	59.06
526.333	59.09
526.532	59.16
526.73	59.25
526.929	59.45
527.127	59.57
527.326	59.59
527.524	59.69
527.723	59.81
527.921	59.8
528.12	59.89
528.318	59.87
528.516	59.9
528.715	60.01
528.913	59.99
529.112	60.01
529.31	60.02
529.508	60.12
529.707	60.25
529.905	60.29
530.103	60.38
530.301	60.47
530.5	60.64
530.698	60.79
530.896	60.84
531.094	61
531.293	61.03
531.491	61.23
531.689	61.37
531.887	61.51
532.085	61.52
532.283	61.53
532.481	61.51
532.68	61.56
532.878	61.66
533.076	61.68
533.274	61.73
533.472	61.86
533.67	61.9
533.868	61.83
534.066	61.77
534.264	61.83
534.462	61.91
534.66	61.99
534.858	61.99
535.056	61.99
535.253	62.08
535.451	62.19
535.649	62.2
535.847	62.27
536.045	62.46
536.243	62.61
536.441	62.78
536.638	62.97
536.836	63.04
537.034	62.93
537.232	62.96
537.43	63.07
537.627	63.15
537.825	63.17
538.023	63.18
538.22	63.17
538.418	63.17
538.616	63.28
538.813	63.41
539.011	63.43
539.209	63.68
539.406	63.83
539.604	63.92
539.801	64
539.999	64.18
540.196	64.25
540.394	64.24
540.591	64.27
540.789	64.19
540.986	64.04
541.184	64.04
541.381	64.04
541.579	63.99
541.776	63.86
541.974	63.81
542.171	63.82
542.368	63.76
542.566	63.77
542.763	63.73
542.96	63.74
543.158	63.83
543.355	63.88
543.552	63.96
543.75	64.05
543.947	64.13
544.144	64.27
544.341	64.3
544.539	64.46
544.736	64.52
544.933	64.58
545.13	64.73
545.327	64.66
545.524	64.58
545.722	64.51
545.919	64.54
546.116	64.63
546.313	64.59
546.51	64.6
546.707	64.53
546.904	64.6
547.101	64.69
547.298	64.65
547.495	64.8
547.692	64.89
547.889	64.91
548.086	65
548.283	65.06
548.48	65.03
548.677	64.95
548.874	64.99
549.07	64.93
549.267	64.96
549.464	64.9
549.661	64.89
549.858	64.99
550.055	65.09
550.251	65.01
550.448	64.9
550.645	65
550.842	65.12
551.038	65.17
551.235	65.23
551.432	65.19
551.628	65.19
551.825	65.11
552.022	65.25
552.218	65.37
552.415	65.44
552.612	65.5
552.808	65.5
553.005	65.32
553.201	65.34
553.398	65.22
553.594	65.05
553.791	65.06
553.987	64.99
554.184	64.75
554.38	64.67
554.577	64.71
554.773	64.82
554.97	64.76
555.166	64.83
555.362	64.88
555.559	64.96
555.755	65.17
555.952	65.39
556.148	65.68
556.344	65.84
556.541	65.74
556.737	65.66
556.933	65.59
557.129	65.58
557.326	65.75
557.522	65.69
557.718	65.9
557.914	65.97
558.11	65.89
558.307	65.7
558.503	65.64
558.699	65.8
558.895	65.7
559.091	65.73
559.287	65.62
559.483	65.6
559.679	65.56
559.876	65.46
560.072	65.4
560.268	65.37
560.464	65.68
560.66	65.82
560.856	65.84
561.052	66.25
561.247	66.26
561.443	66.43
561.639	66.55
561.835	66.64
562.031	66.66
562.227	66.75
562.423	66.66
562.619	66.58
562.815	66.68
563.01	66.69
563.206	66.47
563.402	66.36
563.598	66.24
563.793	66.2
563.989	65.97
564.185	66.03
564.381	65.77
564.576	65.86
564.772	65.79
564.968	65.81
565.163	65.79
565.359	65.75
565.555	65.78
565.75	66.08
565.946	65.94
566.141	66.07
566.337	66.13
566.532	66.47
566.728	66.5
566.923	66.42
567.119	66.22
567.314	66.18
567.51	66.24
567.705	66.57
567.901	66.3
568.096	66.45
568.292	66.63
568.487	66.4
568.682	66.29
568.878	66.29
569.073	66.34
569.268	66.47
569.464	66.4
569.659	66.43
569.854	66.07
570.05	66.23
570.245	66.22
570.44	65.99
570.635	66.1
570.831	66.12
571.026	66.15
571.221	66.26
571.416	66.37
571.611	66.4
571.806	66.51
572.002	66.71
572.197	66.71
572.392	66.61
572.587	66.62
572.782	66.73
572.977	66.72
573.172	66.75
573.367	66.8
573.562	66.8
573.757	66.82
573.952	66.75
574.147	66.75
574.342	66.73
574.537	66.75
574.732	66.73
574.927	66.83
575.121	67
575.316	66.93
575.511	66.85
575.706	66.67
575.901	66.67
576.096	66.58
576.29	66.63
576.485	66.71
576.68	66.76
576.875	66.85
577.069	66.71
577.264	66.56
577.459	66.42
577.654	66.43
577.848	66.59
578.043	66.65
578.238	66.64
578.432	66.41
578.627	66.42
578.821	66.38
579.016	66.52
579.21	66.5
579.405	66.29
579.6	66.57
579.794	66.77
579.989	66.67
580.183	67.16
580.378	67.25
580.572	67.16
580.766	66.98
580.961	67.16
581.155	66.97
581.35	67.21
581.544	67.4
581.738	67.26
581.933	67.14
582.127	67.23
582.321	66.82
582.516	67.08
582.71	67.18
582.904	67.35
583.099	67.46
583.293	67.78
583.487	67.6
583.681	67.5
583.875	67.64
584.07	67.71
584.264	67.6
584.458	67.61
584.652	67.41
584.846	67.55
585.04	67.52
585.234	67.55
585.428	67.2
585.623	67.31
585.817	67.4
586.011	67.34
586.205	67.4
586.399	67.63
586.593	67.76
586.787	67.77
586.981	67.76
587.174	67.85
587.368	67.36
587.562	67.21
587.756	67.02
587.95	67.06
588.144	67.22
588.338	67
588.532	66.87
588.725	66.76
588.919	66.79
589.113	67
589.307	66.66
589.501	66.82
589.694	67.09
589.888	67.2
590.082	67.37
590.275	67.16
590.469	67.18
590.663	67.21
590.856	67.27
591.05	67.13
591.244	67.05
591.437	67.29
591.631	67.31
591.824	67.13
592.018	67.17
592.212	66.85
592.405	66.97
592.599	66.83
592.792	66.75
592.986	66.83
593.179	66.82
593.372	66.65
593.566	66.51
593.759	66.53
593.953	66.9
594.146	66.64
594.339	66.73
594.533	66.85
594.726	67.12
594.92	67.09
595.113	66.86
595.306	67.08
595.499	66.98
595.693	67.15
595.886	67.25
596.079	66.97
596.272	66.86
596.466	66.93
596.659	66.7
596.852	66.45
597.045	66.47
597.238	66.32
597.431	66.22
597.624	66.29
597.818	66.22
598.011	66.13
598.204	66.26
598.397	66.46
598.59	66.17
598.783	66.08
598.976	66.38
599.169	66.31
599.362	66.57
599.555	66.73
599.748	66.85
599.941	66.82
600.134	66.85
600.326	66.58
600.519	66.71
600.712	66.82
600.905	67.08
601.098	66.96
601.291	67.09
601.483	66.95
601.676	66.57
601.869	66.48
602.062	66.43
602.255	66.37
602.447	66.45
602.64	66.27
602.833	66.07
603.025	65.95
603.218	65.98
603.411	65.85
603.603	65.88
603.796	65.96
603.989	65.87
604.181	65.89
604.374	65.83
604.566	65.87
604.759	65.73
604.951	65.83
605.144	65.72
605.336	65.65
605.529	65.45
605.721	65.31
605.914	65.36
606.106	65.3
606.299	65.15
606.491	65.14
606.683	65.19
606.876	65.38
607.068	65.4
607.26	65.56
607.453	65.06
607.645	65.26
607.837	65.51
608.03	65.21
608.222	65.36
608.414	65.43
608.606	65.57
608.799	65.53
608.991	65.27
609.183	65.35
609.375	65.28
609.567	65.44
609.759	65.56
609.952	65.48
610.144	65.6
610.336	65.46
610.528	65.29
610.72	65.13
610.912	65.07
611.104	65.26
611.296	65.08
611.488	65.17
611.68	65.27
611.872	65.04
612.064	64.97
612.256	64.78
612.448	64.83
612.64	65.15
612.832	65.14
613.023	65.28
613.215	65.09
613.407	65.31
613.599	65.24
613.791	65.43
613.983	65.17
614.174	65.28
614.366	65.49
614.558	65.35
614.75	65.12
614.941	65.17
615.133	64.94
615.325	65.02
615.516	64.8
615.708	64.52
615.9	64.42
616.091	64.62
616.283	64.46
616.475	64.34
616.666	64.18
616.858	64.12
617.049	64.1
617.241	64.13
617.432	64.21
617.624	64.66
617.815	64.32
618.007	64.19
618.198	64.16
618.39	64.11
618.581	64.25
618.773	64.44
618.964	64.45
619.155	64.5
619.347	64.13
619.538	63.61
619.729	63.03
619.921	63.64
620.112	63.72
620.303	63.75
620.494	63.68
620.686	63.5
620.877	63.52
621.068	63.23
621.259	63.02
621.451	63.19
621.642	63.6
621.833	63.93
622.024	63.83
622.215	63.61
622.406	63.33
622.597	63.33
622.788	63.26
622.98	63.32
623.171	63.41
623.362	63.22
623.553	63.17
623.744	63.15
623.935	62.79
624.126	62.76
624.317	62.71
624.508	63.05
624.698	63
624.889	62.77
625.08	62.74
625.271	63.14
625.462	63.03
625.653	63.13
625.844	62.92
626.034	62.65
626.225	62.76
626.416	62.92
626.607	62.84
626.798	62.97
626.988	63.28
627.179	63.19
627.37	63
627.56	63.39
627.751	63.11
627.942	63.01
628.132	63.34
628.323	63.09
628.514	62.96
628.704	62.95
628.895	62.71
629.085	62.35
629.276	61.96
629.466	61.63
629.657	61.29
629.847	61.25
630.038	61.21
630.228	60.84
630.419	60.56
630.609	60.47
630.8	60.51
630.99	60.45
631.181	60.5
631.371	60.39
631.561	60.6
631.752	60.72
631.942	60.6
632.132	60.89
632.323	60.91
632.513	61.19
632.703	61.23
632.893	61.09
633.084	60.95
633.274	60.86
633.464	60.96
633.654	60.79
633.844	60.58
634.034	60.9
634.225	60.73
634.415	61.04
634.605	60.94
634.795	60.85
634.985	60.74
635.175	60.77
635.365	60.6
635.555	60.79
635.745	60.82
635.935	60.68
636.125	60.18
636.315	60.01
636.505	59.48
636.695	59.18
636.885	58.92
637.075	58.71
637.265	58.59
637.455	58.77
637.644	58.83
637.834	58.81
638.024	58.98
638.214	59.23
638.404	58.97
638.593	59.29
638.783	59.31
638.973	59.37
639.163	59.47
639.352	59.64
639.542	59.69
639.732	59.32
639.921	59.43
640.111	59.35
640.301	59.27
640.49	59.71
640.68	59.57
640.87	59.35
641.059	59.22
641.249	59.17
641.438	58.72
641.628	58.21
641.817	57.96
642.007	57.68
642.196	57.65
642.386	57.43
642.575	57.02
642.764	56.88
642.954	57.07
643.143	57.18
643.333	56.95
643.522	57.13
643.711	57.17
643.901	57.52
644.09	57.79
644.279	57.41
644.469	57.2
644.658	57.48
644.847	57.65
645.036	57.56
645.226	57.24
645.415	57.36
645.604	57.2
645.793	57.54
645.982	57.38
646.171	57.04
646.361	57.13
646.55	57.57
646.739	57.35
646.928	57.17
647.117	57.1
647.306	57.41
647.495	57.29
647.684	57.57
647.873	57.44
648.062	57.47
648.251	57.48
648.44	57.39
648.629	56.89
648.818	56.28
649.007	56.2
649.196	56.19
649.384	55.87
649.573	56.04
649.762	55.54
649.951	55.39
650.14	55.08
650.328	54.95
650.517	55.14
650.706	55.35
650.895	55.6
651.083	55.67
651.272	55.6
651.461	56.03
651.65	55.92
651.838	56.26
652.027	56.11
652.216	55.83
652.404	55.68
652.593	55.59
652.781	55.68
652.97	56.15
653.158	55.99
653.347	55.75
653.535	55.38
653.724	55.2
653.912	55.17
654.101	55.31
654.289	55.77
654.478	55.77
654.666	55.48
654.855	55.15
655.043	54.69
655.231	54.58
655.42	54.99
655.608	55.01
655.796	54.82
655.985	54.54
656.173	54.24
656.361	54.21
656.55	54.25
656.738	54.29
656.926	54.51
657.114	54.88
657.302	54.89
657.491	54.73
657.679	54.59
657.867	54.92
658.055	55.2
658.243	55.52
658.431	55.05
658.619	54.68
658.807	54.7
658.996	54.79
659.184	54.62
659.372	54.67
659.56	54.44
659.748	54.47
659.936	54.37
660.124	54.11
660.311	53.6
660.499	53.86
660.687	53.79
660.875	54.06
661.063	53.61
661.251	53.54
661.439	53.76
661.627	53.77
661.814	53.68
662.002	53.49
662.19	53.63
662.378	53.91
662.565	53.86
662.753	53.95
662.941	53.74
663.129	53.97
663.316	53.86
663.504	53.2
663.692	53
663.879	53.22
664.067	53.22
664.254	53.07
664.442	52.84
664.63	52.98
664.817	53.17
665.005	52.95
665.192	52.98
665.38	52.86
665.567	52.92
665.755	53.18
665.942	53.24
666.13	52.99
666.317	53.03
666.504	53.22
666.692	52.92
666.879	53.09
667.067	52.87
667.254	52.3
667.441	52.69
667.629	52.66
667.816	52.57
668.003	52.12
668.19	52.44
668.378	52.02
668.565	52.35
668.752	52.65
668.939	52.61
669.127	52.77
669.314	53.16
669.501	52.79
669.688	52.89
669.875	52.64
670.062	52.72
670.249	52.54
670.436	52.57
670.623	52.1
670.81	51.44
670.997	50.84
671.184	50.65
671.371	50.58
671.558	50.85
671.745	50.83
671.932	50.96
672.119	50.9
672.306	51.12
672.493	51.12
672.68	51.57
672.867	51.84
673.054	52.41
673.24	52.26
673.427	52.2
673.614	51.81
673.801	51.7
673.988	51.88
674.174	51.91
674.361	51.29
674.548	51.38
674.734	51.25
674.921	51.27
675.108	50.89
675.294	51.21
675.481	51.04
675.668	51.17
675.854	51.43
676.041	51.27
676.227	50.83
676.414	51.06
676.601	51.35
676.787	51.68
676.974	51.56
677.16	51.57
677.347	51.39
677.533	51.38
677.719	51.38
677.906	50.96
678.092	50.31
678.279	50.46
678.465	50.56
678.651	50.04
678.838	49.72
679.024	49.57
679.21	49.46
679.397	49.45
679.583	49.55
679.769	49.41
679.955	49.48
680.142	49.57
680.328	49.72
680.514	49.74
680.7	49.61
680.886	49.14
681.073	49.32
681.259	49.25
681.445	49.02
681.631	48.95
681.817	48.65
682.003	48.45
682.189	48.83
682.375	48.8
682.561	48.61
682.747	48.93
682.933	48.91
683.119	48.8
683.305	48.99
683.491	49.45
683.677	49.47
683.863	49.45
684.049	49.9
684.235	50.15
684.42	50.06
684.606	49.59
684.792	49.83
684.978	49.91
685.164	49.84
685.349	49.87
685.535	49.64
685.721	49.45
685.907	49.49
686.092	49.11
686.278	48.58
686.464	48.64
686.649	49.1
686.835	49.03
687.021	49.46
687.206	49.51
687.392	49.46
687.577	49.34
687.763	49.41
687.948	49.3
688.134	49.67
688.319	49.95
688.505	50.22
688.69	49.96
688.876	49.37
689.061	48.88
689.247	48.97
689.432	48.69
689.618	48.42
689.803	48.24
689.988	48.38
690.174	47.91
690.359	47.72
690.544	47.18
690.73	46.96
690.915	47.1
691.1	46.97
691.285	47.17
691.471	47.28
691.656	47.65
691.841	47.7
692.026	47.56
692.211	47.38
692.396	47.36
692.582	47.32
692.767	47.93
692.952	47.62
693.137	47.98
693.322	47.66
693.507	47.7
693.692	47.79
693.877	47.85
694.062	47.72
694.247	48.32
694.432	48.29
694.617	48.48
694.802	48.76
694.987	49.14
695.172	49.09
695.357	48.9
695.541	48.85
695.726	48.28
695.911	48.42
696.096	48.34
696.281	47.66
696.466	47.6
696.65	47.27
696.835	46.92
697.02	47.01
697.204	46.79
697.389	46.92
697.574	46.63
697.759	46.49
697.943	46.31
698.128	46.33
698.312	46.64
698.497	46.36
698.682	46.39
698.866	46.24
699.051	46.13
699.235	45.64
699.42	45.66
699.604	46.05
699.789	46.27
699.973	46.34
700.158	46.18
700.342	46.15
700.527	46.4
700.711	46.88
700.895	46.88
701.08	46.82
701.264	47.44
701.448	47.55
701.633	47.01
701.817	47.14
702.001	46.87
702.186	47.65
702.37	47.26
702.554	47.07
702.738	46.53
702.923	46.58
703.107	46.57
703.291	47.09
703.475	46.46
703.659	46.74
703.843	46.29
704.027	46.62
704.212	46.13
704.396	46.28
704.58	46.58
704.764	46.44
704.948	46.38
705.132	46.15
705.316	46.45
705.5	46.82
705.684	47.63
705.868	48
706.052	48.01
706.235	48.45
706.419	48.7
706.603	48.58
706.787	48.09
706.971	48.01
707.155	48.03
707.339	47.2
707.522	46.69
707.706	45.79
707.89	46.3
708.074	46.42
708.257	45.62
708.441	45.72
708.625	45.76
708.808	46.02
708.992	46.62
709.176	46.27
709.359	46.06
709.543	46.35
709.727	46.7
709.91	45.93
710.094	45.56
710.277	45.75
710.461	45.34
710.644	45.43
710.828	45.23
711.011	44.28
711.195	44.36
711.378	44.2
711.562	44.37
711.745	44.1
711.928	44.46
712.112	44.92
712.295	45.03
712.478	45.47
712.662	45.2
712.845	45.47
713.028	45.94
713.212	46.19
713.395	46.29
713.578	45.8
713.761	45.79
713.945	45.65
714.128	45.54
714.311	46.51
714.494	46.11
714.677	46.6
714.86	46.54
715.043	46.18
715.227	45.99
715.41	45.66
715.593	46.06
715.776	46.02
715.959	45.84
716.142	46.11
716.325	45.45
716.508	45.52
716.691	45.06
716.874	45.3
717.057	45.66
717.239	45.98
717.422	46.44
717.605	46.07
717.788	46.01
717.971	46.44
718.154	45.76
718.337	45.47
718.519	45.36
718.702	45.58
718.885	45.55
719.068	45.31
719.25	45.38
719.433	45.48
719.616	45.11
719.798	45.36
719.981	45.07
720.164	44.73
720.346	44.71
720.529	45.11
720.712	44.31
720.894	44.25
721.077	44.25
721.259	43.75
721.442	43.27
721.624	44.38
721.807	44.52
721.989	44.63
722.172	45.33
722.354	45.54
722.537	44.61
722.719	44.79
722.901	44.36
723.084	44.04
723.266	44.58
723.448	45.3
723.631	44.91
723.813	44.23
723.995	43.65
724.178	43.8
724.36	43.61
724.542	44.65
724.724	45.68
724.907	45.95
725.089	45.77
725.271	46.22
725.453	46.25
725.635	46.22
725.817	47.12
725.999	47.02
726.181	46.66
726.364	46.76
726.546	46.52
726.728	45.69
726.91	46.39
727.092	46.57
727.274	45.97
727.456	46.56
727.638	46.77
727.819	46.18
728.001	46.24
728.183	46.1
728.365	46.06
728.547	46.04
728.729	45.83
728.911	45.76
729.093	46.72
729.274	46.83
729.456	45.95
729.638	45.44
729.82	46.39
730.001	46.24
730.183	46.61
730.365	46.36
730.546	45.89
730.728	46.82
730.91	46.12
731.091	45.49
731.273	45.28
731.455	45.19
731.636	45.79
731.818	44.51
731.999	44.58
732.181	44.18
732.362	43.64
732.544	44.27
732.725	43.27
732.907	43.78
733.088	44.08
733.27	43.8
733.451	43.61
733.633	43.66
733.814	43.87
733.995	44.02
734.177	44.43
734.358	44.62
734.539	44.13
734.721	44.4
734.902	44.09
735.083	43.37
735.264	44.12
735.446	45.2
735.627	44.43
735.808	44.15
735.989	44.01
736.17	43.84
736.351	44.67
736.533	44.65
736.714	44.47
736.895	44.39
737.076	44.84
737.257	44.24
737.438	44.12
737.619	44.59
737.8	44.61
737.981	45.23
738.162	44.91
738.343	44.76
738.524	44.55
738.705	44.62
738.886	44.44
739.067	44.26
739.247	44.67
739.428	43.99
739.609	44.28
739.79	44.93
739.971	44.6
740.151	44.41
740.332	43.54
740.513	44.8
740.694	44.64
740.874	44.76
741.055	44.8
741.236	44.56
741.417	44.27
741.597	43.5
741.778	43.52
741.958	43.35
742.139	43.89
742.32	44.24
742.5	43.52
742.681	43.53
742.861	42.39
743.042	42.91
743.222	43.4
743.403	42.94
743.583	44.23
743.764	42.76
743.944	43.39
744.124	43.66
744.305	44.75
744.485	44.9
744.666	45.54
744.846	46.26
745.026	46.67
745.207	45.85
745.387	47.85
745.567	46.51
745.747	47.64
745.928	47.15
746.108	47.08
746.288	46.76
746.468	45.86
746.648	45.62
746.829	46.13
747.009	45.94
747.189	45.46
747.369	43.81
747.549	44.91
747.729	44.24
747.909	43.89
748.089	43.89
748.269	43.41
748.449	43.73
748.629	44
748.809	43.12
748.989	42.71
749.169	42.76
749.349	42.33
749.529	41.86
749.709	42
749.889	42.43
750.068	42.11
750.248	41.9
750.428	42.88
750.608	41.41
750.788	42.74
750.967	42.26
751.147	43.66
751.327	44.52
751.507	44.36
751.686	45.04
751.866	44.92
752.046	44.62
752.225	44.71
752.405	43.16
752.585	43.91
752.764	43.5
752.944	44.54
753.123	43.73
753.303	42.98
753.482	42.61
753.662	42.6
753.841	42.62
754.021	43.02
754.2	43.31
754.38	44.28
754.559	45.41
754.739	45.64
754.918	45.39
755.097	45.56
755.277	45.62
755.456	45.79
755.635	44.75
755.815	45.6
755.994	44.87
756.173	44.5
756.352	44.96
756.532	44.22
756.711	43.59
756.89	43.52
757.069	43.46
757.248	43.65
757.427	43.37
757.607	43.78
757.786	42.82
757.965	43.07
758.144	42.76
758.323	42.05
758.502	42.5
758.681	41.36
758.86	40.08
759.039	39.81
759.218	39.8
759.397	39.17
759.576	39.8
759.755	40.04
759.934	39.95
760.113	41.68
760.291	41.51
760.47	41.18
760.649	42.59
760.828	43.23
761.007	43.99
761.186	44.8
761.364	46.18
761.543	45.6
761.722	44.6
761.901	44.38
762.079	43.28
762.258	43.44
762.437	43.22
762.615	43.41
762.794	42.96
762.972	41.93
763.151	41.46
763.33	40.95
763.508	40.89
763.687	41.49
763.865	41.69
764.044	41.74
764.222	42.11
764.401	42.31
764.579	42.6
764.758	42.12
764.936	42.47
765.114	42.71
765.293	42.98
765.471	42.72
765.65	42.13
765.828	41.35
766.006	40.65
766.184	39.97
766.363	39.39
766.541	37.87
766.719	39.26
766.898	39.62
767.076	39.21
767.254	39.3
767.432	39.27
767.61	40.24
767.788	41.43
767.967	42.41
768.145	42.79
768.323	42.94
768.501	44.02
768.679	43.53
768.857	43.5
769.035	44.7
769.213	45.47
769.391	46.81
769.569	46.82
769.747	47.77
769.925	47.93
770.103	48.23
770.281	47.68
770.459	47.96
770.636	46.97
770.814	46.05
770.992	45.07
771.17	43.64
771.348	43.78
771.525	43.38
771.703	41.36
771.881	39.94
772.059	39.71
772.236	40.84
772.414	39.85
772.592	40.69
772.769	41.77
772.947	42.94
773.125	43.53
773.302	43.43
773.48	42.92
773.657	45.44
773.835	46.53
774.013	45.88
774.19	46.14
774.368	46.49
774.545	46.2
774.723	45.25
774.9	44.64
775.077	44.19
775.255	43.62
775.432	46.32
775.61	45.16
775.787	44.81
775.964	45.38
776.142	45.39
776.319	45.09
776.496	45.45
776.674	46.12
776.851	45.15
777.028	46.83
777.205	46.56
777.382	44.6
777.56	44.1
777.737	47.33
777.914	47.81
778.091	48.91
778.268	48.42
778.445	49.22
778.622	49.1
778.8	49.61
778.977	47.59
779.154	56.1
779.331	55.9
779.508	56.03
779.685	54.03
779.862	53.11
780.038	51.13
780.215	53.87
780.392	54.17
780.569	55.49
780.746	56.36
780.923	57.17
781.1	48.67
781.277	48.71
781.453	47.96
781.63	47.39
781.807	48.71
781.984	48.96
782.16	47.88
782.337	48.41
782.514	47.2
782.691	45.26
782.867	46.57
783.044	47.87
783.221	48.33
783.397	50.11
783.574	48.5
783.75	48.57
783.927	50.23
784.103	49.75
784.28	49.4
784.456	49.16
784.633	49.07
784.809	47.79
784.986	46.65
785.162	46.24
785.339	45.84
785.515	48.2
785.692	48.14
785.868	47.82
786.044	48.11
786.221	47.08
786.397	45.96
786.573	47.94
786.749	48.3
786.926	49.2
787.102	51
787.278	50.96
787.454	50.79
787.631	51.76
787.807	50.35
787.983	49.78
788.159	49.46
788.335	50.88
788.511	51.74
788.687	51.06
788.863	49.89
789.039	48.4
789.216	48.51
789.392	48.65
789.568	48.21
789.744	49.12
789.919	50.86
790.095	51.94
790.271	51.18
790.447	48.66
790.623	48.53
790.799	48.72
790.975	49.83
791.151	48.82
791.327	47.56
791.502	46.95
791.678	46.08
791.854	45.07
792.03	42.81
792.205	43.57
792.381	44.33
792.557	45.02
792.733	44.58
792.908	43.51
793.084	43.03
793.259	43.73
793.435	44.87
793.611	45.95
793.786	45.47
793.962	47.43
794.137	47.45
794.313	47.87
794.488	46.56
794.664	47.51
794.839	47.01
795.015	47.19
795.19	46.36
795.366	45.11
795.541	44.55
795.716	43.7
795.892	44.02
796.067	43.26
796.242	43.94
796.418	45.69
796.593	44.98
796.768	44.11
796.944	45.22
797.119	44.52
797.294	45.15
797.469	46.54
797.644	46.92
797.82	45.84
797.995	45.99
798.17	45.57
798.345	44.43
798.52	44.81
798.695	46.37
798.87	44.71
799.045	44.98
799.22	43.84
799.395	42.43
799.57	42.58
799.745	44.15
799.92	44.53
800.095	44.54
800.27	44.99
800.445	44.39
800.62	44.45
800.795	45.79
800.97	45.67
801.145	45.94
801.319	45.88
801.494	47.18
801.669	48.07
801.844	48.68
802.018	47.98
802.193	45.5
802.368	46.02
802.543	44.26
802.717	46.25
802.892	47.01
803.067	47.42
803.241	46.63
803.416	45.7
803.59	44.37
803.765	43.94
803.94	44.95
804.114	47.23
804.289	49.33
804.463	51.73
804.638	49.28
804.812	51.02
804.986	50.89
805.161	51.85
805.335	51.46
805.51	53.18
805.684	52.4
805.858	51.71
806.033	51.84
806.207	48.88
806.381	47.84
806.556	47.12
806.73	46.61
806.904	46.79
807.078	47.04
807.253	47.73
807.427	43.7
807.601	42.66
807.775	44.72
807.949	43.84
808.123	44.44
808.298	45.24
808.472	45.93
808.646	45.97
808.82	47.17
808.994	47.51
809.168	49.02
809.342	50.62
809.516	51.13
809.69	50.69
809.864	51.88
810.038	50.87
810.212	49.69
810.385	48.26
810.559	49.43
810.733	50.74
810.907	50.21
811.081	48.71
811.255	49.87
811.428	53.49
811.602	51.71
811.776	50.26
811.95	53.59
812.123	55.47
812.297	58.66
812.471	55.77
812.644	54.03
812.818	51.27
812.992	49.76
813.165	47.79
813.339	44.26
813.512	45.19
813.686	46.23
813.86	45.35
814.033	45.47
814.207	43.64
814.38	47.55
814.554	43.01
814.727	46.21
814.9	48.05
815.074	49.29
815.247	50.37
815.421	48.5
815.594	49.48
815.767	48.73
815.941	47.35
816.114	46.65
816.287	46.19
816.46	49.87
816.634	51.38
816.807	50.54
816.98	50.93
817.153	53.47
817.327	54.94
817.5	54.67
817.673	55.21
817.846	55.99
818.019	57.59
818.192	55.92
818.365	55.79
818.538	53.61
818.711	50.85
818.884	50.92
819.057	49.15
819.23	49.4
819.403	47.23
819.576	46.85
819.749	47.03
819.922	46.15
820.095	45.08
820.268	45.85
820.441	46.91
820.614	47.36
820.786	45.96
820.959	45.29
821.132	42.9
821.305	41.82
821.477	40.54
821.65	39.12
821.823	38.75
821.996	38.73
822.168	37.35
822.341	36.74
822.514	36.3
822.686	35.97
822.859	35.3
823.031	35.69
823.204	36.25
823.376	36.58
823.549	36.3
823.722	36.26
823.894	36.25
824.067	36.16
824.239	35.88
824.411	36.14
824.584	36.08
824.756	36.53
824.929	36.25
825.101	35.96
825.273	35.26
825.446	35.57
825.618	35.09
825.79	34.94
825.963	35.15
826.135	35.63
826.307	35.36
826.479	36.47
826.652	36.65
826.824	36.93
826.996	37.15
827.168	37.52
827.34	37.39
827.512	38.34
827.684	38.88
827.856	39.04
828.029	39.39
828.201	39.54
828.373	38.86
828.545	37.47
828.717	38.57
828.889	38.5
829.061	38.62
829.232	39.05
829.404	38.57
829.576	38.59
829.748	38.81
829.92	38.03
830.092	39.37
830.264	40.95
830.436	42.92
830.607	40.76
830.779	41.84
830.951	43.54
831.123	43.29
831.294	44.1
831.466	45.36
831.638	44.8
831.809	44.76
831.981	46.01
832.153	42.45
832.324	44.59
832.496	48.35
832.667	48.29
832.839	46.86
833.011	48.15
833.182	49.67
833.354	47.04
833.525	46.44
833.697	46.06
833.868	44.98
834.039	45.05
834.211	42.26
834.382	41.75
834.554	41.08
834.725	40.48
834.896	40.57
835.068	38.96
835.239	39.52
835.41	41.13
835.581	41.21
835.753	40.27
835.924	41.81
836.095	42.79
836.266	41.65
836.438	41.92
836.609	42.99
836.78	42.95
836.951	42.01
837.122	41.96
837.293	41.94
837.464	44.39
837.635	43.57
837.806	43.34
837.977	42.96
838.148	44.85
838.319	46.55
838.49	47.68
838.661	49.18
838.832	53.21
839.003	55.29
839.174	55.14
839.345	53.15
839.516	55.47
839.687	54.34
839.857	55.42
840.028	53.09
840.199	52.11
840.37	51.83
840.54	51.34
840.711	48.88
840.882	48.38
841.053	50.8
841.223	49.99
841.394	53.69
841.564	54.88
841.735	54.09
841.906	53.43
842.076	54.56
842.247	54.88
842.417	53.53
842.588	56.41
842.758	61.41
842.929	62.75
843.099	65.82
843.27	60.35
843.44	63.82
843.611	66.84
843.781	76.84
843.951	77.57
844.122	82.73
844.292	88.63
844.462	87.94
844.633	78.83
844.803	75.21
844.973	72.93
845.144	78.59
845.314	75.76
845.484	73.63
845.654	61.55
845.824	63.58
845.995	61.32
846.165	60.06
846.335	56.97
846.505	60.59
846.675	62.87
846.845	66.5
847.015	65.83
847.185	67.68
847.355	67.83
847.525	70.71
847.695	71.71
847.865	72.76
848.035	69.29
848.205	72.48
848.375	71.26
848.545	67.17
848.715	63.63
848.884	63.63
849.054	65.96
849.224	72.18
849.394	73.84
849.564	72.48
849.733	66.38
849.903	71.31
850.073	74.47
850.243	77.77
850.412	98.52
850.582	104.97
850.752	104.52
850.921	102.93
851.091	89.51
851.26	87.56
851.43	84.87
851.599	89.14
851.769	85.81
851.939	78.21
852.108	82.23
852.278	71.31
852.447	72.36
852.616	74.16
852.786	81.6
852.955	79.51
853.125	80.33
853.294	77.8
853.463	81.21
853.633	84.72
853.802	89.99
853.971	84.9
854.141	91.48
854.31	92.44
854.479	93.38
854.648	76.67
854.818	93.25
854.987	96.84
855.156	95.41
855.325	75.66
855.494	75.01
855.663	81.19
855.832	74.94
856.001	74.13
856.171	75.99
856.34	77.86
856.509	78.86
856.678	74.78
856.847	73.38
857.016	73.39
857.185	93.57
857.353	88.48
857.522	84.71
857.691	89.67
857.86	89.43
858.029	85.27
858.198	83.24
858.367	78.66
858.535	81.53
858.704	84.32
858.873	91.18
859.042	86.33
859.21	92.34
859.379	85.28
859.548	88.35
859.717	89.96
859.885	95.84
860.054	100.43
860.222	108.66
860.391	109.98
860.56	118.55
860.728	109.61
860.897	108.88
861.065	100.69
861.234	108.01
861.402	108.55
861.571	111.36
861.739	108.89
861.908	109.46
862.076	115.47
862.244	108.52
862.413	105.09
862.581	106.05
862.749	102.16
862.918	103.27
863.086	105.48
863.254	105.99
863.423	100.66
863.591	104.13
863.759	101.03
863.927	97.75
864.096	96.75
864.264	95.76
864.432	96.18
864.6	98.66
864.768	99.85
864.936	89.46
865.104	85.63
865.272	88.32
865.44	85.04
865.608	86.21
865.776	80.87
865.944	78.64
866.112	74.36
866.28	74.94
866.448	75.09
866.616	75.13
866.784	81.41
866.952	86.11
867.12	79
867.288	76.99
867.455	75.47
867.623	83.2
867.791	88.37
867.959	92.47
868.127	92.55
868.294	89.51
868.462	86.81
868.63	83.02
868.797	79.2
868.965	84.1
869.133	88.99
869.3	89.24
869.468	84.93
869.636	82.03
869.803	79.53
869.971	77.44
870.138	85.86
870.306	88.42
870.473	90.77
870.641	86.27
870.808	91.27
870.975	91.19
871.143	94.18
871.31	95.77
871.478	94.71
871.645	100.55
871.812	105.39
871.98	97.55
872.147	103.4
872.314	100.46
872.482	106.67
872.649	98.49
872.816	89.44
872.983	90.31
873.15	88.75
873.318	89.67
873.485	80.88
873.652	78.16
873.819	74.2
873.986	76.38
874.153	79.02
874.32	74.33
874.487	80.17
874.654	84.71
874.821	82.14
874.988	79.11
875.155	85.67
875.322	94.54
875.489	94.4
875.656	102.77
875.823	101.93
875.99	94.15
876.157	88.37
876.324	87.48
876.49	85.31
876.657	88.85
876.824	91.77
876.991	88.05
877.157	91.09
877.324	87.43
877.491	88.41
877.658	87.78
877.824	92.09
877.991	96.76
878.157	89.6
878.324	90.49
878.491	91.34
878.657	94.28
878.824	94.69
878.99	86.07
879.157	92.35
879.323	90.56
879.49	82.01
879.656	83.8
879.823	86.91
879.989	89.06
880.156	89.1
880.322	85
880.488	79.67
880.655	75.59
880.821	83.12
880.987	78
881.154	77.81
881.32	75.62
881.486	68.61
881.652	62.12
881.819	57.49
881.985	53.13
882.151	51.82
882.317	47.6
882.483	46
882.649	43.69
882.816	42.37
882.982	38.83
883.148	40.09
883.314	37.8
883.48	37.76
883.646	36.46
883.812	36.76
883.978	36.95
884.144	38.37
884.31	38.77
884.476	38.71
884.642	39.83
884.807	40.86
884.973	40.39
885.139	43.28
885.305	45.12
885.471	46.09
885.637	46.21
885.802	46.91
885.968	48.39
886.134	48.74
886.3	48.24
886.465	47.56
886.631	48.57
886.797	50.45
886.962	50.94
887.128	51.26
887.293	55.83
887.459	61.97
887.625	62.17
887.79	64.15
887.956	69.58
888.121	73.25
888.287	77.42
888.452	82.79
888.618	85.6
888.783	89.66
