Data from LC_277_Reflection_1.txt Node
Date: Sat Nov 21 12:31:54 EST 2015
User: robert
Spectrometer: USB4E03001
Autoset integration time: false
Trigger mode: 4
Integration Time (sec): 1.000000E-1
Scans to average: 15
Electric dark correction enabled: true
Nonlinearity correction enabled: false
Boxcar width: 5
Stray light correction enabled: false
XAxis mode: Wavelengths
Stop averaging: false
Number of Pixels in Spectrum: 3648
>>>>>Begin Spectral Data<<<<<
177.566	-98.75
177.785	-50.68
178.005	-175.28
178.225	178.39
178.445	686.3
178.665	1099.41
178.885	-594.85
179.105	251.52
179.324	135.95
179.544	240.44
179.764	1001.73
179.984	170.99
180.204	198.62
180.423	187.43
180.643	181.03
180.863	276.03
181.083	302.59
181.302	311.87
181.522	267.24
181.742	298.19
181.961	252.03
182.181	228.11
182.401	454.77
182.621	353.3
182.84	377.34
183.06	347.32
183.279	278.79
183.499	253.57
183.719	233.7
183.938	224.15
184.158	240.52
184.377	230.36
184.597	233.49
184.816	201.76
185.036	218.97
185.256	203.98
185.475	174.12
185.695	162.66
185.914	166.93
186.134	166.37
186.353	181.58
186.572	177.61
186.792	161.46
187.011	165.12
187.231	177.84
187.45	171.34
187.67	194.99
187.889	223.43
188.108	307.16
188.328	351.04
188.547	368.62
188.766	386.29
188.986	439.99
189.205	773.74
189.424	1476.71
189.644	966.37
189.863	-678.47
190.082	-1186.97
190.302	1917.77
190.521	300.14
190.74	293.21
190.959	362.82
191.178	308.46
191.398	173.7
191.617	214.11
191.836	210.71
192.055	208.99
192.274	138.67
192.494	147.48
192.713	158.69
192.932	167.43
193.151	166.11
193.37	161.87
193.589	166.67
193.808	226.83
194.027	201.03
194.246	195.69
194.465	187.86
194.685	200.53
194.904	167.36
195.123	170.29
195.342	237.66
195.561	246.1
195.78	192.85
195.999	203.81
196.218	181.6
196.436	230.42
196.655	249
196.874	204.01
197.093	219.67
197.312	295.24
197.531	310.08
197.75	204.66
197.969	189.93
198.188	228.93
198.407	225.63
198.625	223.03
198.844	213.17
199.063	200.67
199.282	218.12
199.501	234.11
199.719	233.73
199.938	232.93
200.157	222.15
200.376	215.53
200.594	229.75
200.813	225.27
201.032	230.44
201.251	218.85
201.469	251.77
201.688	363.65
201.907	322.17
202.125	250.96
202.344	243.47
202.563	317.74
202.781	360.93
203	342.57
203.218	307.45
203.437	574.61
203.656	887.69
203.874	886.98
204.093	344.73
204.311	310.91
204.53	410.29
204.748	366.51
204.967	411.75
205.185	277.45
205.404	267.76
205.622	661.18
205.841	422.4
206.059	315.56
206.278	273.97
206.496	348.71
206.715	725.93
206.933	473.71
207.151	396.28
207.37	233
207.588	340.35
207.806	316.24
208.025	198.85
208.243	199.77
208.461	211.67
208.68	237.46
208.898	277.18
209.116	191.16
209.335	228.32
209.553	265.56
209.771	347.53
209.989	330.59
210.208	401.14
210.426	437.58
210.644	390.37
210.862	628.78
211.081	564.3
211.299	316.39
211.517	330.21
211.735	253.87
211.953	211.01
212.171	172.17
212.39	159.66
212.608	127.77
212.826	144.5
213.044	162.26
213.262	140.12
213.48	139.92
213.698	148.26
213.916	183.14
214.134	169.6
214.352	171.93
214.57	173.92
214.788	173.26
215.006	189.27
215.224	188.77
215.442	201.04
215.66	220.32
215.878	206.06
216.096	238.38
216.314	198.14
216.532	198.75
216.75	188.85
216.968	196.15
217.185	173.46
217.403	211.99
217.621	214.8
217.839	191.99
218.057	202.82
218.275	202.29
218.492	169.18
218.71	198.64
218.928	224.87
219.146	236
219.363	239.98
219.581	469.44
219.799	297.78
220.017	203.46
220.234	256.11
220.452	227.18
220.67	198.28
220.887	232.04
221.105	215.06
221.323	238
221.54	243.74
221.758	188.73
221.976	152.39
222.193	168.55
222.411	172.71
222.629	132.58
222.846	138.88
223.064	138.29
223.281	130.72
223.499	139.75
223.716	125.04
223.934	117.8
224.151	140.82
224.369	147.25
224.586	142.75
224.804	125.68
225.021	143.26
225.239	127.16
225.456	121.05
225.674	113.38
225.891	98.91
226.108	97.3
226.326	95.45
226.543	84.88
226.76	80.89
226.978	72.17
227.195	72.89
227.413	60.12
227.63	59.61
227.847	58.08
228.064	47.81
228.282	41.82
228.499	38.81
228.716	38.57
228.934	36.21
229.151	34.69
229.368	31.3
229.585	31.86
229.802	33.47
230.02	31.55
230.237	30.64
230.454	34.4
230.671	34.99
230.888	33.89
231.105	33.37
231.323	36.35
231.54	37.06
231.757	42.14
231.974	45.71
232.191	45.01
232.408	51.26
232.625	52.25
232.842	51.55
233.059	52.31
233.276	59.05
233.493	61.71
233.71	56.81
233.927	54.3
234.144	54.55
234.361	54.58
234.578	57.03
234.795	54.82
235.012	54.34
235.229	51.68
235.446	49.48
235.663	44.84
235.879	36.76
236.096	39.58
236.313	43.74
236.53	45.37
236.747	45.51
236.964	40.94
237.181	42.95
237.397	40.4
237.614	40.3
237.831	43.9
238.048	45.88
238.264	49.8
238.481	50.77
238.698	51.23
238.915	48.07
239.131	41.86
239.348	41.66
239.565	39.36
239.781	39.41
239.998	38.06
240.215	35.74
240.431	32.05
240.648	30.06
240.865	22.94
241.081	21.69
241.298	20.68
241.514	22.37
241.731	22.42
241.947	21.66
242.164	21.84
242.38	20.81
242.597	21.2
242.814	21.24
243.03	21.55
243.246	22.82
243.463	21
243.679	22.06
243.896	21.92
244.112	23.82
244.329	24.9
244.545	25.12
244.762	28.3
244.978	26.8
245.194	26.32
245.411	25.85
245.627	24.61
245.843	23.97
246.06	21.13
246.276	20.92
246.492	19.61
246.709	18.09
246.925	17.36
247.141	16.49
247.357	15.78
247.574	15.45
247.79	14.88
248.006	15.55
248.222	15.8
248.439	17.17
248.655	17.67
248.871	17.81
249.087	18.37
249.303	19.11
249.519	20.15
249.736	22.45
249.952	23.99
250.168	27.32
250.384	29.68
250.6	30.88
250.816	30.81
251.032	29.74
251.248	30.38
251.464	29.32
251.68	28.48
251.896	27.27
252.112	27.34
252.328	25.84
252.544	24.93
252.76	22.26
252.976	23.86
253.192	22.54
253.408	22.59
253.624	24.32
253.84	25.82
254.056	26.75
254.272	27.05
254.487	27.12
254.703	31.67
254.919	31.43
255.135	33.87
255.351	32.52
255.567	33.53
255.782	35.42
255.998	33.25
256.214	31.21
256.43	31.38
256.646	32.9
256.861	31.03
257.077	28.76
257.293	29.86
257.508	30.32
257.724	29.27
257.94	29.82
258.155	26.21
258.371	23.9
258.587	23.02
258.802	21.19
259.018	18.65
259.234	18.34
259.449	17.43
259.665	16.47
259.88	16.13
260.096	15.27
260.312	14.94
260.527	15.66
260.743	15.54
260.958	15.54
261.174	14.85
261.389	15.28
261.605	15.38
261.82	15.73
262.036	16.33
262.251	15.65
262.466	16.62
262.682	15.61
262.897	15
263.113	16.32
263.328	17.62
263.543	20.01
263.759	21.12
263.974	22.31
264.189	22.68
264.405	23.99
264.62	25.54
264.835	26.17
265.051	26.98
265.266	28.91
265.481	27.76
265.696	27.35
265.912	27.13
266.127	26.16
266.342	25.31
266.557	25.26
266.773	22.4
266.988	21.32
267.203	20.67
267.418	20.42
267.633	18.5
267.848	16.87
268.064	15.85
268.279	15.63
268.494	15.31
268.709	15.91
268.924	14.51
269.139	14.16
269.354	14.97
269.569	13.74
269.784	13.62
269.999	13.07
270.214	14.58
270.429	15.82
270.644	14.68
270.859	13.79
271.074	12.01
271.289	13.03
271.504	13.98
271.719	12.93
271.934	14.95
272.149	14.76
272.363	15.03
272.578	14.09
272.793	12.87
273.008	14.52
273.223	15.72
273.438	16.78
273.653	17.51
273.867	17.61
274.082	18.46
274.297	16.98
274.512	17.4
274.726	18
274.941	19.09
275.156	21.7
275.371	20.4
275.585	20.97
275.8	19.6
276.015	18.06
276.229	17.74
276.444	18.75
276.659	18.65
276.873	19.54
277.088	20.46
277.302	20.95
277.517	18.9
277.732	19.25
277.946	18.03
278.161	19.97
278.375	20.74
278.59	21.61
278.804	19.83
279.019	21.38
279.233	20.01
279.448	19.33
279.662	18.94
279.877	18.21
280.091	18.88
280.306	18.23
280.52	17.12
280.735	17.89
280.949	16.6
281.163	17.54
281.378	15.46
281.592	15.57
281.806	14.85
282.021	14.46
282.235	15.2
282.449	15.12
282.664	15.31
282.878	15.46
283.092	16.5
283.307	17.21
283.521	16.63
283.735	17.18
283.949	17.63
284.164	17.34
284.378	16.97
284.592	15.68
284.806	15.41
285.02	15.36
285.234	14.91
285.449	12.61
285.663	12.8
285.877	13.15
286.091	14.2
286.305	13.78
286.519	13.23
286.733	13.09
286.947	14.23
287.161	13.66
287.375	13.45
287.589	14.54
287.803	15.74
288.017	14.87
288.231	14.14
288.445	13.82
288.659	13.76
288.873	14.33
289.087	14.88
289.301	15.17
289.515	15.48
289.729	16.96
289.943	16.22
290.157	16.63
290.371	17.02
290.584	17.54
290.798	16.46
291.012	16.29
291.226	17.38
291.44	17.92
291.654	17.64
291.867	18.03
292.081	17.2
292.295	17.82
292.509	17.38
292.722	17.63
292.936	17.82
293.15	18.9
293.364	20.62
293.577	19.62
293.791	19.24
294.005	19.47
294.218	18.48
294.432	18.11
294.645	18.89
294.859	19.2
295.073	18.22
295.286	17.83
295.5	17.53
295.713	16.4
295.927	16.01
296.14	16.11
296.354	15.33
296.568	15.85
296.781	16.18
296.994	15.63
297.208	13.87
297.421	14.69
297.635	14.3
297.848	13.64
298.062	13.99
298.275	14.52
298.489	14.11
298.702	14.16
298.915	13.97
299.129	13.85
299.342	13.25
299.555	15.52
299.769	16.23
299.982	17.43
300.195	17.72
300.409	17.58
300.622	18.25
300.835	19.06
301.048	20
301.262	20.92
301.475	21.22
301.688	21.1
301.901	20.18
302.115	19.59
302.328	18.9
302.541	19.02
302.754	18.83
302.967	19.26
303.18	18.59
303.393	17.93
303.607	16.07
303.82	16.21
304.033	16.03
304.246	17.26
304.459	17.88
304.672	18.34
304.885	19.12
305.098	19.03
305.311	18.34
305.524	18.03
305.737	18.38
305.95	18.66
306.163	18.19
306.376	18.68
306.589	17.68
306.802	17.48
307.015	16.61
307.228	15.88
307.44	16.31
307.653	17.12
307.866	18.54
308.079	17.61
308.292	18.22
308.505	18.88
308.718	18.55
308.93	17.83
309.143	16.27
309.356	16.68
309.569	17.07
309.781	17.16
309.994	16.27
310.207	15.18
310.42	16.08
310.632	16
310.845	15.22
311.058	15.75
311.27	16.36
311.483	17.59
311.696	17.02
311.908	17.26
312.121	16.57
312.333	17.79
312.546	18.32
312.759	18.28
312.971	18.99
313.184	20.24
313.396	20.03
313.609	19.5
313.821	18.59
314.034	20.2
314.246	20.73
314.459	22.02
314.671	19.95
314.884	19.47
315.096	19.65
315.309	19.74
315.521	18.97
315.733	19.23
315.946	19.53
316.158	18.04
316.371	18.43
316.583	18
316.795	17.2
317.008	18.44
317.22	18.99
317.432	18.94
317.644	19.04
317.857	19.76
318.069	18.81
318.281	19.88
318.494	22.37
318.706	21.66
318.918	21.8
319.13	21.5
319.342	20.8
319.555	20.49
319.767	20.24
319.979	19.99
320.191	20.09
320.403	21.82
320.615	20.98
320.827	21.22
321.039	20.98
321.252	19.6
321.464	20.52
321.676	20.85
321.888	21.36
322.1	21.69
322.312	22.07
322.524	21.51
322.736	20.54
322.948	21.53
323.16	21.75
323.372	22.83
323.584	23.62
323.796	24.46
324.007	24.75
324.219	25.6
324.431	25.94
324.643	26.54
324.855	26.85
325.067	28.3
325.279	28.1
325.491	28.39
325.702	27.84
325.914	29.21
326.126	28.48
326.338	27.98
326.55	27.97
326.761	27.93
326.973	27.51
327.185	28.32
327.396	28.07
327.608	27.37
327.82	28.15
328.032	28.34
328.243	28.52
328.455	29.58
328.666	31.15
328.878	31.72
329.09	32.84
329.301	34.52
329.513	34.6
329.725	35.59
329.936	37.65
330.148	36.88
330.359	37.7
330.571	37.96
330.782	38.35
330.994	38.8
331.205	39.73
331.417	39.54
331.628	39.84
331.84	40.79
332.051	41.13
332.262	40.82
332.474	42.09
332.685	42.7
332.897	42.58
333.108	41.98
333.319	42.14
333.531	42.22
333.742	43.06
333.953	42.44
334.165	41.75
334.376	41
334.587	41.92
334.799	41.69
335.01	42.39
335.221	43.34
335.432	43.92
335.644	43.61
335.855	43.8
336.066	44
336.277	44.25
336.488	44.67
336.7	44.01
336.911	44.43
337.122	44.81
337.333	44.61
337.544	44.13
337.755	44.55
337.966	44.8
338.177	44.26
338.388	44.11
338.599	44.84
338.811	45.25
339.022	46.13
339.233	45.57
339.444	44.86
339.655	44.15
339.866	44.94
340.076	44.74
340.287	45.06
340.498	45.2
340.709	44.44
340.92	44.15
341.131	43.66
341.342	43.79
341.553	44.1
341.764	43.81
341.975	44.47
342.185	43.29
342.396	43.41
342.607	43.25
342.818	43.58
343.029	44.46
343.239	44.32
343.45	43.16
343.661	43.09
343.872	42.48
344.082	43.49
344.293	43.16
344.504	43.45
344.714	43.15
344.925	43.28
345.136	42.47
345.346	42.29
345.557	42.24
345.768	43.27
345.978	43.07
346.189	42.53
346.399	41.31
346.61	41.5
346.821	41.48
347.031	41.29
347.242	41.54
347.452	41.89
347.663	41.72
347.873	41.88
348.084	41.75
348.294	41.42
348.504	41.96
348.715	43.18
348.925	42.3
349.136	42.26
349.346	42.89
349.557	42.19
349.767	42.37
349.977	42.13
350.188	41.59
350.398	41.01
350.608	41.69
350.819	42.94
351.029	42.32
351.239	43.29
351.449	43.4
351.66	43.37
351.87	43.71
352.08	43.95
352.29	44.11
352.501	43.48
352.711	44.47
352.921	43.83
353.131	43.05
353.341	43.28
353.552	42.66
353.762	41.93
353.972	41.56
354.182	41.48
354.392	41.76
354.602	42.19
354.812	42.89
355.022	42.6
355.232	42.55
355.442	42.16
355.652	42.51
355.862	42.17
356.072	42.64
356.282	42.39
356.492	42.6
356.702	41.58
356.912	41.23
357.122	41.2
357.332	40.82
357.542	40.47
357.752	40.19
357.962	39.55
358.171	39.71
358.381	39.86
358.591	40.09
358.801	40.01
359.011	40.43
359.221	39.92
359.43	40.39
359.64	40.3
359.85	40.71
360.06	40.59
360.269	40.97
360.479	40.56
360.689	39.92
360.899	39.65
361.108	39.46
361.318	38.88
361.528	38.55
361.737	38.28
361.947	38.53
362.156	38.27
362.366	38.41
362.576	38.22
362.785	38.61
362.995	38.75
363.204	38.89
363.414	38.55
363.623	39.23
363.833	39.71
364.042	39.36
364.252	39.14
364.461	39.19
364.671	38.99
364.88	38.51
365.09	38.39
365.299	38.96
365.509	38.22
365.718	38.45
365.927	38.1
366.137	37.69
366.346	37.42
366.555	37.49
366.765	37.8
366.974	37.73
367.183	37.87
367.393	38.12
367.602	37.87
367.811	38.3
368.021	38.28
368.23	37.97
368.439	37.66
368.648	37.53
368.857	37.67
369.067	36.94
369.276	37.33
369.485	37.46
369.694	37.12
369.903	36.45
370.112	36.64
370.321	36.47
370.531	35.89
370.74	36.08
370.949	36.45
371.158	35.93
371.367	36.08
371.576	35.56
371.785	35.29
371.994	35.02
372.203	35.15
372.412	34.86
372.621	34.44
372.83	34.46
373.039	34.7
373.248	34.13
373.457	34.36
373.666	33.97
373.874	33.13
374.083	32.65
374.292	32.02
374.501	32.11
374.71	31.65
374.919	31.52
375.128	31.96
375.336	31.91
375.545	32.35
375.754	31.66
375.963	31.66
376.171	31.87
376.38	32.11
376.589	32.19
376.798	31.44
377.006	31.66
377.215	31.94
377.424	31.26
377.632	31.2
377.841	30.68
378.05	30.89
378.258	30.86
378.467	30.79
378.675	30.25
378.884	30.05
379.093	30.22
379.301	30.14
379.51	29.67
379.718	30.28
379.927	30.29
380.135	30.01
380.344	29.7
380.552	29.46
380.761	29.51
380.969	29.7
381.177	29.49
381.386	29.4
381.594	28.93
381.803	28.88
382.011	28.67
382.219	28.21
382.428	28.38
382.636	28.15
382.845	28.31
383.053	28.41
383.261	28.39
383.469	28.51
383.678	28.49
383.886	28.64
384.094	28.44
384.302	28.02
384.511	27.55
384.719	27.65
384.927	27.69
385.135	27.7
385.343	27.46
385.552	27.61
385.76	27.97
385.968	27.89
386.176	27.52
386.384	27.43
386.592	26.91
386.8	27.11
387.008	26.89
387.216	27.03
387.424	26.91
387.633	26.72
387.841	25.93
388.049	25.37
388.257	25.24
388.465	25.28
388.672	25.29
388.88	25.57
389.088	25.24
389.296	24.95
389.504	24.56
389.712	24.28
389.92	24.17
390.128	24.22
390.336	24.16
390.544	24.04
390.751	23.83
390.959	23.74
391.167	23.64
391.375	23.57
391.583	23.52
391.79	23.25
391.998	23.27
392.206	23.29
392.414	22.87
392.621	22.81
392.829	22.58
393.037	22.83
393.244	22.77
393.452	22.73
393.66	22.84
393.867	22.76
394.075	23.24
394.283	22.99
394.49	22.92
394.698	23.42
394.905	23.49
395.113	23.68
395.32	23.58
395.528	23.56
395.735	23.6
395.943	23.53
396.15	23.6
396.358	23.1
396.565	23.05
396.773	22.92
396.98	23.07
397.188	22.91
397.395	22.6
397.602	22.53
397.81	22.55
398.017	22.24
398.225	22.11
398.432	22.18
398.639	22.13
398.847	22.23
399.054	22.26
399.261	21.99
399.468	21.89
399.676	22.13
399.883	21.97
400.09	21.82
400.297	22.1
400.505	22.08
400.712	21.65
400.919	21.5
401.126	21.43
401.333	21.43
401.54	21.62
401.748	21.53
401.955	21.51
402.162	21.75
402.369	21.58
402.576	21.22
402.783	20.93
402.99	20.65
403.197	20.87
403.404	20.81
403.611	20.89
403.818	20.69
404.025	20.46
404.232	20.32
404.439	19.92
404.646	19.95
404.853	20.27
405.06	20.45
405.267	21.08
405.474	20.97
405.681	21.02
405.887	20.64
406.094	20.54
406.301	20.77
406.508	20.69
406.715	20.8
406.922	20.69
407.128	20.61
407.335	20.45
407.542	20.27
407.749	20.17
407.955	19.87
408.162	19.91
408.369	20.09
408.575	19.96
408.782	19.95
408.989	19.86
409.195	20
409.402	19.99
409.609	20.17
409.815	19.9
410.022	20.09
410.228	20.34
410.435	20.46
410.642	20.13
410.848	20.25
411.055	20.36
411.261	20.26
411.468	20.14
411.674	19.78
411.881	19.46
412.087	19.44
412.294	19.56
412.5	19.21
412.706	18.97
412.913	19.02
413.119	18.97
413.326	19.21
413.532	19.24
413.738	19.18
413.945	19.4
414.151	19.48
414.357	19.61
414.564	19.68
414.77	20.06
414.976	20.24
415.182	20.31
415.389	20.37
415.595	20
415.801	20.09
416.007	20.16
416.214	20.13
416.42	20
416.626	20.11
416.832	19.74
417.038	19.51
417.244	19.43
417.45	19.41
417.657	19.26
417.863	19.25
418.069	19.27
418.275	19.19
418.481	19.02
418.687	18.99
418.893	18.62
419.099	18.52
419.305	18.49
419.511	18.47
419.717	18.39
419.923	18.3
420.129	18.29
420.335	18.17
420.541	18.06
420.746	17.94
420.952	17.95
421.158	18
421.364	18.09
421.57	17.99
421.776	17.91
421.982	17.87
422.187	17.8
422.393	17.67
422.599	17.51
422.805	17.62
423.01	17.69
423.216	17.75
423.422	17.74
423.628	17.61
423.833	17.63
424.039	17.65
424.245	17.57
424.45	17.78
424.656	17.77
424.862	18
425.067	17.9
425.273	17.79
425.478	17.68
425.684	17.67
425.889	17.74
426.095	17.8
426.301	17.89
426.506	17.98
426.712	17.72
426.917	17.72
427.123	17.48
427.328	17.41
427.533	17.53
427.739	17.7
427.944	17.47
428.15	17.4
428.355	17.55
428.561	17.47
428.766	17.33
428.971	17.5
429.177	17.57
429.382	17.71
429.587	17.78
429.793	17.93
429.998	18
430.203	18.08
430.408	18.1
430.614	17.78
430.819	17.61
431.024	17.65
431.229	17.54
431.434	17.5
431.64	17.46
431.845	17.4
432.05	17.45
432.255	17.39
432.46	17.53
432.665	17.33
432.87	17.25
433.076	17.37
433.281	17.22
433.486	17.3
433.691	17.31
433.896	17.3
434.101	17.41
434.306	17.18
434.511	17.02
434.716	16.91
434.921	17.02
435.126	17.18
435.331	17.05
435.535	17.17
435.74	17.08
435.945	16.81
436.15	16.73
436.355	16.76
436.56	16.94
436.765	16.99
436.97	17.11
437.174	17.38
437.379	17.46
437.584	17.64
437.789	17.72
437.993	17.8
438.198	18.01
438.403	18.16
438.608	18.1
438.812	18.01
439.017	18.06
439.222	18.12
439.426	17.87
439.631	17.79
439.836	17.67
440.04	17.6
440.245	17.55
440.45	17.54
440.654	17.39
440.859	17.32
441.063	17.24
441.268	17.12
441.472	17.08
441.677	17.09
441.881	17.19
442.086	17.14
442.29	17.15
442.495	17.12
442.699	17.17
442.904	17.17
443.108	17.14
443.312	17.17
443.517	17.25
443.721	17.3
443.925	17.16
444.13	16.9
444.334	16.98
444.538	17.08
444.743	16.94
444.947	16.73
445.151	16.62
445.356	16.51
445.56	16.56
445.764	16.37
445.968	16.16
446.173	16.26
446.377	16.25
446.581	16.15
446.785	16.03
446.989	16.01
447.193	16.1
447.398	16.19
447.602	16.11
447.806	16.04
448.01	16.07
448.214	16.16
448.418	16.03
448.622	16.12
448.826	16.18
449.03	16.1
449.234	16.09
449.438	15.97
449.642	15.72
449.846	15.9
450.05	15.83
450.254	15.79
450.458	15.59
450.662	15.75
450.866	15.59
451.069	15.57
451.273	15.56
451.477	15.52
451.681	15.33
451.885	15.56
452.089	15.43
452.292	15.59
452.496	15.66
452.7	15.88
452.904	15.74
453.107	15.71
453.311	15.6
453.515	15.51
453.719	15.54
453.922	15.81
454.126	15.67
454.33	15.87
454.533	15.64
454.737	15.55
454.94	15.45
455.144	15.71
455.348	15.7
455.551	15.84
455.755	16.03
455.958	16.21
456.162	16.19
456.365	16.29
456.569	16.26
456.772	16.2
456.976	16.28
457.179	16.28
457.383	15.94
457.586	16
457.79	15.94
457.993	15.86
458.196	15.74
458.4	15.68
458.603	15.63
458.807	15.55
459.01	15.7
459.213	15.75
459.417	15.78
459.62	15.88
459.823	15.8
460.026	15.84
460.23	15.97
460.433	16.01
460.636	16.07
460.839	16.18
461.042	16.34
461.246	16.31
461.449	16.34
461.652	16.31
461.855	16.32
462.058	16.56
462.261	16.57
462.464	16.58
462.668	16.56
462.871	16.8
463.074	16.77
463.277	16.75
463.48	16.85
463.683	16.75
463.886	16.93
464.089	17.06
464.292	16.92
464.495	16.86
464.698	16.81
464.901	16.84
465.104	16.77
465.306	16.9
465.509	16.77
465.712	16.86
465.915	17.03
466.118	16.97
466.321	16.95
466.524	16.94
466.726	17.1
466.929	17.12
467.132	17.11
467.335	17.03
467.538	16.93
467.74	17.02
467.943	17.03
468.146	17.05
468.348	17.04
468.551	17.02
468.754	17.28
468.956	17.36
469.159	17.48
469.362	17.62
469.564	17.7
469.767	17.89
469.969	18.07
470.172	18.04
470.375	17.97
470.577	18.17
470.78	18.2
470.982	18.09
471.185	18.02
471.387	18.08
471.59	18.08
471.792	18.17
471.995	18.12
472.197	18.05
472.399	18.16
472.602	18.2
472.804	17.94
473.007	18.11
473.209	18.24
473.411	18.15
473.614	17.93
473.816	18.05
474.018	17.86
474.22	17.79
474.423	17.81
474.625	17.78
474.827	17.92
475.03	18.15
475.232	18.1
475.434	17.87
475.636	17.9
475.838	18.17
476.04	17.97
476.243	18.03
476.445	18
476.647	17.95
476.849	17.77
477.051	17.5
477.253	17.54
477.455	17.52
477.657	17.55
477.859	17.54
478.061	17.42
478.263	17.55
478.465	17.56
478.667	17.52
478.869	17.53
479.071	17.64
479.273	17.91
479.475	17.66
479.677	17.56
479.879	17.75
480.081	17.67
480.283	17.66
480.485	17.58
480.686	17.59
480.888	17.61
481.09	17.5
481.292	17.44
481.494	17.26
481.695	17.26
481.897	17.21
482.099	17.15
482.301	17.26
482.502	17.28
482.704	17.24
482.906	17.18
483.107	17.16
483.309	17.15
483.511	17.12
483.712	17.05
483.914	17.09
484.115	17.03
484.317	16.93
484.519	16.89
484.72	16.82
484.922	16.77
485.123	16.77
485.325	16.76
485.526	16.76
485.728	16.75
485.929	16.8
486.131	16.75
486.332	16.86
486.534	16.9
486.735	16.87
486.936	16.97
487.138	17.03
487.339	17.05
487.541	17.08
487.742	17.15
487.943	17.18
488.144	17.22
488.346	17.28
488.547	17.29
488.748	17.3
488.95	17.31
489.151	17.27
489.352	17.34
489.553	17.34
489.755	17.37
489.956	17.38
490.157	17.41
490.358	17.5
490.559	17.55
490.76	17.59
490.961	17.71
491.163	17.76
491.364	17.92
491.565	17.93
491.766	17.99
491.967	18.03
492.168	17.96
492.369	17.97
492.57	18
492.771	18.07
492.972	18.13
493.173	18.21
493.374	18.34
493.575	18.35
493.776	18.38
493.976	18.54
494.177	18.7
494.378	18.79
494.579	19.01
494.78	19.05
494.981	19.18
495.182	19.22
495.382	19.42
495.583	19.53
495.784	19.62
495.985	19.72
496.185	19.72
496.386	19.69
496.587	19.89
496.788	19.98
496.988	20.04
497.189	20.16
497.39	20.29
497.59	20.23
497.791	20.31
497.992	20.41
498.192	20.56
498.393	20.73
498.593	20.89
498.794	21.05
498.994	21.17
499.195	21.24
499.395	21.4
499.596	21.54
499.796	21.72
499.997	21.95
500.197	22.12
500.398	22.1
500.598	22.24
500.799	22.32
500.999	22.42
501.199	22.59
501.4	22.93
501.6	23.14
501.801	23.37
502.001	23.57
502.201	23.72
502.402	23.91
502.602	24.29
502.802	24.51
503.002	24.76
503.203	25.07
503.403	25.17
503.603	25.31
503.803	25.24
504.003	25.36
504.204	25.54
504.404	25.71
504.604	25.65
504.804	25.9
505.004	25.98
505.204	26.01
505.404	25.96
505.604	26.16
505.804	26.04
506.005	26.22
506.205	26.39
506.405	26.54
506.605	26.69
506.805	26.93
507.005	26.9
507.204	26.95
507.404	27.3
507.604	27.67
507.804	27.83
508.004	28.18
508.204	28.32
508.404	28.34
508.604	28.39
508.804	28.58
509.003	28.73
509.203	28.94
509.403	29.17
509.603	29.36
509.803	29.39
510.002	29.59
510.202	29.84
510.402	29.99
510.602	30.25
510.801	30.49
511.001	30.65
511.201	30.72
511.4	30.83
511.6	31
511.8	31.1
511.999	31.29
512.199	31.35
512.398	31.39
512.598	31.7
512.797	31.95
512.997	31.98
513.197	32.07
513.396	32.41
513.596	32.62
513.795	32.71
513.994	32.88
514.194	33.1
514.393	33.27
514.593	33.57
514.792	33.58
514.992	33.6
515.191	33.9
515.39	34.03
515.59	34.2
515.789	34.4
515.988	34.52
516.188	34.71
516.387	34.91
516.586	35.21
516.786	35.27
516.985	35.55
517.184	35.8
517.383	35.99
517.582	36.14
517.782	36.32
517.981	36.51
518.18	36.62
518.379	36.73
518.578	36.76
518.777	36.81
518.976	36.95
519.176	37.03
519.375	37.06
519.574	37.2
519.773	37.4
519.972	37.41
520.171	37.54
520.37	37.83
520.569	37.98
520.768	38.19
520.967	38.3
521.166	38.38
521.365	38.47
521.564	38.67
521.762	38.67
521.961	38.68
522.16	38.81
522.359	38.81
522.558	38.78
522.757	38.92
522.956	39.03
523.154	39.19
523.353	39.32
523.552	39.52
523.751	39.6
523.949	39.86
524.148	40.04
524.347	40.31
524.546	40.37
524.744	40.47
524.943	40.53
525.142	40.57
525.34	40.68
525.539	40.74
525.737	40.82
525.936	40.84
526.135	40.9
526.333	40.88
526.532	40.89
526.73	41.07
526.929	41.25
527.127	41.34
527.326	41.35
527.524	41.34
527.723	41.38
527.921	41.4
528.12	41.55
528.318	41.53
528.516	41.61
528.715	41.7
528.913	41.72
529.112	41.73
529.31	41.69
529.508	41.76
529.707	41.86
529.905	42.02
530.103	42.09
530.301	42.12
530.5	42.2
530.698	42.31
530.896	42.33
531.094	42.4
531.293	42.44
531.491	42.62
531.689	42.74
531.887	42.89
532.085	42.81
532.283	42.9
532.481	42.87
532.68	43.03
532.878	43.04
533.076	43.02
533.274	43.01
533.472	43.03
533.67	42.94
533.868	42.99
534.066	42.96
534.264	43.06
534.462	43.08
534.66	43.13
534.858	43.11
535.056	43.11
535.253	43.24
535.451	43.34
535.649	43.41
535.847	43.63
536.045	43.66
536.243	43.77
536.441	43.71
536.638	43.79
536.836	43.92
537.034	43.93
537.232	43.98
537.43	44
537.627	44.1
537.825	44.13
538.023	44.14
538.22	44.11
538.418	44.13
538.616	44.32
538.813	44.33
539.011	44.34
539.209	44.37
539.406	44.42
539.604	44.52
539.801	44.58
539.999	44.73
540.196	44.83
540.394	44.87
540.591	44.79
540.789	44.66
540.986	44.62
541.184	44.6
541.381	44.52
541.579	44.42
541.776	44.28
541.974	44.27
542.171	44.27
542.368	44.16
542.566	44.05
542.763	44
542.96	44.08
543.158	44.03
543.355	44.02
543.552	44.2
543.75	44.4
543.947	44.56
544.144	44.58
544.341	44.57
544.539	44.73
544.736	44.95
544.933	45
545.13	44.98
545.327	45.22
545.524	45.35
545.722	45.26
545.919	45.13
546.116	45.13
546.313	45.11
546.51	45.02
546.707	45.03
546.904	45.05
547.101	45.21
547.298	45.31
547.495	45.18
547.692	45.05
547.889	45.13
548.086	45.2
548.283	45.2
548.48	45.2
548.677	45.19
548.874	45.02
549.07	45.06
549.267	44.95
549.464	44.96
549.661	44.95
549.858	45.05
550.055	45
550.251	44.95
550.448	44.96
550.645	45.07
550.842	45.14
551.038	45.26
551.235	45.34
551.432	45.56
551.628	45.35
551.825	45.37
552.022	45.38
552.218	45.46
552.415	45.72
552.612	45.73
552.808	45.71
553.005	45.8
553.201	46
553.398	45.79
553.594	45.79
553.791	45.87
553.987	46.02
554.184	46.1
554.38	46
554.577	45.84
554.773	45.9
554.97	46.01
555.166	46.02
555.362	46.02
555.559	46.1
555.755	46
555.952	46.15
556.148	46.06
556.344	46.08
556.541	46.03
556.737	45.9
556.933	45.91
557.129	45.85
557.326	45.77
557.522	45.62
557.718	45.81
557.914	45.98
558.11	45.98
558.307	45.89
558.503	45.83
558.699	45.98
558.895	46.02
559.091	46.02
559.287	46.12
559.483	46.36
559.679	46.51
559.876	46.49
560.072	46.48
560.268	46.39
560.464	46.84
560.66	46.94
560.856	47.1
561.052	47.45
561.247	47.61
561.443	47.66
561.639	47.73
561.835	47.7
562.031	47.62
562.227	47.58
562.423	47.56
562.619	47.42
562.815	47.49
563.01	47.37
563.206	47.28
563.402	47.15
563.598	46.92
563.793	46.81
563.989	46.82
564.185	46.85
564.381	46.85
564.576	46.87
564.772	47.01
564.968	46.94
565.163	46.75
565.359	46.77
565.555	46.71
565.75	46.91
565.946	46.89
566.141	46.82
566.337	46.82
566.532	46.91
566.728	46.93
566.923	46.75
567.119	46.79
567.314	47.1
567.51	46.99
567.705	46.98
567.901	46.91
568.096	46.94
568.292	47.15
568.487	46.98
568.682	46.9
568.878	46.94
569.073	46.98
569.268	46.89
569.464	46.68
569.659	46.84
569.854	46.88
570.05	46.85
570.245	46.93
570.44	46.69
570.635	46.89
570.831	46.88
571.026	47
571.221	46.87
571.416	46.89
571.611	47.12
571.806	47.02
572.002	47.08
572.197	47.09
572.392	47.01
572.587	47.02
572.782	47.01
572.977	47.1
573.172	47.08
573.367	47.25
573.562	47.47
573.757	47.17
573.952	47.2
574.147	47.32
574.342	47.4
574.537	47.46
574.732	47.41
574.927	47.45
575.121	47.34
575.316	47.42
575.511	47.4
575.706	47.04
575.901	47.19
576.096	47.18
576.29	47.1
576.485	46.97
576.68	46.9
576.875	46.87
577.069	46.86
577.264	46.92
577.459	46.83
577.654	46.91
577.848	47.1
578.043	47.08
578.238	47.19
578.432	47.22
578.627	47.26
578.821	47.4
579.016	47.53
579.21	47.46
579.405	47.56
579.6	47.53
579.794	47.42
579.989	47.44
580.183	47.72
580.378	47.56
580.572	47.62
580.766	47.72
580.961	47.76
581.155	47.89
581.35	48.12
581.544	48.18
581.738	48.35
581.933	48.15
582.127	48.27
582.321	48.06
582.516	48.24
582.71	48.14
582.904	48.09
583.099	47.89
583.293	48.12
583.487	48.13
583.681	48.13
583.875	48.15
584.07	48.27
584.264	48.3
584.458	48.47
584.652	48.52
584.846	48.46
585.04	48.49
585.234	48.86
585.428	48.65
585.623	48.64
585.817	48.38
586.011	48.31
586.205	48.57
586.399	48.5
586.593	48.45
586.787	48.55
586.981	48.54
587.174	48.52
587.368	48.28
587.562	48.33
587.756	48.25
587.95	48.5
588.144	48.51
588.338	48.26
588.532	48.34
588.725	48.56
588.919	48.42
589.113	48.71
589.307	48.85
589.501	49.07
589.694	49.11
589.888	49.11
590.082	49.06
590.275	48.9
590.469	48.92
590.663	49.15
590.856	48.91
591.05	48.79
591.244	48.79
591.437	48.97
591.631	48.82
591.824	48.62
592.018	48.89
592.212	48.9
592.405	48.86
592.599	48.9
592.792	48.69
592.986	48.7
593.179	48.82
593.372	48.62
593.566	48.26
593.759	48.4
593.953	48.76
594.146	48.64
594.339	48.76
594.533	48.99
594.726	49.42
594.92	49.34
595.113	49.52
595.306	49.81
595.499	50.04
595.693	50.25
595.886	50
596.079	49.68
596.272	49.56
596.466	49.55
596.659	49.51
596.852	49.15
597.045	49.21
597.238	49.08
597.431	48.79
597.624	48.82
597.818	48.88
598.011	49.05
598.204	49.33
598.397	49.33
598.59	49.3
598.783	49.5
598.976	49.73
599.169	50.03
599.362	50.04
599.555	50.37
599.748	50.35
599.941	50.38
600.134	50.41
600.326	50.27
600.519	50.38
600.712	50.51
600.905	50.58
601.098	50.31
601.291	50.13
601.483	50.28
601.676	49.78
601.869	49.77
602.062	49.75
602.255	49.68
602.447	49.8
602.64	49.84
602.833	49.63
603.025	49.48
603.218	49.59
603.411	49.55
603.603	49.56
603.796	49.91
603.989	49.69
604.181	49.59
604.374	49.56
604.566	49.48
604.759	49.43
604.951	49.3
605.144	49.16
605.336	49.36
605.529	49.32
605.721	49.37
605.914	49.32
606.106	49.48
606.299	49.59
606.491	49.53
606.683	49.76
606.876	49.76
607.068	50.02
607.26	50.19
607.453	49.92
607.645	49.79
607.837	49.7
608.03	49.62
608.222	49.77
608.414	49.78
608.606	49.92
608.799	49.79
608.991	49.95
609.183	50.25
609.375	50.29
609.567	50.36
609.759	50.66
609.952	50.75
610.144	50.86
610.336	50.81
610.528	50.74
610.72	50.67
610.912	50.73
611.104	50.86
611.296	50.43
611.488	50.55
611.68	50.6
611.872	50.32
612.064	50.38
612.256	50.28
612.448	50.11
612.64	50.27
612.832	50.53
613.023	50.53
613.215	50.46
613.407	50.7
613.599	50.42
613.791	50.76
613.983	50.62
614.174	50.58
614.366	50.78
614.558	50.9
614.75	51.04
614.941	50.97
615.133	50.93
615.325	51.2
615.516	51.28
615.708	51.46
615.9	51.11
616.091	51.36
616.283	51.12
616.475	51.11
616.666	51.06
616.858	50.85
617.049	50.66
617.241	50.8
617.432	50.46
617.624	50.74
617.815	50.59
618.007	50.54
618.198	50.6
618.39	50.78
618.581	50.97
618.773	51.17
618.964	51.13
619.155	51.3
619.347	50.99
619.538	50.8
619.729	50.5
619.921	50.72
620.112	51.03
620.303	51.12
620.494	51.32
620.686	51.16
620.877	50.97
621.068	50.93
621.259	51.12
621.451	51.42
621.642	51.58
621.833	51.61
622.024	51.74
622.215	51.55
622.406	51.4
622.597	51.25
622.788	51.45
622.98	51.63
623.171	51.58
623.362	51.33
623.553	51.35
623.744	51.52
623.935	51.55
624.126	51.4
624.317	51.76
624.508	51.79
624.698	51.9
624.889	51.45
625.08	51.6
625.271	52.2
625.462	52.18
625.653	52.22
625.844	52.01
626.034	51.74
626.225	51.96
626.416	51.77
626.607	51.86
626.798	51.88
626.988	52.27
627.179	52.31
627.37	51.89
627.56	51.94
627.751	52.01
627.942	52.26
628.132	52.62
628.323	52.33
628.514	52.25
628.704	52.32
628.895	52.19
629.085	51.9
629.276	51.76
629.466	51.78
629.657	51.79
629.847	51.57
630.038	51.57
630.228	51.44
630.419	51.72
630.609	51.83
630.8	51.96
630.99	51.94
631.181	51.94
631.371	52
631.561	52.06
631.752	52.39
631.942	52.56
632.132	52.79
632.323	52.67
632.513	52.66
632.703	52.67
632.893	52.58
633.084	52.57
633.274	52.65
633.464	52.69
633.654	52.65
633.844	52.46
634.034	52.35
634.225	52.05
634.415	52.32
634.605	52.28
634.795	52.26
634.985	52.01
635.175	52.14
635.365	52.11
635.555	51.99
635.745	52.12
635.935	52.25
636.125	52.03
636.315	52.21
636.505	52.35
636.695	52.3
636.885	52.33
637.075	52.14
637.265	52.26
637.455	52.2
637.644	52.43
637.834	52.46
638.024	52.07
638.214	52.28
638.404	51.7
638.593	51.52
638.783	51.53
638.973	51.69
639.163	52.1
639.352	51.78
639.542	52.05
639.732	51.96
639.921	52.13
640.111	52.32
640.301	52.39
640.49	52.88
640.68	52.74
640.87	53
641.059	52.64
641.249	53.01
641.438	52.99
641.628	52.8
641.817	52.83
642.007	52.47
642.196	52.38
642.386	52.32
642.575	52.41
642.764	52.5
642.954	52.27
643.143	52.53
643.333	52.14
643.522	52.37
643.711	52.22
643.901	52.51
644.09	53.11
644.279	53.56
644.469	53.49
644.658	53.31
644.847	53.92
645.036	54.11
645.226	54.08
645.415	54.14
645.604	53.87
645.793	54
645.982	53.81
646.171	53.26
646.361	52.94
646.55	53.24
646.739	53.41
646.928	52.76
647.117	52.46
647.306	52.81
647.495	53.02
647.684	53.43
647.873	53.68
648.062	53.48
648.251	53.46
648.44	53.14
648.629	53.01
648.818	52.71
649.007	53.11
649.196	53.35
649.384	52.72
649.573	52.63
649.762	52.5
649.951	52.48
650.14	52.62
650.328	52.78
650.517	53.37
650.706	53.56
650.895	53.92
651.083	53.67
651.272	53.73
651.461	54.36
651.65	54.23
651.838	54.51
652.027	54.51
652.216	54.12
652.404	54.32
652.593	54.55
652.781	54.48
652.97	54.11
653.158	54.17
653.347	54.07
653.535	54.05
653.724	54.21
653.912	54.16
654.101	54.4
654.289	54.96
654.478	54.76
654.666	54.21
654.855	54.19
655.043	54.67
655.231	54.75
655.42	54.91
655.608	55.03
655.796	55.3
655.985	54.98
656.173	55.06
656.361	54.91
656.55	54.66
656.738	54.97
656.926	55.15
657.114	55.07
657.302	54.9
657.491	55.05
657.679	54.5
657.867	54.17
658.055	54.61
658.243	54.3
658.431	54.08
658.619	54.18
658.807	53.97
658.996	53.97
659.184	54.14
659.372	54.4
659.56	53.83
659.748	53.91
659.936	54.01
660.124	53.67
660.311	53.53
660.499	53.52
660.687	53.45
660.875	53.72
661.063	53.3
661.251	52.92
661.439	52.52
661.627	53.02
661.814	52.91
662.002	52.54
662.19	52.33
662.378	52.39
662.565	52.78
662.753	52.89
662.941	52.68
663.129	53.05
663.316	52.54
663.504	52.5
663.692	52.13
663.879	52.37
664.067	53.04
664.254	53.1
664.442	53.1
664.63	52.72
664.817	52.62
665.005	52.63
665.192	52.66
665.38	53.37
665.567	53.36
665.755	53.84
665.942	53.99
666.13	53.51
666.317	53.89
666.504	53.9
666.692	53.84
666.879	54.32
667.067	54.32
667.254	54.21
667.441	54.33
667.629	54.13
667.816	53.67
668.003	53.31
668.19	53.54
668.378	53.53
668.565	53.66
668.752	53.62
668.939	53.42
669.127	53.51
669.314	53.48
669.501	53.3
669.688	53.8
669.875	53.77
670.062	53.94
670.249	53.59
670.436	53.81
670.623	53.47
670.81	53.71
670.997	53.24
671.184	52.54
671.371	52.62
671.558	52.26
671.745	52.04
671.932	52.35
672.119	52.22
672.306	52.96
672.493	52.65
672.68	53.16
672.867	53.07
673.054	53.49
673.24	54.12
673.427	54.01
673.614	54.49
673.801	54.73
673.988	54.61
674.174	54.77
674.361	54.08
674.548	54.08
674.734	54.41
674.921	54.34
675.108	54.11
675.294	54.08
675.481	53.71
675.668	53.55
675.854	53.69
676.041	53.53
676.227	53.27
676.414	53.39
676.601	53.67
676.787	53.55
676.974	53.28
677.16	53.44
677.347	53.67
677.533	53.96
677.719	53.83
677.906	53.27
678.092	52.89
678.279	53.4
678.465	53.46
678.651	53.09
678.838	52.65
679.024	52.92
679.21	53.05
679.397	52.74
679.583	52.6
679.769	52.81
679.955	53.04
680.142	53.33
680.328	53.19
680.514	53.02
680.7	52.58
680.886	52.79
681.073	52.72
681.259	52.51
681.445	52.71
681.631	52.95
681.817	52.85
682.003	52.44
682.189	52.52
682.375	52.25
682.561	52.2
682.747	52.75
682.933	52.21
683.119	52.25
683.305	52.27
683.491	52.25
683.677	51.75
683.863	51.59
684.049	52.13
684.235	52.22
684.42	51.63
684.606	51.61
684.792	51.64
684.978	51.9
685.164	51.73
685.349	51.3
685.535	51.38
685.721	51.92
685.907	51.83
686.092	51.46
686.278	51.21
686.464	51.74
686.649	51.94
686.835	52.11
687.021	52.55
687.206	52.84
687.392	53.1
687.577	52.65
687.763	52.02
687.948	52.18
688.134	52.36
688.319	52.68
688.505	52.93
688.69	52.98
688.876	52.7
689.061	52.12
689.247	51.99
689.432	52.18
689.618	52.17
689.803	52.1
689.988	52.3
690.174	52.1
690.359	51.78
690.544	51.69
690.73	51.21
690.915	51.18
691.1	51.42
691.285	51.73
691.471	51.64
691.656	51.41
691.841	51.88
692.026	51.45
692.211	51.95
692.396	51.93
692.582	51.96
692.767	52.46
692.952	52.04
693.137	52.2
693.322	51.72
693.507	52.16
693.692	52.3
693.877	52.48
694.062	52.61
694.247	52.55
694.432	52.8
694.617	52.5
694.802	52.46
694.987	52.92
695.172	52.74
695.357	52.88
695.541	52.6
695.726	52.65
695.911	52.62
696.096	52.5
696.281	51.89
696.466	51.94
696.65	52.37
696.835	52.2
697.02	51.79
697.204	52.15
697.389	52.24
697.574	51.84
697.759	51.72
697.943	51.4
698.128	51.36
698.312	51.64
698.497	51.05
698.682	50.66
698.866	50.64
699.051	50.78
699.235	50.12
699.42	50.03
699.604	50.5
699.789	50.44
699.973	50.44
700.158	50.7
700.342	50.54
700.527	51.15
700.711	51.32
700.895	51.47
701.08	51.42
701.264	51.93
701.448	51.94
701.633	51.32
701.817	51.69
702.001	52.2
702.186	52.34
702.37	51.89
702.554	51.03
702.738	51.1
702.923	50.99
703.107	50.94
703.291	50.69
703.475	50.29
703.659	50.54
703.843	50.7
704.027	50.54
704.212	50.08
704.396	50.78
704.58	51.52
704.764	51.18
704.948	51.41
705.132	51.36
705.316	52.14
705.5	52.65
705.684	53.1
705.868	52.78
706.052	52.76
706.235	53.1
706.419	53.04
706.603	52.73
706.787	52.9
706.971	52.97
707.155	53.14
707.339	52.61
707.522	52.48
707.706	52.11
707.89	52.31
708.074	52.1
708.257	51.5
708.441	51.65
708.625	51.59
708.808	51.35
708.992	51.23
709.176	50.77
709.359	50.12
709.543	49.64
709.727	49.69
709.91	49.58
710.094	49.84
710.277	50.27
710.461	50.02
710.644	50.59
710.828	50.36
711.011	50.33
711.195	50.53
711.378	50.87
711.562	51.27
711.745	51.94
711.928	51.82
712.112	51.48
712.295	50.93
712.478	51.39
712.662	50.81
712.845	51.05
713.028	50.74
713.212	50.79
713.395	50.67
713.578	50.54
713.761	49.33
713.945	49.37
714.128	49.76
714.311	50.25
714.494	49.99
714.677	49.96
714.86	49.69
715.043	49.83
715.227	50
715.41	49.79
715.593	49.73
715.776	50.04
715.959	50.14
716.142	50.01
716.325	50.02
716.508	49.95
716.691	50.17
716.874	50.57
717.057	50.93
717.239	51.21
717.422	51.53
717.605	51.66
717.788	51.29
717.971	51.9
718.154	52.05
718.337	51.84
718.519	51.3
718.702	51.5
718.885	51.51
719.068	51.04
719.25	51.72
719.433	51.9
719.616	51.64
719.798	52.07
719.981	51.86
720.164	51.12
720.346	51.3
720.529	51.09
720.712	50.17
720.894	50.53
721.077	51.17
721.259	50.12
721.442	50.02
721.624	49.75
721.807	50.2
721.989	49.24
722.172	49.83
722.354	49.91
722.537	50.54
722.719	51.28
722.901	51.12
723.084	49.88
723.266	49.55
723.448	50.39
723.631	50.37
723.813	50.45
723.995	51.08
724.178	51.35
724.36	50.76
724.542	50.48
724.724	50.18
724.907	50.32
725.089	50.85
725.271	51.38
725.453	50.67
725.635	51.24
725.817	51.35
725.999	50.34
726.181	49.99
726.364	49.72
726.546	50.22
726.728	50.39
726.91	50.23
727.092	50.19
727.274	50.02
727.456	50.39
727.638	50.12
727.819	49.34
728.001	49.59
728.183	49.54
728.365	50.32
728.547	49.57
728.729	49.46
728.911	49.02
729.093	49.37
729.274	49.21
729.456	48.61
729.638	49.06
729.82	49.17
730.001	49.13
730.183	49.24
730.365	49.46
730.546	48.89
730.728	48.22
730.91	48.08
731.091	47.97
731.273	48.22
731.455	48.66
731.636	49.1
731.818	49.1
731.999	49.07
732.181	48.34
732.362	47.86
732.544	48.53
732.725	49.03
732.907	49.26
733.088	48.98
733.27	48.44
733.451	47.67
733.633	47.74
733.814	47.26
733.995	46.82
734.177	47.37
734.358	47.32
734.539	47.56
734.721	47.78
734.902	47.89
735.083	48.41
735.264	48.54
735.446	49.86
735.627	49.02
735.808	50.06
735.989	50.62
736.17	51.02
736.351	51.04
736.533	50.59
736.714	50.04
736.895	49.21
737.076	47.95
737.257	47.62
737.438	46.4
737.619	46.58
737.8	46.2
737.981	46.31
738.162	45.62
738.343	46.08
738.524	46.2
738.705	46.75
738.886	47.04
739.067	47.55
739.247	48.2
739.428	48.74
739.609	48.12
739.79	47.49
739.971	47.41
740.151	47.98
740.332	47.59
740.513	47.82
740.694	47.99
740.874	48.43
741.055	48.38
741.236	48.44
741.417	47.5
741.597	47.86
741.778	48.74
741.958	48.75
742.139	48.31
742.32	48.21
742.5	48.93
742.681	48.81
742.861	48.73
743.042	48.49
743.222	48.29
743.403	48.78
743.583	49.22
743.764	48.2
743.944	48.22
744.124	47.45
744.305	47.84
744.485	47.54
744.666	47.3
744.846	46.81
745.026	47.56
745.207	47.95
745.387	48.59
745.567	48.21
745.747	48.46
745.928	48.58
746.108	49.85
746.288	49.7
746.468	49.07
746.648	48.78
746.829	49.16
747.009	48.5
747.189	48.09
747.369	47.93
747.549	47.81
747.729	47.42
747.909	46.81
748.089	45.39
748.269	44.65
748.449	44.36
748.629	44.4
748.809	44.19
748.989	44.63
749.169	44.08
749.349	42.75
749.529	42.96
749.709	43.38
749.889	43.27
750.068	43.82
750.248	43.98
750.428	45
750.608	43.87
750.788	45.4
750.967	44.89
751.147	45.52
751.327	46.83
751.507	46.07
751.686	46.03
751.866	46.82
752.046	46.52
752.225	46.76
752.405	46.15
752.585	47.43
752.764	46.53
752.944	46.76
753.123	47.11
753.303	46.57
753.482	46.36
753.662	46.64
753.841	46.41
754.021	47.34
754.2	46.71
754.38	47.58
754.559	47.76
754.739	47.26
754.918	47.04
755.097	45.07
755.277	45.24
755.456	45.93
755.635	45.59
755.815	46.78
755.994	45.73
756.173	46.02
756.352	46.03
756.532	45.61
756.711	46.06
756.89	46.88
757.069	48.04
757.248	46.55
757.427	46.48
757.607	46.95
757.786	45.47
757.965	45.96
758.144	46.4
758.323	45.31
758.502	46.16
758.681	45.24
758.86	45.61
759.039	46.05
759.218	47.37
759.397	46.44
759.576	45.36
759.755	45.07
759.934	45.47
760.113	45.81
760.291	45.14
760.47	43.95
760.649	44.57
760.828	42.86
761.007	42.62
761.186	42.47
761.364	42.97
761.543	43.68
761.722	43.31
761.901	42.58
762.079	41.36
762.258	42.52
762.437	42.61
762.615	42.83
762.794	43.4
762.972	42.73
763.151	42.43
763.33	42.5
763.508	42.68
763.687	43.01
763.865	43.04
764.044	43.73
764.222	43.81
764.401	44.23
764.579	43.82
764.758	43.45
764.936	44.52
765.114	44.78
765.293	44.84
765.471	44.52
765.65	44.42
765.828	44.54
766.006	43.49
766.184	42.86
766.363	41.91
766.541	41.66
766.719	41.82
766.898	40.94
767.076	41
767.254	41.31
767.432	40.95
767.61	41.41
767.788	41.51
767.967	41.88
768.145	42.02
768.323	42.15
768.501	43.26
768.679	43.5
768.857	43.96
769.035	44.18
769.213	44.18
769.391	45.51
769.569	45.71
769.747	46.39
769.925	47.52
770.103	47.76
770.281	47.92
770.459	47.3
770.636	46.84
770.814	46.24
770.992	45.35
771.17	43.85
771.348	42.81
771.525	42.74
771.703	40.93
771.881	38.79
772.059	38.4
772.236	38.25
772.414	38.47
772.592	39.77
772.769	40.53
772.947	42.25
773.125	43.27
773.302	44.35
773.48	43.91
773.657	45.38
773.835	47.51
774.013	48.03
774.19	48.92
774.368	48.78
774.545	48.44
774.723	47.3
774.9	47.03
775.077	47.22
775.255	46.98
775.432	47.72
775.61	47.82
775.787	48.41
775.964	47.66
776.142	47.81
776.319	47.84
776.496	46.57
776.674	47.17
776.851	45.53
777.028	46.49
777.205	45.96
777.382	46.23
777.56	45.45
777.737	46.53
777.914	47.54
778.091	48.37
778.268	48.37
778.445	49.64
778.622	49.99
778.8	50.78
778.977	48.85
779.154	56.83
779.331	55.74
779.508	57.18
779.685	54.89
779.862	54.81
780.038	52.74
780.215	53.05
780.392	53.79
780.569	53.43
780.746	55.13
780.923	55.89
781.1	48
781.277	48.46
781.453	47.87
781.63	47.76
781.807	46.99
781.984	47.94
782.16	48.5
782.337	47.23
782.514	47.43
782.691	45.13
782.867	45.93
783.044	46.13
783.221	48.78
783.397	50.12
783.574	50.11
783.75	50.92
783.927	52.65
784.103	52.64
784.28	53.06
784.456	51.82
784.633	53.16
784.809	52.29
784.986	51.51
785.162	49.19
785.339	48.02
785.515	47.16
785.692	47.15
785.868	47.1
786.044	47.09
786.221	46.17
786.397	46.14
786.573	47.38
786.749	47.21
786.926	47.24
787.102	47.88
787.278	46.09
787.454	47.79
787.631	47.88
787.807	45.31
787.983	45.37
788.159	46.26
788.335	48.04
788.511	47.29
788.687	48.42
788.863	48.33
789.039	46.43
789.216	46.55
789.392	45.82
789.568	47.04
789.744	48.68
789.919	48.6
790.095	49.05
790.271	47.89
790.447	45.42
790.623	44.15
790.799	43.85
790.975	45.28
791.151	44.65
791.327	43.97
791.502	43.14
791.678	42
791.854	43.26
792.03	41.73
792.205	41.57
792.381	42.49
792.557	42.66
792.733	43.5
792.908	43.24
793.084	44.98
793.259	44.77
793.435	43.55
793.611	44.37
793.786	41.24
793.962	43.08
794.137	44.89
794.313	45.67
794.488	46.76
794.664	47.89
794.839	48.33
795.015	48.58
795.19	49.38
795.366	49.52
795.541	49.95
795.716	49.19
795.892	50
796.067	49.82
796.242	49.63
796.418	48.83
796.593	48.67
796.768	47.73
796.944	47.36
797.119	48.29
797.294	49.78
797.469	50.36
797.644	50.7
797.82	49.95
797.995	50.15
798.17	50.24
798.345	50.37
798.52	50.11
798.695	50.84
798.87	50.39
799.045	49.7
799.22	48.49
799.395	46.83
799.57	47.4
799.745	45.27
799.92	45.34
800.095	45.3
800.27	44.89
800.445	43.67
800.62	41.56
800.795	41.19
800.97	41.14
801.145	41.2
801.319	42.57
801.494	42.67
801.669	44.39
801.844	43.15
802.018	43.09
802.193	41.93
802.368	41.59
802.543	43.6
802.717	47.02
802.892	44.95
803.067	45.26
803.241	43.49
803.416	44.4
803.59	45.22
803.765	46.35
803.94	48.79
804.114	51
804.289	53.37
804.463	55.13
804.638	53.39
804.812	55.98
804.986	55.52
805.161	57.06
805.335	56.01
805.51	56.73
805.684	56.19
805.858	53.69
806.033	53.73
806.207	51.29
806.381	50.63
806.556	48.48
806.73	48.88
806.904	50.2
807.078	49.75
807.253	49.97
807.427	47.71
807.601	45.55
807.775	47.43
807.949	46.11
808.123	48.33
808.298	48.71
808.472	49.34
808.646	49.22
808.82	48.99
808.994	48.92
809.168	49.74
809.342	52.1
809.516	53.02
809.69	52.51
809.864	55.88
810.038	55.36
810.212	54.18
810.385	53.98
810.559	54.49
810.733	54.03
810.907	52.23
811.081	50.23
811.255	46.37
811.428	47.51
811.602	45.56
811.776	42.81
811.95	42.4
812.123	43.33
812.297	44.92
812.471	43.93
812.644	44.66
812.818	46.44
812.992	49.98
813.165	51.4
813.339	50
813.512	53.26
813.686	53.29
813.86	54.03
814.033	53.06
814.207	52.33
814.38	54.14
814.554	52.03
814.727	50.56
814.9	48.54
815.074	49.97
815.247	52.2
815.421	46.42
815.594	46.98
815.767	46.92
815.941	47.53
816.114	46.86
816.287	47.49
816.46	46.88
816.634	48.97
816.807	47.01
816.98	47.5
817.153	48.08
817.327	52.82
817.5	53.85
817.673	53.92
817.846	52.51
818.019	54.55
818.192	53.81
818.365	53.38
818.538	54.09
818.711	54.54
818.884	54.64
819.057	52.75
819.23	50.05
819.403	49.25
819.576	49.25
819.749	49.44
819.922	47.4
820.095	45.85
820.268	47
820.441	45.63
820.614	43.44
820.786	41.68
820.959	42.43
821.132	40.41
821.305	39.28
821.477	38.33
821.65	37.9
821.823	37.64
821.996	37.1
822.168	36.21
822.341	35.03
822.514	35.43
822.686	34.96
822.859	33.84
823.031	33.84
823.204	33.85
823.376	33.44
823.549	32.73
823.722	32.76
823.894	33.03
824.067	32.77
824.239	33.03
824.411	33.3
824.584	33.44
824.756	34.1
824.929	34.58
825.101	34.72
825.273	34.52
825.446	35.42
825.618	35.17
825.79	34.72
825.963	35.62
826.135	35.43
826.307	34.83
826.479	35.69
826.652	35.95
826.824	35.88
826.996	35.09
827.168	36.36
827.34	36.05
827.512	35.9
827.684	36.31
827.856	35.26
828.029	35.81
828.201	36.24
828.373	35.61
828.545	34.69
828.717	35.33
828.889	37.09
829.061	36.72
829.232	36.78
829.404	37.67
829.576	37.43
829.748	38.44
829.92	39.79
830.092	40.34
830.264	40.72
830.436	44.02
830.607	44.16
830.779	44.13
830.951	44.58
831.123	44.75
831.294	45.41
831.466	48.05
831.638	50.07
831.809	47.97
831.981	48.71
832.153	48.67
832.324	45.32
832.496	46.73
832.667	47.36
832.839	48.95
833.011	49.14
833.182	50.51
833.354	46.54
833.525	43.89
833.697	43.87
833.868	41.42
834.039	41.53
834.211	40.96
834.382	39
834.554	36.96
834.725	34.7
834.896	35.94
835.068	35.26
835.239	36.7
835.41	37.11
835.581	38.42
835.753	39.26
835.924	40.01
836.095	41.98
836.266	43.24
836.438	43.98
836.609	46.34
836.78	45.14
836.951	42.19
837.122	42.94
837.293	44.09
837.464	43.97
837.635	44.19
837.806	44.39
837.977	44.99
838.148	45.49
838.319	46.36
838.49	46.96
838.661	49.64
838.832	54.65
839.003	55.61
839.174	55.97
839.345	58.79
839.516	59.65
839.687	58.63
839.857	56.81
840.028	59.28
840.199	61.98
840.37	62.71
840.54	63.22
840.711	64.22
840.882	61.9
841.053	60.73
841.223	56.33
841.394	59.39
841.564	62.07
841.735	62.85
841.906	60.13
842.076	58.75
842.247	56.81
842.417	56.01
842.588	58.88
842.758	64.37
842.929	66.58
843.099	69.58
843.27	70.42
843.44	70.26
843.611	71.76
843.781	77.39
843.951	75.87
844.122	77.46
844.292	81.7
844.462	75.02
844.633	70.32
844.803	72.84
844.973	73.87
845.144	73.2
845.314	73.54
845.484	70.74
845.654	66.12
845.824	73.28
845.995	76.39
846.165	72.98
846.335	76.56
846.505	77.78
846.675	73.66
846.845	66.28
847.015	70.24
847.185	72.62
847.355	74.91
847.525	79.69
847.695	78.44
847.865	77.49
848.035	73.12
848.205	69.27
848.375	72.16
848.545	76.74
848.715	86.75
848.884	84.72
849.054	82.99
849.224	80.16
849.394	77.65
849.564	78.47
849.733	75.97
849.903	86.6
850.073	96.54
850.243	94.54
850.412	93.86
850.582	89.2
850.752	88.4
850.921	77.89
851.091	85.02
851.26	85.75
851.43	80.53
851.599	83.54
851.769	78.26
851.939	75.52
852.108	77.7
852.278	71.8
852.447	73.48
852.616	73.43
852.786	76.77
852.955	75.31
853.125	73.32
853.294	76.13
853.463	74.7
853.633	80.27
853.802	79.07
853.971	79.63
854.141	87.53
854.31	97.54
854.479	98.78
854.648	104.46
854.818	103.15
854.987	101.13
855.156	95.62
855.325	92.45
855.494	90.98
855.663	98.65
855.832	90.24
856.001	81.64
856.171	75.5
856.34	80.39
856.509	74.06
856.678	73.22
856.847	72.4
857.016	72.77
857.185	79.7
857.353	79.26
857.522	77.48
857.691	83.73
857.86	100.24
858.029	96.19
858.198	92.1
858.367	88.04
858.535	89.61
858.704	94.14
858.873	99.61
859.042	88.89
859.21	86.84
859.379	87.3
859.548	87.63
859.717	81.74
859.885	87.58
860.054	92.89
860.222	93.73
860.391	98.77
860.56	110.14
860.728	109.19
860.897	110.06
861.065	103.7
861.234	104.59
861.402	102.82
861.571	109
861.739	105.79
861.908	105.68
862.076	114.92
862.244	108.12
862.413	95.77
862.581	91.94
862.749	96.17
862.918	97.37
863.086	97.72
863.254	104.07
863.423	102.02
863.591	102.89
863.759	99.54
863.927	98.87
864.096	97.13
864.264	102.3
864.432	101.42
864.6	102.12
864.768	107.4
864.936	97.4
865.104	92
865.272	94.35
865.44	91.22
865.608	87.67
865.776	85.59
865.944	85.61
866.112	83.87
866.28	83.49
866.448	83.88
866.616	83.75
866.784	99.47
866.952	101.34
867.12	94.96
867.288	96.56
867.455	93.94
867.623	94.35
867.791	98.29
867.959	101.26
868.127	102.57
868.294	98.85
868.462	91.53
868.63	82.39
868.797	74.13
868.965	67.65
869.133	71.98
869.3	77.03
869.468	82.23
869.636	79.69
869.803	81.01
869.971	80.82
870.138	86.4
870.306	92.3
870.473	90.28
870.641	90.91
870.808	104.14
870.975	105.12
871.143	111.92
871.31	109.47
871.478	112.54
871.645	115.28
871.812	116.85
871.98	110.77
872.147	104.32
872.314	101.17
872.482	106.92
872.649	103.75
872.816	94.69
872.983	93.7
873.15	86.42
873.318	81.23
873.485	75.43
873.652	73.41
873.819	75.38
873.986	84.78
874.153	84.5
874.32	79.54
874.487	80.12
874.654	85.84
874.821	84.15
874.988	86.17
875.155	89.51
875.322	100.01
875.489	99.38
875.656	94.75
875.823	83
875.99	85.63
876.157	87.65
876.324	85.88
876.49	87.35
876.657	87.59
876.824	85
876.991	81.6
877.157	78.59
877.324	78.57
877.491	84.46
877.658	87.19
877.824	91.77
877.991	96.89
878.157	96.12
878.324	98.4
878.491	97.49
878.657	106.64
878.824	107.03
878.99	102.38
879.157	109.09
879.323	111.61
879.49	108.1
879.656	103.89
879.823	101.5
879.989	93.66
880.156	84.31
880.322	82.14
880.488	79.24
880.655	78.87
880.821	83.98
880.987	75.72
881.154	65.3
881.32	60.96
881.486	54.77
881.652	53.8
881.819	56.93
881.985	54.42
882.151	54.28
882.317	49.18
882.483	46.47
882.649	43.56
882.816	41.15
882.982	41.85
883.148	44.14
883.314	42.47
883.48	41.21
883.646	38.31
883.812	37.32
883.978	38.71
884.144	40.1
884.31	40.64
884.476	40.73
884.642	43.47
884.807	43.42
884.973	42.57
885.139	43.33
885.305	43.89
885.471	44.8
885.637	45.32
885.802	43.67
885.968	43.48
886.134	43.17
886.3	42.3
886.465	42.46
886.631	43.68
886.797	44.66
886.962	46.27
887.128	48.01
887.293	50.57
887.459	53.43
887.625	55.19
887.79	62.84
887.956	64.95
888.121	68.61
888.287	68
888.452	69.34
888.618	71.13
888.783	73.77
