Data from LC_273_Reflection_4.txt Node
Date: Sat Nov 21 12:22:34 EST 2015
User: robert
Spectrometer: USB4E03001
Autoset integration time: false
Trigger mode: 4
Integration Time (sec): 1.000000E-1
Scans to average: 15
Electric dark correction enabled: true
Nonlinearity correction enabled: false
Boxcar width: 5
Stray light correction enabled: false
XAxis mode: Wavelengths
Stop averaging: false
Number of Pixels in Spectrum: 3648
>>>>>Begin Spectral Data<<<<<
177.566	-50.56
177.785	25.46
178.005	202.76
178.225	-110.05
178.445	-165.24
178.665	-181.76
178.885	58.76
179.105	142.42
179.324	71.95
179.544	210.29
179.764	1069.99
179.984	156.7
180.204	144.09
180.423	110.78
180.643	124.03
180.863	226.63
181.083	318.78
181.302	318.77
181.522	282.09
181.742	342.24
181.961	272.47
182.181	235.03
182.401	495.82
182.621	403.62
182.84	442.58
183.06	346.2
183.279	263.52
183.499	218.74
183.719	200.75
183.938	208.44
184.158	229.7
184.377	225.67
184.597	236.07
184.816	207.75
185.036	216.1
185.256	214.13
185.475	177.01
185.695	180.94
185.914	181.91
186.134	192.22
186.353	199.6
186.572	170.07
186.792	157.85
187.011	168.63
187.231	184.72
187.45	179.2
187.67	201.57
187.889	224.51
188.108	292.13
188.328	343.07
188.547	388.29
188.766	424.38
188.986	496.14
189.205	835.7
189.424	1303.46
189.644	769.15
189.863	-464.27
190.082	-834.3
190.302	1777.83
190.521	277.77
190.74	278.45
190.959	331.34
191.178	261.19
191.398	160.01
191.617	192.05
191.836	190.09
192.055	195.03
192.274	152.86
192.494	148.18
192.713	151.97
192.932	172.32
193.151	145.03
193.37	124.94
193.589	138.65
193.808	186.74
194.027	187.8
194.246	181.76
194.465	177.96
194.685	190.17
194.904	190.28
195.123	223.55
195.342	263.33
195.561	346.04
195.78	281.98
195.999	323.74
196.218	293.42
196.436	324.62
196.655	388.39
196.874	349.29
197.093	367.04
197.312	420.69
197.531	357.67
197.75	265.6
197.969	216.45
198.188	268.46
198.407	271.65
198.625	278.85
198.844	253.12
199.063	212.41
199.282	225.75
199.501	240.82
199.719	233.8
199.938	239.09
200.157	231.3
200.376	229.22
200.594	219.64
200.813	207.07
201.032	212.82
201.251	217.06
201.469	284.59
201.688	361.46
201.907	332.85
202.125	250.79
202.344	270.24
202.563	348.52
202.781	390.7
203	430.52
203.218	372.39
203.437	623.17
203.656	1035.2
203.874	921.9
204.093	410.27
204.311	351.65
204.53	509.12
204.748	409.74
204.967	426.25
205.185	323.08
205.404	276.87
205.622	698.65
205.841	533.39
206.059	444.33
206.278	513.25
206.496	574.35
206.715	1147.67
206.933	785.37
207.151	658.29
207.37	430.65
207.588	578.55
207.806	516.16
208.025	315.97
208.243	249.34
208.461	247.16
208.68	231.23
208.898	278.76
209.116	199.88
209.335	209.37
209.553	242.49
209.771	326
209.989	310.61
210.208	405.17
210.426	500.83
210.644	574.54
210.862	864.43
211.081	759.27
211.299	417.68
211.517	439.12
211.735	392.45
211.953	312.33
212.171	250.76
212.39	253.84
212.608	205.78
212.826	207.27
213.044	211.63
213.262	194.75
213.48	192.5
213.698	202.8
213.916	260.19
214.134	217.07
214.352	232.97
214.57	213.87
214.788	213.92
215.006	214.63
215.224	209.86
215.442	218.82
215.66	226.15
215.878	217.68
216.096	231.46
216.314	205.14
216.532	213.69
216.75	191.26
216.968	209.09
217.185	186.01
217.403	233.26
217.621	228.48
217.839	201.35
218.057	212.45
218.275	224.67
218.492	203.08
218.71	215.73
218.928	238.65
219.146	232.33
219.363	236.25
219.581	433.78
219.799	295.2
220.017	234.25
220.234	271.12
220.452	233.16
220.67	189.15
220.887	215.36
221.105	201.47
221.323	227.92
221.54	242.17
221.758	202.71
221.976	167.27
222.193	198.27
222.411	199.32
222.629	162.22
222.846	175.85
223.064	176.06
223.281	160.91
223.499	169.8
223.716	136.26
223.934	134.22
224.151	145.52
224.369	143.27
224.586	127.01
224.804	116.09
225.021	132.2
225.239	117.81
225.456	130.26
225.674	119.13
225.891	103.17
226.108	100.36
226.326	94.34
226.543	86.12
226.76	86.03
226.978	78.53
227.195	69.55
227.413	54.88
227.63	56.89
227.847	50.58
228.064	42.93
228.282	38.01
228.499	34.08
228.716	32.03
228.934	29.26
229.151	29.28
229.368	26.15
229.585	26.14
229.802	29.32
230.02	26.06
230.237	24.87
230.454	27.17
230.671	28.51
230.888	30.55
231.105	33.7
231.323	35.74
231.54	33.97
231.757	37.21
231.974	39.96
232.191	39.01
232.408	44.96
232.625	44.78
232.842	44.76
233.059	45.95
233.276	45.09
233.493	47.14
233.71	45.5
233.927	44.46
234.144	45.64
234.361	47.11
234.578	48.81
234.795	45.72
235.012	45.43
235.229	46.55
235.446	46.95
235.663	45.91
235.879	41.39
236.096	43.5
236.313	46.03
236.53	43.01
236.747	43.68
236.964	38.47
237.181	42
237.397	42.98
237.614	43.14
237.831	38.63
238.048	40.91
238.264	38.11
238.481	35.94
238.698	39.65
238.915	40.24
239.131	36.44
239.348	39.71
239.565	38.52
239.781	39.1
239.998	36.21
240.215	37
240.431	31.46
240.648	31.38
240.865	27.46
241.081	21.21
241.298	19.72
241.514	22.75
241.731	21.27
241.947	19.04
242.164	17.97
242.38	17.11
242.597	16.98
242.814	18.68
243.03	18.65
243.246	20.96
243.463	20.08
243.679	21.95
243.896	20.76
244.112	23.71
244.329	26.39
244.545	26.96
244.762	30.36
244.978	31.56
245.194	30.43
245.411	31.92
245.627	30.8
245.843	30.93
246.06	26.93
246.276	23.96
246.492	20.57
246.709	17.64
246.925	16.6
247.141	14.92
247.357	13.28
247.574	13.17
247.79	12.31
248.006	11.73
248.222	11.1
248.439	11.39
248.655	12.3
248.871	13.72
249.087	14.66
249.303	15.06
249.519	16.69
249.736	18.91
249.952	20.5
250.168	22.56
250.384	23.93
250.6	27.44
250.816	29.69
251.032	30.46
251.248	29.28
251.464	28.4
251.68	29.32
251.896	26.97
252.112	26.54
252.328	25.07
252.544	25.56
252.76	24.4
252.976	23.41
253.192	22.09
253.408	21.74
253.624	22.64
253.84	23.8
254.056	22.77
254.272	23.54
254.487	24.69
254.703	24.38
254.919	21.88
255.135	24.21
255.351	23.43
255.567	23.58
255.782	24.31
255.998	23.19
256.214	21.63
256.43	22.8
256.646	24.59
256.861	21.27
257.077	24.34
257.293	26.47
257.508	24.05
257.724	23.22
257.94	22.33
258.155	20.01
258.371	18.99
258.587	18.76
258.802	17.3
259.018	15.49
259.234	15.51
259.449	12.92
259.665	11.74
259.88	11.78
260.096	12.31
260.312	12.29
260.527	12.59
260.743	12.04
260.958	12.12
261.174	11.42
261.389	11.91
261.605	12.61
261.82	14.57
262.036	15.05
262.251	16.07
262.466	16.57
262.682	17.32
262.897	17.24
263.113	18.65
263.328	20.02
263.543	22.02
263.759	22.72
263.974	23.89
264.189	24.13
264.405	24.34
264.62	25.17
264.835	25.37
265.051	27.48
265.266	29.14
265.481	26.86
265.696	26.91
265.912	26.85
266.127	25.28
266.342	22.81
266.557	21.78
266.773	20.73
266.988	18.91
267.203	17.13
267.418	15.09
267.633	14.12
267.848	15.49
268.064	13.83
268.279	13.27
268.494	12.56
268.709	12.75
268.924	12.03
269.139	11.88
269.354	11.28
269.569	11.9
269.784	12.42
269.999	11.78
270.214	11.58
270.429	11.53
270.644	10.57
270.859	11.56
271.074	10.88
271.289	11.25
271.504	11.15
271.719	11.08
271.934	11.97
272.149	10.53
272.363	11.03
272.578	10.51
272.793	10.51
273.008	12.18
273.223	11.77
273.438	12.9
273.653	14.36
273.867	15.46
274.082	16.45
274.297	14.25
274.512	14.35
274.726	14.02
274.941	14.63
275.156	16.77
275.371	15.98
275.585	17.24
275.8	16.41
276.015	14.94
276.229	14.08
276.444	15.53
276.659	16.05
276.873	18.32
277.088	19.26
277.302	19.97
277.517	18.59
277.732	18.66
277.946	18.56
278.161	18.51
278.375	18.58
278.59	19.01
278.804	16.65
279.019	17.86
279.233	17.29
279.448	16.13
279.662	14.86
279.877	13.9
280.091	14.4
280.306	13.69
280.52	13.17
280.735	12.95
280.949	12.72
281.163	13.69
281.378	13.45
281.592	11.99
281.806	12.18
282.021	12.55
282.235	12.34
282.449	12.78
282.664	12.86
282.878	13.92
283.092	15.84
283.307	15.27
283.521	14.17
283.735	14.53
283.949	15.94
284.164	15.21
284.378	15.28
284.592	14.68
284.806	14.07
285.02	13.44
285.234	13.28
285.449	10.86
285.663	11.72
285.877	11.38
286.091	11.66
286.305	11.31
286.519	12.22
286.733	11.67
286.947	13.44
287.161	13.43
287.375	14.14
287.589	14.02
287.803	14.62
288.017	13.95
288.231	14.53
288.445	13.82
288.659	13.73
288.873	12.96
289.087	13.34
289.301	12.84
289.515	12.99
289.729	13.62
289.943	13.59
290.157	13.33
290.371	13.71
290.584	14.82
290.798	15.36
291.012	15.32
291.226	15.83
291.44	16.4
291.654	16.34
291.867	16.61
292.081	16.63
292.295	17.36
292.509	17.78
292.722	17.84
292.936	17.77
293.15	16.86
293.364	17.4
293.577	16.99
293.791	16.84
294.005	16.78
294.218	14.96
294.432	13.62
294.645	13.58
294.859	13.65
295.073	12.45
295.286	12.28
295.5	12.96
295.713	12.08
295.927	12.22
296.14	12.2
296.354	11.89
296.568	12.93
296.781	13.56
296.994	13.59
297.208	13.71
297.421	14.9
297.635	14.38
297.848	14.06
298.062	14.51
298.275	14.66
298.489	14.68
298.702	14.45
298.915	13.79
299.129	13.78
299.342	13.47
299.555	13.63
299.769	13.72
299.982	15.22
300.195	16.45
300.409	16.28
300.622	17.34
300.835	17.44
301.048	18.86
301.262	19.93
301.475	20.41
301.688	20.31
301.901	20.56
302.115	20.04
302.328	20.09
302.541	18.55
302.754	19.41
302.967	19.76
303.18	19.59
303.393	18.91
303.607	18.42
303.82	17.62
304.033	17.07
304.246	17.98
304.459	18.67
304.672	18.35
304.885	19.97
305.098	20.21
305.311	18.58
305.524	18.44
305.737	18.69
305.95	19.37
306.163	19.39
306.376	19.6
306.589	18.5
306.802	17.79
307.015	17.4
307.228	16.43
307.44	15.4
307.653	16.23
307.866	16.87
308.079	16.59
308.292	15.67
308.505	16.57
308.718	17.56
308.93	17.66
309.143	16.38
309.356	16.19
309.569	15.7
309.781	16.13
309.994	15.99
310.207	15.63
310.42	15.17
310.632	14.85
310.845	13.78
311.058	13.62
311.27	13.42
311.483	14.63
311.696	14.81
311.908	15.18
312.121	14.79
312.333	15.27
312.546	15.67
312.759	16.11
312.971	16.45
313.184	18.36
313.396	17.87
313.609	18.27
313.821	18.41
314.034	19.6
314.246	20.27
314.459	20.64
314.671	19.12
314.884	18.2
315.096	17.97
315.309	18.55
315.521	17.32
315.733	17.11
315.946	17.5
316.158	16.62
316.371	15.73
316.583	16.23
316.795	16.13
317.008	17.79
317.22	18.61
317.432	19.19
317.644	18.96
317.857	19.3
318.069	19.12
318.281	18.99
318.494	20
318.706	20.01
318.918	18.15
319.13	17.47
319.342	17.43
319.555	17.45
319.767	17.25
319.979	18.04
320.191	18.52
320.403	19.6
320.615	18.7
320.827	19.89
321.039	20.3
321.252	21.04
321.464	22.99
321.676	21.97
321.888	21.63
322.1	22.11
322.312	21.25
322.524	20.38
322.736	20.68
322.948	23.14
323.16	22.68
323.372	23.02
323.584	23.65
323.796	23.87
324.007	25.05
324.219	25.77
324.431	26.02
324.643	26.77
324.855	27.37
325.067	28.3
325.279	27.6
325.491	27.26
325.702	26.76
325.914	27.02
326.126	26.15
326.338	25.78
326.55	25.23
326.761	25.39
326.973	26.04
327.185	27.03
327.396	26.29
327.608	25.95
327.82	27.11
328.032	28.01
328.243	28.4
328.455	29.77
328.666	30.44
328.878	31.95
329.09	31.87
329.301	31.92
329.513	31.47
329.725	33.17
329.936	34.84
330.148	34.96
330.359	35.62
330.571	36.45
330.782	36.05
330.994	36.68
331.205	37.28
331.417	39.04
331.628	40.12
331.84	41.65
332.051	42.62
332.262	42.57
332.474	43.38
332.685	44.05
332.897	43.81
333.108	44.9
333.319	45.73
333.531	46.25
333.742	45.74
333.953	46.53
334.165	46.78
334.376	46.25
334.587	47.01
334.799	47.67
335.01	48.03
335.221	48.75
335.432	48.63
335.644	48.67
335.855	49.86
336.066	51.13
336.277	51.22
336.488	50.32
336.7	49.59
336.911	49.98
337.122	49.85
337.333	49.73
337.544	49.69
337.755	49.93
337.966	49.9
338.177	49.27
338.388	48.94
338.599	49.31
338.811	49.92
339.022	50.32
339.233	50.09
339.444	49.67
339.655	49.37
339.866	49.94
340.076	50.22
340.287	51.7
340.498	52.24
340.709	52.24
340.92	52.18
341.131	52.49
341.342	52.6
341.553	52.96
341.764	53.69
341.975	53.83
342.185	53.1
342.396	53.65
342.607	52.53
342.818	52.4
343.029	52.36
343.239	52.05
343.45	50.84
343.661	51.71
343.872	50.71
344.082	50.59
344.293	50.17
344.504	50.79
344.714	50.08
344.925	50.15
345.136	49.35
345.346	50.05
345.557	49.59
345.768	49.78
345.978	48.97
346.189	49.13
346.399	48.86
346.61	49.63
346.821	49.41
347.031	49.46
347.242	49.66
347.452	50.51
347.663	50.44
347.873	51.66
348.084	52.7
348.294	53.21
348.504	53.72
348.715	53.63
348.925	53.04
349.136	52.92
349.346	53.01
349.557	52.19
349.767	51.64
349.977	50.82
350.188	49.59
350.398	50.02
350.608	49.75
350.819	49.38
351.029	48.43
351.239	48.7
351.449	49.24
351.66	49.72
351.87	50.38
352.08	50.8
352.29	50.25
352.501	50.31
352.711	49.79
352.921	49.68
353.131	49.39
353.341	50.3
353.552	49.65
353.762	49.05
353.972	48.38
354.182	48.21
354.392	47.62
354.602	47.99
354.812	48.29
355.022	48.42
355.232	48.69
355.442	49.19
355.652	49.19
355.862	49.13
356.072	48.68
356.282	49.05
356.492	48.63
356.702	48.45
356.912	47.82
357.122	48.01
357.332	47.42
357.542	46.64
357.752	46.38
357.962	46.52
358.171	46.36
358.381	46.94
358.591	46.21
358.801	46.99
359.011	46.48
359.221	46.82
359.43	46.53
359.64	46.62
359.85	47.37
360.06	47.21
360.269	47.14
360.479	47.18
360.689	46.58
360.899	47.16
361.108	46.31
361.318	46.34
361.528	46.16
361.737	46.13
361.947	45.8
362.156	45.95
362.366	46.45
362.576	46.14
362.785	46.04
362.995	46.38
363.204	46.12
363.414	46.27
363.623	47.16
363.833	47.12
364.042	47.02
364.252	46.86
364.461	46.18
364.671	45.81
364.88	45.7
365.09	46.1
365.299	45.95
365.509	45.38
365.718	45.57
365.927	45.24
366.137	44.92
366.346	44.79
366.555	45.05
366.765	45.36
366.974	44.82
367.183	44.15
367.393	44.21
367.602	44.82
367.811	45.13
368.021	44.79
368.23	44.5
368.439	44.75
368.648	44.59
368.857	44.4
369.067	43.67
369.276	43.69
369.485	44.46
369.694	43.79
369.903	42.81
370.112	42.83
370.321	43.06
370.531	42.43
370.74	42.02
370.949	42.01
371.158	41.84
371.367	42.06
371.576	41.66
371.785	41.22
371.994	41.36
372.203	41.64
372.412	41.37
372.621	41.14
372.83	41.11
373.039	41.71
373.248	41.37
373.457	41.38
373.666	41.15
373.874	40.86
374.083	40.84
374.292	40.8
374.501	40.41
374.71	40.2
374.919	39.72
375.128	40.07
375.336	39.97
375.545	40.45
375.754	40.35
375.963	40.03
376.171	40.03
376.38	39.93
376.589	39.6
376.798	39.4
377.006	39.41
377.215	39.39
377.424	39.11
377.632	38.53
377.841	38.07
378.05	38.14
378.258	38.07
378.467	37.92
378.675	37.92
378.884	37.9
379.093	37.47
379.301	37.09
379.51	37.07
379.718	37.11
379.927	37.49
380.135	37.2
380.344	37.1
380.552	36.73
380.761	37.45
380.969	37.31
381.177	37.16
381.386	37.2
381.594	37.2
381.803	36.88
382.011	36.34
382.219	35.9
382.428	36.01
382.636	35.79
382.845	36.39
383.053	35.54
383.261	35.35
383.469	35.04
383.678	35.12
383.886	35.19
384.094	35.11
384.302	35.1
384.511	34.87
384.719	34.51
384.927	34.68
385.135	34.56
385.343	34.57
385.552	34.7
385.76	34.88
385.968	34.74
386.176	34.54
386.384	34.53
386.592	34.17
386.8	34.27
387.008	33.99
387.216	33.82
387.424	33.56
387.633	33.28
387.841	32.8
388.049	32.51
388.257	32.49
388.465	32.3
388.672	32.29
388.88	32.39
389.088	32.24
389.296	32.11
389.504	31.84
389.712	31.47
389.92	31.31
390.128	31.23
390.336	31.17
390.544	31.08
390.751	30.92
390.959	30.74
391.167	30.76
391.375	30.23
391.583	30.41
391.79	30.06
391.998	30.17
392.206	30.37
392.414	30.07
392.621	29.74
392.829	29.55
393.037	29.67
393.244	29.41
393.452	29.3
393.66	29.56
393.867	29.48
394.075	29.61
394.283	29.33
394.49	29.22
394.698	29.5
394.905	29.54
395.113	29.54
395.32	29.47
395.528	29.56
395.735	29.42
395.943	29.3
396.15	29.44
396.358	28.9
396.565	28.81
396.773	28.5
396.98	28.63
397.188	28.64
397.395	28.49
397.602	28.33
397.81	28.09
398.017	28.01
398.225	28.12
398.432	27.9
398.639	28.4
398.847	28.43
399.054	28.62
399.261	28.36
399.468	28.5
399.676	28.57
399.883	28.5
400.09	28.72
400.297	28.85
400.505	28.7
400.712	28.37
400.919	28.3
401.126	28.24
401.333	28.16
401.54	28.19
401.748	28.03
401.955	28.04
402.162	28.1
402.369	28.22
402.576	28
402.783	27.72
402.99	27.42
403.197	27.25
403.404	27.38
403.611	27.35
403.818	27.08
404.025	26.85
404.232	26.78
404.439	26.52
404.646	26.25
404.853	26.58
405.06	26.83
405.267	27.4
405.474	27.57
405.681	27.47
405.887	27.31
406.094	27.51
406.301	27.87
406.508	27.64
406.715	27.77
406.922	27.72
407.128	27.28
407.335	27.29
407.542	27.08
407.749	26.94
407.955	26.8
408.162	26.59
408.369	26.55
408.575	26.31
408.782	26.46
408.989	26.65
409.195	26.43
409.402	26.55
409.609	26.38
409.815	25.9
410.022	25.8
410.228	26.08
410.435	26.44
410.642	26.08
410.848	26.33
411.055	26.3
411.261	26.09
411.468	26.56
411.674	26.58
411.881	26.67
412.087	27.25
412.294	27.54
412.5	27.32
412.706	27.16
412.913	27.33
413.119	27.16
413.326	27.2
413.532	27.41
413.738	27.25
413.945	27.55
414.151	27.39
414.357	27.04
414.564	27.11
414.77	27.39
414.976	27.25
415.182	27.43
415.389	27.44
415.595	27.3
415.801	27.14
416.007	27.19
416.214	26.79
416.42	26.75
416.626	26.96
416.832	26.52
417.038	26.2
417.244	26.41
417.45	26.41
417.657	26.24
417.863	26.26
418.069	26.29
418.275	26.06
418.481	26
418.687	26.05
418.893	25.87
419.099	25.86
419.305	25.92
419.511	25.86
419.717	25.74
419.923	25.78
420.129	25.82
420.335	25.69
420.541	25.63
420.746	25.66
420.952	25.57
421.158	25.55
421.364	25.61
421.57	25.48
421.776	25.49
421.982	25.54
422.187	25.5
422.393	25.41
422.599	25.35
422.805	25.53
423.01	25.42
423.216	25.51
423.422	25.41
423.628	25.3
423.833	25.23
424.039	25.21
424.245	25.1
424.45	25.15
424.656	25.19
424.862	25.24
425.067	25.1
425.273	25.22
425.478	25.25
425.684	25.41
425.889	25.6
426.095	25.77
426.301	25.8
426.506	25.76
426.712	25.61
426.917	25.45
427.123	25.47
427.328	25.65
427.533	25.55
427.739	25.39
427.944	25.23
428.15	25
428.355	25.09
428.561	24.98
428.766	25.07
428.971	25.19
429.177	25.4
429.382	25.43
429.587	25.14
429.793	25.31
429.998	25.45
430.203	25.5
430.408	25.59
430.614	25.34
430.819	25.33
431.024	25.33
431.229	25.13
431.434	25.09
431.64	24.99
431.845	25.1
432.05	25.03
432.255	24.93
432.46	25.03
432.665	24.95
432.87	24.98
433.076	24.98
433.281	24.92
433.486	24.98
433.691	25.07
433.896	24.98
434.101	24.99
434.306	25.08
434.511	25.13
434.716	24.99
434.921	25.03
435.126	25.1
435.331	25.03
435.535	25.12
435.74	25.12
435.945	24.93
436.15	24.99
436.355	25.17
436.56	25.16
436.765	25.09
436.97	25.12
437.174	25.31
437.379	25.37
437.584	25.5
437.789	25.53
437.993	25.66
438.198	25.72
438.403	25.76
438.608	25.63
438.812	25.55
439.017	25.56
439.222	25.68
439.426	25.5
439.631	25.57
439.836	25.46
440.04	25.45
440.245	25.39
440.45	25.44
440.654	25.38
440.859	25.23
441.063	25.21
441.268	25.19
441.472	25.22
441.677	25.25
441.881	25.19
442.086	25.2
442.29	25.18
442.495	25.16
442.699	25.07
442.904	25.19
443.108	25.26
443.312	25.3
443.517	25.35
443.721	25.31
443.925	25.17
444.13	24.93
444.334	24.91
444.538	24.84
444.743	24.77
444.947	24.7
445.151	24.55
445.356	24.57
445.56	24.53
445.764	24.28
445.968	24.21
446.173	24.28
446.377	24.39
446.581	24.39
446.785	24.4
446.989	24.41
447.193	24.45
447.398	24.49
447.602	24.36
447.806	24.35
448.01	24.4
448.214	24.26
448.418	24.13
448.622	24.08
448.826	24.02
449.03	23.94
449.234	23.99
449.438	23.89
449.642	23.73
449.846	23.93
450.05	23.93
450.254	23.9
450.458	23.98
450.662	24.21
450.866	24.18
451.069	24.17
451.273	24.21
451.477	23.95
451.681	24.01
451.885	24.12
452.089	23.9
452.292	23.77
452.496	24.03
452.7	24.04
452.904	23.86
453.107	23.75
453.311	23.79
453.515	23.64
453.719	23.73
453.922	23.8
454.126	23.68
454.33	23.88
454.533	23.84
454.737	23.61
454.94	23.64
455.144	23.81
455.348	23.97
455.551	23.76
455.755	23.91
455.958	24.04
456.162	24.04
456.365	23.97
456.569	24.07
456.772	24.05
456.976	24.28
457.179	24.21
457.383	24.09
457.586	24
457.79	24.17
457.993	24.17
458.196	24.23
458.4	24.06
458.603	24.11
458.807	23.94
459.01	24.01
459.213	23.99
459.417	24.19
459.62	24.21
459.823	24.21
460.026	24.13
460.23	24.12
460.433	23.95
460.636	23.94
460.839	24
461.042	24.11
461.246	23.97
461.449	24.02
461.652	23.87
461.855	23.85
462.058	23.98
462.261	24.11
462.464	24.17
462.668	24.33
462.871	24.58
463.074	24.54
463.277	24.59
463.48	24.93
463.683	24.85
463.886	24.93
464.089	25.09
464.292	25.03
464.495	25.02
464.698	24.99
464.901	25.13
465.104	25.17
465.306	25.5
465.509	25.48
465.712	25.51
465.915	25.49
466.118	25.61
466.321	25.5
466.524	25.49
466.726	25.54
466.929	25.74
467.132	25.67
467.335	25.68
467.538	25.49
467.74	25.52
467.943	25.45
468.146	25.52
468.348	25.4
468.551	25.49
468.754	25.55
468.956	25.66
469.159	25.59
469.362	25.68
469.564	25.6
469.767	25.85
469.969	25.93
470.172	26.02
470.375	26.08
470.577	26.45
470.78	26.46
470.982	26.63
471.185	26.6
471.387	26.78
471.59	26.71
471.792	26.96
471.995	26.9
472.197	26.93
472.399	26.95
472.602	27.04
472.804	26.67
473.007	26.59
473.209	26.52
473.411	26.61
473.614	26.54
473.816	26.61
474.018	26.46
474.22	26.6
474.423	26.59
474.625	26.62
474.827	26.57
475.03	26.72
475.232	26.98
475.434	27.02
475.636	26.93
475.838	27.05
476.04	27.04
476.243	27.05
476.445	26.89
476.647	26.89
476.849	26.92
477.051	26.88
477.253	26.99
477.455	26.79
477.657	26.71
477.859	26.85
478.061	26.67
478.263	26.72
478.465	26.75
478.667	26.61
478.869	26.5
479.071	26.51
479.273	26.52
479.475	26.35
479.677	26.41
479.879	26.48
480.081	26.36
480.283	26.37
480.485	26.38
480.686	26.38
480.888	26.61
481.09	26.57
481.292	26.53
481.494	26.54
481.695	26.49
481.897	26.36
482.099	26.31
482.301	26.29
482.502	26.26
482.704	26.17
482.906	26.06
483.107	25.95
483.309	25.92
483.511	25.82
483.712	25.73
483.914	25.76
484.115	25.71
484.317	25.69
484.519	25.66
484.72	25.59
484.922	25.54
485.123	25.58
485.325	25.55
485.526	25.56
485.728	25.59
485.929	25.65
486.131	25.67
486.332	25.8
486.534	25.8
486.735	25.78
486.936	25.89
487.138	25.97
487.339	26.01
487.541	26.03
487.742	26.08
487.943	26.18
488.144	26.2
488.346	26.22
488.547	26.22
488.748	26.26
488.95	26.33
489.151	26.36
489.352	26.37
489.553	26.38
489.755	26.48
489.956	26.53
490.157	26.56
490.358	26.71
490.559	26.73
490.76	26.85
490.961	26.98
491.163	27.04
491.364	27.08
491.565	27.22
491.766	27.3
491.967	27.36
492.168	27.35
492.369	27.39
492.57	27.45
492.771	27.55
492.972	27.62
493.173	27.66
493.374	27.72
493.575	27.78
493.776	27.79
493.976	27.85
494.177	28.03
494.378	28.17
494.579	28.46
494.78	28.45
494.981	28.64
495.182	28.7
495.382	28.97
495.583	29.22
495.784	29.5
495.985	29.7
496.185	29.73
496.386	29.77
496.587	29.99
496.788	30.06
496.988	30.12
497.189	30.26
497.39	30.44
497.59	30.46
497.791	30.7
497.992	30.82
498.192	30.76
498.393	31.03
498.593	31.15
498.794	31.3
498.994	31.41
499.195	31.67
499.395	31.75
499.596	31.95
499.796	32.13
499.997	32.13
500.197	32.29
500.398	32.53
500.598	32.65
500.799	32.76
500.999	33.02
501.199	33.22
501.4	33.43
501.6	33.55
501.801	33.66
502.001	33.84
502.201	34.05
502.402	34.19
502.602	34.54
502.802	34.71
503.002	35.07
503.203	35.14
503.403	35.31
503.603	35.43
503.803	35.68
504.003	35.92
504.204	36.15
504.404	36.29
504.604	36.43
504.804	36.64
505.004	36.84
505.204	37.05
505.404	37.25
505.604	37.37
505.804	37.48
506.005	37.7
506.205	37.93
506.405	38.13
506.605	38.42
506.805	38.67
507.005	38.79
507.204	38.95
507.404	39.15
507.604	39.49
507.804	39.61
508.004	40.01
508.204	40.17
508.404	40.13
508.604	40.23
508.804	40.44
509.003	40.67
509.203	40.86
509.403	41.14
509.603	41.24
509.803	41.33
510.002	41.52
510.202	41.58
510.402	41.75
510.602	42
510.801	42.1
511.001	42.26
511.201	42.35
511.4	42.5
511.6	42.61
511.8	42.93
511.999	43.01
512.199	43.14
512.398	43.25
512.598	43.45
512.797	43.74
512.997	43.88
513.197	44.01
513.396	44.4
513.596	44.66
513.795	44.85
513.994	44.85
514.194	45.18
514.393	45.41
514.593	45.72
514.792	45.84
514.992	45.96
515.191	46.35
515.39	46.45
515.59	46.55
515.789	46.61
515.988	46.89
516.188	47.2
516.387	47.46
516.586	47.81
516.786	48
516.985	48.31
517.184	48.59
517.383	48.75
517.582	49.09
517.782	49.13
517.981	49.39
518.18	49.48
518.379	49.68
518.578	49.64
518.777	49.8
518.976	49.91
519.176	49.95
519.375	49.95
519.574	50.02
519.773	50.14
519.972	50.25
520.171	50.48
520.37	50.58
520.569	50.65
520.768	50.9
520.967	51.02
521.166	51.12
521.365	51.31
521.564	51.51
521.762	51.67
521.961	51.79
522.16	51.95
522.359	51.88
522.558	52.11
522.757	52.15
522.956	52.36
523.154	52.5
523.353	52.65
523.552	52.83
523.751	52.91
523.949	53.11
524.148	53.14
524.347	53.44
524.546	53.71
524.744	53.76
524.943	53.87
525.142	54.03
525.34	54.05
525.539	54.19
525.737	54.42
525.936	54.66
526.135	54.66
526.333	54.81
526.532	54.79
526.73	54.88
526.929	54.97
527.127	55.17
527.326	55.17
527.524	55.24
527.723	55.31
527.921	55.27
528.12	55.35
528.318	55.42
528.516	55.41
528.715	55.5
528.913	55.46
529.112	55.48
529.31	55.49
529.508	55.56
529.707	55.65
529.905	55.73
530.103	55.84
530.301	55.9
530.5	56.06
530.698	56.22
530.896	56.39
531.094	56.51
531.293	56.72
531.491	56.89
531.689	56.95
531.887	57
532.085	57.03
532.283	57.05
532.481	56.99
532.68	57.07
532.878	57.18
533.076	57.18
533.274	57.27
533.472	57.24
533.67	57.18
533.868	57.29
534.066	57.32
534.264	57.42
534.462	57.42
534.66	57.5
534.858	57.52
535.056	57.58
535.253	57.47
535.451	57.61
535.649	57.67
535.847	57.85
536.045	57.82
536.243	57.91
536.441	57.86
536.638	57.93
536.836	58.01
537.034	57.9
537.232	57.77
537.43	57.99
537.627	57.95
537.825	57.99
538.023	57.99
538.22	58.12
538.418	58.11
538.616	58.2
538.813	58.27
539.011	58.35
539.209	58.51
539.406	58.68
539.604	58.76
539.801	58.89
539.999	59.02
540.196	58.89
540.394	58.92
540.591	58.99
540.789	58.99
540.986	58.98
541.184	58.95
541.381	58.93
541.579	58.98
541.776	58.82
541.974	58.77
542.171	58.79
542.368	58.8
542.566	58.75
542.763	58.8
542.96	58.82
543.158	58.82
543.355	58.81
543.552	58.9
543.75	58.9
543.947	59.05
544.144	59.21
544.341	59.18
544.539	59.41
544.736	59.39
544.933	59.38
545.13	59.48
545.327	59.73
545.524	59.91
545.722	59.81
545.919	59.79
546.116	59.8
546.313	59.72
546.51	59.64
546.707	59.55
546.904	59.71
547.101	59.72
547.298	59.74
547.495	59.56
547.692	59.47
547.889	59.57
548.086	59.62
548.283	59.58
548.48	59.51
548.677	59.54
548.874	59.67
549.07	59.63
549.267	59.49
549.464	59.36
549.661	59.3
549.858	59.31
550.055	59.24
550.251	59.15
550.448	59.32
550.645	59.5
550.842	59.56
551.038	59.52
551.235	59.53
551.432	59.58
551.628	59.61
551.825	59.69
552.022	59.72
552.218	59.68
552.415	59.69
552.612	59.66
552.808	59.57
553.005	59.64
553.201	59.68
553.398	59.62
553.594	59.75
553.791	59.82
553.987	59.84
554.184	59.74
554.38	59.72
554.577	59.9
554.773	59.88
554.97	59.99
555.166	60.07
555.362	60.01
555.559	60.03
555.755	59.9
555.952	59.99
556.148	60.06
556.344	60.27
556.541	60.28
556.737	60.1
556.933	60.17
557.129	60.21
557.326	60.25
557.522	60.28
557.718	60.4
557.914	60.72
558.11	60.71
558.307	60.63
558.503	60.5
558.699	60.82
558.895	60.62
559.091	60.55
559.287	60.55
559.483	60.6
559.679	60.7
559.876	60.79
560.072	60.46
560.268	60.49
560.464	60.6
560.66	60.86
560.856	60.78
561.052	61.07
561.247	61.17
561.443	61.14
561.639	60.88
561.835	60.82
562.031	60.52
562.227	60.63
562.423	60.53
562.619	60.4
562.815	60.19
563.01	60.3
563.206	60.21
563.402	60.11
563.598	60.02
563.793	60.33
563.989	60
564.185	60.19
564.381	60.2
564.576	60.39
564.772	60.61
564.968	60.73
565.163	60.52
565.359	60.58
565.555	60.37
565.75	60.39
565.946	60.28
566.141	60.57
566.337	60.67
566.532	60.7
566.728	60.65
566.923	60.31
567.119	60.2
567.314	60.28
567.51	60.19
567.705	60.48
567.901	60.39
568.096	60.42
568.292	60.37
568.487	60.37
568.682	60.33
568.878	60.23
569.073	60.43
569.268	60.23
569.464	60.2
569.659	60.48
569.854	60.3
570.05	60.56
570.245	60.52
570.44	60.45
570.635	60.44
570.831	60.57
571.026	60.68
571.221	60.58
571.416	61.04
571.611	61.15
571.806	61
572.002	61.08
572.197	60.9
572.392	60.72
572.587	60.71
572.782	60.61
572.977	60.55
573.172	60.48
573.367	60.51
573.562	60.34
573.757	60.08
573.952	60.2
574.147	60.1
574.342	60.2
574.537	60.38
574.732	60.41
574.927	60.35
575.121	60.29
575.316	60.34
575.511	60.36
575.706	60.24
575.901	60.35
576.096	60.2
576.29	60.27
576.485	60.27
576.68	60.18
576.875	59.96
577.069	59.97
577.264	60.09
577.459	60.08
577.654	60.17
577.848	60.18
578.043	60.33
578.238	60.24
578.432	60.18
578.627	60.06
578.821	60.16
579.016	60.47
579.21	60.63
579.405	60.36
579.6	60.32
579.794	60.44
579.989	60.53
580.183	60.63
580.378	60.74
580.572	60.92
580.766	60.98
580.961	61.1
581.155	60.99
581.35	60.93
581.544	60.98
581.738	60.93
581.933	60.77
582.127	60.59
582.321	60.38
582.516	60.47
582.71	60.21
582.904	60.15
583.099	60.09
583.293	60.39
583.487	60.24
583.681	60.45
583.875	60.32
584.07	60.56
584.264	60.81
584.458	60.61
584.652	60.69
584.846	60.83
585.04	60.78
585.234	60.88
585.428	60.68
585.623	61.07
585.817	60.98
586.011	61.12
586.205	60.88
586.399	60.89
586.593	61.02
586.787	60.9
586.981	61.01
587.174	61.25
587.368	61.13
587.562	60.95
587.756	60.92
587.95	60.83
588.144	60.84
588.338	60.54
588.532	60.36
588.725	60.63
588.919	60.37
589.113	60.43
589.307	60.16
589.501	60.07
589.694	60.27
589.888	60.17
590.082	60.28
590.275	60.01
590.469	60.23
590.663	60.25
590.856	60.07
591.05	60.21
591.244	59.96
591.437	60.25
591.631	60.22
591.824	60.15
592.018	60.28
592.212	60.12
592.405	60.32
592.599	60.21
592.792	60.15
592.986	60.23
593.179	60.21
593.372	60.14
593.566	60.1
593.759	60.18
593.953	60.34
594.146	60.16
594.339	60.17
594.533	60.22
594.726	60.4
594.92	60.52
595.113	60.58
595.306	60.62
595.499	60.75
595.693	60.39
595.886	60.42
596.079	60.14
596.272	59.97
596.466	60.01
596.659	59.98
596.852	59.81
597.045	59.77
597.238	59.48
597.431	59.48
597.624	59.24
597.818	59.54
598.011	59.52
598.204	59.61
598.397	59.82
598.59	59.7
598.783	59.63
598.976	59.67
599.169	59.46
599.362	59.4
599.555	59.52
599.748	59.65
599.941	59.81
600.134	59.75
600.326	59.62
600.519	59.59
600.712	59.74
600.905	60.15
601.098	60.34
601.291	60.5
601.483	60.64
601.676	60.46
601.869	60.42
602.062	60.05
602.255	60.14
602.447	60.07
602.64	59.89
602.833	59.49
603.025	59.07
603.218	59.11
603.411	58.91
603.603	58.86
603.796	58.77
603.989	58.77
604.181	58.7
604.374	58.62
604.566	58.43
604.759	58.2
604.951	58.25
605.144	58.22
605.336	58.11
605.529	58.17
605.721	58.07
605.914	58.1
606.106	58.1
606.299	58.1
606.491	58.03
606.683	58.41
606.876	58.35
607.068	58.82
607.26	58.95
607.453	58.82
607.645	58.82
607.837	58.98
608.03	58.77
608.222	58.86
608.414	58.87
608.606	59
608.799	58.77
608.991	58.89
609.183	58.53
609.375	58.47
609.567	58.35
609.759	58.42
609.952	58.23
610.144	58.37
610.336	58.38
610.528	58.31
610.72	57.89
610.912	58.05
611.104	58.06
611.296	58.13
611.488	58.05
611.68	57.94
611.872	57.76
612.064	57.91
612.256	57.88
612.448	57.76
612.64	57.83
612.832	57.98
613.023	57.84
613.215	57.91
613.407	57.93
613.599	57.78
613.791	58.21
613.983	58.09
614.174	57.89
614.366	58.01
614.558	57.96
614.75	57.74
614.941	57.84
615.133	57.64
615.325	57.6
615.516	57.67
615.708	57.83
615.9	57.54
616.091	57.83
616.283	57.64
616.475	57.63
616.666	57.34
616.858	57.48
617.049	57.28
617.241	57.36
617.432	57.29
617.624	57.19
617.815	56.96
618.007	57.03
618.198	56.76
618.39	57.09
618.581	57.13
618.773	57.22
618.964	57.06
619.155	56.9
619.347	56.63
619.538	56.33
619.729	56.07
619.921	56.35
620.112	56.27
620.303	56.58
620.494	56.08
620.686	55.93
620.877	55.97
621.068	55.49
621.259	55.56
621.451	55.61
621.642	55.83
621.833	55.74
622.024	55.84
622.215	55.52
622.406	55.16
622.597	55.48
622.788	55.37
622.98	55.29
623.171	55.79
623.362	55.86
623.553	55.93
623.744	55.92
623.935	56
624.126	55.48
624.317	55.58
624.508	55.52
624.698	55.27
624.889	55.05
625.08	55.16
625.271	55.14
625.462	54.88
625.653	55.05
625.844	54.92
626.034	54.89
626.225	55.16
626.416	55.35
626.607	55.36
626.798	55.53
626.988	55.83
627.179	55.77
627.37	55.74
627.56	55.72
627.751	55.63
627.942	55.68
628.132	55.65
628.323	55.54
628.514	55.46
628.704	55.49
628.895	55.33
629.085	54.92
629.276	54.64
629.466	54.52
629.657	54.86
629.847	54.61
630.038	54.5
630.228	54.42
630.419	54.24
630.609	53.99
630.8	54.06
630.99	54.23
631.181	54.02
631.371	54.11
631.561	54.42
631.752	54.14
631.942	54.18
632.132	54.02
632.323	54.03
632.513	54.02
632.703	54.36
632.893	54.26
633.084	54.01
633.274	54.09
633.464	54
633.654	53.78
633.844	53.88
634.034	53.89
634.225	53.85
634.415	53.64
634.605	53.74
634.795	53.51
634.985	53.33
635.175	53.17
635.365	53.11
635.555	53.38
635.745	53.24
635.935	53.16
636.125	52.66
636.315	52.75
636.505	52.62
636.695	52.23
636.885	52
637.075	51.91
637.265	51.99
637.455	52.29
637.644	52.36
637.834	52.3
638.024	52.2
638.214	52.61
638.404	52.25
638.593	52.68
638.783	52.98
638.973	53.21
639.163	53.42
639.352	53.35
639.542	53.04
639.732	52.6
639.921	52.36
640.111	52.27
640.301	52.46
640.49	52.86
640.68	52.56
640.87	52.64
641.059	52.32
641.249	52.5
641.438	52.37
641.628	52.28
641.817	52.27
642.007	52.28
642.196	52.19
642.386	51.96
642.575	51.65
642.764	51.71
642.954	51.39
643.143	51.41
643.333	50.73
643.522	50.97
643.711	50.68
643.901	50.91
644.09	51.16
644.279	51.36
644.469	51.31
644.658	51.34
644.847	51.3
645.036	51.22
645.226	51.13
645.415	51.34
645.604	50.85
645.793	51.34
645.982	50.92
646.171	50.66
646.361	50.38
646.55	50.18
646.739	50.34
646.928	50.35
647.117	50.4
647.306	50.62
647.495	50.15
647.684	50.36
647.873	50.27
648.062	50.46
648.251	50.05
648.44	50.01
648.629	50.02
648.818	49.82
649.007	49.7
649.196	49.63
649.384	49.44
649.573	49.93
649.762	49.97
649.951	49.97
650.14	49.64
650.328	50.31
650.517	50.21
650.706	50.2
650.895	50.23
651.083	50.24
651.272	50.24
651.461	50.2
651.65	50.3
651.838	50.12
652.027	49.72
652.216	49.41
652.404	48.87
652.593	49.12
652.781	48.8
652.97	48.7
653.158	48.67
653.347	48.57
653.535	48.48
653.724	48.07
653.912	48.21
654.101	48.33
654.289	48.75
654.478	48.6
654.666	48.46
654.855	48.56
655.043	48.56
655.231	48.6
655.42	48.69
655.608	48.96
655.796	49.03
655.985	49.1
656.173	49.11
656.361	49.04
656.55	49.08
656.738	49.05
656.926	49.26
657.114	49.05
657.302	49
657.491	48.91
657.679	48.75
657.867	49.01
658.055	49.32
658.243	49.35
658.431	49.35
658.619	49.53
658.807	49.32
658.996	49.29
659.184	49.63
659.372	49.42
659.56	49.19
659.748	49.2
659.936	49.08
660.124	48.45
660.311	48.3
660.499	48.17
660.687	47.68
660.875	47.81
661.063	47.51
661.251	47.12
661.439	47.17
661.627	47.19
661.814	46.81
662.002	46.54
662.19	46.59
662.378	46.66
662.565	46.65
662.753	47.05
662.941	47.03
663.129	47.13
663.316	47.2
663.504	46.76
663.692	46.82
663.879	47.47
664.067	47.68
664.254	47.6
664.442	47.73
664.63	47.94
664.817	47.68
665.005	47.51
665.192	47.35
665.38	47.46
665.567	47.13
665.755	46.83
665.942	46.53
666.13	46.44
666.317	46.44
666.504	46.33
666.692	46.16
666.879	46.51
667.067	46.53
667.254	46.28
667.441	45.97
667.629	46.46
667.816	46.74
668.003	46.55
668.19	46.16
668.378	46.28
668.565	46.04
668.752	45.93
668.939	45.8
669.127	45.84
669.314	45.99
669.501	46.25
669.688	46.33
669.875	46.14
670.062	45.74
670.249	45.9
670.436	45.91
670.623	45.84
670.81	45.49
670.997	45.32
671.184	45.16
671.371	45.32
671.558	45
671.745	45.1
671.932	45.29
672.119	45.66
672.306	45.9
672.493	45.59
672.68	45.95
672.867	46.51
673.054	46.69
673.24	46.59
673.427	46.4
673.614	46.57
673.801	46.26
673.988	46.14
674.174	46.15
674.361	46.33
674.548	46.53
674.734	46.32
674.921	46.08
675.108	46.01
675.294	46.2
675.481	46.03
675.668	45.89
675.854	46.26
676.041	45.98
676.227	45.94
676.414	45.39
676.601	45.66
676.787	46.23
676.974	45.85
677.16	45.96
677.347	45.89
677.533	46.06
677.719	46.2
677.906	45.76
678.092	45.82
678.279	45.45
678.465	45.37
678.651	45.18
678.838	44.26
679.024	44.48
679.21	44.41
679.397	44.36
679.583	43.96
679.769	43.71
679.955	43.56
680.142	43.53
680.328	43.94
680.514	44.25
680.7	43.99
680.886	43.96
681.073	43.86
681.259	44
681.445	43.6
681.631	43.97
681.817	44.11
682.003	43.98
682.189	44.15
682.375	44.1
682.561	43.55
682.747	43.79
682.933	43.9
683.119	43.77
683.305	43.61
683.491	44.21
683.677	44.27
683.863	44.13
684.049	44.59
684.235	44.69
684.42	44.27
684.606	44.53
684.792	44.79
684.978	44.86
685.164	45.17
685.349	44.93
685.535	44.53
685.721	44.2
685.907	43.62
686.092	43.46
686.278	43.15
686.464	43.37
686.649	43.57
686.835	42.98
687.021	43.13
687.206	43.12
687.392	42.61
687.577	42.58
687.763	42.52
687.948	43.19
688.134	43.52
688.319	43.68
688.505	43.97
688.69	43.62
688.876	43.71
689.061	43.22
689.247	43.34
689.432	43.56
689.618	43.34
689.803	43.13
689.988	42.83
690.174	42.34
690.359	41.75
690.544	41.3
690.73	41.31
690.915	41.21
691.1	41.74
691.285	41.57
691.471	41.7
691.656	41.97
691.841	42.34
692.026	42.54
692.211	42.19
692.396	42.24
692.582	42.37
692.767	42.32
692.952	42.44
693.137	41.77
693.322	41.3
693.507	41.63
693.692	41.75
693.877	41.95
694.062	41.48
694.247	42.36
694.432	42.67
694.617	42.66
694.802	42.78
694.987	42.6
695.172	43.09
695.357	43.24
695.541	43.33
695.726	43.36
695.911	43.16
696.096	43.47
696.281	42.75
696.466	42.84
696.65	42.71
696.835	42.35
697.02	42.25
697.204	42.35
697.389	42.39
697.574	41.82
697.759	41.41
697.943	41
698.128	41.02
698.312	40.96
698.497	40.68
698.682	40.62
698.866	40.76
699.051	40.59
699.235	40.19
699.42	40.47
699.604	40.67
699.789	40.6
699.973	40.74
700.158	40.5
700.342	40.65
700.527	40.88
700.711	40.74
700.895	40.89
701.08	41.08
701.264	41.09
701.448	40.77
701.633	40.14
701.817	40.67
702.001	41.04
702.186	41.26
702.37	40.81
702.554	40.28
702.738	40.31
702.923	39.95
703.107	39.95
703.291	40.29
703.475	39.88
703.659	40.49
703.843	40.04
704.027	39.87
704.212	39.96
704.396	40.24
704.58	41.14
704.764	41.52
704.948	42.05
705.132	42.05
705.316	42.81
705.5	43.4
705.684	43.85
705.868	43.92
706.052	44.14
706.235	44.24
706.419	44.65
706.603	44.17
706.787	43.58
706.971	43.65
707.155	43.83
707.339	43.01
707.522	42.87
707.706	42.56
707.89	42.78
708.074	42.34
708.257	41.68
708.441	41.63
708.625	41.48
708.808	41.81
708.992	41.04
709.176	40.55
709.359	40.3
709.543	40.19
709.727	40.09
709.91	39.99
710.094	40.54
710.277	41.36
710.461	41.01
710.644	41.59
710.828	41.36
711.011	41.8
711.195	42.12
711.378	42.72
711.562	42.91
711.745	43.09
711.928	42.84
712.112	42.81
712.295	42.29
712.478	43.14
712.662	42.88
712.845	42.85
713.028	42.32
713.212	42.06
713.395	41.65
713.578	41.59
713.761	41.53
713.945	42.07
714.128	42.2
714.311	42.9
714.494	42.3
714.677	42.27
714.86	42.19
715.043	42.65
715.227	42.69
715.41	42.76
715.593	42.28
715.776	42.32
715.959	42.08
716.142	41.72
716.325	41.01
716.508	40.7
716.691	40.73
716.874	40.75
717.057	40.98
717.239	41.87
717.422	41.3
717.605	41.88
717.788	41.38
717.971	41.97
718.154	41.63
718.337	41.57
718.519	42.22
718.702	42.01
718.885	42.32
719.068	42.29
719.25	41.59
719.433	42.19
719.616	42.05
719.798	42.61
719.981	41.36
720.164	41.44
720.346	42.11
720.529	42.16
720.712	41.6
720.894	41.1
721.077	40.9
721.259	40.61
721.442	40.82
721.624	40.88
721.807	40.82
721.989	41.44
722.172	41.67
722.354	41.22
722.537	40.9
722.719	41.27
722.901	42.23
723.084	42.27
723.266	42.63
723.448	43.08
723.631	43.12
723.813	43.19
723.995	43.02
724.178	42.94
724.36	41.88
724.542	42.14
724.724	42.93
724.907	43.13
725.089	42.84
725.271	42.37
725.453	41.78
725.635	41.81
725.817	41.76
725.999	41.83
726.181	41.97
726.364	43.45
726.546	42.9
726.728	42.24
726.91	41.41
727.092	41.89
727.274	42.42
727.456	42.79
727.638	42.18
727.819	42.24
728.001	41.34
728.183	41.34
728.365	41.4
728.547	41.46
728.729	41.93
728.911	42.08
729.093	41.48
729.274	41.36
729.456	40.77
729.638	40.89
729.82	40.51
730.001	40.87
730.183	40.53
730.365	39.85
730.546	39.49
730.728	39.17
730.91	39.09
731.091	39.89
731.273	39.61
731.455	39.66
731.636	40.04
731.818	40.38
731.999	40.52
732.181	40.26
732.362	39.9
732.544	41.03
732.725	40.32
732.907	40.57
733.088	39.94
733.27	39.62
733.451	39.06
733.633	38.76
733.814	38.01
733.995	37.84
734.177	38.43
734.358	38.78
734.539	37.83
734.721	37.76
734.902	37.65
735.083	37.28
735.264	37.9
735.446	38.86
735.627	39.11
735.808	40.21
735.989	40.52
736.17	40.07
736.351	40.86
736.533	41.44
736.714	42
736.895	41.82
737.076	42.68
737.257	42.11
737.438	42.28
737.619	42.54
737.8	41.74
737.981	42.49
738.162	43
738.343	43.06
738.524	42.26
738.705	42.91
738.886	42.57
739.067	42.59
739.247	42.98
739.428	42.27
739.609	42.43
739.79	42.27
739.971	41.64
740.151	41.57
740.332	40.79
740.513	41.67
740.694	41.41
740.874	41.81
741.055	41.84
741.236	42.78
741.417	42.6
741.597	41.95
741.778	42.94
741.958	42.29
742.139	41.62
742.32	41.27
742.5	40.87
742.681	39.85
742.861	39.91
743.042	39.04
743.222	37.96
743.403	38.14
743.583	38.54
743.764	37.7
743.944	38.97
744.124	39.44
744.305	40.24
744.485	40.53
744.666	41.06
744.846	41.78
745.026	42.45
745.207	42.01
745.387	42.34
745.567	41.92
745.747	42.46
745.928	41.98
746.108	42.57
746.288	42.41
746.468	42.45
746.648	43.13
746.829	42.25
747.009	42.62
747.189	42.51
747.369	42.9
747.549	42.59
747.729	43.16
747.909	42.66
748.089	42.6
748.269	42.26
748.449	42
748.629	41.81
748.809	41.8
748.989	41.99
749.169	42.87
749.349	42.13
749.529	42.22
749.709	40.66
749.889	41.07
750.068	41.21
750.248	41.07
750.428	41.67
750.608	40.57
750.788	42.13
750.967	41.31
751.147	41.09
751.327	41.21
751.507	41.74
751.686	42.16
751.866	41.93
752.046	41.37
752.225	42.1
752.405	40.89
752.585	41.51
752.764	40.91
752.944	41.08
753.123	41.49
753.303	41.17
753.482	41.21
753.662	42.2
753.841	42.3
754.021	42.1
754.2	41.76
754.38	42.7
754.559	43.49
754.739	42.49
754.918	41.78
755.097	40.52
755.277	41.39
755.456	41.36
755.635	40.91
755.815	41.13
755.994	40.69
756.173	40.3
756.352	40.14
756.532	39.69
756.711	40.25
756.89	41.04
757.069	41.69
757.248	40.95
757.427	40.98
757.607	40.51
757.786	40.28
757.965	40.26
758.144	40.55
758.323	39.5
758.502	38.99
758.681	38.46
758.86	38.31
759.039	37.92
759.218	37.79
759.397	36.91
759.576	37.64
759.755	37.09
759.934	37.38
760.113	37.82
760.291	38.65
760.47	38.91
760.649	38.52
760.828	37.99
761.007	38.33
761.186	37.91
761.364	38.77
761.543	38.01
761.722	37.68
761.901	37.63
762.079	37.39
762.258	37.48
762.437	36.93
762.615	37.2
762.794	36.97
762.972	36.46
763.151	36.3
763.33	35.75
763.508	35.25
763.687	35.68
763.865	36.16
764.044	35.7
764.222	35.85
764.401	36.06
764.579	36.24
764.758	35.88
764.936	36.71
765.114	37.4
765.293	37.45
765.471	38.85
765.65	39.26
765.828	39.04
766.006	38.83
766.184	38.85
766.363	39.06
766.541	38.99
766.719	39.71
766.898	39.39
767.076	39.77
767.254	40.33
767.432	39.35
767.61	39.68
767.788	39.87
767.967	40.71
768.145	40.42
768.323	40.91
768.501	41.5
768.679	42.13
768.857	42.83
769.035	43.31
769.213	43.62
769.391	44.09
769.569	44.12
769.747	45.89
769.925	46.84
770.103	47.57
770.281	47
770.459	47.57
770.636	46.51
770.814	45.66
770.992	45.45
771.17	45.25
771.348	45.65
771.525	45.93
771.703	44.11
771.881	42.78
772.059	42.95
772.236	42.88
772.414	42.39
772.592	44.35
772.769	45.48
772.947	45.64
773.125	44.4
773.302	44.58
773.48	44.34
773.657	44.7
773.835	46.38
774.013	46.06
774.19	46.06
774.368	45.33
774.545	46
774.723	45.08
774.9	44.75
775.077	48.26
775.255	46.52
775.432	46.49
775.61	46.68
775.787	45.65
775.964	45.62
776.142	46.53
776.319	46.52
776.496	45.87
776.674	47.1
776.851	46.7
777.028	44.98
777.205	46.65
777.382	46.11
777.56	46.18
777.737	49
777.914	49.5
778.091	50.59
778.268	49.97
778.445	49.35
778.622	48.36
778.8	48.82
778.977	48.51
779.154	56.36
779.331	57.13
779.508	57.39
779.685	55.06
779.862	54.84
780.038	53.01
780.215	54.98
780.392	54.86
780.569	56.26
780.746	55.92
780.923	55.61
781.1	47.07
781.277	46.69
781.453	46.77
781.63	45.67
781.807	44.86
781.984	44.68
782.16	43.83
782.337	43.97
782.514	43.58
782.691	44.6
782.867	46.31
783.044	44.81
783.221	44.59
783.397	45.17
783.574	44.38
783.75	46.48
783.927	47.68
784.103	48.35
784.28	48.34
784.456	46.39
784.633	46.88
784.809	44.74
784.986	46.06
785.162	46.39
785.339	45.38
785.515	47.66
785.692	47.07
785.868	48.14
786.044	48.02
786.221	48.45
786.397	49.85
786.573	50.07
786.749	50.74
786.926	50.34
787.102	51.28
787.278	51.32
787.454	50.63
787.631	50.99
787.807	50.22
787.983	47.79
788.159	48.27
788.335	48.66
788.511	48.16
788.687	48.01
788.863	48.68
789.039	47.39
789.216	46.17
789.392	47.39
789.568	47.27
789.744	47.17
789.919	50.38
790.095	50.24
790.271	49.48
790.447	48.07
790.623	47.4
790.799	47.72
790.975	49.53
791.151	49.76
791.327	48.13
791.502	48.34
791.678	48.19
791.854	47.05
792.03	46.91
792.205	47.13
792.381	46.99
792.557	48.75
792.733	48.69
792.908	46.95
793.084	47.89
793.259	49.89
793.435	48.53
793.611	49.61
793.786	50.18
793.962	50.83
794.137	50.58
794.313	51.75
794.488	50.77
794.664	51.45
794.839	52.13
795.015	53.69
795.19	52.59
795.366	54.26
795.541	53.21
795.716	51.63
795.892	51.47
796.067	52.32
796.242	52.41
796.418	53.05
796.593	52.54
796.768	51.54
796.944	50.26
797.119	50.31
797.294	48.95
797.469	50.27
797.644	51.38
797.82	49.39
797.995	47.91
798.17	48
798.345	48.16
798.52	47.89
798.695	48.13
798.87	46.36
799.045	46.46
799.22	46.24
799.395	44.72
799.57	43.64
799.745	44.64
799.92	47.23
800.095	46.91
800.27	47.66
800.445	46.9
800.62	47.02
800.795	49.07
800.97	49.52
801.145	50.46
801.319	51.55
801.494	52.79
801.669	53.51
801.844	52.86
802.018	52.86
802.193	50.4
802.368	51.55
802.543	53.04
802.717	54.93
802.892	52.6
803.067	51.63
803.241	49.51
803.416	47.73
803.59	48.31
803.765	49.37
803.94	49.28
804.114	50.58
804.289	51.5
804.463	51.79
804.638	47.9
804.812	49.14
804.986	50.52
805.161	50.7
805.335	50.94
805.51	50.27
805.684	49.46
805.858	50.08
806.033	50.02
806.207	47.89
806.381	46.8
806.556	46.77
806.73	48.07
806.904	49.04
807.078	51.56
807.253	51.01
807.427	48.87
807.601	49.41
807.775	49.67
807.949	49.96
808.123	52.35
808.298	53.19
808.472	53.63
808.646	53.08
808.82	54.11
808.994	52.44
809.168	52.61
809.342	55.72
809.516	52.05
809.69	52.07
809.864	51.24
810.038	49.39
810.212	46.66
810.385	48.07
810.559	48.09
810.733	46.7
810.907	46.62
811.081	45.82
811.255	44.74
811.428	46.67
811.602	46.14
811.776	46.04
811.95	45.9
812.123	49.42
812.297	48.75
812.471	49.31
812.644	48.31
812.818	49.26
812.992	54.05
813.165	53.71
813.339	52.38
813.512	55.45
813.686	56.88
813.86	59.39
814.033	61.23
814.207	62.99
814.38	62.92
814.554	62.42
814.727	62.95
814.9	60.17
815.074	62.23
815.247	64.28
815.421	60.87
815.594	60.62
815.767	60.6
815.941	58.83
816.114	58.03
816.287	59.13
816.46	58.71
816.634	57.68
816.807	57.74
816.98	56.43
817.153	56.18
817.327	56.8
817.5	56.33
817.673	54.68
817.846	51.8
818.019	50.68
818.192	46.52
818.365	47.04
818.538	47.06
818.711	46.77
818.884	47.2
819.057	48.76
819.23	48.27
819.403	46.89
819.576	45.72
819.749	47.9
819.922	48.51
820.095	49.75
820.268	50.57
820.441	50.81
820.614	48.45
820.786	48.83
820.959	46.56
821.132	44.75
821.305	41.88
821.477	41.5
821.65	39.95
821.823	38.32
821.996	37.3
822.168	36.28
822.341	34.93
822.514	34.42
822.686	33.27
822.859	32.56
823.031	32.3
823.204	33.26
823.376	32.71
823.549	32.21
823.722	31.84
823.894	32
824.067	31.28
824.239	31.72
824.411	32.6
824.584	32.79
824.756	33.4
824.929	33.52
825.101	33.38
825.273	33.58
825.446	34.63
825.618	34.95
825.79	34.59
825.963	35.63
826.135	34.78
826.307	34.44
826.479	34.71
826.652	34.83
826.824	35.15
826.996	34.88
827.168	35.37
827.34	34.82
827.512	34.97
827.684	35.41
827.856	35.1
828.029	36.22
828.201	36.14
828.373	36.14
828.545	35.41
828.717	36.06
828.889	36.77
829.061	35.7
829.232	35.39
829.404	36.31
829.576	36.01
829.748	36.51
829.92	37.82
830.092	38.85
830.264	40.08
830.436	41.46
830.607	40.81
830.779	40.89
830.951	44.19
831.123	44.78
831.294	46.1
831.466	48.67
831.638	49.92
831.809	47.44
831.981	48.44
832.153	46.93
832.324	47.13
832.496	48.8
832.667	50.24
832.839	48.66
833.011	50.19
833.182	49.68
833.354	47.56
833.525	44.66
833.697	45.2
833.868	43.84
834.039	43.83
834.211	42.4
834.382	40.32
834.554	39.8
834.725	38.25
834.896	37.96
835.068	37.92
835.239	37.59
835.41	39.92
835.581	40.67
835.753	39.62
835.924	40.2
836.095	44.09
836.266	44.98
836.438	43.71
836.609	45.49
836.78	44.49
836.951	42.35
837.122	43.73
837.293	42.48
837.464	44.47
837.635	47.05
837.806	48.63
837.977	45.93
838.148	46.21
838.319	48.44
838.49	48.1
838.661	49.98
838.832	56.73
839.003	58.6
839.174	59.56
839.345	57.67
839.516	57.47
839.687	56.62
839.857	54.39
840.028	57.17
840.199	57.62
840.37	63.03
840.54	63.78
840.711	62.52
840.882	57.72
841.053	59.57
841.223	58.04
841.394	60.36
841.564	60.96
841.735	61.44
841.906	59.66
842.076	60.02
842.247	60.45
842.417	62.21
842.588	63
842.758	70.6
842.929	72.81
843.099	75.4
843.27	76.55
843.44	78.33
843.611	82.62
843.781	86.05
843.951	87.63
844.122	85.88
844.292	88.28
844.462	86.49
844.633	80.84
844.803	80.97
844.973	82.5
845.144	81.83
845.314	82.61
845.484	86.58
845.654	84.28
845.824	90.58
845.995	98.19
846.165	97.98
846.335	98.71
846.505	101.25
846.675	100
846.845	99.23
847.015	101.07
847.185	103.11
847.355	101.6
847.525	102.76
847.695	99.05
847.865	94.39
848.035	89.64
848.205	89.63
848.375	93.07
848.545	91.04
848.715	86
848.884	82.66
849.054	81.27
849.224	76.68
849.394	86.75
849.564	86.03
849.733	83.07
849.903	99.04
850.073	101.82
850.243	103.76
850.412	111.72
850.582	122.51
850.752	124.89
850.921	124.85
851.091	122.07
851.26	116.17
851.43	113.61
851.599	113.11
851.769	97.28
851.939	90.41
852.108	94.77
852.278	88.43
852.447	87.88
852.616	84.88
852.786	83.25
852.955	81.37
853.125	86.19
853.294	90.6
853.463	93.66
853.633	106.07
853.802	113.82
853.971	104.56
854.141	106.13
854.31	113.41
854.479	124.27
854.648	123.83
854.818	121.62
854.987	115.62
855.156	106.47
855.325	93.63
855.494	91.01
855.663	92.98
855.832	87.86
856.001	88.66
856.171	84.04
856.34	85
856.509	81.03
856.678	86.3
856.847	84.46
857.016	80.75
857.185	92.56
857.353	89.11
857.522	87.36
857.691	96.87
857.86	104.54
858.029	98.3
858.198	95.98
858.367	96.1
858.535	101.69
858.704	105.87
858.873	115.85
859.042	113.81
859.21	109.35
859.379	106.28
859.548	102.66
859.717	104.77
859.885	109.83
860.054	113.96
860.222	115.4
860.391	116.77
860.56	131.71
860.728	127.17
860.897	128.38
861.065	127.62
861.234	128.4
861.402	129
861.571	119.5
861.739	127.67
861.908	127.35
862.076	134.65
862.244	127.85
862.413	113.58
862.581	107.02
862.749	103.98
862.918	107.26
863.086	111.8
863.254	112.2
863.423	118.12
863.591	118.13
863.759	118.46
863.927	120.18
864.096	118.56
864.264	122.34
864.432	131.38
864.6	134.92
864.768	137.09
864.936	123.79
865.104	127.05
865.272	132.37
865.44	124.99
865.608	117.92
865.776	110.08
865.944	113.18
866.112	106.61
866.28	102.96
866.448	103.46
866.616	103.78
866.784	123.41
866.952	123.81
867.12	117.7
867.288	124.76
867.455	129.33
867.623	139.21
867.791	133.94
867.959	153.82
868.127	150.63
868.294	145.03
868.462	130.82
868.63	122.78
868.797	119.26
868.965	113.7
869.133	111.76
869.3	111.82
869.468	101.22
869.636	104.39
869.803	93.6
869.971	97.04
870.138	100.63
870.306	106.41
870.473	101.55
870.641	95.82
870.808	101.61
870.975	101.78
871.143	100.32
871.31	106.24
871.478	108.23
871.645	112.2
871.812	114.58
871.98	109.1
872.147	110.21
872.314	109.63
872.482	115.95
872.649	111.46
872.816	105.51
872.983	106.27
873.15	103.36
873.318	101.18
873.485	97.7
873.652	96.78
873.819	95.94
873.986	99.13
874.153	103.14
874.32	104.6
874.487	109.8
874.654	112.04
874.821	112.03
874.988	115.79
875.155	120.45
875.322	130.67
875.489	121.72
875.656	125.8
875.823	127.35
875.99	118.4
876.157	107.77
876.324	101.79
876.49	103.99
876.657	105.19
876.824	93.08
876.991	83.64
877.157	86.81
877.324	94.19
877.491	98.54
877.658	100.28
877.824	105.49
877.991	112.93
878.157	109.53
878.324	112.51
878.491	115.01
878.657	127.02
878.824	130.38
878.99	120.83
879.157	126.5
879.323	130.31
879.49	125.88
879.656	125.52
879.823	119.44
879.989	118.04
880.156	109.9
880.322	104.27
880.488	100.03
880.655	98.05
880.821	100.1
880.987	93.27
881.154	77.09
881.32	69.77
881.486	61.25
881.652	60.11
881.819	57.04
881.985	53.47
882.151	52.88
882.317	48.74
882.483	45.55
882.649	44.49
882.816	41.71
882.982	42.85
883.148	44.72
883.314	44.62
883.48	42.53
883.646	42.33
883.812	40.77
883.978	40.84
884.144	42.89
884.31	43.09
884.476	42.15
884.642	43.72
884.807	43.86
884.973	43.28
885.139	42.24
885.305	43.6
885.471	43.23
885.637	44.25
885.802	45.23
885.968	45.56
886.134	46.21
886.3	45.35
886.465	45.63
886.631	47.54
886.797	50.34
886.962	53.46
887.128	56.98
887.293	61.55
887.459	66.12
887.625	69.09
887.79	74.15
887.956	80.79
888.121	86.35
888.287	88.73
888.452	91.7
888.618	91.46
888.783	96.91
