Data from LC_219__Reflection_4.txt Node
Date: Thu Nov 19 13:32:17 EST 2015
User: robert
Spectrometer: USB4E03001
Autoset integration time: false
Trigger mode: 4
Integration Time (sec): 1.000000E-1
Scans to average: 15
Electric dark correction enabled: true
Nonlinearity correction enabled: false
Boxcar width: 5
Stray light correction enabled: false
XAxis mode: Wavelengths
Stop averaging: false
Number of Pixels in Spectrum: 3648
>>>>>Begin Spectral Data<<<<<
177.566	330.72
177.785	607.83
178.005	599.89
178.225	290.79
178.445	760.91
178.665	-9500
178.885	105.69
179.105	496.25
179.324	-299.93
179.544	-721.35
179.764	-294.34
179.984	-441.76
180.204	-252.21
180.423	-260.95
180.643	-1696.14
180.863	-1344.32
181.083	-235.68
181.302	-180.81
181.522	-164.3
181.742	-1203.3
181.961	2238.35
182.181	1482.97
182.401	200.54
182.621	334.21
182.84	590.75
183.06	1046.46
183.279	995.84
183.499	487.16
183.719	468.19
183.938	245.35
184.158	391.23
184.377	534.62
184.597	452.19
184.816	3914.63
185.036	15623.91
185.256	984.49
185.475	573.2
185.695	531.32
185.914	373.73
186.134	289.53
186.353	283.95
186.572	267.31
186.792	299.47
187.011	2060.2
187.231	341.99
187.45	448.74
187.67	908.23
187.889	13762.12
188.108	471.52
188.328	-2044.27
188.547	-217.2
188.766	-163.96
188.986	-142.21
189.205	-279.72
189.424	511.77
189.644	996.86
189.863	433.13
190.082	558.34
190.302	2383.93
190.521	-117.55
190.74	-558.46
190.959	-6350.7
191.178	9603.39
191.398	-3976.14
191.617	911.76
191.836	3423.53
192.055	-979.86
192.274	-370.58
192.494	-639.99
192.713	-357.18
192.932	-253.16
193.151	-271.21
193.37	-441.74
193.589	-346.58
193.808	-287.57
194.027	-322.46
194.246	-717.09
194.465	-543.23
194.685	35415
194.904	613.34
195.123	338.26
195.342	215.63
195.561	195.52
195.78	263.68
195.999	350.11
196.218	546.51
196.436	1005.09
196.655	572.84
196.874	427.25
197.093	445.36
197.312	1303.75
197.531	1370.4
197.75	2496.67
197.969	-874.26
198.188	-908.05
198.407	-5891.12
198.625	473.95
198.844	629.9
199.063	1751.77
199.282	1929.05
199.501	-954.13
199.719	-1177.84
199.938	-2044.8
200.157	2572.53
200.376	842.45
200.594	553.41
200.813	544.7
201.032	369.56
201.251	452.67
201.469	710.93
201.688	549.77
201.907	441.86
202.125	484.06
202.344	370.25
202.563	263.87
202.781	379
203	309.46
203.218	285.68
203.437	724.22
203.656	428.12
203.874	269.85
204.093	281.57
204.311	281.84
204.53	219.99
204.748	204.73
204.967	283.09
205.185	198.16
205.404	298.62
205.622	408.71
205.841	292.36
206.059	286.95
206.278	344.87
206.496	426.02
206.715	569.92
206.933	907.19
207.151	-1975.31
207.37	-1345.36
207.588	-3730.58
207.806	2956.05
208.025	1198.89
208.243	-1808.45
208.461	-1584.89
208.68	-3446.06
208.898	5006.35
209.116	2305.76
209.335	4877.23
209.553	1428.59
209.771	3690.58
209.989	-3087.62
210.208	-1832.63
210.426	-1014.32
210.644	-921.35
210.862	-453.66
211.081	-428.27
211.299	-199.53
211.517	-241.24
211.735	-248.32
211.953	-657.42
212.171	440.19
212.39	676.7
212.608	743.58
212.826	321.66
213.044	161.9
213.262	147.89
213.48	131.56
213.698	134.55
213.916	183.82
214.134	179.7
214.352	337.2
214.57	-483.14
214.788	537.21
215.006	3405.11
215.224	-984.8
215.442	-365.06
215.66	-373.12
215.878	834.66
216.096	245.14
216.314	245.73
216.532	203.74
216.75	163.91
216.968	173.66
217.185	144.13
217.403	168.14
217.621	204.61
217.839	240.73
218.057	227.19
218.275	317.47
218.492	570.09
218.71	281.06
218.928	258.2
219.146	266.69
219.363	380.55
219.581	417.59
219.799	799.32
220.017	258.77
220.234	241.39
220.452	262.32
220.67	180.95
220.887	160.74
221.105	314.7
221.323	412.85
221.54	414.87
221.758	253.89
221.976	225.57
222.193	175.31
222.411	201.22
222.629	172.7
222.846	193.95
223.064	201.58
223.281	204.25
223.499	209.59
223.716	225.46
223.934	186.93
224.151	198.3
224.369	192.78
224.586	178.55
224.804	183.12
225.021	157.81
225.239	140.93
225.456	141.62
225.674	124.57
225.891	118.68
226.108	107.49
226.326	106.04
226.543	108.03
226.76	96.23
226.978	97.21
227.195	84.04
227.413	78.3
227.63	66.8
227.847	58.69
228.064	52.96
228.282	42.84
228.499	38.46
228.716	34.61
228.934	25.12
229.151	24.65
229.368	22.64
229.585	21.73
229.802	22.3
230.02	19.19
230.237	19.76
230.454	23.22
230.671	26.69
230.888	27.28
231.105	28.34
231.323	32.3
231.54	36.12
231.757	36.65
231.974	44.56
232.191	49.54
232.408	58.53
232.625	61.3
232.842	58.75
233.059	54.15
233.276	64.52
233.493	64.05
233.71	65.16
233.927	62.9
234.144	63.95
234.361	55.98
234.578	57.82
234.795	54.16
235.012	47.05
235.229	41.9
235.446	39.45
235.663	34.83
235.879	35.46
236.096	38.82
236.313	39.22
236.53	41.13
236.747	42.98
236.964	34.26
237.181	37.12
237.397	41.87
237.614	49.65
237.831	56.92
238.048	54.77
238.264	47.57
238.481	44.74
238.698	44.4
238.915	37.38
239.131	30.35
239.348	29.37
239.565	25.46
239.781	24.04
239.998	14.63
240.215	12.54
240.431	11.12
240.648	16.52
240.865	11.16
241.081	13.78
241.298	12.89
241.514	14.74
241.731	17.47
241.947	16.02
242.164	14.65
242.38	15.29
242.597	14.6
242.814	18.17
243.03	17.72
243.246	20.98
243.463	20.09
243.679	22.51
243.896	22.54
244.112	21.38
244.329	22.77
244.545	25.72
244.762	26.84
244.978	28.02
245.194	25.37
245.411	24.58
245.627	20.9
245.843	18.29
246.06	15.91
246.276	14.91
246.492	13.83
246.709	13.68
246.925	13.49
247.141	12.04
247.357	11.48
247.574	12.02
247.79	11.78
248.006	11.3
248.222	11.56
248.439	12.02
248.655	12.08
248.871	12.97
249.087	13.11
249.303	12.39
249.519	13.36
249.736	12.84
249.952	10.9
250.168	11.85
250.384	16.26
250.6	17.91
250.816	18.52
251.032	21.02
251.248	19.23
251.464	18.65
251.68	16.83
251.896	17.36
252.112	17.58
252.328	16.39
252.544	15.65
252.76	12.35
252.976	10.38
253.192	10.46
253.408	7.9
253.624	10.14
253.84	10.57
254.056	15.89
254.272	16.99
254.487	19.86
254.703	22.03
254.919	24.08
255.135	27.51
255.351	27.53
255.567	26.86
255.782	27.98
255.998	26.76
256.214	22.43
256.43	17.92
256.646	18.58
256.861	15.45
257.077	17.48
257.293	18.91
257.508	16.15
257.724	16.03
257.94	15.34
258.155	15.02
258.371	13.98
258.587	15.18
258.802	13.08
259.018	11.54
259.234	10.66
259.449	9.29
259.665	7.35
259.88	8.01
260.096	7.67
260.312	7.71
260.527	7.41
260.743	7.34
260.958	7.39
261.174	7.94
261.389	9.03
261.605	9.45
261.82	8.45
262.036	8.55
262.251	8.58
262.466	9.09
262.682	9.24
262.897	9.12
263.113	8.69
263.328	9.21
263.543	8.92
263.759	8.8
263.974	8.62
264.189	11.02
264.405	13.76
264.62	14.08
264.835	12.83
265.051	14.12
265.266	16.14
265.481	16.54
265.696	16.54
265.912	16.96
266.127	14.63
266.342	14.75
266.557	15.32
266.773	12.66
266.988	11.79
267.203	13.08
267.418	13.05
267.633	11.69
267.848	11.74
268.064	10.91
268.279	10.99
268.494	11.74
268.709	12
268.924	13.47
269.139	15.27
269.354	16.87
269.569	17.65
269.784	14.96
269.999	15.8
270.214	15.16
270.429	16.22
270.644	17.38
270.859	16.76
271.074	16.16
271.289	15.2
271.504	14.36
271.719	14.43
271.934	12.38
272.149	13.75
272.363	12.06
272.578	12.98
272.793	12.15
273.008	10.94
273.223	9.64
273.438	11.08
273.653	10.32
273.867	9.71
274.082	8.43
274.297	9.78
274.512	10.05
274.726	12.44
274.941	11.55
275.156	11.53
275.371	11.55
275.585	15.29
275.8	14.42
276.015	14.01
276.229	14.9
276.444	15.44
276.659	15.97
276.873	16.08
277.088	15.6
277.302	16.19
277.517	17.92
277.732	16.99
277.946	15.91
278.161	16.17
278.375	16.63
278.59	15.07
278.804	13.47
279.019	13.1
279.233	12.36
279.448	12.34
279.662	9.97
279.877	8.14
280.091	8.62
280.306	7.02
280.52	7.14
280.735	6.64
280.949	8.07
281.163	9.54
281.378	8.59
281.592	8.34
281.806	8.46
282.021	11.46
282.235	12.07
282.449	12.66
282.664	12.18
282.878	12.05
283.092	13.14
283.307	13.08
283.521	12.92
283.735	13.3
283.949	13.75
284.164	12.77
284.378	11.07
284.592	10.28
284.806	9.74
285.02	10.33
285.234	8.96
285.449	9.23
285.663	9.56
285.877	9.82
286.091	10.27
286.305	11.84
286.519	12.1
286.733	12.4
286.947	13.29
287.161	13.55
287.375	14.99
287.589	16.6
287.803	15.75
288.017	16.59
288.231	16.16
288.445	16.02
288.659	15.23
288.873	15.5
289.087	16
289.301	16.14
289.515	15.2
289.729	13.26
289.943	13.37
290.157	14.34
290.371	13.5
290.584	13.29
290.798	13.4
291.012	12.7
291.226	12.66
291.44	13.82
291.654	13.07
291.867	14.06
292.081	14.6
292.295	15.45
292.509	13.85
292.722	14.02
292.936	14.18
293.15	15.71
293.364	15.88
293.577	15.69
293.791	13.01
294.005	13.61
294.218	12.68
294.432	12.27
294.645	10.78
294.859	11.71
295.073	11.05
295.286	12.04
295.5	10.23
295.713	9.47
295.927	10.09
296.14	10.85
296.354	11.11
296.568	11.56
296.781	12.66
296.994	11.99
297.208	12.19
297.421	13.14
297.635	12.14
297.848	12.04
298.062	12.45
298.275	12.32
298.489	12.74
298.702	13.12
298.915	13.12
299.129	13.66
299.342	15.08
299.555	15.73
299.769	15.74
299.982	18.13
300.195	19.02
300.409	19.83
300.622	20.79
300.835	22.55
301.048	21.73
301.262	22.64
301.475	21.49
301.688	21.62
301.901	20.04
302.115	19.79
302.328	18.26
302.541	17.67
302.754	18.23
302.967	17.62
303.18	16.63
303.393	17.97
303.607	18.04
303.82	18.97
304.033	19.67
304.246	22.15
304.459	23.18
304.672	22.87
304.885	24.2
305.098	23.81
305.311	23.81
305.524	22.93
305.737	22.25
305.95	21.57
306.163	20.1
306.376	19.02
306.589	17.36
306.802	16.96
307.015	17.97
307.228	17.97
307.44	17.3
307.653	17.77
307.866	18.45
308.079	18.36
308.292	19.12
308.505	20.06
308.718	20.6
308.93	20.45
309.143	20.15
309.356	20.24
309.569	20.4
309.781	21.89
309.994	21.69
310.207	20.03
310.42	19.33
310.632	18.64
310.845	18.19
311.058	18.16
311.27	18.94
311.483	19.36
311.696	19.36
311.908	19.1
312.121	18.34
312.333	19.36
312.546	20.88
312.759	21.03
312.971	21.14
313.184	22.38
313.396	22.66
313.609	21.84
313.821	21.44
314.034	21.21
314.246	22.38
314.459	21.64
314.671	19.45
314.884	19.22
315.096	20.22
315.309	20.59
315.521	20.22
315.733	20.3
315.946	19.88
316.158	20.69
316.371	21.35
316.583	19.14
316.795	20.52
317.008	20.64
317.22	20.21
317.432	20.19
317.644	22.4
317.857	22.12
318.069	21.77
318.281	23.73
318.494	23.04
318.706	22.09
318.918	23.49
319.13	22.71
319.342	23.17
319.555	22.37
319.767	23.07
319.979	20.61
320.191	21.16
320.403	20.31
320.615	17.51
320.827	18.78
321.039	18.98
321.252	18.91
321.464	19.51
321.676	20.39
321.888	21.09
322.1	20.16
322.312	20.32
322.524	20.47
322.736	20.37
322.948	22.53
323.16	20.91
323.372	21.09
323.584	21.19
323.796	22.24
324.007	22.24
324.219	23.93
324.431	24.41
324.643	24.98
324.855	25.4
325.067	25.55
325.279	25.25
325.491	25.76
325.702	25.45
325.914	24.74
326.126	23.32
326.338	22.77
326.55	22.36
326.761	22.37
326.973	22.07
327.185	21.62
327.396	22.2
327.608	22.78
327.82	22.24
328.032	23.53
328.243	24.32
328.455	25.25
328.666	25.84
328.878	25.66
329.09	24.95
329.301	26.52
329.513	27.32
329.725	28.13
329.936	27.24
330.148	28.57
330.359	28.98
330.571	30.38
330.782	30.2
330.994	31.91
331.205	31.83
331.417	32.43
331.628	31.43
331.84	30.82
332.051	30.27
332.262	31.13
332.474	30.58
332.685	30.36
332.897	29.55
333.108	29.58
333.319	28.36
333.531	29.33
333.742	29.62
333.953	29.69
334.165	29.7
334.376	30.9
334.587	30.41
334.799	30.49
335.01	30.28
335.221	29.35
335.432	29.66
335.644	29.75
335.855	29.14
336.066	30.39
336.277	31.5
336.488	31.59
336.7	30.68
336.911	30.96
337.122	31.24
337.333	31.65
337.544	33.21
337.755	33.86
337.966	34.09
338.177	34.38
338.388	33.37
338.599	32.84
338.811	33.41
339.022	34.23
339.233	33.6
339.444	34.14
339.655	33.1
339.866	33.07
340.076	32.17
340.287	31.86
340.498	31.87
340.709	31.5
340.92	31.33
341.131	32.12
341.342	32.81
341.553	34.43
341.764	34.16
341.975	34.98
342.185	34.74
342.396	35.46
342.607	36.36
342.818	35.64
343.029	35.91
343.239	36.14
343.45	34.69
343.661	33.8
343.872	32.81
344.082	32.61
344.293	32.14
344.504	32.3
344.714	30.95
344.925	30.88
345.136	30.72
345.346	30.8
345.557	30.91
345.768	30.99
345.978	30.74
346.189	31.52
346.399	31.28
346.61	31.57
346.821	30.88
347.031	32.5
347.242	32.26
347.452	33.43
347.663	33.86
347.873	34.3
348.084	34.05
348.294	34.86
348.504	34.88
348.715	35.08
348.925	34.56
349.136	34.74
349.346	34.61
349.557	34.21
349.767	33.45
349.977	33.84
350.188	33.11
350.398	33.96
350.608	33.38
350.819	33.4
351.029	34.19
351.239	35.22
351.449	35.52
351.66	35.16
351.87	34.95
352.08	34.97
352.29	34.66
352.501	33.83
352.711	34.89
352.921	34.8
353.131	33.92
353.341	33.79
353.552	33.59
353.762	32.65
353.972	32.8
354.182	33.57
354.392	34.07
354.602	34.01
354.812	34.83
355.022	33.23
355.232	33.16
355.442	33.74
355.652	33.54
355.862	33.16
356.072	34.14
356.282	33.78
356.492	32.58
356.702	32.09
356.912	32.05
357.122	32.85
357.332	33.2
357.542	32.91
357.752	33.27
357.962	32.86
358.171	32.82
358.381	32.87
358.591	32.31
358.801	33.24
359.011	33.37
359.221	33.13
359.43	32.73
359.64	32.3
359.85	32.61
360.06	31.91
360.269	32
360.479	32.25
360.689	31.55
360.899	31.71
361.108	31.48
361.318	31.59
361.528	31.02
361.737	30.71
361.947	30.8
362.156	30.58
362.366	30.36
362.576	30.06
362.785	29.98
362.995	30.53
363.204	31.01
363.414	30.68
363.623	30.21
363.833	30.66
364.042	30.85
364.252	31.33
364.461	31.41
364.671	32.13
364.88	32.16
365.09	32.21
365.299	31.99
365.509	32.35
365.718	32.6
365.927	32.82
366.137	33.08
366.346	32.16
366.555	31.23
366.765	31.32
366.974	31.07
367.183	31.43
367.393	30.94
367.602	31.07
367.811	30.53
368.021	30.82
368.23	30.91
368.439	30.64
368.648	31.19
368.857	31.49
369.067	31.53
369.276	30.77
369.485	30.67
369.694	30.73
369.903	30.13
370.112	29.81
370.321	29.52
370.531	29.53
370.74	28.97
370.949	28.92
371.158	28.79
371.367	28.19
371.576	28.38
371.785	28.54
371.994	28.59
372.203	28.69
372.412	28.49
372.621	28.63
372.83	28.63
373.039	28.97
373.248	28.56
373.457	28.86
373.666	29.06
373.874	29.06
374.083	28.5
374.292	28.28
374.501	27.84
374.71	27.82
374.919	27.06
375.128	27.1
375.336	27.18
375.545	27.37
375.754	27.47
375.963	27.39
376.171	27.5
376.38	27.86
376.589	27.69
376.798	27.77
377.006	28.62
377.215	29.24
377.424	28.62
377.632	28.4
377.841	28.54
378.05	28.83
378.258	28.79
378.467	28.54
378.675	28.47
378.884	28.65
379.093	28.59
379.301	27.9
379.51	27.65
379.718	27.7
379.927	27.91
380.135	27.65
380.344	27.21
380.552	27.34
380.761	27.79
380.969	27.77
381.177	27.67
381.386	27.81
381.594	27.22
381.803	26.97
382.011	27.51
382.219	27.28
382.428	27.29
382.636	27.01
382.845	26.34
383.053	26.27
383.261	25.62
383.469	25.34
383.678	25.13
383.886	24.97
384.094	24.86
384.302	24.3
384.511	24.43
384.719	23.98
384.927	24.29
385.135	24.78
385.343	24.57
385.552	25.25
385.76	25.5
385.968	25.52
386.176	25.72
386.384	25.85
386.592	25.98
386.8	25.66
387.008	25.93
387.216	25.29
387.424	25.35
387.633	25.1
387.841	24.55
388.049	24.88
388.257	24.53
388.465	24.69
388.672	24.71
388.88	24.64
389.088	24.95
389.296	24.84
389.504	24.68
389.712	24.63
389.92	24.39
390.128	24.44
390.336	23.38
390.544	23.81
390.751	24.16
390.959	23.92
391.167	23.83
391.375	23.86
391.583	23.82
391.79	23.93
391.998	23.77
392.206	24.01
392.414	24.02
392.621	24.4
392.829	24.31
393.037	23.91
393.244	23.85
393.452	23.5
393.66	23.23
393.867	23.34
394.075	23.36
394.283	23.48
394.49	23.41
394.698	23.5
394.905	23.5
395.113	23.53
395.32	23.39
395.528	23.65
395.735	23.98
395.943	23.94
396.15	23.83
396.358	23.96
396.565	23.88
396.773	23.67
396.98	23.52
397.188	23.49
397.395	23.37
397.602	23.57
397.81	23.6
398.017	23.64
398.225	23.51
398.432	23.39
398.639	23.68
398.847	23.88
399.054	23.94
399.261	23.98
399.468	23.99
399.676	24.09
399.883	24
400.09	23.95
400.297	24.45
400.505	24.58
400.712	24.93
400.919	24.57
401.126	24.2
401.333	24.32
401.54	24.37
401.748	24.66
401.955	24.72
402.162	24.72
402.369	24.57
402.576	24.19
402.783	23.73
402.99	23.55
403.197	23.49
403.404	23.26
403.611	23.27
403.818	23.43
404.025	23.28
404.232	22.87
404.439	22.84
404.646	22.43
404.853	22.48
405.06	22.94
405.267	22.94
405.474	22.96
405.681	23.19
405.887	23.16
406.094	23.02
406.301	22.92
406.508	23.22
406.715	23.47
406.922	23.83
407.128	23.63
407.335	23.53
407.542	23.7
407.749	23.69
407.955	23.86
408.162	23.74
408.369	23.64
408.575	23.69
408.782	23.42
408.989	23.12
409.195	22.82
409.402	22.71
409.609	22.97
409.815	22.95
410.022	22.82
410.228	22.71
410.435	23
410.642	22.87
410.848	22.66
411.055	22.54
411.261	22.69
411.468	23.07
411.674	23.11
411.881	22.79
412.087	22.51
412.294	22.53
412.5	22.3
412.706	22.15
412.913	22.47
413.119	22.61
413.326	23.08
413.532	23.23
413.738	23.21
413.945	22.96
414.151	23.13
414.357	23.35
414.564	23.56
414.77	23.61
414.976	23.29
415.182	23.23
415.389	23.3
415.595	22.98
415.801	22.65
416.007	22.63
416.214	22.81
416.42	22.37
416.626	22.18
416.832	22.05
417.038	22.08
417.244	22.35
417.45	22.11
417.657	21.92
417.863	21.87
418.069	21.93
418.275	21.82
418.481	21.83
418.687	22.04
418.893	21.89
419.099	21.8
419.305	21.86
419.511	21.77
419.717	21.62
419.923	21.37
420.129	21.33
420.335	21.39
420.541	21.21
420.746	21.14
420.952	20.98
421.158	21.03
421.364	21.06
421.57	20.85
421.776	20.72
421.982	20.92
422.187	21.08
422.393	21.06
422.599	20.98
422.805	21.01
423.01	20.97
423.216	21.04
423.422	20.96
423.628	20.93
423.833	20.91
424.039	20.92
424.245	20.87
424.45	20.77
424.656	20.71
424.862	20.54
425.067	20.53
425.273	20.54
425.478	20.54
425.684	20.64
425.889	20.67
426.095	20.69
426.301	20.68
426.506	20.55
426.712	20.59
426.917	20.77
427.123	20.77
427.328	20.85
427.533	20.98
427.739	20.86
427.944	20.86
428.15	20.91
428.355	20.97
428.561	20.91
428.766	20.83
428.971	20.99
429.177	20.93
429.382	21.27
429.587	21.36
429.793	21.27
429.998	21.13
430.203	21.1
430.408	21.02
430.614	21.04
430.819	21.16
431.024	21.36
431.229	21.44
431.434	21.48
431.64	21.41
431.845	21.36
432.05	21.29
432.255	21.58
432.46	21.58
432.665	21.49
432.87	21.48
433.076	21.49
433.281	21.34
433.486	21.19
433.691	21.12
433.896	21.02
434.101	20.95
434.306	20.78
434.511	20.73
434.716	20.64
434.921	20.74
435.126	20.79
435.331	20.6
435.535	20.59
435.74	20.63
435.945	20.62
436.15	20.77
436.355	20.95
436.56	21.2
436.765	21.28
436.97	21.16
437.174	21.01
437.379	21.1
437.584	21.33
437.789	21.29
437.993	21.26
438.198	21.23
438.403	20.99
438.608	20.85
438.812	20.67
439.017	20.44
439.222	20.58
439.426	20.63
439.631	20.4
439.836	20.38
440.04	20.44
440.245	20.44
440.45	20.38
440.654	20.41
440.859	20.31
441.063	20.32
441.268	20.48
441.472	20.52
441.677	20.62
441.881	20.77
442.086	20.73
442.29	20.91
442.495	20.94
442.699	21.04
442.904	21.09
443.108	20.99
443.312	21.1
443.517	20.99
443.721	20.96
443.925	20.83
444.13	20.7
444.334	20.61
444.538	20.54
444.743	20.59
444.947	20.59
445.151	20.51
445.356	20.62
445.56	20.62
445.764	20.53
445.968	20.49
446.173	20.46
446.377	20.42
446.581	20.37
446.785	20.22
446.989	20.14
447.193	20.14
447.398	20.18
447.602	20.24
447.806	20.31
448.01	20.49
448.214	20.57
448.418	20.64
448.622	20.83
448.826	20.92
449.03	21.15
449.234	21.17
449.438	21.05
449.642	21.12
449.846	21.16
450.05	21.11
450.254	21.08
450.458	21.07
450.662	21.11
450.866	20.99
451.069	21
451.273	20.76
451.477	20.89
451.681	20.97
451.885	20.89
452.089	20.88
452.292	20.73
452.496	20.64
452.7	20.69
452.904	20.6
453.107	20.67
453.311	20.72
453.515	20.9
453.719	20.82
453.922	20.94
454.126	20.82
454.33	20.82
454.533	21.04
454.737	20.92
454.94	20.79
455.144	20.76
455.348	20.57
455.551	20.69
455.755	20.58
455.958	20.51
456.162	20.38
456.365	20.5
456.569	20.48
456.772	20.42
456.976	20.54
457.179	20.44
457.383	20.32
457.586	20.32
457.79	20.27
457.993	20.28
458.196	20.29
458.4	20.21
458.603	20.24
458.807	20.18
459.01	20.24
459.213	20.2
459.417	20.16
459.62	20.28
459.823	20.22
460.026	20.19
460.23	20.16
460.433	20.14
460.636	20.06
460.839	20.06
461.042	19.96
461.246	19.75
461.449	19.66
461.652	19.72
461.855	19.62
462.058	19.75
462.261	19.57
462.464	19.64
462.668	19.65
462.871	20.01
463.074	20
463.277	20.11
463.48	20.31
463.683	20.45
463.886	20.35
464.089	20.57
464.292	20.54
464.495	20.61
464.698	20.41
464.901	20.52
465.104	20.54
465.306	20.48
465.509	20.47
465.712	20.41
465.915	20.39
466.118	20.58
466.321	20.41
466.524	20.46
466.726	20.62
466.929	20.77
467.132	20.65
467.335	20.43
467.538	20.34
467.74	20.54
467.943	20.41
468.146	20.49
468.348	20.34
468.551	20.49
468.754	20.4
468.956	20.41
469.159	20.42
469.362	20.65
469.564	20.79
469.767	21.05
469.969	20.85
470.172	21.16
470.375	21.08
470.577	21.12
470.78	21.19
470.982	21.11
471.185	21.01
471.387	20.88
471.59	20.82
471.792	20.7
471.995	20.74
472.197	20.73
472.399	20.72
472.602	20.98
472.804	21.05
473.007	20.9
473.209	21.08
473.411	21.16
473.614	21.32
473.816	21.31
474.018	21.29
474.22	21.17
474.423	21.28
474.625	21.22
474.827	21.05
475.03	20.97
475.232	21.15
475.434	21.28
475.636	21.25
475.838	21.27
476.04	21.15
476.243	21.35
476.445	21.28
476.647	21.32
476.849	21.2
477.051	21.07
477.253	21.29
477.455	21.13
477.657	21.06
477.859	21
478.061	20.93
478.263	20.84
478.465	20.78
478.667	20.79
478.869	20.71
479.071	20.8
479.273	20.92
479.475	20.83
479.677	20.98
479.879	20.95
480.081	20.97
480.283	21.02
480.485	21.09
480.686	21.07
480.888	21.24
481.09	21.19
481.292	21.02
481.494	21.03
481.695	20.93
481.897	20.75
482.099	20.61
482.301	20.55
482.502	20.36
482.704	20.3
482.906	20.16
483.107	19.95
483.309	19.79
483.511	19.75
483.712	19.61
483.914	19.5
484.115	19.44
484.317	19.44
484.519	19.35
484.72	19.35
484.922	19.32
485.123	19.33
485.325	19.36
485.526	19.45
485.728	19.49
485.929	19.52
486.131	19.61
486.332	19.67
486.534	19.65
486.735	19.74
486.936	19.76
487.138	19.79
487.339	19.71
487.541	19.74
487.742	19.69
487.943	19.71
488.144	19.77
488.346	19.78
488.547	19.82
488.748	19.91
488.95	19.91
489.151	19.93
489.352	19.96
489.553	20.04
489.755	20.06
489.956	20.17
490.157	20.15
490.358	20.22
490.559	20.24
490.76	20.21
490.961	20.08
491.163	20.06
491.364	20.08
491.565	20.01
491.766	20
491.967	19.99
492.168	19.91
492.369	19.89
492.57	19.83
492.771	19.86
492.972	19.89
493.173	20.01
493.374	20.11
493.575	20.21
493.776	20.34
493.976	20.41
494.177	20.64
494.378	20.92
494.579	21.11
494.78	21.2
494.981	21.07
495.182	21.01
495.382	21.17
495.583	21.16
495.784	21.19
495.985	21.3
496.185	21.41
496.386	21.35
496.587	21.28
496.788	21.17
496.988	21.22
497.189	21.55
497.39	21.72
497.59	21.57
497.791	21.73
497.992	21.69
498.192	21.7
498.393	21.68
498.593	21.56
498.794	21.48
498.994	21.57
499.195	21.64
499.395	21.48
499.596	21.59
499.796	21.6
499.997	21.56
500.197	21.47
500.398	21.45
500.598	21.51
500.799	21.75
500.999	21.99
501.199	22.1
501.4	22.14
501.6	22.23
501.801	22.08
502.001	22.19
502.201	22.19
502.402	22.41
502.602	22.34
502.802	22.32
503.002	22.22
503.203	22.16
503.403	22.14
503.603	22.1
503.803	22.08
504.003	22.28
504.204	22.35
504.404	22.26
504.604	22.3
504.804	22.44
505.004	22.58
505.204	22.65
505.404	22.81
505.604	22.77
505.804	22.81
506.005	22.9
506.205	22.81
506.405	22.97
506.605	23.17
506.805	23.27
507.005	23.35
507.204	23.36
507.404	23.41
507.604	23.36
507.804	23.55
508.004	23.64
508.204	23.6
508.404	23.59
508.604	23.49
508.804	23.59
509.003	23.44
509.203	23.28
509.403	23.23
509.603	23.09
509.803	23.13
510.002	23.19
510.202	23.15
510.402	23.21
510.602	23.27
510.801	23.44
511.001	23.36
511.201	23.47
511.4	23.7
511.6	23.83
511.8	24.13
511.999	24.36
512.199	24.29
512.398	24.43
512.598	24.51
512.797	24.72
512.997	24.68
513.197	24.75
513.396	24.86
513.596	24.97
513.795	25.05
513.994	25.07
514.194	25.01
514.393	25.2
514.593	25.45
514.792	25.67
514.992	25.76
515.191	25.97
515.39	26.18
515.59	26.48
515.789	26.54
515.988	26.82
516.188	26.9
516.387	27
516.586	27.14
516.786	26.96
516.985	26.92
517.184	26.91
517.383	26.88
517.582	26.83
517.782	26.71
517.981	26.61
518.18	26.42
518.379	26.53
518.578	26.49
518.777	26.41
518.976	26.61
519.176	26.71
519.375	26.75
519.574	26.8
519.773	26.91
519.972	27.08
520.171	27.2
520.37	27.47
520.569	27.49
520.768	27.73
520.967	27.99
521.166	28.06
521.365	28.2
521.564	28.41
521.762	28.57
521.961	28.84
522.16	28.85
522.359	29
522.558	28.99
522.757	29.14
522.956	29.21
523.154	29.35
523.353	29.47
523.552	29.65
523.751	29.72
523.949	29.61
524.148	29.65
524.347	29.81
524.546	29.96
524.744	30.04
524.943	30.12
525.142	30.17
525.34	30.09
525.539	30.1
525.737	30.04
525.936	30.05
526.135	30.19
526.333	30.16
526.532	30.13
526.73	30.07
526.929	30.14
527.127	30.12
527.326	30.07
527.524	30.13
527.723	30.09
527.921	30.11
528.12	30.02
528.318	29.97
528.516	29.94
528.715	29.93
528.913	30.02
529.112	29.97
529.31	29.99
529.508	30.01
529.707	30.06
529.905	30.13
530.103	30.19
530.301	30.3
530.5	30.41
530.698	30.59
530.896	30.78
531.094	30.9
531.293	31.18
531.491	31.32
531.689	31.51
531.887	31.69
532.085	31.81
532.283	31.93
532.481	32.02
532.68	32.2
532.878	32.17
533.076	32.14
533.274	32.13
533.472	32.11
533.67	32.21
533.868	32.35
534.066	32.25
534.264	32.34
534.462	32.4
534.66	32.57
534.858	32.63
535.056	32.85
535.253	32.97
535.451	33.14
535.649	33.22
535.847	33.39
536.045	33.42
536.243	33.65
536.441	33.81
536.638	33.89
536.836	33.84
537.034	34.05
537.232	34.01
537.43	34.19
537.627	34.31
537.825	34.46
538.023	34.39
538.22	34.61
538.418	34.69
538.616	34.84
538.813	35
539.011	35.22
539.209	35.24
539.406	35.41
539.604	35.5
539.801	35.42
539.999	35.37
540.196	35.42
540.394	35.31
540.591	35.35
540.789	35.28
540.986	35.19
541.184	35.14
541.381	34.99
541.579	34.92
541.776	34.84
541.974	34.85
542.171	34.89
542.368	34.95
542.566	35.06
542.763	35.08
542.96	35.07
543.158	35.2
543.355	35.27
543.552	35.51
543.75	35.75
543.947	36
544.144	36.3
544.341	36.49
544.539	36.64
544.736	36.67
544.933	36.76
545.13	36.94
545.327	37.09
545.524	37.31
545.722	37.38
545.919	37.38
546.116	37.42
546.313	37.18
546.51	37.23
546.707	37.26
546.904	37.27
547.101	37.48
547.298	37.62
547.495	37.77
547.692	37.94
547.889	38.06
548.086	38.12
548.283	38.26
548.48	38.58
548.677	38.73
548.874	39.03
549.07	39.37
549.267	39.43
549.464	39.63
549.661	39.82
549.858	39.83
550.055	40.03
550.251	40.31
550.448	40.32
550.645	40.43
550.842	40.64
551.038	40.64
551.235	40.7
551.432	40.83
551.628	40.92
551.825	40.98
552.022	41.04
552.218	41.02
552.415	41.23
552.612	41.33
552.808	41.23
553.005	41.19
553.201	41.18
553.398	41.17
553.594	41.19
553.791	41.3
553.987	41.24
554.184	41.19
554.38	41.4
554.577	41.17
554.773	41.45
554.97	41.72
555.166	42.01
555.362	42.08
555.559	42.3
555.755	42.5
555.952	42.32
556.148	42.42
556.344	42.66
556.541	42.64
556.737	42.66
556.933	42.71
557.129	42.75
557.326	42.67
557.522	42.73
557.718	42.79
557.914	42.86
558.11	43.23
558.307	43.28
558.503	43.4
558.699	43.49
558.895	43.82
559.091	44.02
559.287	44.43
559.483	44.65
559.679	44.89
559.876	44.73
560.072	44.7
560.268	44.72
560.464	44.74
560.66	44.76
560.856	44.74
561.052	44.57
561.247	44.13
561.443	43.79
561.639	43.71
561.835	43.57
562.031	43.95
562.227	43.72
562.423	43.59
562.619	43.47
562.815	43.37
563.01	43.51
563.206	43.79
563.402	43.81
563.598	43.96
563.793	43.97
563.989	44.02
564.185	43.74
564.381	44.16
564.576	44.19
564.772	44.37
564.968	44.35
565.163	44.16
565.359	43.92
565.555	44.19
565.75	44.22
565.946	44.27
566.141	44.37
566.337	44.31
566.532	44.08
566.728	44.17
566.923	44.29
567.119	44.31
567.314	44.5
567.51	44.86
567.705	44.63
567.901	44.73
568.096	44.74
568.292	44.75
568.487	45.06
568.682	45.45
568.878	45.54
569.073	45.48
569.268	45.58
569.464	45.43
569.659	45.28
569.854	45.47
570.05	45.5
570.245	45.6
570.44	45.62
570.635	45.47
570.831	45.32
571.026	45.24
571.221	45.32
571.416	45.23
571.611	45.23
571.806	45.12
572.002	45.11
572.197	44.93
572.392	44.84
572.587	44.68
572.782	44.88
572.977	45.01
573.172	45.07
573.367	45
573.562	45.14
573.757	45.34
573.952	45.41
574.147	45.67
574.342	45.85
574.537	46.02
574.732	46.28
574.927	46.32
575.121	46.34
575.316	46.36
575.511	46.49
575.706	46.52
575.901	46.5
576.096	46.74
576.29	46.62
576.485	46.68
576.68	46.82
576.875	46.81
577.069	46.81
577.264	46.56
577.459	46.87
577.654	46.91
577.848	46.89
578.043	47
578.238	47.09
578.432	47.28
578.627	47.33
578.821	47.24
579.016	47.31
579.21	47.49
579.405	47.64
579.6	47.43
579.794	47.78
579.989	47.94
580.183	48.29
580.378	48.39
580.572	48.61
580.766	49.1
580.961	49.22
581.155	49.33
581.35	49.49
581.544	49.82
581.738	50.25
581.933	49.99
582.127	50.24
582.321	49.92
582.516	50.03
582.71	49.93
582.904	49.7
583.099	49.93
583.293	50.17
583.487	50.19
583.681	50.41
583.875	49.99
584.07	50.13
584.264	50.24
584.458	50.5
584.652	50.14
584.846	49.89
585.04	49.79
585.234	49.54
585.428	49.53
585.623	49.39
585.817	49.12
586.011	49.34
586.205	49.4
586.399	49.25
586.593	49.17
586.787	49.38
586.981	49.56
587.174	49.71
587.368	50.04
587.562	50.02
587.756	49.85
587.95	49.87
588.144	49.62
588.338	49.53
588.532	49.21
588.725	49.13
588.919	49.01
589.113	48.78
589.307	48.38
589.501	48.27
589.694	48.18
589.888	48.22
590.082	48.16
590.275	48.21
590.469	48.37
590.663	48.58
590.856	48.49
591.05	48.67
591.244	49.16
591.437	49.59
591.631	49.43
591.824	49.22
592.018	49.63
592.212	49.79
592.405	49.83
592.599	49.71
592.792	49.78
592.986	49.94
593.179	49.83
593.372	49.48
593.566	49.19
593.759	49.45
593.953	49.53
594.146	49.16
594.339	49.17
594.533	49.09
594.726	48.96
594.92	49.03
595.113	49.01
595.306	49.09
595.499	48.99
595.693	49.02
595.886	48.93
596.079	48.98
596.272	48.86
596.466	48.75
596.659	48.76
596.852	48.82
597.045	48.93
597.238	48.73
597.431	48.7
597.624	48.82
597.818	49.05
598.011	48.97
598.204	49.09
598.397	49.2
598.59	49.29
598.783	49.4
598.976	49.58
599.169	49.5
599.362	49.82
599.555	49.95
599.748	50.15
599.941	50.18
600.134	50.18
600.326	50.35
600.519	50.92
600.712	51.19
600.905	51.36
601.098	51.3
601.291	51.19
601.483	51.34
601.676	51.19
601.869	51.11
602.062	51.02
602.255	51.15
602.447	50.7
602.64	50.31
602.833	50.17
603.025	49.97
603.218	50.02
603.411	49.96
603.603	49.61
603.796	49.61
603.989	49.42
604.181	49.27
604.374	49.28
604.566	49.43
604.759	49.51
604.951	49.42
605.144	49.54
605.336	49.68
605.529	49.97
605.721	50.2
605.914	50.13
606.106	50.27
606.299	50.6
606.491	50.58
606.683	50.69
606.876	50.71
607.068	50.86
607.26	50.87
607.453	50.82
607.645	50.86
607.837	50.77
608.03	50.83
608.222	50.86
608.414	50.86
608.606	50.86
608.799	50.83
608.991	50.81
609.183	50.64
609.375	50.48
609.567	50.42
609.759	50.16
609.952	50.13
610.144	50.28
610.336	50.37
610.528	50.21
610.72	50.25
610.912	50.2
611.104	50.26
611.296	50.5
611.488	50.84
611.68	50.87
611.872	51.15
612.064	51.58
612.256	51.58
612.448	51.84
612.64	51.91
612.832	51.99
613.023	52.36
613.215	52.37
613.407	52.24
613.599	52.35
613.791	52.8
613.983	52.74
614.174	52.57
614.366	52.68
614.558	52.4
614.75	52.35
614.941	52.49
615.133	52.44
615.325	52.73
615.516	52.92
615.708	52.86
615.9	52.45
616.091	52.08
616.283	52.15
616.475	52.26
616.666	52.67
616.858	53
617.049	52.9
617.241	52.8
617.432	52.38
617.624	52.34
617.815	52.27
618.007	52.47
618.198	52.88
618.39	52.69
618.581	52.62
618.773	52.36
618.964	52.22
619.155	52.51
619.347	52.61
619.538	52.83
619.729	52.83
619.921	53.1
620.112	53.06
620.303	52.96
620.494	53.19
620.686	53.28
620.877	53.39
621.068	53.59
621.259	53.49
621.451	53.37
621.642	53.43
621.833	53.28
622.024	53.08
622.215	53.14
622.406	53.01
622.597	52.94
622.788	53.02
622.98	52.78
623.171	52.48
623.362	52.69
623.553	53.08
623.744	53.07
623.935	53.3
624.126	53.19
624.317	53.07
624.508	53.44
624.698	53.3
624.889	53.24
625.08	53.5
625.271	53.69
625.462	53
625.653	52.8
625.844	52.58
626.034	52.25
626.225	52.13
626.416	51.86
626.607	51.77
626.798	51.81
626.988	51.61
627.179	51.59
627.37	51.49
627.56	51.72
627.751	51.41
627.942	51.5
628.132	51.47
628.323	51.55
628.514	51.79
628.704	51.7
628.895	51.81
629.085	52.11
629.276	52.22
629.466	52.49
629.657	52.51
629.847	52.87
630.038	52.95
630.228	53.24
630.419	53.59
630.609	53.75
630.8	53.92
630.99	54.04
631.181	53.91
631.371	53.9
631.561	53.44
631.752	53.55
631.942	53.72
632.132	54.02
632.323	54.28
632.513	54.26
632.703	54.03
632.893	54.24
633.084	54.2
633.274	54.2
633.464	53.88
633.654	54.02
633.844	53.78
634.034	53.62
634.225	53.33
634.415	53.2
634.605	53.11
634.795	53.28
634.985	53.24
635.175	53.06
635.365	52.9
635.555	53.29
635.745	53.42
635.935	53.87
636.125	53.69
636.315	53.75
636.505	53.9
636.695	53.73
636.885	53.84
637.075	53.74
637.265	54.19
637.455	54.54
637.644	54.51
637.834	54.57
638.024	54.37
638.214	54.86
638.404	55.26
638.593	55.52
638.783	55.6
638.973	55.82
639.163	55.64
639.352	55.39
639.542	55.59
639.732	55.74
639.921	55.82
640.111	56.17
640.301	55.9
640.49	55.65
640.68	55.35
640.87	55.75
641.059	55.39
641.249	55.68
641.438	55.9
641.628	55.47
641.817	55.58
642.007	55.64
642.196	55.55
642.386	55.91
642.575	55.89
642.764	55.85
642.954	55.56
643.143	55.7
643.333	55.69
643.522	55.49
643.711	55.35
643.901	55.16
644.09	55.39
644.279	55.69
644.469	55.51
644.658	55.27
644.847	55.42
645.036	55.26
645.226	55.6
645.415	55.88
645.604	55.41
645.793	56.19
645.982	56.04
646.171	55.55
646.361	54.75
646.55	55.02
646.739	55.46
646.928	54.83
647.117	55.37
647.306	54.86
647.495	54.41
647.684	54.63
647.873	54.19
648.062	54.33
648.251	54.74
648.44	55
648.629	54.48
648.818	54.26
649.007	54.6
649.196	54.67
649.384	54.88
649.573	55.07
649.762	55.4
649.951	55.33
650.14	55.89
650.328	55.89
650.517	55.85
650.706	56.1
650.895	55.96
651.083	56.36
651.272	56.1
651.461	55.61
651.65	55.4
651.838	55.96
652.027	56
652.216	55.19
652.404	55.2
652.593	55.63
652.781	55.44
652.97	55.88
653.158	55.59
653.347	55.65
653.535	56.14
653.724	56.08
653.912	55.67
654.101	55.96
654.289	56.11
654.478	55.9
654.666	55.62
654.855	55.48
655.043	55.35
655.231	55.37
655.42	55.43
655.608	55.21
655.796	55.56
655.985	55.33
656.173	54.94
656.361	55.14
656.55	55.23
656.738	54.94
656.926	55.19
657.114	55.47
657.302	55.6
657.491	55.26
657.679	55.02
657.867	54.59
658.055	54.49
658.243	54.26
658.431	54.08
658.619	53.98
658.807	54.09
658.996	53.86
659.184	53.38
659.372	53.22
659.56	53.12
659.748	53.43
659.936	54.13
660.124	53.84
660.311	54.14
660.499	54.4
660.687	54.37
660.875	54.6
661.063	54.86
661.251	55.34
661.439	55.7
661.627	56.31
661.814	56.18
662.002	55.7
662.19	56.31
662.378	56.55
662.565	56.62
662.753	56.98
662.941	56.97
663.129	57.42
663.316	57.3
663.504	57.22
663.692	57.19
663.879	57.11
664.067	56.96
664.254	56.7
664.442	56.67
664.63	56.88
664.817	56.77
665.005	56.86
665.192	56.42
665.38	56.57
665.567	56.21
665.755	56.23
665.942	56.77
666.13	56.94
666.317	56.85
666.504	56.45
666.692	56.56
666.879	56.43
667.067	56.49
667.254	56.67
667.441	56.43
667.629	56.87
667.816	56.76
668.003	56.66
668.19	56.95
668.378	56.74
668.565	56.93
668.752	56.22
668.939	56.34
669.127	56.06
669.314	56.16
669.501	56.26
669.688	56.56
669.875	56
670.062	55.84
670.249	55.66
670.436	55.98
670.623	56.29
670.81	56.64
670.997	56.32
671.184	56.24
671.371	56.11
671.558	56.24
671.745	55.62
671.932	56.23
672.119	56.83
672.306	57.21
672.493	57.37
672.68	57.17
672.867	56.68
673.054	56.61
673.24	56.82
673.427	56.59
673.614	56.49
673.801	56.88
673.988	56.34
674.174	56.16
674.361	55.83
674.548	55.91
674.734	55.66
674.921	56.29
675.108	56.95
675.294	56.86
675.481	57.22
675.668	57.52
675.854	57.47
676.041	57.54
676.227	57.19
676.414	57.23
676.601	57.28
676.787	57.84
676.974	58.06
677.16	57.79
677.347	58.32
677.533	58.35
677.719	58.08
677.906	57.62
678.092	58
678.279	57.85
678.465	57.45
678.651	57.39
678.838	57.01
679.024	56.23
679.21	55.71
679.397	55.21
679.583	55.06
679.769	54.87
679.955	55.08
680.142	54.98
680.328	55.26
680.514	55.38
680.7	55.13
680.886	55.35
681.073	55.78
681.259	56.19
681.445	56.14
681.631	56.2
681.817	56.12
682.003	56.06
682.189	55.54
682.375	55.67
682.561	55.88
682.747	56.16
682.933	56.05
683.119	55.84
683.305	55.68
683.491	55.54
683.677	55.38
683.863	55.48
684.049	55.96
684.235	56.24
684.42	56.31
684.606	56.26
684.792	56.28
684.978	56.26
685.164	56.7
685.349	56.6
685.535	57.02
685.721	56.88
685.907	56.93
686.092	56.62
686.278	56.94
686.464	56.86
686.649	56.86
686.835	56.83
687.021	57.33
687.206	56.75
687.392	57.08
687.577	57.02
687.763	57.47
687.948	57.15
688.134	56.7
688.319	56.56
688.505	56.58
688.69	56.46
688.876	56.29
689.061	55.63
689.247	55.95
689.432	55.77
689.618	55.73
689.803	55.76
689.988	56.01
690.174	56.7
690.359	56.99
690.544	57.02
690.73	57.38
690.915	57.42
691.1	57.79
691.285	57.49
691.471	57.58
691.656	57.54
691.841	57.01
692.026	56.71
692.211	56.65
692.396	56.92
692.582	56.37
692.767	56.03
692.952	56.77
693.137	56.29
693.322	56.54
693.507	56.67
693.692	57.16
693.877	57.55
694.062	58.16
694.247	58.25
694.432	58.29
694.617	58.51
694.802	58.82
694.987	58.58
695.172	59.26
695.357	59.13
695.541	59.14
695.726	58.79
695.911	58.55
696.096	58.23
696.281	57.69
696.466	57.35
696.65	57.28
696.835	56.52
697.02	55.84
697.204	55.94
697.389	55.72
697.574	55.61
697.759	55.27
697.943	55.25
698.128	54.93
698.312	55.02
698.497	54.36
698.682	53.94
698.866	54.14
699.051	53.99
699.235	53.58
699.42	53.62
699.604	53.22
699.789	53.51
699.973	53.32
700.158	53.85
700.342	54.03
700.527	54.91
700.711	55.47
700.895	56.09
701.08	56.75
701.264	57.22
701.448	57.64
701.633	58.24
701.817	58.66
702.001	59.21
702.186	59.18
702.37	58.89
702.554	58.35
702.738	58.27
702.923	57.77
703.107	57.58
703.291	57.37
703.475	57.03
703.659	57.05
703.843	56.94
704.027	57.24
704.212	56.85
704.396	57.51
704.58	58.24
704.764	58.56
704.948	58.81
705.132	58.91
705.316	59.04
705.5	59.56
705.684	59.1
705.868	58.71
706.052	58.85
706.235	59.81
706.419	59.39
706.603	59.24
706.787	59.33
706.971	59.42
707.155	59.16
707.339	59.24
707.522	59.08
707.706	59.76
707.89	60.51
708.074	60.1
708.257	59.29
708.441	59.38
708.625	58.74
708.808	58.23
708.992	58.66
709.176	59.22
709.359	58.98
709.543	59.24
709.727	59.13
709.91	58.48
710.094	58.96
710.277	59.78
710.461	59.86
710.644	60.95
710.828	61.2
711.011	61.23
711.195	60.4
711.378	61.07
711.562	60.65
711.745	60.51
711.928	60.73
712.112	60.32
712.295	59.79
712.478	60.15
712.662	59.43
712.845	60.28
713.028	60.07
713.212	60.84
713.395	60.51
713.578	61.44
713.761	61.4
713.945	61.16
714.128	61.68
714.311	61.89
714.494	61.16
714.677	60.65
714.86	59.99
715.043	59.55
715.227	59.36
715.41	58.88
715.593	58.38
715.776	58.73
715.959	59.42
716.142	59.13
716.325	58.41
716.508	58.32
716.691	58.45
716.874	57.83
717.057	57.79
717.239	57.2
717.422	57.68
717.605	57.01
717.788	56.72
717.971	56.41
718.154	56.08
718.337	55.99
718.519	56.25
718.702	56.63
718.885	56.87
719.068	57.26
719.25	57.86
719.433	57.26
719.616	57.56
719.798	57.98
719.981	58.71
720.164	58.58
720.346	59.74
720.529	59.6
720.712	59.85
720.894	61.01
721.077	61.13
721.259	61.29
721.442	62.52
721.624	62.88
721.807	62.71
721.989	62.17
722.172	62.93
722.354	62.64
722.537	63.78
722.719	63.36
722.901	62.21
723.084	61.91
723.266	61.41
723.448	60.39
723.631	59.85
723.813	60.32
723.995	59.86
724.178	59.56
724.36	59.58
724.542	58.53
724.724	58.79
724.907	59.52
725.089	59.88
725.271	60.24
725.453	59.87
725.635	60.75
725.817	61.23
725.999	60.76
726.181	60.4
726.364	60.8
726.546	60.43
726.728	60.41
726.91	60.38
727.092	59.44
727.274	59.82
727.456	60.45
727.638	60.01
727.819	59.44
728.001	59.74
728.183	59.67
728.365	59.17
728.547	59.8
728.729	60.85
728.911	60.51
729.093	61.22
729.274	60.52
729.456	60.47
729.638	60.62
729.82	60.65
730.001	60.36
730.183	61.48
730.365	61.49
730.546	61.58
730.728	60.35
730.91	60.52
731.091	60.89
731.273	60.96
731.455	60.35
731.636	60.11
731.818	59.67
731.999	60.38
732.181	59.3
732.362	59.64
732.544	59.9
732.725	59.97
732.907	59.6
733.088	59.37
733.27	60.37
733.451	60.84
733.633	61.27
733.814	61.73
733.995	61.11
734.177	61.68
734.358	61.3
734.539	60.82
734.721	61.26
734.902	61.37
735.083	61.37
735.264	61.02
735.446	62.05
735.627	61.76
735.808	61.26
735.989	61.51
736.17	60.89
736.351	61.14
736.533	60.89
736.714	61.12
736.895	62.2
737.076	62.08
737.257	62.13
737.438	61.06
737.619	61.54
737.8	61.28
737.981	62.18
738.162	62.83
738.343	62.89
738.524	64.01
738.705	63.62
738.886	63.69
739.067	64.26
739.247	63.31
739.428	63.28
739.609	62.76
739.79	62.87
739.971	62.67
740.151	63.29
740.332	63.18
740.513	62.44
740.694	62.5
740.874	61.92
741.055	61.96
741.236	63.19
741.417	64.02
741.597	63.98
741.778	64.43
741.958	63.21
742.139	63.26
742.32	63.27
742.5	63.82
742.681	64.27
742.861	64.2
743.042	63.25
743.222	63.37
743.403	63.29
743.583	64.51
743.764	65.23
743.944	66.2
744.124	65.51
744.305	66.05
744.485	66.07
744.666	65.91
744.846	66.77
745.026	68
745.207	68.16
745.387	68.84
745.567	67.89
745.747	66.61
745.928	67.42
746.108	67.86
746.288	68.76
746.468	68.83
746.648	69.4
746.829	69.17
747.009	69.83
747.189	69.66
747.369	68.9
747.549	69.09
747.729	69.84
747.909	69.26
748.089	68.54
748.269	67.61
748.449	67.75
748.629	66.68
748.809	66.59
748.989	66.32
749.169	65.16
749.349	65.33
749.529	65.53
749.709	65.71
749.889	66.21
750.068	66.42
750.248	66.2
750.428	66.24
750.608	67.07
750.788	66.99
750.967	66.25
751.147	67.6
751.327	67.97
751.507	68.07
751.686	68.03
751.866	68.39
752.046	68.66
752.225	68.47
752.405	68.82
752.585	68.7
752.764	69.03
752.944	69.02
753.123	68.54
753.303	67.76
753.482	67.77
753.662	68.08
753.841	67.5
754.021	67.84
754.2	68.96
754.38	68.96
754.559	69.54
754.739	69.11
754.918	69.24
755.097	69.33
755.277	69.39
755.456	69.32
755.635	69
755.815	69.65
755.994	69.62
756.173	68.81
756.352	68.37
756.532	67.09
756.711	66.93
756.89	66.52
757.069	66.85
757.248	65.85
757.427	64.79
757.607	64.42
757.786	64.07
757.965	62.91
758.144	62.97
758.323	63.42
758.502	64.43
758.681	63.76
758.86	62.51
759.039	61.41
759.218	62.07
759.397	62.49
759.576	62.14
759.755	59.97
759.934	60.05
760.113	59.71
760.291	58.46
760.47	57.97
760.649	58.48
760.828	59.93
761.007	59.79
761.186	59.25
761.364	59.74
761.543	59.55
761.722	60.05
761.901	60.04
762.079	60.02
762.258	59.75
762.437	59.86
762.615	58.99
762.794	58.4
762.972	57.86
763.151	57.78
763.33	56.75
763.508	56.56
763.687	56.66
763.865	56.07
764.044	55.52
764.222	55.45
764.401	54.69
764.579	54.35
764.758	54.56
764.936	54.92
765.114	54.82
765.293	55.39
765.471	56.51
765.65	56.91
765.828	57.84
766.006	58.72
766.184	59.34
766.363	60
766.541	61.38
766.719	62.14
766.898	61.97
767.076	62.87
767.254	64.05
767.432	63.57
767.61	63.31
767.788	63.95
767.967	63.24
768.145	62.44
768.323	63.22
768.501	64.13
768.679	64.44
768.857	65.93
769.035	67.78
769.213	67.76
769.391	68.15
769.569	71.25
769.747	71.02
769.925	72.61
770.103	74.2
770.281	73.25
770.459	72.42
770.636	71.84
770.814	71.6
770.992	70.59
771.17	70.45
771.348	71.13
771.525	68.88
771.703	69.05
771.881	69.7
772.059	70.59
772.236	70.55
772.414	70.05
772.592	70.45
772.769	72.18
772.947	70.65
773.125	70.95
773.302	68.76
773.48	69.38
773.657	69.96
773.835	68.37
774.013	67.19
774.19	69.5
774.368	70.4
774.545	69.48
774.723	69.73
774.9	70.45
775.077	70.55
775.255	72.74
775.432	72.56
775.61	71.94
775.787	71.95
775.964	74.13
776.142	72.66
776.319	73.03
776.496	74.01
776.674	72.79
776.851	73.01
777.028	73.33
777.205	73.61
777.382	75.94
777.56	76.98
777.737	80.27
777.914	79.16
778.091	78.29
778.268	75.21
778.445	74.02
778.622	73.37
778.8	75.33
778.977	75.47
779.154	79.73
779.331	77.18
779.508	75.96
779.685	72.75
779.862	72.13
780.038	72.72
780.215	76.01
780.392	77.11
780.569	76.54
780.746	74.35
780.923	73.8
781.1	67.62
781.277	67.26
781.453	67.18
781.63	65.22
781.807	67.7
781.984	67.98
782.16	67.27
782.337	67.42
782.514	69.12
782.691	70.24
782.867	70.28
783.044	72.06
783.221	72.37
783.397	73.16
783.574	75.69
783.75	74.76
783.927	75.85
784.103	75.23
784.28	73.91
784.456	74.86
784.633	75.81
784.809	74.78
784.986	73.67
785.162	73.18
785.339	71.43
785.515	72.91
785.692	69.93
785.868	68.69
786.044	71.07
786.221	71.17
786.397	71.86
786.573	70.31
786.749	70.58
786.926	70.45
787.102	69.88
787.278	69.75
787.454	69.33
787.631	69.38
787.807	68.19
787.983	67.42
788.159	67.99
788.335	66.55
788.511	67.23
788.687	67.33
788.863	67.95
789.039	68.81
789.216	70.37
789.392	70.25
789.568	72.41
789.744	75.44
789.919	74.7
790.095	73.82
790.271	71.48
790.447	70.11
790.623	69.48
790.799	70.69
790.975	71.62
791.151	71.24
791.327	72.24
791.502	72.42
791.678	69.75
791.854	69.75
792.03	69.28
792.205	73.01
792.381	75.16
792.557	75.26
792.733	73.58
792.908	72.36
793.084	73.03
793.259	70.01
793.435	70.77
793.611	71.66
793.786	71.42
793.962	72.14
794.137	70.53
794.313	68.74
794.488	70.82
794.664	69.87
794.839	70.85
795.015	71.52
795.19	71.7
795.366	70.56
795.541	70.35
795.716	68.3
795.892	70.26
796.067	69.45
796.242	68.8
796.418	67.07
796.593	71.13
796.768	72
796.944	71.1
797.119	73.3
797.294	73.21
797.469	74.25
797.644	76.18
797.82	74.67
797.995	75.31
798.17	76.79
798.345	77.13
798.52	73.02
798.695	72.8
798.87	72.95
799.045	69.93
799.22	68.59
799.395	68.71
799.57	67.84
799.745	68.31
799.92	68.55
800.095	70.62
800.27	70.94
800.445	72.46
800.62	71.3
800.795	70.86
800.97	74.26
801.145	73.08
801.319	71.29
801.494	70.71
801.669	71.78
801.844	72.52
802.018	69.16
802.193	70.6
802.368	66.29
802.543	67.84
802.717	69.09
802.892	69.43
803.067	71.46
803.241	71.44
803.416	73.94
803.59	75.42
803.765	74.94
803.94	77.77
804.114	73.49
804.289	76.93
804.463	74.99
804.638	73.41
804.812	71.18
804.986	71.93
805.161	75.11
805.335	73.64
805.51	70.87
805.684	73.54
805.858	73.81
806.033	75.02
806.207	76.49
806.381	75.78
806.556	76.6
806.73	75.58
806.904	75.42
807.078	76.3
807.253	77.78
807.427	77.94
807.601	74.81
807.775	73.46
807.949	73.95
808.123	71.84
808.298	72.76
808.472	74.98
808.646	78.68
808.82	79.27
808.994	75.83
809.168	74.01
809.342	75.41
809.516	76.14
809.69	78.29
809.864	78.64
810.038	81.44
810.212	79.94
810.385	76.53
810.559	72.49
810.733	72.55
810.907	71.69
811.081	72.82
811.255	72.7
811.428	73.67
811.602	70.63
811.776	70.85
811.95	69.56
812.123	74.79
812.297	74.46
812.471	75.59
812.644	73.19
812.818	76.11
812.992	76.57
813.165	74.9
813.339	72.58
813.512	72.86
813.686	71.74
813.86	69.2
814.033	67.7
814.207	68.59
814.38	66.62
814.554	68.25
814.727	66.11
814.9	65.12
815.074	62.97
815.247	65.34
815.421	63.96
815.594	65.23
815.767	70.91
815.941	68.12
816.114	66.93
816.287	71.32
816.46	71.54
816.634	73.1
816.807	72.16
816.98	73.57
817.153	74.01
817.327	70.92
817.5	71.32
817.673	69.8
817.846	73
818.019	74.04
818.192	74.87
818.365	72.29
818.538	70.48
818.711	70.75
818.884	69.01
819.057	68.2
819.23	72.39
819.403	73.18
819.576	70.8
819.749	67.62
819.922	65.14
820.095	62.41
820.268	65.24
820.441	66.33
820.614	65.51
820.786	66.19
820.959	66.08
821.132	63.7
821.305	62.08
821.477	61.08
821.65	59.58
821.823	58.92
821.996	58.41
822.168	57.2
822.341	54.97
822.514	55.03
822.686	54.88
822.859	54.11
823.031	53.55
823.204	52.79
823.376	52.44
823.549	52.43
823.722	52.18
823.894	51.93
824.067	51.91
824.239	52.19
824.411	52.3
824.584	52.55
824.756	52.06
824.929	52.55
825.101	53.1
825.273	53.42
825.446	53.83
825.618	53.72
825.79	54.66
825.963	54.24
826.135	54.68
826.307	55.12
826.479	54.85
826.652	55.03
826.824	54.83
826.996	54.93
827.168	55.07
827.34	55.84
827.512	55.65
827.684	55.41
827.856	56.66
828.029	56.29
828.201	55.07
828.373	55.01
828.545	55.66
828.717	56.2
828.889	56.37
829.061	56.47
829.232	56.47
829.404	57.77
829.576	57.99
829.748	56.94
829.92	59.02
830.092	61.38
830.264	61.1
830.436	61.25
830.607	61.71
830.779	60.81
830.951	62.55
831.123	62.49
831.294	61.98
831.466	64.19
831.638	64.19
831.809	62.53
831.981	63.39
832.153	64.82
832.324	66.08
832.496	64.57
832.667	65.04
832.839	65.09
833.011	64.94
833.182	65.96
833.354	60.33
833.525	61.42
833.697	60.97
833.868	58.56
834.039	58.12
834.211	57.59
834.382	58.41
834.554	59.72
834.725	58.4
834.896	57.79
835.068	58.21
835.239	59.88
835.41	60.18
835.581	59.9
835.753	59.5
835.924	60.51
836.095	60.68
836.266	60.83
836.438	60.58
836.609	61.36
836.78	62.1
836.951	62.72
837.122	63.43
837.293	62.9
837.464	65.19
837.635	67.52
837.806	65.48
837.977	67.47
838.148	66.89
838.319	67.96
838.49	67.81
838.661	66.14
838.832	68.89
839.003	68.95
839.174	72.04
839.345	71.42
839.516	70.27
839.687	73.38
839.857	70.18
840.028	68.82
840.199	69
840.37	72.17
840.54	75.25
840.711	71.06
840.882	72.52
841.053	69.42
841.223	70.81
841.394	74
841.564	78.83
841.735	78.6
841.906	82.17
842.076	80.69
842.247	78.59
842.417	79.37
842.588	82.09
842.758	85.25
842.929	87.51
843.099	86.21
843.27	82.92
843.44	82.36
843.611	85.58
843.781	83.78
843.951	85.52
844.122	82.13
844.292	80.34
844.462	78.84
844.633	72.4
844.803	69.57
844.973	68.8
845.144	71.43
845.314	66.4
845.484	69.2
845.654	77.98
845.824	84.91
845.995	88.8
846.165	100.25
846.335	103.34
846.505	113.4
846.675	128.28
846.845	150.2
847.015	157.68
847.185	162.21
847.355	157.17
847.525	152.19
847.695	146.9
847.865	154.74
848.035	142.78
848.205	150.79
848.375	136.87
848.545	119.49
848.715	105
848.884	99.55
849.054	99.25
849.224	98.42
849.394	105.81
849.564	102.72
849.733	102.82
849.903	109.76
850.073	112.28
850.243	122.69
850.412	129.5
850.582	120.33
850.752	135.05
850.921	116.36
851.091	123.02
851.26	114.12
851.43	120.93
851.599	117.38
851.769	117.07
851.939	106.05
852.108	107.69
852.278	108
852.447	117.89
852.616	115.49
852.786	119.64
852.955	123.08
853.125	130.83
853.294	124.87
853.463	119.76
853.633	115.03
853.802	122.93
853.971	125.93
854.141	125.91
854.31	120.13
854.479	124.35
854.648	137.56
854.818	134.12
854.987	122.98
855.156	129.34
855.325	127.46
855.494	135.15
855.663	123.86
855.832	110.6
856.001	119.32
856.171	123.41
856.34	119.1
856.509	128.35
856.678	117.49
856.847	102.27
857.016	105.13
857.185	108.56
857.353	106.07
857.522	108.39
857.691	107.31
857.86	99.83
858.029	104.98
858.198	102.96
858.367	95.52
858.535	99.12
858.704	110.18
858.873	104.23
859.042	98.18
859.21	97.21
859.379	102.45
859.548	104.72
859.717	99.54
859.885	91.55
860.054	90.59
860.222	89
860.391	98.32
860.56	97.46
860.728	92.84
860.897	96.99
861.065	101.51
861.234	95.3
861.402	104.71
861.571	108.31
861.739	112.42
861.908	106.94
862.076	106.98
862.244	101.92
862.413	105.9
862.581	113.06
862.749	113.24
862.918	109.45
863.086	120.23
863.254	103.75
863.423	112.3
863.591	107.82
863.759	110.24
863.927	114.27
864.096	108.09
864.264	119.43
864.432	115.78
864.6	117.75
864.768	115.86
864.936	106.07
865.104	105.57
865.272	102.31
865.44	101.93
865.608	102.03
865.776	88.79
865.944	95.18
866.112	85.14
866.28	93.23
866.448	88.18
866.616	96.16
866.784	102.93
866.952	107.47
867.12	97.43
867.288	103.21
867.455	110.9
867.623	110.57
867.791	99.38
867.959	105.67
868.127	103.18
868.294	109.19
868.462	107.23
868.63	104.2
868.797	98.71
868.965	102.38
869.133	102.89
869.3	100.35
869.468	100.39
869.636	96.54
869.803	87.65
869.971	83.82
870.138	83.51
870.306	75.5
870.473	76.29
870.641	77.07
870.808	78.61
870.975	76.42
871.143	65.03
871.31	65.32
871.478	75.12
871.645	72.23
871.812	77.78
871.98	76.79
872.147	78.1
872.314	68.68
872.482	74.35
872.649	75.98
872.816	76.61
872.983	86.8
873.15	99.21
873.318	113.54
873.485	116.42
873.652	103.83
873.819	113.08
873.986	109.84
874.153	115.56
874.32	112.19
874.487	111.04
874.654	107.57
874.821	105.68
874.988	97.79
875.155	84.86
875.322	82.55
875.489	91.82
875.656	94.19
875.823	107.87
875.99	110.17
876.157	116.87
876.324	115.16
876.49	122.54
876.657	121.64
876.824	126.27
876.991	137.52
877.157	156.97
877.324	165.33
877.491	153.85
877.658	142.6
877.824	158.46
877.991	142.32
878.157	149.25
878.324	132.05
878.491	133.77
878.657	137.99
878.824	127.96
878.99	105.49
879.157	85.87
879.323	82.01
879.49	75.76
879.656	71.56
879.823	79.2
879.989	79.6
880.156	85.71
880.322	83.66
880.488	83.4
880.655	85.61
880.821	97.77
880.987	94.21
881.154	92.06
881.32	89.51
881.486	84.74
881.652	79.14
881.819	75.72
881.985	74
882.151	73.12
882.317	69.29
882.483	64.86
882.649	62.37
882.816	65.23
882.982	64.63
883.148	62.97
883.314	61.59
883.48	60.36
883.646	57.24
883.812	56.06
883.978	55.82
884.144	55.55
884.31	56.54
884.476	55.64
884.642	53.45
884.807	53.94
884.973	54.98
885.139	54.85
885.305	55.7
885.471	59.19
885.637	57.18
885.802	56.79
885.968	56.21
886.134	56.12
886.3	57.13
886.465	62.44
886.631	62.4
886.797	63.9
886.962	65.31
887.128	63.58
887.293	62.97
887.459	65.74
887.625	67.23
887.79	71.94
887.956	73.6
888.121	74.69
888.287	69.03
888.452	68.24
888.618	66.26
888.783	65.97
