Data from LC_216__Reflection_1.txt Node
Date: Thu Nov 19 13:05:49 EST 2015
User: robert
Spectrometer: USB4E03001
Autoset integration time: false
Trigger mode: 4
Integration Time (sec): 1.000000E-1
Scans to average: 15
Electric dark correction enabled: true
Nonlinearity correction enabled: false
Boxcar width: 5
Stray light correction enabled: false
XAxis mode: Wavelengths
Stop averaging: false
Number of Pixels in Spectrum: 3648
>>>>>Begin Spectral Data<<<<<
177.566	-97.16
177.785	-68.1
178.005	110.43
178.225	18.82
178.445	275.31
178.665	56400
178.885	48.58
179.105	-85.67
179.324	84.11
179.544	539.65
179.764	130.74
179.984	39.09
180.204	-36.87
180.423	-48.84
180.643	175.96
180.863	-289.02
181.083	29.56
181.302	-31.64
181.522	6.44
181.742	-358.49
181.961	189.38
182.181	10.55
182.401	9.67
182.621	10.89
182.84	100.16
183.06	343.32
183.279	326.67
183.499	100.65
183.719	28.61
183.938	39.46
184.158	17.06
184.377	160.6
184.597	128.57
184.816	830.46
185.036	4272.83
185.256	328.3
185.475	173.2
185.695	117.57
185.914	126.5
186.134	79.98
186.353	79.59
186.572	51.38
186.792	21.28
187.011	-386.03
187.231	-3.39
187.45	-84.07
187.67	-455.61
187.889	-9072.73
188.108	-155.02
188.328	900.79
188.547	82.23
188.766	47.72
188.986	58.97
189.205	-73.67
189.424	237.35
189.644	232.13
189.863	85.74
190.082	190.24
190.302	1061.15
190.521	-39.46
190.74	-261.03
190.959	-726.76
191.178	1888.14
191.398	-270.88
191.617	-106.41
191.836	-504.09
192.055	111.87
192.274	-8.97
192.494	-34.44
192.713	16.15
192.932	10.14
193.151	36.55
193.37	-5.54
193.589	84.18
193.808	38.34
194.027	17.18
194.246	-18.87
194.465	169.81
194.685	-18805
194.904	-243.84
195.123	-169.07
195.342	-97.95
195.561	-57.81
195.78	-103.06
195.999	-85.24
196.218	-202.64
196.436	-244.43
196.655	-114.79
196.874	35.21
197.093	101.28
197.312	174.6
197.531	313.64
197.75	632.68
197.969	-154.22
198.188	-207.4
198.407	-1507.72
198.625	170.85
198.844	199.61
199.063	502.63
199.282	320.74
199.501	-105.75
199.719	-103.33
199.938	-506.45
200.157	678.58
200.376	262.53
200.594	193.47
200.813	139.67
201.032	71.23
201.251	49.57
201.469	-57.27
201.688	-67.58
201.907	-12.01
202.125	-5.25
202.344	-16.6
202.563	-11.7
202.781	-26.36
203	-43.31
203.218	-42.66
203.437	-167.87
203.656	-44.67
203.874	22.43
204.093	55.23
204.311	59.19
204.53	34.75
204.748	12.73
204.967	-46.41
205.185	-10.99
205.404	-21.79
205.622	20.85
205.841	6.75
206.059	-29.09
206.278	-69.49
206.496	-63.79
206.715	-198.16
206.933	-233.41
207.151	442.58
207.37	442.34
207.588	1545.73
207.806	-385.8
208.025	-102.29
208.243	45.35
208.461	-69.3
208.68	-611.56
208.898	1022.75
209.116	574.92
209.335	1211.14
209.553	377.66
209.771	1455.15
209.989	-1030.67
210.208	-634.84
210.426	-333.56
210.644	-172.7
210.862	-77.18
211.081	-74.44
211.299	-22
211.517	-1.21
211.735	2.83
211.953	-25.33
212.171	92.6
212.39	110.39
212.608	-49.2
212.826	14.99
213.044	38.27
213.262	32.63
213.48	11.6
213.698	-0.85
213.916	5.54
214.134	-21.77
214.352	-39.99
214.57	568.02
214.788	-18.15
215.006	-102.55
215.224	235.26
215.442	51.03
215.66	105.82
215.878	-118.77
216.096	-1.57
216.314	17.16
216.532	40.96
216.75	29
216.968	38.76
217.185	13.49
217.403	19.8
217.621	26.02
217.839	-2.91
218.057	18.42
218.275	12.78
218.492	-46.28
218.71	10.36
218.928	16.16
219.146	16.05
219.363	-34.73
219.581	-31.86
219.799	-167.27
220.017	-53.25
220.234	-40.82
220.452	-92.59
220.67	-50.21
220.887	-45.86
221.105	-171.97
221.323	-195.05
221.54	-132.76
221.758	-30.37
221.976	6.04
222.193	13.69
222.411	4.59
222.629	32.09
222.846	32.18
223.064	36.54
223.281	32.92
223.499	23.06
223.716	17.99
223.934	32.77
224.151	45.42
224.369	27.84
224.586	26.21
224.804	23.39
225.021	23.87
225.239	36.81
225.456	26.64
225.674	35.55
225.891	44.22
226.108	42.12
226.326	27.37
226.543	18.73
226.76	11.67
226.978	12.49
227.195	19.71
227.413	16.58
227.63	12.98
227.847	15.76
228.064	14.91
228.282	15.81
228.499	14.21
228.716	18.63
228.934	17.26
229.151	18.72
229.368	17.91
229.585	17.8
229.802	17.29
230.02	14.35
230.237	9.75
230.454	11.4
230.671	8.52
230.888	9.61
231.105	8.4
231.323	5.61
231.54	4.84
231.757	2.57
231.974	-2.36
232.191	1.76
232.408	9.14
232.625	14.82
232.842	13.21
233.059	8.04
233.276	10.76
233.493	3.67
233.71	10.95
233.927	13.01
234.144	21.75
234.361	23.56
234.578	21.48
234.795	16.63
235.012	11.19
235.229	6.57
235.446	10.79
235.663	9.38
235.879	10.27
236.096	8.34
236.313	6.99
236.53	-0.17
236.747	3.3
236.964	3.92
237.181	4.16
237.397	5.9
237.614	7.45
237.831	8.52
238.048	5.03
238.264	3.92
238.481	8
238.698	5.65
238.915	3.11
239.131	-4.06
239.348	-8.66
239.565	-8.81
239.781	-2.61
239.998	1.35
240.215	4.42
240.431	8.1
240.648	13.93
240.865	10.86
241.081	15.03
241.298	15.08
241.514	16.21
241.731	16.92
241.947	16.89
242.164	16.15
242.38	15.32
242.597	15.68
242.814	15.11
243.03	13.05
243.246	15.09
243.463	12.61
243.679	14.4
243.896	14.71
244.112	13.25
244.329	12.02
244.545	11.44
244.762	10.53
244.978	10.02
245.194	11.63
245.411	11.95
245.627	10.87
245.843	12.28
246.06	11.79
246.276	11.96
246.492	13.42
246.709	14.49
246.925	14.48
247.141	14.29
247.357	14.44
247.574	13.89
247.79	13.85
248.006	13.4
248.222	12.5
248.439	11.72
248.655	10.21
248.871	10.67
249.087	9.63
249.303	9.86
249.519	8.94
249.736	6.42
249.952	4.97
250.168	3.94
250.384	4.16
250.6	7.36
250.816	8.9
251.032	11.18
251.248	10.25
251.464	9.02
251.68	6.57
251.896	5.41
252.112	6.57
252.328	6.01
252.544	7.53
252.76	7.26
252.976	4.34
253.192	4.04
253.408	2.62
253.624	2.09
253.84	3.84
254.056	6.72
254.272	8.79
254.487	10.14
254.703	10.6
254.919	9.79
255.135	10.35
255.351	9.38
255.567	7.06
255.782	6.12
255.998	6.77
256.214	7.17
256.43	5
256.646	6.83
256.861	3.9
257.077	6.85
257.293	7.09
257.508	5.51
257.724	7.2
257.94	7.59
258.155	10.08
258.371	9.5
258.587	9.31
258.802	7.73
259.018	7.39
259.234	8.2
259.449	6.85
259.665	6.36
259.88	7.27
260.096	6.71
260.312	7.14
260.527	6.83
260.743	6.42
260.958	6.32
261.174	7.31
261.389	6.7
261.605	6.24
261.82	6.41
262.036	6.85
262.251	6.27
262.466	6.95
262.682	7.05
262.897	6.95
263.113	7.47
263.328	8.9
263.543	9.86
263.759	11.01
263.974	10.56
264.189	10.46
264.405	10.29
264.62	10.24
264.835	10.31
265.051	10.95
265.266	13.02
265.481	10.48
265.696	9.31
265.912	8.03
266.127	7.66
266.342	9.08
266.557	10.07
266.773	9.91
266.988	9.24
267.203	8.9
267.418	7.42
267.633	6.52
267.848	8.76
268.064	8.45
268.279	8.28
268.494	9.23
268.709	8.83
268.924	8.94
269.139	9.86
269.354	10.37
269.569	11.77
269.784	11.38
269.999	11.12
270.214	10.65
270.429	11.09
270.644	14.04
270.859	13.61
271.074	14.18
271.289	13.99
271.504	13.06
271.719	13.08
271.934	11.9
272.149	12.42
272.363	11.8
272.578	11.68
272.793	11.21
273.008	9.33
273.223	9.24
273.438	7.74
273.653	6.71
273.867	6.5
274.082	5.69
274.297	7.17
274.512	7.11
274.726	8.16
274.941	8.01
275.156	7.98
275.371	7.97
275.585	7.55
275.8	7.96
276.015	8.19
276.229	8.97
276.444	8.5
276.659	9.18
276.873	9.62
277.088	8.57
277.302	9.28
277.517	9.6
277.732	10
277.946	11
278.161	12.1
278.375	13.69
278.59	12.63
278.804	14.93
279.019	13.19
279.233	12.74
279.448	11.7
279.662	9.7
279.877	8.6
280.091	9.04
280.306	8.91
280.52	7.59
280.735	5.36
280.949	4.87
281.163	6.12
281.378	5.45
281.592	6.02
281.806	6.5
282.021	8.89
282.235	9.26
282.449	7.57
282.664	7.04
282.878	8.23
283.092	8.82
283.307	9.67
283.521	8.28
283.735	9.3
283.949	8.98
284.164	9.46
284.378	8.47
284.592	7.85
284.806	7.97
285.02	7.45
285.234	6.1
285.449	6.71
285.663	7.15
285.877	6.64
286.091	6.66
286.305	7.31
286.519	6.94
286.733	6.61
286.947	8.38
287.161	8.63
287.375	9.78
287.589	11.36
287.803	10.96
288.017	11.23
288.231	11.47
288.445	9.6
288.659	9.15
288.873	10.14
289.087	10.73
289.301	9.45
289.515	9.64
289.729	9.46
289.943	8.57
290.157	8.82
290.371	7.74
290.584	7.32
290.798	8.34
291.012	8.1
291.226	7.6
291.44	8.08
291.654	8.32
291.867	6.82
292.081	6.15
292.295	6.31
292.509	4.43
292.722	3.96
292.936	4.92
293.15	6.8
293.364	6.59
293.577	6.58
293.791	5.53
294.005	5.34
294.218	5.36
294.432	4.77
294.645	5.51
294.859	6.74
295.073	7.65
295.286	7.97
295.5	5.98
295.713	4.78
295.927	5.9
296.14	6.01
296.354	7.23
296.568	8.69
296.781	8.99
296.994	7.32
297.208	7.34
297.421	7.85
297.635	6.57
297.848	7.59
298.062	8.82
298.275	7.77
298.489	7.34
298.702	6.64
298.915	6.33
299.129	7.34
299.342	9.19
299.555	9.61
299.769	8.93
299.982	10.65
300.195	10.95
300.409	11.26
300.622	12.41
300.835	13.14
301.048	13.32
301.262	13.9
301.475	12.79
301.688	12.24
301.901	12.22
302.115	12.32
302.328	11.68
302.541	10.51
302.754	10.47
302.967	9.62
303.18	10.07
303.393	10.92
303.607	10.08
303.82	9.61
304.033	10.7
304.246	11.67
304.459	12.59
304.672	12.14
304.885	12.5
305.098	13.3
305.311	12.78
305.524	12.55
305.737	12.51
305.95	13
306.163	13.13
306.376	11.13
306.589	10.93
306.802	11.2
307.015	12.06
307.228	11.95
307.44	9.84
307.653	9.88
307.866	9.7
308.079	8.27
308.292	8.07
308.505	8.93
308.718	9.79
308.93	9.15
309.143	8
309.356	7.43
309.569	7.92
309.781	8.53
309.994	8.37
310.207	7.67
310.42	8.28
310.632	8.45
310.845	6.98
311.058	7.44
311.27	7.17
311.483	7.43
311.696	7.39
311.908	7.82
312.121	8.7
312.333	9.35
312.546	9.89
312.759	9.88
312.971	9.23
313.184	11.15
313.396	10.62
313.609	10.6
313.821	10.68
314.034	11.7
314.246	11.25
314.459	10.49
314.671	11.22
314.884	10.78
315.096	10.76
315.309	11.05
315.521	10.2
315.733	10.31
315.946	9.98
316.158	10.13
316.371	9.15
316.583	7.78
316.795	8.06
317.008	6.59
317.22	6.89
317.432	6.45
317.644	7.46
317.857	7.83
318.069	8.76
318.281	9.34
318.494	8.3
318.706	9.29
318.918	10.55
319.13	10.92
319.342	11.81
319.555	11.52
319.767	12.29
319.979	11.85
320.191	12.61
320.403	10.58
320.615	9.25
320.827	10.07
321.039	8.88
321.252	8.6
321.464	8.05
321.676	8.32
321.888	8.41
322.1	8
322.312	7.88
322.524	8.25
322.736	8.28
322.948	8.67
323.16	8.72
323.372	9.1
323.584	7.93
323.796	7.83
324.007	7.39
324.219	8.1
324.431	8.09
324.643	7.75
324.855	7.08
325.067	7.59
325.279	8.4
325.491	8.42
325.702	8.23
325.914	8.85
326.126	9.4
326.338	9.47
326.55	8.88
326.761	9.01
326.973	8.91
327.185	8.4
327.396	9.44
327.608	9.84
327.82	8.74
328.032	8.87
328.243	8.56
328.455	7.63
328.666	7.53
328.878	7.68
329.09	7.16
329.301	7.03
329.513	7.1
329.725	6.68
329.936	6.8
330.148	6.78
330.359	7.3
330.571	6.78
330.782	8.61
330.994	8.91
331.205	8.41
331.417	8.09
331.628	7.74
331.84	7.29
332.051	5.63
332.262	4.93
332.474	5.37
332.685	4.23
332.897	5.3
333.108	3.62
333.319	4.38
333.531	6.11
333.742	6.3
333.953	6.97
334.165	7.88
334.376	9.59
334.587	9.31
334.799	9.14
335.01	9.53
335.221	9.91
335.432	9.43
335.644	9.11
335.855	7.95
336.066	8.24
336.277	7.95
336.488	6.94
336.7	6.19
336.911	6.76
337.122	6.63
337.333	6.74
337.544	6.31
337.755	6.82
337.966	6.73
338.177	6.44
338.388	7.14
338.599	7.05
338.811	7.51
339.022	6.77
339.233	6.32
339.444	6
339.655	6.37
339.866	5.46
340.076	4.55
340.287	3.93
340.498	4.37
340.709	3.73
340.92	3.65
341.131	4.2
341.342	4.72
341.553	4.67
341.764	5.19
341.975	4.56
342.185	5.44
342.396	5.98
342.607	6.26
342.818	6.86
343.029	6.01
343.239	6.22
343.45	5.62
343.661	6.06
343.872	6.14
344.082	5.93
344.293	6.29
344.504	6.75
344.714	7.09
344.925	7.15
345.136	6.18
345.346	6.81
345.557	7.28
345.768	7.29
345.978	6.81
346.189	7.47
346.399	7.81
346.61	7.87
346.821	7.64
347.031	7.97
347.242	7.49
347.452	8.01
347.663	7.39
347.873	7.14
348.084	7.68
348.294	8.4
348.504	7.29
348.715	7.07
348.925	7.16
349.136	6.35
349.346	5.48
349.557	5.77
349.767	4.97
349.977	5.32
350.188	5.49
350.398	5.02
350.608	4.63
350.819	4.91
351.029	5.14
351.239	4.85
351.449	5.25
351.66	5.29
351.87	4.56
352.08	4.75
352.29	4.76
352.501	4.48
352.711	5.09
352.921	4.88
353.131	5.25
353.341	5.28
353.552	5.47
353.762	5.36
353.972	6.16
354.182	7.09
354.392	8.26
354.602	8.72
354.812	8.51
355.022	7.15
355.232	7.43
355.442	7.24
355.652	6.93
355.862	6.44
356.072	6.94
356.282	6
356.492	5.49
356.702	4.52
356.912	4.71
357.122	4.97
357.332	5.73
357.542	6.02
357.752	5.87
357.962	6.27
358.171	6.84
358.381	6.65
358.591	6.67
358.801	7.46
359.011	7.31
359.221	7.44
359.43	7.86
359.64	7.83
359.85	7.58
360.06	7.22
360.269	7.07
360.479	6.86
360.689	7.08
360.899	6.88
361.108	6.36
361.318	6.71
361.528	5.99
361.737	5.7
361.947	5.91
362.156	5.85
362.366	6.4
362.576	6.54
362.785	6.81
362.995	6.92
363.204	7.02
363.414	7.32
363.623	6.93
363.833	7.24
364.042	6.85
364.252	6.74
364.461	6.8
364.671	6.76
364.88	6.64
365.09	6.47
365.299	6.57
365.509	7.25
365.718	7.03
365.927	6.74
366.137	6.95
366.346	6.86
366.555	6.72
366.765	6.4
366.974	6.67
367.183	6.62
367.393	6.32
367.602	5.48
367.811	4.95
368.021	4.26
368.23	5.02
368.439	4.51
368.648	4.87
368.857	4.96
369.067	5.33
369.276	4.83
369.485	4.38
369.694	3.55
369.903	3.46
370.112	3.62
370.321	3.59
370.531	3.07
370.74	3.14
370.949	2.94
371.158	2.88
371.367	2.26
371.576	2.61
371.785	2.66
371.994	3.16
372.203	3.49
372.412	3.74
372.621	4.18
372.83	4.22
373.039	4.36
373.248	4.59
373.457	4.32
373.666	4.94
373.874	4.3
374.083	4.43
374.292	4.53
374.501	4.62
374.71	4.47
374.919	4.68
375.128	5.33
375.336	5.61
375.545	5.52
375.754	6.22
375.963	6.23
376.171	6.47
376.38	6.94
376.589	6.92
376.798	6.83
377.006	7
377.215	7.02
377.424	6.56
377.632	6.57
377.841	6.2
378.05	6.18
378.258	6.12
378.467	6
378.675	5.37
378.884	5.12
379.093	5.17
379.301	5.03
379.51	4.76
379.718	4.49
379.927	3.97
380.135	4.17
380.344	3.79
380.552	3.66
380.761	4.02
380.969	4.42
381.177	4.56
381.386	4.38
381.594	4.24
381.803	3.88
382.011	4.39
382.219	4.52
382.428	4.43
382.636	4.57
382.845	4.6
383.053	4.78
383.261	4.63
383.469	4.89
383.678	4.87
383.886	4.72
384.094	5.3
384.302	4.91
384.511	5.07
384.719	5
384.927	4.9
385.135	4.76
385.343	4.29
385.552	4.17
385.76	4.2
385.968	4.43
386.176	4.15
386.384	3.95
386.592	4.13
386.8	4.02
387.008	4.12
387.216	3.97
387.424	3.82
387.633	4.11
387.841	4.17
388.049	4.01
388.257	3.48
388.465	3.87
388.672	4.02
388.88	4.17
389.088	4.2
389.296	4.02
389.504	3.71
389.712	4.06
389.92	3.68
390.128	3.75
390.336	3.49
390.544	3.8
390.751	3.86
390.959	3.73
391.167	3.61
391.375	3.48
391.583	3.84
391.79	4.08
391.998	4.15
392.206	4.27
392.414	4.15
392.621	4.1
392.829	4.17
393.037	4.08
393.244	4
393.452	3.95
393.66	4.03
393.867	4.12
394.075	4.3
394.283	4.24
394.49	4.27
394.698	4.3
394.905	4.82
395.113	4.77
395.32	4.9
395.528	4.98
395.735	5.11
395.943	5.26
396.15	4.83
396.358	4.79
396.565	4.79
396.773	4.82
396.98	4.62
397.188	4
397.395	3.98
397.602	3.74
397.81	3.77
398.017	3.9
398.225	3.65
398.432	3.72
398.639	3.42
398.847	3.22
399.054	3.3
399.261	3.51
399.468	3.79
399.676	3.72
399.883	3.9
400.09	3.8
400.297	3.66
400.505	3.72
400.712	4.04
400.919	4.28
401.126	4.6
401.333	4.41
401.54	4.56
401.748	4.54
401.955	4.61
402.162	4.44
402.369	4.32
402.576	4.15
402.783	3.85
402.99	3.89
403.197	3.89
403.404	3.59
403.611	3.72
403.818	3.6
404.025	3.78
404.232	3.62
404.439	3.69
404.646	3.83
404.853	4.03
405.06	4.13
405.267	4
405.474	3.97
405.681	4.05
405.887	4.12
406.094	4.23
406.301	4.2
406.508	4.49
406.715	4.57
406.922	4.51
407.128	4.37
407.335	4.48
407.542	4.42
407.749	4.12
407.955	4.32
408.162	4.25
408.369	4.23
408.575	3.99
408.782	3.84
408.989	3.68
409.195	3.45
409.402	3.45
409.609	3.75
409.815	3.84
410.022	3.94
410.228	3.68
410.435	3.69
410.642	3.45
410.848	3.27
411.055	3.14
411.261	3.24
411.468	3.4
411.674	3.48
411.881	3.15
412.087	2.8
412.294	2.98
412.5	2.79
412.706	2.79
412.913	2.97
413.119	3.2
413.326	3.5
413.532	3.6
413.738	3.7
413.945	3.46
414.151	3.75
414.357	4.18
414.564	4.16
414.77	4.17
414.976	3.94
415.182	4.14
415.389	3.94
415.595	4.07
415.801	3.83
416.007	3.76
416.214	3.99
416.42	3.75
416.626	3.46
416.832	3.38
417.038	3.58
417.244	3.81
417.45	3.62
417.657	3.77
417.863	3.6
418.069	3.63
418.275	3.75
418.481	3.79
418.687	3.87
418.893	3.9
419.099	3.93
419.305	3.95
419.511	3.78
419.717	3.73
419.923	3.73
420.129	3.54
420.335	3.62
420.541	3.51
420.746	3.4
420.952	3.31
421.158	3.35
421.364	3.29
421.57	3.12
421.776	3.15
421.982	3.26
422.187	3.22
422.393	3.31
422.599	3.29
422.805	3.38
423.01	3.35
423.216	3.37
423.422	3.44
423.628	3.51
423.833	3.63
424.039	3.71
424.245	3.6
424.45	3.58
424.656	3.5
424.862	3.4
425.067	3.41
425.273	3.31
425.478	3.37
425.684	3.29
425.889	3.2
426.095	3.19
426.301	3.09
426.506	3.11
426.712	3.13
426.917	3.21
427.123	3.18
427.328	3.02
427.533	3.27
427.739	3.21
427.944	3.23
428.15	3.27
428.355	3.08
428.561	2.95
428.766	2.8
428.971	2.83
429.177	2.94
429.382	3.24
429.587	3.38
429.793	3.27
429.998	3.19
430.203	3.05
430.408	3.04
430.614	3.17
430.819	3.34
431.024	3.46
431.229	3.5
431.434	3.47
431.64	3.24
431.845	3.11
432.05	3.14
432.255	3.17
432.46	3.32
432.665	3.13
432.87	3.19
433.076	3.22
433.281	3.13
433.486	2.97
433.691	2.98
433.896	2.9
434.101	2.83
434.306	2.62
434.511	2.5
434.716	2.39
434.921	2.62
435.126	2.61
435.331	2.38
435.535	2.28
435.74	2.42
435.945	2.28
436.15	2.34
436.355	2.46
436.56	2.76
436.765	2.9
436.97	2.82
437.174	2.88
437.379	2.91
437.584	2.85
437.789	3.06
437.993	3.05
438.198	3.16
438.403	3.2
438.608	3.2
438.812	3.19
439.017	3.12
439.222	3.32
439.426	3.2
439.631	3.17
439.836	3.32
440.04	3.35
440.245	3.36
440.45	3.29
440.654	3.31
440.859	3.31
441.063	3.23
441.268	3.48
441.472	3.34
441.677	3.46
441.881	3.5
442.086	3.65
442.29	3.65
442.495	3.67
442.699	3.69
442.904	3.61
443.108	3.59
443.312	3.45
443.517	3.21
443.721	3.24
443.925	3.01
444.13	2.94
444.334	2.9
444.538	2.81
444.743	2.9
444.947	2.92
445.151	2.98
445.356	3.05
445.56	3.15
445.764	3.13
445.968	3.13
446.173	3.22
446.377	3.18
446.581	3.15
446.785	3.19
446.989	3.09
447.193	3.09
447.398	3.05
447.602	3
447.806	3.05
448.01	3.09
448.214	3.1
448.418	3.14
448.622	3.26
448.826	3.21
449.03	3.19
449.234	3.13
449.438	3.26
449.642	3.27
449.846	3.3
450.05	3.33
450.254	3.26
450.458	3.18
450.662	3.07
450.866	2.91
451.069	3.07
451.273	3.1
451.477	3.21
451.681	3.05
451.885	3.11
452.089	3.23
452.292	3.07
452.496	3.14
452.7	3.35
452.904	3.35
453.107	3.49
453.311	3.35
453.515	3.38
453.719	3.35
453.922	3.41
454.126	3.28
454.33	3.29
454.533	3.5
454.737	3.38
454.94	3.28
455.144	3.23
455.348	3.15
455.551	3.13
455.755	3.13
455.958	3.17
456.162	3.21
456.365	3.29
456.569	3.19
456.772	3.06
456.976	3.1
457.179	3.13
457.383	3.24
457.586	3.08
457.79	3.08
457.993	3.1
458.196	3.12
458.4	3.04
458.603	3.06
458.807	2.92
459.01	2.97
459.213	3
459.417	3.02
459.62	2.97
459.823	2.95
460.026	2.94
460.23	2.93
460.433	2.89
460.636	2.77
460.839	2.77
461.042	2.72
461.246	2.5
461.449	2.47
461.652	2.44
461.855	2.39
462.058	2.42
462.261	2.27
462.464	2.17
462.668	2.07
462.871	2.12
463.074	2.04
463.277	2.23
463.48	2.45
463.683	2.48
463.886	2.16
464.089	2.4
464.292	2.41
464.495	2.5
464.698	2.53
464.901	2.73
465.104	3.02
465.306	3.15
465.509	3.02
465.712	2.84
465.915	2.72
466.118	2.91
466.321	2.64
466.524	2.82
466.726	2.76
466.929	2.73
467.132	2.47
467.335	2.26
467.538	2.11
467.74	2.13
467.943	2.19
468.146	2.34
468.348	2.36
468.551	2.35
468.754	2.25
468.956	2.46
469.159	2.57
469.362	2.63
469.564	2.65
469.767	2.83
469.969	2.89
470.172	2.98
470.375	2.92
470.577	2.87
470.78	3.1
470.982	2.98
471.185	2.85
471.387	2.61
471.59	2.59
471.792	2.53
471.995	2.39
472.197	2.21
472.399	2.12
472.602	2.14
472.804	2.1
473.007	1.89
473.209	1.83
473.411	1.94
473.614	2.05
473.816	2.1
474.018	2.25
474.22	2.33
474.423	2.44
474.625	2.6
474.827	2.58
475.03	2.64
475.232	2.8
475.434	3.1
475.636	2.91
475.838	2.97
476.04	2.99
476.243	2.98
476.445	2.74
476.647	2.91
476.849	2.92
477.051	2.95
477.253	3.11
477.455	3.08
477.657	3.06
477.859	3.22
478.061	3.24
478.263	3.3
478.465	3.18
478.667	3.4
478.869	3.44
479.071	3.36
479.273	3.28
479.475	3.23
479.677	3.15
479.879	3.14
480.081	3.15
480.283	3.02
480.485	2.89
480.686	3.02
480.888	3.05
481.09	3.01
481.292	2.95
481.494	3.02
481.695	3.03
481.897	3.06
482.099	3.01
482.301	2.87
482.502	2.89
482.704	2.92
482.906	2.95
483.107	2.89
483.309	2.77
483.511	2.82
483.712	2.8
483.914	2.74
484.115	2.74
484.317	2.76
484.519	2.77
484.72	2.78
484.922	2.77
485.123	2.74
485.325	2.77
485.526	2.82
485.728	2.84
485.929	2.83
486.131	2.84
486.332	2.87
486.534	2.75
486.735	2.78
486.936	2.8
487.138	2.8
487.339	2.74
487.541	2.77
487.742	2.78
487.943	2.74
488.144	2.74
488.346	2.81
488.547	2.8
488.748	2.86
488.95	2.81
489.151	2.8
489.352	2.77
489.553	2.87
489.755	2.8
489.956	2.85
490.157	2.88
490.358	2.93
490.559	2.83
490.76	2.83
490.961	2.86
491.163	2.97
491.364	2.98
491.565	2.94
491.766	2.9
491.967	2.93
492.168	2.84
492.369	2.78
492.57	2.8
492.771	2.78
492.972	2.79
493.173	2.89
493.374	2.92
493.575	2.89
493.776	2.97
493.976	2.91
494.177	2.94
494.378	3.04
494.579	3.05
494.78	2.85
494.981	2.88
495.182	2.91
495.382	2.91
495.583	2.78
495.784	2.87
495.985	2.93
496.185	2.98
496.386	2.87
496.587	2.82
496.788	2.83
496.988	3.08
497.189	3.18
497.39	3.17
497.59	2.95
497.791	2.98
497.992	2.94
498.192	3.03
498.393	3.07
498.593	3.11
498.794	3.15
498.994	3.21
499.195	3.2
499.395	3.15
499.596	3.26
499.796	3.21
499.997	3.22
500.197	3.21
500.398	3.21
500.598	3.2
500.799	3.17
500.999	3.1
501.199	3.2
501.4	3.13
501.6	3.13
501.801	2.98
502.001	3.06
502.201	3.02
502.402	3.08
502.602	2.86
502.802	2.75
503.002	2.85
503.203	2.86
503.403	2.71
503.603	2.86
503.803	2.82
504.003	2.88
504.204	3.05
504.404	3.2
504.604	3.14
504.804	3.18
505.004	3.37
505.204	3.38
505.404	3.45
505.604	3.53
505.804	3.45
506.005	3.56
506.205	3.6
506.405	3.56
506.605	3.5
506.805	3.5
507.005	3.68
507.204	3.56
507.404	3.45
507.604	3.48
507.804	3.55
508.004	3.5
508.204	3.39
508.404	3.38
508.604	3.38
508.804	3.3
509.003	3.31
509.203	3.18
509.403	3.25
509.603	3.2
509.803	3.18
510.002	3.12
510.202	3.16
510.402	3.19
510.602	3.21
510.801	3.23
511.001	3.25
511.201	3.21
511.4	3.28
511.6	3.29
511.8	3.24
511.999	3.36
512.199	3.41
512.398	3.3
512.598	3.36
512.797	3.35
512.997	3.32
513.197	3.26
513.396	3.3
513.596	3.28
513.795	3.27
513.994	3.56
514.194	3.5
514.393	3.46
514.593	3.59
514.792	3.66
514.992	3.69
515.191	3.57
515.39	3.7
515.59	3.83
515.789	3.94
515.988	4
516.188	3.94
516.387	3.94
516.586	4
516.786	4.04
516.985	3.92
517.184	3.86
517.383	3.99
517.582	4.04
517.782	3.94
517.981	3.79
518.18	3.67
518.379	3.7
518.578	3.59
518.777	3.53
518.976	3.51
519.176	3.55
519.375	3.57
519.574	3.62
519.773	3.55
519.972	3.63
520.171	3.65
520.37	3.83
520.569	3.79
520.768	3.8
520.967	3.8
521.166	3.73
521.365	3.69
521.564	3.78
521.762	3.8
521.961	3.81
522.16	3.75
522.359	3.86
522.558	3.66
522.757	3.72
522.956	3.93
523.154	4.07
523.353	4.13
523.552	4.24
523.751	4.32
523.949	4.13
524.148	4.21
524.347	4.19
524.546	4.22
524.744	4.23
524.943	4.27
525.142	4.23
525.34	4.23
525.539	4.24
525.737	4.14
525.936	4.21
526.135	4.43
526.333	4.47
526.532	4.45
526.73	4.47
526.929	4.6
527.127	4.56
527.326	4.61
527.524	4.66
527.723	4.74
527.921	4.79
528.12	4.69
528.318	4.6
528.516	4.57
528.715	4.6
528.913	4.61
529.112	4.59
529.31	4.63
529.508	4.61
529.707	4.64
529.905	4.6
530.103	4.64
530.301	4.66
530.5	4.69
530.698	4.73
530.896	4.77
531.094	4.78
531.293	4.87
531.491	4.85
531.689	4.85
531.887	4.77
532.085	4.81
532.283	4.77
532.481	4.77
532.68	4.87
532.878	4.9
533.076	4.95
533.274	4.99
533.472	4.97
533.67	4.97
533.868	5.05
534.066	5.09
534.264	5.17
534.462	5.23
534.66	5.26
534.858	5.2
535.056	5.25
535.253	5.28
535.451	5.32
535.649	5.29
535.847	5.37
536.045	5.42
536.243	5.54
536.441	5.59
536.638	5.64
536.836	5.71
537.034	5.87
537.232	5.82
537.43	5.8
537.627	5.84
537.825	5.95
538.023	6.04
538.22	6.05
538.418	6.08
538.616	5.97
538.813	6.09
539.011	6.12
539.209	6.09
539.406	6.19
539.604	6.22
539.801	6.17
539.999	6.14
540.196	6.22
540.394	6.27
540.591	6.28
540.789	6.46
540.986	6.46
541.184	6.54
541.381	6.62
541.579	6.66
541.776	6.77
541.974	6.77
542.171	6.84
542.368	6.94
542.566	6.98
542.763	6.98
542.96	6.96
543.158	6.98
543.355	7.01
543.552	7.01
543.75	7.06
543.947	7.07
544.144	7.23
544.341	7.27
544.539	7.15
544.736	7.21
544.933	7.21
545.13	7.33
545.327	7.34
545.524	7.47
545.722	7.58
545.919	7.55
546.116	7.5
546.313	7.42
546.51	7.45
546.707	7.58
546.904	7.61
547.101	7.81
547.298	7.82
547.495	7.93
547.692	8
547.889	7.96
548.086	7.91
548.283	7.98
548.48	8.12
548.677	8.27
548.874	8.41
549.07	8.45
549.267	8.39
549.464	8.44
549.661	8.51
549.858	8.41
550.055	8.39
550.251	8.58
550.448	8.84
550.645	8.85
550.842	8.87
551.038	8.92
551.235	9.24
551.432	9.27
551.628	9.46
551.825	9.6
552.022	9.69
552.218	9.86
552.415	10.25
552.612	10.31
552.808	10.33
553.005	10.37
553.201	10.33
553.398	10.18
553.594	10.34
553.791	10.24
553.987	10.06
554.184	10.16
554.38	10.3
554.577	10.15
554.773	10.09
554.97	10.29
555.166	10.54
555.362	10.68
555.559	10.7
555.755	10.74
555.952	10.81
556.148	11.09
556.344	11.28
556.541	11.16
556.737	11.23
556.933	11.38
557.129	11.31
557.326	11.28
557.522	11.27
557.718	11.37
557.914	11.5
558.11	11.8
558.307	11.73
558.503	11.77
558.699	11.91
558.895	11.97
559.091	12.1
559.287	12.38
559.483	12.41
559.679	12.42
559.876	12.68
560.072	12.65
560.268	12.53
560.464	12.66
560.66	12.68
560.856	12.77
561.052	12.84
561.247	12.86
561.443	12.86
561.639	12.91
561.835	12.93
562.031	13.09
562.227	13.24
562.423	13.35
562.619	13.52
562.815	13.65
563.01	13.71
563.206	14.03
563.402	14.15
563.598	14.28
563.793	14.56
563.989	14.77
564.185	14.59
564.381	14.79
564.576	14.86
564.772	14.89
564.968	14.89
565.163	15.09
565.359	15.08
565.555	15.31
565.75	15.45
565.946	15.5
566.141	15.66
566.337	15.83
566.532	15.77
566.728	15.89
566.923	16.05
567.119	16.09
567.314	16.26
567.51	16.32
567.705	16.26
567.901	16.37
568.096	16.38
568.292	16.48
568.487	16.53
568.682	16.82
568.878	16.83
569.073	16.94
569.268	17.13
569.464	17.13
569.659	17.32
569.854	17.47
570.05	17.46
570.245	17.55
570.44	17.6
570.635	17.76
570.831	17.78
571.026	17.96
571.221	18.14
571.416	18.23
571.611	18.21
571.806	18.11
572.002	18.18
572.197	18.33
572.392	18.39
572.587	18.25
572.782	18.39
572.977	18.42
573.172	18.51
573.367	18.4
573.562	18.38
573.757	18.62
573.952	18.81
574.147	18.84
574.342	18.92
574.537	19.08
574.732	19.35
574.927	19.24
575.121	19.34
575.316	19.43
575.511	19.72
575.706	19.8
575.901	19.69
576.096	19.73
576.29	19.81
576.485	19.95
576.68	19.86
576.875	19.83
577.069	19.96
577.264	19.93
577.459	19.94
577.654	19.72
577.848	19.75
578.043	19.82
578.238	20.03
578.432	19.98
578.627	19.95
578.821	20.01
579.016	20.18
579.21	20.28
579.405	20.34
579.6	20.35
579.794	20.39
579.989	20.54
580.183	20.74
580.378	20.62
580.572	20.8
580.766	21.05
580.961	21.2
581.155	21.33
581.35	21.55
581.544	21.75
581.738	21.84
581.933	21.9
582.127	21.96
582.321	21.92
582.516	22
582.71	21.71
582.904	21.44
583.099	21.43
583.293	21.46
583.487	21.28
583.681	21.24
583.875	21.15
584.07	21.22
584.264	21.1
584.458	21.26
584.652	21.35
584.846	21.55
585.04	21.52
585.234	21.64
585.428	21.6
585.623	21.74
585.817	21.88
586.011	22
586.205	22.01
586.399	22.16
586.593	22.15
586.787	22.22
586.981	22.53
587.174	22.69
587.368	22.78
587.562	22.85
587.756	22.74
587.95	22.9
588.144	22.99
588.338	23.35
588.532	23.55
588.725	23.95
588.919	23.93
589.113	23.88
589.307	24.03
589.501	24.01
589.694	24.07
589.888	24.09
590.082	24.01
590.275	23.87
590.469	23.8
590.663	23.91
590.856	23.59
591.05	23.49
591.244	23.74
591.437	23.69
591.631	23.66
591.824	23.54
592.018	23.8
592.212	23.92
592.405	24.18
592.599	24.23
592.792	24.13
592.986	24.16
593.179	24.28
593.372	24.19
593.566	24.1
593.759	24.43
593.953	24.61
594.146	24.49
594.339	24.36
594.533	24.39
594.726	24.26
594.92	24.37
595.113	24.3
595.306	24.52
595.499	24.33
595.693	24.52
595.886	24.33
596.079	24.4
596.272	24.44
596.466	24.57
596.659	24.58
596.852	24.93
597.045	25.08
597.238	25.29
597.431	25.29
597.624	25.55
597.818	25.61
598.011	25.81
598.204	25.88
598.397	26.02
598.59	26.11
598.783	26.18
598.976	25.86
599.169	25.85
599.362	25.77
599.555	25.88
599.748	25.92
599.941	25.88
600.134	25.99
600.326	25.97
600.519	26.26
600.712	26.4
600.905	26.38
601.098	26.71
601.291	26.68
601.483	26.67
601.676	26.59
601.869	26.62
602.062	26.73
602.255	26.52
602.447	26.57
602.64	26.41
602.833	26.25
603.025	26.13
603.218	26.09
603.411	25.97
603.603	26.02
603.796	25.99
603.989	25.88
604.181	25.84
604.374	25.87
604.566	25.83
604.759	25.83
604.951	25.85
605.144	26.12
605.336	26.09
605.529	26.3
605.721	26.24
605.914	26.37
606.106	26.4
606.299	26.68
606.491	26.74
606.683	26.77
606.876	26.95
607.068	27.08
607.26	26.9
607.453	27.08
607.645	27.02
607.837	27.25
608.03	27.33
608.222	27.36
608.414	27.17
608.606	27.17
608.799	27.45
608.991	27.15
609.183	27.02
609.375	27.16
609.567	27.16
609.759	27.12
609.952	27.19
610.144	27.2
610.336	27.27
610.528	27.23
610.72	27.42
610.912	27.36
611.104	27.58
611.296	27.82
611.488	27.88
611.68	27.88
611.872	27.95
612.064	28.17
612.256	28.09
612.448	28.23
612.64	28.31
612.832	28.28
613.023	28.14
613.215	28.11
613.407	27.98
613.599	28.04
613.791	27.93
613.983	28.11
614.174	27.74
614.366	27.9
614.558	27.7
614.75	27.83
614.941	27.9
615.133	28.09
615.325	28.14
615.516	28.32
615.708	28.09
615.9	28.13
616.091	28.06
616.283	28.01
616.475	28.13
616.666	28.54
616.858	28.44
617.049	28.49
617.241	28.5
617.432	28.32
617.624	28.28
617.815	28.55
618.007	28.75
618.198	28.6
618.39	28.69
618.581	28.46
618.773	28.14
618.964	28.17
619.155	28.15
619.347	27.83
619.538	27.94
619.729	27.73
619.921	27.93
620.112	28.1
620.303	27.99
620.494	28.26
620.686	28.21
620.877	28.18
621.068	28.26
621.259	28.33
621.451	28.84
621.642	28.93
621.833	29.01
622.024	28.99
622.215	28.64
622.406	29.12
622.597	28.71
622.788	28.86
622.98	28.95
623.171	28.95
623.362	28.92
623.553	28.71
623.744	28.54
623.935	28.66
624.126	28.43
624.317	29.06
624.508	28.86
624.698	29.4
624.889	29.42
625.08	29.7
625.271	29.87
625.462	29.98
625.653	30.05
625.844	30.21
626.034	30.07
626.225	30.33
626.416	30.07
626.607	30.16
626.798	29.98
626.988	29.98
627.179	29.94
627.37	29.77
627.56	29.68
627.751	29.52
627.942	29.76
628.132	29.99
628.323	29.91
628.514	29.81
628.704	29.57
628.895	29.57
629.085	29.63
629.276	29.54
629.466	29.52
629.657	29.36
629.847	29.66
630.038	29.4
630.228	29.53
630.419	29.41
630.609	29.31
630.8	29.61
630.99	29.62
631.181	29.54
631.371	29.68
631.561	29.7
631.752	29.74
631.942	29.67
632.132	29.73
632.323	29.76
632.513	29.96
632.703	29.75
632.893	29.57
633.084	29.75
633.274	29.87
633.464	29.73
633.654	30.04
633.844	30.1
634.034	29.92
634.225	30.07
634.415	29.96
634.605	30.06
634.795	30.41
634.985	30.63
635.175	30.51
635.365	30.25
635.555	30.43
635.745	30.28
635.935	30.19
636.125	30.42
636.315	30.56
636.505	30.6
636.695	30.42
636.885	30.59
637.075	30.77
637.265	30.85
637.455	31.17
637.644	31.29
637.834	31.4
638.024	31.53
638.214	31.69
638.404	31.39
638.593	31.68
638.783	31.74
638.973	31.72
639.163	31.46
639.352	31.47
639.542	31.85
639.732	31.72
639.921	31.7
640.111	31.77
640.301	31.57
640.49	31.84
640.68	31.4
640.87	31.3
641.059	31.56
641.249	31.95
641.438	31.87
641.628	31.4
641.817	31.65
642.007	31.94
642.196	31.93
642.386	32.01
642.575	31.93
642.764	31.84
642.954	31.76
643.143	31.55
643.333	31.3
643.522	31.29
643.711	31.62
643.901	31.51
644.09	31.33
644.279	31.53
644.469	31.73
644.658	31.61
644.847	31.95
645.036	32.02
645.226	32.04
645.415	31.96
645.604	31.88
645.793	31.82
645.982	31.81
646.171	31.59
646.361	31.29
646.55	31.32
646.739	31.54
646.928	31.35
647.117	31.45
647.306	31.5
647.495	31.2
647.684	31.4
647.873	31.1
648.062	31.01
648.251	31.15
648.44	31.31
648.629	31.06
648.818	31.07
649.007	31.28
649.196	31.61
649.384	31.42
649.573	31.64
649.762	31.79
649.951	32.02
650.14	32.63
650.328	32.7
650.517	33.02
650.706	33.21
650.895	33.02
651.083	33.04
651.272	32.89
651.461	33.3
651.65	33.31
651.838	33.62
652.027	33.47
652.216	33.02
652.404	32.97
652.593	32.91
652.781	33.13
652.97	33.41
653.158	33.29
653.347	33.22
653.535	32.93
653.724	33.43
653.912	33.33
654.101	33.47
654.289	33.29
654.478	33.75
654.666	33.71
654.855	33.13
655.043	33.21
655.231	33.12
655.42	33.22
655.608	33.06
655.796	32.62
655.985	32.47
656.173	32.34
656.361	32.56
656.55	32.22
656.738	32.41
656.926	32.63
657.114	32.56
657.302	32.83
657.491	32.98
657.679	33.13
657.867	33.15
658.055	33.28
658.243	33.33
658.431	33.57
658.619	33.68
658.807	33.63
658.996	33.82
659.184	33.94
659.372	33.73
659.56	33.63
659.748	33.57
659.936	33.94
660.124	33.41
660.311	33.44
660.499	33.17
660.687	33.01
660.875	32.92
661.063	32.78
661.251	32.8
661.439	33.08
661.627	33.21
661.814	33.44
662.002	33.19
662.19	33.74
662.378	34.14
662.565	34.26
662.753	34.34
662.941	33.98
663.129	33.98
663.316	33.59
663.504	33.32
663.692	33.35
663.879	33.16
664.067	33.19
664.254	33.23
664.442	32.93
664.63	32.78
664.817	32.7
665.005	33.01
665.192	32.49
665.38	32.85
665.567	33.15
665.755	33.02
665.942	33.34
666.13	33.36
666.317	32.81
666.504	33.1
666.692	32.95
666.879	32.93
667.067	33.14
667.254	33.9
667.441	33.38
667.629	33.42
667.816	33.32
668.003	33.05
668.19	33.24
668.378	33.4
668.565	33.2
668.752	33.45
668.939	33.91
669.127	33.91
669.314	33.76
669.501	34.12
669.688	34.24
669.875	34.02
670.062	34.37
670.249	33.95
670.436	34.07
670.623	34.1
670.81	34.46
670.997	34.07
671.184	34.12
671.371	34.02
671.558	34.41
671.745	34.14
671.932	34.2
672.119	33.99
672.306	34.32
672.493	34.43
672.68	34.45
672.867	33.62
673.054	33.65
673.24	33.52
673.427	33.73
673.614	33.29
673.801	33.19
673.988	33.25
674.174	33.43
674.361	33.41
674.548	33.13
674.734	32.61
674.921	33.43
675.108	33.51
675.294	33.77
675.481	33.9
675.668	34.44
675.854	34.92
676.041	35.21
676.227	34.98
676.414	34.95
676.601	35.31
676.787	35.71
676.974	35.89
677.16	36.19
677.347	36.3
677.533	36.16
677.719	35.99
677.906	35.39
678.092	35.61
678.279	35.66
678.465	35.57
678.651	35.39
678.838	35.61
679.024	35.03
679.21	34.65
679.397	34.17
679.583	34.17
679.769	34.17
679.955	34.5
680.142	34.09
680.328	34.21
680.514	34.54
680.7	34.64
680.886	34.75
681.073	35.06
681.259	34.96
681.445	35.18
681.631	35.5
681.817	35.23
682.003	35.5
682.189	35.44
682.375	35.36
682.561	35.33
682.747	35.65
682.933	35.6
683.119	35.07
683.305	35.57
683.491	35.72
683.677	35.53
683.863	35.7
684.049	35.34
684.235	35.43
684.42	35.6
684.606	35.31
684.792	34.81
684.978	34.61
685.164	35.21
685.349	35.1
685.535	34.99
685.721	35.04
685.907	35.27
686.092	35.53
686.278	35.88
686.464	35.65
686.649	35.95
686.835	36.35
687.021	36.36
687.206	36.45
687.392	36.09
687.577	36.15
687.763	36.31
687.948	35.94
688.134	35.44
688.319	35.38
688.505	35.83
688.69	35.7
688.876	36.05
689.061	35.74
689.247	35.89
689.432	36.4
689.618	36.38
689.803	35.98
689.988	36.79
690.174	37.71
690.359	37.88
690.544	37.71
690.73	37.72
690.915	37.25
691.1	37.66
691.285	37.27
691.471	36.74
691.656	37.15
691.841	37.5
692.026	36.54
692.211	36.09
692.396	36.62
692.582	36.39
692.767	36.51
692.952	37.04
693.137	36.8
693.322	37.33
693.507	37.58
693.692	37.25
693.877	37
694.062	37.56
694.247	37.43
694.432	36.98
694.617	37.17
694.802	37.9
694.987	37.16
695.172	37.74
695.357	37.06
695.541	37.2
695.726	37.07
695.911	36.97
696.096	36.49
696.281	36.46
696.466	36.34
696.65	36.26
696.835	35.5
697.02	35.69
697.204	35.76
697.389	35.8
697.574	35.82
697.759	35.88
697.943	35.98
698.128	36.38
698.312	36.45
698.497	36.1
698.682	36.12
698.866	36.41
699.051	36.37
699.235	36.29
699.42	36.38
699.604	36.05
699.789	36.14
699.973	35.81
700.158	35.75
700.342	35.76
700.527	36.5
700.711	36.79
700.895	36.39
701.08	36.58
701.264	36.62
701.448	36.89
701.633	37.34
701.817	37.41
702.001	38.37
702.186	38.25
702.37	38.44
702.554	37.5
702.738	36.85
702.923	37.24
703.107	37.11
703.291	36.61
703.475	36.42
703.659	35.77
703.843	36.05
704.027	35.13
704.212	34.93
704.396	34.67
704.58	35.64
704.764	35.8
704.948	35.63
705.132	35.83
705.316	36.21
705.5	36.3
705.684	36.66
705.868	36.3
706.052	36.74
706.235	37.53
706.419	37.64
706.603	37.35
706.787	38.19
706.971	38.12
707.155	37.9
707.339	38.06
707.522	38.17
707.706	39.01
707.89	38.64
708.074	38.52
708.257	37.88
708.441	37.93
708.625	37.04
708.808	36.36
708.992	36.21
709.176	36.55
709.359	36.61
709.543	36.91
709.727	36.52
709.91	36.69
710.094	36.72
710.277	36.82
710.461	36.48
710.644	37.09
710.828	37.12
711.011	37.45
711.195	36.69
711.378	36.81
711.562	35.94
711.745	35.97
711.928	36.16
712.112	36.53
712.295	36.33
712.478	36.77
712.662	37.64
712.845	38.04
713.028	38.12
713.212	38.97
713.395	38.83
713.578	39.06
713.761	38.92
713.945	39.36
714.128	39.09
714.311	39.32
714.494	38.83
714.677	37.66
714.86	37.39
715.043	36.99
715.227	36.35
715.41	36.14
715.593	36.33
715.776	36.47
715.959	36.36
716.142	35.65
716.325	35.74
716.508	36.41
716.691	36.78
716.874	37.13
717.057	37.21
717.239	37.94
717.422	37.94
717.605	38.33
717.788	38.28
717.971	37.77
718.154	38.85
718.337	38.18
718.519	37.86
718.702	37.09
718.885	36.78
719.068	37.04
719.25	36.56
719.433	36.24
719.616	35.91
719.798	35.43
719.981	36.16
720.164	35.8
720.346	36.36
720.529	36.31
720.712	36.47
720.894	36.69
721.077	36.34
721.259	36.46
721.442	37.02
721.624	36.7
721.807	37.61
721.989	37.09
722.172	37.33
722.354	37.41
722.537	37.8
722.719	38.42
722.901	38.12
723.084	38.22
723.266	38.55
723.448	38.47
723.631	38.78
723.813	39.15
723.995	39.51
724.178	40.16
724.36	40.48
724.542	39.95
724.724	40.06
724.907	39.8
725.089	40.22
725.271	40.59
725.453	40.57
725.635	40.28
725.817	39.93
725.999	40.12
726.181	39.75
726.364	39.65
726.546	38.83
726.728	38.83
726.91	39.54
727.092	39.14
727.274	38.79
727.456	39.16
727.638	38.92
727.819	38.21
728.001	37.62
728.183	37.16
728.365	37.22
728.547	38.81
728.729	38.96
728.911	38.67
729.093	38.8
729.274	38.27
729.456	38.67
729.638	39.81
729.82	40.37
730.001	40.47
730.183	40.85
730.365	40.56
730.546	40.18
730.728	40.42
730.91	39.9
731.091	40.13
731.273	40.44
731.455	39.72
731.636	38.77
731.818	38.83
731.999	39.57
732.181	39.42
732.362	39.6
732.544	39.26
732.725	39.56
732.907	40.33
733.088	40.42
733.27	40.86
733.451	40.19
733.633	40.51
733.814	40.98
733.995	39.54
734.177	39.96
734.358	39.63
734.539	39.9
734.721	39.17
734.902	38.93
735.083	38.45
735.264	38.11
735.446	40.01
735.627	39.21
735.808	38.02
735.989	38.69
736.17	37.66
736.351	37.83
736.533	37.62
736.714	37.72
736.895	37.43
737.076	37.15
737.257	37.45
737.438	35.81
737.619	37.03
737.8	36.34
737.981	36.69
738.162	37.34
738.343	37.46
738.524	37.57
738.705	38.08
738.886	38.47
739.067	38.85
739.247	38.89
739.428	39.21
739.609	39.44
739.79	41.08
739.971	40.66
740.151	41.16
740.332	41.54
740.513	41.05
740.694	40.76
740.874	40.93
741.055	40.94
741.236	40.51
741.417	40.51
741.597	39.38
741.778	38.86
741.958	38.96
742.139	38.43
742.32	37.46
742.5	38.35
742.681	38.17
742.861	38.24
743.042	38.15
743.222	38.44
743.403	38.47
743.583	38.38
743.764	38.72
743.944	39.06
744.124	39.1
744.305	39.53
744.485	39.47
744.666	39.72
744.846	38.29
745.026	38.32
745.207	38.48
745.387	38.56
745.567	39.97
745.747	38.87
745.928	39.22
746.108	39.02
746.288	39.72
746.468	40.28
746.648	39.5
746.829	40.78
747.009	41.18
747.189	40.29
747.369	40.34
747.549	38.93
747.729	39.79
747.909	39.89
748.089	40.25
748.269	39.21
748.449	38.64
748.629	39.42
748.809	39.86
748.989	40.25
749.169	40.18
749.349	40.51
749.529	42.03
749.709	42.07
749.889	41.81
750.068	42.09
750.248	42.51
750.428	42.14
750.608	42.37
750.788	41.97
750.967	41.65
751.147	42.09
751.327	41.71
751.507	40.86
751.686	41.04
751.866	41.37
752.046	41.14
752.225	41.35
752.405	41.61
752.585	41.37
752.764	41.22
752.944	40.25
753.123	40.46
753.303	40.83
753.482	41.01
753.662	40.71
753.841	40.73
754.021	41.13
754.2	40.76
754.38	40.73
754.559	40.48
754.739	40.42
754.918	40.81
755.097	40.72
755.277	41.27
755.456	40.99
755.635	40.78
755.815	40.16
755.994	39.45
756.173	39.19
756.352	38.44
756.532	37.89
756.711	37.13
756.89	37.09
757.069	36.31
757.248	35.98
757.427	36.53
757.607	36.42
757.786	36.73
757.965	36.85
758.144	37.62
758.323	38.39
758.502	39.35
758.681	40.99
758.86	41.83
759.039	42.21
759.218	42.13
759.397	42.21
759.576	42.61
759.755	41.81
759.934	41.94
760.113	42.03
760.291	42.49
760.47	42.48
760.649	41.66
760.828	41.3
761.007	41.42
761.186	41.84
761.364	41.49
761.543	41.1
761.722	42.33
761.901	42.5
762.079	42.38
762.258	41.23
762.437	41.79
762.615	41.91
762.794	41.85
762.972	41.91
763.151	41.6
763.33	41.22
763.508	42.1
763.687	41.99
763.865	40.95
764.044	41.02
764.222	41.68
764.401	41.56
764.579	41.61
764.758	41.5
764.936	41.26
765.114	40.9
765.293	41.94
765.471	42.08
765.65	41.14
765.828	42
766.006	41.81
766.184	41.86
766.363	41.01
766.541	40
766.719	40.54
766.898	40.53
767.076	40.59
767.254	39.3
767.432	37.71
767.61	38.11
767.788	37.68
767.967	37.7
768.145	37.01
768.323	36.71
768.501	38.49
768.679	38.72
768.857	38.26
769.035	39.06
769.213	38.53
769.391	38.95
769.569	40.15
769.747	40.42
769.925	40.02
770.103	40.5
770.281	41.9
770.459	40.69
770.636	40.33
770.814	40.19
770.992	39.15
771.17	40.57
771.348	41.13
771.525	39.89
771.703	39.92
771.881	40.7
772.059	40.63
772.236	39.59
772.414	38.69
772.592	39.08
772.769	40.32
772.947	41.61
773.125	40.92
773.302	40.11
773.48	38.72
773.657	38.85
773.835	38.86
774.013	39.14
774.19	39.97
774.368	39.89
774.545	38.94
774.723	39.36
774.9	38.43
775.077	39.57
775.255	39.25
775.432	41.06
775.61	40.98
775.787	39.96
775.964	39.72
776.142	38.15
776.319	39.42
776.496	41.42
776.674	40.72
776.851	40.21
777.028	38.67
777.205	40.71
777.382	40.66
777.56	41.09
777.737	42.75
777.914	42.32
778.091	42.73
778.268	41.96
778.445	40.44
778.622	41.07
778.8	42.07
778.977	42.96
779.154	42.36
779.331	41.03
779.508	41.49
779.685	41.21
779.862	42.92
780.038	43.52
780.215	43.34
780.392	42.41
780.569	40.89
780.746	41.31
780.923	42.27
781.1	42.69
781.277	43.05
781.453	43.13
781.63	41.2
781.807	41.46
781.984	40.16
782.16	40.81
782.337	40.27
782.514	42.3
782.691	41.02
782.867	38.6
783.044	38.09
783.221	39.05
783.397	38.18
783.574	38.69
783.75	37.68
783.927	37.93
784.103	38.29
784.28	39.55
784.456	39.26
784.633	39.28
784.809	41.5
784.986	39.29
785.162	37.41
785.339	37.28
785.515	37.32
785.692	35.38
785.868	36.56
786.044	36.88
786.221	36.72
786.397	36.66
786.573	36.42
786.749	36.73
786.926	37.64
787.102	39.4
787.278	39.46
787.454	40.77
787.631	42.18
787.807	41.26
787.983	41.08
788.159	41.61
788.335	41.19
788.511	42.71
788.687	42.19
788.863	42.57
789.039	42.45
789.216	42.27
789.392	40.2
789.568	41.21
789.744	42.61
789.919	42.97
790.095	41.44
790.271	40.51
790.447	38.88
790.623	37.63
790.799	39.86
790.975	38.85
791.151	38.63
791.327	41.11
791.502	40.73
791.678	38.92
791.854	38.73
792.03	39.27
792.205	40.66
792.381	42.04
792.557	41.77
792.733	39.77
792.908	40.42
793.084	41.79
793.259	39.1
793.435	39.53
793.611	42.31
793.786	41.16
793.962	42.76
794.137	41.06
794.313	40.53
794.488	43.5
794.664	44.08
794.839	44.69
795.015	43.51
795.19	43.52
795.366	43.74
795.541	41.82
795.716	41.56
795.892	40.33
796.067	41.69
796.242	41.47
796.418	38.86
796.593	39.95
796.768	41.71
796.944	41.52
797.119	44.69
797.294	43.53
797.469	42.96
797.644	43.83
797.82	43.9
797.995	43.96
798.17	45.18
798.345	46.2
798.52	45.61
798.695	44.01
798.87	45.08
799.045	42.65
799.22	42.76
799.395	42.56
799.57	42.55
799.745	43.41
799.92	44.54
800.095	44.31
800.27	44.31
800.445	44.3
800.62	44.14
800.795	43.97
800.97	44.48
801.145	42.93
801.319	43.71
801.494	42.07
801.669	42.38
801.844	41.72
802.018	40.42
802.193	40.52
802.368	36.15
802.543	37.83
802.717	38.05
802.892	36.66
803.067	39.5
803.241	39.94
803.416	42.89
803.59	41.74
803.765	41.19
803.94	41.63
804.114	39.96
804.289	44.52
804.463	43
804.638	41.42
804.812	43.55
804.986	43.99
805.161	44.84
805.335	44.88
805.51	40.74
805.684	40.19
805.858	42.47
806.033	44.85
806.207	43.63
806.381	43.15
806.556	44.88
806.73	45.64
806.904	45.33
807.078	45.26
807.253	44.65
807.427	48.75
807.601	50.18
807.775	46.96
807.949	45.52
808.123	46.18
808.298	46.1
808.472	47.82
808.646	48.66
808.82	46.6
808.994	45.56
809.168	43.95
809.342	43.11
809.516	41.92
809.69	44.97
809.864	42.84
810.038	42.27
810.212	43.74
810.385	41.35
810.559	36.96
810.733	38.54
810.907	38.28
811.081	38.75
811.255	38.92
811.428	38.29
811.602	36.54
811.776	35.32
811.95	35.37
812.123	36
812.297	36.77
812.471	38.25
812.644	39.31
812.818	39.86
812.992	40.84
813.165	40.67
813.339	39.33
813.512	39.31
813.686	43.9
813.86	42.31
814.033	40.9
814.207	41.05
814.38	39.69
814.554	37.56
814.727	37.8
814.9	36.5
815.074	36.61
815.247	37.44
815.421	37
815.594	33.73
815.767	32.67
815.941	33.04
816.114	29.44
816.287	33.58
816.46	35.48
816.634	33.5
816.807	35.8
816.98	34.21
817.153	37.4
817.327	37.67
817.5	38.06
817.673	41.42
817.846	41.9
818.019	46.32
818.192	46.12
818.365	46.13
818.538	46.13
818.711	45.36
818.884	44.22
819.057	42.33
819.23	42.93
819.403	42.71
819.576	41.63
819.749	38.91
819.922	37.2
820.095	35.7
820.268	33.97
820.441	36.48
820.614	37.11
820.786	39.43
820.959	40.1
821.132	40.8
821.305	42.87
821.477	42.61
821.65	43.09
821.823	42.83
821.996	43.53
822.168	44.23
822.341	43.63
822.514	43.88
822.686	44.17
822.859	44.64
823.031	44.35
823.204	44.31
823.376	44.53
823.549	44.61
823.722	44.96
823.894	44.66
824.067	44.77
824.239	45.12
824.411	45.07
824.584	44.74
824.756	44.1
824.929	44.14
825.101	43.96
825.273	43.63
825.446	43.78
825.618	43.59
825.79	44.28
825.963	43.48
826.135	43.91
826.307	44.48
826.479	44.6
826.652	45.43
826.824	46.19
826.996	45.03
827.168	45.85
827.34	46.55
827.512	46.04
827.684	45.67
827.856	46.24
828.029	45.13
828.201	44.34
828.373	44.41
828.545	43.39
828.717	41.74
828.889	43.45
829.061	43.15
829.232	43.09
829.404	43.23
829.576	43.85
829.748	44.68
829.92	44.34
830.092	44.01
830.264	43.42
830.436	44.36
830.607	45.54
830.779	44.67
830.951	45.38
831.123	45.48
831.294	47.3
831.466	45.91
831.638	46.2
831.809	47.71
831.981	46.98
832.153	47.33
832.324	45.78
832.496	44.37
832.667	44.46
832.839	41.97
833.011	40.64
833.182	40.3
833.354	41.36
833.525	40.78
833.697	40.26
833.868	41.3
834.039	40.58
834.211	41.89
834.382	41.62
834.554	41.99
834.725	43.41
834.896	43.4
835.068	43
835.239	41.57
835.41	41.82
835.581	43.03
835.753	42.76
835.924	44.02
836.095	44.54
836.266	46.14
836.438	46.08
836.609	45.4
836.78	44.86
836.951	44.99
837.122	45.72
837.293	44.31
837.464	43.88
837.635	45.37
837.806	43.22
837.977	41.24
838.148	41.26
838.319	40.83
838.49	41.46
838.661	39.75
838.832	37.95
839.003	37.45
839.174	38.94
839.345	38.41
839.516	36.78
839.687	37.08
839.857	37.19
840.028	37.86
840.199	35.69
840.37	36.45
840.54	42.14
840.711	44.42
840.882	47.41
841.053	48.95
841.223	49.21
841.394	48.88
841.564	53.34
841.735	53.65
841.906	53.39
842.076	57.16
842.247	55.09
842.417	52.01
842.588	50.9
842.758	53.02
842.929	46.09
843.099	45.69
843.27	45.36
843.44	41.11
843.611	42.58
843.781	39.73
843.951	39
844.122	41.94
844.292	41.1
844.462	46.2
844.633	40.77
844.803	46.8
844.973	46.96
845.144	51.82
845.314	49.28
845.484	47.55
845.654	48.64
845.824	48.84
845.995	43.15
846.165	52.92
846.335	48.66
846.505	48.39
846.675	52.21
846.845	64.72
847.015	60.35
847.185	70.7
847.355	71.78
847.525	71.58
847.695	67.96
847.865	73.79
848.035	58.01
848.205	57.76
848.375	49.67
848.545	40.96
848.715	30.81
848.884	34.1
849.054	34.84
849.224	41.06
849.394	39.31
849.564	41.41
849.733	41.55
849.903	53.61
850.073	56.79
850.243	63.63
850.412	56.51
850.582	55.06
850.752	58.12
850.921	51.6
851.091	40.96
851.26	44.31
851.43	43.45
851.599	36.18
851.769	36.28
851.939	40.14
852.108	40.19
852.278	53.47
852.447	53.7
852.616	48.99
852.786	47.5
852.955	47.13
853.125	43.69
853.294	45.46
853.463	43.03
853.633	31.08
853.802	24.23
853.971	26.29
854.141	26.58
854.31	31.52
854.479	36.3
854.648	31.23
854.818	33.89
854.987	35.4
855.156	39.27
855.325	48.93
855.494	59.15
855.663	56.85
855.832	53.94
856.001	47.7
856.171	45.93
856.34	40.06
856.509	44.57
856.678	48.42
856.847	46.63
857.016	44.2
857.185	39.75
857.353	43.34
857.522	39.9
857.691	40.57
857.86	39.01
858.029	36.56
858.198	34.98
858.367	36.46
858.535	29.91
858.704	23.38
858.873	22.04
859.042	21.88
859.21	21.71
859.379	26.18
859.548	27.76
859.717	32.84
859.885	30.86
860.054	31.75
860.222	32.65
860.391	37.1
860.56	42.35
860.728	38.94
860.897	41.22
861.065	37.63
861.234	34.76
861.402	29.03
861.571	27.81
861.739	25.02
861.908	32.24
862.076	34.53
862.244	33.81
862.413	36
862.581	43.05
862.749	43.56
862.918	49.58
863.086	54.86
863.254	59.12
863.423	71.18
863.591	69.92
863.759	65.99
863.927	63.24
864.096	70.59
864.264	77.63
864.432	84.53
864.6	86.53
864.768	79.97
864.936	76.45
865.104	72.29
865.272	63.35
865.44	61.21
865.608	63.1
865.776	56.84
865.944	49.65
866.112	43.71
866.28	31.51
866.448	24.96
866.616	21.6
866.784	32.66
866.952	17.58
867.12	15.18
867.288	20.08
867.455	22.12
867.623	25.32
867.791	23.06
867.959	27.47
868.127	33.69
868.294	29.61
868.462	34.85
868.63	33.96
868.797	45.84
868.965	51.72
869.133	51.78
869.3	50.03
869.468	52
869.636	52.84
869.803	44.92
869.971	47.85
870.138	51.57
870.306	49.44
870.473	48.14
870.641	43.6
870.808	38.32
870.975	37.31
871.143	27.75
871.31	19.57
871.478	19.93
871.645	22.21
871.812	10.47
871.98	12.51
872.147	13.18
872.314	10.12
872.482	7.26
872.649	15.79
872.816	13.61
872.983	23.85
873.15	29.44
873.318	29.65
873.485	38.84
873.652	35.48
873.819	37.68
873.986	36.4
874.153	34.58
874.32	30.35
874.487	24.23
874.654	28
874.821	30.2
874.988	35.98
875.155	43.6
875.322	46.88
875.489	44.63
875.656	49.83
875.823	51.43
875.99	58.48
876.157	68.8
876.324	68.29
876.49	63.76
876.657	61.1
876.824	60.79
876.991	51.19
877.157	44.65
877.324	55.2
877.491	46.55
877.658	49.73
877.824	42.46
877.991	35.38
878.157	47.49
878.324	53.98
878.491	54.11
878.657	54.92
878.824	53.32
878.99	52.9
879.157	47.81
879.323	48.75
879.49	46.32
879.656	48.77
879.823	54.5
879.989	49.57
880.156	53.62
880.322	48.95
880.488	46.16
880.655	47.17
880.821	49.41
880.987	48.12
881.154	45.94
881.32	46.54
881.486	47.65
881.652	43.93
881.819	43.87
881.985	40.84
882.151	43.97
882.317	44.77
882.483	43.05
882.649	41.89
882.816	42.89
882.982	43.54
883.148	42.22
883.314	42.16
883.48	42.92
883.646	42.92
883.812	42.82
883.978	43.37
884.144	42.34
884.31	42.61
884.476	43.96
884.642	43.92
884.807	44.44
884.973	45.64
885.139	46.99
885.305	46.13
885.471	46.76
885.637	45.81
885.802	44.96
885.968	45.25
886.134	45.03
886.3	43.55
886.465	46.42
886.631	47.31
886.797	48.05
886.962	44.09
887.128	44.65
887.293	42.71
887.459	43.86
887.625	44.37
887.79	49.93
887.956	52.1
888.121	52.59
888.287	48.01
888.452	44.77
888.618	41.85
888.783	45.74
