Data from LC_217__Reflection_4.txt Node
Date: Thu Nov 19 13:15:23 EST 2015
User: robert
Spectrometer: USB4E03001
Autoset integration time: false
Trigger mode: 4
Integration Time (sec): 1.000000E-1
Scans to average: 15
Electric dark correction enabled: true
Nonlinearity correction enabled: false
Boxcar width: 5
Stray light correction enabled: false
XAxis mode: Wavelengths
Stop averaging: false
Number of Pixels in Spectrum: 3648
>>>>>Begin Spectral Data<<<<<
177.566	28.38
177.785	-164.93
178.005	-237.07
178.225	-103.1
178.445	-73.25
178.665	223500
178.885	-9.96
179.105	-60.07
179.324	-6.36
179.544	-18.62
179.764	-84.82
179.984	-197.7
180.204	-92.15
180.423	-34.52
180.643	-790.5
180.863	-986.71
181.083	-205.35
181.302	-208.8
181.522	-217.33
181.742	-1348.9
181.961	2292.92
182.181	1717.51
182.401	240.9
182.621	269.79
182.84	459.15
183.06	1045.59
183.279	964.47
183.499	484.28
183.719	504.84
183.938	219.08
184.158	346.44
184.377	443.83
184.597	415.96
184.816	3151.56
185.036	12575
185.256	760.31
185.475	331.57
185.695	313.62
185.914	213.45
186.134	132.52
186.353	141.7
186.572	151.92
186.792	169.81
187.011	782.4
187.231	157.76
187.45	219.88
187.67	412.48
187.889	8172.73
188.108	193.35
188.328	-631.82
188.547	-130.99
188.766	-132.02
188.986	-146.17
189.205	-252.67
189.424	251.97
189.644	352.5
189.863	213
190.082	274.97
190.302	772.9
190.521	-42.02
190.74	-532.64
190.959	-4878.87
191.178	7347.46
191.398	-2129.82
191.617	447.63
191.836	1808.44
192.055	-614.39
192.274	-196.35
192.494	-398.88
192.713	-284.9
192.932	-183.65
193.151	-140.46
193.37	-181.32
193.589	-62.9
193.808	-67.06
194.027	-64.26
194.246	-243.57
194.465	-112.03
194.685	12250
194.904	198.42
195.123	85.25
195.342	57.12
195.561	55.37
195.78	97.38
195.999	199.69
196.218	408.51
196.436	771.57
196.655	506.61
196.874	394.58
197.093	348.58
197.312	1193.6
197.531	1263.87
197.75	2437.39
197.969	-894.55
198.188	-1016.83
198.407	-5801.93
198.625	392.81
198.844	554.29
199.063	1106.67
199.282	1145.26
199.501	-805.83
199.719	-930.59
199.938	-1914.87
200.157	2173.56
200.376	914.68
200.594	567.83
200.813	584.7
201.032	348.98
201.251	414.33
201.469	739.98
201.688	506.81
201.907	377.09
202.125	367.39
202.344	251.36
202.563	175.53
202.781	212.41
203	167.13
203.218	167.06
203.437	416.72
203.656	237.29
203.874	158.1
204.093	172.17
204.311	142.22
204.53	131.6
204.748	134.1
204.967	147.05
205.185	119.97
205.404	157.66
205.622	165.28
205.841	133.08
206.059	143.26
206.278	229.21
206.496	256.63
206.715	425.83
206.933	529.87
207.151	-784.6
207.37	-541.67
207.588	-1604.13
207.806	1719
208.025	623.82
208.243	-874.44
208.461	-560.44
208.68	-982.57
208.898	1770.9
209.116	518.42
209.335	1058.42
209.553	465.01
209.771	1224.96
209.989	-813.48
210.208	-151.3
210.426	-68.36
210.644	-69.73
210.862	-12.23
211.081	-18.46
211.299	-37.08
211.517	-30.73
211.735	-61.83
211.953	-116.95
212.171	139.36
212.39	199.04
212.608	287.57
212.826	158.52
213.044	98.85
213.262	97.36
213.48	67.16
213.698	50.25
213.916	140.11
214.134	148.7
214.352	362.18
214.57	-557.27
214.788	294.7
215.006	1726.64
215.224	-608.41
215.442	-134.94
215.66	-128.37
215.878	414.04
216.096	85.04
216.314	46.8
216.532	71.97
216.75	50.55
216.968	49.6
217.185	47.65
217.403	45.48
217.621	57.61
217.839	77.13
218.057	93.69
218.275	119.59
218.492	233.48
218.71	141.15
218.928	120.99
219.146	127.61
219.363	198.94
219.581	213.6
219.799	512.15
220.017	176.39
220.234	167.87
220.452	199.94
220.67	138.09
220.887	112.22
221.105	220.47
221.323	282.49
221.54	229.75
221.758	164.1
221.976	164.64
222.193	117.99
222.411	122.79
222.629	116.34
222.846	139.77
223.064	137.78
223.281	139.67
223.499	118.63
223.716	123.23
223.934	133.22
224.151	172.97
224.369	169.01
224.586	191.59
224.804	208.23
225.021	160.54
225.239	131.95
225.456	135.48
225.674	137.76
225.891	133.28
226.108	123.49
226.326	118.36
226.543	100.97
226.76	93.93
226.978	87.27
227.195	75.38
227.413	63.16
227.63	59.76
227.847	55.64
228.064	43.28
228.282	38.78
228.499	34.95
228.716	30.56
228.934	25.58
229.151	25.75
229.368	23.1
229.585	22.5
229.802	25.4
230.02	23.66
230.237	20.24
230.454	25.76
230.671	25.23
230.888	25.79
231.105	29.43
231.323	32.61
231.54	29.4
231.757	32.25
231.974	32.37
232.191	31.3
232.408	33.4
232.625	40.44
232.842	30.36
233.059	27.42
233.276	33.6
233.493	26.76
233.71	28.74
233.927	23.82
234.144	23.21
234.361	22.46
234.578	25.49
234.795	24.26
235.012	20.69
235.229	20.86
235.446	21.8
235.663	21.43
235.879	21.85
236.096	20.99
236.313	24.25
236.53	22.49
236.747	20.48
236.964	17.9
237.181	15.15
237.397	17.74
237.614	18.85
237.831	22.01
238.048	18.42
238.264	21.27
238.481	23.68
238.698	29.12
238.915	29.03
239.131	28.15
239.348	27.13
239.565	28.61
239.781	28.17
239.998	27.76
240.215	25.27
240.431	22.49
240.648	23.7
240.865	23.23
241.081	19.23
241.298	19.44
241.514	17.04
241.731	18.93
241.947	17.63
242.164	15.33
242.38	14.5
242.597	15.48
242.814	17.61
243.03	14.61
243.246	14.25
243.463	15.58
243.679	17.36
243.896	19.92
244.112	17.07
244.329	15.52
244.545	17.33
244.762	19.05
244.978	18.21
245.194	17.09
245.411	18.61
245.627	17.83
245.843	17.33
246.06	15.07
246.276	14.83
246.492	16.73
246.709	17.89
246.925	17.57
247.141	16.57
247.357	16.71
247.574	17
247.79	17.57
248.006	17.6
248.222	16.16
248.439	17.1
248.655	16.85
248.871	17.05
249.087	17.59
249.303	18.13
249.519	18.29
249.736	17.53
249.952	16.65
250.168	16.26
250.384	18.45
250.6	21.91
250.816	19.74
251.032	22.26
251.248	21.27
251.464	21.66
251.68	18.77
251.896	17.78
252.112	16.78
252.328	15.53
252.544	16.38
252.76	15.1
252.976	13.75
253.192	14.5
253.408	10.08
253.624	10.97
253.84	9.55
254.056	12.02
254.272	14.48
254.487	18.1
254.703	20.5
254.919	19.69
255.135	20.32
255.351	21.16
255.567	21.68
255.782	24.06
255.998	22.25
256.214	22.08
256.43	21.09
256.646	20.93
256.861	17.17
257.077	18.39
257.293	17.7
257.508	17.84
257.724	16.55
257.94	15.29
258.155	14.82
258.371	15.5
258.587	15.37
258.802	14.16
259.018	13.73
259.234	13.83
259.449	11.44
259.665	11.33
259.88	11.44
260.096	11.38
260.312	11.27
260.527	11.43
260.743	10.6
260.958	10.27
261.174	11.48
261.389	12.15
261.605	12.68
261.82	12.81
262.036	13.06
262.251	12.56
262.466	13.48
262.682	13.63
262.897	14.47
263.113	15.51
263.328	16.36
263.543	15.58
263.759	14.39
263.974	14.36
264.189	15.41
264.405	16.09
264.62	16.73
264.835	14.06
265.051	17.92
265.266	16.17
265.481	15.28
265.696	14.48
265.912	12.97
266.127	13.18
266.342	12.8
266.557	14.25
266.773	12.54
266.988	12.39
267.203	13.54
267.418	11.51
267.633	13.4
267.848	13.76
268.064	13.08
268.279	13.88
268.494	14.07
268.709	14.22
268.924	14.78
269.139	16.48
269.354	17.17
269.569	17.92
269.784	16.81
269.999	15.29
270.214	14.17
270.429	16.98
270.644	16.64
270.859	16.6
271.074	16.87
271.289	15.92
271.504	15.17
271.719	15.04
271.934	13.58
272.149	13.66
272.363	13.92
272.578	14.77
272.793	12.94
273.008	13.5
273.223	12.67
273.438	11.94
273.653	11.46
273.867	11.04
274.082	9.49
274.297	11.48
274.512	12.08
274.726	12.59
274.941	11.77
275.156	12.36
275.371	12.27
275.585	13.59
275.8	14.68
276.015	14.86
276.229	16.14
276.444	16.65
276.659	16.41
276.873	17.37
277.088	16.05
277.302	16.95
277.517	18.34
277.732	17.4
277.946	17.16
278.161	17.04
278.375	17.9
278.59	17.01
278.804	16.76
279.019	16.3
279.233	14.55
279.448	13.99
279.662	13.04
279.877	9.72
280.091	9.2
280.306	9.15
280.52	8.16
280.735	6.19
280.949	6.16
281.163	7.65
281.378	6.27
281.592	6.09
281.806	7.42
282.021	8.95
282.235	11.11
282.449	12.02
282.664	11.73
282.878	12.1
283.092	13.61
283.307	14.12
283.521	13.26
283.735	13.21
283.949	13.86
284.164	13.66
284.378	13.05
284.592	12.69
284.806	12.08
285.02	12.01
285.234	10.53
285.449	11.38
285.663	11.38
285.877	11.96
286.091	12.67
286.305	12.69
286.519	13.26
286.733	12.52
286.947	12.62
287.161	12.93
287.375	13.74
287.589	15.17
287.803	13.79
288.017	15.32
288.231	15.1
288.445	14.58
288.659	16.48
288.873	15.97
289.087	16.76
289.301	16.42
289.515	16.73
289.729	14.89
289.943	15.25
290.157	16.23
290.371	14.15
290.584	13.44
290.798	13.24
291.012	12.45
291.226	12.52
291.44	12.39
291.654	11.51
291.867	10.27
292.081	11.28
292.295	11.81
292.509	10.59
292.722	11.91
292.936	12.65
293.15	14.52
293.364	13.15
293.577	12.59
293.791	12.92
294.005	14.09
294.218	14.36
294.432	13.98
294.645	12.69
294.859	12.9
295.073	12.31
295.286	13.6
295.5	12.37
295.713	12.9
295.927	13.17
296.14	12.76
296.354	13.62
296.568	13.59
296.781	13.44
296.994	12.67
297.208	12.3
297.421	12.73
297.635	11.48
297.848	11.71
298.062	11.64
298.275	11.73
298.489	11.81
298.702	11.37
298.915	11.23
299.129	12.96
299.342	14.13
299.555	15.24
299.769	14.42
299.982	15.43
300.195	16.02
300.409	15.85
300.622	15.73
300.835	16.29
301.048	15.98
301.262	16.46
301.475	14.74
301.688	15
301.901	13.89
302.115	13.83
302.328	13.37
302.541	11.68
302.754	12.2
302.967	13.65
303.18	13.19
303.393	13.1
303.607	13.49
303.82	14.05
304.033	14.59
304.246	16.64
304.459	16.74
304.672	17.18
304.885	17.5
305.098	17.23
305.311	16.08
305.524	16.3
305.737	16.39
305.95	16.08
306.163	15.57
306.376	15.81
306.589	15.18
306.802	16.62
307.015	17.28
307.228	18.25
307.44	17.93
307.653	17.74
307.866	18.1
308.079	18.73
308.292	19.55
308.505	19.8
308.718	17.38
308.93	17.33
309.143	16.95
309.356	16.47
309.569	16.34
309.781	17.08
309.994	17.69
310.207	16.95
310.42	15.47
310.632	14.55
310.845	14.48
311.058	14.8
311.27	14.71
311.483	14.94
311.696	14.02
311.908	14.43
312.121	13.94
312.333	13.74
312.546	13.84
312.759	14.01
312.971	14.68
313.184	15.26
313.396	16.54
313.609	15.87
313.821	15.75
314.034	17.28
314.246	17.71
314.459	18.71
314.671	19.34
314.884	20
315.096	21.33
315.309	20.56
315.521	20.02
315.733	19.86
315.946	20.43
316.158	20.01
316.371	18.85
316.583	17.58
316.795	17.09
317.008	15.02
317.22	14.26
317.432	14.39
317.644	16.41
317.857	15.09
318.069	14.57
318.281	14.5
318.494	13.56
318.706	14.65
318.918	15.64
319.13	15.47
319.342	15.97
319.555	16.2
319.767	15.87
319.979	14.65
320.191	15.54
320.403	14.73
320.615	12.71
320.827	14.22
321.039	13.3
321.252	13.25
321.464	13.32
321.676	14.7
321.888	14.07
322.1	13.6
322.312	13.33
322.524	14.21
322.736	13.65
322.948	15.82
323.16	15.11
323.372	15.19
323.584	15.02
323.796	14.52
324.007	14.28
324.219	15.39
324.431	16.62
324.643	16.63
324.855	16.61
325.067	16.65
325.279	17.18
325.491	18.01
325.702	18.11
325.914	18.05
326.126	18.16
326.338	17.9
326.55	17.3
326.761	17.3
326.973	16.85
327.185	16.47
327.396	17.95
327.608	17.75
327.82	17
328.032	16.21
328.243	15.93
328.455	17.21
328.666	16.61
328.878	17.11
329.09	16.74
329.301	17.3
329.513	18.81
329.725	19.18
329.936	18.9
330.148	18.22
330.359	19.82
330.571	20.65
330.782	20.66
330.994	22.74
331.205	22.05
331.417	22.19
331.628	21.65
331.84	20.74
332.051	19.68
332.262	19.65
332.474	20.17
332.685	20.41
332.897	20.63
333.108	20.71
333.319	20.37
333.531	21.32
333.742	20.73
333.953	21.23
334.165	20.98
334.376	21.09
334.587	20.91
334.799	21.12
335.01	20.64
335.221	20.77
335.432	20.13
335.644	20.13
335.855	20.1
336.066	20.69
336.277	20.61
336.488	20.11
336.7	20.19
336.911	19.61
337.122	19.52
337.333	18.96
337.544	18.45
337.755	18.81
337.966	18.34
338.177	17.3
338.388	16.79
338.599	17.23
338.811	18.13
339.022	18.62
339.233	19.08
339.444	19.57
339.655	20.12
339.866	20.58
340.076	20.52
340.287	20.22
340.498	21.11
340.709	20.77
340.92	19.94
341.131	19.41
341.342	19.71
341.553	20
341.764	19.92
341.975	19.52
342.185	19.6
342.396	18.88
342.607	19.28
342.818	19.07
343.029	19.36
343.239	20.03
343.45	19.91
343.661	19.49
343.872	19.05
344.082	19.39
344.293	19.26
344.504	18.66
344.714	19.36
344.925	18.94
345.136	18.8
345.346	18.87
345.557	19.09
345.768	19.1
345.978	18.63
346.189	18.66
346.399	17.74
346.61	18.62
346.821	18.69
347.031	18.24
347.242	18.47
347.452	19.03
347.663	18.47
347.873	18.66
348.084	19.08
348.294	20
348.504	19.97
348.715	20.12
348.925	19.6
349.136	19.99
349.346	20.31
349.557	20.39
349.767	19.91
349.977	20.8
350.188	20
350.398	19.68
350.608	19.98
350.819	20.35
351.029	21.63
351.239	21.35
351.449	20.22
351.66	19.59
351.87	19.01
352.08	18.6
352.29	18.56
352.501	18.41
352.711	18.48
352.921	17.76
353.131	17.81
353.341	16.58
353.552	16.4
353.762	16.98
353.972	17.91
354.182	18.92
354.392	19.58
354.602	18.84
354.812	19.36
355.022	19.22
355.232	19.31
355.442	19.03
355.652	19.58
355.862	19.81
356.072	20.43
356.282	19.8
356.492	19.18
356.702	18.85
356.912	19.74
357.122	19.93
357.332	19.65
357.542	19.42
357.752	19.06
357.962	18.59
358.171	18.63
358.381	18
358.591	17.95
358.801	18.16
359.011	17.88
359.221	17.76
359.43	17.84
359.64	17.93
359.85	18.25
360.06	18.49
360.269	18.29
360.479	18.32
360.689	18.41
360.899	18.3
361.108	17.99
361.318	18.15
361.528	17.89
361.737	17.25
361.947	17.2
362.156	16.95
362.366	17.04
362.576	17.35
362.785	17.52
362.995	17.84
363.204	18.15
363.414	18.74
363.623	18.56
363.833	17.92
364.042	18.16
364.252	18.45
364.461	18.62
364.671	18.74
364.88	18.4
365.09	18.4
365.299	18
365.509	18.04
365.718	17.37
365.927	17.39
366.137	18.18
366.346	17.47
366.555	17.11
366.765	16.6
366.974	16.76
367.183	16.74
367.393	16.01
367.602	15.95
367.811	15.9
368.021	15.5
368.23	15.64
368.439	15.61
368.648	16.21
368.857	16.28
369.067	16.34
369.276	15.62
369.485	15.47
369.694	15.49
369.903	15.27
370.112	15.17
370.321	15.29
370.531	14.84
370.74	14.5
370.949	14.69
371.158	14.72
371.367	14.61
371.576	15.09
371.785	15.6
371.994	15.83
372.203	15.63
372.412	15.59
372.621	15.96
372.83	16.45
373.039	16.73
373.248	16.73
373.457	16.65
373.666	16.91
373.874	16.99
374.083	16.67
374.292	16.58
374.501	16.56
374.71	16.34
374.919	15.95
375.128	15.93
375.336	15.24
375.545	14.93
375.754	15.11
375.963	15.2
376.171	14.69
376.38	14.93
376.589	15.03
376.798	15.25
377.006	15.45
377.215	15.8
377.424	15.59
377.632	15.82
377.841	15.65
378.05	15.47
378.258	15.4
378.467	15.22
378.675	14.88
378.884	14.78
379.093	14.77
379.301	14.97
379.51	14.85
379.718	15.08
379.927	15.34
380.135	15.29
380.344	15.65
380.552	15.54
380.761	15.92
380.969	15.94
381.177	15.75
381.386	15.83
381.594	15.17
381.803	14.98
382.011	15.08
382.219	14.81
382.428	15.1
382.636	14.83
382.845	14.7
383.053	14.86
383.261	14.75
383.469	15.02
383.678	14.71
383.886	14.91
384.094	14.88
384.302	14.67
384.511	14.99
384.719	14.3
384.927	14.29
385.135	14.06
385.343	13.61
385.552	13.53
385.76	13.25
385.968	13.68
386.176	13.48
386.384	13.35
386.592	13.17
386.8	12.74
387.008	13.22
387.216	13.1
387.424	13.22
387.633	13.42
387.841	13.39
388.049	13.63
388.257	13.05
388.465	13.03
388.672	13.18
388.88	13.32
389.088	13.57
389.296	13.75
389.504	13.26
389.712	13.36
389.92	13
390.128	13.32
390.336	12.85
390.544	12.94
390.751	13.2
390.959	13.26
391.167	13.14
391.375	12.97
391.583	12.62
391.79	12.88
391.998	12.6
392.206	12.94
392.414	12.52
392.621	12.38
392.829	12.52
393.037	12.4
393.244	12.17
393.452	12.02
393.66	11.8
393.867	12.04
394.075	11.99
394.283	12.06
394.49	11.82
394.698	12.35
394.905	12.51
395.113	12.44
395.32	12.05
395.528	12.04
395.735	12.1
395.943	12.24
396.15	11.83
396.358	11.82
396.565	12.07
396.773	12.32
396.98	11.76
397.188	11.52
397.395	11.47
397.602	11.95
397.81	11.82
398.017	11.82
398.225	11.08
398.432	11.3
398.639	11.37
398.847	11.25
399.054	11.1
399.261	11.03
399.468	11.19
399.676	11.15
399.883	11
400.09	11.05
400.297	11.25
400.505	11.75
400.712	11.69
400.919	11.66
401.126	11.67
401.333	11.62
401.54	12.01
401.748	11.93
401.955	11.85
402.162	11.65
402.369	11.48
402.576	11.25
402.783	11.09
402.99	11.48
403.197	11.7
403.404	11.58
403.611	11.43
403.818	11.28
404.025	11.42
404.232	11.4
404.439	11.5
404.646	11.53
404.853	11.68
405.06	11.76
405.267	11.24
405.474	11.03
405.681	10.91
405.887	11.1
406.094	10.93
406.301	10.93
406.508	10.97
406.715	11
406.922	11.13
407.128	10.94
407.335	11.09
407.542	11.37
407.749	11.23
407.955	11.48
408.162	11.25
408.369	11.37
408.575	11.43
408.782	11.33
408.989	11.22
409.195	11.09
409.402	11.12
409.609	11.1
409.815	11.16
410.022	11.12
410.228	10.95
410.435	11.05
410.642	10.91
410.848	10.63
411.055	10.56
411.261	10.68
411.468	10.77
411.674	10.51
411.881	10.62
412.087	10.18
412.294	10.37
412.5	10.47
412.706	10.32
412.913	10.61
413.119	10.92
413.326	11.32
413.532	11.39
413.738	11.56
413.945	11.79
414.151	11.63
414.357	11.82
414.564	12.09
414.77	12.02
414.976	12.03
415.182	12.14
415.389	11.87
415.595	11.44
415.801	11.2
416.007	11.07
416.214	11.06
416.42	10.81
416.626	10.97
416.832	10.69
417.038	10.68
417.244	10.59
417.45	10.27
417.657	10.43
417.863	10.56
418.069	10.41
418.275	10.33
418.481	10.28
418.687	10.46
418.893	10.14
419.099	10.1
419.305	9.93
419.511	10.11
419.717	10.03
419.923	9.9
420.129	9.82
420.335	9.95
420.541	10
420.746	9.99
420.952	9.93
421.158	10.06
421.364	10.01
421.57	10
421.776	9.87
421.982	10.01
422.187	10
422.393	10.03
422.599	10.03
422.805	9.84
423.01	9.84
423.216	9.96
423.422	9.94
423.628	9.92
423.833	9.93
424.039	10.11
424.245	10.05
424.45	10.02
424.656	9.97
424.862	9.76
425.067	9.85
425.273	9.83
425.478	9.71
425.684	9.73
425.889	9.76
426.095	9.8
426.301	9.6
426.506	9.61
426.712	9.6
426.917	9.68
427.123	9.81
427.328	9.85
427.533	9.95
427.739	9.91
427.944	10.04
428.15	9.98
428.355	9.92
428.561	9.99
428.766	9.84
428.971	10.06
429.177	9.91
429.382	10
429.587	10.13
429.793	9.92
429.998	9.96
430.203	9.91
430.408	10.01
430.614	9.97
430.819	9.8
431.024	9.69
431.229	9.59
431.434	9.69
431.64	9.75
431.845	9.6
432.05	9.69
432.255	9.66
432.46	9.72
432.665	9.55
432.87	9.72
433.076	9.96
433.281	10.1
433.486	9.98
433.691	9.93
433.896	9.92
434.101	9.93
434.306	9.88
434.511	9.83
434.716	9.54
434.921	9.58
435.126	9.53
435.331	9.24
435.535	9.24
435.74	9.41
435.945	9.48
436.15	9.53
436.355	9.5
436.56	9.67
436.765	9.73
436.97	9.76
437.174	9.91
437.379	9.83
437.584	9.93
437.789	9.89
437.993	9.9
438.198	9.85
438.403	9.68
438.608	9.75
438.812	9.65
439.017	9.49
439.222	9.59
439.426	9.52
439.631	9.48
439.836	9.46
440.04	9.59
440.245	9.56
440.45	9.46
440.654	9.58
440.859	9.5
441.063	9.37
441.268	9.56
441.472	9.61
441.677	9.7
441.881	9.79
442.086	9.9
442.29	9.87
442.495	9.92
442.699	10
442.904	9.84
443.108	9.81
443.312	9.91
443.517	9.98
443.721	9.93
443.925	9.81
444.13	9.82
444.334	9.75
444.538	9.69
444.743	9.53
444.947	9.49
445.151	9.5
445.356	9.58
445.56	9.69
445.764	9.56
445.968	9.58
446.173	9.59
446.377	9.45
446.581	9.4
446.785	9.29
446.989	9.26
447.193	9.31
447.398	9.32
447.602	9.21
447.806	9.11
448.01	9.07
448.214	9.01
448.418	9.11
448.622	9.21
448.826	9.2
449.03	9.27
449.234	9.22
449.438	9.2
449.642	9.16
449.846	9.25
450.05	9.24
450.254	9.25
450.458	9.28
450.662	9.04
450.866	8.81
451.069	8.73
451.273	8.73
451.477	8.79
451.681	8.8
451.885	9.02
452.089	8.99
452.292	8.96
452.496	8.88
452.7	8.83
452.904	8.92
453.107	9.11
453.311	9.24
453.515	9.3
453.719	9.36
453.922	9.36
454.126	9.1
454.33	9.2
454.533	9.5
454.737	9.42
454.94	9.37
455.144	9.29
455.348	9.2
455.551	9.24
455.755	9.2
455.958	9.11
456.162	9.11
456.365	9.3
456.569	9.26
456.772	8.84
456.976	8.99
457.179	9.06
457.383	9.13
457.586	9.07
457.79	8.9
457.993	8.96
458.196	9.14
458.4	9.1
458.603	9
458.807	8.96
459.01	9.08
459.213	9.13
459.417	9.05
459.62	9.02
459.823	9.05
460.026	9.09
460.23	9.08
460.433	9.08
460.636	9.02
460.839	9.06
461.042	8.95
461.246	8.86
461.449	8.78
461.652	8.9
461.855	8.85
462.058	8.87
462.261	8.83
462.464	8.78
462.668	8.64
462.871	8.74
463.074	8.72
463.277	8.91
463.48	9.04
463.683	9.02
463.886	8.97
464.089	9.17
464.292	9.22
464.495	9.12
464.698	9.07
464.901	9.2
465.104	9.38
465.306	9.39
465.509	9.26
465.712	9.19
465.915	9.17
466.118	9.15
466.321	9.04
466.524	9.1
466.726	9.21
466.929	9.27
467.132	9.17
467.335	8.84
467.538	8.72
467.74	8.8
467.943	8.76
468.146	8.86
468.348	8.91
468.551	8.86
468.754	8.75
468.956	8.72
469.159	8.76
469.362	8.78
469.564	8.97
469.767	9.14
469.969	9.1
470.172	9.23
470.375	9.23
470.577	9.18
470.78	9.3
470.982	9.26
471.185	9.31
471.387	9.19
471.59	9.06
471.792	8.85
471.995	8.78
472.197	8.86
472.399	8.81
472.602	8.91
472.804	8.74
473.007	8.71
473.209	8.69
473.411	8.83
473.614	8.96
473.816	9.02
474.018	9.25
474.22	9.26
474.423	9.24
474.625	9.37
474.827	9.21
475.03	9.48
475.232	9.61
475.434	9.65
475.636	9.61
475.838	9.56
476.04	9.63
476.243	9.68
476.445	9.48
476.647	9.57
476.849	9.46
477.051	9.41
477.253	9.34
477.455	9.18
477.657	9.2
477.859	9.13
478.061	9.14
478.263	9.02
478.465	8.83
478.667	8.94
478.869	8.95
479.071	8.84
479.273	8.93
479.475	8.97
479.677	8.99
479.879	8.96
480.081	9.06
480.283	8.97
480.485	9.02
480.686	9.21
480.888	9.26
481.09	9.18
481.292	9.17
481.494	9.2
481.695	9.15
481.897	9.11
482.099	9.07
482.301	8.95
482.502	8.92
482.704	8.87
482.906	8.86
483.107	8.87
483.309	8.76
483.511	8.76
483.712	8.7
483.914	8.6
484.115	8.6
484.317	8.59
484.519	8.59
484.72	8.57
484.922	8.57
485.123	8.51
485.325	8.46
485.526	8.47
485.728	8.46
485.929	8.5
486.131	8.57
486.332	8.57
486.534	8.57
486.735	8.57
486.936	8.62
487.138	8.64
487.339	8.67
487.541	8.74
487.742	8.81
487.943	8.88
488.144	8.86
488.346	8.95
488.547	8.95
488.748	8.94
488.95	8.91
489.151	8.91
489.352	8.89
489.553	8.91
489.755	8.85
489.956	8.82
490.157	8.82
490.358	8.85
490.559	8.74
490.76	8.76
490.961	8.82
491.163	8.9
491.364	8.99
491.565	8.95
491.766	8.94
491.967	8.99
492.168	8.97
492.369	8.91
492.57	8.88
492.771	8.91
492.972	8.95
493.173	9.04
493.374	9.05
493.575	8.97
493.776	9.15
493.976	9.15
494.177	9.16
494.378	9.2
494.579	9.23
494.78	9.2
494.981	9.09
495.182	9.07
495.382	9.11
495.583	9.11
495.784	9.25
495.985	9.2
496.185	9.27
496.386	9.26
496.587	9.38
496.788	9.45
496.988	9.54
497.189	9.67
497.39	9.77
497.59	9.71
497.791	9.67
497.992	9.53
498.192	9.61
498.393	9.65
498.593	9.62
498.794	9.61
498.994	9.55
499.195	9.62
499.395	9.71
499.596	9.69
499.796	9.6
499.997	9.7
500.197	9.81
500.398	9.76
500.598	9.82
500.799	9.84
500.999	9.83
501.199	10.01
501.4	9.88
501.6	9.77
501.801	9.73
502.001	9.81
502.201	9.79
502.402	9.83
502.602	9.77
502.802	9.68
503.002	9.81
503.203	9.78
503.403	9.63
503.603	9.73
503.803	9.73
504.003	9.81
504.204	9.77
504.404	9.68
504.604	9.61
504.804	9.65
505.004	9.72
505.204	9.67
505.404	9.68
505.604	9.8
505.804	9.83
506.005	9.95
506.205	9.89
506.405	10.14
506.605	10.3
506.805	10.35
507.005	10.55
507.204	10.5
507.404	10.49
507.604	10.54
507.804	10.63
508.004	10.71
508.204	10.69
508.404	10.83
508.604	10.66
508.804	10.61
509.003	10.57
509.203	10.48
509.403	10.4
509.603	10.32
509.803	10.33
510.002	10.19
510.202	10.09
510.402	10.08
510.602	10.08
510.801	10.13
511.001	10.18
511.201	10.26
511.4	10.23
511.6	10.31
511.8	10.48
511.999	10.53
512.199	10.61
512.398	10.68
512.598	10.72
512.797	10.67
512.997	10.67
513.197	10.68
513.396	10.8
513.596	10.93
513.795	11.01
513.994	11.07
514.194	11.23
514.393	11.4
514.593	11.52
514.792	11.71
514.992	11.93
515.191	11.89
515.39	12.06
515.59	12.16
515.789	12.25
515.988	12.3
516.188	12.27
516.387	12.19
516.586	12.11
516.786	12.07
516.985	11.98
517.184	11.9
517.383	12.01
517.582	11.89
517.782	11.79
517.981	11.67
518.18	11.6
518.379	11.56
518.578	11.54
518.777	11.52
518.976	11.46
519.176	11.49
519.375	11.5
519.574	11.55
519.773	11.66
519.972	11.62
520.171	11.68
520.37	11.81
520.569	11.9
520.768	11.89
520.967	12
521.166	12.11
521.365	12.09
521.564	11.98
521.762	12
521.961	12.11
522.16	12.17
522.359	12.25
522.558	12.18
522.757	12.28
522.956	12.4
523.154	12.45
523.353	12.56
523.552	12.64
523.751	12.83
523.949	12.69
524.148	12.62
524.347	12.73
524.546	12.77
524.744	12.87
524.943	12.93
525.142	12.88
525.34	12.94
525.539	12.88
525.737	12.77
525.936	12.75
526.135	12.96
526.333	13.04
526.532	12.96
526.73	12.84
526.929	12.86
527.127	12.8
527.326	12.86
527.524	12.78
527.723	12.82
527.921	12.89
528.12	12.92
528.318	12.83
528.516	12.76
528.715	12.83
528.913	12.94
529.112	12.89
529.31	12.92
529.508	12.88
529.707	12.95
529.905	12.93
530.103	12.98
530.301	12.98
530.5	13.03
530.698	13.09
530.896	13.07
531.094	13.02
531.293	13.14
531.491	13.23
531.689	13.36
531.887	13.38
532.085	13.47
532.283	13.53
532.481	13.58
532.68	13.67
532.878	13.72
533.076	13.75
533.274	13.79
533.472	13.75
533.67	13.71
533.868	13.79
534.066	13.77
534.264	13.82
534.462	13.83
534.66	13.9
534.858	13.86
535.056	13.85
535.253	13.86
535.451	13.94
535.649	14.07
535.847	14.14
536.045	14.1
536.243	14.25
536.441	14.34
536.638	14.4
536.836	14.35
537.034	14.44
537.232	14.56
537.43	14.62
537.627	14.62
537.825	14.64
538.023	14.67
538.22	14.79
538.418	14.73
538.616	14.72
538.813	14.77
539.011	14.8
539.209	14.9
539.406	14.91
539.604	15.13
539.801	15.25
539.999	15.35
540.196	15.4
540.394	15.45
540.591	15.6
540.789	15.72
540.986	15.74
541.184	15.85
541.381	15.84
541.579	15.85
541.776	15.85
541.974	15.8
542.171	15.84
542.368	15.93
542.566	15.97
542.763	15.94
542.96	15.87
543.158	15.89
543.355	15.9
543.552	15.92
543.75	16.06
543.947	16.11
544.144	16.3
544.341	16.39
544.539	16.27
544.736	16.23
544.933	16.36
545.13	16.52
545.327	16.59
545.524	16.73
545.722	16.91
545.919	16.91
546.116	16.83
546.313	16.79
546.51	16.75
546.707	16.94
546.904	17
547.101	17.11
547.298	17.17
547.495	17.3
547.692	17.38
547.889	17.35
548.086	17.34
548.283	17.55
548.48	17.74
548.677	17.82
548.874	18.04
549.07	18.27
549.267	18.23
549.464	18.36
549.661	18.5
549.858	18.57
550.055	18.74
550.251	19
550.448	19.03
550.645	19.02
550.842	19.26
551.038	19.36
551.235	19.51
551.432	19.67
551.628	19.68
551.825	19.88
552.022	19.96
552.218	20.07
552.415	20.37
552.612	20.57
552.808	20.61
553.005	20.43
553.201	20.37
553.398	20.31
553.594	20.44
553.791	20.53
553.987	20.39
554.184	20.42
554.38	20.49
554.577	20.3
554.773	20.34
554.97	20.62
555.166	21.04
555.362	21.27
555.559	21.35
555.755	21.4
555.952	21.41
556.148	21.48
556.344	21.73
556.541	21.87
556.737	21.89
556.933	22.03
557.129	21.78
557.326	21.92
557.522	21.98
557.718	22.16
557.914	22.34
558.11	22.58
558.307	23
558.503	23.08
558.699	23.35
558.895	23.7
559.091	23.64
559.287	24.1
559.483	24.06
559.679	24.25
559.876	24.38
560.072	24.35
560.268	24.51
560.464	24.43
560.66	24.64
560.856	24.56
561.052	24.5
561.247	24.63
561.443	24.58
561.639	24.63
561.835	24.53
562.031	24.77
562.227	25.02
562.423	24.9
562.619	25.05
562.815	25.01
563.01	25.09
563.206	25.28
563.402	25.53
563.598	25.78
563.793	25.95
563.989	26.17
564.185	26.16
564.381	26.12
564.576	26.25
564.772	26.38
564.968	26.38
565.163	26.48
565.359	26.65
565.555	26.88
565.75	27.08
565.946	27.29
566.141	27.51
566.337	27.58
566.532	27.67
566.728	27.91
566.923	27.94
567.119	28.02
567.314	28.24
567.51	28.46
567.705	28.28
567.901	28.45
568.096	28.61
568.292	28.42
568.487	28.6
568.682	28.93
568.878	28.97
569.073	29.29
569.268	29.51
569.464	29.62
569.659	29.73
569.854	29.98
570.05	29.91
570.245	29.83
570.44	30.15
570.635	30.19
570.831	30.26
571.026	30.46
571.221	30.44
571.416	30.6
571.611	30.55
571.806	30.46
572.002	30.61
572.197	30.66
572.392	30.73
572.587	30.66
572.782	30.88
572.977	30.9
573.172	31
573.367	31
573.562	31.22
573.757	31.43
573.952	31.61
574.147	31.68
574.342	31.81
574.537	32.07
574.732	32.13
574.927	32.11
575.121	32.17
575.316	32.25
575.511	32.41
575.706	32.44
575.901	32.48
576.096	32.61
576.29	32.65
576.485	32.77
576.68	32.79
576.875	33.03
577.069	33.29
577.264	33.51
577.459	33.68
577.654	33.73
577.848	33.59
578.043	33.52
578.238	33.5
578.432	33.75
578.627	33.78
578.821	33.82
579.016	33.98
579.21	33.88
579.405	33.8
579.6	33.62
579.794	33.54
579.989	33.7
580.183	33.78
580.378	33.75
580.572	33.82
580.766	34.1
580.961	34.27
581.155	34.42
581.35	34.45
581.544	34.77
581.738	35.02
581.933	35.31
582.127	35.27
582.321	35.35
582.516	35.64
582.71	35.48
582.904	35.45
583.099	35.51
583.293	35.61
583.487	35.8
583.681	35.7
583.875	35.51
584.07	35.65
584.264	35.76
584.458	36.14
584.652	36.1
584.846	36.14
585.04	36.2
585.234	36.04
585.428	35.93
585.623	35.84
585.817	35.86
586.011	35.92
586.205	35.84
586.399	35.98
586.593	35.79
586.787	35.7
586.981	35.96
587.174	36.07
587.368	36.22
587.562	36.53
587.756	36.66
587.95	36.68
588.144	36.86
588.338	36.99
588.532	37.02
588.725	37.34
588.919	37.61
589.113	37.53
589.307	37.38
589.501	37.52
589.694	37.42
589.888	37.42
590.082	37.45
590.275	37.39
590.469	37.38
590.663	37.41
590.856	37.32
591.05	37.2
591.244	37.26
591.437	37.46
591.631	37.44
591.824	37.13
592.018	37.41
592.212	37.57
592.405	37.6
592.599	37.65
592.792	37.7
592.986	37.92
593.179	38.01
593.372	38.11
593.566	38.14
593.759	38.13
593.953	38.31
594.146	38.18
594.339	38.12
594.533	38.43
594.726	38.45
594.92	38.65
595.113	38.53
595.306	38.74
595.499	38.61
595.693	38.62
595.886	38.75
596.079	38.78
596.272	38.76
596.466	38.84
596.659	38.85
596.852	39.03
597.045	39.06
597.238	39.13
597.431	39.11
597.624	39.29
597.818	39.38
598.011	39.45
598.204	39.54
598.397	39.55
598.59	39.54
598.783	39.67
598.976	39.49
599.169	39.44
599.362	39.31
599.555	39.3
599.748	39.41
599.941	39.44
600.134	39.49
600.326	39.76
600.519	40.11
600.712	40.37
600.905	40.22
601.098	40.49
601.291	40.19
601.483	40.32
601.676	40.45
601.869	40.57
602.062	40.41
602.255	40.45
602.447	40.28
602.64	40.09
602.833	39.89
603.025	39.86
603.218	39.68
603.411	39.77
603.603	39.79
603.796	39.72
603.989	39.49
604.181	39.52
604.374	39.62
604.566	39.81
604.759	39.83
604.951	40.01
605.144	40.15
605.336	40.32
605.529	40.51
605.721	40.58
605.914	40.55
606.106	40.71
606.299	41.01
606.491	40.77
606.683	40.45
606.876	40.54
607.068	40.49
607.26	40.38
607.453	40.33
607.645	40.3
607.837	40.36
608.03	40.54
608.222	40.49
608.414	40.19
608.606	40.32
608.799	40.68
608.991	40.84
609.183	40.7
609.375	40.71
609.567	40.75
609.759	40.77
609.952	40.76
610.144	40.67
610.336	40.91
610.528	40.9
610.72	40.95
610.912	40.67
611.104	40.46
611.296	40.61
611.488	40.67
611.68	40.62
611.872	40.61
612.064	40.65
612.256	40.84
612.448	40.54
612.64	40.68
612.832	40.82
613.023	40.94
613.215	41
613.407	40.98
613.599	41.12
613.791	41.24
613.983	41.34
614.174	41.07
614.366	41.05
614.558	41.23
614.75	41.28
614.941	41.18
615.133	41.54
615.325	41.61
615.516	41.73
615.708	41.81
615.9	41.85
616.091	41.91
616.283	42.09
616.475	42.17
616.666	42.25
616.858	42.38
617.049	42.47
617.241	42.11
617.432	42.08
617.624	41.78
617.815	41.51
618.007	41.73
618.198	41.54
618.39	41.55
618.581	41.7
618.773	41.71
618.964	41.51
619.155	41.74
619.347	41.91
619.538	41.91
619.729	42.05
619.921	42.3
620.112	42.32
620.303	42.48
620.494	42.45
620.686	42.17
620.877	42.21
621.068	42.31
621.259	42.09
621.451	42.22
621.642	42.42
621.833	42.61
622.024	42.61
622.215	42.28
622.406	42.48
622.597	42.55
622.788	42.73
622.98	42.53
623.171	42.62
623.362	42.73
623.553	42.65
623.744	42.65
623.935	42.45
624.126	42.31
624.317	42.8
624.508	42.71
624.698	42.64
624.889	42.58
625.08	43.12
625.271	43.02
625.462	42.87
625.653	42.97
625.844	42.85
626.034	43.2
626.225	43.35
626.416	43.13
626.607	43.12
626.798	43.15
626.988	43.08
627.179	42.91
627.37	42.92
627.56	42.92
627.751	42.76
627.942	42.83
628.132	42.78
628.323	42.67
628.514	42.83
628.704	42.82
628.895	43.21
629.085	43.36
629.276	43.44
629.466	43.76
629.657	43.83
629.847	44.1
630.038	44.12
630.228	44.1
630.419	44.25
630.609	44.13
630.8	44
630.99	43.73
631.181	43.77
631.371	43.45
631.561	43.22
631.752	43.32
631.942	43.31
632.132	43.59
632.323	43.59
632.513	43.66
632.703	43.27
632.893	43.35
633.084	43.39
633.274	43.36
633.464	43.37
633.654	43.51
633.844	43.37
634.034	43.32
634.225	42.76
634.415	42.92
634.605	42.84
634.795	43.17
634.985	43.28
635.175	43.22
635.365	43.17
635.555	43.19
635.745	43.05
635.935	43.45
636.125	43.25
636.315	43.95
636.505	43.84
636.695	44.09
636.885	44.22
637.075	44.25
637.265	44.32
637.455	44.39
637.644	44.58
637.834	44.74
638.024	44.49
638.214	44.91
638.404	44.86
638.593	44.95
638.783	44.31
638.973	44.29
639.163	44.17
639.352	44.1
639.542	44.23
639.732	44.4
639.921	44.46
640.111	44.53
640.301	44.25
640.49	43.92
640.68	43.7
640.87	44.22
641.059	44.43
641.249	44.78
641.438	45.04
641.628	45.07
641.817	44.83
642.007	44.8
642.196	44.78
642.386	45.25
642.575	45.29
642.764	45.16
642.954	45.03
643.143	45.11
643.333	44.91
643.522	44.57
643.711	44.51
643.901	44.84
644.09	44.93
644.279	45.03
644.469	44.97
644.658	44.84
644.847	45.1
645.036	45.16
645.226	44.9
645.415	45.14
645.604	45.26
645.793	45.29
645.982	45.14
646.171	45.23
646.361	44.98
646.55	44.78
646.739	45.06
646.928	45.01
647.117	45.37
647.306	45.43
647.495	45.03
647.684	45.25
647.873	45.28
648.062	45.25
648.251	45.27
648.44	45.59
648.629	45.24
648.818	45.1
649.007	45.53
649.196	45.42
649.384	45.39
649.573	45.54
649.762	45.65
649.951	45.64
650.14	46.04
650.328	46.01
650.517	45.72
650.706	46.09
650.895	46.2
651.083	45.9
651.272	45.45
651.461	45.17
651.65	45.26
651.838	45.7
652.027	45.56
652.216	45.03
652.404	44.88
652.593	45.06
652.781	45.24
652.97	45.35
653.158	45.28
653.347	45.77
653.535	46.04
653.724	46.19
653.912	46.06
654.101	46.05
654.289	46
654.478	46.22
654.666	45.94
654.855	45.57
655.043	45.67
655.231	45.73
655.42	45.5
655.608	45.45
655.796	45.23
655.985	45.22
656.173	45.13
656.361	45.36
656.55	45.45
656.738	45.64
656.926	45.95
657.114	45.81
657.302	45.67
657.491	46
657.679	46.09
657.867	46.04
658.055	45.65
658.243	45.63
658.431	45.82
658.619	45.6
658.807	45.8
658.996	45.87
659.184	45.89
659.372	46.17
659.56	45.91
659.748	45.97
659.936	46.33
660.124	46.25
660.311	46.51
660.499	46.21
660.687	46.26
660.875	46.13
661.063	46.01
661.251	46.05
661.439	46.13
661.627	46.37
661.814	46.4
662.002	46.03
662.19	46.41
662.378	46.35
662.565	46.76
662.753	46.64
662.941	46.34
663.129	46
663.316	46.23
663.504	46.1
663.692	45.93
663.879	45.8
664.067	45.94
664.254	45.63
664.442	45.85
664.63	45.69
664.817	45.7
665.005	45.84
665.192	46.01
665.38	45.83
665.567	45.54
665.755	45.74
665.942	46.15
666.13	46.32
666.317	45.95
666.504	45.6
666.692	45.48
666.879	45.63
667.067	45.63
667.254	45.96
667.441	45.56
667.629	45.62
667.816	45.5
668.003	45.25
668.19	44.78
668.378	45.15
668.565	45.49
668.752	45.5
668.939	45.6
669.127	45.89
669.314	45.73
669.501	46.07
669.688	46.47
669.875	46.56
670.062	46.81
670.249	47.26
670.436	47.28
670.623	47.09
670.81	47.51
670.997	47.47
671.184	47.39
671.371	47.06
671.558	47.35
671.745	47.22
671.932	47.57
672.119	47.42
672.306	47.37
672.493	47.4
672.68	47.5
672.867	47.1
673.054	47.16
673.24	47.67
673.427	47.87
673.614	47.47
673.801	47.3
673.988	47.03
674.174	47.13
674.361	47.49
674.548	46.9
674.734	46.52
674.921	46.93
675.108	46.85
675.294	46.69
675.481	46.78
675.668	47.26
675.854	47.37
676.041	47.23
676.227	46.91
676.414	46.65
676.601	47.43
676.787	47.91
676.974	47.87
677.16	47.83
677.347	47.78
677.533	48.13
677.719	47.93
677.906	47.78
678.092	48.2
678.279	48.39
678.465	48.13
678.651	47.68
678.838	47.5
679.024	46.9
679.21	46.72
679.397	46.63
679.583	46.52
679.769	46.42
679.955	46.61
680.142	46.22
680.328	46.19
680.514	46.16
680.7	46.36
680.886	46.49
681.073	47.18
681.259	47.64
681.445	47.52
681.631	47.48
681.817	46.85
682.003	46.73
682.189	46.52
682.375	46.71
682.561	46.91
682.747	47.27
682.933	46.99
683.119	46.68
683.305	46.49
683.491	46.57
683.677	46.47
683.863	47.34
684.049	47.44
684.235	47.63
684.42	47.84
684.606	47.61
684.792	47.19
684.978	47.17
685.164	47.39
685.349	47.25
685.535	47.52
685.721	47.51
685.907	47.54
686.092	47.58
686.278	47.67
686.464	47.23
686.649	47.53
686.835	47.78
687.021	48.4
687.206	48.37
687.392	48.5
687.577	48.19
687.763	48.57
687.948	48.18
688.134	48.18
688.319	48.43
688.505	48.74
688.69	48.62
688.876	48.81
689.061	48.55
689.247	48.63
689.432	48.74
689.618	48.49
689.803	48.02
689.988	47.86
690.174	48.1
690.359	48
690.544	47.82
690.73	47.83
690.915	47.43
691.1	47.29
691.285	47.18
691.471	46.98
691.656	47.82
691.841	48.06
692.026	48.18
692.211	48.1
692.396	48.43
692.582	48.43
692.767	48.29
692.952	48.65
693.137	48.74
693.322	48.84
693.507	48.93
693.692	48.6
693.877	48.52
694.062	49.55
694.247	49.75
694.432	49.26
694.617	49.05
694.802	49.4
694.987	49.23
695.172	49.17
695.357	48.89
695.541	49.09
695.726	48.9
695.911	48.79
696.096	48.46
696.281	47.76
696.466	48.08
696.65	48.27
696.835	47.93
697.02	47.65
697.204	48.41
697.389	48.62
697.574	48.49
697.759	48.52
697.943	48.58
698.128	48.24
698.312	48.45
698.497	48.08
698.682	48.1
698.866	48.28
699.051	48.24
699.235	47.76
699.42	47.54
699.604	47.46
699.789	47.24
699.973	46.92
700.158	47.17
700.342	47.22
700.527	47.61
700.711	47.62
700.895	48.04
701.08	48.14
701.264	48.38
701.448	48.76
701.633	48.47
701.817	48.74
702.001	49.32
702.186	48.93
702.37	49.05
702.554	48.61
702.738	48.24
702.923	47.02
703.107	47.22
703.291	46.84
703.475	46.28
703.659	46.23
703.843	46.91
704.027	46.63
704.212	46.22
704.396	45.69
704.58	46.16
704.764	46.77
704.948	47.24
705.132	47.55
705.316	47.39
705.5	46.98
705.684	47.22
705.868	46.47
706.052	46.96
706.235	47.86
706.419	47.85
706.603	47.97
706.787	47.76
706.971	47.61
707.155	47.22
707.339	47.21
707.522	47.82
707.706	48.39
707.89	48.45
708.074	48.46
708.257	47.53
708.441	47.93
708.625	47.19
708.808	46.88
708.992	46.91
709.176	47.35
709.359	48.47
709.543	48.49
709.727	48.68
709.91	48.71
710.094	48.41
710.277	48.94
710.461	48.96
710.644	48.93
710.828	49.06
711.011	49.5
711.195	49.23
711.378	49.26
711.562	48.74
711.745	48.13
711.928	48.06
712.112	48.17
712.295	48.56
712.478	48.97
712.662	49.63
712.845	50.66
713.028	50.82
713.212	50.68
713.395	50.25
713.578	50.38
713.761	50.46
713.945	50.37
714.128	50.82
714.311	50.62
714.494	49.81
714.677	49.37
714.86	48.81
715.043	48.49
715.227	48.77
715.41	48.39
715.593	49.39
715.776	49.81
715.959	49.7
716.142	48.88
716.325	48.6
716.508	48.9
716.691	49.28
716.874	48.79
717.057	48.91
717.239	48.19
717.422	48.36
717.605	48.46
717.788	48.11
717.971	48.37
718.154	48.69
718.337	48.62
718.519	48.72
718.702	48.35
718.885	48.35
719.068	48.93
719.25	49.81
719.433	50.22
719.616	49.65
719.798	49.9
719.981	50.42
720.164	50.19
720.346	50.29
720.529	50.31
720.712	50.86
720.894	51.87
721.077	51.49
721.259	51.33
721.442	50.93
721.624	50.41
721.807	51.06
721.989	50.55
722.172	50.82
722.354	51.03
722.537	50.79
722.719	50.7
722.901	50.41
723.084	50.33
723.266	50.24
723.448	49.57
723.631	49.55
723.813	48.77
723.995	49.03
724.178	49.34
724.36	49.03
724.542	49.22
724.724	49.24
724.907	48.81
725.089	48.52
725.271	48.73
725.453	48.19
725.635	48.66
725.817	48.89
725.999	48.57
726.181	48.46
726.364	49.14
726.546	48.18
726.728	48.38
726.91	48.44
727.092	48.38
727.274	48.33
727.456	48.81
727.638	47.98
727.819	47.87
728.001	47.71
728.183	47.77
728.365	47.43
728.547	48.6
728.729	48.79
728.911	48.58
729.093	49.01
729.274	48.94
729.456	49.32
729.638	50.16
729.82	50.22
730.001	50.2
730.183	49.87
730.365	49.56
730.546	49.3
730.728	48.78
730.91	48.87
731.091	48.71
731.273	48.81
731.455	49.11
731.636	48.56
731.818	48.82
731.999	49.25
732.181	49.6
732.362	50.35
732.544	50.8
732.725	50.83
732.907	50.17
733.088	50.35
733.27	50.32
733.451	49.51
733.633	50.15
733.814	49.77
733.995	49.72
734.177	50.2
734.358	49.99
734.539	49.62
734.721	49.38
734.902	49.89
735.083	49.58
735.264	50.13
735.446	52.12
735.627	51.44
735.808	51.34
735.989	51.51
736.17	50.97
736.351	51.32
736.533	51.5
736.714	52.42
736.895	53.05
737.076	53.95
737.257	53.91
737.438	53.03
737.619	53.14
737.8	53.03
737.981	52.49
738.162	52.26
738.343	52.83
738.524	53.08
738.705	52.43
738.886	52.33
739.067	51.6
739.247	50.92
739.428	49.74
739.609	49.84
739.79	50.21
739.971	50.46
740.151	51.22
740.332	49.6
740.513	48.82
740.694	49.69
740.874	49.88
741.055	50.11
741.236	50.94
741.417	51.43
741.597	52.1
741.778	51.21
741.958	50.84
742.139	50.63
742.32	51.35
742.5	52.45
742.681	51.51
742.861	51.88
743.042	50.94
743.222	50.82
743.403	50.61
743.583	49.74
743.764	50.01
743.944	51.05
744.124	50.38
744.305	49.97
744.485	49.8
744.666	50.22
744.846	49.54
745.026	51.14
745.207	51.04
745.387	52.66
745.567	53.6
745.747	53.71
745.928	53.38
746.108	54.54
746.288	54.4
746.468	53.65
746.648	53.55
746.829	53.85
747.009	53.47
747.189	53.02
747.369	52.31
747.549	52.1
747.729	52.78
747.909	53.07
748.089	52.14
748.269	52.21
748.449	52.12
748.629	51.2
748.809	50.55
748.989	50.99
749.169	50.44
749.349	50.66
749.529	50.79
749.709	50.9
749.889	50.93
750.068	50.22
750.248	50.4
750.428	50.16
750.608	51.3
750.788	52.16
750.967	51.93
751.147	52.45
751.327	52.38
751.507	51.56
751.686	50.82
751.866	51.83
752.046	53.33
752.225	53.77
752.405	54.94
752.585	54.11
752.764	54.14
752.944	53.03
753.123	53.39
753.303	53.62
753.482	53.92
753.662	53.52
753.841	52.48
754.021	52.94
754.2	52.03
754.38	52.13
754.559	52.16
754.739	51.93
754.918	52.07
755.097	51.2
755.277	50.57
755.456	51.1
755.635	52.13
755.815	52.02
755.994	50.64
756.173	50.66
756.352	50.62
756.532	50.59
756.711	50.02
756.89	49.91
757.069	50.42
757.248	50.44
757.427	49.72
757.607	48.93
757.786	48.95
757.965	49.11
758.144	49.75
758.323	50.19
758.502	50.56
758.681	50.67
758.86	50.68
759.039	50.52
759.218	50.74
759.397	51.38
759.576	51.69
759.755	50.7
759.934	51.41
760.113	52.43
760.291	51.01
760.47	50.75
760.649	50.75
760.828	51.3
761.007	51.5
761.186	51.16
761.364	50.81
761.543	50.99
761.722	51.06
761.901	49.87
762.079	49.08
762.258	49.83
762.437	50.22
762.615	50.01
762.794	50.16
762.972	49.37
763.151	49.1
763.33	48.96
763.508	49.17
763.687	49.65
763.865	50.03
764.044	50
764.222	49.1
764.401	48.82
764.579	48.95
764.758	48.24
764.936	48.98
765.114	49.03
765.293	49.39
765.471	49.9
765.65	49.79
765.828	50.35
766.006	50.33
766.184	50.9
766.363	51.21
766.541	51.58
766.719	52.32
766.898	52.3
767.076	52.51
767.254	52.28
767.432	51.55
767.61	50.77
767.788	50.37
767.967	50.68
768.145	50.69
768.323	50.78
768.501	51.36
768.679	51.86
768.857	51.65
769.035	51.89
769.213	51.57
769.391	51.92
769.569	54.63
769.747	55.75
769.925	55.74
770.103	56.34
770.281	56.15
770.459	55.37
770.636	55.3
770.814	55.44
770.992	55.23
771.17	56.69
771.348	57.16
771.525	55.16
771.703	53.99
771.881	54.45
772.059	53.83
772.236	53.55
772.414	53.76
772.592	53.68
772.769	53.89
772.947	53.68
773.125	54.1
773.302	52.39
773.48	51.87
773.657	51.66
773.835	49.63
774.013	49.63
774.19	49.38
774.368	48.67
774.545	47.35
774.723	48.96
774.9	49.09
775.077	48.42
775.255	48.9
775.432	49.99
775.61	51.22
775.787	51.42
775.964	51.72
776.142	52.39
776.319	54.75
776.496	55.17
776.674	54.07
776.851	54.02
777.028	53.96
777.205	54.66
777.382	54.96
777.56	54.87
777.737	55.75
777.914	56.17
778.091	55.84
778.268	53.25
778.445	53.3
778.622	52.83
778.8	54.56
778.977	54.24
779.154	54.85
779.331	54.93
779.508	53.58
779.685	54.76
779.862	56.07
780.038	56.66
780.215	58.24
780.392	57.31
780.569	57.53
780.746	56
780.923	55.83
781.1	55.69
781.277	55.18
781.453	55.56
781.63	53.57
781.807	52.64
781.984	52.68
782.16	51.12
782.337	52.38
782.514	52.39
782.691	53.49
782.867	52.74
783.044	51.21
783.221	52.21
783.397	51.65
783.574	51.36
783.75	51.4
783.927	50.67
784.103	51.42
784.28	52.63
784.456	53.5
784.633	54.09
784.809	54.84
784.986	56.12
785.162	53.76
785.339	54.61
785.515	56.03
785.692	54.85
785.868	54.7
786.044	54.18
786.221	53.07
786.397	53.16
786.573	51.34
786.749	51.69
786.926	50.36
787.102	50.39
787.278	48.76
787.454	48.36
787.631	49.33
787.807	49.42
787.983	51.36
788.159	52.21
788.335	51.11
788.511	52.29
788.687	52.94
788.863	52.87
789.039	54.69
789.216	55.98
789.392	57.65
789.568	57.76
789.744	59.46
789.919	58.82
790.095	57.86
790.271	59.53
790.447	57.9
790.623	56.08
790.799	57.86
790.975	56.98
791.151	56.31
791.327	56.39
791.502	55.34
791.678	52.64
791.854	51.34
792.03	51.29
792.205	49.92
792.381	51.5
792.557	51.54
792.733	50.67
792.908	50.26
793.084	51.64
793.259	49.73
793.435	50.7
793.611	52.85
793.786	54.32
793.962	55.95
794.137	55.36
794.313	55.13
794.488	57.61
794.664	56.57
794.839	57.92
795.015	57.8
795.19	56.4
795.366	56.79
795.541	54.19
795.716	50.37
795.892	49.32
796.067	50.96
796.242	50.77
796.418	48.43
796.593	52.63
796.768	52.84
796.944	50.98
797.119	53.69
797.294	52.87
797.469	53.6
797.644	58.27
797.82	57.58
797.995	55.16
798.17	54.79
798.345	55.97
798.52	51.88
798.695	52.69
798.87	52.61
799.045	51.09
799.22	51.69
799.395	52.13
799.57	49.67
799.745	50.51
799.92	54.28
800.095	55.53
800.27	55.69
800.445	58.42
800.62	57.2
800.795	60.58
800.97	60.43
801.145	59.34
801.319	59.3
801.494	57.58
801.669	57.74
801.844	54.88
802.018	54.53
802.193	55.41
802.368	51.1
802.543	54.37
802.717	51.73
802.892	54.69
803.067	55.2
803.241	56.16
803.416	60.82
803.59	59.46
803.765	61.67
803.94	59.61
804.114	55.95
804.289	58.24
804.463	55.69
804.638	55.83
804.812	54.35
804.986	54.37
805.161	54
805.335	51.4
805.51	51.69
805.684	50.36
805.858	50.97
806.033	54.52
806.207	56.45
806.381	53.36
806.556	56.02
806.73	54.9
806.904	54.56
807.078	55.41
807.253	56.86
807.427	57.26
807.601	56.95
807.775	57.07
807.949	54.56
808.123	53.05
808.298	54.17
808.472	53.84
808.646	56.12
808.82	57.64
808.994	54.92
809.168	53.97
809.342	53.58
809.516	52.95
809.69	56.53
809.864	57.62
810.038	57.4
810.212	59.12
810.385	55.09
810.559	53.6
810.733	53.96
810.907	56.23
811.081	56.27
811.255	56.08
811.428	55.17
811.602	52.88
811.776	52.68
811.95	54.04
812.123	55.55
812.297	56.35
812.471	55.3
812.644	54.83
812.818	54.15
812.992	54.47
813.165	56.47
813.339	60.7
813.512	60.5
813.686	61.59
813.86	60.27
814.033	58.55
814.207	59.43
814.38	59.95
814.554	59.82
814.727	59.36
814.9	59.26
815.074	56.22
815.247	53.08
815.421	53.03
815.594	51.98
815.767	51.21
815.941	51.15
816.114	52.5
816.287	51.72
816.46	53.21
816.634	55.13
816.807	54.92
816.98	53.9
817.153	55.53
817.327	53
817.5	51.82
817.673	52.07
817.846	53.9
818.019	54.95
818.192	56.12
818.365	56.2
818.538	57.1
818.711	58
818.884	59.42
819.057	57.63
819.23	59.09
819.403	58.67
819.576	59.6
819.749	58.54
819.922	55.51
820.095	53.94
820.268	52.88
820.441	52.02
820.614	50.17
820.786	49.43
820.959	50.89
821.132	51.95
821.305	53.17
821.477	52.37
821.65	50.08
821.823	50.69
821.996	51.41
822.168	51.2
822.341	49.94
822.514	50.33
822.686	50.51
822.859	50.12
823.031	49.36
823.204	49.01
823.376	49.05
823.549	49.69
823.722	49.37
823.894	49.1
824.067	49.51
824.239	49.83
824.411	49.88
824.584	50.18
824.756	49.73
824.929	50.01
825.101	50.26
825.273	49.87
825.446	50.12
825.618	49.94
825.79	50.14
825.963	49.5
826.135	49.94
826.307	50.29
826.479	49.47
826.652	50.19
826.824	50.81
826.996	50.62
827.168	50.77
827.34	50.41
827.512	50.93
827.684	50.82
827.856	51.13
828.029	50.9
828.201	50
828.373	51.07
828.545	51.33
828.717	49.97
828.889	50.48
829.061	51.3
829.232	52.79
829.404	52.74
829.576	53.32
829.748	53.16
829.92	53.04
830.092	54.11
830.264	54
830.436	53.86
830.607	53.84
830.779	53
830.951	53.22
831.123	51.83
831.294	52.73
831.466	52.14
831.638	52.91
831.809	54.22
831.981	53.16
832.153	52.35
832.324	53.71
832.496	54.41
832.667	52.52
832.839	52.13
833.011	50.08
833.182	49.68
833.354	50.68
833.525	49.81
833.697	52.1
833.868	52.79
834.039	52.73
834.211	51.58
834.382	51.32
834.554	53.43
834.725	54.13
834.896	54.78
835.068	56.13
835.239	54.66
835.41	56.19
835.581	53.48
835.753	54.26
835.924	55.62
836.095	55.56
836.266	57
836.438	57.11
836.609	55.09
836.78	55.72
836.951	55.01
837.122	56.74
837.293	56.61
837.464	60.16
837.635	60.39
837.806	57.77
837.977	57.95
838.148	57.2
838.319	56.44
838.49	58.35
838.661	57.79
838.832	54.63
839.003	54.52
839.174	51.45
839.345	50.39
839.516	49.52
839.687	50.86
839.857	48.79
840.028	45.48
840.199	47.12
840.37	46.56
840.54	48.92
840.711	52.11
840.882	50.73
841.053	54.43
841.223	52.43
841.394	52.98
841.564	56.11
841.735	57.32
841.906	65.11
842.076	66.65
842.247	66.76
842.417	65.77
842.588	66.09
842.758	68
842.929	64.82
843.099	65.17
843.27	64.46
843.44	63.94
843.611	65.14
843.781	61.2
843.951	57.99
844.122	56.82
844.292	59.38
844.462	62.25
844.633	62.89
844.803	56.1
844.973	56.72
845.144	55.9
845.314	47.65
845.484	49.07
845.654	50.71
845.824	56.28
845.995	56.01
846.165	56.63
846.335	50.38
846.505	54.56
846.675	72.96
846.845	92.75
847.015	101.6
847.185	116.47
847.355	114.14
847.525	112.89
847.695	101.64
847.865	104.38
848.035	105.04
848.205	109.18
848.375	95.45
848.545	92.64
848.715	70.95
848.884	64.96
849.054	62.92
849.224	69.8
849.394	72.72
849.564	77.22
849.733	80.18
849.903	85.86
850.073	90.32
850.243	106.04
850.412	97.93
850.582	95.59
850.752	103.61
850.921	94.74
851.091	87.17
851.26	85.26
851.43	86.56
851.599	89.3
851.769	85.81
851.939	76.7
852.108	76.91
852.278	79.46
852.447	85.77
852.616	81.55
852.786	82.24
852.955	88.42
853.125	87.17
853.294	77.37
853.463	66.55
853.633	60.82
853.802	66.12
853.971	60.7
854.141	58.9
854.31	58.91
854.479	70.31
854.648	82.64
854.818	71.09
854.987	73.6
855.156	86.48
855.325	92.22
855.494	98.57
855.663	96.54
855.832	95.74
856.001	98.42
856.171	99.19
856.34	90.94
856.509	88.2
856.678	94.97
856.847	88.78
857.016	91.65
857.185	87.35
857.353	86.27
857.522	89.86
857.691	85.67
857.86	82.6
858.029	77.92
858.198	73.86
858.367	73.04
858.535	72.98
858.704	74.89
858.873	73.28
859.042	77.49
859.21	72.74
859.379	66.03
859.548	78.07
859.717	82.75
859.885	84.86
860.054	83.47
860.222	78.3
860.391	79.55
860.56	76.59
860.728	70.59
860.897	69.02
861.065	69.88
861.234	71.31
861.402	65.73
861.571	62.25
861.739	65
861.908	65.65
862.076	70.67
862.244	61.95
862.413	63.92
862.581	73.36
862.749	81.45
862.918	92.93
863.086	96.31
863.254	95.07
863.423	100.21
863.591	92.31
863.759	99.01
863.927	97.77
864.096	97.45
864.264	110.11
864.432	111.65
864.6	112.79
864.768	109.9
864.936	111.62
865.104	101.13
865.272	105.13
865.44	93.14
865.608	92.66
865.776	83.41
865.944	87.75
866.112	78.56
866.28	69.29
866.448	55.37
866.616	50.91
866.784	56.36
866.952	59.83
867.12	51.01
867.288	57.15
867.455	64.31
867.623	67.22
867.791	64.72
867.959	75.8
868.127	76.2
868.294	78.14
868.462	70.35
868.63	63.92
868.797	61.95
868.965	70.18
869.133	75.8
869.3	69.63
869.468	71.51
869.636	73.71
869.803	61.12
869.971	61.33
870.138	58.46
870.306	65.42
870.473	72.18
870.641	64.12
870.808	59.62
870.975	53.71
871.143	51.41
871.31	45.14
871.478	42.11
871.645	42
871.812	35.29
871.98	37.98
872.147	29.17
872.314	22.66
872.482	29.67
872.649	30.11
872.816	31.04
872.983	40.32
873.15	55.72
873.318	60.52
873.485	61.48
873.652	56.12
873.819	55.83
873.986	71.17
874.153	65.96
874.32	62.95
874.487	54.71
874.654	48.11
874.821	42.82
874.988	41.13
875.155	40.15
875.322	37.26
875.489	44.65
875.656	56.31
875.823	53.86
875.99	63.86
876.157	71.71
876.324	83.3
876.49	99.79
876.657	99.34
876.824	105.69
876.991	115.55
877.157	134.13
877.324	140.24
877.491	132.66
877.658	120.91
877.824	127.32
877.991	123.73
878.157	129.92
878.324	123.92
878.491	116.69
878.657	109.16
878.824	99.04
878.99	82.48
879.157	73.34
879.323	68.53
879.49	69.57
879.656	67.8
879.823	68.9
879.989	64.94
880.156	61.8
880.322	66.02
880.488	62.92
880.655	65.5
880.821	76.18
880.987	74.95
881.154	71.84
881.32	67.05
881.486	64.55
881.652	61.46
881.819	58.01
881.985	56.16
882.151	54.71
882.317	56.6
882.483	53.52
882.649	51.37
882.816	53.89
882.982	54.53
883.148	52.9
883.314	52.02
883.48	51.92
883.646	52.81
883.812	53.37
883.978	53.49
884.144	51.85
884.31	51.08
884.476	51.51
884.642	50.06
884.807	49.89
884.973	50.38
885.139	49.79
885.305	51.88
885.471	53.2
885.637	50.59
885.802	50.54
885.968	51.41
886.134	53.46
886.3	50.41
886.465	52.48
886.631	52.01
886.797	53.32
886.962	55.04
887.128	53.01
887.293	52.16
887.459	54.85
887.625	54.56
887.79	57.69
887.956	57.41
888.121	62.41
888.287	58.4
888.452	60.23
888.618	60.02
888.783	62.54
