Data from LC_211__Reflection_5.txt Node
Date: Thu Nov 19 12:28:46 EST 2015
User: robert
Spectrometer: USB4E03001
Autoset integration time: false
Trigger mode: 4
Integration Time (sec): 1.000000E-1
Scans to average: 15
Electric dark correction enabled: true
Nonlinearity correction enabled: false
Boxcar width: 5
Stray light correction enabled: false
XAxis mode: Wavelengths
Stop averaging: false
Number of Pixels in Spectrum: 3648
>>>>>Begin Spectral Data<<<<<
177.566	1146.15
177.785	-1191.5
178.005	282.73
178.225	140.85
178.445	131.85
178.665	122.16
178.885	-246.35
179.105	-919.78
179.324	-379.73
179.544	-1096.44
179.764	420.7
179.984	1624.46
180.204	1176.92
180.423	358.86
180.643	235.18
180.863	158.39
181.083	189.46
181.302	253.47
181.522	438.69
181.742	185.47
181.961	206.21
182.181	218.85
182.401	157.11
182.621	121.07
182.84	136.59
183.06	128.03
183.279	171.9
183.499	122.62
183.719	130.7
183.938	112.17
184.158	320.13
184.377	221.82
184.597	479.2
184.816	-481.62
185.036	-131.61
185.256	-5.21
185.475	32.89
185.695	33.12
185.914	31.84
186.134	19.1
186.353	-4.61
186.572	-19.76
186.792	-56.56
187.011	318.17
187.231	110.77
187.45	497.3
187.67	241.33
187.889	290.46
188.108	1255.82
188.328	357.22
188.547	356.19
188.766	-611.3
188.986	-2.12
189.205	32.79
189.424	-0.83
189.644	0.39
189.863	-51.43
190.082	-54.39
190.302	-0.77
190.521	20.02
190.74	2.83
190.959	-40.3
191.178	-90.51
191.398	-265.59
191.617	-1624.22
191.836	-808.19
192.055	-308.3
192.274	-155.66
192.494	-50.01
192.713	-138.03
192.932	-113.93
193.151	-156.88
193.37	-42.39
193.589	-298.42
193.808	955.71
194.027	-250.08
194.246	-139.6
194.465	321.7
194.685	-1075.27
194.904	82.33
195.123	767.95
195.342	335.58
195.561	253.3
195.78	1455.92
195.999	105.44
196.218	-37.61
196.436	13276.92
196.655	-901.79
196.874	-45.65
197.093	-119.8
197.312	-141.71
197.531	-82.72
197.75	-381.35
197.969	-90.21
198.188	2145.38
198.407	404.32
198.625	183.51
198.844	145.52
199.063	127.33
199.282	98.06
199.501	114.6
199.719	106.86
199.938	104.94
200.157	103.52
200.376	105.04
200.594	108.82
200.813	142.33
201.032	202.16
201.251	254.71
201.469	67.1
201.688	94.25
201.907	50.33
202.125	52.6
202.344	84.51
202.563	95.01
202.781	104.06
203	141.61
203.218	130.29
203.437	239.39
203.656	434.85
203.874	3045.7
204.093	1236.56
204.311	-1525.95
204.53	-252.97
204.748	-136.88
204.967	-114.77
205.185	-124.22
205.404	-126.28
205.622	-121.86
205.841	-190.74
206.059	-520.78
206.278	-5957.99
206.496	-349.63
206.715	-732.69
206.933	77.01
207.151	48.51
207.37	34.54
207.588	49.29
207.806	42.2
208.025	87.11
208.243	77.84
208.461	208.17
208.68	671.68
208.898	357.48
209.116	-12363.46
209.335	540.1
209.553	-228.48
209.771	-158.7
209.989	-342.82
210.208	-121.96
210.426	-259.36
210.644	230.63
210.862	151.52
211.081	175.26
211.299	90.48
211.517	136.12
211.735	1756.73
211.953	229.31
212.171	109.66
212.39	127.94
212.608	83.45
212.826	85.08
213.044	140.89
213.262	152.13
213.48	116.15
213.698	176.62
213.916	124.37
214.134	123.08
214.352	125.12
214.57	147.47
214.788	212.26
215.006	-1178.37
215.224	-114.03
215.442	-117.62
215.66	-19.87
215.878	-43.38
216.096	-60.19
216.314	-76.07
216.532	-35.54
216.75	-88.42
216.968	-74.5
217.185	-99.73
217.403	-75.04
217.621	-140.26
217.839	-119.14
218.057	-145.36
218.275	-31.42
218.492	-14.81
218.71	1.94
218.928	-5.62
219.146	17.1
219.363	10.49
219.581	2.17
219.799	-41.7
220.017	-35.77
220.234	-33.73
220.452	-27.3
220.67	-172.97
220.887	-98.35
221.105	-82.18
221.323	-104.37
221.54	-118.03
221.758	-130.45
221.976	-67.21
222.193	-21.1
222.411	-14.05
222.629	-18.31
222.846	-26.29
223.064	-26.33
223.281	-32.68
223.499	-58.9
223.716	-36.64
223.934	-35.23
224.151	-44.97
224.369	-56.84
224.586	-59.77
224.804	-297.77
225.021	-200.17
225.239	-212.4
225.456	-265.05
225.674	-320.47
225.891	-103.08
226.108	-123.29
226.326	-104.24
226.543	-91.13
226.76	-103.85
226.978	-124.95
227.195	-67.78
227.413	-61
227.63	-45.53
227.847	-34.08
228.064	-22.88
228.282	-20.66
228.499	-15.16
228.716	-12.59
228.934	-11.68
229.151	-7.14
229.368	-2.9
229.585	-1.95
229.802	-2.09
230.02	-0.62
230.237	-1.44
230.454	0.77
230.671	1.03
230.888	-0.87
231.105	1.64
231.323	2.12
231.54	6.12
231.757	6.92
231.974	8.57
232.191	12.61
232.408	15.29
232.625	19.55
232.842	22.23
233.059	21.37
233.276	27.8
233.493	21.53
233.71	27.12
233.927	17.7
234.144	19.09
234.361	16.62
234.578	10.12
234.795	2.3
235.012	1.34
235.229	-5.33
235.446	-5.48
235.663	-8.42
235.879	-1.88
236.096	-4.44
236.313	-2.09
236.53	-0.95
236.747	6.64
236.964	10.54
237.181	19.35
237.397	14.05
237.614	13.85
237.831	9.67
238.048	8.95
238.264	5.98
238.481	7.55
238.698	7.18
238.915	8.49
239.131	-2.1
239.348	-3.07
239.565	-3.19
239.781	1.1
239.998	2.22
240.215	7.62
240.431	11.5
240.648	11.93
240.865	13.61
241.081	13.53
241.298	11.42
241.514	13.19
241.731	14.14
241.947	15.05
242.164	13.44
242.38	12.56
242.597	10.5
242.814	9.18
243.03	6.44
243.246	4.87
243.463	5.85
243.679	8.84
243.896	8.87
244.112	9.04
244.329	6.24
244.545	7.83
244.762	9.76
244.978	13.19
245.194	13.22
245.411	14.92
245.627	15.33
245.843	15.66
246.06	11.95
246.276	11.31
246.492	10.92
246.709	11.38
246.925	10.83
247.141	9.36
247.357	9.27
247.574	9.69
247.79	10.13
248.006	9.05
248.222	7.39
248.439	6.96
248.655	6.84
248.871	6.42
249.087	6.14
249.303	5.95
249.519	5.58
249.736	3.93
249.952	2.75
250.168	2.54
250.384	3.31
250.6	5.46
250.816	8.57
251.032	8.53
251.248	7.49
251.464	7.45
251.68	8.11
251.896	9.97
252.112	8.69
252.328	7.36
252.544	5.19
252.76	5.69
252.976	6.27
253.192	3.26
253.408	5.52
253.624	6.07
253.84	3.82
254.056	3.22
254.272	3.16
254.487	3.69
254.703	6.73
254.919	7.14
255.135	6.03
255.351	4.99
255.567	3.7
255.782	-2.75
255.998	-4.99
256.214	-2.3
256.43	-2.58
256.646	-1.91
256.861	-1.5
257.077	-4.82
257.293	-4.45
257.508	-1.55
257.724	0.58
257.94	2.53
258.155	6
258.371	6.61
258.587	5.92
258.802	6.09
259.018	6.1
259.234	6.54
259.449	6.98
259.665	7.72
259.88	7.63
260.096	6.05
260.312	5.81
260.527	5.06
260.743	5.79
260.958	5.8
261.174	5.55
261.389	5.09
261.605	4.96
261.82	5.64
262.036	4.47
262.251	3.99
262.466	3.74
262.682	2.96
262.897	3.43
263.113	2.6
263.328	3.11
263.543	3.11
263.759	3.68
263.974	2.25
264.189	-0.11
264.405	1.98
264.62	2.74
264.835	4.77
265.051	3.96
265.266	1.27
265.481	2.39
265.696	1.84
265.912	0.96
266.127	1.84
266.342	3.4
266.557	3.13
266.773	2.98
266.988	2.06
267.203	2.51
267.418	4.53
267.633	6.66
267.848	5.84
268.064	5.48
268.279	6.24
268.494	4.93
268.709	5.12
268.924	6.37
269.139	6.65
269.354	6.94
269.569	5.7
269.784	3.58
269.999	2.94
270.214	3.02
270.429	4.64
270.644	3.87
270.859	3.96
271.074	3.67
271.289	3.41
271.504	3.87
271.719	4.55
271.934	4.72
272.149	6.05
272.363	6.41
272.578	7.01
272.793	5.74
273.008	6.39
273.223	6.41
273.438	6.27
273.653	5.84
273.867	6.4
274.082	5.79
274.297	7.94
274.512	8.55
274.726	8.48
274.941	8.91
275.156	9.66
275.371	10.11
275.585	10.8
275.8	9.19
276.015	9.01
276.229	8.62
276.444	8.52
276.659	6.46
276.873	4.75
277.088	3.7
277.302	1.75
277.517	1.88
277.732	1.78
277.946	-0.21
278.161	2.73
278.375	2.55
278.59	2.2
278.804	2.92
279.019	3.15
279.233	4.58
279.448	5.21
279.662	6.63
279.877	5.72
280.091	5.29
280.306	6.94
280.52	6.51
280.735	6.5
280.949	6.22
281.163	5.9
281.378	4.61
281.592	4.58
281.806	5.31
282.021	4.93
282.235	5.38
282.449	5.48
282.664	5.4
282.878	5.62
283.092	7.28
283.307	8.59
283.521	7.27
283.735	7.59
283.949	7.87
284.164	6.73
284.378	6.63
284.592	8.17
284.806	9.8
285.02	9.12
285.234	8.15
285.449	7.08
285.663	5.87
285.877	6.9
286.091	7.47
286.305	7.55
286.519	8.37
286.733	7.46
286.947	6.43
287.161	4.7
287.375	5.29
287.589	5.49
287.803	4.87
288.017	4.52
288.231	3.98
288.445	4.35
288.659	4.35
288.873	3.17
289.087	4.51
289.301	3.67
289.515	3.64
289.729	4.07
289.943	4.01
290.157	5.67
290.371	6.63
290.584	6.91
290.798	6.93
291.012	7.13
291.226	6.92
291.44	5.76
291.654	5.87
291.867	5.51
292.081	4.29
292.295	4.56
292.509	3.93
292.722	3.47
292.936	3.38
293.15	5.21
293.364	4.36
293.577	5.57
293.791	6.98
294.005	7.65
294.218	8.44
294.432	10.26
294.645	10.57
294.859	9.65
295.073	8.19
295.286	7.94
295.5	5.74
295.713	6.27
295.927	6.04
296.14	6.28
296.354	6.3
296.568	6.03
296.781	5.42
296.994	5.53
297.208	5.61
297.421	6.76
297.635	7.01
297.848	8.07
298.062	8.27
298.275	8.77
298.489	8.28
298.702	8.13
298.915	8.37
299.129	9.55
299.342	9.63
299.555	11.37
299.769	11.02
299.982	11.88
300.195	10.74
300.409	9.3
300.622	9.71
300.835	8.97
301.048	10.55
301.262	10.18
301.475	8.77
301.688	7.76
301.901	6.49
302.115	7.36
302.328	5.81
302.541	6.26
302.754	7.73
302.967	6.85
303.18	8.47
303.393	6.54
303.607	7.1
303.82	8.26
304.033	8.2
304.246	9.68
304.459	8.61
304.672	9.7
304.885	9.02
305.098	8.26
305.311	8.66
305.524	8.02
305.737	8.75
305.95	9.83
306.163	7.88
306.376	8.88
306.589	7.01
306.802	6.75
307.015	6.32
307.228	6.98
307.44	6.67
307.653	6.8
307.866	7.27
308.079	7.17
308.292	5.18
308.505	6.44
308.718	6.94
308.93	8.52
309.143	8.42
309.356	8.7
309.569	9.68
309.781	10.68
309.994	9.75
310.207	10.28
310.42	10.35
310.632	12.2
310.845	10.96
311.058	9.64
311.27	9.11
311.483	10
311.696	9.54
311.908	8.27
312.121	7.34
312.333	7.93
312.546	6.43
312.759	6.83
312.971	6.39
313.184	7.74
313.396	8.51
313.609	8.61
313.821	7.48
314.034	7.52
314.246	7.5
314.459	7.55
314.671	7.17
314.884	8.52
315.096	7.71
315.309	5.91
315.521	4.64
315.733	4.05
315.946	3.99
316.158	5.7
316.371	5.47
316.583	5.03
316.795	5.52
317.008	5.14
317.22	5.13
317.432	5.25
317.644	4.53
317.857	5.73
318.069	6.87
318.281	7.67
318.494	7.09
318.706	6.9
318.918	7.72
319.13	7.59
319.342	8.43
319.555	6.67
319.767	6.61
319.979	8.4
320.191	8.4
320.403	8.72
320.615	6.64
320.827	5.73
321.039	5.55
321.252	5.56
321.464	4.08
321.676	3.4
321.888	3.17
322.1	2.87
322.312	2.7
322.524	2.28
322.736	2.25
322.948	1.79
323.16	2.39
323.372	3.77
323.584	3.62
323.796	3.08
324.007	2.91
324.219	4.22
324.431	4.8
324.643	5
324.855	5.02
325.067	4.87
325.279	5.16
325.491	5.61
325.702	5.54
325.914	4.87
326.126	7.27
326.338	7.17
326.55	6.84
326.761	6.61
326.973	6.19
327.185	5.49
327.396	4.81
327.608	5.72
327.82	6.26
328.032	6.16
328.243	8.07
328.455	6.66
328.666	7.72
328.878	8.17
329.09	8.17
329.301	10.35
329.513	10.97
329.725	11.34
329.936	10.16
330.148	9.63
330.359	9.29
330.571	9.39
330.782	9.93
330.994	9.54
331.205	9.36
331.417	10.62
331.628	8.86
331.84	8.95
332.051	9.69
332.262	11.56
332.474	10.4
332.685	11.24
332.897	9.88
333.108	10.08
333.319	10.56
333.531	10.36
333.742	9.89
333.953	9.61
334.165	9.58
334.376	8.02
334.587	7.87
334.799	8.76
335.01	8.33
335.221	9.11
335.432	9.3
335.644	8.81
335.855	9.06
336.066	8.9
336.277	9.16
336.488	10.06
336.7	10.85
336.911	10.53
337.122	9.69
337.333	9.48
337.544	9.4
337.755	9.16
337.966	9.25
338.177	9.25
338.388	9.04
338.599	8.62
338.811	8.39
339.022	7.87
339.233	7.57
339.444	8.23
339.655	8.09
339.866	7.84
340.076	8.18
340.287	9.21
340.498	8.93
340.709	9.66
340.92	9.55
341.131	8.92
341.342	9.27
341.553	9.4
341.764	10.13
341.975	10.42
342.185	10.26
342.396	9.98
342.607	9.36
342.818	9.65
343.029	9.03
343.239	9.24
343.45	9.17
343.661	9.79
343.872	9.71
344.082	8.42
344.293	8.71
344.504	10.97
344.714	10.98
344.925	10.61
345.136	11.02
345.346	11.41
345.557	11.86
345.768	12.6
345.978	12.52
346.189	12.53
346.399	12.52
346.61	12.69
346.821	11.05
347.031	10.82
347.242	11.29
347.452	10.94
347.663	9.61
347.873	10.19
348.084	9.61
348.294	9.26
348.504	9.52
348.715	10.45
348.925	10.27
349.136	9.71
349.346	10.4
349.557	9.79
349.767	10.07
349.977	10.94
350.188	9.77
350.398	9.48
350.608	9.16
350.819	8.99
351.029	7.74
351.239	6.62
351.449	6.67
351.66	6.03
351.87	6.47
352.08	5.6
352.29	5.71
352.501	5.52
352.711	5.6
352.921	5.03
353.131	4.77
353.341	6.11
353.552	7.09
353.762	7.44
353.972	7.91
354.182	7.56
354.392	7.5
354.602	7.82
354.812	8.17
355.022	8.16
355.232	9.6
355.442	10.39
355.652	9.73
355.862	8.99
356.072	8.53
356.282	8.29
356.492	7.23
356.702	8.66
356.912	8.02
357.122	7.62
357.332	7.74
357.542	7.04
357.752	6.66
357.962	6.91
358.171	7.41
358.381	6.87
358.591	6.48
358.801	7.65
359.011	6.76
359.221	6.84
359.43	7.36
359.64	7.85
359.85	8.34
360.06	8.64
360.269	8.43
360.479	8.45
360.689	8.63
360.899	8.71
361.108	8.94
361.318	8.83
361.528	8.64
361.737	9.3
361.947	8.81
362.156	8.45
362.366	7.84
362.576	7.87
362.785	7.72
362.995	8.41
363.204	8.74
363.414	8.33
363.623	7.92
363.833	7.99
364.042	6.8
364.252	6.93
364.461	6.99
364.671	7.5
364.88	7.13
365.09	7.32
365.299	6.77
365.509	6.22
365.718	6.12
365.927	6.64
366.137	6.89
366.346	6.61
366.555	6.01
366.765	5.8
366.974	5.24
367.183	5.45
367.393	4.78
367.602	4.54
367.811	4.58
368.021	4.46
368.23	4.27
368.439	4.2
368.648	4.48
368.857	4.81
369.067	4.75
369.276	5.02
369.485	5.03
369.694	6.13
369.903	7.1
370.112	7.31
370.321	7.37
370.531	7.88
370.74	7.86
370.949	8.12
371.158	8.19
371.367	8.34
371.576	8.27
371.785	8.08
371.994	7.59
372.203	7.2
372.412	7.17
372.621	7.28
372.83	7.23
373.039	7.19
373.248	7.41
373.457	7.84
373.666	7.73
373.874	7.65
374.083	7.6
374.292	7.31
374.501	7
374.71	7.38
374.919	7.53
375.128	7.08
375.336	7
375.545	6.93
375.754	6.34
375.963	6.3
376.171	6.22
376.38	6.45
376.589	6.39
376.798	6.09
377.006	5.78
377.215	5.54
377.424	5.45
377.632	5.51
377.841	5.4
378.05	5.86
378.258	5.42
378.467	5.55
378.675	5.52
378.884	5.76
379.093	6.09
379.301	6.42
379.51	6.16
379.718	6.57
379.927	6.46
380.135	6.45
380.344	6.28
380.552	6.8
380.761	6.64
380.969	6.7
381.177	6.79
381.386	7.42
381.594	6.95
381.803	7.69
382.011	7.32
382.219	7.27
382.428	7.33
382.636	7.09
382.845	7
383.053	7.13
383.261	7.22
383.469	7.22
383.678	6.47
383.886	6.33
384.094	5.96
384.302	5.88
384.511	6.25
384.719	6.21
384.927	5.88
385.135	5.7
385.343	5.94
385.552	5.58
385.76	5.17
385.968	5.25
386.176	5.47
386.384	5.55
386.592	5.72
386.8	5.17
387.008	5.36
387.216	5.57
387.424	6.31
387.633	6.24
387.841	6.29
388.049	6.6
388.257	6.35
388.465	6.19
388.672	6.23
388.88	6.01
389.088	6.28
389.296	6.15
389.504	6.38
389.712	6.02
389.92	6.06
390.128	5.78
390.336	5.71
390.544	5.95
390.751	6.16
390.959	6.27
391.167	6.47
391.375	6.31
391.583	6.23
391.79	6.28
391.998	5.88
392.206	5.69
392.414	5.99
392.621	6.39
392.829	6.51
393.037	6.56
393.244	6.38
393.452	6.51
393.66	6.24
393.867	6.17
394.075	5.97
394.283	6.28
394.49	6.22
394.698	6.4
394.905	5.56
395.113	5.2
395.32	4.82
395.528	4.47
395.735	4.25
395.943	4.69
396.15	4.71
396.358	4.75
396.565	4.51
396.773	4.66
396.98	4.42
397.188	4.83
397.395	5.18
397.602	5.42
397.81	5.58
398.017	5.69
398.225	5.72
398.432	5.97
398.639	5.82
398.847	6.09
399.054	5.78
399.261	5.97
399.468	5.86
399.676	5.7
399.883	5.87
400.09	5.88
400.297	5.77
400.505	5.53
400.712	5.5
400.919	5.64
401.126	5.54
401.333	5.61
401.54	5.43
401.748	5.76
401.955	5.85
402.162	5.54
402.369	5.55
402.576	5.83
402.783	5.84
402.99	5.61
403.197	5.78
403.404	5.61
403.611	5.67
403.818	5.93
404.025	5.82
404.232	5.84
404.439	5.83
404.646	5.98
404.853	5.71
405.06	5.95
405.267	6.07
405.474	5.85
405.681	6.04
405.887	5.89
406.094	5.88
406.301	5.77
406.508	5.49
406.715	5.71
406.922	5.49
407.128	5.35
407.335	5.13
407.542	5.13
407.749	5.47
407.955	5.56
408.162	5.64
408.369	5.52
408.575	5.79
408.782	6.12
408.989	5.95
409.195	6.17
409.402	6.14
409.609	6.2
409.815	6.1
410.022	5.94
410.228	5.95
410.435	5.84
410.642	5.98
410.848	5.81
411.055	5.49
411.261	5.52
411.468	5.49
411.674	6
411.881	6.17
412.087	6.44
412.294	6.32
412.5	6.16
412.706	6.24
412.913	5.73
413.119	5.71
413.326	5.98
413.532	6.16
413.738	6.16
413.945	5.69
414.151	5.48
414.357	5.21
414.564	5.08
414.77	5.21
414.976	5.34
415.182	5.75
415.389	5.62
415.595	5.67
415.801	5.93
416.007	5.95
416.214	6.11
416.42	6.03
416.626	6.07
416.832	6.08
417.038	6.03
417.244	6.32
417.45	6.27
417.657	6.37
417.863	6.26
418.069	6.08
418.275	6.06
418.481	6.04
418.687	6.26
418.893	6.25
419.099	6.26
419.305	6.26
419.511	5.96
419.717	5.86
419.923	5.87
420.129	5.79
420.335	5.69
420.541	5.55
420.746	5.66
420.952	5.5
421.158	5.42
421.364	5.39
421.57	5.35
421.776	5.54
421.982	5.5
422.187	5.38
422.393	5.47
422.599	5.43
422.805	5.64
423.01	5.52
423.216	5.46
423.422	5.5
423.628	5.59
423.833	5.58
424.039	5.55
424.245	5.64
424.45	5.74
424.656	5.78
424.862	5.99
425.067	5.82
425.273	5.83
425.478	5.91
425.684	6.1
425.889	6.11
426.095	6.14
426.301	5.99
426.506	5.98
426.712	5.99
426.917	5.87
427.123	5.78
427.328	5.88
427.533	5.8
427.739	5.93
427.944	5.75
428.15	5.6
428.355	5.63
428.561	5.62
428.766	5.67
428.971	5.69
429.177	5.68
429.382	5.46
429.587	5.35
429.793	5.47
429.998	5.39
430.203	5.26
430.408	5.25
430.614	5.29
430.819	5.42
431.024	5.42
431.229	5.45
431.434	5.54
431.64	5.64
431.845	5.89
432.05	5.87
432.255	6.01
432.46	6.01
432.665	6.1
432.87	5.99
433.076	6.06
433.281	5.99
433.486	6.07
433.691	6.03
433.896	5.95
434.101	5.85
434.306	5.93
434.511	5.62
434.716	5.58
434.921	5.56
435.126	5.61
435.331	5.53
435.535	5.41
435.74	5.31
435.945	5.27
436.15	5.51
436.355	5.46
436.56	5.25
436.765	5.5
436.97	5.7
437.174	5.85
437.379	5.84
437.584	5.93
437.789	6.07
437.993	6.22
438.198	6.26
438.403	6.15
438.608	6.19
438.812	6.3
439.017	6.27
439.222	6.33
439.426	6.09
439.631	6.05
439.836	6.01
440.04	5.98
440.245	5.88
440.45	5.92
440.654	6.09
440.859	6
441.063	6.06
441.268	6.04
441.472	5.97
441.677	6.06
441.881	6.28
442.086	6.32
442.29	6.37
442.495	6.43
442.699	6.66
442.904	6.52
443.108	6.46
443.312	6.43
443.517	6.4
443.721	6.47
443.925	6.62
444.13	6.45
444.334	6.46
444.538	6.47
444.743	6.32
444.947	6.05
445.151	5.89
445.356	5.92
445.56	5.9
445.764	6
445.968	5.98
446.173	5.98
446.377	5.96
446.581	5.86
446.785	5.84
446.989	5.88
447.193	5.91
447.398	6.05
447.602	6.14
447.806	6.24
448.01	6.17
448.214	6.1
448.418	5.96
448.622	5.92
448.826	5.85
449.03	5.97
449.234	5.99
449.438	5.9
449.642	5.77
449.846	5.77
450.05	5.63
450.254	5.54
450.458	5.6
450.662	5.51
450.866	5.54
451.069	5.86
451.273	5.76
451.477	5.62
451.681	5.81
451.885	5.93
452.089	6.09
452.292	6.17
452.496	6.32
452.7	6.25
452.904	6.35
453.107	6.36
453.311	6.1
453.515	6.06
453.719	6.21
453.922	6.08
454.126	6.02
454.33	5.74
454.533	5.71
454.737	5.54
454.94	5.6
455.144	5.6
455.348	5.66
455.551	5.75
455.755	5.65
455.958	5.42
456.162	5.4
456.365	5.26
456.569	5.43
456.772	5.52
456.976	5.62
457.179	5.7
457.383	5.69
457.586	5.54
457.79	5.47
457.993	5.59
458.196	5.65
458.4	5.7
458.603	5.9
458.807	5.71
459.01	5.72
459.213	5.72
459.417	5.71
459.62	5.65
459.823	5.84
460.026	5.94
460.23	5.87
460.433	6.02
460.636	6.01
460.839	5.83
461.042	5.9
461.246	5.75
461.449	5.75
461.652	5.64
461.855	5.66
462.058	5.48
462.261	5.52
462.464	5.63
462.668	5.48
462.871	5.48
463.074	5.6
463.277	5.54
463.48	5.76
463.683	5.65
463.886	5.82
464.089	5.92
464.292	6.04
464.495	5.86
464.698	5.82
464.901	5.9
465.104	5.96
465.306	5.99
465.509	6.02
465.712	6.01
465.915	6.21
466.118	6.05
466.321	5.97
466.524	5.88
466.726	5.92
466.929	5.91
467.132	5.95
467.335	5.95
467.538	6.07
467.74	6.13
467.943	6.02
468.146	5.93
468.348	5.98
468.551	5.96
468.754	5.97
468.956	5.93
469.159	5.98
469.362	5.93
469.564	5.8
469.767	5.64
469.969	5.66
470.172	5.69
470.375	5.72
470.577	5.64
470.78	5.74
470.982	5.74
471.185	5.63
471.387	5.46
471.59	5.54
471.792	5.59
471.995	5.79
472.197	5.77
472.399	5.81
472.602	5.86
472.804	5.89
473.007	5.96
473.209	6
473.411	6.31
473.614	6.48
473.816	6.48
474.018	6.6
474.22	6.41
474.423	6.43
474.625	6.4
474.827	6.44
475.03	6.36
475.232	6.08
475.434	6.01
475.636	5.71
475.838	5.65
476.04	5.52
476.243	5.39
476.445	5.52
476.647	5.63
476.849	5.58
477.051	5.55
477.253	5.57
477.455	5.69
477.657	5.8
477.859	5.76
478.061	5.81
478.263	5.88
478.465	5.95
478.667	5.92
478.869	5.82
479.071	5.89
479.273	5.94
479.475	5.83
479.677	5.92
479.879	5.8
480.081	6.01
480.283	6.04
480.485	5.97
480.686	6.06
480.888	5.98
481.09	5.85
481.292	5.8
481.494	5.8
481.695	5.99
481.897	5.94
482.099	6.04
482.301	5.99
482.502	5.94
482.704	6.04
482.906	5.95
483.107	6
483.309	5.99
483.511	6.06
483.712	6.06
483.914	6.08
484.115	6.16
484.317	6.15
484.519	6.17
484.72	6.17
484.922	6.14
485.123	6.16
485.325	6.15
485.526	6.3
485.728	6.24
485.929	6.2
486.131	6.19
486.332	6.07
486.534	6.07
486.735	6.12
486.936	6.2
487.138	6.17
487.339	6.23
487.541	6.3
487.742	6.22
487.943	6.3
488.144	6.34
488.346	6.34
488.547	6.36
488.748	6.4
488.95	6.31
489.151	6.24
489.352	6.27
489.553	6.18
489.755	6.08
489.956	6.08
490.157	5.97
490.358	5.92
490.559	5.88
490.76	5.94
490.961	5.86
491.163	5.91
491.364	5.91
491.565	5.92
491.766	5.96
491.967	6.04
492.168	6.06
492.369	6.12
492.57	6.12
492.771	6.2
492.972	6.13
493.173	6.3
493.374	6.33
493.575	6.39
493.776	6.41
493.976	6.46
494.177	6.35
494.378	6.15
494.579	6.06
494.78	6.12
494.981	6
495.182	6.11
495.382	5.92
495.583	5.97
495.784	5.9
495.985	5.87
496.185	5.77
496.386	5.93
496.587	6.11
496.788	6.07
496.988	6.15
497.189	6.23
497.39	6.22
497.59	6.36
497.791	6.33
497.992	6.46
498.192	6.44
498.393	6.44
498.593	6.38
498.794	6.36
498.994	6.47
499.195	6.3
499.395	6.24
499.596	6.12
499.796	6.06
499.997	6.02
500.197	6.09
500.398	6.19
500.598	6.28
500.799	6.41
500.999	6.48
501.199	6.57
501.4	6.84
501.6	6.78
501.801	6.9
502.001	6.85
502.201	7.04
502.402	6.93
502.602	6.98
502.802	7.08
503.002	7
503.203	7.04
503.403	6.96
503.603	6.83
503.803	6.94
504.003	7.04
504.204	7.04
504.404	7.09
504.604	7.02
504.804	6.93
505.004	6.78
505.204	6.77
505.404	6.8
505.604	6.86
505.804	6.81
506.005	6.79
506.205	6.71
506.405	6.82
506.605	6.59
506.805	6.61
507.005	6.71
507.204	6.94
507.404	7.02
507.604	7.04
507.804	7.03
508.004	7.17
508.204	7.34
508.404	7.39
508.604	7.41
508.804	7.43
509.003	7.46
509.203	7.45
509.403	7.37
509.603	7.37
509.803	7.36
510.002	7.33
510.202	7.43
510.402	7.47
510.602	7.52
510.801	7.5
511.001	7.61
511.201	7.72
511.4	7.85
511.6	7.84
511.8	7.86
511.999	7.94
512.199	8.02
512.398	7.92
512.598	7.81
512.797	7.85
512.997	7.85
513.197	7.91
513.396	7.96
513.596	7.91
513.795	7.94
513.994	7.95
514.194	7.92
514.393	7.83
514.593	7.87
514.792	7.9
514.992	7.93
515.191	7.9
515.39	7.84
515.59	7.73
515.789	7.79
515.988	7.94
516.188	7.96
516.387	8.09
516.586	8.18
516.786	8.3
516.985	8.31
517.184	8.34
517.383	8.37
517.582	8.45
517.782	8.43
517.981	8.34
518.18	8.23
518.379	8.33
518.578	8.26
518.777	8.35
518.976	8.41
519.176	8.43
519.375	8.41
519.574	8.53
519.773	8.55
519.972	8.75
520.171	8.86
520.37	9.02
520.569	8.96
520.768	9.05
520.967	9.03
521.166	8.88
521.365	8.93
521.564	9.06
521.762	9
521.961	8.98
522.16	8.81
522.359	8.93
522.558	8.82
522.757	8.91
522.956	8.87
523.154	9.03
523.353	9.12
523.552	9.1
523.751	8.94
523.949	9.03
524.148	9.03
524.347	9.11
524.546	9.08
524.744	9.14
524.943	9.13
525.142	9.11
525.34	9.08
525.539	9.08
525.737	9.25
525.936	9.26
526.135	9.27
526.333	9.31
526.532	9.29
526.73	9.27
526.929	9.28
527.127	9.27
527.326	9.36
527.524	9.4
527.723	9.48
527.921	9.45
528.12	9.6
528.318	9.66
528.516	9.72
528.715	9.81
528.913	9.84
529.112	9.93
529.31	10
529.508	10.04
529.707	10.04
529.905	10.03
530.103	10.05
530.301	10.04
530.5	9.99
530.698	9.99
530.896	9.99
531.094	10.02
531.293	9.93
531.491	10.03
531.689	10.06
531.887	10.17
532.085	10.17
532.283	10.28
532.481	10.3
532.68	10.35
532.878	10.34
533.076	10.38
533.274	10.4
533.472	10.47
533.67	10.45
533.868	10.43
534.066	10.47
534.264	10.53
534.462	10.49
534.66	10.64
534.858	10.65
535.056	10.69
535.253	10.73
535.451	10.9
535.649	11.01
535.847	10.99
536.045	10.98
536.243	10.95
536.441	10.99
536.638	11.01
536.836	10.83
537.034	10.92
537.232	10.92
537.43	10.81
537.627	10.74
537.825	10.62
538.023	10.67
538.22	10.75
538.418	10.88
538.616	10.83
538.813	10.88
539.011	11.09
539.209	11.01
539.406	11.14
539.604	11.28
539.801	11.28
539.999	11.42
540.196	11.45
540.394	11.55
540.591	11.58
540.789	11.73
540.986	11.85
541.184	11.78
541.381	11.98
541.579	11.97
541.776	11.94
541.974	12.03
542.171	12.04
542.368	12.13
542.566	12.15
542.763	12.17
542.96	12.19
543.158	12.14
543.355	12.22
543.552	12.16
543.75	12.22
543.947	12.35
544.144	12.51
544.341	12.53
544.539	12.6
544.736	12.63
544.933	12.62
545.13	12.57
545.327	12.64
545.524	12.61
545.722	12.71
545.919	12.84
546.116	12.85
546.313	12.81
546.51	12.92
546.707	12.95
546.904	13.05
547.101	13.17
547.298	13.39
547.495	13.39
547.692	13.55
547.889	13.52
548.086	13.47
548.283	13.56
548.48	13.39
548.677	13.45
548.874	13.34
549.07	13.35
549.267	13.34
549.464	13.31
549.661	13.47
549.858	13.36
550.055	13.4
550.251	13.52
550.448	13.55
550.645	13.93
550.842	14.15
551.038	14.41
551.235	14.44
551.432	14.47
551.628	14.61
551.825	14.68
552.022	14.85
552.218	15.05
552.415	15.21
552.612	15.42
552.808	15.46
553.005	15.36
553.201	15.34
553.398	15.47
553.594	15.64
553.791	15.55
553.987	15.58
554.184	15.53
554.38	15.59
554.577	15.56
554.773	15.52
554.97	15.4
555.166	15.47
555.362	15.57
555.559	15.61
555.755	15.65
555.952	15.95
556.148	16.1
556.344	16.24
556.541	16.41
556.737	16.47
556.933	16.56
557.129	16.67
557.326	16.8
557.522	17
557.718	17.2
557.914	17.32
558.11	17.23
558.307	17.07
558.503	17.34
558.699	17.34
558.895	17.38
559.091	17.41
559.287	17.45
559.483	17.55
559.679	17.6
559.876	17.64
560.072	17.56
560.268	17.73
560.464	17.86
560.66	17.97
560.856	18.08
561.052	18.25
561.247	18.31
561.443	18.7
561.639	18.75
561.835	18.49
562.031	18.47
562.227	18.74
562.423	18.78
562.619	18.87
562.815	18.9
563.01	19.04
563.206	19.11
563.402	19.3
563.598	19.25
563.793	19.35
563.989	19.63
564.185	19.63
564.381	19.55
564.576	19.72
564.772	19.9
564.968	19.88
565.163	19.87
565.359	19.9
565.555	20.06
565.75	20.16
565.946	20.3
566.141	20.41
566.337	20.65
566.532	20.67
566.728	20.76
566.923	20.85
567.119	20.88
567.314	20.9
567.51	20.95
567.705	20.86
567.901	20.77
568.096	20.89
568.292	21.06
568.487	21.05
568.682	21.22
568.878	21.33
569.073	21.46
569.268	21.47
569.464	21.61
569.659	21.75
569.854	21.81
570.05	21.86
570.245	21.8
570.44	21.77
570.635	21.87
570.831	22.01
571.026	21.96
571.221	21.9
571.416	22.15
571.611	22.16
571.806	22.17
572.002	22.4
572.197	22.54
572.392	22.55
572.587	22.78
572.782	22.99
572.977	22.91
573.172	22.95
573.367	23.08
573.562	23.26
573.757	23.25
573.952	23.46
574.147	23.53
574.342	23.61
574.537	23.8
574.732	23.74
574.927	23.66
575.121	23.82
575.316	23.89
575.511	23.97
575.706	23.97
575.901	24.05
576.096	23.96
576.29	24.15
576.485	24.02
576.68	23.95
576.875	24.06
577.069	24.26
577.264	24.46
577.459	24.57
577.654	24.85
577.848	24.79
578.043	25
578.238	25.19
578.432	25.12
578.627	25.28
578.821	25.55
579.016	25.68
579.21	25.54
579.405	25.43
579.6	25.51
579.794	25.13
579.989	25.15
580.183	25.21
580.378	25.2
580.572	25.04
580.766	25.34
580.961	25.5
581.155	25.42
581.35	25.71
581.544	25.83
581.738	25.89
581.933	26.1
582.127	26.58
582.321	26.72
582.516	26.72
582.71	27
582.904	26.87
583.099	26.72
583.293	26.76
583.487	26.54
583.681	26.66
583.875	26.64
584.07	26.72
584.264	26.4
584.458	26.08
584.652	26.34
584.846	26.52
585.04	26.87
585.234	26.99
585.428	27.03
585.623	27.14
585.817	27.1
586.011	27.13
586.205	27.2
586.399	27.41
586.593	27.83
586.787	27.72
586.981	27.8
587.174	27.59
587.368	27.71
587.562	27.92
587.756	27.93
587.95	28.01
588.144	28.24
588.338	28.47
588.532	28.38
588.725	28.35
588.919	28.34
589.113	28.13
589.307	28.14
589.501	28.17
589.694	28.11
589.888	28.26
590.082	28.42
590.275	28.47
590.469	28.34
590.663	28.42
590.856	28.39
591.05	28.69
591.244	28.76
591.437	28.92
591.631	28.82
591.824	29.01
592.018	29.08
592.212	29.01
592.405	29.05
592.599	29.28
592.792	29.53
592.986	29.6
593.179	29.74
593.372	29.92
593.566	29.8
593.759	30.1
593.953	30.34
594.146	30.25
594.339	30.33
594.533	30.23
594.726	30.25
594.92	30.49
595.113	30.68
595.306	30.58
595.499	30.53
595.693	30.73
595.886	30.72
596.079	30.42
596.272	30.57
596.466	30.55
596.659	30.75
596.852	30.73
597.045	30.4
597.238	30.23
597.431	30.28
597.624	30.39
597.818	30.4
598.011	30.24
598.204	30.2
598.397	30.1
598.59	30.02
598.783	29.84
598.976	29.76
599.169	29.99
599.362	30.18
599.555	30.15
599.748	30.09
599.941	30.02
600.134	30.13
600.326	30.38
600.519	30.34
600.712	30.63
600.905	30.8
601.098	31.15
601.291	30.93
601.483	31.09
601.676	30.98
601.869	31.18
602.062	31.21
602.255	31.46
602.447	31.53
602.64	31.8
602.833	31.87
603.025	31.98
603.218	31.93
603.411	32.02
603.603	31.92
603.796	32.13
603.989	32.02
604.181	32.19
604.374	32.07
604.566	32.16
604.759	32.14
604.951	32
605.144	31.91
605.336	32
605.529	32.09
605.721	32.16
605.914	32.01
606.106	32.05
606.299	32.07
606.491	32.02
606.683	31.9
606.876	31.96
607.068	31.97
607.26	32.05
607.453	31.9
607.645	32.03
607.837	31.94
608.03	31.97
608.222	32.15
608.414	32.22
608.606	32.46
608.799	32.69
608.991	32.67
609.183	32.64
609.375	32.8
609.567	32.92
609.759	32.84
609.952	32.97
610.144	33
610.336	32.94
610.528	32.96
610.72	32.97
610.912	32.83
611.104	33.01
611.296	33.21
611.488	33.39
611.68	33.51
611.872	33.48
612.064	33.37
612.256	33.78
612.448	33.63
612.64	33.46
612.832	33.62
613.023	33.8
613.215	33.77
613.407	33.82
613.599	33.71
613.791	33.46
613.983	33.55
614.174	33.86
614.366	33.82
614.558	34.05
614.75	34.21
614.941	34.07
615.133	34.22
615.325	34.39
615.516	34.32
615.708	34.29
615.9	34.41
616.091	34.55
616.283	34.54
616.475	34.57
616.666	34.6
616.858	34.72
617.049	34.68
617.241	34.59
617.432	34.42
617.624	34.62
617.815	34.81
618.007	34.89
618.198	35
618.39	34.99
618.581	34.76
618.773	34.85
618.964	34.82
619.155	34.84
619.347	34.53
619.538	34.63
619.729	34.44
619.921	34.17
620.112	34.27
620.303	34.09
620.494	34.26
620.686	34.37
620.877	34.19
621.068	33.98
621.259	34.12
621.451	34.42
621.642	34.49
621.833	34.77
622.024	34.74
622.215	34.69
622.406	34.72
622.597	34.89
622.788	34.77
622.98	35.23
623.171	35.35
623.362	35.5
623.553	35.53
623.744	35.45
623.935	35.44
624.126	35.57
624.317	35.59
624.508	35.66
624.698	35.49
624.889	35.8
625.08	35.67
625.271	35.73
625.462	35.64
625.653	35.56
625.844	35.47
626.034	35.65
626.225	35.78
626.416	35.75
626.607	35.97
626.798	35.86
626.988	36.06
627.179	36.22
627.37	36.36
627.56	36.36
627.751	36.56
627.942	36.63
628.132	36.25
628.323	36.32
628.514	36.29
628.704	36.14
628.895	36.11
629.085	35.93
629.276	35.75
629.466	35.68
629.657	35.64
629.847	35.33
630.038	35.25
630.228	35.55
630.419	35.44
630.609	35.46
630.8	35.73
630.99	36.07
631.181	35.8
631.371	35.85
631.561	35.75
631.752	35.91
631.942	35.93
632.132	35.93
632.323	36.04
632.513	35.91
632.703	36.05
632.893	36
633.084	35.89
633.274	36.33
633.464	36.37
633.654	36.64
633.844	36.37
634.034	36.6
634.225	36.71
634.415	36.6
634.605	36.75
634.795	36.71
634.985	36.31
635.175	36.12
635.365	36.01
635.555	36
635.745	35.91
635.935	36.21
636.125	36.39
636.315	36.37
636.505	36.67
636.695	36.41
636.885	36.16
637.075	36.45
637.265	36.89
637.455	36.75
637.644	36.61
637.834	36.71
638.024	36.75
638.214	36.08
638.404	36.33
638.593	36.34
638.783	36.58
638.973	36.85
639.163	36.74
639.352	36.69
639.542	36.86
639.732	36.79
639.921	36.74
640.111	36.83
640.301	37.63
640.49	37.53
640.68	37.56
640.87	37.65
641.059	37.64
641.249	37.87
641.438	37.78
641.628	37.97
641.817	38.15
642.007	38.27
642.196	38.47
642.386	38
642.575	38.14
642.764	38.15
642.954	37.97
643.143	38.05
643.333	37.97
643.522	37.92
643.711	37.83
643.901	38.09
644.09	38.12
644.279	37.66
644.469	37.9
644.658	37.67
644.847	36.98
645.036	37.13
645.226	37.47
645.415	37.21
645.604	37.16
645.793	37.19
645.982	36.88
646.171	36.69
646.361	36.65
646.55	36.7
646.739	36.86
646.928	37.41
647.117	37.26
647.306	36.91
647.495	37.35
647.684	37.14
647.873	36.96
648.062	37.28
648.251	37.53
648.44	37.32
648.629	37.49
648.818	37.46
649.007	37.61
649.196	38.08
649.384	38.52
649.573	38.59
649.762	38.88
649.951	38.88
650.14	38.62
650.328	38.58
650.517	39.09
650.706	39.16
650.895	39.06
651.083	39.14
651.272	39.17
651.461	38.92
651.65	39.01
651.838	39
652.027	39.23
652.216	39.24
652.404	39.22
652.593	39.23
652.781	39.22
652.97	39.6
653.158	39.29
653.347	38.88
653.535	38.71
653.724	38.75
653.912	39.07
654.101	38.83
654.289	38.99
654.478	38.73
654.666	38.56
654.855	38.58
655.043	38.15
655.231	38.25
655.42	38.68
655.608	38.52
655.796	38.22
655.985	38.15
656.173	38.48
656.361	38.61
656.55	39.05
656.738	39.29
656.926	39.22
657.114	39.71
657.302	39.53
657.491	39.69
657.679	39.75
657.867	40.12
658.055	40.1
658.243	40
658.431	40.01
658.619	40.01
658.807	39.86
658.996	39.86
659.184	39.69
659.372	39.97
659.56	39.74
659.748	39.88
659.936	39.89
660.124	39.93
660.311	39.94
660.499	39.71
660.687	39.78
660.875	40.13
661.063	40.34
661.251	40.46
661.439	40.47
661.627	40.81
661.814	40.81
662.002	40.81
662.19	40.8
662.378	40.88
662.565	41.03
662.753	40.86
662.941	40.47
663.129	40.2
663.316	40.25
663.504	40.05
663.692	39.62
663.879	39.64
664.067	39.46
664.254	39.45
664.442	39.47
664.63	39.41
664.817	39.69
665.005	39.9
665.192	40.35
665.38	40.04
665.567	40.05
665.755	39.86
665.942	39.82
666.13	39.66
666.317	39.46
666.504	39.33
666.692	39.66
666.879	39.72
667.067	39.68
667.254	39.39
667.441	39.37
667.629	39.54
667.816	39.79
668.003	40.28
668.19	40.72
668.378	40.57
668.565	40.83
668.752	40.58
668.939	40.31
669.127	40.97
669.314	40.95
669.501	41.11
669.688	41.2
669.875	41.15
670.062	40.95
670.249	41.1
670.436	41.11
670.623	41
670.81	41.31
670.997	41.61
671.184	41.04
671.371	41.19
671.558	41.11
671.745	41.38
671.932	41.2
672.119	41.41
672.306	40.81
672.493	41.41
672.68	41.45
672.867	41.59
673.054	41.51
673.24	41.38
673.427	41.22
673.614	41.56
673.801	41.03
673.988	41.59
674.174	41.32
674.361	41.48
674.548	41.6
674.734	41.56
674.921	41.48
675.108	41.82
675.294	41.83
675.481	41.81
675.668	41.76
675.854	41.8
676.041	41.55
676.227	41.77
676.414	41.62
676.601	41.21
676.787	41.32
676.974	41.24
677.16	40.52
677.347	40.61
677.533	40.84
677.719	40.7
677.906	40.68
678.092	40.6
678.279	40.81
678.465	40.68
678.651	41.27
678.838	41.45
679.024	41.45
679.21	41.64
679.397	41.85
679.583	42.01
679.769	42.15
679.955	42.15
680.142	42.38
680.328	42.18
680.514	42.82
680.7	42.51
680.886	42.13
681.073	42.44
681.259	42.85
681.445	42.89
681.631	42.5
681.817	42.3
682.003	42.37
682.189	42.43
682.375	42.41
682.561	42.27
682.747	42.28
682.933	42.59
683.119	42.2
683.305	41.91
683.491	41.82
683.677	42.22
683.863	42.94
684.049	43.59
684.235	43.75
684.42	43.46
684.606	43.16
684.792	43.01
684.978	42.79
685.164	42.84
685.349	42.38
685.535	42.43
685.721	42.19
685.907	41.95
686.092	41.61
686.278	41.32
686.464	41.74
686.649	42.09
686.835	41.98
687.021	42.24
687.206	42.24
687.392	42.73
687.577	43.14
687.763	43.54
687.948	43.16
688.134	42.79
688.319	43.06
688.505	42.64
688.69	42.27
688.876	42.24
689.061	42.07
689.247	42.19
689.432	42.4
689.618	41.89
689.803	41.44
689.988	41.81
690.174	41.93
690.359	41.19
690.544	41.85
690.73	42.18
690.915	42.2
691.1	41.87
691.285	41.64
691.471	41.3
691.656	41.33
691.841	41.65
692.026	41.79
692.211	41.99
692.396	43.07
692.582	43.08
692.767	42.88
692.952	42.8
693.137	43.37
693.322	44.06
693.507	44.7
693.692	44.67
693.877	44.34
694.062	44.07
694.247	44.19
694.432	43.81
694.617	44.06
694.802	44.2
694.987	44.31
695.172	44.43
695.357	43.85
695.541	43.35
695.726	43.25
695.911	43.94
696.096	44.14
696.281	43.84
696.466	43.78
696.65	43.26
696.835	43.4
697.02	43.57
697.204	44.17
697.389	44.49
697.574	44.5
697.759	44.83
697.943	44.59
698.128	44.6
698.312	44.81
698.497	45
698.682	45.11
698.866	44.83
699.051	44.79
699.235	44.39
699.42	44.3
699.604	44.38
699.789	44.2
699.973	44.13
700.158	43.87
700.342	43.4
700.527	43.11
700.711	43.05
700.895	43.29
701.08	43.09
701.264	42.83
701.448	42.66
701.633	42.56
701.817	42.5
702.001	42.49
702.186	42.99
702.37	43.39
702.554	43.17
702.738	42.87
702.923	42.48
703.107	42.72
703.291	42.88
703.475	42.89
703.659	42.58
703.843	42.59
704.027	41.94
704.212	41.9
704.396	41.94
704.58	42.26
704.764	43.01
704.948	43.11
705.132	43.21
705.316	43.49
705.5	43.71
705.684	44.18
705.868	44.4
706.052	44.7
706.235	44.11
706.419	43.89
706.603	44.08
706.787	43.79
706.971	44.19
707.155	44.28
707.339	44.01
707.522	44.04
707.706	44.16
707.89	43.37
708.074	43.68
708.257	43.66
708.441	44.12
708.625	44.33
708.808	44.07
708.992	44
709.176	44.04
709.359	43.79
709.543	43.48
709.727	43.45
709.91	43.81
710.094	43.42
710.277	43.63
710.461	43.02
710.644	43.07
710.828	43.5
711.011	43.59
711.195	43.84
711.378	44.33
711.562	44.42
711.745	43.9
711.928	44.1
712.112	44.36
712.295	44.6
712.478	45.08
712.662	44.33
712.845	44.13
713.028	43.62
713.212	43.43
713.395	43.12
713.578	43.19
713.761	43.68
713.945	44.08
714.128	43.63
714.311	44.26
714.494	43.7
714.677	44.56
714.86	44.6
715.043	45.3
715.227	45.53
715.41	45.72
715.593	46.28
715.776	46.71
715.959	46.15
716.142	47.29
716.325	46.31
716.508	47.33
716.691	46.95
716.874	47.43
717.057	46.95
717.239	46.63
717.422	45.86
717.605	45.21
717.788	44.65
717.971	44.9
718.154	44.31
718.337	44.08
718.519	43.63
718.702	42.96
718.885	41.95
719.068	42.19
719.25	42.64
719.433	43.87
719.616	44.08
719.798	44.14
719.981	44.06
720.164	44.33
720.346	44.51
720.529	44.17
720.712	44.95
720.894	45.51
721.077	45.4
721.259	45.26
721.442	44.85
721.624	44.54
721.807	43.95
721.989	43.77
722.172	43.32
722.354	43.5
722.537	43.47
722.719	43.28
722.901	42.47
723.084	42.52
723.266	42.08
723.448	41.9
723.631	42.49
723.813	43.01
723.995	43.13
724.178	43.53
724.36	43.64
724.542	44.51
724.724	44.8
724.907	44.97
725.089	44.6
725.271	45.22
725.453	45.59
725.635	45.15
725.817	45.68
725.999	45.94
726.181	45.13
726.364	45.11
726.546	44.03
726.728	43.78
726.91	43.75
727.092	44.34
727.274	43.88
727.456	43.8
727.638	43.68
727.819	42.9
728.001	42.28
728.183	42.92
728.365	42.62
728.547	43.2
728.729	43.73
728.911	44.12
729.093	44.14
729.274	43.87
729.456	42.95
729.638	42.82
729.82	43.19
730.001	44.15
730.183	44.24
730.365	44.49
730.546	44.56
730.728	44.24
730.91	44.8
731.091	44.16
731.273	44.6
731.455	45.42
731.636	45.17
731.818	45.17
731.999	44.31
732.181	44.32
732.362	44.07
732.544	43.94
732.725	44.24
732.907	44.31
733.088	45.44
733.27	45.51
733.451	45.43
733.633	46.28
733.814	45.94
733.995	46.71
734.177	46.9
734.358	47.07
734.539	47.16
734.721	46.76
734.902	46.77
735.083	46.31
735.264	45.35
735.446	45.73
735.627	45.77
735.808	45.68
735.989	45.97
736.17	45.07
736.351	45.24
736.533	45.22
736.714	45.73
736.895	45.16
737.076	45.16
737.257	46.07
737.438	45.18
737.619	44.89
737.8	45.8
737.981	44.9
738.162	45.23
738.343	44.41
738.524	44.22
738.705	43.41
738.886	43.4
739.067	43.56
739.247	43.6
739.428	43.54
739.609	43.9
739.79	43.69
739.971	44.24
740.151	44.16
740.332	44.99
740.513	44.99
740.694	44.45
740.874	43.92
741.055	43.24
741.236	43.58
741.417	43.76
741.597	42.38
741.778	41.86
741.958	40.91
742.139	40.99
742.32	40.9
742.5	41.03
742.681	41.32
742.861	41.64
743.042	41.23
743.222	40.98
743.403	40.8
743.583	41.7
743.764	41.8
743.944	42.1
744.124	42.35
744.305	42.53
744.485	42.74
744.666	42.83
744.846	43.37
745.026	43.95
745.207	43.49
745.387	43.69
745.567	44.12
745.747	45.26
745.928	45.97
746.108	45.97
746.288	45.84
746.468	45.18
746.648	45.4
746.829	44.8
747.009	44.71
747.189	44.5
747.369	45.06
747.549	44.95
747.729	43.94
747.909	42.75
748.089	42.8
748.269	43.17
748.449	44.12
748.629	45.17
748.809	45.37
748.989	46.31
749.169	46.31
749.349	45.71
749.529	44.64
749.709	44.13
749.889	44.66
750.068	44.27
750.248	44.82
750.428	44.42
750.608	43.63
750.788	42.78
750.967	41.46
751.147	41.66
751.327	42.44
751.507	43.16
751.686	44.29
751.866	44.71
752.046	44.96
752.225	43.68
752.405	43.94
752.585	43.68
752.764	44.59
752.944	44.83
753.123	45.43
753.303	45.05
753.482	44.58
753.662	43.85
753.841	43.97
754.021	44.11
754.2	45.67
754.38	45.13
754.559	44.68
754.739	44.97
754.918	45.49
755.097	45.06
755.277	44.91
755.456	45.82
755.635	46.02
755.815	46.3
755.994	46.26
756.173	44.95
756.352	45.79
756.532	45.97
756.711	45.82
756.89	45.88
757.069	46.13
757.248	45.11
757.427	44.58
757.607	44.53
757.786	44.11
757.965	43.06
758.144	43.08
758.323	41.87
758.502	42.97
758.681	43.2
758.86	42.6
759.039	42.96
759.218	44.75
759.397	44.88
759.576	44.77
759.755	44.95
759.934	45.86
760.113	45.87
760.291	46.82
760.47	46.21
760.649	45.66
760.828	46.25
761.007	45.98
761.186	45.39
761.364	45.81
761.543	45.95
761.722	45.26
761.901	45.53
762.079	45.53
762.258	45.66
762.437	46.28
762.615	46.44
762.794	45.87
762.972	45.9
763.151	45.81
763.33	45.36
763.508	45.42
763.687	45.39
763.865	45.13
764.044	45.6
764.222	45.34
764.401	44.74
764.579	44.67
764.758	45.19
764.936	44.67
765.114	45.17
765.293	45.69
765.471	45.74
765.65	46.15
765.828	46.96
766.006	46.74
766.184	46.18
766.363	46.62
766.541	47.33
766.719	46.74
766.898	46.97
767.076	47.18
767.254	46.18
767.432	46.51
767.61	46.88
767.788	46.24
767.967	46.26
768.145	47.19
768.323	46.21
768.501	46.09
768.679	46.76
768.857	46.21
769.035	45.54
769.213	46.68
769.391	43.8
769.569	43.82
769.747	43.22
769.925	43.34
770.103	43.59
770.281	43.69
770.459	44.13
770.636	43.4
770.814	45.09
770.992	44.83
771.17	44.59
771.348	48.18
771.525	48.05
771.703	49.13
771.881	48.79
772.059	47.49
772.236	47.15
772.414	46
772.592	46.15
772.769	45.04
772.947	45.18
773.125	45.16
773.302	44.39
773.48	43.75
773.657	43.22
773.835	42.85
774.013	43.3
774.19	45.07
774.368	45.63
774.545	44.78
774.723	44.41
774.9	45.03
775.077	44.27
775.255	43.23
775.432	43.07
775.61	43.05
775.787	44.55
775.964	44.45
776.142	45.18
776.319	44.73
776.496	45.87
776.674	47.46
776.851	46.18
777.028	46.01
777.205	46.86
777.382	46.88
777.56	47.2
777.737	47.76
777.914	47.3
778.091	45.03
778.268	43.96
778.445	42.32
778.622	41.78
778.8	43.16
778.977	45.2
779.154	44.73
779.331	45.49
779.508	45.68
779.685	44.66
779.862	46.81
780.038	48.24
780.215	49.37
780.392	51.26
780.569	51.67
780.746	50.44
780.923	48.63
781.1	49.07
781.277	48.26
781.453	48.84
781.63	47.26
781.807	46.22
781.984	45.67
782.16	45.3
782.337	45.66
782.514	43.8
782.691	44.51
782.867	43.77
783.044	43.56
783.221	45.73
783.397	44.17
783.574	45.2
783.75	44.16
783.927	44
784.103	43.53
784.28	42.36
784.456	43.77
784.633	42.16
784.809	42.13
784.986	41.37
785.162	39.42
785.339	38.53
785.515	39.47
785.692	42.04
785.868	41.79
786.044	41.93
786.221	41.92
786.397	42.69
786.573	42.72
786.749	43.3
786.926	45.06
787.102	45.37
787.278	46.06
787.454	45.51
787.631	43.87
787.807	43.69
787.983	43.32
788.159	44.19
788.335	42.93
788.511	44.09
788.687	44.06
788.863	43.43
789.039	42.98
789.216	42.27
789.392	42.43
789.568	41.26
789.744	40.37
789.919	41.4
790.095	40.12
790.271	41.03
790.447	40.09
790.623	39.64
790.799	40.88
790.975	40.41
791.151	41.03
791.327	40.8
791.502	43.88
791.678	44.15
791.854	44.17
792.03	44.75
792.205	44.2
792.381	45.58
792.557	47.32
792.733	47.49
792.908	47.05
793.084	48.02
793.259	47.14
793.435	43.55
793.611	45.12
793.786	44.5
793.962	44.15
794.137	44.56
794.313	43.19
794.488	44.43
794.664	42.45
794.839	44.71
795.015	44.04
795.19	44.99
795.366	47.59
795.541	47.51
795.716	46.37
795.892	46.34
796.067	45.81
796.242	45.32
796.418	44.26
796.593	44.59
796.768	44.01
796.944	43.64
797.119	45.42
797.294	45.24
797.469	45.07
797.644	46.34
797.82	46.19
797.995	47.98
798.17	48.57
798.345	47.34
798.52	47.66
798.695	46.1
798.87	45.32
799.045	43.22
799.22	44.64
799.395	44.04
799.57	44.82
799.745	45.91
799.92	44.27
800.095	45.28
800.27	45.47
800.445	43.32
800.62	45.79
800.795	46.55
800.97	45.64
801.145	43.43
801.319	42.9
801.494	40.01
801.669	40.49
801.844	40.82
802.018	37.99
802.193	36.4
802.368	39.47
802.543	37.52
802.717	36.29
802.892	36.36
803.067	36.76
803.241	38.21
803.416	39.4
803.59	37.68
803.765	36.86
803.94	36.95
804.114	38.74
804.289	37.88
804.463	39.06
804.638	40.75
804.812	40.51
804.986	40.19
805.161	40.71
805.335	39.4
805.51	40.76
805.684	41.71
805.858	41.79
806.033	41.79
806.207	39.2
806.381	37.74
806.556	37.38
806.73	39.9
806.904	38.99
807.078	38.15
807.253	41.15
807.427	37.98
807.601	38.21
807.775	38.5
807.949	38.41
808.123	41.31
808.298	41.85
808.472	39.83
808.646	38.98
808.82	39.67
808.994	40.38
809.168	38.57
809.342	39.21
809.516	39.11
809.69	38.29
809.864	35.43
810.038	35.75
810.212	37.07
810.385	36.47
810.559	35.3
810.733	36.18
810.907	35.6
811.081	35.72
811.255	38.1
811.428	37.97
811.602	40.76
811.776	44.07
811.95	42.86
812.123	41.56
812.297	41.63
812.471	41.39
812.644	39.57
812.818	37.91
812.992	36.99
813.165	35.66
813.339	32.16
813.512	28.61
813.686	29.27
813.86	29.81
814.033	29.5
814.207	32.98
814.38	34.22
814.554	37.7
814.727	39.42
814.9	38.7
815.074	39.74
815.247	40.79
815.421	44.63
815.594	44.62
815.767	45.05
815.941	45.49
816.114	44.61
816.287	41.99
816.46	40.23
816.634	38.71
816.807	41.07
816.98	42.55
817.153	43.52
817.327	42.55
817.5	40.8
817.673	38.4
817.846	37.04
818.019	38.58
818.192	40.53
818.365	42.79
818.538	45.16
818.711	44.36
818.884	44.68
819.057	43.73
819.23	43.02
819.403	45.27
819.576	47.76
819.749	49.03
819.922	46.77
820.095	48.29
820.268	47.85
820.441	48.56
820.614	48.34
820.786	48.44
820.959	50.27
821.132	51.37
821.305	51.63
821.477	50.31
821.65	49.64
821.823	49.98
821.996	49.78
822.168	49.25
822.341	48.65
822.514	48.73
822.686	48.73
822.859	48.16
823.031	48.22
823.204	47.78
823.376	48.02
823.549	47.72
823.722	47.56
823.894	47.55
824.067	47.76
824.239	47.95
824.411	47.27
824.584	46.86
824.756	46.69
824.929	46.24
825.101	46.04
825.273	45.56
825.446	45.42
825.618	45.01
825.79	44.76
825.963	44.14
826.135	43.64
826.307	44.02
826.479	43.81
826.652	43.45
826.824	43.44
826.996	43.48
827.168	43.71
827.34	44.7
827.512	45.45
827.684	44.79
827.856	45
828.029	44.78
828.201	45.39
828.373	45.48
828.545	46.16
828.717	46.32
828.889	47.15
829.061	46.83
829.232	46.82
829.404	46.95
829.576	47.34
829.748	46.61
829.92	46.71
830.092	46.56
830.264	46.85
830.436	47.45
830.607	48.31
830.779	47.69
830.951	49.1
831.123	47.12
831.294	46.95
831.466	47.99
831.638	48.83
831.809	50.97
831.981	51.55
832.153	49.32
832.324	48.66
832.496	45.69
832.667	45.55
832.839	42.89
833.011	43.78
833.182	43.07
833.354	41.06
833.525	41.41
833.697	38.75
833.868	39.15
834.039	39.47
834.211	39.13
834.382	39.46
834.554	39.69
834.725	41.27
834.896	41.21
835.068	41.06
835.239	42.27
835.41	43.31
835.581	44.7
835.753	43.82
835.924	45.16
836.095	45.06
836.266	46.69
836.438	44.39
836.609	44.27
836.78	45.07
836.951	46.04
837.122	44.84
837.293	43.78
837.464	43.1
837.635	44.73
837.806	44.07
837.977	44.37
838.148	45.27
838.319	45.83
838.49	42.52
838.661	42.4
838.832	41.59
839.003	40.65
839.174	37.13
839.345	35.92
839.516	33.92
839.687	32.13
839.857	33.27
840.028	29.88
840.199	32.96
840.37	33.47
840.54	31.74
840.711	29.84
840.882	30.31
841.053	31.28
841.223	30.04
841.394	27.88
841.564	32.45
841.735	33.53
841.906	35
842.076	36.03
842.247	38.84
842.417	37.1
842.588	43.53
842.758	46.19
842.929	43.86
843.099	44.07
843.27	44.85
843.44	40.26
843.611	36.86
843.781	27.78
843.951	21.37
844.122	17.32
844.292	22.51
844.462	14.68
844.633	3.77
844.803	14.28
844.973	16.73
845.144	18.15
845.314	18.65
845.484	15.03
845.654	28.58
845.824	33.37
845.995	34.52
846.165	30.33
846.335	33.79
846.505	41.79
846.675	35.63
846.845	39.68
847.015	39.06
847.185	41.5
847.355	43.13
847.525	40.62
847.695	38.45
847.865	38.88
848.035	36.84
848.205	30.21
848.375	22.2
848.545	26.35
848.715	25.33
848.884	15.72
849.054	17.84
849.224	22.53
849.394	21.24
849.564	24.36
849.733	27.82
849.903	32.05
850.073	34.86
850.243	47.33
850.412	50.06
850.582	50.43
850.752	57.14
850.921	50.4
851.091	54.43
851.26	50.52
851.43	43.15
851.599	39.71
851.769	42.95
851.939	44.26
852.108	35.63
852.278	32.18
852.447	28.65
852.616	34.45
852.786	39.57
852.955	28.6
853.125	23.42
853.294	29.88
853.463	35.32
853.633	24.38
853.802	19.46
853.971	18.15
854.141	15.89
854.31	21.89
854.479	11.25
854.648	25.24
854.818	33.46
854.987	35
855.156	33.01
855.325	37.16
855.494	45.31
855.663	52.43
855.832	44.7
856.001	37.92
856.171	34.4
856.34	31.86
856.509	26.84
856.678	29.48
856.847	32.76
857.016	34.69
857.185	28.86
857.353	21.61
857.522	22.97
857.691	26.11
857.86	27.09
858.029	31.2
858.198	29.56
858.367	23.11
858.535	20.55
858.704	17.89
858.873	21.8
859.042	25.38
859.21	34.87
859.379	36.75
859.548	35.31
859.717	43.32
859.885	42.22
860.054	44.27
860.222	40.85
860.391	36.5
860.56	36.21
860.728	36.08
860.897	40.78
861.065	34.45
861.234	25.61
861.402	29.03
861.571	17.21
861.739	11.21
861.908	5.93
862.076	10.46
862.244	14.31
862.413	18.71
862.581	15.36
862.749	8.92
862.918	17.86
863.086	21.46
863.254	19.53
863.423	27.68
863.591	37.81
863.759	46.99
863.927	62.5
864.096	62.02
864.264	62.05
864.432	61.8
864.6	54.9
864.768	43.62
864.936	43.35
865.104	45.67
865.272	46.78
865.44	46.31
865.608	43.79
865.776	40.78
865.944	34.95
866.112	37.4
866.28	31.01
866.448	33.68
866.616	39.11
866.784	42.33
866.952	39.68
867.12	33.96
867.288	27.17
867.455	27.55
867.623	21.6
867.791	24.9
867.959	25.23
868.127	25.48
868.294	24.12
868.462	24.16
868.63	24.63
868.797	28.25
868.965	33.27
869.133	39.38
869.3	36.9
869.468	38.22
869.636	38.04
869.803	32.53
869.971	25.49
870.138	30
870.306	29.65
870.473	29.13
870.641	29.86
870.808	27.81
870.975	20.74
871.143	28
871.31	26.99
871.478	26.87
871.645	32.07
871.812	38.57
871.98	36.45
872.147	32.65
872.314	30.17
872.482	32.08
872.649	30.14
872.816	25.05
872.983	18.78
873.15	16.08
873.318	18.27
873.485	10
873.652	0.47
873.819	-3.52
873.986	-0.31
874.153	6.76
874.32	13.72
874.487	10.62
874.654	20.92
874.821	19.33
874.988	20.64
875.155	22.8
875.322	26.08
875.489	38.5
875.656	33.56
875.823	33.98
875.99	31.67
876.157	24.74
876.324	25.05
876.49	27.15
876.657	29.04
876.824	30.23
876.991	26.18
877.157	26.55
877.324	12.63
877.491	25.26
877.658	26.07
877.824	24.86
877.991	22.57
878.157	20.22
878.324	12.85
878.491	15.83
878.657	12.52
878.824	14.04
878.99	17.73
879.157	28.75
879.323	25.5
879.49	32.52
879.656	30.41
879.823	35.14
879.989	44.18
880.156	52.76
880.322	53.47
880.488	52.68
880.655	51.41
880.821	47.98
880.987	45.14
881.154	45.9
881.32	41.61
881.486	42.45
881.652	44.66
881.819	46.66
881.985	42.53
882.151	43.77
882.317	46.7
882.483	45.45
882.649	47.8
882.816	47.99
882.982	47.31
883.148	47.08
883.314	46.88
883.48	45.09
883.646	43.71
883.812	45.68
883.978	46.48
884.144	44.7
884.31	47.5
884.476	47.9
884.642	48.61
884.807	47.2
884.973	47.32
885.139	46.55
885.305	46.62
885.471	48.43
885.637	45.61
885.802	44
885.968	44.8
886.134	43.84
886.3	41.02
886.465	41.76
886.631	45.11
886.797	44.45
886.962	45.35
887.128	46.57
887.293	40.36
887.459	40.79
887.625	38.19
887.79	37.41
887.956	29.96
888.121	29.6
888.287	21.9
888.452	15.61
888.618	10.08
888.783	5.43
