Data from LC_254_Reflection_1.txt Node
Date: Thu Nov 19 23:12:30 EST 2015
User: robert
Spectrometer: USB4E03001
Autoset integration time: false
Trigger mode: 4
Integration Time (sec): 1.000000E-1
Scans to average: 15
Electric dark correction enabled: true
Nonlinearity correction enabled: false
Boxcar width: 5
Stray light correction enabled: false
XAxis mode: Wavelengths
Stop averaging: false
Number of Pixels in Spectrum: 3648
>>>>>Begin Spectral Data<<<<<
177.566	-74.14
177.785	-26.79
178.005	-2.42
178.225	9.78
178.445	17.47
178.665	7.14
178.885	46.03
179.105	533.33
179.324	49.14
179.544	105.36
179.764	76.12
179.984	77.13
180.204	138.45
180.423	149.6
180.643	66.05
180.863	57.4
181.083	90.54
181.302	63.89
181.522	60.67
181.742	93.51
181.961	94.63
182.181	140.78
182.401	163.18
182.621	148.51
182.84	158.81
183.06	177.12
183.279	126.36
183.499	95.49
183.719	118.01
183.938	-136.36
184.158	82.12
184.377	-101.64
184.597	36.13
184.816	1400
185.036	103.53
185.256	287.78
185.475	58.72
185.695	42.44
185.914	36.99
186.134	49.22
186.353	81.62
186.572	34.03
186.792	49.58
187.011	37.35
187.231	-70.53
187.45	-157.57
187.67	38.95
187.889	63.78
188.108	43.56
188.328	29.19
188.547	11.78
188.766	112.6
188.986	-4.04
189.205	1106.86
189.424	99.64
189.644	84.54
189.863	59.04
190.082	64.01
190.302	74.99
190.521	97.22
190.74	109.52
190.959	134.31
191.178	145.92
191.398	139.82
191.617	125.93
191.836	393.25
192.055	175.04
192.274	208.07
192.494	157.47
192.713	92.18
192.932	64.52
193.151	52.21
193.37	43.34
193.589	36.45
193.808	37.09
194.027	48.46
194.246	54.21
194.465	67.64
194.685	49.28
194.904	39.06
195.123	48.59
195.342	43.55
195.561	40.86
195.78	38.13
195.999	38.55
196.218	33.09
196.436	41.24
196.655	6.16
196.874	0.42
197.093	15.59
197.312	-13.78
197.531	-36.87
197.75	-124.31
197.969	-92.79
198.188	481.3
198.407	161.74
198.625	168.42
198.844	127.71
199.063	-155.14
199.282	57.36
199.501	91.57
199.719	-64.45
199.938	-2.83
200.157	-282.45
200.376	-408.59
200.594	2282.14
200.813	1445.92
201.032	854.36
201.251	329.41
201.469	58.35
201.688	98.1
201.907	226.66
202.125	376.11
202.344	152.34
202.563	68.4
202.781	-11.47
203	-37
203.218	-4.88
203.437	-86.95
203.656	14.24
203.874	4.38
204.093	-145.34
204.311	-40.99
204.53	-18.56
204.748	-49.33
204.967	-12.93
205.185	-38.53
205.404	-125.91
205.622	-126.81
205.841	-6.95
206.059	-64.95
206.278	-39.94
206.496	16.81
206.715	4.2
206.933	-37.66
207.151	32.13
207.37	3.36
207.588	-32.26
207.806	87.69
208.025	43.87
208.243	-183.51
208.461	-242.95
208.68	-256.02
208.898	-149.95
209.116	-196.48
209.335	-194.92
209.553	-744.18
209.771	2142.86
209.989	-211.33
210.208	444.34
210.426	595.54
210.644	-9.18
210.862	10.87
211.081	4.64
211.299	17.16
211.517	82.96
211.735	57.75
211.953	26.12
212.171	17.89
212.39	33.21
212.608	56.16
212.826	72.36
213.044	93.23
213.262	72.89
213.48	71.6
213.698	67.46
213.916	58.74
214.134	3.63
214.352	91.12
214.57	138.89
214.788	482.95
215.006	344.69
215.224	335.81
215.442	444.12
215.66	219.16
215.878	272.57
216.096	191.2
216.314	286.69
216.532	629.47
216.75	778.36
216.968	-24.79
217.185	421.65
217.403	873.87
217.621	2329.32
217.839	-99.31
218.057	-44.5
218.275	54.41
218.492	62.11
218.71	45.51
218.928	14.88
219.146	24.47
219.363	31.87
219.581	31.45
219.799	47.17
220.017	59.78
220.234	37.47
220.452	37.68
220.67	0.28
220.887	13.57
221.105	26.82
221.323	18.53
221.54	16.74
221.758	23.54
221.976	17.21
222.193	4.22
222.411	-9.29
222.629	0.35
222.846	-5.96
223.064	12.11
223.281	-2.85
223.499	-27.09
223.716	-7.28
223.934	-5.77
224.151	0.45
224.369	9.77
224.586	-2.44
224.804	13.03
225.021	7.17
225.239	11.45
225.456	-8.88
225.674	1.19
225.891	11.95
226.108	15.2
226.326	6.57
226.543	0.71
226.76	-4.58
226.978	12.17
227.195	-1.83
227.413	5.2
227.63	4.7
227.847	7.47
228.064	9.05
228.282	11.01
228.499	11.39
228.716	13.5
228.934	10.79
229.151	9.95
229.368	8.63
229.585	9.79
229.802	8.25
230.02	8.12
230.237	8.54
230.454	6.7
230.671	3.89
230.888	2.53
231.105	-0.2
231.323	2.82
231.54	4.49
231.757	3.74
231.974	6.1
232.191	8.37
232.408	9.71
232.625	10.39
232.842	15.06
233.059	18.28
233.276	19.78
233.493	21.86
233.71	20.71
233.927	20.38
234.144	21.97
234.361	13.99
234.578	11.15
234.795	8.57
235.012	7.75
235.229	1.08
235.446	1.35
235.663	-3.47
235.879	-6.04
236.096	-8.54
236.313	-12.37
236.53	-10.07
236.747	-3.83
236.964	0.28
237.181	1.43
237.397	0.81
237.614	3.61
237.831	5.32
238.048	6.96
238.264	6.16
238.481	6.66
238.698	7.84
238.915	11.75
239.131	5.45
239.348	4.59
239.565	6.61
239.781	8.72
239.998	7.69
240.215	4.94
240.431	3.38
240.648	4.49
240.865	5.19
241.081	6.15
241.298	3.91
241.514	5.71
241.731	6.37
241.947	6.71
242.164	5.29
242.38	6.83
242.597	6.2
242.814	7.38
243.03	7.85
243.246	8.75
243.463	8.42
243.679	8.69
243.896	8.65
244.112	9.31
244.329	7.82
244.545	9.41
244.762	9.64
244.978	10.44
245.194	11.91
245.411	11.61
245.627	11.27
245.843	11.01
246.06	13.16
246.276	12.03
246.492	11.02
246.709	11.1
246.925	10.41
247.141	9.91
247.357	9.92
247.574	9.59
247.79	9.08
248.006	9.45
248.222	9.48
248.439	8.46
248.655	9.24
248.871	9.69
249.087	9.17
249.303	8.92
249.519	8.37
249.736	9.32
249.952	9.03
250.168	9.63
250.384	7.58
250.6	7.35
250.816	6.38
251.032	6.23
251.248	6.43
251.464	7.63
251.68	7.4
251.896	9.17
252.112	7.03
252.328	6.91
252.544	6.67
252.76	9.23
252.976	10.55
253.192	9.95
253.408	8.77
253.624	8.8
253.84	7.99
254.056	8.69
254.272	5.81
254.487	5.72
254.703	5.21
254.919	5.31
255.135	1.77
255.351	0.05
255.567	2.62
255.782	3.95
255.998	4.61
256.214	5.96
256.43	3.76
256.646	8.15
256.861	10.4
257.077	10.86
257.293	12.02
257.508	13.99
257.724	14.08
257.94	12.05
258.155	11.41
258.371	10.28
258.587	8.84
258.802	9.23
259.018	9.9
259.234	9.83
259.449	9.8
259.665	9.27
259.88	8.25
260.096	8.22
260.312	8
260.527	8.14
260.743	7.65
260.958	7.74
261.174	8.6
261.389	7.72
261.605	7.96
261.82	7.55
262.036	7.04
262.251	7.33
262.466	7.71
262.682	8.69
262.897	7.98
263.113	8.22
263.328	10
263.543	9.9
263.759	9.95
263.974	8.77
264.189	9.93
264.405	10.89
264.62	10.73
264.835	10.01
265.051	8.54
265.266	9.53
265.481	10.99
265.696	10.57
265.912	9.26
266.127	8.66
266.342	9.12
266.557	8.46
266.773	8.5
266.988	9.05
267.203	9.2
267.418	9.98
267.633	8.74
267.848	7.95
268.064	7.68
268.279	7.81
268.494	8.17
268.709	7.87
268.924	7.19
269.139	8.27
269.354	7.97
269.569	7.56
269.784	7.06
269.999	7.5
270.214	7.76
270.429	8.06
270.644	7.85
270.859	7.04
271.074	6.18
271.289	6.81
271.504	6.57
271.719	6.53
271.934	6.37
272.149	6.31
272.363	7.22
272.578	7.42
272.793	6.7
273.008	6.92
273.223	7.74
273.438	8.24
273.653	8.18
273.867	6.9
274.082	6.18
274.297	5.02
274.512	5.75
274.726	6.4
274.941	6.13
275.156	5.62
275.371	4.92
275.585	4.67
275.8	4.35
276.015	4.18
276.229	5.98
276.444	6.87
276.659	7.67
276.873	7.71
277.088	6.25
277.302	5.68
277.517	6.66
277.732	7.35
277.946	6.81
278.161	7.53
278.375	8.16
278.59	6.44
278.804	5.7
279.019	6.35
279.233	5.08
279.448	5.17
279.662	6.55
279.877	6.7
280.091	7.19
280.306	7.65
280.52	7.08
280.735	6.77
280.949	7.63
281.163	7.58
281.378	8.24
281.592	9.65
281.806	9.08
282.021	9.1
282.235	8.87
282.449	8.12
282.664	8.05
282.878	8.27
283.092	8.04
283.307	7.9
283.521	8.2
283.735	7.92
283.949	7.86
284.164	7.87
284.378	7.15
284.592	6.79
284.806	6.77
285.02	6.54
285.234	6.97
285.449	6.24
285.663	6.76
285.877	7.09
286.091	7.04
286.305	6.35
286.519	6.89
286.733	7.05
286.947	7.35
287.161	6.85
287.375	6.86
287.589	5.68
287.803	6.75
288.017	6.59
288.231	7.33
288.445	7.29
288.659	7.36
288.873	6.98
289.087	5.52
289.301	6.41
289.515	6.88
289.729	6.89
289.943	7.76
290.157	8.48
290.371	8.55
290.584	7.37
290.798	7.22
291.012	7.68
291.226	7.85
291.44	10.24
291.654	8
291.867	7.95
292.081	8.04
292.295	8.06
292.509	6.57
292.722	6.42
292.936	6.37
293.15	5.35
293.364	7.07
293.577	7.59
293.791	5.9
294.005	8.2
294.218	7.79
294.432	7.8
294.645	8.24
294.859	8.42
295.073	7.98
295.286	8.3
295.5	8.4
295.713	6.87
295.927	6.51
296.14	7.26
296.354	6.05
296.568	6.58
296.781	6.8
296.994	6.49
297.208	6.37
297.421	6.98
297.635	7.35
297.848	7.59
298.062	7.94
298.275	7.62
298.489	7.54
298.702	8.08
298.915	8.83
299.129	8.82
299.342	8.55
299.555	9.1
299.769	7.85
299.982	7.66
300.195	8.04
300.409	8.04
300.622	8.66
300.835	8.31
301.048	8.31
301.262	7.31
301.475	6.53
301.688	7.31
301.901	6.97
302.115	8.31
302.328	8.25
302.541	7.97
302.754	7.05
302.967	7.34
303.18	7.69
303.393	7.8
303.607	7.62
303.82	7.51
304.033	7.38
304.246	7.71
304.459	6.98
304.672	6.94
304.885	7.87
305.098	7.18
305.311	6.75
305.524	6.19
305.737	6.33
305.95	6.68
306.163	6.58
306.376	5.93
306.589	6.24
306.802	5.29
307.015	4.99
307.228	4.82
307.44	6.47
307.653	6.95
307.866	7.73
308.079	8.19
308.292	7.99
308.505	8.58
308.718	8.08
308.93	7.25
309.143	7.88
309.356	7.58
309.569	6.99
309.781	6.77
309.994	6.52
310.207	6.1
310.42	6.54
310.632	6.12
310.845	5.78
311.058	6.86
311.27	6.27
311.483	6.24
311.696	6.52
311.908	6.7
312.121	6.12
312.333	6.02
312.546	5.63
312.759	4.91
312.971	5.43
313.184	5.18
313.396	4.48
313.609	5.5
313.821	6.42
314.034	7.6
314.246	7.02
314.459	7.53
314.671	6.7
314.884	6.78
315.096	6.46
315.309	7.16
315.521	7.39
315.733	7.76
315.946	7.84
316.158	7.69
316.371	6.35
316.583	6.09
316.795	5
317.008	5.4
317.22	5.36
317.432	5.55
317.644	5.24
317.857	5.54
318.069	5.21
318.281	4.96
318.494	5.19
318.706	5.45
318.918	6.42
319.13	7.32
319.342	6.18
319.555	6.59
319.767	6.72
319.979	5.61
320.191	6
320.403	5.73
320.615	5.87
320.827	4.4
321.039	2.75
321.252	2.09
321.464	3.39
321.676	5.54
321.888	4.96
322.1	4.7
322.312	4.32
322.524	5.46
322.736	5.99
322.948	6.19
323.16	6.15
323.372	6.85
323.584	7.46
323.796	6.44
324.007	5.86
324.219	7.77
324.431	7.5
324.643	7.95
324.855	7.26
325.067	7.2
325.279	6.55
325.491	7.44
325.702	8.15
325.914	7.23
326.126	8.17
326.338	8.76
326.55	7.36
326.761	7.78
326.973	8.03
327.185	8.22
327.396	8.73
327.608	9.05
327.82	8.48
328.032	7.71
328.243	8.85
328.455	7.72
328.666	7.23
328.878	7.83
329.09	7.54
329.301	8.41
329.513	8.32
329.725	7.36
329.936	8.05
330.148	8.41
330.359	9.72
330.571	9.88
330.782	10.67
330.994	11.14
331.205	10.36
331.417	10.24
331.628	9.69
331.84	9.71
332.051	10.44
332.262	11
332.474	11.44
332.685	11.65
332.897	11.64
333.108	10.85
333.319	10.51
333.531	10.7
333.742	10.74
333.953	11.15
334.165	11.61
334.376	11.22
334.587	10.54
334.799	9.69
335.01	9.63
335.221	8.97
335.432	10.08
335.644	9.3
335.855	9.78
336.066	10.71
336.277	10.2
336.488	9.04
336.7	8.82
336.911	8.24
337.122	9.26
337.333	9.98
337.544	10.01
337.755	9.08
337.966	9.23
338.177	8.62
338.388	8.25
338.599	8.36
338.811	8.92
339.022	9.1
339.233	8.87
339.444	8.96
339.655	8.11
339.866	8.13
340.076	8.43
340.287	8.91
340.498	9.13
340.709	9.48
340.92	8.64
341.131	8.81
341.342	8.9
341.553	9.38
341.764	8.75
341.975	8.79
342.185	9.32
342.396	9.08
342.607	8.79
342.818	8.56
343.029	8.37
343.239	8.85
343.45	8.8
343.661	8.75
343.872	8.95
344.082	9.06
344.293	9.3
344.504	9.16
344.714	9.24
344.925	9.66
345.136	10.15
345.346	8.87
345.557	8.9
345.768	8.58
345.978	8.48
346.189	8.21
346.399	7.92
346.61	7.32
346.821	6.69
347.031	7.43
347.242	7.25
347.452	6.92
347.663	8
347.873	8.54
348.084	8.59
348.294	8.08
348.504	9.2
348.715	9.82
348.925	9.91
349.136	10.63
349.346	9.68
349.557	9.95
349.767	10.05
349.977	9.91
350.188	9.33
350.398	9.07
350.608	9.73
350.819	8.71
351.029	8.1
351.239	8.69
351.449	8.33
351.66	8.44
351.87	7.89
352.08	7.55
352.29	8.31
352.501	8.65
352.711	8.74
352.921	8.59
353.131	8.16
353.341	8.18
353.552	7.8
353.762	7.44
353.972	7.63
354.182	7.64
354.392	7.79
354.602	6.77
354.812	6.19
355.022	6.01
355.232	5.93
355.442	6.63
355.652	6.46
355.862	6.17
356.072	6.59
356.282	6.8
356.492	6.93
356.702	7.39
356.912	7.62
357.122	8.43
357.332	9.08
357.542	8.95
357.752	8.48
357.962	9.08
358.171	9.35
358.381	9.44
358.591	8.98
358.801	9.12
359.011	8.89
359.221	8.86
359.43	8.09
359.64	7.85
359.85	8.09
360.06	7.95
360.269	8.06
360.479	7.98
360.689	7.66
360.899	7.77
361.108	7.9
361.318	7.83
361.528	7.85
361.737	8.3
361.947	7.78
362.156	8.06
362.366	8.36
362.576	8.05
362.785	7.71
362.995	7.66
363.204	7.87
363.414	7.82
363.623	7.56
363.833	7.56
364.042	7.3
364.252	7.76
364.461	7.12
364.671	6.77
364.88	7.04
365.09	7.16
365.299	7.52
365.509	7.71
365.718	7.47
365.927	8
366.137	7.86
366.346	8.22
366.555	8.05
366.765	8.37
366.974	8.48
367.183	7.92
367.393	7.41
367.602	7.75
367.811	7.95
368.021	8.14
368.23	7.1
368.439	7.14
368.648	6.69
368.857	8.02
369.067	7.4
369.276	7.9
369.485	7.72
369.694	8.33
369.903	7.44
370.112	6.76
370.321	6.81
370.531	7.91
370.74	7.59
370.949	7.61
371.158	6.45
371.367	7.06
371.576	6.53
371.785	6.81
371.994	6.94
372.203	7.42
372.412	7.64
372.621	7.48
372.83	7.04
373.039	7.56
373.248	7.81
373.457	8.15
373.666	7.85
373.874	8.23
374.083	8.17
374.292	8.13
374.501	7.92
374.71	7.84
374.919	7.79
375.128	8.06
375.336	7.85
375.545	7.4
375.754	6.63
375.963	6.75
376.171	6.29
376.38	6.31
376.589	5.91
376.798	5.67
377.006	5.7
377.215	6.02
377.424	5.6
377.632	5.67
377.841	5.87
378.05	6.31
378.258	6.15
378.467	6.33
378.675	6.28
378.884	6.87
379.093	6.94
379.301	6.93
379.51	6.74
379.718	7.24
379.927	7.5
380.135	8.02
380.344	7.87
380.552	8.23
380.761	8.02
380.969	8.05
381.177	7.91
381.386	8.2
381.594	8.32
381.803	8.01
382.011	7.65
382.219	7.54
382.428	7.19
382.636	7.28
382.845	7.13
383.053	7.19
383.261	6.97
383.469	6.75
383.678	6.53
383.886	6.44
384.094	6.63
384.302	6.69
384.511	6.25
384.719	6.04
384.927	5.72
385.135	5.91
385.343	6.13
385.552	6.72
385.76	6.81
385.968	6.98
386.176	6.87
386.384	6.71
386.592	6.82
386.8	7
387.008	6.85
387.216	6.79
387.424	6.42
387.633	6.36
387.841	5.78
388.049	5.92
388.257	5.89
388.465	5.67
388.672	5.77
388.88	5.7
389.088	5.79
389.296	5.96
389.504	6.1
389.712	6.1
389.92	5.79
390.128	5.92
390.336	5.62
390.544	5.2
390.751	5.35
390.959	5.16
391.167	5.19
391.375	5.18
391.583	4.93
391.79	5
391.998	5.32
392.206	5.43
392.414	5.6
392.621	5.56
392.829	5.9
393.037	6.01
393.244	6.02
393.452	5.88
393.66	5.85
393.867	6.12
394.075	6.2
394.283	5.74
394.49	5.69
394.698	5.45
394.905	5.58
395.113	5.37
395.32	5.27
395.528	5.48
395.735	5.71
395.943	5.54
396.15	5.35
396.358	5.3
396.565	5.74
396.773	5.97
396.98	6.13
397.188	6.43
397.395	6.51
397.602	6.27
397.81	6.12
398.017	5.61
398.225	5.67
398.432	5.62
398.639	5.39
398.847	5.25
399.054	5.18
399.261	5.25
399.468	5
399.676	5.35
399.883	5.29
400.09	5.54
400.297	6
400.505	5.97
400.712	6.39
400.919	6.7
401.126	6.78
401.333	6.89
401.54	6.78
401.748	6.88
401.955	6.34
402.162	6.72
402.369	6.59
402.576	6.5
402.783	6.61
402.99	6.41
403.197	6.38
403.404	6.22
403.611	6.15
403.818	6.04
404.025	5.89
404.232	5.81
404.439	5.92
404.646	5.83
404.853	5.71
405.06	5.62
405.267	5.87
405.474	5.7
405.681	5.7
405.887	5.75
406.094	5.85
406.301	5.89
406.508	6.34
406.715	6.06
406.922	6
407.128	5.83
407.335	5.98
407.542	5.7
407.749	5.85
407.955	6.08
408.162	6.07
408.369	6.27
408.575	6.13
408.782	5.85
408.989	5.93
409.195	5.88
409.402	6.18
409.609	6.13
409.815	5.91
410.022	5.83
410.228	5.85
410.435	5.99
410.642	5.93
410.848	5.93
411.055	5.98
411.261	6.28
411.468	6.48
411.674	6.31
411.881	6.42
412.087	6.43
412.294	6.48
412.5	6.31
412.706	6.2
412.913	6.13
413.119	6.21
413.326	6.18
413.532	5.96
413.738	5.71
413.945	5.69
414.151	5.87
414.357	6.13
414.564	6.11
414.77	6.11
414.976	5.93
415.182	5.83
415.389	5.82
415.595	5.58
415.801	5.64
416.007	5.64
416.214	5.72
416.42	5.44
416.626	5.21
416.832	5.31
417.038	5.3
417.244	5.36
417.45	5.47
417.657	5.56
417.863	5.89
418.069	5.89
418.275	6.11
418.481	6.17
418.687	6.16
418.893	6.27
419.099	6.19
419.305	6.28
419.511	6.23
419.717	6.12
419.923	6.05
420.129	5.86
420.335	5.81
420.541	5.74
420.746	5.63
420.952	5.68
421.158	5.57
421.364	5.51
421.57	5.41
421.776	5.47
421.982	5.53
422.187	5.57
422.393	5.56
422.599	5.53
422.805	5.45
423.01	5.51
423.216	5.42
423.422	5.44
423.628	5.59
423.833	5.51
424.039	5.55
424.245	5.47
424.45	5.49
424.656	5.61
424.862	5.6
425.067	5.6
425.273	5.62
425.478	5.72
425.684	5.88
425.889	5.87
426.095	6.04
426.301	5.99
426.506	6.12
426.712	6.09
426.917	6.15
427.123	6.33
427.328	6.38
427.533	6.43
427.739	6.51
427.944	6.41
428.15	6.32
428.355	6.13
428.561	6.13
428.766	6.11
428.971	6.03
429.177	6.03
429.382	5.86
429.587	6.07
429.793	6.05
429.998	5.72
430.203	5.78
430.408	5.76
430.614	5.94
430.819	5.74
431.024	5.68
431.229	5.75
431.434	5.51
431.64	5.46
431.845	5.45
432.05	5.64
432.255	5.74
432.46	5.7
432.665	5.81
432.87	5.83
433.076	6.11
433.281	6.16
433.486	6.19
433.691	6.36
433.896	6.47
434.101	6.31
434.306	6.1
434.511	6.2
434.716	6.27
434.921	6.05
435.126	6.14
435.331	5.98
435.535	5.94
435.74	5.78
435.945	5.82
436.15	5.57
436.355	5.84
436.56	5.71
436.765	5.68
436.97	5.53
437.174	5.67
437.379	5.47
437.584	5.38
437.789	5.36
437.993	5.52
438.198	5.37
438.403	5.36
438.608	5.23
438.812	5.39
439.017	5.38
439.222	5.42
439.426	5.37
439.631	5.48
439.836	5.63
440.04	5.67
440.245	5.76
440.45	5.82
440.654	5.95
440.859	5.92
441.063	6
441.268	6.06
441.472	6.09
441.677	6.13
441.881	6.02
442.086	5.93
442.29	5.83
442.495	5.59
442.699	5.55
442.904	5.58
443.108	5.6
443.312	5.56
443.517	5.41
443.721	5.53
443.925	5.68
444.13	5.71
444.334	5.86
444.538	6.02
444.743	6.19
444.947	6.08
445.151	5.98
445.356	6
445.56	5.96
445.764	6.09
445.968	6.08
446.173	6.08
446.377	6.09
446.581	5.97
446.785	5.89
446.989	5.93
447.193	5.96
447.398	5.86
447.602	5.75
447.806	5.67
448.01	5.54
448.214	5.45
448.418	5.29
448.622	5.11
448.826	5.15
449.03	5.24
449.234	5.04
449.438	5.09
449.642	5.14
449.846	5.2
450.05	5.28
450.254	5.37
450.458	5.19
450.662	5.23
450.866	5.46
451.069	5.4
451.273	5.32
451.477	5.37
451.681	5.3
451.885	5.25
452.089	5.39
452.292	5.43
452.496	5.39
452.7	5.38
452.904	5.22
453.107	5.18
453.311	5.32
453.515	5.21
453.719	5.17
453.922	5.33
454.126	5.3
454.33	5.11
454.533	5.01
454.737	4.95
454.94	5.08
455.144	5.27
455.348	5.24
455.551	5.15
455.755	5.15
455.958	5.22
456.162	5.04
456.365	5.06
456.569	5.04
456.772	5.05
456.976	5.25
457.179	5.38
457.383	5.42
457.586	5.51
457.79	5.42
457.993	5.43
458.196	5.35
458.4	5.42
458.603	5.53
458.807	5.63
459.01	5.64
459.213	5.59
459.417	5.47
459.62	5.41
459.823	5.38
460.026	5.4
460.23	5.38
460.433	5.43
460.636	5.35
460.839	5.32
461.042	5.34
461.246	5.35
461.449	5.16
461.652	5.16
461.855	5.09
462.058	5
462.261	5.05
462.464	5.14
462.668	5.19
462.871	5.31
463.074	5.25
463.277	5.01
463.48	5.1
463.683	5.15
463.886	5.34
464.089	5.59
464.292	5.68
464.495	5.77
464.698	5.5
464.901	5.34
465.104	5.43
465.306	5.69
465.509	5.77
465.712	5.75
465.915	5.8
466.118	5.57
466.321	5.45
466.524	5.51
466.726	5.36
466.929	5.52
467.132	5.62
467.335	5.51
467.538	5.29
467.74	5.36
467.943	5.31
468.146	5.33
468.348	5.46
468.551	5.36
468.754	5.43
468.956	5.5
469.159	5.52
469.362	5.61
469.564	5.51
469.767	5.71
469.969	5.53
470.172	5.62
470.375	5.65
470.577	5.64
470.78	5.85
470.982	5.8
471.185	5.83
471.387	5.81
471.59	5.78
471.792	5.86
471.995	5.71
472.197	5.8
472.399	5.83
472.602	5.72
472.804	5.53
473.007	5.45
473.209	5.26
473.411	5.19
473.614	5.32
473.816	5.4
474.018	5.43
474.22	5.53
474.423	5.56
474.625	5.47
474.827	5.5
475.03	5.49
475.232	5.44
475.434	5.63
475.636	5.58
475.838	5.57
476.04	5.38
476.243	5.37
476.445	5.16
476.647	5.25
476.849	5.11
477.051	5.06
477.253	5.2
477.455	5.21
477.657	5.12
477.859	5.19
478.061	5.1
478.263	5.11
478.465	4.99
478.667	5.1
478.869	5.21
479.071	5.21
479.273	5.21
479.475	5.17
479.677	5.16
479.879	5.26
480.081	5.18
480.283	5.23
480.485	5.22
480.686	5.37
480.888	5.39
481.09	5.32
481.292	5.46
481.494	5.55
481.695	5.58
481.897	5.56
482.099	5.42
482.301	5.47
482.502	5.45
482.704	5.45
482.906	5.46
483.107	5.47
483.309	5.45
483.511	5.39
483.712	5.39
483.914	5.4
484.115	5.43
484.317	5.49
484.519	5.48
484.72	5.52
484.922	5.49
485.123	5.46
485.325	5.47
485.526	5.43
485.728	5.51
485.929	5.51
486.131	5.44
486.332	5.44
486.534	5.43
486.735	5.38
486.936	5.35
487.138	5.38
487.339	5.42
487.541	5.45
487.742	5.44
487.943	5.43
488.144	5.41
488.346	5.48
488.547	5.5
488.748	5.52
488.95	5.59
489.151	5.59
489.352	5.6
489.553	5.7
489.755	5.63
489.956	5.7
490.157	5.67
490.358	5.67
490.559	5.68
490.76	5.7
490.961	5.66
491.163	5.67
491.364	5.68
491.565	5.75
491.766	5.68
491.967	5.73
492.168	5.66
492.369	5.65
492.57	5.65
492.771	5.66
492.972	5.54
493.173	5.53
493.374	5.57
493.575	5.62
493.776	5.47
493.976	5.35
494.177	5.2
494.378	5.32
494.579	5.28
494.78	5.34
494.981	5.27
495.182	5.38
495.382	5.26
495.583	5.11
495.784	5.09
495.985	5.24
496.185	5.31
496.386	5.42
496.587	5.4
496.788	5.43
496.988	5.49
497.189	5.45
497.39	5.58
497.59	5.76
497.791	5.82
497.992	5.79
498.192	5.78
498.393	5.91
498.593	5.96
498.794	5.93
498.994	5.89
499.195	5.89
499.395	5.85
499.596	5.68
499.796	5.61
499.997	5.62
500.197	5.57
500.398	5.67
500.598	5.63
500.799	5.66
500.999	5.67
501.199	5.77
501.4	5.75
501.6	5.83
501.801	5.8
502.001	5.79
502.201	5.84
502.402	5.94
502.602	5.86
502.802	5.86
503.002	5.79
503.203	5.83
503.403	5.84
503.603	5.86
503.803	5.92
504.003	6.12
504.204	6.21
504.404	6.17
504.604	6.12
504.804	6.23
505.004	6.33
505.204	6.48
505.404	6.56
505.604	6.59
505.804	6.61
506.005	6.71
506.205	6.75
506.405	6.75
506.605	6.88
506.805	6.92
507.005	6.86
507.204	6.79
507.404	6.73
507.604	6.75
507.804	6.74
508.004	6.89
508.204	6.85
508.404	6.74
508.604	6.84
508.804	6.72
509.003	6.72
509.203	6.67
509.403	6.61
509.603	6.61
509.803	6.6
510.002	6.6
510.202	6.38
510.402	6.39
510.602	6.49
510.801	6.41
511.001	6.47
511.201	6.5
511.4	6.62
511.6	6.86
511.8	6.84
511.999	6.89
512.199	6.97
512.398	7.02
512.598	7.08
512.797	7.18
512.997	7.24
513.197	7.31
513.396	7.34
513.596	7.27
513.795	7.1
513.994	7.18
514.194	7.22
514.393	7.32
514.593	7.45
514.792	7.51
514.992	7.42
515.191	7.57
515.39	7.45
515.59	7.57
515.789	7.65
515.988	7.78
516.188	7.89
516.387	7.83
516.586	7.83
516.786	7.76
516.985	7.69
517.184	7.66
517.383	7.66
517.582	7.7
517.782	7.64
517.981	7.61
518.18	7.57
518.379	7.52
518.578	7.57
518.777	7.51
518.976	7.52
519.176	7.58
519.375	7.66
519.574	7.62
519.773	7.75
519.972	7.86
520.171	7.92
520.37	7.95
520.569	8.05
520.768	8.06
520.967	8.23
521.166	8.35
521.365	8.49
521.564	8.42
521.762	8.38
521.961	8.38
522.16	8.3
522.359	8.39
522.558	8.47
522.757	8.4
522.956	8.42
523.154	8.19
523.353	8.3
523.552	8.27
523.751	8.34
523.949	8.38
524.148	8.32
524.347	8.41
524.546	8.41
524.744	8.45
524.943	8.61
525.142	8.7
525.34	8.85
525.539	8.82
525.737	8.85
525.936	8.97
526.135	9.04
526.333	9.17
526.532	9.19
526.73	9.16
526.929	9.18
527.127	9.14
527.326	9.12
527.524	9.14
527.723	9.12
527.921	9.09
528.12	9.04
528.318	9.07
528.516	9.04
528.715	9.07
528.913	9.13
529.112	9.16
529.31	9.17
529.508	9.18
529.707	9.21
529.905	9.24
530.103	9.29
530.301	9.32
530.5	9.31
530.698	9.31
530.896	9.36
531.094	9.4
531.293	9.39
531.491	9.45
531.689	9.54
531.887	9.61
532.085	9.65
532.283	9.65
532.481	9.67
532.68	9.81
532.878	10
533.076	9.99
533.274	9.98
533.472	10
533.67	9.95
533.868	9.87
534.066	9.88
534.264	9.93
534.462	10.06
534.66	10.15
534.858	10.13
535.056	10.04
535.253	10.05
535.451	10.07
535.649	10.14
535.847	10.26
536.045	10.39
536.243	10.46
536.441	10.55
536.638	10.47
536.836	10.5
537.034	10.55
537.232	10.62
537.43	10.7
537.627	10.74
537.825	10.76
538.023	10.71
538.22	10.79
538.418	10.75
538.616	10.6
538.813	10.67
539.011	10.74
539.209	10.82
539.406	10.87
539.604	10.84
539.801	10.97
539.999	11.01
540.196	11.1
540.394	11.07
540.591	11.05
540.789	11.13
540.986	11.18
541.184	11.13
541.381	11.17
541.579	11.17
541.776	11.24
541.974	11.23
542.171	11.24
542.368	11.26
542.566	11.35
542.763	11.39
542.96	11.42
543.158	11.5
543.355	11.54
543.552	11.58
543.75	11.6
543.947	11.63
544.144	11.61
544.341	11.74
544.539	11.77
544.736	11.82
544.933	11.91
545.13	12.05
545.327	11.97
545.524	12.02
545.722	12.03
545.919	12.13
546.116	12.17
546.313	12.33
546.51	12.32
546.707	12.39
546.904	12.31
547.101	12.43
547.298	12.36
547.495	12.4
547.692	12.53
547.889	12.53
548.086	12.65
548.283	12.68
548.48	12.78
548.677	12.62
548.874	12.59
549.07	12.83
549.267	12.79
549.464	12.97
549.661	13.02
549.858	13.19
550.055	13.15
550.251	13.21
550.448	13.31
550.645	13.43
550.842	13.82
551.038	13.91
551.235	13.89
551.432	14.09
551.628	14.03
551.825	14.09
552.022	13.93
552.218	14.18
552.415	14.2
552.612	14.22
552.808	14.11
553.005	14
553.201	14.04
553.398	14.11
553.594	13.83
553.791	13.99
553.987	14.27
554.184	14.38
554.38	14.19
554.577	14.27
554.773	14.54
554.97	14.64
555.166	14.84
555.362	14.97
555.559	14.89
555.755	15.09
555.952	15.19
556.148	14.94
556.344	14.91
556.541	15.04
556.737	14.82
556.933	14.5
557.129	14.37
557.326	14.31
557.522	14.42
557.718	14.52
557.914	14.71
558.11	14.44
558.307	14.67
558.503	14.78
558.699	14.92
558.895	15.03
559.091	15.09
559.287	15.41
559.483	15.5
559.679	15.53
559.876	15.62
560.072	15.71
560.268	15.93
560.464	15.91
560.66	16.11
560.856	16.28
561.052	16.53
561.247	16.69
561.443	16.61
561.639	16.6
561.835	16.72
562.031	16.71
562.227	16.6
562.423	16.86
562.619	16.97
562.815	16.92
563.01	16.8
563.206	16.7
563.402	16.79
563.598	16.9
563.793	17.04
563.989	17.07
564.185	17.04
564.381	17.37
564.576	17.27
564.772	17.44
564.968	17.54
565.163	17.8
565.359	17.88
565.555	17.88
565.75	17.93
565.946	18.18
566.141	18.15
566.337	18.33
566.532	18.38
566.728	18.52
566.923	18.36
567.119	18.35
567.314	18.32
567.51	18.4
567.705	18.47
567.901	18.42
568.096	18.44
568.292	18.59
568.487	18.53
568.682	18.46
568.878	18.4
569.073	18.57
569.268	18.64
569.464	18.65
569.659	18.68
569.854	18.8
570.05	18.97
570.245	18.88
570.44	18.88
570.635	19.05
570.831	19.13
571.026	19.14
571.221	19.19
571.416	19.21
571.611	19.23
571.806	19.22
572.002	19.37
572.197	19.38
572.392	19.53
572.587	19.64
572.782	19.53
572.977	19.69
573.172	19.78
573.367	19.81
573.562	19.92
573.757	20.1
573.952	20.16
574.147	20.09
574.342	20.2
574.537	20.1
574.732	20.01
574.927	20.02
575.121	19.98
575.316	20.16
575.511	20.14
575.706	20.14
575.901	19.92
576.096	20.18
576.29	20.29
576.485	20.32
576.68	20.33
576.875	20.39
577.069	20.52
577.264	20.36
577.459	20.38
577.654	20.53
577.848	20.45
578.043	20.81
578.238	20.66
578.432	20.63
578.627	20.58
578.821	20.8
579.016	20.92
579.21	21.29
579.405	21.53
579.6	21.39
579.794	21.56
579.989	21.67
580.183	21.51
580.378	21.54
580.572	21.59
580.766	21.82
580.961	21.62
581.155	21.5
581.35	21.3
581.544	21.39
581.738	21.46
581.933	21.46
582.127	21.62
582.321	21.69
582.516	21.88
582.71	22.07
582.904	21.91
583.099	22
583.293	22.22
583.487	22.2
583.681	22.28
583.875	22.3
584.07	22.3
584.264	22.27
584.458	22.38
584.652	22.34
584.846	22.26
585.04	22.29
585.234	22.56
585.428	22.66
585.623	22.86
585.817	22.63
586.011	22.84
586.205	22.8
586.399	22.91
586.593	22.79
586.787	22.79
586.981	23.02
587.174	23.05
587.368	22.96
587.562	22.94
587.756	22.85
587.95	22.99
588.144	22.95
588.338	22.92
588.532	23.07
588.725	23.16
588.919	23.31
589.113	23.3
589.307	23.27
589.501	23.37
589.694	23.37
589.888	23.62
590.082	23.67
590.275	23.63
590.469	23.7
590.663	23.73
590.856	23.64
591.05	23.59
591.244	23.39
591.437	23.55
591.631	23.57
591.824	23.34
592.018	23.06
592.212	23.05
592.405	23.15
592.599	23.38
592.792	23.38
592.986	23.61
593.179	23.7
593.372	24.12
593.566	24.29
593.759	24.31
593.953	24.69
594.146	24.88
594.339	24.91
594.533	24.96
594.726	24.96
594.92	24.87
595.113	24.86
595.306	24.85
595.499	24.61
595.693	24.57
595.886	24.78
596.079	24.86
596.272	25.05
596.466	25.14
596.659	25.12
596.852	25.04
597.045	25.14
597.238	25.15
597.431	25
597.624	25.14
597.818	25.25
598.011	24.99
598.204	25.04
598.397	24.95
598.59	24.98
598.783	25.01
598.976	24.96
599.169	25.13
599.362	25.19
599.555	25.31
599.748	25.31
599.941	25.12
600.134	25.12
600.326	25.07
600.519	24.81
600.712	24.78
600.905	24.88
601.098	25.05
601.291	24.81
601.483	24.73
601.676	24.98
601.869	24.93
602.062	25.18
602.255	25.45
602.447	25.42
602.64	25.72
602.833	25.81
603.025	25.93
603.218	25.94
603.411	25.95
603.603	26.18
603.796	26.18
603.989	26.18
604.181	26.23
604.374	26.32
604.566	26.31
604.759	26.08
604.951	26.15
605.144	26.13
605.336	26.23
605.529	26.33
605.721	26.31
605.914	26.28
606.106	26.18
606.299	26.2
606.491	26.27
606.683	26.23
606.876	26.59
607.068	26.52
607.26	26.38
607.453	26.36
607.645	26.32
607.837	26.17
608.03	26.3
608.222	26.74
608.414	26.63
608.606	26.65
608.799	26.88
608.991	27.09
609.183	27.35
609.375	27.53
609.567	27.71
609.759	27.64
609.952	27.77
610.144	27.63
610.336	27.5
610.528	27.57
610.72	27.45
610.912	27.5
611.104	27.47
611.296	27.18
611.488	27.21
611.68	27
611.872	27.04
612.064	27.16
612.256	26.94
612.448	26.86
612.64	26.86
612.832	27.08
613.023	26.97
613.215	26.72
613.407	27.02
613.599	26.93
613.791	26.85
613.983	27.3
614.174	26.98
614.366	27.35
614.558	27.21
614.75	27.2
614.941	27.36
615.133	27.43
615.325	27.57
615.516	27.6
615.708	27.83
615.9	28
616.091	27.69
616.283	27.95
616.475	28.01
616.666	28.11
616.858	28.29
617.049	27.88
617.241	27.91
617.432	27.95
617.624	27.82
617.815	27.68
618.007	27.81
618.198	27.91
618.39	27.88
618.581	28.13
618.773	28.34
618.964	28.16
619.155	28.36
619.347	28.37
619.538	28.38
619.729	28.63
619.921	28.86
620.112	28.9
620.303	29
620.494	29.15
620.686	29.04
620.877	29.08
621.068	29.02
621.259	29.1
621.451	29.37
621.642	29.4
621.833	29.51
622.024	29.44
622.215	29.25
622.406	29.01
622.597	29.07
622.788	29.05
622.98	28.99
623.171	29.31
623.362	29.33
623.553	28.95
623.744	29.12
623.935	29
624.126	29.09
624.317	29.42
624.508	29.48
624.698	29.35
624.889	29.18
625.08	29.43
625.271	29.41
625.462	29.51
625.653	29.43
625.844	29.32
626.034	29.16
626.225	28.94
626.416	28.99
626.607	29.33
626.798	29.55
626.988	29.8
627.179	29.61
627.37	29.48
627.56	29.26
627.751	29.58
627.942	29.48
628.132	29.71
628.323	30.04
628.514	29.97
628.704	29.99
628.895	29.91
629.085	29.88
629.276	30.04
629.466	30.22
629.657	30.4
629.847	30.4
630.038	30.49
630.228	30.58
630.419	30.37
630.609	30.45
630.8	30.36
630.99	30.58
631.181	30.8
631.371	30.62
631.561	30.57
631.752	30.49
631.942	30.4
632.132	30.49
632.323	30.25
632.513	30.42
632.703	30.45
632.893	30.28
633.084	30.2
633.274	30.1
633.464	30.37
633.654	30.34
633.844	30.49
634.034	30.51
634.225	30.53
634.415	30.71
634.605	30.39
634.795	30.28
634.985	30.38
635.175	30.17
635.365	30.41
635.555	30.34
635.745	30.33
635.935	30.54
636.125	30.72
636.315	30.72
636.505	30.61
636.695	30.66
636.885	30.53
637.075	30.61
637.265	30.91
637.455	30.33
637.644	30.34
637.834	30.48
638.024	30.21
638.214	30.32
638.404	30.36
638.593	30.35
638.783	30.57
638.973	30.6
639.163	30.64
639.352	30.59
639.542	30.87
639.732	31.05
639.921	31.22
640.111	31
640.301	31.04
640.49	31.22
640.68	31.06
640.87	31.15
641.059	31.41
641.249	31.6
641.438	31.71
641.628	31.77
641.817	31.8
642.007	31.84
642.196	32.27
642.386	32.17
642.575	32.21
642.764	32.87
642.954	32.98
643.143	33.2
643.333	33.2
643.522	32.98
643.711	33.25
643.901	32.91
644.09	32.65
644.279	32.67
644.469	32.87
644.658	32.91
644.847	32.57
645.036	32.5
645.226	32.3
645.415	31.91
645.604	31.94
645.793	31.84
645.982	31.68
646.171	31.96
646.361	32.01
646.55	31.66
646.739	31.61
646.928	31.8
647.117	31.77
647.306	31.73
647.495	31.58
647.684	31.82
647.873	31.71
648.062	32.21
648.251	32.09
648.44	31.91
648.629	32.07
648.818	32.39
649.007	32.36
649.196	32.54
649.384	32.63
649.573	32.96
649.762	32.84
649.951	33.2
650.14	33.31
650.328	33.25
650.517	33.13
650.706	33.05
650.895	32.5
651.083	32.46
651.272	31.84
651.461	31.83
651.65	31.74
651.838	31.75
652.027	31.27
652.216	30.94
652.404	30.78
652.593	31.22
652.781	31.17
652.97	31.63
653.158	31.7
653.347	32.1
653.535	31.75
653.724	31.8
653.912	31.96
654.101	32.75
654.289	32.98
654.478	33.4
654.666	33.19
654.855	33.41
655.043	33.27
655.231	33.07
655.42	33.19
655.608	33.54
655.796	33.55
655.985	33.71
656.173	33.47
656.361	33.63
656.55	33.53
656.738	33.37
656.926	33.4
657.114	33.58
657.302	33.73
657.491	33.99
657.679	34.21
657.867	34.6
658.055	34.57
658.243	34.63
658.431	34.55
658.619	34.55
658.807	34.53
658.996	34.65
659.184	34.51
659.372	34.47
659.56	34.5
659.748	34.64
659.936	34.54
660.124	34.47
660.311	34.33
660.499	34.25
660.687	34.33
660.875	34.59
661.063	34.54
661.251	34.72
661.439	34.61
661.627	34.6
661.814	34.45
662.002	34.34
662.19	34.51
662.378	34.51
662.565	34.39
662.753	34.57
662.941	34.55
663.129	34.29
663.316	34.22
663.504	34.28
663.692	34.51
663.879	34.51
664.067	34.73
664.254	34.51
664.442	34.82
664.63	34.82
664.817	34.49
665.005	34.81
665.192	35.1
665.38	34.68
665.567	35.18
665.755	35
665.942	34.99
666.13	35.17
666.317	35.09
666.504	34.66
666.692	34.77
666.879	35.16
667.067	35.38
667.254	35.29
667.441	35.91
667.629	35.67
667.816	35.77
668.003	35.78
668.19	35.77
668.378	36.33
668.565	36.51
668.752	36.67
668.939	36.29
669.127	35.92
669.314	35.74
669.501	35.29
669.688	35.51
669.875	35.44
670.062	35.32
670.249	35.24
670.436	35.06
670.623	35.14
670.81	35.23
670.997	35.41
671.184	35.33
671.371	35.98
671.558	36.41
671.745	36.07
671.932	36.13
672.119	36.01
672.306	35.99
672.493	35.94
672.68	35.9
672.867	36.12
673.054	36.34
673.24	36.55
673.427	36.41
673.614	36.44
673.801	36.61
673.988	36.42
674.174	36.69
674.361	36.66
674.548	36.85
674.734	36.98
674.921	37.1
675.108	37.08
675.294	37.22
675.481	37.5
675.668	37.34
675.854	37.41
676.041	37.37
676.227	37.69
676.414	37.98
676.601	37.87
676.787	37.67
676.974	36.81
677.16	36.5
677.347	35.95
677.533	35.33
677.719	35.31
677.906	35.11
678.092	35.43
678.279	35.61
678.465	35.54
678.651	35.54
678.838	35.51
679.024	36.23
679.21	36.45
679.397	36.66
679.583	37.11
679.769	37.23
679.955	37.47
680.142	37.52
680.328	37.26
680.514	37.22
680.7	37.01
680.886	37.52
681.073	37.42
681.259	37.83
681.445	37.85
681.631	37.46
681.817	37.95
682.003	37.83
682.189	37.92
682.375	37.88
682.561	38.03
682.747	38.37
682.933	37.77
683.119	37.81
683.305	37.93
683.491	37.69
683.677	37.86
683.863	37.1
684.049	37.4
684.235	37.18
684.42	37.28
684.606	37.43
684.792	37.42
684.978	38.02
685.164	37.84
685.349	37.44
685.535	37.85
685.721	37.62
685.907	38.05
686.092	37.92
686.278	38.06
686.464	38.32
686.649	37.91
686.835	37.76
687.021	37.61
687.206	37.61
687.392	37.71
687.577	37.98
687.763	38.2
687.948	38.16
688.134	38.25
688.319	38.17
688.505	37.86
688.69	38.24
688.876	38.18
689.061	37.83
689.247	38.04
689.432	37.4
689.618	36.85
689.803	37.27
689.988	37.21
690.174	37.26
690.359	37.1
690.544	37.43
690.73	37.35
690.915	37.22
691.1	36.95
691.285	36.76
691.471	37.53
691.656	38.13
691.841	37.45
692.026	37.18
692.211	37.06
692.396	37.05
692.582	36.56
692.767	36.54
692.952	36.34
693.137	36.95
693.322	37.04
693.507	36.65
693.692	36.36
693.877	36.59
694.062	36.89
694.247	36.54
694.432	37.18
694.617	37.7
694.802	37.71
694.987	38.1
695.172	37.95
695.357	37.69
695.541	37.72
695.726	37.79
695.911	38.13
696.096	38.05
696.281	38.35
696.466	38.02
696.65	37.81
696.835	37.83
697.02	38.05
697.204	38.31
697.389	38.66
697.574	38.85
697.759	38.56
697.943	38.55
698.128	38.61
698.312	38.68
698.497	38.52
698.682	38.85
698.866	38.94
699.051	39.09
699.235	39.22
699.42	39.03
699.604	38.95
699.789	39.3
699.973	39.39
700.158	39.27
700.342	39.25
700.527	39.41
700.711	38.94
700.895	38.68
701.08	38.77
701.264	38.7
701.448	39.3
701.633	39.14
701.817	38.99
702.001	38.73
702.186	39.07
702.37	38.96
702.554	38.84
702.738	38.77
702.923	39.11
703.107	38.74
703.291	38.32
703.475	37.98
703.659	38.34
703.843	38.6
704.027	38.74
704.212	38.07
704.396	38.55
704.58	39.08
704.764	39.59
704.948	39.08
705.132	39.43
705.316	39.24
705.5	39.52
705.684	39.72
705.868	40.11
706.052	40.58
706.235	40.88
706.419	40.95
706.603	41.34
706.787	40.64
706.971	40.37
707.155	40.47
707.339	41.33
707.522	41.18
707.706	40.74
707.89	40.21
708.074	39.97
708.257	39.92
708.441	39.82
708.625	39.01
708.808	39.5
708.992	40.06
709.176	39.43
709.359	38.67
709.543	38.46
709.727	38.38
709.91	38.36
710.094	38.45
710.277	38.95
710.461	38.86
710.644	39.33
710.828	39.13
711.011	39.57
711.195	39.82
711.378	40.14
711.562	40.56
711.745	40.66
711.928	40.73
712.112	40.22
712.295	39.88
712.478	39.58
712.662	39.73
712.845	40.27
713.028	39.73
713.212	39.44
713.395	39.63
713.578	39.49
713.761	39.63
713.945	39.6
714.128	40.15
714.311	40.98
714.494	41.46
714.677	40.77
714.86	40.62
715.043	40.52
715.227	40.41
715.41	40.23
715.593	40.04
715.776	40.06
715.959	39.93
716.142	39.61
716.325	39.18
716.508	39.11
716.691	39.73
716.874	39.86
717.057	40.2
717.239	40.95
717.422	40.62
717.605	40.71
717.788	40.9
717.971	41.61
718.154	41.85
718.337	41.6
718.519	41.12
718.702	41.02
718.885	40.62
719.068	40.55
719.25	41.17
719.433	41.6
719.616	41.64
719.798	40.66
719.981	40.96
720.164	41.39
720.346	41.61
720.529	41.28
720.712	40.41
720.894	40.34
721.077	39.96
721.259	39.35
721.442	39.5
721.624	39.95
721.807	40.69
721.989	39.63
722.172	39.4
722.354	39.17
722.537	40.3
722.719	41.03
722.901	41.28
723.084	41.86
723.266	41.62
723.448	41.8
723.631	42.36
723.813	42.04
723.995	42.07
724.178	41.22
724.36	40.89
724.542	40.42
724.724	40.14
724.907	40.67
725.089	40.73
725.271	40.53
725.453	40.7
725.635	39.43
725.817	41.04
725.999	41.07
726.181	41.88
726.364	42.29
726.546	42.85
726.728	43.37
726.91	43.26
727.092	42.97
727.274	43.01
727.456	42.79
727.638	43.37
727.819	42.89
728.001	42.79
728.183	42.31
728.365	42.56
728.547	42.19
728.729	41.95
728.911	42.24
729.093	42.42
729.274	42.63
729.456	42.31
729.638	41.78
729.82	41.44
730.001	41.25
730.183	41.43
730.365	41.35
730.546	41.69
730.728	41.4
730.91	40.58
731.091	40.36
731.273	40.41
731.455	40.74
731.636	40.79
731.818	40.81
731.999	40.83
732.181	41.22
732.362	41.28
732.544	41.37
732.725	41.49
732.907	41.67
733.088	42.29
733.27	42.1
733.451	42.43
733.633	43.08
733.814	43.21
733.995	42.99
734.177	42.39
734.358	42.66
734.539	42.38
734.721	42.52
734.902	42.11
735.083	41.8
735.264	42.44
735.446	42.34
735.627	41.91
735.808	41.21
735.989	42.41
736.17	43.46
736.351	42.38
736.533	42.72
736.714	43.13
736.895	43.81
737.076	44.76
737.257	44.11
737.438	43.47
737.619	42.73
737.8	43.07
737.981	42.6
738.162	42.27
738.343	42.59
738.524	42.18
738.705	42.1
738.886	42.38
739.067	40.73
739.247	41.02
739.428	40.19
739.609	40.74
739.79	41.46
739.971	41.49
740.151	40.65
740.332	40.85
740.513	40.75
740.694	40.19
740.874	39.35
741.055	40.09
741.236	40.42
741.417	41.56
741.597	41.36
741.778	41.04
741.958	40.67
742.139	40.59
742.32	40.51
742.5	40.27
742.681	40.28
742.861	41.09
743.042	40.53
743.222	40.33
743.403	40.04
743.583	40.49
743.764	40.73
743.944	40.27
744.124	40.81
744.305	41.22
744.485	41.33
744.666	40.67
744.846	40.33
745.026	40.22
745.207	39.54
745.387	39.58
745.567	39.35
745.747	38.43
745.928	39.61
746.108	39.1
746.288	39.08
746.468	39.44
746.648	39.15
746.829	39.68
747.009	40.9
747.189	41.05
747.369	41.67
747.549	41.72
747.729	42.74
747.909	43.65
748.089	44.42
748.269	44.17
748.449	44.81
748.629	45.9
748.809	45.37
748.989	44.67
749.169	45.02
749.349	44.19
749.529	44.87
749.709	44.28
749.889	43.39
750.068	43.18
750.248	43.14
750.428	42.55
750.608	43.19
750.788	43.53
750.967	43.93
751.147	44.13
751.327	44.31
751.507	43.44
751.686	43.65
751.866	43.21
752.046	43.76
752.225	45.34
752.405	45.47
752.585	43.86
752.764	43.81
752.944	42.9
753.123	42.71
753.303	44.06
753.482	44.26
753.662	44.29
753.841	44.17
754.021	43.47
754.2	41.85
754.38	41.71
754.559	42.21
754.739	41.38
754.918	42.05
755.097	41.09
755.277	40.83
755.456	40.2
755.635	39.52
755.815	40.53
755.994	41.3
756.173	41.87
756.352	42.31
756.532	43.32
756.711	44.86
756.89	45.28
757.069	46.36
757.248	44.86
757.427	45.45
757.607	45.07
757.786	44.8
757.965	44.15
758.144	44.09
758.323	43.7
758.502	42.99
758.681	42.63
758.86	42.19
759.039	42.55
759.218	43.58
759.397	44.48
759.576	45.38
759.755	45.08
759.934	44.75
760.113	44.03
760.291	44.37
760.47	44.56
760.649	45
760.828	45.09
761.007	43.99
761.186	43.55
761.364	42.81
761.543	42.66
761.722	43.22
761.901	43.33
762.079	44.24
762.258	43.47
762.437	44.19
762.615	43.25
762.794	43.45
762.972	43.73
763.151	43.52
763.33	43.35
763.508	43.52
763.687	43.37
763.865	43.57
764.044	43.41
764.222	43.62
764.401	43.04
764.579	43.39
764.758	42.68
764.936	42.95
765.114	43.07
765.293	42.95
765.471	42.47
765.65	42.32
765.828	41.93
766.006	41.92
766.184	42.46
766.363	42.74
766.541	42
766.719	42.15
766.898	41.96
767.076	42
767.254	41.65
767.432	42.57
767.61	42.44
767.788	43.15
767.967	43.3
768.145	43.05
768.323	42.69
768.501	43.74
768.679	45.24
768.857	45.43
769.035	45.12
769.213	46.52
769.391	46.63
769.569	47.04
769.747	46.14
769.925	45.21
770.103	44.1
770.281	44.4
770.459	43.38
770.636	43.06
770.814	43.46
770.992	43.39
771.17	42.62
771.348	40.47
771.525	39.03
771.703	39.85
771.881	41.81
772.059	42.38
772.236	42.57
772.414	43.78
772.592	43.04
772.769	41.8
772.947	43.15
773.125	44.23
773.302	46.36
773.48	47.59
773.657	47.27
773.835	46.44
774.013	47.27
774.19	46.66
774.368	45.81
774.545	46.29
774.723	47.54
774.9	46.45
775.077	46.4
775.255	46.21
775.432	46.68
775.61	46.76
775.787	45.27
775.964	43.52
776.142	43.99
776.319	44.8
776.496	44.14
776.674	43.55
776.851	44.75
777.028	44.24
777.205	44.58
777.382	44.99
777.56	45.89
777.737	46.02
777.914	46.1
778.091	47.08
778.268	46.25
778.445	46.58
778.622	46.95
778.8	46.87
778.977	46.2
779.154	56.3
779.331	54.69
779.508	54.87
779.685	56.11
779.862	57.95
780.038	56.41
780.215	56.93
780.392	57.63
780.569	58.29
780.746	57.53
780.923	58.37
781.1	46.81
781.277	46.04
781.453	45.57
781.63	45.36
781.807	44.54
781.984	45.47
782.16	46.74
782.337	45.33
782.514	43.84
782.691	44.23
782.867	42.52
783.044	41.69
783.221	43.05
783.397	42.83
783.574	42.83
783.75	42.13
783.927	41.69
784.103	40.19
784.28	41.02
784.456	42.96
784.633	43.19
784.809	43.78
784.986	43.37
785.162	42.35
785.339	42.33
785.515	44.76
785.692	46.01
785.868	45.25
786.044	44.01
786.221	44.26
786.397	42.53
786.573	42.58
786.749	42.5
786.926	42.67
787.102	44.29
787.278	44.35
787.454	41.82
787.631	42.25
787.807	43.25
787.983	44.74
788.159	44.67
788.335	45.72
788.511	46.51
788.687	47.95
788.863	49.81
789.039	50.3
789.216	49.97
789.392	50.83
789.568	49.8
789.744	50.56
789.919	51.46
790.095	50.56
790.271	49.79
790.447	47.36
790.623	46.56
790.799	44.52
790.975	42.99
791.151	41.93
791.327	41.1
791.502	41.99
791.678	41.17
791.854	41.42
792.03	42.18
792.205	41.96
792.381	43.01
792.557	42.08
792.733	43.66
792.908	44.37
793.084	47.65
793.259	48.03
793.435	47.61
793.611	48.31
793.786	46.17
793.962	46.57
794.137	47.66
794.313	49.37
794.488	50.07
794.664	49.15
794.839	48.55
795.015	46.37
795.19	47.41
795.366	49.15
795.541	48.12
795.716	48.52
795.892	47.12
796.067	46.4
796.242	43.53
796.418	42.78
796.593	44.06
796.768	43.76
796.944	43.93
797.119	41.02
797.294	39.15
797.469	40.91
797.644	40.33
797.82	41.7
797.995	41.54
798.17	44.09
798.345	45.3
798.52	44.89
798.695	44.93
798.87	46.2
799.045	48.54
799.22	48.08
799.395	47.91
799.57	48.01
799.745	48.69
799.92	48.41
800.095	46.78
800.27	46.07
800.445	46.76
800.62	46.31
800.795	46.14
800.97	44.28
801.145	46.73
801.319	45.44
801.494	45.49
801.669	44.03
801.844	45.36
802.018	44.79
802.193	46.34
802.368	46.45
802.543	48.2
802.717	44.83
802.892	45.01
803.067	42.79
803.241	41.65
803.416	42.22
803.59	42.8
803.765	42.6
803.94	43.91
804.114	43.94
804.289	43.38
804.463	42.45
804.638	43.68
804.812	45.67
804.986	47.65
805.161	49.15
805.335	48.29
805.51	47.16
805.684	45.11
805.858	45.41
806.033	44.62
806.207	44.32
806.381	47.54
806.556	49.24
806.73	48.6
806.904	49.22
807.078	50.57
807.253	52.76
807.427	53.38
807.601	54.53
807.775	53.75
807.949	52.33
808.123	52.17
808.298	48.05
808.472	47.98
808.646	46.25
808.82	46.89
808.994	45.35
809.168	41.5
809.342	42.19
809.516	41.11
809.69	40.97
809.864	42.18
810.038	44.85
810.212	44.47
810.385	46.01
810.559	45.98
810.733	43.65
810.907	41.61
811.081	42.96
811.255	41.26
811.428	42.38
811.602	43.01
811.776	42.94
811.95	40.94
812.123	42.26
812.297	41.11
812.471	43.25
812.644	43.04
812.818	47.24
812.992	46.52
813.165	47.63
813.339	47.57
813.512	49.41
813.686	48.48
813.86	48.9
814.033	47.92
814.207	48.97
814.38	48.8
814.554	49.47
814.727	47.47
814.9	52.46
815.074	54.29
815.247	52.53
815.421	50.57
815.594	50.67
815.767	49.99
815.941	50.46
816.114	50.13
816.287	49.58
816.46	49.46
816.634	50.91
816.807	46.47
816.98	47.58
817.153	50.27
817.327	50.35
817.5	52.26
817.673	51.72
817.846	52.67
818.019	51.43
818.192	53.9
818.365	52.5
818.538	51.18
818.711	52.43
818.884	49.24
819.057	46.82
819.23	45.16
819.403	44.53
819.576	46.12
819.749	46.04
819.922	46.36
820.095	45.79
820.268	45.78
820.441	44.73
820.614	44.21
820.786	44.13
820.959	45.58
821.132	47.77
821.305	47.37
821.477	46.3
821.65	46.14
821.823	45.41
821.996	45.28
822.168	45.6
822.341	45
822.514	44.64
822.686	45.15
822.859	44.98
823.031	44.62
823.204	44.93
823.376	44.68
823.549	44.22
823.722	44.44
823.894	44.07
824.067	43.84
824.239	44.24
824.411	44.42
824.584	44.44
824.756	44.17
824.929	44.2
825.101	43.82
825.273	44.11
825.446	44.17
825.618	43.84
825.79	44.09
825.963	44.13
826.135	44.56
826.307	44.55
826.479	44.65
826.652	44.58
826.824	44.5
826.996	44.08
827.168	43.97
827.34	44.24
827.512	44.38
827.684	44.65
827.856	44.55
828.029	44.68
828.201	44.46
828.373	43.72
828.545	44.1
828.717	44.49
828.889	44.5
829.061	45.53
829.232	46.12
829.404	47.51
829.576	46.98
829.748	47.38
829.92	47.51
830.092	49.09
830.264	48.91
830.436	47.95
830.607	46.25
830.779	46.29
830.951	45.18
831.123	44.72
831.294	42.89
831.466	44.61
831.638	44.11
831.809	43.78
831.981	41.39
832.153	40.36
832.324	42.58
832.496	45.85
832.667	47.55
832.839	46.56
833.011	46.52
833.182	46.5
833.354	44.98
833.525	44.1
833.697	42.43
833.868	43.55
834.039	46.48
834.211	46.91
834.382	45.45
834.554	45.8
834.725	45.07
834.896	45.06
835.068	43.84
835.239	42.24
835.41	42.71
835.581	44.76
835.753	44.97
835.924	43.37
836.095	41.67
836.266	42.73
836.438	41.08
836.609	42.7
836.78	44.19
836.951	43.54
837.122	43.97
837.293	42.92
837.464	40.27
837.635	40.56
837.806	41.97
837.977	41.42
838.148	37.8
838.319	38.82
838.49	38.59
838.661	37.86
838.832	40.83
839.003	43.85
839.174	46.35
839.345	47.85
839.516	48.8
839.687	47.62
839.857	50.17
840.028	48.46
840.199	46.02
840.37	44.07
840.54	40.73
840.711	40.44
840.882	37.27
841.053	38.82
841.223	39.46
841.394	34.5
841.564	35.26
841.735	35.53
841.906	40.82
842.076	42.13
842.247	41.41
842.417	42.5
842.588	42.89
842.758	44.28
842.929	40.36
843.099	37.28
843.27	40.05
843.44	41.78
843.611	44.49
843.781	37.39
843.951	40.15
844.122	40.49
844.292	36.84
844.462	36.03
844.633	33.97
844.803	36.88
844.973	37.95
845.144	37.43
845.314	32.78
845.484	27.83
845.654	37.1
845.824	33.63
845.995	31.43
846.165	35.34
846.335	36.67
846.505	39.3
846.675	38.86
846.845	49.17
847.015	42.63
847.185	42.41
847.355	48.03
847.525	52.06
847.695	55.66
847.865	65.46
848.035	67.28
848.205	66
848.375	71.13
848.545	71.76
848.715	60.21
848.884	68.78
849.054	72.08
849.224	66.85
849.394	73.57
849.564	68.8
849.733	66
849.903	64.57
850.073	58.9
850.243	53.87
850.412	52.46
850.582	56.02
850.752	50.33
850.921	44.06
851.091	40.2
851.26	29.47
851.43	35.53
851.599	29.74
851.769	28.39
851.939	28.18
852.108	32.93
852.278	33.33
852.447	32.48
852.616	37.35
852.786	48.66
852.955	42.95
853.125	48.47
853.294	45.18
853.463	42.94
853.633	46.06
853.802	47.9
853.971	48.27
854.141	49.64
854.31	34.84
854.479	33.18
854.648	19.87
854.818	30.79
854.987	26.52
855.156	22.79
855.325	30.24
855.494	25.43
855.663	27.96
855.832	18.4
856.001	10.26
856.171	17.69
856.34	9.84
856.509	6.99
856.678	8.51
856.847	20.49
857.016	27.71
857.185	20.12
857.353	15.14
857.522	21.32
857.691	30.4
857.86	27.69
858.029	29.66
858.198	32
858.367	37.97
858.535	35.95
858.704	33
858.873	26.83
859.042	26.69
859.21	34.53
859.379	32.87
859.548	26.92
859.717	41.77
859.885	42.37
860.054	50.43
860.222	48.72
860.391	49.37
860.56	46.18
860.728	47.87
860.897	50.44
861.065	46.42
861.234	49.33
861.402	49.37
861.571	46.92
861.739	40.76
861.908	34.32
862.076	29
862.244	23.58
862.413	29.63
862.581	34.06
862.749	36.61
862.918	46.2
863.086	39.98
863.254	37.06
863.423	27.19
863.591	27.17
863.759	33.01
863.927	42.04
864.096	41.75
864.264	36.1
864.432	30.31
864.6	40.34
864.768	24.58
864.936	19.79
865.104	28.22
865.272	33.36
865.44	41.11
865.608	38.18
865.776	39.83
865.944	41.83
866.112	44.82
866.28	52.33
866.448	46.62
866.616	65.65
866.784	66.91
866.952	58.35
867.12	56.38
867.288	54.79
867.455	52.6
867.623	47.29
867.791	42.75
867.959	45.97
868.127	45.02
868.294	48.06
868.462	27.17
868.63	39.85
868.797	47.29
868.965	50.53
869.133	39.91
869.3	53.14
869.468	52.42
869.636	57.92
869.803	48.82
869.971	44.51
870.138	38.98
870.306	51.88
870.473	54.87
870.641	51.25
870.808	54.28
870.975	62.08
871.143	49.3
871.31	52.79
871.478	53.4
871.645	55.6
871.812	56.22
871.98	57.2
872.147	51.61
872.314	44.58
872.482	42.53
872.649	32.62
872.816	39.32
872.983	41.3
873.15	29.12
873.318	28.47
873.485	31.05
873.652	35.03
873.819	33.73
873.986	46.09
874.153	42.25
874.32	42.99
874.487	47.75
874.654	52.77
874.821	47.62
874.988	53.55
875.155	53.66
875.322	49.51
875.489	40.77
875.656	23.82
875.823	8.36
875.99	20.68
876.157	25.68
876.324	32.82
876.49	24.18
876.657	30.96
876.824	33.78
876.991	34.01
877.157	30.53
877.324	36.78
877.491	46.07
877.658	49.36
877.824	59.38
877.991	61.32
878.157	61.41
878.324	65.98
878.491	60.52
878.657	66.66
878.824	77.5
878.99	80.2
879.157	79.08
879.323	78.73
879.49	62.52
879.656	50.63
879.823	39.36
879.989	26.92
880.156	20.5
880.322	18.05
880.488	17.4
880.655	11.73
880.821	18.57
880.987	25.84
881.154	28.91
881.32	37.76
881.486	35.5
881.652	36.97
881.819	42.16
881.985	45.25
882.151	48.82
882.317	47.59
882.483	47.77
882.649	46.82
882.816	44.07
882.982	44.32
883.148	43.79
883.314	44.42
883.48	46.37
883.646	46.59
883.812	46.76
883.978	45.96
884.144	45.4
884.31	46.69
884.476	44.71
884.642	45.54
884.807	45.28
884.973	46.36
885.139	46.9
885.305	45.82
885.471	45.64
885.637	46.02
885.802	46.36
885.968	46.76
886.134	46.84
886.3	51.01
886.465	51.25
886.631	52.91
886.797	53.77
886.962	53.11
887.128	57.27
887.293	60.47
887.459	62.43
887.625	63.58
887.79	66.68
887.956	63.37
888.121	61.77
888.287	62.29
888.452	62.39
888.618	58.32
888.783	60.5
