Data from LC_245_Reflection_1.txt Node
Date: Thu Nov 19 22:43:48 EST 2015
User: robert
Spectrometer: USB4E03001
Autoset integration time: false
Trigger mode: 4
Integration Time (sec): 1.000000E-1
Scans to average: 15
Electric dark correction enabled: true
Nonlinearity correction enabled: false
Boxcar width: 5
Stray light correction enabled: false
XAxis mode: Wavelengths
Stop averaging: false
Number of Pixels in Spectrum: 3648
>>>>>Begin Spectral Data<<<<<
177.566	66.5
177.785	42.49
178.005	56.56
178.225	77.11
178.445	74.27
178.665	23.93
178.885	21.75
179.105	-166.67
179.324	-215.54
179.544	-195.87
179.764	6.56
179.984	-32.55
180.204	-116.62
180.423	-45.72
180.643	-37.55
180.863	-5.86
181.083	54.06
181.302	25.26
181.522	33.55
181.742	63.09
181.961	67.35
182.181	51.74
182.401	62.9
182.621	70.81
182.84	51.41
183.06	63.77
183.279	79.53
183.499	26.12
183.719	180
183.938	476.77
184.158	250.49
184.377	-267.88
184.597	162.72
184.816	-1188.68
185.036	-7.59
185.256	519.44
185.475	22.4
185.695	17.11
185.914	53.82
186.134	-96.54
186.353	-60.07
186.572	-70.76
186.792	-298.2
187.011	2104.42
187.231	1131.86
187.45	899.25
187.67	118.47
187.889	98.33
188.108	89.29
188.328	101.92
188.547	184.67
188.766	217.23
188.986	17.95
189.205	457.84
189.424	109.45
189.644	147.23
189.863	83.44
190.082	63.7
190.302	87.03
190.521	83.02
190.74	77.34
190.959	95.14
191.178	85.15
191.398	73.73
191.617	59.47
191.836	-82.68
192.055	-15.16
192.274	110.26
192.494	104.58
192.713	64.88
192.932	66.91
193.151	62.12
193.37	51.11
193.589	72.29
193.808	61.64
194.027	72.59
194.246	80.69
194.465	72.03
194.685	20.63
194.904	23.93
195.123	19
195.342	32.07
195.561	51.97
195.78	44.82
195.999	30.26
196.218	21.87
196.436	17.97
196.655	-4.4
196.874	17.34
197.093	36.09
197.312	15.17
197.531	0.46
197.75	-26.04
197.969	11.28
198.188	69.19
198.407	25.88
198.625	-25.38
198.844	11.37
199.063	-463.93
199.282	-13.28
199.501	-11.61
199.719	-44.8
199.938	-7.02
200.157	-76.26
200.376	-100.65
200.594	463.99
200.813	131.79
201.032	119.85
201.251	164.71
201.469	-82.25
201.688	-13.64
201.907	33.32
202.125	210.24
202.344	86.85
202.563	-47.97
202.781	-89.21
203	-39.67
203.218	-33.27
203.437	-50.43
203.656	9.72
203.874	77.35
204.093	119.79
204.311	31.98
204.53	11.53
204.748	12.21
204.967	62.03
205.185	24.36
205.404	-0.29
205.622	40.2
205.841	49.48
206.059	27.2
206.278	47.9
206.496	37.64
206.715	22.25
206.933	45.36
207.151	54.68
207.37	-27.51
207.588	-69.44
207.806	0.92
208.025	-70.69
208.243	-271.93
208.461	-532.92
208.68	-535.85
208.898	-268.09
209.116	-237.06
209.335	-322.11
209.553	-1332.96
209.771	5998.32
209.989	-557.48
210.208	551.54
210.426	650.12
210.644	-121.53
210.862	-30.42
211.081	-0.9
211.299	-27.02
211.517	38.44
211.735	18.4
211.953	15.52
212.171	8.08
212.39	20.34
212.608	23.39
212.826	44.92
213.044	59.85
213.262	31.14
213.48	6.24
213.698	2.21
213.916	-33.12
214.134	-48.45
214.352	-79.11
214.57	-109.97
214.788	24.96
215.006	16.96
215.224	-79.33
215.442	-286.21
215.66	-24.94
215.878	-52.97
216.096	137.62
216.314	57.29
216.532	200.25
216.75	279.03
216.968	36.16
217.185	624.05
217.403	917.09
217.621	1493.57
217.839	-144.25
218.057	-52.06
218.275	17.66
218.492	-7.22
218.71	10.09
218.928	-1.4
219.146	-30
219.363	2.17
219.581	19.99
219.799	30.61
220.017	36.03
220.234	58.62
220.452	71.79
220.67	58.09
220.887	53.71
221.105	58.43
221.323	43.93
221.54	69.45
221.758	67.71
221.976	31.59
222.193	21.6
222.411	13.8
222.629	5.47
222.846	-5.49
223.064	5.36
223.281	-16.95
223.499	-49.06
223.716	-38.63
223.934	-45.09
224.151	-32.48
224.369	-14.68
224.586	-23.15
224.804	-16.41
225.021	-4.37
225.239	-0.41
225.456	-18.23
225.674	4.56
225.891	16.5
226.108	26.66
226.326	21.15
226.543	20.89
226.76	13.11
226.978	15.34
227.195	13.13
227.413	-2.16
227.63	-2.37
227.847	6.6
228.064	4.85
228.282	4.34
228.499	4.15
228.716	4.26
228.934	4.02
229.151	6.73
229.368	4.73
229.585	4.69
229.802	6.47
230.02	4.85
230.237	3.94
230.454	3.28
230.671	0.3
230.888	-1.53
231.105	-3.9
231.323	-4.74
231.54	-7.03
231.757	-5.56
231.974	-4.69
232.191	-5.24
232.408	-1.13
232.625	-1.41
232.842	1.35
233.059	9.72
233.276	12.56
233.493	15.8
233.71	20.81
233.927	23.08
234.144	25.55
234.361	18.57
234.578	17.16
234.795	15.11
235.012	17.02
235.229	11.78
235.446	10.49
235.663	9.26
235.879	7.47
236.096	1.77
236.313	-1.47
236.53	-2.07
236.747	4.78
236.964	7.06
237.181	5.94
237.397	3.35
237.614	11.54
237.831	9.42
238.048	11.68
238.264	9.69
238.481	9.89
238.698	12.08
238.915	15.16
239.131	7.54
239.348	10.12
239.565	10.92
239.781	12.09
239.998	9.54
240.215	7.81
240.431	3.76
240.648	5.04
240.865	7.91
241.081	8.14
241.298	7.17
241.514	10.29
241.731	8.78
241.947	9.75
242.164	8.93
242.38	9.72
242.597	10.45
242.814	11.23
243.03	10.68
243.246	10.09
243.463	8.43
243.679	8.44
243.896	8.86
244.112	10.05
244.329	8.81
244.545	10.06
244.762	9.97
244.978	8.63
245.194	9.02
245.411	11.67
245.627	11.23
245.843	12.59
246.06	12.38
246.276	11.03
246.492	12.06
246.709	11.78
246.925	11.33
247.141	11.03
247.357	11.2
247.574	11.75
247.79	11.22
248.006	11.73
248.222	10.98
248.439	10.36
248.655	9.88
248.871	8.28
249.087	7.85
249.303	6.97
249.519	6.11
249.736	6.17
249.952	5.01
250.168	4.08
250.384	1.63
250.6	3.13
250.816	4.41
251.032	5.68
251.248	7.26
251.464	7.5
251.68	8.31
251.896	9.7
252.112	9.04
252.328	9.91
252.544	9.57
252.76	10.59
252.976	10.65
253.192	9.49
253.408	8.89
253.624	8.89
253.84	9.36
254.056	9.18
254.272	6.67
254.487	5.3
254.703	3.35
254.919	3.16
255.135	3.22
255.351	1.72
255.567	3.34
255.782	1.77
255.998	2.41
256.214	1.29
256.43	2.4
256.646	4.98
256.861	7.5
257.077	8.77
257.293	9.55
257.508	10.15
257.724	9.89
257.94	10.1
258.155	11.57
258.371	10.27
258.587	10.54
258.802	10.34
259.018	10.19
259.234	9.09
259.449	8.52
259.665	8.41
259.88	7.88
260.096	8.68
260.312	7.2
260.527	6.9
260.743	6.8
260.958	6.86
261.174	6.89
261.389	6.29
261.605	7.14
261.82	6.46
262.036	5.91
262.251	5.66
262.466	4.9
262.682	5.99
262.897	6.26
263.113	5.6
263.328	6.14
263.543	5.73
263.759	6.5
263.974	6.67
264.189	7.9
264.405	7.56
264.62	7.19
264.835	6.42
265.051	4.84
265.266	4.87
265.481	6.11
265.696	5.34
265.912	4
266.127	4.74
266.342	2.97
266.557	3.16
266.773	3.41
266.988	3.29
267.203	3.12
267.418	4.84
267.633	4.23
267.848	3.13
268.064	2.82
268.279	3.24
268.494	3.4
268.709	4.46
268.924	3.25
269.139	4.3
269.354	5.17
269.569	4.3
269.784	4.21
269.999	4.28
270.214	5.92
270.429	5.72
270.644	5.16
270.859	4.12
271.074	1.7
271.289	2.96
271.504	2.57
271.719	2.48
271.934	2.7
272.149	2.67
272.363	2.76
272.578	2.2
272.793	3.02
273.008	2.76
273.223	3.2
273.438	5.27
273.653	5.21
273.867	4.14
274.082	3.69
274.297	4.22
274.512	5.13
274.726	5.44
274.941	5.26
275.156	4.32
275.371	4.56
275.585	4.07
275.8	3.42
276.015	2.6
276.229	4.23
276.444	4.69
276.659	4
276.873	2.55
277.088	4.07
277.302	3.53
277.517	3.59
277.732	4.6
277.946	4.34
278.161	4.78
278.375	5.69
278.59	4.71
278.804	4.34
279.019	5.34
279.233	6.32
279.448	5.71
279.662	7.63
279.877	8.05
280.091	8.23
280.306	8.12
280.52	7.66
280.735	8.31
280.949	8.64
281.163	9.07
281.378	8.58
281.592	8.91
281.806	8.52
282.021	8.16
282.235	8.1
282.449	7.55
282.664	8.5
282.878	8.05
283.092	7.07
283.307	8.07
283.521	8.05
283.735	8.36
283.949	7.71
284.164	7.72
284.378	6.16
284.592	5.66
284.806	6.49
285.02	5.5
285.234	6.77
285.449	6.31
285.663	5.55
285.877	5.59
286.091	5.47
286.305	5.12
286.519	5.39
286.733	6.28
286.947	6.82
287.161	5.68
287.375	6.15
287.589	4.89
287.803	5.43
288.017	5.86
288.231	6.51
288.445	6.73
288.659	8.17
288.873	7.21
289.087	5.87
289.301	6.18
289.515	6.61
289.729	6.64
289.943	7.54
290.157	7.93
290.371	7.42
290.584	6.41
290.798	6.56
291.012	5.35
291.226	5.88
291.44	8.32
291.654	7.49
291.867	7.91
292.081	7.19
292.295	6.63
292.509	6.08
292.722	7.25
292.936	6.49
293.15	5.44
293.364	6.6
293.577	6.29
293.791	5.1
294.005	5.6
294.218	5.52
294.432	6.29
294.645	6.07
294.859	5.79
295.073	5.15
295.286	6.36
295.5	6.93
295.713	6.46
295.927	6.38
296.14	5.87
296.354	5.4
296.568	5.79
296.781	5.83
296.994	6.67
297.208	6.65
297.421	7.2
297.635	7.62
297.848	7.68
298.062	8.1
298.275	7.86
298.489	7.51
298.702	8.74
298.915	8.89
299.129	8.92
299.342	8.71
299.555	9.18
299.769	9.12
299.982	8.57
300.195	8.92
300.409	8.16
300.622	7.83
300.835	8.5
301.048	7.54
301.262	7.09
301.475	6.29
301.688	5.06
301.901	4.38
302.115	3.85
302.328	3.76
302.541	2.15
302.754	2.59
302.967	3.3
303.18	2.81
303.393	2.09
303.607	2.06
303.82	2.5
304.033	3.17
304.246	4.72
304.459	4.82
304.672	5.07
304.885	6.19
305.098	6.6
305.311	6.44
305.524	7.12
305.737	7.5
305.95	6.53
306.163	5.45
306.376	5.94
306.589	4.75
306.802	3.99
307.015	3.88
307.228	4.5
307.44	3.27
307.653	4.46
307.866	4.63
308.079	5.84
308.292	6.83
308.505	8.51
308.718	7.23
308.93	7.75
309.143	7.41
309.356	7.1
309.569	7.06
309.781	7.85
309.994	6.72
310.207	6.38
310.42	6.51
310.632	6.38
310.845	5.66
311.058	6.53
311.27	6.19
311.483	6.38
311.696	6.46
311.908	6.65
312.121	6.54
312.333	6.89
312.546	6.16
312.759	5.74
312.971	5.61
313.184	6.14
313.396	6.1
313.609	6.09
313.821	6.68
314.034	7.04
314.246	6
314.459	6.03
314.671	6.48
314.884	7.65
315.096	7.33
315.309	7.42
315.521	7.91
315.733	9.09
315.946	9.38
316.158	9.47
316.371	10.1
316.583	10.94
316.795	9.87
317.008	8.41
317.22	7.8
317.432	7.95
317.644	8.9
317.857	7.25
318.069	4.8
318.281	4.77
318.494	5.48
318.706	3.45
318.918	2.14
319.13	3.14
319.342	3.54
319.555	3.74
319.767	3.94
319.979	2.63
320.191	3.35
320.403	5.07
320.615	4.72
320.827	4.32
321.039	3.86
321.252	4.55
321.464	5.17
321.676	5.97
321.888	5.53
322.1	5.54
322.312	5.86
322.524	7.12
322.736	6.44
322.948	7.21
323.16	6.51
323.372	7.5
323.584	7.96
323.796	6.95
324.007	6.93
324.219	8.2
324.431	7.63
324.643	6.96
324.855	6.35
325.067	6.9
325.279	6.54
325.491	7.18
325.702	7.05
325.914	6.58
326.126	7.4
326.338	7.38
326.55	6.19
326.761	5.96
326.973	6.37
327.185	5.85
327.396	6.06
327.608	6.14
327.82	5.83
328.032	6.09
328.243	6.37
328.455	5.63
328.666	6.12
328.878	6.67
329.09	7.27
329.301	7.98
329.513	8.14
329.725	7.03
329.936	6.77
330.148	6.6
330.359	7.38
330.571	7.4
330.782	7.69
330.994	7.53
331.205	7.84
331.417	8.25
331.628	7.45
331.84	7.89
332.051	8.33
332.262	9.07
332.474	10.44
332.685	10.06
332.897	9.7
333.108	8.98
333.319	8.98
333.531	8.81
333.742	8.04
333.953	8.51
334.165	8.76
334.376	8.94
334.587	8.64
334.799	7.06
335.01	6.69
335.221	6.95
335.432	8.34
335.644	7.56
335.855	7.41
336.066	7.37
336.277	7.19
336.488	6.45
336.7	6.03
336.911	5.71
337.122	6.74
337.333	7.7
337.544	7.68
337.755	7.4
337.966	7.25
338.177	7.45
338.388	8.06
338.599	8.59
338.811	9.52
339.022	9.4
339.233	9.66
339.444	10.15
339.655	9.56
339.866	9.93
340.076	9.12
340.287	10.14
340.498	9.67
340.709	9.81
340.92	9.6
341.131	9.11
341.342	9.81
341.553	9.57
341.764	8.44
341.975	8.66
342.185	8.62
342.396	9.79
342.607	9.86
342.818	10.13
343.029	10.2
343.239	10.18
343.45	10.32
343.661	9.85
343.872	10.08
344.082	10.1
344.293	10.75
344.504	10.55
344.714	9.9
344.925	9.66
345.136	9.77
345.346	8.18
345.557	8.15
345.768	7.6
345.978	8.02
346.189	7.38
346.399	7.44
346.61	6.24
346.821	6.08
347.031	5.98
347.242	6.07
347.452	6.37
347.663	8.08
347.873	8.54
348.084	8.73
348.294	8.21
348.504	9
348.715	9.01
348.925	9.29
349.136	9.54
349.346	9.27
349.557	9.73
349.767	8.96
349.977	8.73
350.188	7.8
350.398	7.82
350.608	8.13
350.819	8.11
351.029	7.96
351.239	8.11
351.449	7.53
351.66	7.68
351.87	7.01
352.08	6.53
352.29	7.32
352.501	7.81
352.711	8.46
352.921	8.85
353.131	8.57
353.341	8.65
353.552	8.63
353.762	8.71
353.972	9.17
354.182	9.42
354.392	10.42
354.602	9.28
354.812	8.74
355.022	8.47
355.232	8.77
355.442	9.08
355.652	8.62
355.862	8.59
356.072	8.93
356.282	9.66
356.492	9.07
356.702	9.24
356.912	9.33
357.122	9.67
357.332	9.6
357.542	8.53
357.752	8.18
357.962	8.69
358.171	8.79
358.381	9.2
358.591	8.16
358.801	8.6
359.011	8.39
359.221	8.39
359.43	8.04
359.64	8.45
359.85	8.99
360.06	9.32
360.269	9.35
360.479	9.22
360.689	8.66
360.899	8.7
361.108	8.57
361.318	8.7
361.528	8.81
361.737	9.31
361.947	8.84
362.156	8.85
362.366	8.91
362.576	9.01
362.785	8.55
362.995	8.43
363.204	8.58
363.414	8.36
363.623	8.09
363.833	7.97
364.042	7.67
364.252	7.94
364.461	7.64
364.671	7.12
364.88	7.22
365.09	7.53
365.299	7.49
365.509	7.73
365.718	7.51
365.927	7.86
366.137	8.1
366.346	8.51
366.555	8.07
366.765	8.45
366.974	8.57
367.183	7.81
367.393	7.84
367.602	8.34
367.811	8.37
368.021	8.87
368.23	8.02
368.439	7.48
368.648	6.85
368.857	7.1
369.067	6.73
369.276	7.37
369.485	7.4
369.694	7.66
369.903	7.13
370.112	6.89
370.321	6.69
370.531	7.34
370.74	7.15
370.949	7.23
371.158	7.05
371.367	6.93
371.576	6.21
371.785	6.51
371.994	6.47
372.203	6.44
372.412	6.3
372.621	6.32
372.83	6.06
373.039	6.58
373.248	6.82
373.457	7.05
373.666	7.39
373.874	7.63
374.083	7.4
374.292	7.12
374.501	7.49
374.71	7.6
374.919	7.63
375.128	8.01
375.336	7.76
375.545	7.58
375.754	6.96
375.963	6.98
376.171	6.82
376.38	7.19
376.589	7.12
376.798	6.87
377.006	6.61
377.215	6.91
377.424	6.5
377.632	6.85
377.841	6.64
378.05	7.01
378.258	6.84
378.467	7.02
378.675	6.62
378.884	6.93
379.093	7.41
379.301	7.74
379.51	7.34
379.718	7.38
379.927	7.18
380.135	7.26
380.344	7.08
380.552	7.75
380.761	7.54
380.969	7.75
381.177	7.47
381.386	6.75
381.594	6.75
381.803	6.47
382.011	6.55
382.219	6.72
382.428	7.2
382.636	7.68
382.845	6.96
383.053	6.58
383.261	6.3
383.469	6.74
383.678	6.97
383.886	6.8
384.094	7.1
384.302	7.21
384.511	6.91
384.719	6.56
384.927	6.34
385.135	6.55
385.343	6.85
385.552	7.31
385.76	6.8
385.968	6.77
386.176	6.89
386.384	7.17
386.592	6.98
386.8	7.3
387.008	6.94
387.216	6.75
387.424	6.53
387.633	6.81
387.841	6.49
388.049	6.58
388.257	6.5
388.465	6.09
388.672	5.93
388.88	5.98
389.088	5.7
389.296	6.29
389.504	6.44
389.712	6.56
389.92	6.39
390.128	6.49
390.336	6.62
390.544	6.66
390.751	6.8
390.959	6.61
391.167	6.46
391.375	6.4
391.583	5.78
391.79	5.84
391.998	6.07
392.206	6.05
392.414	6.33
392.621	6.36
392.829	6.37
393.037	6.36
393.244	6.32
393.452	6.48
393.66	6.39
393.867	6.84
394.075	6.57
394.283	6.11
394.49	5.96
394.698	5.59
394.905	5.36
395.113	5.47
395.32	5.69
395.528	5.78
395.735	6.03
395.943	6.28
396.15	6.21
396.358	6.41
396.565	6.52
396.773	6.51
396.98	6.49
397.188	6.7
397.395	6.67
397.602	6.57
397.81	6.43
398.017	6.03
398.225	5.84
398.432	5.48
398.639	5.28
398.847	5.41
399.054	5.53
399.261	5.65
399.468	5.48
399.676	5.16
399.883	5
400.09	4.97
400.297	5.26
400.505	5.44
400.712	5.8
400.919	6.06
401.126	5.84
401.333	5.87
401.54	5.82
401.748	6.12
401.955	6.45
402.162	6.36
402.369	6.79
402.576	6.68
402.783	6.45
402.99	6.56
403.197	6.44
403.404	6.66
403.611	6.79
403.818	6.52
404.025	6.27
404.232	6.06
404.439	6.47
404.646	6.21
404.853	6.1
405.06	6.17
405.267	6.26
405.474	6.43
405.681	6.36
405.887	6.41
406.094	6.67
406.301	6.8
406.508	7.12
406.715	6.78
406.922	6.52
407.128	6.51
407.335	6.54
407.542	6.46
407.749	6.23
407.955	6.41
408.162	6.28
408.369	6.27
408.575	6.23
408.782	5.91
408.989	5.85
409.195	5.99
409.402	6.07
409.609	6.01
409.815	5.71
410.022	5.87
410.228	5.86
410.435	5.83
410.642	5.9
410.848	5.91
411.055	6.13
411.261	6.47
411.468	6.51
411.674	6.55
411.881	6.79
412.087	6.83
412.294	6.74
412.5	6.51
412.706	6.26
412.913	6.17
413.119	5.93
413.326	5.69
413.532	5.47
413.738	5.44
413.945	5.37
414.151	5.29
414.357	5.47
414.564	5.34
414.77	5.36
414.976	5.52
415.182	5.5
415.389	5.62
415.595	5.63
415.801	5.6
416.007	5.93
416.214	5.95
416.42	5.8
416.626	5.61
416.832	5.88
417.038	5.99
417.244	5.87
417.45	5.9
417.657	5.98
417.863	6.13
418.069	6.21
418.275	6.18
418.481	6.29
418.687	6.2
418.893	6.37
419.099	6.18
419.305	6.14
419.511	6.25
419.717	6.12
419.923	6.03
420.129	5.95
420.335	5.89
420.541	5.82
420.746	5.65
420.952	5.82
421.158	5.73
421.364	5.8
421.57	5.69
421.776	5.69
421.982	5.76
422.187	5.81
422.393	5.76
422.599	5.68
422.805	5.57
423.01	5.63
423.216	5.42
423.422	5.29
423.628	5.27
423.833	5.24
424.039	5.18
424.245	5.2
424.45	5.28
424.656	5.41
424.862	5.45
425.067	5.4
425.273	5.4
425.478	5.46
425.684	5.69
425.889	5.75
426.095	5.92
426.301	5.81
426.506	5.84
426.712	5.67
426.917	5.73
427.123	5.83
427.328	5.82
427.533	5.8
427.739	6.01
427.944	5.97
428.15	5.63
428.355	5.57
428.561	5.73
428.766	5.69
428.971	5.81
429.177	5.61
429.382	5.6
429.587	5.94
429.793	5.86
429.998	5.57
430.203	5.46
430.408	5.68
430.614	5.64
430.819	5.56
431.024	5.46
431.229	5.24
431.434	5
431.64	4.9
431.845	4.88
432.05	4.97
432.255	4.94
432.46	4.97
432.665	5.04
432.87	5.03
433.076	5.13
433.281	5.15
433.486	5.39
433.691	5.64
433.896	5.62
434.101	5.4
434.306	5.39
434.511	5.37
434.716	5.35
434.921	5.24
435.126	5.42
435.331	5.2
435.535	5.23
435.74	5.05
435.945	5.05
436.15	4.98
436.355	5.25
436.56	5.23
436.765	5.4
436.97	5.33
437.174	5.35
437.379	5.1
437.584	5.19
437.789	5.23
437.993	5.24
438.198	5.04
438.403	4.99
438.608	4.95
438.812	4.88
439.017	4.91
439.222	4.93
439.426	4.94
439.631	5.03
439.836	5.24
440.04	5.17
440.245	5.17
440.45	5.3
440.654	5.42
440.859	5.27
441.063	5.38
441.268	5.39
441.472	5.44
441.677	5.38
441.881	5.34
442.086	5.03
442.29	5.12
442.495	5.03
442.699	5.1
442.904	5.09
443.108	5.18
443.312	5.01
443.517	4.93
443.721	4.99
443.925	5.16
444.13	5.14
444.334	5.27
444.538	5.29
444.743	5.43
444.947	5.36
445.151	5.39
445.356	5.45
445.56	5.58
445.764	5.6
445.968	5.53
446.173	5.43
446.377	5.51
446.581	5.53
446.785	5.43
446.989	5.43
447.193	5.34
447.398	5.1
447.602	4.97
447.806	4.87
448.01	4.65
448.214	4.62
448.418	4.54
448.622	4.42
448.826	4.51
449.03	4.6
449.234	4.39
449.438	4.46
449.642	4.69
449.846	4.78
450.05	4.86
450.254	5.06
450.458	5.01
450.662	5.18
450.866	5.15
451.069	5.06
451.273	4.95
451.477	5.04
451.681	4.91
451.885	4.93
452.089	4.81
452.292	4.76
452.496	4.78
452.7	4.7
452.904	4.52
453.107	4.59
453.311	4.7
453.515	4.62
453.719	4.76
453.922	4.74
454.126	4.46
454.33	4.53
454.533	4.53
454.737	4.45
454.94	4.57
455.144	4.67
455.348	4.67
455.551	4.55
455.755	4.55
455.958	4.49
456.162	4.51
456.365	4.75
456.569	4.77
456.772	4.77
456.976	5.02
457.179	4.98
457.383	5.08
457.586	4.96
457.79	4.89
457.993	4.93
458.196	4.86
458.4	4.96
458.603	4.95
458.807	4.91
459.01	4.95
459.213	4.87
459.417	5.02
459.62	4.96
459.823	5.02
460.026	5.03
460.23	5.08
460.433	5.06
460.636	4.94
460.839	4.92
461.042	5.04
461.246	4.97
461.449	4.94
461.652	4.8
461.855	4.8
462.058	4.69
462.261	4.82
462.464	4.81
462.668	4.94
462.871	5.21
463.074	5.32
463.277	5.11
463.48	5.23
463.683	5.25
463.886	5.45
464.089	5.52
464.292	5.65
464.495	5.68
464.698	5.61
464.901	5.53
465.104	5.57
465.306	5.61
465.509	5.66
465.712	5.57
465.915	5.48
466.118	5.37
466.321	5.37
466.524	5.28
466.726	5.1
466.929	5.09
467.132	5.06
467.335	4.76
467.538	4.55
467.74	4.53
467.943	4.51
468.146	4.58
468.348	4.48
468.551	4.32
468.754	4.43
468.956	4.51
469.159	4.53
469.362	4.57
469.564	4.53
469.767	4.87
469.969	4.85
470.172	4.96
470.375	4.81
470.577	4.89
470.78	5.15
470.982	5.21
471.185	5.18
471.387	5.05
471.59	5.12
471.792	5.27
471.995	5.09
472.197	5.01
472.399	4.92
472.602	5.09
472.804	5.08
473.007	4.86
473.209	4.61
473.411	4.66
473.614	4.83
473.816	4.97
474.018	5
474.22	5.01
474.423	5.17
474.625	5.16
474.827	5.12
475.03	4.92
475.232	4.93
475.434	5.27
475.636	5.23
475.838	5.29
476.04	5.13
476.243	5.04
476.445	4.94
476.647	4.89
476.849	4.9
477.051	4.85
477.253	5.11
477.455	5.32
477.657	5.07
477.859	5.04
478.061	4.9
478.263	4.8
478.465	4.79
478.667	4.94
478.869	5.1
479.071	5.03
479.273	4.93
479.475	4.76
479.677	4.6
479.879	4.75
480.081	4.77
480.283	4.82
480.485	4.76
480.686	4.86
480.888	4.84
481.09	4.67
481.292	4.77
481.494	4.86
481.695	4.94
481.897	4.94
482.099	4.78
482.301	4.76
482.502	4.74
482.704	4.77
482.906	4.75
483.107	4.75
483.309	4.75
483.511	4.75
483.712	4.77
483.914	4.79
484.115	4.74
484.317	4.81
484.519	4.86
484.72	4.89
484.922	4.91
485.123	4.93
485.325	4.88
485.526	4.9
485.728	4.91
485.929	4.93
486.131	4.87
486.332	4.93
486.534	4.9
486.735	4.86
486.936	4.84
487.138	4.86
487.339	4.8
487.541	4.89
487.742	4.93
487.943	4.91
488.144	4.95
488.346	5
488.547	5.08
488.748	5.13
488.95	5.15
489.151	5.18
489.352	5.11
489.553	5.25
489.755	5.2
489.956	5.17
490.157	5.17
490.358	5.06
490.559	5.07
490.76	5.03
490.961	4.99
491.163	4.93
491.364	4.96
491.565	5.05
491.766	4.99
491.967	5.04
492.168	5.08
492.369	5.13
492.57	5.14
492.771	5.14
492.972	5.11
493.173	5.12
493.374	5.22
493.575	5.19
493.776	5.1
493.976	5.01
494.177	5.02
494.378	4.98
494.579	4.92
494.78	4.92
494.981	4.87
495.182	4.91
495.382	4.81
495.583	4.71
495.784	4.66
495.985	4.79
496.185	4.85
496.386	4.81
496.587	4.78
496.788	4.76
496.988	4.85
497.189	4.8
497.39	4.86
497.59	4.99
497.791	5.11
497.992	5.2
498.192	5.2
498.393	5.3
498.593	5.38
498.794	5.45
498.994	5.46
499.195	5.49
499.395	5.53
499.596	5.44
499.796	5.35
499.997	5.17
500.197	5.14
500.398	5.19
500.598	5.01
500.799	4.99
500.999	4.77
501.199	4.9
501.4	4.89
501.6	4.86
501.801	4.92
502.001	4.91
502.201	5.09
502.402	5.15
502.602	5.14
502.802	5.21
503.002	5.21
503.203	5.38
503.403	5.41
503.603	5.4
503.803	5.52
504.003	5.59
504.204	5.7
504.404	5.64
504.604	5.53
504.804	5.65
505.004	5.89
505.204	5.75
505.404	5.76
505.604	5.58
505.804	5.63
506.005	5.57
506.205	5.48
506.405	5.5
506.605	5.58
506.805	5.68
507.005	5.63
507.204	5.48
507.404	5.6
507.604	5.64
507.804	5.74
508.004	5.84
508.204	6.04
508.404	6
508.604	6.09
508.804	6.04
509.003	6.12
509.203	6.04
509.403	6.02
509.603	5.99
509.803	6.05
510.002	6
510.202	5.84
510.402	5.69
510.602	5.8
510.801	5.78
511.001	5.75
511.201	5.7
511.4	5.71
511.6	5.83
511.8	5.97
511.999	5.96
512.199	6.15
512.398	6.2
512.598	6.31
512.797	6.4
512.997	6.33
513.197	6.43
513.396	6.47
513.596	6.53
513.795	6.46
513.994	6.47
514.194	6.61
514.393	6.6
514.593	6.67
514.792	6.74
514.992	6.56
515.191	6.78
515.39	6.8
515.59	6.86
515.789	6.9
515.988	6.99
516.188	7
516.387	6.94
516.586	6.97
516.786	6.88
516.985	6.87
517.184	6.94
517.383	6.82
517.582	6.76
517.782	6.72
517.981	6.76
518.18	6.74
518.379	6.68
518.578	6.71
518.777	6.74
518.976	6.91
519.176	6.96
519.375	7.03
519.574	7.05
519.773	7.14
519.972	7.32
520.171	7.31
520.37	7.37
520.569	7.47
520.768	7.57
520.967	7.51
521.166	7.48
521.365	7.55
521.564	7.54
521.762	7.6
521.961	7.63
522.16	7.51
522.359	7.67
522.558	7.75
522.757	7.7
522.956	7.62
523.154	7.69
523.353	7.67
523.552	7.57
523.751	7.62
523.949	7.62
524.148	7.5
524.347	7.53
524.546	7.49
524.744	7.56
524.943	7.68
525.142	7.67
525.34	7.78
525.539	7.79
525.737	7.9
525.936	7.99
526.135	8.13
526.333	8.28
526.532	8.27
526.73	8.39
526.929	8.37
527.127	8.33
527.326	8.36
527.524	8.43
527.723	8.44
527.921	8.44
528.12	8.43
528.318	8.41
528.516	8.39
528.715	8.44
528.913	8.42
529.112	8.47
529.31	8.53
529.508	8.57
529.707	8.52
529.905	8.59
530.103	8.63
530.301	8.59
530.5	8.61
530.698	8.69
530.896	8.73
531.094	8.76
531.293	8.77
531.491	8.81
531.689	8.9
531.887	8.98
532.085	9.01
532.283	9.02
532.481	9.2
532.68	9.27
532.878	9.36
533.076	9.4
533.274	9.43
533.472	9.4
533.67	9.4
533.868	9.38
534.066	9.44
534.264	9.5
534.462	9.59
534.66	9.67
534.858	9.69
535.056	9.65
535.253	9.64
535.451	9.76
535.649	9.82
535.847	9.94
536.045	9.95
536.243	9.96
536.441	10.06
536.638	10.08
536.836	10.06
537.034	10.07
537.232	10.18
537.43	10.34
537.627	10.31
537.825	10.42
538.023	10.32
538.22	10.51
538.418	10.51
538.616	10.43
538.813	10.42
539.011	10.5
539.209	10.61
539.406	10.66
539.604	10.64
539.801	10.78
539.999	10.8
540.196	10.92
540.394	10.87
540.591	10.97
540.789	11.03
540.986	11.08
541.184	11.09
541.381	11.11
541.579	11.14
541.776	11.18
541.974	11.16
542.171	11.15
542.368	11.24
542.566	11.29
542.763	11.25
542.96	11.31
543.158	11.43
543.355	11.45
543.552	11.53
543.75	11.65
543.947	11.73
544.144	11.74
544.341	11.92
544.539	11.88
544.736	11.99
544.933	12.06
545.13	12.09
545.327	11.99
545.524	12.04
545.722	12.06
545.919	12.03
546.116	12.07
546.313	12.22
546.51	12.19
546.707	12.29
546.904	12.32
547.101	12.49
547.298	12.57
547.495	12.65
547.692	12.79
547.889	12.79
548.086	12.82
548.283	12.95
548.48	13.02
548.677	13.11
548.874	13.25
549.07	13.43
549.267	13.45
549.464	13.62
549.661	13.6
549.858	13.81
550.055	13.91
550.251	14.1
550.448	14.06
550.645	14.09
550.842	14.26
551.038	14.19
551.235	14.19
551.432	14.27
551.628	14.2
551.825	14.54
552.022	14.44
552.218	14.54
552.415	14.51
552.612	14.58
552.808	14.55
553.005	14.52
553.201	14.68
553.398	14.69
553.594	14.53
553.791	14.65
553.987	14.66
554.184	14.64
554.38	14.65
554.577	14.59
554.773	14.72
554.97	14.91
555.166	15.13
555.362	15
555.559	15.17
555.755	15.42
555.952	15.5
556.148	15.49
556.344	15.6
556.541	15.82
556.737	15.98
556.933	16.08
557.129	15.99
557.326	15.84
557.522	16.08
557.718	15.99
557.914	16.26
558.11	16.17
558.307	16.41
558.503	16.49
558.699	16.46
558.895	16.58
559.091	16.52
559.287	16.82
559.483	16.94
559.679	16.85
559.876	17.06
560.072	17.08
560.268	17.24
560.464	17.16
560.66	17.14
560.856	17.34
561.052	17.28
561.247	17.35
561.443	17.27
561.639	17.35
561.835	17.6
562.031	17.58
562.227	17.61
562.423	17.73
562.619	17.96
562.815	18.25
563.01	18.13
563.206	18.42
563.402	18.56
563.598	18.75
563.793	18.84
563.989	18.94
564.185	18.99
564.381	18.96
564.576	19.02
564.772	19.09
564.968	18.91
565.163	19.07
565.359	19.06
565.555	19.01
565.75	19.07
565.946	19.08
566.141	19.21
566.337	19.34
566.532	19.54
566.728	19.66
566.923	19.42
567.119	19.73
567.314	19.82
567.51	19.88
567.705	20.01
567.901	20.01
568.096	20.2
568.292	20.13
568.487	19.94
568.682	19.97
568.878	19.99
569.073	20.23
569.268	20.17
569.464	20.24
569.659	20.29
569.854	20.45
570.05	20.45
570.245	20.37
570.44	20.37
570.635	20.56
570.831	20.56
571.026	20.7
571.221	20.75
571.416	20.86
571.611	21
571.806	21.06
572.002	21.07
572.197	21.21
572.392	21.36
572.587	21.5
572.782	21.56
572.977	21.73
573.172	21.74
573.367	21.84
573.562	21.95
573.757	21.91
573.952	21.95
574.147	21.86
574.342	22.07
574.537	22.14
574.732	22.22
574.927	22.28
575.121	22.22
575.316	22.33
575.511	22.33
575.706	22.22
575.901	22.24
576.096	22.39
576.29	22.53
576.485	22.45
576.68	22.41
576.875	22.42
577.069	22.44
577.264	22.47
577.459	22.44
577.654	22.59
577.848	22.77
578.043	23.06
578.238	23.01
578.432	23.07
578.627	23.14
578.821	23.34
579.016	23.17
579.21	23.35
579.405	23.56
579.6	23.55
579.794	23.69
579.989	23.65
580.183	23.71
580.378	23.86
580.572	23.79
580.766	23.77
580.961	23.54
581.155	23.73
581.35	23.86
581.544	23.82
581.738	23.82
581.933	23.8
582.127	23.83
582.321	23.65
582.516	23.56
582.71	23.95
582.904	23.96
583.099	24.14
583.293	24.52
583.487	24.44
583.681	24.5
583.875	24.69
584.07	24.62
584.264	24.86
584.458	24.87
584.652	24.97
584.846	24.9
585.04	25.17
585.234	25.39
585.428	25.38
585.623	25.49
585.817	25.35
586.011	25.49
586.205	25.61
586.399	25.59
586.593	25.28
586.787	25.18
586.981	25.27
587.174	25.2
587.368	25.24
587.562	25.13
587.756	25.26
587.95	25.36
588.144	25.28
588.338	25.44
588.532	25.46
588.725	25.87
588.919	25.91
589.113	26
589.307	25.96
589.501	25.83
589.694	25.83
589.888	25.84
590.082	25.87
590.275	25.95
590.469	25.84
590.663	26.12
590.856	26.12
591.05	26.29
591.244	26.21
591.437	26.25
591.631	26.49
591.824	26.41
592.018	26.18
592.212	26.29
592.405	26.39
592.599	26.35
592.792	26.31
592.986	26.57
593.179	26.53
593.372	26.7
593.566	26.88
593.759	26.81
593.953	27.19
594.146	27.45
594.339	27.72
594.533	27.61
594.726	27.54
594.92	27.37
595.113	27.32
595.306	27.59
595.499	27.36
595.693	27.44
595.886	27.48
596.079	27.52
596.272	27.55
596.466	27.51
596.659	27.6
596.852	27.75
597.045	27.82
597.238	27.79
597.431	27.61
597.624	27.81
597.818	27.86
598.011	27.79
598.204	27.75
598.397	27.82
598.59	27.77
598.783	27.72
598.976	27.6
599.169	27.71
599.362	27.53
599.555	27.49
599.748	27.62
599.941	27.34
600.134	27.55
600.326	27.44
600.519	27.44
600.712	27.21
600.905	27.48
601.098	27.73
601.291	27.74
601.483	28.07
601.676	28.37
601.869	28.25
602.062	28.52
602.255	28.66
602.447	28.64
602.64	28.58
602.833	28.78
603.025	28.9
603.218	28.9
603.411	28.82
603.603	28.67
603.796	28.69
603.989	28.77
604.181	28.81
604.374	28.99
604.566	29.1
604.759	29.18
604.951	29.23
605.144	29.08
605.336	29.25
605.529	29.26
605.721	29.3
605.914	29.39
606.106	29.34
606.299	29.35
606.491	29.09
606.683	28.98
606.876	29.14
607.068	29.16
607.26	29.2
607.453	29.02
607.645	29.08
607.837	29.2
608.03	29.15
608.222	29.28
608.414	29.16
608.606	29.09
608.799	29.48
608.991	29.41
609.183	29.51
609.375	29.6
609.567	29.68
609.759	29.56
609.952	29.76
610.144	29.69
610.336	29.82
610.528	29.95
610.72	30.09
610.912	29.99
611.104	30.15
611.296	30.17
611.488	30.12
611.68	30.36
611.872	30.53
612.064	30.42
612.256	30.68
612.448	30.46
612.64	30.6
612.832	30.73
613.023	30.83
613.215	30.57
613.407	30.34
613.599	30.24
613.791	29.91
613.983	30.02
614.174	29.8
614.366	29.56
614.558	29.45
614.75	29.42
614.941	29.46
615.133	29.6
615.325	29.81
615.516	30.23
615.708	30.27
615.9	30.31
616.091	30.58
616.283	30.73
616.475	30.85
616.666	31.18
616.858	31.67
617.049	31.68
617.241	31.51
617.432	31.55
617.624	31.46
617.815	31.59
618.007	31.56
618.198	31.28
618.39	31.28
618.581	31.41
618.773	31.69
618.964	31.21
619.155	31.2
619.347	30.89
619.538	31.1
619.729	31.35
619.921	31.5
620.112	31.63
620.303	31.83
620.494	31.95
620.686	31.75
620.877	31.52
621.068	31.31
621.259	31.16
621.451	31.82
621.642	31.36
621.833	31.12
622.024	31.03
622.215	30.92
622.406	30.73
622.597	30.61
622.788	30.69
622.98	30.56
623.171	30.9
623.362	31.08
623.553	30.86
623.744	31.34
623.935	31.39
624.126	31.49
624.317	31.67
624.508	31.7
624.698	31.98
624.889	32.21
625.08	32.5
625.271	32.59
625.462	32.63
625.653	32.41
625.844	32.31
626.034	32.16
626.225	32.22
626.416	32.42
626.607	32.68
626.798	32.68
626.988	32.68
627.179	32.55
627.37	32.4
627.56	32.25
627.751	32.4
627.942	32.34
628.132	32.44
628.323	32.26
628.514	32.39
628.704	32.41
628.895	32.37
629.085	32.33
629.276	32.41
629.466	32.58
629.657	32.72
629.847	32.75
630.038	32.83
630.228	33.15
630.419	33.27
630.609	33
630.8	32.89
630.99	33.15
631.181	33.28
631.371	33.27
631.561	33.11
631.752	33.17
631.942	33.34
632.132	33.21
632.323	32.96
632.513	32.96
632.703	32.98
632.893	32.81
633.084	32.67
633.274	32.43
633.464	32.43
633.654	32.46
633.844	32.39
634.034	32.19
634.225	32.46
634.415	32.54
634.605	32.46
634.795	32.72
634.985	32.73
635.175	32.66
635.365	32.99
635.555	33.06
635.745	33.2
635.935	33.36
636.125	33.37
636.315	33.51
636.505	33.49
636.695	33.67
636.885	33.55
637.075	33.71
637.265	33.86
637.455	33.66
637.644	33.57
637.834	33.69
638.024	33.62
638.214	33.93
638.404	33.8
638.593	33.8
638.783	34.04
638.973	34.09
639.163	34.22
639.352	34.27
639.542	34.11
639.732	34.1
639.921	33.85
640.111	33.85
640.301	33.72
640.49	33.67
640.68	33.44
640.87	33.35
641.059	33.52
641.249	33.73
641.438	33.65
641.628	33.75
641.817	33.8
642.007	34.01
642.196	33.96
642.386	33.87
642.575	34.09
642.764	34.85
642.954	34.71
643.143	34.55
643.333	34.36
643.522	34.39
643.711	34.65
643.901	34.68
644.09	34.64
644.279	34.66
644.469	34.83
644.658	34.4
644.847	33.88
645.036	34.22
645.226	34.14
645.415	33.9
645.604	33.87
645.793	33.78
645.982	33.79
646.171	33.87
646.361	34.06
646.55	34.01
646.739	34.41
646.928	34.92
647.117	34.7
647.306	34.52
647.495	34.53
647.684	34.57
647.873	34.89
648.062	35.03
648.251	35.15
648.44	34.8
648.629	34.86
648.818	34.85
649.007	34.45
649.196	34.5
649.384	34.46
649.573	34.59
649.762	34.72
649.951	34.47
650.14	34.58
650.328	34.35
650.517	34.55
650.706	34.54
650.895	34.48
651.083	34.52
651.272	33.7
651.461	34.07
651.65	34.14
651.838	33.95
652.027	34.15
652.216	33.83
652.404	33.82
652.593	33.98
652.781	33.76
652.97	34.06
653.158	34.54
653.347	35.61
653.535	35.66
653.724	35.73
653.912	36.16
654.101	36.1
654.289	36.42
654.478	36.62
654.666	36.46
654.855	36.81
655.043	36.5
655.231	35.82
655.42	35.38
655.608	35.24
655.796	35.28
655.985	35.38
656.173	35.38
656.361	35.59
656.55	35.32
656.738	35.53
656.926	35.23
657.114	35.12
657.302	35.51
657.491	35.66
657.679	35.64
657.867	35.6
658.055	35.31
658.243	35.3
658.431	34.97
658.619	35.22
658.807	35.07
658.996	35.52
659.184	35.85
659.372	35.59
659.56	35.67
659.748	35.57
659.936	35.72
660.124	35.72
660.311	36.09
660.499	35.82
660.687	35.99
660.875	36.49
661.063	36.17
661.251	35.96
661.439	36.04
661.627	36.27
661.814	36.45
662.002	36.13
662.19	36.28
662.378	36
662.565	36.4
662.753	36.2
662.941	35.85
663.129	35.52
663.316	35.57
663.504	35.42
663.692	35.35
663.879	35.59
664.067	35.74
664.254	35.8
664.442	35.63
664.63	35.61
664.817	35.52
665.005	35.43
665.192	35.9
665.38	35.71
665.567	36.55
665.755	36.47
665.942	36.53
666.13	36.97
666.317	36.91
666.504	36.98
666.692	36.97
666.879	37.27
667.067	37.36
667.254	37.42
667.441	38.08
667.629	37.29
667.816	37.41
668.003	36.99
668.19	36.9
668.378	37.01
668.565	37.08
668.752	37.45
668.939	37.43
669.127	37.17
669.314	37.11
669.501	36.62
669.688	36.85
669.875	36.71
670.062	37.1
670.249	36.61
670.436	36.28
670.623	36.56
670.81	36.39
670.997	36.45
671.184	36.42
671.371	36.93
671.558	37.08
671.745	36.84
671.932	37.17
672.119	36.91
672.306	37.17
672.493	37.36
672.68	37.19
672.867	37.18
673.054	37.01
673.24	37.71
673.427	37.64
673.614	37.48
673.801	37.84
673.988	37.72
674.174	38
674.361	37.99
674.548	38.13
674.734	38.02
674.921	38.06
675.108	38.28
675.294	37.99
675.481	38.07
675.668	38.02
675.854	38.4
676.041	38.14
676.227	38.14
676.414	38.81
676.601	38.78
676.787	38.72
676.974	38.41
677.16	37.79
677.347	37.76
677.533	37.68
677.719	37.79
677.906	37.31
678.092	37.46
678.279	37.61
678.465	37.23
678.651	36.97
678.838	37.06
679.024	37.37
679.21	37.56
679.397	37.73
679.583	37.63
679.769	37.87
679.955	37.98
680.142	37.77
680.328	37.87
680.514	37.81
680.7	38.23
680.886	38.53
681.073	38.44
681.259	38.6
681.445	38.22
681.631	38.07
681.817	38.05
682.003	38.03
682.189	38.32
682.375	38.18
682.561	38.43
682.747	38.17
682.933	37.78
683.119	38.09
683.305	38.31
683.491	38.3
683.677	38.59
683.863	38.77
684.049	38.95
684.235	38.71
684.42	38.85
684.606	38.97
684.792	39.49
684.978	39.83
685.164	39.82
685.349	39.86
685.535	39.96
685.721	39.65
685.907	39.55
686.092	39.64
686.278	39.56
686.464	39.54
686.649	38.77
686.835	38.02
687.021	37.79
687.206	37.53
687.392	37.56
687.577	37.6
687.763	37.54
687.948	37.28
688.134	37.14
688.319	37.56
688.505	37.44
688.69	37.97
688.876	37.99
689.061	37.28
689.247	37.29
689.432	37.04
689.618	37.17
689.803	37.12
689.988	37.27
690.174	37.07
690.359	36.9
690.544	36.58
690.73	36.55
690.915	36.73
691.1	37.46
691.285	37.77
691.471	37.95
691.656	38.11
691.841	38.36
692.026	38.21
692.211	38.48
692.396	38.52
692.582	38.46
692.767	38.53
692.952	38.39
693.137	38.54
693.322	38.52
693.507	38.46
693.692	38.74
693.877	38.42
694.062	38.72
694.247	38.6
694.432	38.64
694.617	38.94
694.802	38.61
694.987	39.16
695.172	38.98
695.357	39.24
695.541	39.09
695.726	38.71
695.911	38.95
696.096	38.37
696.281	38.58
696.466	38.65
696.65	38.75
696.835	38.98
697.02	38.63
697.204	38.63
697.389	38.18
697.574	38.35
697.759	37.9
697.943	38.21
698.128	38.45
698.312	38.42
698.497	38.28
698.682	38.49
698.866	38.76
699.051	38.78
699.235	38.89
699.42	39.22
699.604	39.58
699.789	40.19
699.973	40.16
700.158	40.35
700.342	40.55
700.527	40.69
700.711	40.58
700.895	40.2
701.08	40.49
701.264	40.66
701.448	40.78
701.633	40.4
701.817	40.32
702.001	40.26
702.186	40.36
702.37	40.13
702.554	40.46
702.738	40.16
702.923	40.54
703.107	40.43
703.291	40.56
703.475	40.3
703.659	40.6
703.843	40.72
704.027	40.81
704.212	40.49
704.396	40.34
704.58	40.1
704.764	40.5
704.948	39.74
705.132	39.47
705.316	38.93
705.5	39.32
705.684	38.96
705.868	39.34
706.052	39.39
706.235	39.77
706.419	39.47
706.603	39.52
706.787	39.33
706.971	40.28
707.155	40.63
707.339	40.72
707.522	39.82
707.706	39.8
707.89	39.23
708.074	39.72
708.257	39.2
708.441	40.19
708.625	40.07
708.808	40.04
708.992	39.45
709.176	39.21
709.359	39.37
709.543	39.79
709.727	39.69
709.91	39.75
710.094	39.04
710.277	39.54
710.461	39.46
710.644	39.39
710.828	39.84
711.011	40.23
711.195	40.49
711.378	40.99
711.562	41.5
711.745	41.39
711.928	41.23
712.112	41.24
712.295	40.9
712.478	40.08
712.662	40.73
712.845	39.99
713.028	40.29
713.212	40.27
713.395	40.35
713.578	39.95
713.761	40.77
713.945	40.93
714.128	41.32
714.311	41.91
714.494	42.31
714.677	41.83
714.86	42.57
715.043	42.32
715.227	41.98
715.41	41.57
715.593	41.66
715.776	41.45
715.959	41.63
716.142	41.34
716.325	41.29
716.508	41.23
716.691	41.14
716.874	40.96
717.057	40.93
717.239	41.66
717.422	41.27
717.605	41.3
717.788	40.81
717.971	40.94
718.154	41.11
718.337	41.01
718.519	40.79
718.702	40.53
718.885	40.03
719.068	40.07
719.25	39.93
719.433	40.95
719.616	40.76
719.798	40.51
719.981	40.74
720.164	40.61
720.346	40.8
720.529	40.42
720.712	40.41
720.894	40.66
721.077	40.09
721.259	39.64
721.442	38.22
721.624	39
721.807	39.16
721.989	38.37
722.172	38.54
722.354	38.1
722.537	39.17
722.719	40.15
722.901	40.34
723.084	40.95
723.266	40.09
723.448	40.84
723.631	41.51
723.813	41.57
723.995	41.39
724.178	41.09
724.36	40.86
724.542	40.35
724.724	39.54
724.907	39.77
725.089	40.19
725.271	41
725.453	41.13
725.635	40.35
725.817	41.51
725.999	41.85
726.181	41.81
726.364	42.53
726.546	42.35
726.728	42.93
726.91	42.21
727.092	41.45
727.274	42.15
727.456	41.48
727.638	40.63
727.819	39.85
728.001	40.29
728.183	40
728.365	39.41
728.547	40.05
728.729	39.7
728.911	40.71
729.093	40.63
729.274	40.25
729.456	40.11
729.638	40.31
729.82	40.67
730.001	40.48
730.183	40.84
730.365	40.67
730.546	40.33
730.728	40.69
730.91	40.48
731.091	40.79
731.273	40.89
731.455	41.11
731.636	41.24
731.818	40.68
731.999	40.29
732.181	40.05
732.362	40.58
732.544	41.04
732.725	40.57
732.907	40.67
733.088	40.57
733.27	40.61
733.451	40.91
733.633	40.66
733.814	40.93
733.995	40.39
734.177	41.28
734.358	41.34
734.539	40.9
734.721	40.69
734.902	39.95
735.083	40.12
735.264	40.43
735.446	40.22
735.627	40.42
735.808	40.97
735.989	41.94
736.17	41.68
736.351	41.07
736.533	41.19
736.714	41.5
736.895	41.88
737.076	41.66
737.257	40.78
737.438	41.29
737.619	40.89
737.8	39.84
737.981	40.39
738.162	40.76
738.343	41.21
738.524	42.11
738.705	42.66
738.886	42.43
739.067	42.32
739.247	42.8
739.428	42.48
739.609	42.61
739.79	44.28
739.971	43.79
740.151	42.59
740.332	42.68
740.513	41.86
740.694	40.9
740.874	41.37
741.055	42.27
741.236	42.68
741.417	43.11
741.597	42.67
741.778	41.06
741.958	41.03
742.139	41.59
742.32	41.23
742.5	40.73
742.681	41.23
742.861	41.06
743.042	40.99
743.222	40.67
743.403	39.81
743.583	40.61
743.764	41.11
743.944	41.62
744.124	41.09
744.305	41.51
744.485	41.68
744.666	40.97
744.846	40.79
745.026	39.91
745.207	39.5
745.387	40.45
745.567	40.41
745.747	40.34
745.928	40.42
746.108	40.65
746.288	40.18
746.468	41.05
746.648	41.75
746.829	41
747.009	41.86
747.189	41.4
747.369	41.4
747.549	41.53
747.729	41.34
747.909	41.14
748.089	41.84
748.269	42.22
748.449	42.39
748.629	43.29
748.809	43.9
748.989	42.71
749.169	43.07
749.349	42.32
749.529	42.29
749.709	42.08
749.889	42.18
750.068	41.44
750.248	40.93
750.428	39.75
750.608	39.57
750.788	39.56
750.967	40.43
751.147	40.38
751.327	40.35
751.507	40.87
751.686	41.66
751.866	41.63
752.046	41.94
752.225	43.14
752.405	44.07
752.585	42.95
752.764	43.08
752.944	43.1
753.123	42.89
753.303	43.51
753.482	42.61
753.662	42.6
753.841	42.64
754.021	42.9
754.2	42.91
754.38	42.64
754.559	43.48
754.739	43.18
754.918	42.68
755.097	43
755.277	42.73
755.456	42.82
755.635	42.28
755.815	42.04
755.994	41.3
756.173	39.79
756.352	39.59
756.532	39.44
756.711	40.52
756.89	40.66
757.069	40.7
757.248	40.42
757.427	40.33
757.607	39.82
757.786	40.23
757.965	41.36
758.144	41.86
758.323	41.62
758.502	41.2
758.681	39.77
758.86	39.41
759.039	39.88
759.218	40.85
759.397	41.2
759.576	42.54
759.755	41.05
759.934	39.75
760.113	38.61
760.291	39.46
760.47	39.31
760.649	40.51
760.828	41
761.007	40.65
761.186	40.53
761.364	40.79
761.543	40.53
761.722	42.02
761.901	42.54
762.079	44.08
762.258	43.44
762.437	44.01
762.615	44.2
762.794	44
762.972	44.14
763.151	43.17
763.33	42.63
763.508	42.33
763.687	42.08
763.865	42.08
764.044	42.14
764.222	42.48
764.401	42.54
764.579	42.21
764.758	42.58
764.936	42.4
765.114	42.68
765.293	43.09
765.471	42.83
765.65	42.69
765.828	43.1
766.006	42.32
766.184	42.36
766.363	41.76
766.541	41.62
766.719	41.26
766.898	41.21
767.076	41.56
767.254	41.81
767.432	41.57
767.61	40.81
767.788	41.1
767.967	42.08
768.145	42.62
768.323	43.15
768.501	43.28
768.679	43.57
768.857	43.39
769.035	43.79
769.213	44.11
769.391	45.8
769.569	47.11
769.747	46.38
769.925	45.27
770.103	44
770.281	44.24
770.459	44.21
770.636	44.11
770.814	44.63
770.992	43.09
771.17	41.57
771.348	38.88
771.525	38.07
771.703	39.09
771.881	40.14
772.059	40.54
772.236	39.45
772.414	40.1
772.592	40.25
772.769	39.39
772.947	39.94
773.125	41.08
773.302	43.65
773.48	43.21
773.657	42.47
773.835	42.75
774.013	43.15
774.19	43.4
774.368	42.49
774.545	42.01
774.723	42.43
774.9	42.6
775.077	42.1
775.255	41.13
775.432	40.41
775.61	41.09
775.787	40.35
775.964	40.14
776.142	40.6
776.319	42.01
776.496	42.62
776.674	43.99
776.851	44.15
777.028	45.79
777.205	45.6
777.382	46.52
777.56	45.42
777.737	45.73
777.914	45.15
778.091	46.39
778.268	46.62
778.445	47.46
778.622	45.82
778.8	47.27
778.977	46.37
779.154	55.89
779.331	56.06
779.508	56.36
779.685	57.2
779.862	57.27
780.038	55.98
780.215	55.14
780.392	53.32
780.569	56.17
780.746	53.5
780.923	52.56
781.1	43.45
781.277	43.31
781.453	41.78
781.63	41.23
781.807	42.83
781.984	43.87
782.16	44.17
782.337	45.34
782.514	42.81
782.691	45.25
782.867	45.12
783.044	44.6
783.221	45.47
783.397	46.74
783.574	47.51
783.75	45.91
783.927	45.1
784.103	45.5
784.28	44.45
784.456	46.85
784.633	45.67
784.809	44.9
784.986	45.12
785.162	43.99
785.339	44.32
785.515	44.38
785.692	45.12
785.868	45.78
786.044	42.89
786.221	42.93
786.397	40.21
786.573	41.57
786.749	41.66
786.926	40.55
787.102	41.34
787.278	40.71
787.454	40.61
787.631	41.28
787.807	40.11
787.983	41.8
788.159	42.37
788.335	43.64
788.511	43.4
788.687	44.6
788.863	45.58
789.039	45.24
789.216	45.97
789.392	46.22
789.568	45.47
789.744	46.26
789.919	46.79
790.095	46.8
790.271	47.38
790.447	46.91
790.623	47.84
790.799	48.17
790.975	47.66
791.151	48.45
791.327	45.96
791.502	45.85
791.678	45.58
791.854	45.66
792.03	46.41
792.205	45.87
792.381	44.01
792.557	44.18
792.733	41.73
792.908	43.82
793.084	43.17
793.259	43.49
793.435	44.6
793.611	44.21
793.786	43.51
793.962	41.03
794.137	40.88
794.313	41.54
794.488	40.1
794.664	41.69
794.839	41.27
795.015	41.03
795.19	42.15
795.366	41.56
795.541	43.47
795.716	43.19
795.892	42.99
796.067	42
796.242	42.24
796.418	42.43
796.593	44.44
796.768	43.53
796.944	42.78
797.119	42.28
797.294	42.27
797.469	42.85
797.644	43.27
797.82	44.42
797.995	44.7
798.17	46.28
798.345	45.33
798.52	43.25
798.695	41.62
798.87	43.02
799.045	43.79
799.22	44.06
799.395	42.31
799.57	42.68
799.745	43.4
799.92	43.58
800.095	41.03
800.27	40.39
800.445	39.96
800.62	42.42
800.795	41.95
800.97	40.4
801.145	39.19
801.319	38.71
801.494	37.15
801.669	37.11
801.844	40.18
802.018	40.19
802.193	42
802.368	42.92
802.543	41.29
802.717	39.4
802.892	41.8
803.067	43.68
803.241	43.28
803.416	44.16
803.59	44.74
803.765	41.84
803.94	42.58
804.114	45.19
804.289	45.45
804.463	46.94
804.638	48.25
804.812	48.44
804.986	48.01
805.161	49.62
805.335	49.9
805.51	49.85
805.684	48.11
805.858	50.91
806.033	49.32
806.207	48.47
806.381	48.04
806.556	49.03
806.73	49.09
806.904	47
807.078	46.33
807.253	48.1
807.427	47.83
807.601	49.69
807.775	47.66
807.949	46.4
808.123	46.36
808.298	46.32
808.472	45.5
808.646	43.67
808.82	45.25
808.994	46.39
809.168	43.79
809.342	41.5
809.516	42.17
809.69	43.09
809.864	42.08
810.038	45.13
810.212	46.69
810.385	46.77
810.559	46.61
810.733	45.88
810.907	45.03
811.081	47.39
811.255	47.53
811.428	46.36
811.602	45.18
811.776	46.33
811.95	45.15
812.123	43.44
812.297	41.85
812.471	44.39
812.644	45.69
812.818	45.74
812.992	42.97
813.165	45.26
813.339	45.17
813.512	45.8
813.686	44.67
813.86	43.68
814.033	44
814.207	48.36
814.38	47.63
814.554	44.64
814.727	45.86
814.9	50.67
815.074	47.45
815.247	45.91
815.421	42.63
815.594	43.52
815.767	42.06
815.941	42.77
816.114	41.65
816.287	41.73
816.46	44.78
816.634	43.87
816.807	41.2
816.98	45.2
817.153	49.74
817.327	53.8
817.5	54.03
817.673	54.63
817.846	52.47
818.019	52.44
818.192	51.42
818.365	48.67
818.538	47.12
818.711	45.48
818.884	44.18
819.057	42.17
819.23	40.08
819.403	38.03
819.576	38.76
819.749	40.84
819.922	42.12
820.095	42.89
820.268	43.71
820.441	43.82
820.614	43.53
820.786	42.48
820.959	43.29
821.132	44.88
821.305	44.6
821.477	44.59
821.65	44.16
821.823	42.48
821.996	42.03
822.168	42.35
822.341	42.12
822.514	41.87
822.686	42.31
822.859	41.5
823.031	41.35
823.204	41.59
823.376	41.07
823.549	40.93
823.722	40.96
823.894	41.15
824.067	41
824.239	40.56
824.411	40.87
824.584	40.57
824.756	40.69
824.929	40.01
825.101	40.27
825.273	40.28
825.446	40.38
825.618	40.54
825.79	40.3
825.963	40.4
826.135	41.38
826.307	41.38
826.479	41.24
826.652	41.25
826.824	41.44
826.996	41.2
827.168	42.32
827.34	41.86
827.512	41.73
827.684	41.79
827.856	42.07
828.029	42.56
828.201	42.4
828.373	43.55
828.545	43.63
828.717	44.16
828.889	44.17
829.061	44.27
829.232	45.45
829.404	46.52
829.576	46.29
829.748	45.87
829.92	45.13
830.092	45.87
830.264	44.42
830.436	44.92
830.607	44.25
830.779	42.98
830.951	41.31
831.123	38.69
831.294	37.16
831.466	37.3
831.638	37.1
831.809	36.93
831.981	34.69
832.153	34.26
832.324	35.26
832.496	35.51
832.667	37.97
832.839	38.05
833.011	39.04
833.182	38.47
833.354	39.58
833.525	38.86
833.697	39.98
833.868	41.7
834.039	43.59
834.211	41.68
834.382	41.05
834.554	41.05
834.725	40.95
834.896	42.28
835.068	42.07
835.239	40.51
835.41	41.26
835.581	41.87
835.753	40.71
835.924	40.93
836.095	40.71
836.266	40.95
836.438	39.75
836.609	39.39
836.78	38.24
836.951	38.72
837.122	37.73
837.293	36.55
837.464	34.02
837.635	34.25
837.806	31.99
837.977	31.94
838.148	31.36
838.319	32.24
838.49	32.66
838.661	34.37
838.832	35.27
839.003	37.26
839.174	40.33
839.345	39.52
839.516	42.25
839.687	44.82
839.857	44.84
840.028	46.74
840.199	46.22
840.37	42.32
840.54	37.65
840.711	38.44
840.882	39.45
841.053	38.46
841.223	40.9
841.394	33.94
841.564	31.83
841.735	31.63
841.906	32.57
842.076	36.19
842.247	39.63
842.417	42.75
842.588	41.81
842.758	41.43
842.929	37.81
843.099	35.18
843.27	42.4
843.44	39.93
843.611	43.23
843.781	45.3
843.951	47.96
844.122	47.77
844.292	48.38
844.462	44.7
844.633	46.33
844.803	48.35
844.973	49.6
845.144	48.29
845.314	52.68
845.484	51.55
845.654	45.63
845.824	39.77
845.995	38.67
846.165	34.85
846.335	38.33
846.505	35.32
846.675	33.79
846.845	44.08
847.015	32.23
847.185	34.06
847.355	38.19
847.525	40.25
847.695	36.55
847.865	41.26
848.035	37.16
848.205	37.42
848.375	46.14
848.545	53.43
848.715	44.71
848.884	53.42
849.054	49.83
849.224	50.61
849.394	57.32
849.564	58.67
849.733	62.26
849.903	67.66
850.073	70.12
850.243	66.51
850.412	65.21
850.582	64.67
850.752	68.22
850.921	67.17
851.091	67.77
851.26	60.45
851.43	60.52
851.599	57.11
851.769	64.88
851.939	58.84
852.108	57.1
852.278	56.05
852.447	62.18
852.616	64.87
852.786	67.56
852.955	69.54
853.125	69.78
853.294	73.05
853.463	68.77
853.633	69.45
853.802	77.26
853.971	83.76
854.141	86.75
854.31	77.95
854.479	77.19
854.648	69.91
854.818	57.14
854.987	51.42
855.156	48.38
855.325	58.19
855.494	40.84
855.663	45.64
855.832	36.01
856.001	38.07
856.171	36.17
856.34	23.85
856.509	26.45
856.678	34.89
856.847	42.41
857.016	41.6
857.185	38.46
857.353	35.3
857.522	32.2
857.691	36.11
857.86	38.4
858.029	41.61
858.198	42.9
858.367	41.83
858.535	39.22
858.704	39.86
858.873	43.42
859.042	38.35
859.21	46.72
859.379	50.64
859.548	52.36
859.717	38.97
859.885	41.9
860.054	46.38
860.222	43.38
860.391	47.87
860.56	42.67
860.728	37.57
860.897	46.01
861.065	40.47
861.234	35.53
861.402	33.53
861.571	41.53
861.739	40.19
861.908	39.01
862.076	33.88
862.244	29.23
862.413	37.35
862.581	35.72
862.749	32.56
862.918	36.46
863.086	40.26
863.254	36.84
863.423	24.92
863.591	13.56
863.759	16.73
863.927	34.14
864.096	32.15
864.264	16.4
864.432	33.58
864.6	34.17
864.768	28.42
864.936	24.77
865.104	26.24
865.272	34.72
865.44	50.19
865.608	45.47
865.776	34.73
865.944	32.25
866.112	39.22
866.28	33.99
866.448	32.49
866.616	34.65
866.784	28.04
866.952	31.57
867.12	35.04
867.288	28.89
867.455	34.01
867.623	29.08
867.791	32.87
867.959	31.65
868.127	39.63
868.294	39.52
868.462	47.18
868.63	58.23
868.797	53.92
868.965	59.97
869.133	55.34
869.3	59.73
869.468	65.55
869.636	67.99
869.803	61.29
869.971	55.8
870.138	43.47
870.306	36.63
870.473	25.35
870.641	37.32
870.808	36.85
870.975	38.07
871.143	28.2
871.31	31.8
871.478	33.79
871.645	38.59
871.812	48.64
871.98	59.5
872.147	60.9
872.314	69.3
872.482	53.47
872.649	51.28
872.816	57.74
872.983	56.34
873.15	47.88
873.318	51.07
873.485	50.53
873.652	38.87
873.819	39.33
873.986	36.9
874.153	36.91
874.32	38.7
874.487	36.47
874.654	29.49
874.821	28.86
874.988	19.79
875.155	15.19
875.322	9.79
875.489	-11.69
875.656	-12.79
875.823	-11.92
875.99	-2.79
876.157	11.42
876.324	16.51
876.49	20.54
876.657	26.46
876.824	38.76
876.991	37.39
877.157	42.4
877.324	50.96
877.491	51.72
877.658	56.73
877.824	64.76
877.991	62.24
878.157	64.46
878.324	70.85
878.491	73.14
878.657	64.73
878.824	58.82
878.99	62.14
879.157	69.02
879.323	62.58
879.49	58.92
879.656	56.67
879.823	55.44
879.989	53.46
880.156	49.12
880.322	45.07
880.488	51.09
880.655	50.36
880.821	47.19
880.987	45.46
881.154	53.05
881.32	53.64
881.486	43.53
881.652	41.13
881.819	38.39
881.985	36.96
882.151	39.65
882.317	35.54
882.483	39.76
882.649	39.77
882.816	40.26
882.982	38.57
883.148	38.67
883.314	39.73
883.48	39.74
883.646	40.31
883.812	42.22
883.978	42.03
884.144	44.47
884.31	44.37
884.476	43.83
884.642	43.54
884.807	43.94
884.973	45.32
885.139	44.65
885.305	44.89
885.471	45.2
885.637	44.11
885.802	43.5
885.968	43.16
886.134	42.62
886.3	44.25
886.465	44.96
886.631	42.74
886.797	43.14
886.962	43.57
887.128	43.32
887.293	42.88
887.459	45.65
887.625	47.33
887.79	49.3
887.956	48.39
888.121	47.64
888.287	47.38
888.452	52.68
888.618	45.91
888.783	54.47
