Data from LC_267_Reflection_2.txt Node
Date: Sat Nov 21 11:56:19 EST 2015
User: robert
Spectrometer: USB4E03001
Autoset integration time: false
Trigger mode: 4
Integration Time (sec): 1.000000E-1
Scans to average: 15
Electric dark correction enabled: true
Nonlinearity correction enabled: false
Boxcar width: 5
Stray light correction enabled: false
XAxis mode: Wavelengths
Stop averaging: false
Number of Pixels in Spectrum: 3648
>>>>>Begin Spectral Data<<<<<
177.566	340.57
177.785	276.26
178.005	1037.72
178.225	-278.28
178.445	-710.22
178.665	-1512.35
178.885	-591.24
179.105	-366.41
179.324	-66.9
179.544	-75.7
179.764	236.12
179.984	18.28
180.204	9.99
180.423	11.31
180.643	33.3
180.863	49.86
181.083	41.81
181.302	80.41
181.522	53.53
181.742	20.6
181.961	35.51
182.181	10.82
182.401	26.33
182.621	43.36
182.84	19.53
183.06	33.53
183.279	68.89
183.499	66.8
183.719	55.5
183.938	61.43
184.158	69.2
184.377	55.64
184.597	41.87
184.816	33.41
185.036	32.82
185.256	33.44
185.475	18.35
185.695	-11.51
185.914	-6.83
186.134	0.42
186.353	12.19
186.572	13.58
186.792	31.86
187.011	46.4
187.231	39.42
187.45	48.18
187.67	46.04
187.889	50.94
188.108	110.53
188.328	131.03
188.547	133.53
188.766	112.01
188.986	94.38
189.205	-0.13
189.424	-308.08
189.644	-189.65
189.863	358.64
190.082	546.11
190.302	-1016.35
190.521	-239.46
190.74	-171.37
190.959	-166.89
191.178	-87.58
191.398	-26.98
191.617	-19.27
191.836	16.1
192.055	8.89
192.274	13.88
192.494	-3.22
192.713	-1.08
192.932	20.28
193.151	-0.63
193.37	13.39
193.589	4.98
193.808	3.59
194.027	12.66
194.246	-0.94
194.465	13.86
194.685	14.76
194.904	34.03
195.123	23.86
195.342	20.64
195.561	43.62
195.78	3.12
195.999	-0.42
196.218	12.97
196.436	19.23
196.655	23.86
196.874	57.85
197.093	91.55
197.312	92.58
197.531	120.14
197.75	110.38
197.969	81.95
198.188	106.6
198.407	113.94
198.625	100.33
198.844	90.34
199.063	88.3
199.282	68.38
199.501	84.64
199.719	60.11
199.938	60.56
200.157	46.71
200.376	83.79
200.594	79.89
200.813	63.95
201.032	69.59
201.251	62.49
201.469	44.12
201.688	35.46
201.907	-19.39
202.125	22.82
202.344	33.15
202.563	20.1
202.781	5.09
203	7.1
203.218	-4.83
203.437	-39.29
203.656	-49.21
203.874	117.2
204.093	69.83
204.311	81.65
204.53	97.16
204.748	-26.62
204.967	1.15
205.185	10
205.404	-7.12
205.622	42.11
205.841	27.71
206.059	6.53
206.278	-77.98
206.496	-78.65
206.715	-115.35
206.933	-19.79
207.151	54.27
207.37	35.37
207.588	-8.94
207.806	-10.07
208.025	-54.91
208.243	-21.02
208.461	-25.73
208.68	20.15
208.898	25.57
209.116	11.42
209.335	-8.05
209.553	0.11
209.771	-0.04
209.989	31.31
210.208	40.37
210.426	88.96
210.644	22.79
210.862	66.09
211.081	52.8
211.299	89.87
211.517	99.49
211.735	90.3
211.953	51.36
212.171	32.98
212.39	16.73
212.608	16.9
212.826	26.72
213.044	45.44
213.262	24.44
213.48	16.53
213.698	-2.02
213.916	-21.73
214.134	-2.95
214.352	8.73
214.57	25.91
214.788	38.35
215.006	48.05
215.224	32.28
215.442	29.1
215.66	63.57
215.878	65.07
216.096	92.98
216.314	108.15
216.532	94.79
216.75	96.8
216.968	96.34
217.185	72.01
217.403	57.46
217.621	47.88
217.839	41.69
218.057	24.49
218.275	-3.24
218.492	-3.4
218.71	-11.34
218.928	-5.7
219.146	-34.98
219.363	-14.6
219.581	-58.45
219.799	-4.46
220.017	29.81
220.234	54.31
220.452	69.89
220.67	78.01
220.887	68.79
221.105	70.44
221.323	69.07
221.54	36.59
221.758	27.2
221.976	26.08
222.193	15.25
222.411	8.32
222.629	-0.25
222.846	-17.82
223.064	-2.74
223.281	8.14
223.499	-11.42
223.716	7.46
223.934	43.03
224.151	39.04
224.369	32.24
224.586	35.43
224.804	37.7
225.021	40.41
225.239	47.69
225.456	39.57
225.674	34.1
225.891	30.23
226.108	31.69
226.326	23.74
226.543	26.35
226.76	28.23
226.978	27.62
227.195	22.43
227.413	22.43
227.63	18.04
227.847	15.16
228.064	14.82
228.282	13.84
228.499	10.99
228.716	10.65
228.934	8.04
229.151	7.89
229.368	6.52
229.585	8.23
229.802	7.63
230.02	6.57
230.237	6.08
230.454	6.29
230.671	9.29
230.888	10.19
231.105	8.32
231.323	6.39
231.54	4.13
231.757	1.53
231.974	3.49
232.191	1.4
232.408	3.67
232.625	3.7
232.842	4.2
233.059	2.81
233.276	4.38
233.493	6.52
233.71	15.47
233.927	17.64
234.144	22.6
234.361	20.79
234.578	22.18
234.795	20.09
235.012	20.67
235.229	20.95
235.446	16.76
235.663	12.38
235.879	9.62
236.096	4.15
236.313	8.36
236.53	7.2
236.747	2.56
236.964	-0.01
237.181	-0.69
237.397	-3.14
237.614	-8.51
237.831	-10.29
238.048	-7.2
238.264	-1.05
238.481	-3.87
238.698	-5.22
238.915	-6.59
239.131	-7.17
239.348	-4.23
239.565	-3.16
239.781	3.12
239.998	6.23
240.215	9.28
240.431	5.02
240.648	3.91
240.865	5.03
241.081	4.56
241.298	3.7
241.514	7.09
241.731	5.52
241.947	7.99
242.164	8.54
242.38	8.38
242.597	8.61
242.814	10.37
243.03	11.38
243.246	12.03
243.463	11.54
243.679	11.56
243.896	10.65
244.112	12.66
244.329	13.2
244.545	11.11
244.762	12.31
244.978	10.94
245.194	10.64
245.411	9.22
245.627	9.25
245.843	8.42
246.06	8.68
246.276	9.01
246.492	9.11
246.709	6.99
246.925	8.16
247.141	7.56
247.357	8.61
247.574	7.61
247.79	7.47
248.006	7.75
248.222	7.63
248.439	8.23
248.655	8.97
248.871	9.14
249.087	10.88
249.303	10.54
249.519	10.55
249.736	10.31
249.952	11.78
250.168	12.16
250.384	13.31
250.6	13.87
250.816	15.08
251.032	13.8
251.248	13.09
251.464	10.61
251.68	10.69
251.896	12.29
252.112	12.55
252.328	12.21
252.544	12.24
252.76	11.61
252.976	13.22
253.192	11.32
253.408	12.35
253.624	11.96
253.84	13.99
254.056	14.94
254.272	12.82
254.487	11.47
254.703	12.34
254.919	11.91
255.135	9.96
255.351	8.98
255.567	8.67
255.782	5.03
255.998	4.4
256.214	2.56
256.43	2.87
256.646	4.18
256.861	3.6
257.077	4.81
257.293	5.85
257.508	7.07
257.724	6.1
257.94	7.61
258.155	8.88
258.371	9.33
258.587	9.19
258.802	8.81
259.018	8.41
259.234	8.82
259.449	8.41
259.665	7.73
259.88	8.01
260.096	7.67
260.312	7.98
260.527	7.81
260.743	7.73
260.958	7.64
261.174	6.59
261.389	7
261.605	7.11
261.82	6.57
262.036	7.58
262.251	6.91
262.466	7.64
262.682	6.83
262.897	6.28
263.113	6.87
263.328	8.74
263.543	11.06
263.759	10.95
263.974	11.63
264.189	13.61
264.405	14.76
264.62	15.83
264.835	15.62
265.051	14.19
265.266	15.05
265.481	14.32
265.696	12.8
265.912	11.74
266.127	10.29
266.342	10.41
266.557	9.96
266.773	7.21
266.988	6.79
267.203	6.12
267.418	6.23
267.633	5.26
267.848	4.52
268.064	3.6
268.279	4.44
268.494	5.71
268.709	5.33
268.924	4.25
269.139	5.55
269.354	6.39
269.569	5.89
269.784	6.29
269.999	7.48
270.214	8.96
270.429	10.07
270.644	8.07
270.859	7.38
271.074	6.13
271.289	6.1
271.504	5.64
271.719	3.5
271.934	5.58
272.149	5.99
272.363	6.09
272.578	4.73
272.793	4.2
273.008	6.2
273.223	6.65
273.438	8.06
273.653	9.16
273.867	9.61
274.082	11.22
274.297	9.35
274.512	9.74
274.726	9.52
274.941	10.84
275.156	12.33
275.371	11.33
275.585	12.57
275.8	11.34
276.015	9.6
276.229	9.63
276.444	10.04
276.659	10.94
276.873	10.71
277.088	10.48
277.302	10.07
277.517	8.83
277.732	8.83
277.946	8.07
278.161	7.08
278.375	8.37
278.59	8.74
278.804	8.06
279.019	7.98
279.233	7.97
279.448	6.56
279.662	6.71
279.877	6.36
280.091	6.37
280.306	4.82
280.52	5.47
280.735	6.02
280.949	5.28
281.163	5.29
281.378	4.56
281.592	4.75
281.806	6.44
282.021	5.95
282.235	6.34
282.449	6.05
282.664	6.26
282.878	6.67
283.092	7.03
283.307	6.91
283.521	6.36
283.735	6.81
283.949	6.21
284.164	4.76
284.378	4.91
284.592	3.96
284.806	5.22
285.02	4.8
285.234	5.17
285.449	3.37
285.663	3.64
285.877	4.07
286.091	4.79
286.305	5.4
286.519	6.24
286.733	6.85
286.947	7.75
287.161	7.53
287.375	8.18
287.589	7.34
287.803	9.34
288.017	10.14
288.231	10.39
288.445	10.6
288.659	10.33
288.873	10.21
289.087	9.85
289.301	10.4
289.515	9.4
289.729	9.83
289.943	11.19
290.157	10.44
290.371	9.52
290.584	10.1
290.798	9.68
291.012	9.39
291.226	9.51
291.44	9.2
291.654	8.99
291.867	9.03
292.081	8.96
292.295	8.15
292.509	8.65
292.722	8.84
292.936	7.98
293.15	8
293.364	8.23
293.577	7.36
293.791	7.2
294.005	6.06
294.218	6.46
294.432	6.39
294.645	6.8
294.859	6.63
295.073	6.11
295.286	6.9
295.5	7.1
295.713	7.08
295.927	7.54
296.14	8.06
296.354	8.78
296.568	9.32
296.781	9.51
296.994	10.42
297.208	9.37
297.421	10.33
297.635	10.3
297.848	9.52
298.062	9.51
298.275	10.01
298.489	10.13
298.702	9.97
298.915	9.48
299.129	9.37
299.342	7.9
299.555	8.31
299.769	8.13
299.982	7.95
300.195	8.88
300.409	8.51
300.622	7.67
300.835	8.23
301.048	8.59
301.262	8.5
301.475	8.98
301.688	9.47
301.901	9.97
302.115	8.85
302.328	8.3
302.541	8.61
302.754	9.82
302.967	10.91
303.18	10.33
303.393	10.6
303.607	10.62
303.82	9.53
304.033	9.29
304.246	9.75
304.459	10.96
304.672	11.97
304.885	11.84
305.098	11.61
305.311	10.55
305.524	10.06
305.737	9.71
305.95	9.74
306.163	10.02
306.376	9.96
306.589	9.21
306.802	8.56
307.015	7.46
307.228	7.49
307.44	7.17
307.653	7.97
307.866	8.95
308.079	8.18
308.292	7.35
308.505	8.4
308.718	9.3
308.93	9.35
309.143	8.23
309.356	7.99
309.569	7.32
309.781	7.84
309.994	8.3
310.207	8.35
310.42	8.31
310.632	8.61
310.845	8.3
311.058	8.33
311.27	8.63
311.483	10.16
311.696	9.81
311.908	10.52
312.121	9.76
312.333	9.85
312.546	10.02
312.759	10.98
312.971	11.21
313.184	11.66
313.396	11.23
313.609	11.11
313.821	10.15
314.034	11.82
314.246	11.51
314.459	12.25
314.671	10.9
314.884	10.2
315.096	10.7
315.309	10.68
315.521	10.23
315.733	10.61
315.946	11.3
316.158	10.55
316.371	10.01
316.583	9.21
316.795	8.56
317.008	10.13
317.22	9.54
317.432	9.15
317.644	9.64
317.857	9.11
318.069	7.75
318.281	6.92
318.494	8.88
318.706	8.93
318.918	9.14
319.13	9.33
319.342	8.41
319.555	8.77
319.767	7.41
319.979	6.87
320.191	6.73
320.403	8.47
320.615	7.83
320.827	6.72
321.039	5.8
321.252	5.92
321.464	4.85
321.676	3.06
321.888	2.83
322.1	2.57
322.312	2.99
322.524	2.58
322.736	1.81
322.948	3.69
323.16	3.95
323.372	4.81
323.584	5.49
323.796	7.04
324.007	8.3
324.219	8.27
324.431	9.25
324.643	10.01
324.855	9.85
325.067	10.27
325.279	9.56
325.491	8.94
325.702	8.49
325.914	8.3
326.126	7.5
326.338	6.92
326.55	7.25
326.761	7.13
326.973	5.92
327.185	5.96
327.396	5.04
327.608	4.81
327.82	5.64
328.032	4.97
328.243	5.02
328.455	5.06
328.666	6.69
328.878	7.07
329.09	7.29
329.301	8.49
329.513	8.75
329.725	9.95
329.936	10.43
330.148	9.46
330.359	10.5
330.571	10.3
330.782	11.07
330.994	9.13
331.205	9.78
331.417	9.61
331.628	9.66
331.84	10.22
332.051	9.82
332.262	8.87
332.474	10.25
332.685	9.16
332.897	8.9
333.108	6.81
333.319	7.52
333.531	6.94
333.742	6.69
333.953	6.33
334.165	5.95
334.376	5.29
334.587	6.25
334.799	5.66
335.01	6.69
335.221	7.22
335.432	8.42
335.644	8.81
335.855	8.38
336.066	8.14
336.277	8.49
336.488	7.84
336.7	7.54
336.911	7.15
337.122	7.53
337.333	7.34
337.544	7.23
337.755	7.91
337.966	7.47
338.177	7.54
338.388	7.79
338.599	6.85
338.811	7.57
339.022	8.24
339.233	7.69
339.444	6.33
339.655	6.42
339.866	6.41
340.076	5.35
340.287	4.76
340.498	4.93
340.709	4.93
340.92	5.21
341.131	5.68
341.342	5.08
341.553	6.01
341.764	6.87
341.975	7.03
342.185	6.72
342.396	7.51
342.607	8.56
342.818	8.43
343.029	8.52
343.239	9.28
343.45	8.25
343.661	8.55
343.872	8.09
344.082	8.56
344.293	8.31
344.504	8.35
344.714	7.62
344.925	7.41
345.136	7.28
345.346	7.25
345.557	6.69
345.768	6.76
345.978	6.19
346.189	6.23
346.399	5.1
346.61	5.9
346.821	5.37
347.031	5.05
347.242	5.45
347.452	5.22
347.663	5.28
347.873	5.15
348.084	6.02
348.294	6.93
348.504	6.6
348.715	7.03
348.925	5.79
349.136	6.85
349.346	7.4
349.557	6.15
349.767	6.63
349.977	6.63
350.188	6.84
350.398	6.52
350.608	6.53
350.819	7.19
351.029	7.49
351.239	7.72
351.449	7.46
351.66	7.83
351.87	9.05
352.08	9.03
352.29	9.09
352.501	8.27
352.711	8.55
352.921	8.1
353.131	7.88
353.341	7.56
353.552	7.59
353.762	7.4
353.972	7.51
354.182	6.68
354.392	6.67
354.602	6.24
354.812	7.33
355.022	6.6
355.232	6.49
355.442	5.67
355.652	6.06
355.862	5.73
356.072	4.89
356.282	4.39
356.492	4.67
356.702	3.9
356.912	4.19
357.122	3.78
357.332	3.57
357.542	3.95
357.752	5.26
357.962	5.12
358.171	5.2
358.381	6.08
358.591	5.91
358.801	6
359.011	6.76
359.221	6.43
359.43	6.07
359.64	6.44
359.85	5.72
360.06	4.71
360.269	5.01
360.479	4.87
360.689	4.18
360.899	4.83
361.108	4.44
361.318	4.06
361.528	4.28
361.737	4.49
361.947	4.95
362.156	5.41
362.366	5.8
362.576	5.43
362.785	5.66
362.995	6.35
363.204	5.77
363.414	6.13
363.623	6.7
363.833	6.59
364.042	6.79
364.252	6.25
364.461	6.15
364.671	5.98
364.88	5.99
365.09	5.85
365.299	5.36
365.509	5.7
365.718	5.5
365.927	5.41
366.137	4.98
366.346	4.9
366.555	4.92
366.765	5.46
366.974	5.45
367.183	5.58
367.393	5.99
367.602	6.19
367.811	6.11
368.021	5.88
368.23	5.7
368.439	5.65
368.648	5.54
368.857	5.44
369.067	4.64
369.276	4.53
369.485	4.11
369.694	4.29
369.903	4
370.112	3.82
370.321	4.34
370.531	3.77
370.74	4.35
370.949	4.38
371.158	4.62
371.367	4.91
371.576	5.01
371.785	5.17
371.994	5.24
372.203	5.59
372.412	6.37
372.621	5.94
372.83	6.15
373.039	6.26
373.248	5.5
373.457	5.42
373.666	5.21
373.874	4.54
374.083	5.02
374.292	4.69
374.501	4.54
374.71	3.45
374.919	4.01
375.128	4.3
375.336	4.06
375.545	5.09
375.754	5.05
375.963	5.28
376.171	5.62
376.38	5.24
376.589	4.74
376.798	4.44
377.006	5.23
377.215	4.69
377.424	4.4
377.632	4.62
377.841	3.92
378.05	3.98
378.258	3.88
378.467	4.16
378.675	4.15
378.884	4.32
379.093	4.49
379.301	4.36
379.51	4.82
379.718	5.2
379.927	5.24
380.135	5.66
380.344	5.79
380.552	5.43
380.761	5.51
380.969	5.62
381.177	5.72
381.386	5.4
381.594	5.05
381.803	4.84
382.011	5.03
382.219	4.56
382.428	4.63
382.636	4.3
382.845	4.7
383.053	4.36
383.261	4.3
383.469	4.08
383.678	4.38
383.886	4.38
384.094	4
384.302	3.32
384.511	3.5
384.719	3.28
384.927	3.62
385.135	3.71
385.343	3.59
385.552	3.54
385.76	4.05
385.968	3.92
386.176	3.89
386.384	4.34
386.592	4.42
386.8	4.4
387.008	4.62
387.216	4.54
387.424	4.69
387.633	4.58
387.841	4.41
388.049	4.08
388.257	4.37
388.465	4.34
388.672	4.2
388.88	4.03
389.088	3.78
389.296	3.37
389.504	2.92
389.712	2.49
389.92	2.72
390.128	3.14
390.336	3.02
390.544	2.93
390.751	3.1
390.959	3.24
391.167	3.47
391.375	3.48
391.583	3.46
391.79	3.44
391.998	3.53
392.206	3.69
392.414	3.21
392.621	3.46
392.829	3.01
393.037	2.86
393.244	2.68
393.452	2.63
393.66	2.9
393.867	3.27
394.075	3.75
394.283	3.68
394.49	3.43
394.698	3.6
394.905	3.26
395.113	3.85
395.32	4.09
395.528	4.04
395.735	3.92
395.943	3.87
396.15	3.8
396.358	3.12
396.565	3
396.773	3.15
396.98	3.3
397.188	3.48
397.395	3.31
397.602	3.21
397.81	3.31
398.017	3.46
398.225	3.37
398.432	3.38
398.639	3.95
398.847	4.01
399.054	3.98
399.261	3.97
399.468	4.19
399.676	4.36
399.883	4.33
400.09	4.33
400.297	4.43
400.505	4.39
400.712	4.13
400.919	3.81
401.126	4.21
401.333	4.33
401.54	4.18
401.748	3.98
401.955	3.92
402.162	3.88
402.369	3.84
402.576	3.5
402.783	3.3
402.99	3.01
403.197	3.36
403.404	3.19
403.611	3.04
403.818	3.03
404.025	2.76
404.232	2.6
404.439	2.52
404.646	2.41
404.853	2.63
405.06	2.88
405.267	3.47
405.474	3.23
405.681	3.26
405.887	3.26
406.094	3.21
406.301	3.36
406.508	3.47
406.715	3.48
406.922	3.31
407.128	3.53
407.335	3.48
407.542	3.54
407.749	3.51
407.955	3.54
408.162	3.5
408.369	3.76
408.575	3.92
408.782	3.85
408.989	3.74
409.195	4.04
409.402	3.84
409.609	3.91
409.815	3.29
410.022	3.34
410.228	3.4
410.435	3.38
410.642	3.28
410.848	3.27
411.055	3.07
411.261	3.09
411.468	2.85
411.674	2.48
411.881	2.41
412.087	2.7
412.294	2.8
412.5	2.44
412.706	2.3
412.913	2.29
413.119	2.32
413.326	2.65
413.532	2.67
413.738	2.87
413.945	3.18
414.151	3.15
414.357	3.11
414.564	3.37
414.77	3.77
414.976	3.94
415.182	3.77
415.389	3.98
415.595	3.85
415.801	4.03
416.007	3.92
416.214	3.85
416.42	3.81
416.626	3.92
416.832	3.58
417.038	3.44
417.244	3.29
417.45	3.4
417.657	2.99
417.863	2.99
418.069	3.06
418.275	3.2
418.481	3.25
418.687	3.07
418.893	2.74
419.099	2.69
419.305	2.75
419.511	2.86
419.717	2.69
419.923	2.72
420.129	2.71
420.335	2.51
420.541	2.42
420.746	2.31
420.952	2.42
421.158	2.57
421.364	2.74
421.57	2.56
421.776	2.59
421.982	2.63
422.187	2.69
422.393	2.61
422.599	2.59
422.805	2.8
423.01	2.92
423.216	3.04
423.422	3.04
423.628	2.87
423.833	2.94
424.039	2.94
424.245	2.94
424.45	3
424.656	3.05
424.862	3.27
425.067	3.07
425.273	2.93
425.478	2.96
425.684	3.02
425.889	3.16
426.095	3.15
426.301	3.14
426.506	3.22
426.712	3
426.917	2.99
427.123	2.77
427.328	2.73
427.533	3.01
427.739	2.84
427.944	2.73
428.15	2.49
428.355	2.54
428.561	2.51
428.766	2.54
428.971	2.74
429.177	2.9
429.382	3.1
429.587	2.95
429.793	2.8
429.998	2.99
430.203	3.11
430.408	3.3
430.614	3.11
430.819	3.03
431.024	2.89
431.229	2.92
431.434	2.78
431.64	2.61
431.845	2.79
432.05	2.78
432.255	2.72
432.46	2.61
432.665	2.38
432.87	2.45
433.076	2.54
433.281	2.45
433.486	2.31
433.691	2.28
433.896	2.25
434.101	2.18
434.306	2.09
434.511	1.84
434.716	1.76
434.921	1.81
435.126	1.81
435.331	1.74
435.535	1.89
435.74	1.72
435.945	1.62
436.15	1.65
436.355	1.67
436.56	1.87
436.765	2.15
436.97	2.19
437.174	2.4
437.379	2.63
437.584	2.6
437.789	2.57
437.993	2.77
438.198	2.85
438.403	2.8
438.608	2.94
438.812	2.79
439.017	2.66
439.222	2.78
439.426	2.6
439.631	2.54
439.836	2.64
440.04	2.64
440.245	2.69
440.45	2.64
440.654	2.64
440.859	2.52
441.063	2.5
441.268	2.46
441.472	2.47
441.677	2.59
441.881	2.68
442.086	2.45
442.29	2.53
442.495	2.5
442.699	2.53
442.904	2.53
443.108	2.47
443.312	2.44
443.517	2.56
443.721	2.53
443.925	2.38
444.13	2.12
444.334	2.31
444.538	2.17
444.743	2.08
444.947	1.98
445.151	1.9
445.356	1.91
445.56	2.08
445.764	1.9
445.968	1.85
446.173	1.88
446.377	1.93
446.581	1.92
446.785	1.91
446.989	1.92
447.193	2.08
447.398	2.15
447.602	2.16
447.806	2.01
448.01	2.19
448.214	2.22
448.418	2.19
448.622	2.16
448.826	2.12
449.03	2.08
449.234	2.13
449.438	1.95
449.642	1.88
449.846	2.02
450.05	2.2
450.254	2.18
450.458	1.97
450.662	2.19
450.866	2.22
451.069	2.4
451.273	2.45
451.477	2.55
451.681	2.49
451.885	2.57
452.089	2.25
452.292	2.25
452.496	2.23
452.7	2.42
452.904	2.32
453.107	2.33
453.311	2.14
453.515	2.1
453.719	2.05
453.922	2.42
454.126	2.36
454.33	2.78
454.533	2.5
454.737	2.45
454.94	2.49
455.144	2.59
455.348	2.62
455.551	2.68
455.755	2.87
455.958	2.9
456.162	2.76
456.365	2.65
456.569	2.42
456.772	2.51
456.976	2.59
457.179	2.52
457.383	2.42
457.586	2.31
457.79	2.18
457.993	2.14
458.196	2.13
458.4	1.98
458.603	2.15
458.807	2.17
459.01	2.32
459.213	2.33
459.417	2.31
459.62	2.23
459.823	2.29
460.026	2.36
460.23	2.37
460.433	2.33
460.636	2.36
460.839	2.25
461.042	2.43
461.246	2.28
461.449	2.28
461.652	2.15
461.855	2.26
462.058	2.34
462.261	2.34
462.464	2.35
462.668	2.29
462.871	2.29
463.074	2.28
463.277	2.22
463.48	2.38
463.683	2.24
463.886	2.44
464.089	2.47
464.292	2.25
464.495	2.06
464.698	2.09
464.901	2.26
465.104	2.48
465.306	2.57
465.509	2.3
465.712	2.24
465.915	2.16
466.118	2.02
466.321	1.9
466.524	1.88
466.726	2.09
466.929	1.98
467.132	1.91
467.335	1.84
467.538	1.86
467.74	2.03
467.943	1.97
468.146	2.05
468.348	2.25
468.551	2.25
468.754	2.36
468.956	2.28
469.159	2.34
469.362	2.41
469.564	2.27
469.767	2.49
469.969	2.48
470.172	2.47
470.375	2.6
470.577	2.66
470.78	2.59
470.982	2.58
471.185	2.44
471.387	2.51
471.59	2.49
471.792	2.67
471.995	2.41
472.197	2.46
472.399	2.61
472.602	2.48
472.804	2.27
473.007	2.17
473.209	2.31
473.411	2.49
473.614	2.43
473.816	2.36
474.018	2.09
474.22	2.23
474.423	2.21
474.625	2.11
474.827	2.24
475.03	2.35
475.232	2.64
475.434	2.43
475.636	2.45
475.838	2.47
476.04	2.49
476.243	2.47
476.445	2.29
476.647	2.3
476.849	2.2
477.051	2.16
477.253	2.18
477.455	1.94
477.657	1.89
477.859	1.84
478.061	1.8
478.263	1.82
478.465	2.07
478.667	2.07
478.869	2.04
479.071	2.14
479.273	2.22
479.475	2.18
479.677	2.23
479.879	2.42
480.081	2.53
480.283	2.56
480.485	2.62
480.686	2.43
480.888	2.51
481.09	2.5
481.292	2.58
481.494	2.37
481.695	2.35
481.897	2.44
482.099	2.4
482.301	2.35
482.502	2.31
482.704	2.25
482.906	2.24
483.107	2.25
483.309	2.28
483.511	2.24
483.712	2.25
483.914	2.28
484.115	2.2
484.317	2.19
484.519	2.2
484.72	2.19
484.922	2.17
485.123	2.2
485.325	2.21
485.526	2.14
485.728	2.13
485.929	2.2
486.131	2.15
486.332	2.25
486.534	2.21
486.735	2.14
486.936	2.23
487.138	2.23
487.339	2.29
487.541	2.23
487.742	2.31
487.943	2.38
488.144	2.34
488.346	2.36
488.547	2.31
488.748	2.33
488.95	2.41
489.151	2.34
489.352	2.28
489.553	2.21
489.755	2.21
489.956	2.18
490.157	2.12
490.358	2.02
490.559	2.05
490.76	2.05
490.961	2.05
491.163	2.01
491.364	2.01
491.565	2.11
491.766	2.08
491.967	2.11
492.168	2.06
492.369	1.96
492.57	2.01
492.771	1.94
492.972	1.97
493.173	2
493.374	1.92
493.575	1.85
493.776	1.79
493.976	1.75
494.177	1.8
494.378	1.8
494.579	2.01
494.78	2.01
494.981	2.23
495.182	2.22
495.382	2.27
495.583	2.36
495.784	2.36
495.985	2.4
496.185	2.53
496.386	2.43
496.587	2.38
496.788	2.31
496.988	2.28
497.189	2.16
497.39	2.11
497.59	2.09
497.791	2.16
497.992	2.2
498.192	2.29
498.393	2.23
498.593	2.24
498.794	2.27
498.994	2.25
499.195	2.21
499.395	2.3
499.596	2.5
499.796	2.55
499.997	2.64
500.197	2.74
500.398	2.44
500.598	2.52
500.799	2.54
500.999	2.59
501.199	2.65
501.4	2.76
501.6	2.67
501.801	2.64
502.001	2.59
502.201	2.57
502.402	2.57
502.602	2.84
502.802	2.74
503.002	2.88
503.203	3.01
503.403	3.03
503.603	3.05
503.803	2.99
504.003	3.01
504.204	2.99
504.404	2.91
504.604	2.83
504.804	3.01
505.004	3.16
505.204	3.22
505.404	3.06
505.604	2.97
505.804	2.97
506.005	3.01
506.205	2.99
506.405	3.09
506.605	3.21
506.805	3.31
507.005	3.02
507.204	2.99
507.404	2.88
507.604	3.01
507.804	3.16
508.004	3.28
508.204	3.43
508.404	3.19
508.604	3.13
508.804	3.08
509.003	3.02
509.203	3.11
509.403	3.19
509.603	3.21
509.803	3.31
510.002	3.29
510.202	3.23
510.402	3.12
510.602	3.2
510.801	3.26
511.001	3.22
511.201	3.19
511.4	3.27
511.6	3.11
511.8	3.2
511.999	3.1
512.199	3.03
512.398	2.98
512.598	3.09
512.797	3.23
512.997	3.17
513.197	3.15
513.396	3.45
513.596	3.53
513.795	3.66
513.994	3.49
514.194	3.46
514.393	3.58
514.593	3.65
514.792	3.59
514.992	3.62
515.191	3.75
515.39	3.95
515.59	3.87
515.789	3.84
515.988	3.87
516.188	3.95
516.387	4.07
516.586	4.1
516.786	4.11
516.985	4.18
517.184	4.29
517.383	4.33
517.582	4.35
517.782	4.34
517.981	4.41
518.18	4.39
518.379	4.46
518.578	4.37
518.777	4.36
518.976	4.42
519.176	4.49
519.375	4.36
519.574	4.37
519.773	4.26
519.972	4.2
520.171	4.2
520.37	4.24
520.569	4.3
520.768	4.39
520.967	4.48
521.166	4.4
521.365	4.28
521.564	4.31
521.762	4.27
521.961	4.33
522.16	4.46
522.359	4.42
522.558	4.47
522.757	4.5
522.956	4.63
523.154	4.58
523.353	4.7
523.552	4.75
523.751	4.89
523.949	5.04
524.148	5.13
524.347	5.17
524.546	5.23
524.744	5.2
524.943	5.17
525.142	5.17
525.34	5.25
525.539	5.2
525.737	5.34
525.936	5.39
526.135	5.41
526.333	5.45
526.532	5.48
526.73	5.52
526.929	5.6
527.127	5.63
527.326	5.64
527.524	5.65
527.723	5.77
527.921	5.77
528.12	5.76
528.318	5.67
528.516	5.64
528.715	5.65
528.913	5.67
529.112	5.67
529.31	5.69
529.508	5.69
529.707	5.69
529.905	5.68
530.103	5.69
530.301	5.66
530.5	5.74
530.698	5.77
530.896	5.75
531.094	5.75
531.293	5.82
531.491	5.88
531.689	5.91
531.887	6.07
532.085	6.14
532.283	6.19
532.481	6.26
532.68	6.35
532.878	6.51
533.076	6.67
533.274	6.76
533.472	6.79
533.67	6.79
533.868	6.87
534.066	6.84
534.264	6.87
534.462	6.93
534.66	6.99
534.858	6.94
535.056	6.9
535.253	6.81
535.451	6.79
535.649	6.79
535.847	6.94
536.045	7.05
536.243	7.03
536.441	7.11
536.638	7.21
536.836	7.32
537.034	7.36
537.232	7.44
537.43	7.5
537.627	7.55
537.825	7.64
538.023	7.69
538.22	7.61
538.418	7.62
538.616	7.65
538.813	7.59
539.011	7.68
539.209	7.9
539.406	8.04
539.604	8.35
539.801	8.39
539.999	8.57
540.196	8.47
540.394	8.61
540.591	8.77
540.789	8.79
540.986	8.87
541.184	8.89
541.381	8.85
541.579	8.83
541.776	8.72
541.974	8.72
542.171	8.68
542.368	8.8
542.566	8.89
542.763	8.9
542.96	8.95
543.158	8.95
543.355	9.04
543.552	9.23
543.75	9.4
543.947	9.6
544.144	9.85
544.341	10
544.539	10.16
544.736	10.26
544.933	10.38
545.13	10.53
545.327	10.74
545.524	10.74
545.722	10.72
545.919	10.78
546.116	10.79
546.313	10.84
546.51	10.88
546.707	10.91
546.904	10.91
547.101	11.1
547.298	11.12
547.495	11.13
547.692	11.15
547.889	11.29
548.086	11.23
548.283	11.29
548.48	11.33
548.677	11.28
548.874	11.4
549.07	11.68
549.267	11.55
549.464	11.72
549.661	11.68
549.858	11.9
550.055	11.94
550.251	12.02
550.448	11.99
550.645	12.18
550.842	12.46
551.038	12.5
551.235	12.33
551.432	12.55
551.628	12.56
551.825	12.8
552.022	12.74
552.218	13
552.415	13.3
552.612	13.55
552.808	13.52
553.005	13.55
553.201	13.57
553.398	13.6
553.594	13.66
553.791	13.98
553.987	14.06
554.184	14.2
554.38	14.14
554.577	14.1
554.773	14.18
554.97	14.43
555.166	14.67
555.362	14.78
555.559	14.83
555.755	14.78
555.952	14.74
556.148	14.8
556.344	15.1
556.541	15.14
556.737	15.03
556.933	15.04
557.129	14.96
557.326	14.99
557.522	15.17
557.718	15.51
557.914	15.73
558.11	15.84
558.307	15.81
558.503	15.82
558.699	16.16
558.895	16.27
559.091	16.41
559.287	16.48
559.483	16.57
559.679	16.76
559.876	17
560.072	17.14
560.268	17.27
560.464	17.58
560.66	17.79
560.856	17.7
561.052	18.05
561.247	18.31
561.443	18.35
561.639	18.46
561.835	18.67
562.031	18.51
562.227	18.59
562.423	18.6
562.619	18.74
562.815	18.77
563.01	18.67
563.206	18.83
563.402	18.65
563.598	18.89
563.793	18.91
563.989	18.73
564.185	18.83
564.381	18.87
564.576	18.98
564.772	18.98
564.968	19.06
565.163	19.39
565.359	19.42
565.555	19.55
565.75	19.55
565.946	19.63
566.141	19.78
566.337	19.77
566.532	19.87
566.728	19.91
566.923	19.97
567.119	19.9
567.314	19.78
567.51	19.8
567.705	20.02
567.901	20.07
568.096	20.22
568.292	20.34
568.487	20.44
568.682	20.61
568.878	20.71
569.073	20.76
569.268	20.97
569.464	21.05
569.659	21.13
569.854	21.15
570.05	21.35
570.245	21.47
570.44	21.41
570.635	21.61
570.831	21.57
571.026	21.51
571.221	21.77
571.416	21.92
571.611	22.17
571.806	22.21
572.002	22.34
572.197	22.32
572.392	22.22
572.587	22.37
572.782	22.49
572.977	22.5
573.172	22.59
573.367	22.62
573.562	22.57
573.757	22.49
573.952	22.75
574.147	22.77
574.342	22.85
574.537	23.02
574.732	22.94
574.927	22.92
575.121	22.96
575.316	23.25
575.511	23.27
575.706	23.22
575.901	23.28
576.096	23.15
576.29	23.25
576.485	23.26
576.68	23.34
576.875	23.35
577.069	23.38
577.264	23.58
577.459	23.53
577.654	23.45
577.848	23.54
578.043	23.69
578.238	23.83
578.432	23.62
578.627	23.59
578.821	23.48
579.016	23.68
579.21	23.74
579.405	23.87
579.6	24.05
579.794	24.13
579.989	24.21
580.183	24.24
580.378	24.17
580.572	24.41
580.766	24.6
580.961	24.9
581.155	25.05
581.35	25.28
581.544	25.23
581.738	24.98
581.933	25.04
582.127	25.14
582.321	25.33
582.516	25.34
582.71	25.11
582.904	25.18
583.099	25.2
583.293	25.33
583.487	25.31
583.681	25.27
583.875	25.51
584.07	25.66
584.264	25.68
584.458	25.38
584.652	25.56
584.846	25.91
585.04	26.04
585.234	26.07
585.428	25.88
585.623	25.96
585.817	26.13
586.011	26.2
586.205	26.19
586.399	26.53
586.593	26.77
586.787	26.73
586.981	26.67
587.174	26.62
587.368	26.57
587.562	26.62
587.756	26.56
587.95	26.44
588.144	26.46
588.338	26.34
588.532	25.91
588.725	25.89
588.919	25.95
589.113	26.12
589.307	26.02
589.501	26.07
589.694	26.38
589.888	26.37
590.082	26.36
590.275	26.07
590.469	26.21
590.663	26.47
590.856	26.43
591.05	26.56
591.244	26.7
591.437	27.03
591.631	26.87
591.824	26.89
592.018	26.97
592.212	27.18
592.405	27.31
592.599	27.44
592.792	27.64
592.986	27.67
593.179	27.49
593.372	27.32
593.566	27.11
593.759	27.28
593.953	27.17
594.146	27.14
594.339	27.17
594.533	27.36
594.726	27.37
594.92	27.3
595.113	27.5
595.306	27.63
595.499	27.72
595.693	27.56
595.886	27.49
596.079	27.35
596.272	27.44
596.466	27.4
596.659	27.53
596.852	27.5
597.045	27.69
597.238	27.48
597.431	27.52
597.624	27.58
597.818	27.9
598.011	28.04
598.204	28.08
598.397	28.22
598.59	28.3
598.783	28.1
598.976	28.08
599.169	27.99
599.362	28.23
599.555	28.31
599.748	28.03
599.941	27.89
600.134	28.02
600.326	28.23
600.519	28.31
600.712	28.39
600.905	28.62
601.098	28.68
601.291	28.76
601.483	28.71
601.676	28.43
601.869	28.75
602.062	28.87
602.255	28.87
602.447	28.83
602.64	28.71
602.833	28.69
603.025	28.69
603.218	28.83
603.411	28.79
603.603	28.94
603.796	29.09
603.989	28.98
604.181	28.87
604.374	28.8
604.566	28.87
604.759	28.72
604.951	28.48
605.144	28.46
605.336	28.57
605.529	28.44
605.721	28.46
605.914	28.55
606.106	28.57
606.299	28.65
606.491	28.77
606.683	28.73
606.876	28.83
607.068	29.01
607.26	29.04
607.453	28.87
607.645	29.04
607.837	29.01
608.03	28.85
608.222	29.14
608.414	29.34
608.606	29.26
608.799	29.21
608.991	29.29
609.183	29.4
609.375	29.55
609.567	29.45
609.759	29.41
609.952	29.46
610.144	29.54
610.336	29.43
610.528	29.3
610.72	29.3
610.912	29.46
611.104	29.57
611.296	29.48
611.488	29.49
611.68	29.55
611.872	29.55
612.064	29.51
612.256	29.47
612.448	29.51
612.64	29.7
612.832	29.51
613.023	29.53
613.215	29.3
613.407	29.63
613.599	29.46
613.791	29.74
613.983	29.77
614.174	29.88
614.366	30.06
614.558	30.04
614.75	29.88
614.941	30.37
615.133	30.15
615.325	30.19
615.516	29.97
615.708	29.84
615.9	29.3
616.091	29.4
616.283	29.24
616.475	29.43
616.666	29.39
616.858	29.35
617.049	28.95
617.241	29
617.432	29.03
617.624	29.36
617.815	29.52
618.007	29.86
618.198	29.93
618.39	30.11
618.581	30.09
618.773	30.19
618.964	30.31
619.155	30.48
619.347	30.5
619.538	30.54
619.729	30.15
619.921	30.18
620.112	30.19
620.303	29.91
620.494	29.83
620.686	29.62
620.877	29.6
621.068	29.55
621.259	29.68
621.451	29.8
621.642	29.65
621.833	29.76
622.024	30.03
622.215	30.19
622.406	30.32
622.597	30.53
622.788	30.71
622.98	30.72
623.171	30.68
623.362	30.48
623.553	30.48
623.744	30.69
623.935	30.77
624.126	30.71
624.317	30.76
624.508	30.76
624.698	30.82
624.889	30.72
625.08	30.76
625.271	30.97
625.462	31.28
625.653	31.37
625.844	31.2
626.034	30.92
626.225	31.06
626.416	30.99
626.607	31.14
626.798	31.07
626.988	31.42
627.179	31.42
627.37	31.29
627.56	31.25
627.751	31.29
627.942	31.56
628.132	31.75
628.323	31.58
628.514	31.58
628.704	31.58
628.895	31.55
629.085	31.25
629.276	31.12
629.466	30.93
629.657	30.9
629.847	30.86
630.038	30.82
630.228	31.21
630.419	31.24
630.609	31.06
630.8	31.33
630.99	31.43
631.181	31.32
631.371	31.45
631.561	32.12
631.752	32.15
631.942	32.13
632.132	32.33
632.323	32.01
632.513	32.05
632.703	32.28
632.893	31.82
633.084	31.58
633.274	31.7
633.464	31.74
633.654	31.32
633.844	31.51
634.034	31.77
634.225	31.47
634.415	31.33
634.605	31.45
634.795	31.38
634.985	31.67
635.175	32.05
635.365	32.1
635.555	31.99
635.745	32.21
635.935	32.02
636.125	31.37
636.315	31.56
636.505	31.72
636.695	31.55
636.885	31.47
637.075	31.11
637.265	30.95
637.455	31.06
637.644	31.25
637.834	31.02
638.024	30.91
638.214	31.44
638.404	31.16
638.593	31.24
638.783	31.22
638.973	31.43
639.163	31.77
639.352	31.67
639.542	31.66
639.732	31.52
639.921	31.75
640.111	31.87
640.301	31.56
640.49	31.73
640.68	31.77
640.87	31.85
641.059	31.73
641.249	31.88
641.438	31.9
641.628	31.47
641.817	31.44
642.007	31.39
642.196	31.65
642.386	31.73
642.575	31.73
642.764	31.4
642.954	31.56
643.143	32.09
643.333	31.85
643.522	31.91
643.711	32.1
643.901	32.48
644.09	32.48
644.279	32.2
644.469	32.09
644.658	32.13
644.847	32.55
645.036	32.25
645.226	31.72
645.415	31.71
645.604	31.61
645.793	31.4
645.982	31.31
646.171	31.58
646.361	31.67
646.55	31.92
646.739	32.08
646.928	32.17
647.117	32.49
647.306	32.8
647.495	32.76
647.684	33.27
647.873	33.63
648.062	33.76
648.251	33.83
648.44	33.74
648.629	33.58
648.818	33.41
649.007	33.46
649.196	33.26
649.384	33.23
649.573	33.69
649.762	33.04
649.951	33.18
650.14	32.81
650.328	32.4
650.517	32.46
650.706	32.7
650.895	32.76
651.083	32.71
651.272	32.75
651.461	32.77
651.65	32.78
651.838	32.87
652.027	32.55
652.216	32.62
652.404	32.66
652.593	32.7
652.781	32.83
652.97	32.87
653.158	32.69
653.347	32.56
653.535	32.66
653.724	32.22
653.912	32.34
654.101	32.38
654.289	32.75
654.478	32.72
654.666	32.71
654.855	32.84
655.043	32.85
655.231	33.28
655.42	33.32
655.608	33.13
655.796	33.28
655.985	33.52
656.173	33.73
656.361	33.45
656.55	33.32
656.738	33.39
656.926	33.28
657.114	33.12
657.302	33.01
657.491	33.22
657.679	33.21
657.867	33.3
658.055	33.48
658.243	33.3
658.431	33.27
658.619	33.74
658.807	33.73
658.996	33.87
659.184	34.02
659.372	34.01
659.56	33.81
659.748	33.65
659.936	33.63
660.124	33.56
660.311	33.63
660.499	33.62
660.687	33.39
660.875	33.22
661.063	32.8
661.251	32.68
661.439	32.57
661.627	32.55
661.814	32.5
662.002	32.59
662.19	32.34
662.378	32.09
662.565	32.44
662.753	32.36
662.941	32.71
663.129	32.74
663.316	32.6
663.504	32.17
663.692	32.68
663.879	33.29
664.067	33.25
664.254	33.47
664.442	34.12
664.63	34.27
664.817	34.33
665.005	33.97
665.192	34.18
665.38	34.65
665.567	34.83
665.755	34.73
665.942	34.43
666.13	34.35
666.317	33.95
666.504	33.86
666.692	33.44
666.879	33.49
667.067	33.56
667.254	33.37
667.441	33.45
667.629	33.44
667.816	33.04
668.003	32.83
668.19	32.8
668.378	33.08
668.565	32.49
668.752	32.67
668.939	32.93
669.127	33.04
669.314	33.17
669.501	32.69
669.688	33.24
669.875	33.25
670.062	33.4
670.249	33.51
670.436	33.74
670.623	34.34
670.81	33.98
670.997	33.78
671.184	33.63
671.371	33.9
671.558	34.14
671.745	33.91
671.932	34.15
672.119	34.28
672.306	34.49
672.493	33.99
672.68	33.9
672.867	34.16
673.054	34.2
673.24	34.25
673.427	33.75
673.614	33.78
673.801	33.42
673.988	33.44
674.174	33.45
674.361	33.35
674.548	33.36
674.734	33.35
674.921	33.46
675.108	33.6
675.294	33.74
675.481	33.85
675.668	34.03
675.854	34.75
676.041	34.88
676.227	35.02
676.414	34.74
676.601	35.18
676.787	35.47
676.974	35.46
677.16	35.28
677.347	35.26
677.533	35.18
677.719	35.09
677.906	34.44
678.092	34.08
678.279	33.89
678.465	34.03
678.651	33.76
678.838	33.51
679.024	33.43
679.21	33.49
679.397	33.4
679.583	33.29
679.769	32.97
679.955	33.13
680.142	33.25
680.328	33.41
680.514	33.75
680.7	33.94
680.886	33.82
681.073	33.76
681.259	33.61
681.445	33.5
681.631	33.92
681.817	33.91
682.003	33.97
682.189	33.97
682.375	34.06
682.561	33.63
682.747	33.89
682.933	33.8
683.119	33.67
683.305	33.48
683.491	33.76
683.677	33.62
683.863	33.87
684.049	33.85
684.235	34.27
684.42	33.86
684.606	33.56
684.792	33.24
684.978	33.81
685.164	34.09
685.349	34.48
685.535	34.38
685.721	34.51
685.907	33.98
686.092	33.9
686.278	33.7
686.464	33.68
686.649	34.13
686.835	33.79
687.021	33.72
687.206	33.56
687.392	33.33
687.577	33.46
687.763	33.04
687.948	33.85
688.134	34.11
688.319	33.8
688.505	34
688.69	34.04
688.876	34.28
689.061	33.93
689.247	33.85
689.432	33.59
689.618	32.87
689.803	33.01
689.988	32.63
690.174	32.42
690.359	32.66
690.544	32.51
690.73	32.18
690.915	32.04
691.1	31.63
691.285	31.68
691.471	32.35
691.656	33.43
691.841	33.49
692.026	33.71
692.211	33.76
692.396	33.31
692.582	33.61
692.767	33.82
692.952	34.01
693.137	34.27
693.322	34.38
693.507	33.94
693.692	33.42
693.877	33.43
694.062	33.34
694.247	33.68
694.432	33.95
694.617	33.69
694.802	33.79
694.987	34.1
695.172	34.14
695.357	33.97
695.541	34.27
695.726	34.37
695.911	34.78
696.096	34.75
696.281	34.37
696.466	34.88
696.65	34.63
696.835	34.46
697.02	34.45
697.204	35.03
697.389	35.39
697.574	35
697.759	34.94
697.943	34.6
698.128	34.47
698.312	34.31
698.497	34.05
698.682	34.16
698.866	34.45
699.051	34.28
699.235	33.78
699.42	33.81
699.604	34
699.789	34.08
699.973	34.29
700.158	34.65
700.342	34.91
700.527	35.16
700.711	35.56
700.895	35.52
701.08	35.33
701.264	35.74
701.448	35.63
701.633	35.38
701.817	35.47
702.001	35.79
702.186	35.72
702.37	35.57
702.554	34.99
702.738	34.8
702.923	34.75
703.107	34.77
703.291	34.98
703.475	34.82
703.659	34.97
703.843	35.01
704.027	34.42
704.212	34.12
704.396	34.09
704.58	34.94
704.764	34.23
704.948	34.05
705.132	34.05
705.316	34.13
705.5	34.5
705.684	35.71
705.868	35.89
706.052	35.69
706.235	36
706.419	36.32
706.603	35.89
706.787	36.03
706.971	36.21
707.155	36.87
707.339	36.24
707.522	35.46
707.706	34.46
707.89	33.7
708.074	34.01
708.257	33.55
708.441	33.65
708.625	34.15
708.808	34.41
708.992	34.39
709.176	33.82
709.359	33.84
709.543	34.45
709.727	34.49
709.91	35.21
710.094	35.32
710.277	36.03
710.461	35.74
710.644	35.59
710.828	35.69
711.011	35.52
711.195	35.48
711.378	35.82
711.562	35.52
711.745	35.81
711.928	35.51
712.112	35.46
712.295	35.04
712.478	35.29
712.662	34.72
712.845	34.7
713.028	34.64
713.212	34.97
713.395	34.69
713.578	34.85
713.761	34.64
713.945	34.65
714.128	34.67
714.311	35.52
714.494	35.39
714.677	35.76
714.86	35.71
715.043	35.96
715.227	35.8
715.41	36
715.593	36.41
715.776	36.18
715.959	36.23
716.142	36.17
716.325	36.11
716.508	36.08
716.691	36.06
716.874	36.1
717.057	36.11
717.239	36.31
717.422	36.62
717.605	36.7
717.788	36.73
717.971	36.72
718.154	35.95
718.337	35.35
718.519	35.39
718.702	35.73
718.885	36.49
719.068	36.27
719.25	35.62
719.433	35.62
719.616	35.07
719.798	35.22
719.981	35.49
720.164	35.74
720.346	35.73
720.529	36.4
720.712	36.55
720.894	35.62
721.077	36.07
721.259	36.27
721.442	36.16
721.624	36.56
721.807	36.68
721.989	36.24
722.172	37.44
722.354	37.08
722.537	36.12
722.719	35.48
722.901	35.53
723.084	35.09
723.266	35.42
723.448	35.04
723.631	34.55
723.813	35.08
723.995	35.39
724.178	34.86
724.36	35.27
724.542	35.46
724.724	36.18
724.907	36.64
725.089	36.6
725.271	36.62
725.453	36.4
725.635	36.68
725.817	36.85
725.999	37.44
726.181	37.29
726.364	36.73
726.546	36.74
726.728	35.82
726.91	36.42
727.092	36.68
727.274	37.04
727.456	37.46
727.638	37.23
727.819	36.98
728.001	36.04
728.183	36.45
728.365	36.66
728.547	36.65
728.729	37
728.911	36.76
729.093	36.75
729.274	36.59
729.456	36.29
729.638	36.21
729.82	35.48
730.001	35.14
730.183	34.87
730.365	34.94
730.546	34.81
730.728	34.46
730.91	33.35
731.091	33.15
731.273	33.55
731.455	33.81
731.636	34.52
731.818	34.97
731.999	35.25
732.181	35.15
732.362	35.28
732.544	35.87
732.725	35.75
732.907	36.52
733.088	36.34
733.27	35.65
733.451	35.33
733.633	35.28
733.814	34.67
733.995	35.24
734.177	35.21
734.358	34.64
734.539	34.16
734.721	34.53
734.902	34.14
735.083	34.84
735.264	35.17
735.446	35.76
735.627	35.52
735.808	35.89
735.989	35.65
736.17	35.83
736.351	36.02
736.533	35.76
736.714	35.99
736.895	36.51
737.076	36.04
737.257	35.89
737.438	35.01
737.619	35.74
737.8	36.01
737.981	36.93
738.162	37.24
738.343	37.93
738.524	38.04
738.705	38.14
738.886	37.2
739.067	37.3
739.247	37.71
739.428	38.02
739.609	36.83
739.79	37.14
739.971	36.79
740.151	36.26
740.332	35.64
740.513	35.28
740.694	35.21
740.874	36.29
741.055	36.5
741.236	36.55
741.417	35.89
741.597	35.58
741.778	35.36
741.958	34.51
742.139	34.82
742.32	35.13
742.5	35.24
742.681	35.11
742.861	34.39
743.042	35.12
743.222	35.63
743.403	36.62
743.583	37.41
743.764	37.15
743.944	37.12
744.124	36.92
744.305	37.77
744.485	38.46
744.666	38.2
744.846	37.99
745.026	37.57
745.207	36.7
745.387	37.12
745.567	36.68
745.747	37.95
745.928	39.1
746.108	39.19
746.288	38.38
746.468	37.96
746.648	38.51
746.829	39.49
747.009	39.8
747.189	39.64
747.369	39.25
747.549	39.5
747.729	38.5
747.909	37.05
748.089	37.4
748.269	37.24
748.449	37.43
748.629	37.51
748.809	36.81
748.989	36.06
749.169	34.98
749.349	35.06
749.529	34.93
749.709	35.07
749.889	35.6
750.068	35.23
750.248	35.79
750.428	36.88
750.608	35.83
750.788	37.1
750.967	37.42
751.147	39.18
751.327	38.77
751.507	39.12
751.686	38.92
751.866	38.73
752.046	38.24
752.225	38.15
752.405	37.57
752.585	38.1
752.764	36.71
752.944	37.31
753.123	37.17
753.303	36.89
753.482	37.13
753.662	37.99
753.841	38.21
754.021	38.45
754.2	38.25
754.38	37.74
754.559	37.94
754.739	38.37
754.918	36.99
755.097	36
755.277	36.45
755.456	36.27
755.635	35.01
755.815	35.64
755.994	35.88
756.173	36.03
756.352	36.15
756.532	35.86
756.711	35.74
756.89	36.22
757.069	36.88
757.248	36.19
757.427	36.06
757.607	36.39
757.786	35.48
757.965	36.48
758.144	36.51
758.323	35.82
758.502	36.92
758.681	36.88
758.86	37.08
759.039	37.09
759.218	37.25
759.397	36.67
759.576	36.31
759.755	36.45
759.934	35.26
760.113	35.04
760.291	35.02
760.47	33.78
760.649	33.76
760.828	33.11
761.007	33.6
761.186	33.82
761.364	33.95
761.543	34.2
761.722	34.49
761.901	34.61
762.079	34.76
762.258	35.23
762.437	34.93
762.615	35.74
762.794	35.88
762.972	35.23
763.151	36
763.33	36.26
763.508	35.93
763.687	35.9
763.865	36.54
764.044	35.78
764.222	35.68
764.401	36.45
764.579	36.22
764.758	35.37
764.936	35.78
765.114	35.18
765.293	35.24
765.471	36.49
765.65	36.26
765.828	35.74
766.006	36.73
766.184	37.44
766.363	37.09
766.541	36.52
766.719	37.95
766.898	37.75
767.076	38.31
767.254	38.38
767.432	37.11
767.61	37.38
767.788	36.49
767.967	35.25
768.145	35.03
768.323	34.85
768.501	35.02
768.679	34.65
768.857	35.03
769.035	34.5
769.213	34.58
769.391	34.77
769.569	35.34
769.747	36.81
769.925	39.67
770.103	39.42
770.281	39.47
770.459	39.02
770.636	38.46
770.814	36.81
770.992	37.22
771.17	37.47
771.348	37.49
771.525	36.4
771.703	35.86
771.881	32.01
772.059	31.83
772.236	31.03
772.414	31.27
772.592	31.58
772.769	33.12
772.947	33.72
773.125	32.61
773.302	32.8
773.48	33.87
773.657	34.98
773.835	37.39
774.013	37.4
774.19	38.88
774.368	39.41
774.545	38.64
774.723	37.55
774.9	35.52
775.077	36.33
775.255	37.09
775.432	37.59
775.61	37.03
775.787	37.56
775.964	37.62
776.142	37.58
776.319	36.21
776.496	37.48
776.674	38.48
776.851	40.05
777.028	40.63
777.205	40.31
777.382	39.12
777.56	38.88
777.737	38.83
777.914	38.04
778.091	38.44
778.268	39.12
778.445	39.57
778.622	39.08
778.8	37.97
778.977	36.54
779.154	37.29
779.331	37.42
779.508	38.25
779.685	38.58
779.862	38.61
780.038	36.64
780.215	37.92
780.392	39.18
780.569	39.33
780.746	40.39
780.923	41.07
781.1	39.5
781.277	41.39
781.453	41
781.63	38.21
781.807	38.19
781.984	37.74
782.16	37.33
782.337	35.37
782.514	34.99
782.691	34.66
782.867	35.36
783.044	36.49
783.221	34.25
783.397	33.9
783.574	33.17
783.75	32.78
783.927	35.49
784.103	36.28
784.28	38.27
784.456	37.38
784.633	36.52
784.809	34.37
784.986	34.14
785.162	34.69
785.339	34.61
785.515	36.54
785.692	38.5
785.868	39.37
786.044	36.21
786.221	35.58
786.397	36.73
786.573	39
786.749	40.35
786.926	38.97
787.102	39.9
787.278	39.83
787.454	39.3
787.631	39.49
787.807	37.37
787.983	39.93
788.159	39.57
788.335	40.29
788.511	39.53
788.687	39.96
788.863	41.86
789.039	39.8
789.216	38.43
789.392	39.66
789.568	40.53
789.744	40.67
789.919	41.55
790.095	40.44
790.271	39.58
790.447	37.61
790.623	36.75
790.799	36.18
790.975	37.95
791.151	39.07
791.327	38.27
791.502	36.74
791.678	37.25
791.854	35.87
792.03	35.63
792.205	36.07
792.381	35.14
792.557	34.77
792.733	34.65
792.908	33.63
793.084	33.81
793.259	33.71
793.435	32.71
793.611	33.85
793.786	34.27
793.962	35.28
794.137	35.15
794.313	36.87
794.488	36.9
794.664	36.75
794.839	36.24
795.015	36.26
795.19	36.85
795.366	37.66
795.541	34.88
795.716	33.92
795.892	35.56
796.067	35.6
796.242	37.15
796.418	37.1
796.593	38.13
796.768	37.54
796.944	38.81
797.119	38.31
797.294	38.36
797.469	41.43
797.644	41.41
797.82	40.44
797.995	41.46
798.17	40.03
798.345	41.07
798.52	40.3
798.695	41.37
798.87	37.64
799.045	38
799.22	38.42
799.395	35.24
799.57	36.36
799.745	35.18
799.92	35.41
800.095	37.12
800.27	37.54
800.445	36.27
800.62	37.51
800.795	38.5
800.97	37.39
801.145	36.52
801.319	38.33
801.494	37.7
801.669	39.07
801.844	38.26
802.018	36.51
802.193	33.18
802.368	35.11
802.543	32.75
802.717	35.05
802.892	37.92
803.067	39.42
803.241	37.36
803.416	35.44
803.59	33.54
803.765	31.84
803.94	33.33
804.114	36.35
804.289	36.49
804.463	37.53
804.638	36
804.812	35.05
804.986	36.05
805.161	38.26
805.335	39.68
805.51	40.94
805.684	41.83
805.858	40.21
806.033	39.73
806.207	37.92
806.381	37.14
806.556	36.76
806.73	37.1
806.904	36.32
807.078	35.04
807.253	33.3
807.427	33.03
807.601	33.71
807.775	36.46
807.949	35.61
808.123	36.41
808.298	38.41
808.472	39.9
808.646	38.45
808.82	39.4
808.994	40.42
809.168	43.28
809.342	42.72
809.516	40.88
809.69	38.43
809.864	39.33
810.038	37.63
810.212	37.5
810.385	39.21
810.559	40.89
810.733	38.24
810.907	36.93
811.081	34.38
811.255	31.84
811.428	32.17
811.602	32.79
811.776	32.58
811.95	34.3
812.123	35
812.297	35.24
812.471	31.88
812.644	34
812.818	34.33
812.992	34.97
813.165	36.15
813.339	32.57
813.512	35.05
813.686	35.21
813.86	35.42
814.033	33.14
814.207	30.53
814.38	31.37
814.554	28.72
814.727	29.08
814.9	31.8
815.074	33.36
815.247	38.69
815.421	35.22
815.594	34.03
815.767	35.53
815.941	35.88
816.114	36.79
816.287	38.27
816.46	36.85
816.634	38.66
816.807	36.48
816.98	36.72
817.153	36.67
817.327	37.81
817.5	39.03
817.673	38.36
817.846	37.68
818.019	36.3
818.192	35.55
818.365	34.29
818.538	33.32
818.711	33.72
818.884	33.39
819.057	33.72
819.23	31.75
819.403	31.82
819.576	32.03
819.749	34.18
819.922	33.31
820.095	34.51
820.268	36.77
820.441	37.94
820.614	38.56
820.786	38.11
820.959	37.99
821.132	37.02
821.305	36.78
821.477	36.21
821.65	36.12
821.823	36.32
821.996	35.65
822.168	36.19
822.341	35.54
822.514	35.41
822.686	35.73
822.859	35.32
823.031	35.87
823.204	36.24
823.376	36.04
823.549	35.67
823.722	35.51
823.894	35.98
824.067	35.24
824.239	35.52
824.411	35.34
824.584	34.8
824.756	35.02
824.929	34.95
825.101	35.06
825.273	35.09
825.446	35.06
825.618	34.75
825.79	34.61
825.963	34.9
826.135	34.44
826.307	34.33
826.479	34.43
826.652	34.2
826.824	34.52
826.996	34.26
827.168	34.53
827.34	34.58
827.512	35.04
827.684	34.23
827.856	35.07
828.029	35.11
828.201	35.5
828.373	36.1
828.545	35.91
828.717	35.88
828.889	34.8
829.061	34.09
829.232	33.56
829.404	32.03
829.576	32.4
829.748	31.07
829.92	31.62
830.092	32.21
830.264	32.24
830.436	32.2
830.607	30.84
830.779	32.75
830.951	33.42
831.123	32.49
831.294	35.37
831.466	36.66
831.638	39.08
831.809	38.1
831.981	36.68
832.153	36.54
832.324	37.71
832.496	39.66
832.667	37.85
832.839	37.06
833.011	38.95
833.182	39.85
833.354	39.75
833.525	37.95
833.697	36.27
833.868	36.72
834.039	37.08
834.211	35.29
834.382	35.02
834.554	36.4
834.725	37.39
834.896	37.71
835.068	37.25
835.239	35.66
835.41	35.4
835.581	35.54
835.753	35.07
835.924	35.64
836.095	37.84
836.266	37.24
836.438	35.62
836.609	34.66
836.78	33.83
836.951	31.68
837.122	32.55
837.293	33.49
837.464	35.66
837.635	36.83
837.806	37.02
837.977	34.32
838.148	33.74
838.319	34.88
838.49	37.43
838.661	36.94
838.832	40.55
839.003	38.71
839.174	38.77
839.345	38.24
839.516	36.04
839.687	32.99
839.857	32.02
840.028	33.23
840.199	32.8
840.37	26.99
840.54	29.27
840.711	29.38
840.882	32.37
841.053	33.89
841.223	31.34
841.394	33.86
841.564	33.04
841.735	35.12
841.906	37.11
842.076	34.74
842.247	43.58
842.417	43.56
842.588	45.91
842.758	44.34
842.929	43.08
843.099	48.1
843.27	45.96
843.44	48.93
843.611	52.2
843.781	50.15
843.951	54.18
844.122	47.19
844.292	48.09
844.462	45.88
844.633	44.47
844.803	38.71
844.973	31.45
845.144	31.69
845.314	31.79
845.484	30.65
845.654	32.12
845.824	39.22
845.995	38.58
846.165	39.51
846.335	35.8
846.505	38.87
846.675	43.9
846.845	39.78
847.015	38.3
847.185	32.31
847.355	33.36
847.525	31.34
847.695	18.9
847.865	20.98
848.035	21.63
848.205	23.52
848.375	20.32
848.545	24
848.715	29.98
848.884	28.46
849.054	35.07
849.224	30.41
849.394	32.61
849.564	37.68
849.733	33.89
849.903	35.87
850.073	29.2
850.243	28.72
850.412	32.05
850.582	26.39
850.752	29.87
850.921	20.29
851.091	31.39
851.26	32.43
851.43	26.28
851.599	36.08
851.769	31.92
851.939	34.13
852.108	37.38
852.278	24.88
852.447	29.04
852.616	35.62
852.786	38.09
852.955	29.1
853.125	32.28
853.294	34.71
853.463	27.96
853.633	28.36
853.802	31.06
853.971	26.24
854.141	35.58
854.31	43.87
854.479	37.28
854.648	40.34
854.818	45.5
854.987	32.16
855.156	34.97
855.325	34.27
855.494	40.11
855.663	39.7
855.832	39.84
856.001	35.22
856.171	20.96
856.34	23.41
856.509	20.7
856.678	21.77
856.847	27.14
857.016	24.45
857.185	24.56
857.353	15.88
857.522	12.76
857.691	8.84
857.86	15.18
858.029	27.62
858.198	27.42
858.367	28.45
858.535	26.12
858.704	23.37
858.873	23.58
859.042	28.04
859.21	27.67
859.379	28.28
859.548	25.26
859.717	25.84
859.885	18.37
860.054	18.31
860.222	12.97
860.391	11.49
860.56	16.32
860.728	22.13
860.897	20.27
861.065	20.76
861.234	19.74
861.402	33.28
861.571	30.57
861.739	32.03
861.908	30.27
862.076	34.56
862.244	35.02
862.413	34.36
862.581	20.37
862.749	22.53
862.918	19.09
863.086	19.85
863.254	21.06
863.423	18.83
863.591	21.67
863.759	20.57
863.927	18.91
864.096	22.5
864.264	18.5
864.432	31.76
864.6	30.87
864.768	36.25
864.936	33.53
865.104	25.51
865.272	30.7
865.44	33.9
865.608	33.52
865.776	32.61
865.944	24.4
866.112	26.13
866.28	21.11
866.448	14.88
866.616	18.53
866.784	28.72
866.952	29.08
867.12	31.53
867.288	33.9
867.455	40.84
867.623	43.74
867.791	46.8
867.959	41.69
868.127	49.31
868.294	53.66
868.462	52.84
868.63	45.07
868.797	54.53
868.965	49.4
869.133	41.65
869.3	37.74
869.468	39.16
869.636	37.4
869.803	44.07
869.971	43.73
870.138	47.15
870.306	46.68
870.473	45.78
870.641	29.25
870.808	32.95
870.975	42.03
871.143	36.37
871.31	34.27
871.478	38.67
871.645	34.39
871.812	33.19
871.98	24.98
872.147	21.49
872.314	26.36
872.482	44.66
872.649	43.94
872.816	34.97
872.983	36.54
873.15	32.93
873.318	37.77
873.485	38.33
873.652	39.36
873.819	42.44
873.986	46.32
874.153	43.01
874.32	31.22
874.487	29.94
874.654	34.62
874.821	35.73
874.988	36.75
875.155	36.92
875.322	46.37
875.489	47.58
875.656	39.97
875.823	34.18
875.99	36.38
876.157	37.18
876.324	33.07
876.49	23.83
876.657	22.67
876.824	25.36
876.991	18.83
877.157	10.01
877.324	12.48
877.491	20.94
877.658	25.92
877.824	26.41
877.991	35.82
878.157	35.43
878.324	49.19
878.491	49.02
878.657	49.36
878.824	53.26
878.99	55.19
879.157	50.15
879.323	46.85
879.49	34.87
879.656	34.01
879.823	22.18
879.989	15.82
880.156	2.52
880.322	-1.33
880.488	-0.86
880.655	-3.02
880.821	-1.71
880.987	2.35
881.154	0.83
881.32	5.37
881.486	6.31
881.652	11.86
881.819	13.78
881.985	16.11
882.151	19.77
882.317	20.5
882.483	22.29
882.649	23.27
882.816	24.03
882.982	25.08
883.148	29.51
883.314	30.07
883.48	29.67
883.646	31.81
883.812	32.73
883.978	32.5
884.144	34.22
884.31	33.61
884.476	35.14
884.642	37.05
884.807	37.78
884.973	35.14
885.139	34.09
885.305	35.32
885.471	35.4
885.637	35.37
885.802	35.98
885.968	35.3
886.134	35.37
886.3	32.7
886.465	32.39
886.631	32.44
886.797	34.34
886.962	34.87
887.128	33.9
887.293	32.36
887.459	33.36
887.625	36.03
887.79	39.92
887.956	45.89
888.121	49
888.287	47.14
888.452	48.81
888.618	48.43
888.783	54.97
