Data from LC_251_Reflection_2.txt Node
Date: Thu Nov 19 23:04:23 EST 2015
User: robert
Spectrometer: USB4E03001
Autoset integration time: false
Trigger mode: 4
Integration Time (sec): 1.000000E-1
Scans to average: 15
Electric dark correction enabled: true
Nonlinearity correction enabled: false
Boxcar width: 5
Stray light correction enabled: false
XAxis mode: Wavelengths
Stop averaging: false
Number of Pixels in Spectrum: 3648
>>>>>Begin Spectral Data<<<<<
177.566	-93.06
177.785	-45.7
178.005	-9.5
178.225	-4.38
178.445	27.22
178.665	4.69
178.885	60.48
179.105	451.19
179.324	210.36
179.544	292.92
179.764	120.08
179.984	157.81
180.204	310.42
180.423	257.4
180.643	190.68
180.863	114.78
181.083	169.89
181.302	99.53
181.522	90.4
181.742	116.43
181.961	121.02
182.181	151.71
182.401	175.23
182.621	206.32
182.84	258.2
183.06	177.93
183.279	163.84
183.499	202.38
183.719	706.41
183.938	2484.51
184.158	-665.62
184.377	-862.59
184.597	437.86
184.816	-5158.49
185.036	-72.65
185.256	2142.22
185.475	239.01
185.695	199.97
185.914	147.65
186.134	274.67
186.353	234.28
186.572	239.92
186.792	369.48
187.011	-3610.84
187.231	-997.96
187.45	-1313.64
187.67	-108.38
187.889	-81.47
188.108	-58.29
188.328	-76.01
188.547	-308.27
188.766	-389.34
188.986	-411.56
189.205	8636.27
189.424	233.32
189.644	250.28
189.863	168.39
190.082	128.54
190.302	173.72
190.521	158.84
190.74	157.59
190.959	148.71
191.178	120.67
191.398	132.51
191.617	68.87
191.836	217.47
192.055	88.73
192.274	78.55
192.494	33.75
192.713	34.92
192.932	36.73
193.151	60.83
193.37	59.24
193.589	82.13
193.808	97.08
194.027	113.15
194.246	100.25
194.465	113.09
194.685	90.09
194.904	89.3
195.123	90.1
195.342	97.9
195.561	82.74
195.78	80.77
195.999	77.01
196.218	62.93
196.436	58.35
196.655	49.49
196.874	48.59
197.093	98.66
197.312	118.02
197.531	155.31
197.75	271.13
197.969	274.1
198.188	-712.2
198.407	-174.65
198.625	-346.11
198.844	-242.96
199.063	-1969.72
199.282	-227.74
199.501	-261.53
199.719	-438.73
199.938	-121.29
200.157	-330.98
200.376	-317.75
200.594	1987.2
200.813	1382.12
201.032	888.5
201.251	832.03
201.469	437.4
201.688	162.3
201.907	286.06
202.125	1176.11
202.344	302.16
202.563	379.05
202.781	353.05
203	262.7
203.218	250.15
203.437	277.08
203.656	270.79
203.874	358.74
204.093	529.88
204.311	136.87
204.53	121.47
204.748	163.52
204.967	110.82
205.185	129.17
205.404	134.46
205.622	172.59
205.841	163.91
206.059	243.67
206.278	264.69
206.496	317.69
206.715	412.91
206.933	314.68
207.151	205.83
207.37	304.94
207.588	256.29
207.806	248.26
208.025	205.59
208.243	183.16
208.461	116.79
208.68	99.13
208.898	70.46
209.116	45.27
209.335	129.16
209.553	117.81
209.771	-2563.03
209.989	406.43
210.208	-145.49
210.426	-71.78
210.644	149.11
210.862	108.79
211.081	122.16
211.299	108.14
211.517	131.1
211.735	109.71
211.953	79.91
212.171	81.56
212.39	81.69
212.608	75.21
212.826	96.85
213.044	115.01
213.262	103.33
213.48	114.25
213.698	119.83
213.916	132.33
214.134	127.58
214.352	208.44
214.57	241.44
214.788	837.87
215.006	636.34
215.224	486.82
215.442	981.74
215.66	398.85
215.878	602.88
216.096	591.54
216.314	599.55
216.532	744.79
216.75	1214.09
216.968	-186.54
217.185	-218.33
217.403	-504.72
217.621	-1115.26
217.839	96.26
218.057	79.98
218.275	69.18
218.492	84.78
218.71	78.1
218.928	63.75
219.146	69.34
219.363	63.29
219.581	74.82
219.799	65.39
220.017	88.96
220.234	119.22
220.452	113.06
220.67	128.48
220.887	109.91
221.105	101.64
221.323	91.41
221.54	106.49
221.758	109.27
221.976	77.78
222.193	80.92
222.411	59.3
222.629	46.59
222.846	34.59
223.064	39.06
223.281	35.06
223.499	27.13
223.716	37.01
223.934	15.89
224.151	13.2
224.369	22.5
224.586	15.16
224.804	34.16
225.021	40.37
225.239	43.16
225.456	31.25
225.674	30.04
225.891	41.01
226.108	32.37
226.326	33.1
226.543	33.94
226.76	15.82
226.978	29.66
227.195	23.03
227.413	12.92
227.63	13.54
227.847	20.63
228.064	24.51
228.282	19.38
228.499	18.59
228.716	18.99
228.934	18.61
229.151	21.2
229.368	18
229.585	16.82
229.802	17.93
230.02	18.26
230.237	16.83
230.454	13.39
230.671	12.52
230.888	14.68
231.105	12.01
231.323	13.55
231.54	11.63
231.757	12.58
231.974	16.4
232.191	18.1
232.408	17.93
232.625	17.73
232.842	23.98
233.059	30.51
233.276	29.92
233.493	31.92
233.71	27.83
233.927	29.44
234.144	30.78
234.361	25.02
234.578	24.68
234.795	23.92
235.012	24.66
235.229	20.86
235.446	22.21
235.663	19.14
235.879	17.49
236.096	17.02
236.313	14.99
236.53	14.15
236.747	14.16
236.964	10.83
237.181	8.91
237.397	11.88
237.614	12.36
237.831	9.53
238.048	11.7
238.264	10.82
238.481	15.59
238.698	17.65
238.915	23.56
239.131	21.35
239.348	25.17
239.565	24.6
239.781	22
239.998	19.48
240.215	19.26
240.431	17.13
240.648	16.71
240.865	13.81
241.081	10.85
241.298	6.71
241.514	10.04
241.731	9.75
241.947	11.26
242.164	10.62
242.38	11.2
242.597	10
242.814	11.07
243.03	10.75
243.246	11.79
243.463	11.87
243.679	11.82
243.896	11.75
244.112	12.04
244.329	10.89
244.545	12.76
244.762	13.35
244.978	13.14
245.194	11.9
245.411	14.2
245.627	12.48
245.843	12.81
246.06	14.79
246.276	13.14
246.492	12.24
246.709	12.54
246.925	11.02
247.141	10.26
247.357	10.2
247.574	10.76
247.79	10.37
248.006	11.77
248.222	11.57
248.439	10.27
248.655	10.14
248.871	10.28
249.087	9.81
249.303	10.65
249.519	11.58
249.736	12.05
249.952	11.7
250.168	10.16
250.384	8.04
250.6	11.03
250.816	12.15
251.032	12.61
251.248	11.85
251.464	12.01
251.68	11.09
251.896	11.27
252.112	12.89
252.328	14.48
252.544	15.18
252.76	16.2
252.976	14.71
253.192	14.13
253.408	14.43
253.624	15.91
253.84	16.19
254.056	16.28
254.272	16.44
254.487	14.28
254.703	12.63
254.919	14.82
255.135	13.36
255.351	15.24
255.567	17.92
255.782	16.88
255.998	16.64
256.214	15.47
256.43	15.9
256.646	16.55
256.861	19.14
257.077	19.45
257.293	18.49
257.508	18.4
257.724	17.26
257.94	16.72
258.155	17.67
258.371	16.26
258.587	14.99
258.802	13
259.018	12.61
259.234	11.32
259.449	10.99
259.665	9.93
259.88	10.09
260.096	9.46
260.312	8.38
260.527	8.2
260.743	8.55
260.958	9.26
261.174	9.91
261.389	9.15
261.605	10.5
261.82	10.26
262.036	10.82
262.251	10.79
262.466	11.16
262.682	12.2
262.897	13.16
263.113	12.33
263.328	12.88
263.543	13.13
263.759	13.4
263.974	11.27
264.189	12.67
264.405	12.48
264.62	11.62
264.835	13.06
265.051	12.54
265.266	11.04
265.481	11.72
265.696	11.47
265.912	11.7
266.127	12.04
266.342	12.01
266.557	11.16
266.773	11.14
266.988	11.17
267.203	10
267.418	10.42
267.633	9.74
267.848	8.97
268.064	7.99
268.279	7.19
268.494	7.33
268.709	7.59
268.924	7.23
269.139	8.41
269.354	8.17
269.569	7.21
269.784	8.07
269.999	7.77
270.214	8.22
270.429	8.4
270.644	8.05
270.859	7.38
271.074	5.43
271.289	6.04
271.504	5.35
271.719	5.91
271.934	6.59
272.149	6
272.363	7.11
272.578	7.27
272.793	7.24
273.008	8.37
273.223	9.35
273.438	11
273.653	10.09
273.867	10.19
274.082	9.13
274.297	8.99
274.512	8.92
274.726	8.42
274.941	8.26
275.156	7.67
275.371	6.65
275.585	5.33
275.8	4.97
276.015	6.29
276.229	8.04
276.444	9.81
276.659	9.7
276.873	9.46
277.088	9.58
277.302	9.45
277.517	10.36
277.732	12.05
277.946	12.93
278.161	12.66
278.375	12.82
278.59	10.52
278.804	9.74
279.019	9.82
279.233	10.28
279.448	10.85
279.662	11.34
279.877	10.45
280.091	9.38
280.306	9.27
280.52	9.09
280.735	8.96
280.949	9.69
281.163	9.63
281.378	9.9
281.592	10.82
281.806	10.06
282.021	9.47
282.235	10.18
282.449	10.22
282.664	9.59
282.878	9.39
283.092	8.33
283.307	9.46
283.521	8.74
283.735	9.29
283.949	8.05
284.164	8.27
284.378	7.73
284.592	6.72
284.806	6.6
285.02	7.02
285.234	7.72
285.449	7.85
285.663	7.67
285.877	8.38
286.091	8.25
286.305	8.16
286.519	8.06
286.733	8.65
286.947	9.52
287.161	8.75
287.375	8.67
287.589	7.67
287.803	7.94
288.017	7.42
288.231	7.41
288.445	6.54
288.659	7.47
288.873	7.25
289.087	6.54
289.301	7.28
289.515	7.64
289.729	6.97
289.943	7.14
290.157	7.75
290.371	7.37
290.584	6.88
290.798	7.53
291.012	7.7
291.226	8.4
291.44	11.03
291.654	9.81
291.867	10.49
292.081	11.22
292.295	11.28
292.509	10.59
292.722	11.27
292.936	12.11
293.15	11.17
293.364	11.69
293.577	10.18
293.791	8.17
294.005	9.06
294.218	8.38
294.432	8.02
294.645	8.36
294.859	8.03
295.073	7.13
295.286	6.65
295.5	6.67
295.713	5.55
295.927	6.92
296.14	7.37
296.354	6.75
296.568	7.65
296.781	7.77
296.994	8.44
297.208	8.44
297.421	9.15
297.635	9.93
297.848	10.26
298.062	11.17
298.275	10.8
298.489	10.45
298.702	10.94
298.915	11.01
299.129	11.2
299.342	10.87
299.555	11.47
299.769	10.54
299.982	9.7
300.195	10.13
300.409	9.57
300.622	9.18
300.835	8.86
301.048	9.11
301.262	8.51
301.475	8.13
301.688	7.66
301.901	7.76
302.115	9.01
302.328	9.37
302.541	8.29
302.754	7.89
302.967	9.35
303.18	9.41
303.393	8.93
303.607	9.34
303.82	10.05
304.033	10.22
304.246	10.9
304.459	9.76
304.672	10.76
304.885	11.67
305.098	11.21
305.311	9.53
305.524	9.44
305.737	9.44
305.95	9.52
306.163	8.51
306.376	8.79
306.589	7.89
306.802	7.67
307.015	5.84
307.228	5.87
307.44	6.17
307.653	6.94
307.866	7.77
308.079	8.97
308.292	8.83
308.505	9.85
308.718	8.86
308.93	8.59
309.143	9.28
309.356	9.67
309.569	9.48
309.781	9.7
309.994	10.1
310.207	9.65
310.42	9.47
310.632	8.92
310.845	8.35
311.058	9.15
311.27	9.69
311.483	9.54
311.696	9.37
311.908	9.25
312.121	9.03
312.333	8.77
312.546	8.39
312.759	8.03
312.971	8.81
313.184	9.06
313.396	9.4
313.609	9.28
313.821	9.98
314.034	11.41
314.246	10.91
314.459	11.48
314.671	12.19
314.884	12.2
315.096	11.83
315.309	12.3
315.521	12.74
315.733	12.56
315.946	12.61
316.158	12.89
316.371	11.48
316.583	13
316.795	11.76
317.008	11.28
317.22	11.67
317.432	11.83
317.644	11.69
317.857	10.52
318.069	9.72
318.281	9.07
318.494	9.46
318.706	9.23
318.918	8.06
319.13	8.89
319.342	7.52
319.555	8.28
319.767	7.38
319.979	7.29
320.191	8.76
320.403	8.99
320.615	9.05
320.827	6.71
321.039	6.68
321.252	7.76
321.464	8.93
321.676	9.84
321.888	8.23
322.1	9.9
322.312	8.72
322.524	9.14
322.736	8.84
322.948	10.11
323.16	10.9
323.372	10.8
323.584	9.66
323.796	7.88
324.007	7.75
324.219	9.54
324.431	9.19
324.643	9.43
324.855	8.67
325.067	8.91
325.279	7.69
325.491	7.8
325.702	8.46
325.914	8.59
326.126	9.79
326.338	10.19
326.55	9.21
326.761	9.02
326.973	8.95
327.185	9.09
327.396	9.55
327.608	10.23
327.82	10.84
328.032	10.75
328.243	11.38
328.455	11.47
328.666	12.26
328.878	11.92
329.09	11.86
329.301	13.11
329.513	13.18
329.725	13.36
329.936	13.25
330.148	13.19
330.359	13.4
330.571	13.86
330.782	13.57
330.994	13.55
331.205	14.91
331.417	15.77
331.628	14.44
331.84	13.64
332.051	13.44
332.262	14.05
332.474	14.83
332.685	15.01
332.897	14.94
333.108	15.01
333.319	14.52
333.531	14.37
333.742	13.78
333.953	14.78
334.165	15.93
334.376	15.41
334.587	15.14
334.799	13.51
335.01	13.15
335.221	13.23
335.432	13.21
335.644	12.65
335.855	12.14
336.066	12.52
336.277	11.3
336.488	10.54
336.7	10.56
336.911	10.44
337.122	11.2
337.333	11.61
337.544	11.28
337.755	10.84
337.966	10.29
338.177	10.38
338.388	10.36
338.599	10.58
338.811	10.95
339.022	11.01
339.233	9.47
339.444	9.15
339.655	8.93
339.866	8.85
340.076	8.91
340.287	10.11
340.498	10.13
340.709	10.22
340.92	9.94
341.131	10.3
341.342	11.09
341.553	13.09
341.764	13.33
341.975	13.32
342.185	13.56
342.396	13.81
342.607	13.92
342.818	13.76
343.029	13.46
343.239	14.18
343.45	13.45
343.661	12.78
343.872	12.45
344.082	12.06
344.293	12.19
344.504	12.67
344.714	12.61
344.925	12.39
345.136	12.25
345.346	10.81
345.557	10.87
345.768	11.01
345.978	11.27
346.189	10.1
346.399	10.05
346.61	9.65
346.821	8.39
347.031	8.09
347.242	8.59
347.452	9.17
347.663	9.98
347.873	10.37
348.084	10.77
348.294	10.54
348.504	10.53
348.715	11.2
348.925	11.84
349.136	12.96
349.346	12.45
349.557	11.72
349.767	11.56
349.977	11.82
350.188	10.63
350.398	10.23
350.608	10.43
350.819	11.72
351.029	10.86
351.239	11.13
351.449	10.1
351.66	10.36
351.87	10.82
352.08	10.77
352.29	11.39
352.501	11.79
352.711	11.51
352.921	11.29
353.131	9.9
353.341	9.89
353.552	10.07
353.762	10.58
353.972	10.64
354.182	10.28
354.392	10.2
354.602	9.8
354.812	9.71
355.022	9.79
355.232	10.11
355.442	11.11
355.652	11.26
355.862	10.39
356.072	10.47
356.282	10.99
356.492	10.9
356.702	10.84
356.912	10.77
357.122	11.21
357.332	11.71
357.542	11.3
357.752	10.95
357.962	10.85
358.171	10.91
358.381	11.04
358.591	10.59
358.801	10.18
359.011	10.04
359.221	9.53
359.43	8.76
359.64	8.47
359.85	8.49
360.06	8.61
360.269	9.11
360.479	8.79
360.689	8.22
360.899	8.07
361.108	8.85
361.318	8.71
361.528	9.23
361.737	9.7
361.947	9.41
362.156	9.39
362.366	9.4
362.576	9.36
362.785	9.28
362.995	9.35
363.204	9.87
363.414	9.23
363.623	9.29
363.833	9.03
364.042	8.65
364.252	9.01
364.461	8.98
364.671	9.2
364.88	9.29
365.09	9.35
365.299	9.74
365.509	9.7
365.718	9.47
365.927	9.31
366.137	9.6
366.346	10.18
366.555	9.68
366.765	9.56
366.974	9.87
367.183	9.31
367.393	8.89
367.602	9.13
367.811	9.3
368.021	9.83
368.23	9.53
368.439	9.08
368.648	8.94
368.857	9.62
369.067	10
369.276	9.85
369.485	9.46
369.694	10.06
369.903	9.22
370.112	8.56
370.321	8.17
370.531	8.81
370.74	9.36
370.949	9.04
371.158	8.72
371.367	8.29
371.576	7.62
371.785	8.21
371.994	8.02
372.203	8.22
372.412	8.65
372.621	8.91
372.83	8.74
373.039	8.15
373.248	8.68
373.457	9.1
373.666	9.32
373.874	9.43
374.083	9.07
374.292	9.03
374.501	9.24
374.71	9.18
374.919	8.79
375.128	9.18
375.336	9.11
375.545	8.55
375.754	7.86
375.963	7.77
376.171	7.94
376.38	8.16
376.589	8.16
376.798	7.75
377.006	7.55
377.215	7.86
377.424	7.07
377.632	7.33
377.841	7.39
378.05	7.91
378.258	7.91
378.467	7.79
378.675	7.63
378.884	7.79
379.093	7.92
379.301	8.15
379.51	8.37
379.718	8.75
379.927	8.59
380.135	8.7
380.344	8.18
380.552	8.86
380.761	8.58
380.969	8.78
381.177	8.91
381.386	8.43
381.594	8.21
381.803	7.97
382.011	8.19
382.219	8.81
382.428	8.72
382.636	8.89
382.845	8.47
383.053	8.44
383.261	7.85
383.469	7.89
383.678	8.27
383.886	8.45
384.094	8.52
384.302	8.52
384.511	7.95
384.719	7.59
384.927	7.66
385.135	7.93
385.343	8.14
385.552	8.65
385.76	8.4
385.968	8.42
386.176	8.21
386.384	8.03
386.592	7.92
386.8	7.65
387.008	7.68
387.216	7.6
387.424	7.32
387.633	7.3
387.841	7.03
388.049	7.08
388.257	7.28
388.465	6.98
388.672	6.84
388.88	6.49
389.088	6.55
389.296	6.75
389.504	6.65
389.712	6.53
389.92	6.62
390.128	6.64
390.336	6.44
390.544	5.99
390.751	6.02
390.959	5.99
391.167	6.5
391.375	6.69
391.583	6.28
391.79	6.44
391.998	6.85
392.206	6.71
392.414	6.83
392.621	7.04
392.829	7.13
393.037	7.35
393.244	7.43
393.452	7.18
393.66	7.06
393.867	7.38
394.075	7.26
394.283	6.65
394.49	6.6
394.698	6.65
394.905	6.57
395.113	6.65
395.32	6.6
395.528	6.76
395.735	7.05
395.943	7.03
396.15	6.88
396.358	6.86
396.565	7.02
396.773	6.92
396.98	6.78
397.188	6.82
397.395	6.71
397.602	6.59
397.81	6.37
398.017	5.86
398.225	5.97
398.432	5.97
398.639	5.78
398.847	5.87
399.054	5.97
399.261	5.99
399.468	5.89
399.676	6.08
399.883	5.83
400.09	5.93
400.297	6.29
400.505	6.22
400.712	6.51
400.919	6.75
401.126	6.91
401.333	6.95
401.54	6.94
401.748	7.11
401.955	7.23
402.162	7.56
402.369	7.77
402.576	7.74
402.783	7.85
402.99	7.81
403.197	7.83
403.404	7.39
403.611	7.4
403.818	7.43
404.025	7.36
404.232	7.04
404.439	7.27
404.646	7.1
404.853	6.85
405.06	6.84
405.267	7.08
405.474	7.04
405.681	7.17
405.887	7.41
406.094	7.39
406.301	7.43
406.508	7.77
406.715	7.5
406.922	7.26
407.128	7.22
407.335	7.23
407.542	6.96
407.749	7.04
407.955	7.12
408.162	7.04
408.369	7.16
408.575	7.18
408.782	6.9
408.989	7.07
409.195	7.06
409.402	7.43
409.609	7.4
409.815	7.16
410.022	7.06
410.228	6.94
410.435	6.78
410.642	6.69
410.848	6.62
411.055	6.81
411.261	6.91
411.468	7.09
411.674	6.9
411.881	6.88
412.087	6.88
412.294	6.98
412.5	6.9
412.706	6.93
412.913	7
413.119	6.97
413.326	6.59
413.532	6.48
413.738	6.38
413.945	6.35
414.151	6.46
414.357	6.69
414.564	6.65
414.77	6.84
414.976	6.68
415.182	6.28
415.389	6.2
415.595	6.38
415.801	6.19
416.007	6.43
416.214	6.38
416.42	6.19
416.626	5.94
416.832	5.92
417.038	5.77
417.244	5.81
417.45	6.22
417.657	6.38
417.863	6.49
418.069	6.63
418.275	6.62
418.481	6.71
418.687	6.77
418.893	6.86
419.099	6.71
419.305	6.94
419.511	6.99
419.717	6.85
419.923	6.69
420.129	6.55
420.335	6.43
420.541	6.32
420.746	6.26
420.952	6.32
421.158	6.28
421.364	6.29
421.57	6.2
421.776	6.18
421.982	6.14
422.187	6.18
422.393	6.13
422.599	6.13
422.805	6.05
423.01	5.94
423.216	5.78
423.422	5.68
423.628	5.71
423.833	5.65
424.039	5.66
424.245	5.63
424.45	5.69
424.656	5.86
424.862	5.87
425.067	5.94
425.273	6.09
425.478	6.23
425.684	6.43
425.889	6.53
426.095	6.55
426.301	6.53
426.506	6.71
426.712	6.7
426.917	6.75
427.123	6.85
427.328	6.82
427.533	6.94
427.739	6.98
427.944	6.86
428.15	6.77
428.355	6.82
428.561	6.84
428.766	6.82
428.971	6.88
429.177	6.64
429.382	6.63
429.587	6.82
429.793	6.56
429.998	6.45
430.203	6.68
430.408	6.74
430.614	6.89
430.819	6.75
431.024	6.74
431.229	6.59
431.434	6.48
431.64	6.34
431.845	6.37
432.05	6.47
432.255	6.49
432.46	6.38
432.665	6.31
432.87	6.2
433.076	6.26
433.281	6.12
433.486	6.21
433.691	6.32
433.896	6.3
434.101	6.14
434.306	6
434.511	5.92
434.716	5.91
434.921	5.94
435.126	5.92
435.331	5.96
435.535	5.91
435.74	5.86
435.945	6.05
436.15	5.95
436.355	6.16
436.56	6.32
436.765	6.37
436.97	6.35
437.174	6.31
437.379	6.17
437.584	6.13
437.789	6.22
437.993	6.12
438.198	5.84
438.403	5.85
438.608	5.89
438.812	5.82
439.017	5.89
439.222	5.96
439.426	5.92
439.631	5.98
439.836	6.06
440.04	6.21
440.245	6.3
440.45	6.41
440.654	6.54
440.859	6.45
441.063	6.64
441.268	6.65
441.472	6.52
441.677	6.57
441.881	6.66
442.086	6.49
442.29	6.35
442.495	6.23
442.699	6.24
442.904	6.31
443.108	6.26
443.312	5.97
443.517	5.92
443.721	6.11
443.925	6.18
444.13	6.13
444.334	6.39
444.538	6.46
444.743	6.63
444.947	6.69
445.151	6.6
445.356	6.66
445.56	6.71
445.764	6.66
445.968	6.65
446.173	6.69
446.377	6.72
446.581	6.66
446.785	6.6
446.989	6.59
447.193	6.5
447.398	6.4
447.602	6.32
447.806	6.4
448.01	6.33
448.214	6.26
448.418	6.18
448.622	6
448.826	5.91
449.03	5.88
449.234	5.71
449.438	5.71
449.642	5.85
449.846	5.82
450.05	5.7
450.254	5.89
450.458	5.91
450.662	5.92
450.866	6.04
451.069	6.05
451.273	6.05
451.477	6.25
451.681	6.28
451.885	6.41
452.089	6.51
452.292	6.52
452.496	6.43
452.7	6.39
452.904	6.18
453.107	6.25
453.311	6.48
453.515	6.44
453.719	6.26
453.922	6.33
454.126	6.06
454.33	5.98
454.533	6.1
454.737	6.01
454.94	5.95
455.144	6.11
455.348	6.2
455.551	6.19
455.755	6.16
455.958	6.19
456.162	6.16
456.365	6.32
456.569	6.34
456.772	6.33
456.976	6.59
457.179	6.71
457.383	6.66
457.586	6.59
457.79	6.49
457.993	6.56
458.196	6.6
458.4	6.54
458.603	6.41
458.807	6.46
459.01	6.38
459.213	6.34
459.417	6.35
459.62	6.32
459.823	6.29
460.026	6.22
460.23	6.15
460.433	6.08
460.636	6.02
460.839	6.09
461.042	6.11
461.246	6.14
461.449	6.13
461.652	6.07
461.855	6.15
462.058	6.11
462.261	6.28
462.464	6.38
462.668	6.55
462.871	6.78
463.074	6.68
463.277	6.63
463.48	6.59
463.683	6.54
463.886	6.6
464.089	6.48
464.292	6.6
464.495	6.59
464.698	6.48
464.901	6.39
465.104	6.27
465.306	6.45
465.509	6.27
465.712	6.28
465.915	6.11
466.118	6.15
466.321	6.3
466.524	6.27
466.726	6.09
466.929	6.24
467.132	6.24
467.335	6.25
467.538	6.01
467.74	6.06
467.943	6
468.146	6.1
468.348	5.99
468.551	5.84
468.754	5.88
468.956	6
469.159	6.02
469.362	5.96
469.564	5.91
469.767	6.21
469.969	6.19
470.172	6.37
470.375	6.39
470.577	6.42
470.78	6.61
470.982	6.62
471.185	6.57
471.387	6.34
471.59	6.44
471.792	6.46
471.995	6.35
472.197	6.44
472.399	6.42
472.602	6.49
472.804	6.37
473.007	6.34
473.209	6.2
473.411	6.23
473.614	6.39
473.816	6.55
474.018	6.51
474.22	6.49
474.423	6.45
474.625	6.35
474.827	6.25
475.03	6.23
475.232	6.19
475.434	6.38
475.636	6.23
475.838	6.21
476.04	6
476.243	5.85
476.445	5.79
476.647	5.86
476.849	5.88
477.051	6.09
477.253	6.18
477.455	6.24
477.657	6.06
477.859	6.11
478.061	6.1
478.263	6.03
478.465	6.09
478.667	6.16
478.869	6.23
479.071	5.94
479.273	5.67
479.475	5.66
479.677	5.59
479.879	5.66
480.081	5.58
480.283	5.62
480.485	5.77
480.686	5.93
480.888	5.98
481.09	5.96
481.292	6.23
481.494	6.28
481.695	6.42
481.897	6.4
482.099	6.35
482.301	6.4
482.502	6.41
482.704	6.29
482.906	6.19
483.107	6.13
483.309	6.1
483.511	6.06
483.712	6.04
483.914	5.99
484.115	6.03
484.317	6.03
484.519	6.06
484.72	6.05
484.922	6.08
485.123	6.12
485.325	6.16
485.526	6.16
485.728	6.16
485.929	6.21
486.131	6.16
486.332	6.16
486.534	6.16
486.735	6.12
486.936	6.11
487.138	6.13
487.339	6.06
487.541	6.11
487.742	6.12
487.943	6.19
488.144	6.19
488.346	6.23
488.547	6.23
488.748	6.29
488.95	6.35
489.151	6.36
489.352	6.37
489.553	6.58
489.755	6.49
489.956	6.52
490.157	6.48
490.358	6.49
490.559	6.55
490.76	6.54
490.961	6.44
491.163	6.41
491.364	6.39
491.565	6.41
491.766	6.27
491.967	6.3
492.168	6.25
492.369	6.27
492.57	6.22
492.771	6.19
492.972	6.14
493.173	6.21
493.374	6.28
493.575	6.24
493.776	6.11
493.976	6.09
494.177	6.15
494.378	6.23
494.579	6.1
494.78	6.04
494.981	5.97
495.182	6.03
495.382	5.95
495.583	5.85
495.784	5.9
495.985	6.08
496.185	6.01
496.386	6.02
496.587	5.94
496.788	6.03
496.988	6.24
497.189	6.29
497.39	6.36
497.59	6.55
497.791	6.58
497.992	6.7
498.192	6.65
498.393	6.8
498.593	6.77
498.794	6.92
498.994	6.92
499.195	6.89
499.395	6.89
499.596	6.97
499.796	6.8
499.997	6.83
500.197	6.73
500.398	6.88
500.598	6.88
500.799	6.88
500.999	6.8
501.199	6.87
501.4	6.83
501.6	6.82
501.801	6.59
502.001	6.47
502.201	6.4
502.402	6.5
502.602	6.5
502.802	6.49
503.002	6.52
503.203	6.52
503.403	6.41
503.603	6.53
503.803	6.56
504.003	6.68
504.204	6.91
504.404	6.72
504.604	6.7
504.804	6.73
505.004	6.77
505.204	6.86
505.404	6.95
505.604	7.12
505.804	7.08
506.005	7.12
506.205	7.14
506.405	7.07
506.605	7.38
506.805	7.33
507.005	7.23
507.204	7.26
507.404	7.04
507.604	6.88
507.804	6.81
508.004	6.86
508.204	6.87
508.404	6.83
508.604	6.89
508.804	6.85
509.003	6.99
509.203	6.9
509.403	6.81
509.603	6.84
509.803	6.94
510.002	6.84
510.202	6.68
510.402	6.66
510.602	6.68
510.801	6.68
511.001	6.67
511.201	6.59
511.4	6.69
511.6	6.86
511.8	6.98
511.999	7.08
512.199	7.29
512.398	7.38
512.598	7.48
512.797	7.56
512.997	7.63
513.197	7.55
513.396	7.47
513.596	7.44
513.795	7.28
513.994	7.26
514.194	7.38
514.393	7.3
514.593	7.41
514.792	7.41
514.992	7.29
515.191	7.38
515.39	7.59
515.59	7.78
515.789	7.77
515.988	7.91
516.188	7.85
516.387	7.69
516.586	7.75
516.786	7.71
516.985	7.62
517.184	7.65
517.383	7.43
517.582	7.34
517.782	7.27
517.981	7.34
518.18	7.24
518.379	7.26
518.578	7.3
518.777	7.27
518.976	7.2
519.176	7.34
519.375	7.37
519.574	7.49
519.773	7.51
519.972	7.56
520.171	7.61
520.37	7.77
520.569	7.81
520.768	7.83
520.967	7.88
521.166	7.94
521.365	7.99
521.564	8
521.762	7.96
521.961	8.14
522.16	8.16
522.359	8.23
522.558	8.16
522.757	8.22
522.956	8.32
523.154	8.29
523.353	8.43
523.552	8.38
523.751	8.4
523.949	8.45
524.148	8.26
524.347	8.27
524.546	8.32
524.744	8.37
524.943	8.37
525.142	8.29
525.34	8.33
525.539	8.27
525.737	8.22
525.936	8.32
526.135	8.35
526.333	8.47
526.532	8.45
526.73	8.41
526.929	8.4
527.127	8.42
527.326	8.46
527.524	8.49
527.723	8.49
527.921	8.54
528.12	8.54
528.318	8.53
528.516	8.5
528.715	8.56
528.913	8.61
529.112	8.65
529.31	8.69
529.508	8.69
529.707	8.68
529.905	8.72
530.103	8.77
530.301	8.73
530.5	8.74
530.698	8.79
530.896	8.82
531.094	8.82
531.293	8.83
531.491	8.84
531.689	8.88
531.887	8.97
532.085	9.04
532.283	9.02
532.481	9.08
532.68	9.19
532.878	9.25
533.076	9.29
533.274	9.31
533.472	9.26
533.67	9.29
533.868	9.36
534.066	9.38
534.264	9.34
534.462	9.4
534.66	9.51
534.858	9.47
535.056	9.48
535.253	9.41
535.451	9.53
535.649	9.65
535.847	9.67
536.045	9.78
536.243	9.91
536.441	10.05
536.638	10.11
536.836	10.1
537.034	10.17
537.232	10.28
537.43	10.45
537.627	10.41
537.825	10.5
538.023	10.49
538.22	10.5
538.418	10.44
538.616	10.35
538.813	10.4
539.011	10.48
539.209	10.5
539.406	10.52
539.604	10.59
539.801	10.79
539.999	10.82
540.196	10.95
540.394	10.9
540.591	10.97
540.789	11.12
540.986	11.06
541.184	11.05
541.381	11.11
541.579	11.11
541.776	11.14
541.974	11.11
542.171	11.1
542.368	11.16
542.566	11.26
542.763	11.26
542.96	11.28
543.158	11.44
543.355	11.54
543.552	11.58
543.75	11.64
543.947	11.71
544.144	11.71
544.341	11.88
544.539	11.9
544.736	12.01
544.933	12.01
545.13	12.1
545.327	12.08
545.524	12.13
545.722	12.23
545.919	12.27
546.116	12.23
546.313	12.42
546.51	12.37
546.707	12.47
546.904	12.43
547.101	12.58
547.298	12.64
547.495	12.62
547.692	12.7
547.889	12.74
548.086	12.85
548.283	12.98
548.48	13
548.677	13.18
548.874	13.34
549.07	13.5
549.267	13.47
549.464	13.65
549.661	13.9
549.858	14.15
550.055	14.18
550.251	14.28
550.448	14.25
550.645	14.65
550.842	14.77
551.038	14.63
551.235	14.78
551.432	15.09
551.628	15.02
551.825	15.05
552.022	14.94
552.218	15.26
552.415	15.38
552.612	15.54
552.808	15.28
553.005	15.37
553.201	15.54
553.398	15.56
553.594	15.45
553.791	15.48
553.987	15.74
554.184	15.74
554.38	15.61
554.577	15.64
554.773	15.85
554.97	16.1
555.166	16.18
555.362	16.07
555.559	16.16
555.755	16.35
555.952	16.46
556.148	16.39
556.344	16.69
556.541	16.85
556.737	17.05
556.933	16.9
557.129	16.66
557.326	16.53
557.522	16.74
557.718	16.74
557.914	17.03
558.11	17.05
558.307	17.22
558.503	17.17
558.699	17.34
558.895	17.14
559.091	17.32
559.287	17.75
559.483	18.05
559.679	18.35
559.876	18.41
560.072	18.42
560.268	18.71
560.464	18.57
560.66	18.77
560.856	18.95
561.052	19.21
561.247	19.39
561.443	19.37
561.639	19.37
561.835	19.34
562.031	19.54
562.227	19.54
562.423	19.69
562.619	19.94
562.815	20.12
563.01	20.12
563.206	20.25
563.402	20.32
563.598	20.52
563.793	20.69
563.989	20.92
564.185	21.08
564.381	21.32
564.576	21.42
564.772	21.58
564.968	21.56
565.163	21.75
565.359	21.85
565.555	22.18
565.75	22.32
565.946	22.49
566.141	22.44
566.337	22.53
566.532	22.66
566.728	22.71
566.923	22.73
567.119	22.93
567.314	23.07
567.51	23.18
567.705	23.09
567.901	22.93
568.096	23.03
568.292	23.07
568.487	23.12
568.682	23.2
568.878	23.31
569.073	23.53
569.268	23.56
569.464	23.67
569.659	23.72
569.854	23.9
570.05	24.18
570.245	24.25
570.44	24.41
570.635	24.58
570.831	24.66
571.026	24.83
571.221	25.07
571.416	25.17
571.611	25.26
571.806	25.33
572.002	25.35
572.197	25.44
572.392	25.53
572.587	25.86
572.782	25.91
572.977	26
573.172	26.11
573.367	26.07
573.562	26.18
573.757	26.2
573.952	26.38
574.147	26.43
574.342	26.63
574.537	26.6
574.732	26.52
574.927	26.52
575.121	26.64
575.316	26.68
575.511	26.74
575.706	26.77
575.901	26.73
576.096	26.96
576.29	27.17
576.485	27.12
576.68	27.22
576.875	27.28
577.069	27.48
577.264	27.61
577.459	27.7
577.654	27.83
577.848	27.94
578.043	28.21
578.238	28.11
578.432	28.03
578.627	28
578.821	28.34
579.016	28.41
579.21	28.39
579.405	28.43
579.6	28.35
579.794	28.38
579.989	28.41
580.183	28.35
580.378	28.41
580.572	28.44
580.766	28.6
580.961	28.31
581.155	28.29
581.35	28.47
581.544	28.52
581.738	28.74
581.933	28.85
582.127	29.03
582.321	29.35
582.516	29.56
582.71	30.03
582.904	30.11
583.099	30.42
583.293	30.59
583.487	30.51
583.681	30.74
583.875	30.93
584.07	31.08
584.264	31.05
584.458	30.97
584.652	31.1
584.846	30.83
585.04	31.18
585.234	31.23
585.428	31.33
585.623	31.47
585.817	31.37
586.011	31.14
586.205	31.01
586.399	31.16
586.593	31.14
586.787	30.93
586.981	31.09
587.174	30.98
587.368	30.88
587.562	31.04
587.756	31.18
587.95	31.19
588.144	31.33
588.338	31.38
588.532	31.41
588.725	31.37
588.919	31.52
589.113	31.78
589.307	31.75
589.501	32.07
589.694	31.84
589.888	31.9
590.082	31.88
590.275	31.89
590.469	31.82
590.663	31.87
590.856	32.07
591.05	32.16
591.244	32.01
591.437	32.12
591.631	32.04
591.824	32.24
592.018	32.03
592.212	32.08
592.405	32.26
592.599	32.39
592.792	32.31
592.986	32.52
593.179	32.5
593.372	32.71
593.566	32.79
593.759	32.71
593.953	32.59
594.146	32.9
594.339	33.11
594.533	33.13
594.726	33.18
594.92	33.32
595.113	33.27
595.306	33.32
595.499	33.03
595.693	33.1
595.886	33.45
596.079	33.8
596.272	33.72
596.466	33.78
596.659	33.86
596.852	33.83
597.045	33.75
597.238	33.71
597.431	33.67
597.624	33.85
597.818	33.92
598.011	33.77
598.204	33.85
598.397	33.86
598.59	33.78
598.783	33.79
598.976	33.85
599.169	34.06
599.362	34.03
599.555	34.05
599.748	34.24
599.941	34.16
600.134	34.24
600.326	33.89
600.519	34.07
600.712	33.88
600.905	33.94
601.098	34.19
601.291	34.23
601.483	34.33
601.676	34.69
601.869	34.41
602.062	34.34
602.255	34.41
602.447	34.53
602.64	34.51
602.833	34.62
603.025	34.68
603.218	34.57
603.411	34.27
603.603	34.35
603.796	34.29
603.989	34.31
604.181	34.28
604.374	34.33
604.566	34.39
604.759	34.27
604.951	34.28
605.144	34.25
605.336	34.28
605.529	34.49
605.721	34.48
605.914	34.33
606.106	34.37
606.299	34.48
606.491	34.44
606.683	34.37
606.876	34.5
607.068	34.66
607.26	34.66
607.453	34.78
607.645	34.87
607.837	34.71
608.03	34.97
608.222	35.21
608.414	35.11
608.606	35.05
608.799	35.17
608.991	35.32
609.183	35.46
609.375	35.41
609.567	35.41
609.759	35.19
609.952	35.54
610.144	35.38
610.336	35.24
610.528	35.44
610.72	35.6
610.912	35.78
611.104	35.85
611.296	35.74
611.488	35.79
611.68	35.86
611.872	36.16
612.064	36.04
612.256	36.03
612.448	36.08
612.64	36.08
612.832	36.06
613.023	35.95
613.215	35.7
613.407	35.71
613.599	35.78
613.791	35.62
613.983	35.51
614.174	35.38
614.366	35.54
614.558	35.59
614.75	35.76
614.941	35.74
615.133	35.78
615.325	36.03
615.516	36.25
615.708	36.24
615.9	36.14
616.091	36.25
616.283	36.51
616.475	36.72
616.666	36.82
616.858	37.05
617.049	37.32
617.241	37.32
617.432	37.03
617.624	37.07
617.815	37.25
618.007	37.44
618.198	37.33
618.39	37.27
618.581	37.54
618.773	37.61
618.964	37.19
619.155	36.97
619.347	36.67
619.538	37.11
619.729	36.92
619.921	36.84
620.112	36.96
620.303	37.08
620.494	37.11
620.686	36.48
620.877	36.4
621.068	36.28
621.259	36.43
621.451	36.91
621.642	36.51
621.833	36.66
622.024	36.47
622.215	36.37
622.406	36.34
622.597	36.28
622.788	36.3
622.98	36.05
623.171	36.19
623.362	36.24
623.553	35.95
623.744	36.27
623.935	36.3
624.126	36.86
624.317	37.01
624.508	37.08
624.698	37.37
624.889	37.57
625.08	37.83
625.271	37.95
625.462	37.84
625.653	37.77
625.844	37.67
626.034	37.69
626.225	37.24
626.416	37.06
626.607	37.15
626.798	37.1
626.988	37.14
627.179	37.18
627.37	36.91
627.56	36.92
627.751	37.1
627.942	37.33
628.132	37.21
628.323	37.33
628.514	37.45
628.704	37.54
628.895	37.39
629.085	37.49
629.276	37.61
629.466	38.07
629.657	38.1
629.847	38.12
630.038	38.06
630.228	38.2
630.419	38.29
630.609	38.28
630.8	38.04
630.99	38.38
631.181	38.44
631.371	38.1
631.561	37.83
631.752	37.82
631.942	37.88
632.132	37.69
632.323	37.76
632.513	37.85
632.703	37.96
632.893	38.15
633.084	37.8
633.274	37.67
633.464	37.86
633.654	37.98
633.844	37.94
634.034	37.76
634.225	38.13
634.415	38.25
634.605	38.11
634.795	38.33
634.985	38.21
635.175	38.37
635.365	38.5
635.555	38.56
635.745	38.61
635.935	38.73
636.125	39
636.315	38.65
636.505	38.65
636.695	38.49
636.885	38.19
637.075	38.33
637.265	38.5
637.455	38.54
637.644	38.48
637.834	38.51
638.024	38.44
638.214	38.42
638.404	38.62
638.593	38.5
638.783	38.98
638.973	39.19
639.163	39.42
639.352	39.34
639.542	39.23
639.732	39.57
639.921	39.64
640.111	39.54
640.301	39.46
640.49	39.59
640.68	39.55
640.87	39.36
641.059	39.31
641.249	39.03
641.438	39
641.628	39.03
641.817	39.03
642.007	39.1
642.196	39.29
642.386	39.57
642.575	39.46
642.764	39.7
642.954	39.68
643.143	39.79
643.333	39.94
643.522	39.7
643.711	39.58
643.901	39.42
644.09	39.51
644.279	39.48
644.469	39.12
644.658	39.17
644.847	38.78
645.036	38.98
645.226	39.03
645.415	38.59
645.604	38.8
645.793	39.09
645.982	39.04
646.171	38.99
646.361	39.07
646.55	39.46
646.739	39.45
646.928	39.84
647.117	39.91
647.306	39.79
647.495	40.05
647.684	40.16
647.873	40.26
648.062	40.38
648.251	39.95
648.44	39.77
648.629	39.52
648.818	39.44
649.007	39.09
649.196	38.84
649.384	38.99
649.573	39.12
649.762	39.15
649.951	38.77
650.14	38.75
650.328	38.99
650.517	38.96
650.706	39.12
650.895	39.19
651.083	39.2
651.272	38.83
651.461	38.94
651.65	38.89
651.838	38.77
652.027	38.73
652.216	38.99
652.404	39.02
652.593	39.21
652.781	38.85
652.97	38.85
653.158	38.66
653.347	39.21
653.535	39.18
653.724	38.91
653.912	38.95
654.101	39.48
654.289	39.13
654.478	39.33
654.666	39.26
654.855	39.44
655.043	39.45
655.231	39.49
655.42	39.47
655.608	39.12
655.796	39.8
655.985	39.92
656.173	39.88
656.361	39.81
656.55	39.9
656.738	40.29
656.926	39.91
657.114	39.87
657.302	40.02
657.491	39.63
657.679	39.6
657.867	39.32
658.055	39.2
658.243	39.23
658.431	39.44
658.619	39.37
658.807	39.01
658.996	39.47
659.184	39.58
659.372	39.58
659.56	39.71
659.748	39.69
659.936	39.49
660.124	39.39
660.311	39.4
660.499	39.18
660.687	39.01
660.875	39.06
661.063	39.14
661.251	38.95
661.439	38.95
661.627	39.16
661.814	39.41
662.002	39.39
662.19	39.59
662.378	39.34
662.565	39.61
662.753	39.57
662.941	40.19
663.129	39.55
663.316	39.64
663.504	39.84
663.692	39.73
663.879	39.91
664.067	40.33
664.254	40.42
664.442	40.65
664.63	40.29
664.817	40.32
665.005	39.93
665.192	40.63
665.38	40.45
665.567	40.73
665.755	40.83
665.942	40.79
666.13	40.87
666.317	40.62
666.504	40.29
666.692	40.57
666.879	40.83
667.067	41.11
667.254	40.93
667.441	41.24
667.629	40.7
667.816	40.57
668.003	40.27
668.19	40.46
668.378	40.67
668.565	41.28
668.752	41.49
668.939	41.11
669.127	40.43
669.314	40.73
669.501	40.42
669.688	40.65
669.875	40.86
670.062	41.12
670.249	40.68
670.436	40.44
670.623	40.18
670.81	40.07
670.997	40.42
671.184	40.87
671.371	40.84
671.558	41.07
671.745	41.23
671.932	40.86
672.119	40.53
672.306	40.57
672.493	40.48
672.68	40.36
672.867	40.75
673.054	40.8
673.24	41.31
673.427	41.15
673.614	41.07
673.801	40.95
673.988	41.42
674.174	41.57
674.361	41.5
674.548	42.1
674.734	41.99
674.921	41.55
675.108	41.53
675.294	41.03
675.481	40.67
675.668	40.52
675.854	40.81
676.041	40.9
676.227	40.99
676.414	41.63
676.601	41.33
676.787	41.59
676.974	41.37
677.16	41.2
677.347	41.18
677.533	41.81
677.719	41.77
677.906	41.2
678.092	40.67
678.279	40.46
678.465	40.28
678.651	40.21
678.838	39.8
679.024	39.99
679.21	40.03
679.397	39.9
679.583	39.41
679.769	39.36
679.955	39.73
680.142	39.77
680.328	40.17
680.514	39.74
680.7	39.64
680.886	40.14
681.073	39.96
681.259	39.92
681.445	39.79
681.631	40.04
681.817	40.25
682.003	39.95
682.189	40.1
682.375	39.86
682.561	40.11
682.747	40.5
682.933	40.16
683.119	40.45
683.305	40.93
683.491	40.8
683.677	40.75
683.863	40.64
684.049	41.1
684.235	40.92
684.42	40.9
684.606	40.83
684.792	40.76
684.978	41.23
685.164	41.25
685.349	41.33
685.535	41.55
685.721	41.37
685.907	41.87
686.092	41.62
686.278	42.18
686.464	42.33
686.649	42.36
686.835	41.76
687.021	41.42
687.206	41.13
687.392	40.58
687.577	40.91
687.763	41.16
687.948	41.1
688.134	41.36
688.319	40.99
688.505	40.87
688.69	40.8
688.876	41.4
689.061	41.06
689.247	41.05
689.432	41.11
689.618	40.93
689.803	40.84
689.988	40.64
690.174	40.56
690.359	40.5
690.544	40.92
690.73	40.95
690.915	40.61
691.1	40.79
691.285	41.14
691.471	41.27
691.656	41.36
691.841	41.43
692.026	41.56
692.211	41.51
692.396	41.74
692.582	41.06
692.767	40.95
692.952	41.12
693.137	41.42
693.322	41.27
693.507	40.98
693.692	41.4
693.877	41.14
694.062	41.07
694.247	41.23
694.432	41.49
694.617	41.85
694.802	42.08
694.987	42.16
695.172	42.04
695.357	42.22
695.541	42.4
695.726	42.28
695.911	42.76
696.096	42.53
696.281	42.22
696.466	42.29
696.65	42.43
696.835	42.24
697.02	42.41
697.204	42.45
697.389	42.2
697.574	42.34
697.759	41.92
697.943	41.72
698.128	41.79
698.312	41.86
698.497	41.58
698.682	41.66
698.866	42.03
699.051	41.88
699.235	41.97
699.42	42.18
699.604	42.04
699.789	42.14
699.973	42.41
700.158	42.24
700.342	42.28
700.527	42.45
700.711	42.29
700.895	42.19
701.08	42.31
701.264	42.34
701.448	42.35
701.633	42.46
701.817	42.75
702.001	42.27
702.186	42.75
702.37	43.09
702.554	43.24
702.738	43.13
702.923	43.37
703.107	43.35
703.291	43.3
703.475	43.33
703.659	43.69
703.843	43.32
704.027	43.62
704.212	43.93
704.396	44.06
704.58	44.13
704.764	43.77
704.948	42.67
705.132	42.88
705.316	42.63
705.5	42.47
705.684	41.71
705.868	41.9
706.052	42.38
706.235	41.91
706.419	41
706.603	40.78
706.787	41.26
706.971	42.25
707.155	42.22
707.339	42.28
707.522	42.1
707.706	42.85
707.89	42.72
708.074	42.47
708.257	42.36
708.441	43
708.625	43.28
708.808	43.15
708.992	42.66
709.176	42.12
709.359	42.43
709.543	42.58
709.727	42.04
709.91	42.02
710.094	42.08
710.277	42.62
710.461	42.78
710.644	42.57
710.828	43.02
711.011	43.18
711.195	43.81
711.378	43.56
711.562	43.81
711.745	43.78
711.928	44.04
712.112	43.69
712.295	43.42
712.478	42.71
712.662	42.57
712.845	41.92
713.028	41.83
713.212	41.41
713.395	41.7
713.578	41.35
713.761	41.83
713.945	41.69
714.128	41.82
714.311	42.02
714.494	41.89
714.677	41.34
714.86	41.89
715.043	42.04
715.227	42.07
715.41	41.69
715.593	41.9
715.776	41.56
715.959	41.56
716.142	41.72
716.325	41.39
716.508	41.61
716.691	42.98
716.874	42.71
717.057	42.67
717.239	43.14
717.422	43.09
717.605	43.57
717.788	43.95
717.971	44.58
718.154	44.68
718.337	44.67
718.519	44.9
718.702	43.89
718.885	44.26
719.068	44.41
719.25	44.85
719.433	45.54
719.616	44.56
719.798	43.96
719.981	43.44
720.164	43.26
720.346	42.63
720.529	41.83
720.712	41.76
720.894	41.51
721.077	41.37
721.259	40.11
721.442	39.92
721.624	40.3
721.807	40.63
721.989	40.24
722.172	40.55
722.354	41.24
722.537	41.97
722.719	42.39
722.901	42.58
723.084	42.76
723.266	43.31
723.448	42.39
723.631	43.4
723.813	43.34
723.995	43.58
724.178	43.33
724.36	43.93
724.542	43.77
724.724	43.74
724.907	43.45
725.089	43.04
725.271	42.6
725.453	43.26
725.635	42.47
725.817	43.17
725.999	43.18
726.181	42.97
726.364	42.35
726.546	42.87
726.728	43.2
726.91	43.43
727.092	43.43
727.274	43.17
727.456	43.28
727.638	43.06
727.819	42.57
728.001	42.44
728.183	41.5
728.365	41.94
728.547	42.15
728.729	41.83
728.911	42.15
729.093	42.16
729.274	43.05
729.456	42.66
729.638	42.66
729.82	42.82
730.001	43.17
730.183	43.54
730.365	43.11
730.546	43.18
730.728	42.77
730.91	42.68
731.091	42.46
731.273	42
731.455	42.43
731.636	42.71
731.818	42.11
731.999	41.82
732.181	41.96
732.362	42.49
732.544	42.12
732.725	42.46
732.907	42.14
733.088	42.42
733.27	42.56
733.451	42.22
733.633	42.49
733.814	42.92
733.995	42.3
734.177	42.87
734.358	42.86
734.539	43.04
734.721	43.14
734.902	43.29
735.083	43.66
735.264	43.95
735.446	43.49
735.627	43.62
735.808	43.58
735.989	43.98
736.17	44.06
736.351	43.98
736.533	43.69
736.714	43.76
736.895	43.25
737.076	43.01
737.257	42.71
737.438	43.56
737.619	42.53
737.8	42.18
737.981	43.02
738.162	42.82
738.343	42.93
738.524	43.48
738.705	44.15
738.886	44.65
739.067	44.52
739.247	44.68
739.428	44.16
739.609	45.01
739.79	45.97
739.971	45.57
740.151	44.93
740.332	44.86
740.513	44.01
740.694	42.81
740.874	42.34
741.055	43.51
741.236	43.21
741.417	44.25
741.597	43.11
741.778	42.05
741.958	42.05
742.139	43.06
742.32	42.69
742.5	43.13
742.681	43.02
742.861	43.66
743.042	42.92
743.222	43.24
743.403	43.16
743.583	44.68
743.764	45.1
743.944	45.53
744.124	45
744.305	46.18
744.485	46.69
744.666	46.88
744.846	46.27
745.026	45.78
745.207	45.59
745.387	44.75
745.567	43.76
745.747	43.97
745.928	43.36
746.108	43.72
746.288	42.84
746.468	42.21
746.648	43.45
746.829	44.52
747.009	44.72
747.189	43.53
747.369	44.64
747.549	44.66
747.729	43.77
747.909	44.36
748.089	44.8
748.269	44.34
748.449	44.53
748.629	44.22
748.809	43.34
748.989	42.99
749.169	44.15
749.349	43.7
749.529	44.05
749.709	44.81
749.889	44.37
750.068	43.63
750.248	43.87
750.428	43.29
750.608	43.09
750.788	43.3
750.967	44.59
751.147	44.9
751.327	44.27
751.507	42.97
751.686	43.24
751.866	43.73
752.046	43.62
752.225	44.17
752.405	44.56
752.585	43.23
752.764	43.62
752.944	42.08
753.123	42.64
753.303	44.36
753.482	45.38
753.662	44.8
753.841	45.06
754.021	46.04
754.2	45.42
754.38	44.94
754.559	45.06
754.739	44.11
754.918	44.97
755.097	43.71
755.277	42.57
755.456	42.04
755.635	42.11
755.815	42.03
755.994	41.24
756.173	41.74
756.352	42.35
756.532	43
756.711	44.27
756.89	44.27
757.069	44.39
757.248	43.63
757.427	44.49
757.607	44.41
757.786	45.04
757.965	45.43
758.144	44.4
758.323	44.32
758.502	44.34
758.681	43.61
758.86	43.14
759.039	43.65
759.218	43.93
759.397	43.19
759.576	43.62
759.755	42.21
759.934	42.25
760.113	42.25
760.291	42.84
760.47	43.68
760.649	43.73
760.828	43.88
761.007	42.7
761.186	43.87
761.364	43.97
761.543	44.02
761.722	44.34
761.901	44.17
762.079	44.91
762.258	44.3
762.437	43.79
762.615	44
762.794	44.2
762.972	44.92
763.151	43.82
763.33	44.01
763.508	43.5
763.687	43.73
763.865	44
764.044	43.94
764.222	43.98
764.401	43.97
764.579	43.54
764.758	43.54
764.936	43.96
765.114	44.15
765.293	44.29
765.471	44.4
765.65	44.19
765.828	43.69
766.006	44.06
766.184	44
766.363	43.67
766.541	44.04
766.719	44.26
766.898	43.81
767.076	44.49
767.254	45.36
767.432	45.68
767.61	45.95
767.788	46.27
767.967	46.25
768.145	46.45
768.323	46.86
768.501	47.11
768.679	46.85
768.857	48.02
769.035	48.5
769.213	47.57
769.391	48.67
769.569	48.46
769.747	48.46
769.925	48.46
770.103	48.47
770.281	48.79
770.459	48.83
770.636	49.31
770.814	47.52
770.992	45.68
771.17	45.95
771.348	43.74
771.525	43.3
771.703	44.3
771.881	43.96
772.059	44.81
772.236	42.61
772.414	42.94
772.592	43.03
772.769	43.51
772.947	44.1
773.125	44.95
773.302	47.66
773.48	47.87
773.657	46.41
773.835	46.23
774.013	45.79
774.19	47.91
774.368	47.44
774.545	47.06
774.723	46.38
774.9	47.78
775.077	46.93
775.255	44.57
775.432	45.34
775.61	45.73
775.787	44.9
775.964	44.16
776.142	43.49
776.319	44.8
776.496	43.98
776.674	45.92
776.851	45.67
777.028	45.2
777.205	45.97
777.382	44.01
777.56	43.72
777.737	42.67
777.914	42.61
778.091	44.63
778.268	43.37
778.445	44.25
778.622	42.98
778.8	43.14
778.977	43.77
779.154	53.33
779.331	55.02
779.508	55.39
779.685	57.44
779.862	59.49
780.038	58.02
780.215	58.69
780.392	57.8
780.569	58.64
780.746	57.82
780.923	57.04
781.1	45.79
781.277	44.8
781.453	44.23
781.63	44.93
781.807	44
781.984	45.03
782.16	44.39
782.337	45.88
782.514	45.29
782.691	45.46
782.867	44.98
783.044	47.64
783.221	48.1
783.397	48.96
783.574	49.7
783.75	49.28
783.927	50.24
784.103	50.95
784.28	48.97
784.456	48.72
784.633	48.12
784.809	49.13
784.986	47.07
785.162	48.2
785.339	47.41
785.515	47.04
785.692	47.55
785.868	45.65
786.044	42.95
786.221	44.79
786.397	45.09
786.573	45.84
786.749	44.78
786.926	45.75
787.102	44.56
787.278	44.37
787.454	43.11
787.631	42.5
787.807	42.18
787.983	42.67
788.159	42.92
788.335	42.57
788.511	43.7
788.687	45.49
788.863	45.78
789.039	47.07
789.216	46.96
789.392	46.03
789.568	45.54
789.744	47.02
789.919	50.02
790.095	47.71
790.271	48.65
790.447	47.16
790.623	46.61
790.799	46.41
790.975	45.08
791.151	44.81
791.327	45.81
791.502	46.2
791.678	44.83
791.854	43.35
792.03	46.37
792.205	45.64
792.381	47.03
792.557	48.11
792.733	47.69
792.908	49.35
793.084	51.16
793.259	51.92
793.435	53.12
793.611	52.6
793.786	52.7
793.962	51.41
794.137	52.07
794.313	50.35
794.488	48.28
794.664	47.19
794.839	46.51
795.015	45.89
795.19	45.01
795.366	46.59
795.541	48.01
795.716	48.26
795.892	46.18
796.067	45.53
796.242	45.51
796.418	46.3
796.593	47.94
796.768	45.98
796.944	45.22
797.119	46.43
797.294	43.36
797.469	42.57
797.644	42.78
797.82	44.87
797.995	43.2
798.17	44.85
798.345	45.48
798.52	44.61
798.695	47.1
798.87	48.98
799.045	48.41
799.22	50.5
799.395	51.5
799.57	51.33
799.745	52.12
799.92	51
800.095	49.73
800.27	46.63
800.445	46.19
800.62	44.7
800.795	42.24
800.97	40.84
801.145	38.09
801.319	36.44
801.494	38.12
801.669	38.52
801.844	42.12
802.018	42.34
802.193	46.21
802.368	47.74
802.543	47.46
802.717	47.59
802.892	50.19
803.067	51.51
803.241	53.39
803.416	52.39
803.59	50.9
803.765	50.65
803.94	50.58
804.114	48.78
804.289	47.13
804.463	47.91
804.638	48.44
804.812	48.06
804.986	49.56
805.161	49.64
805.335	46.16
805.51	45.85
805.684	45.84
805.858	44.74
806.033	45.25
806.207	43.47
806.381	42.45
806.556	43.17
806.73	43.12
806.904	42.01
807.078	43.32
807.253	44.91
807.427	45.57
807.601	45.29
807.775	46.62
807.949	46.05
808.123	47.03
808.298	48.01
808.472	46.69
808.646	44.46
808.82	46.07
808.994	43.77
809.168	43.57
809.342	43.1
809.516	43.15
809.69	43.3
809.864	43.63
810.038	45.51
810.212	44.99
810.385	47.33
810.559	48.77
810.733	45.13
810.907	44.49
811.081	45
811.255	42.14
811.428	43.66
811.602	43.62
811.776	43.56
811.95	45.26
812.123	46.14
812.297	43.48
812.471	42.14
812.644	44.18
812.818	46.38
812.992	45.75
813.165	48.33
813.339	47.01
813.512	47.19
813.686	44.36
813.86	42.42
814.033	41.59
814.207	43.59
814.38	46.24
814.554	46.34
814.727	45.93
814.9	50.19
815.074	49.82
815.247	50.23
815.421	47.72
815.594	48.32
815.767	49.64
815.941	50.73
816.114	53.41
816.287	54.58
816.46	57.09
816.634	56.87
816.807	51.85
816.98	54.7
817.153	55.04
817.327	57.59
817.5	59.14
817.673	57.76
817.846	57.22
818.019	55.96
818.192	57.6
818.365	53.29
818.538	53.3
818.711	53.72
818.884	51.27
819.057	53.14
819.23	52.77
819.403	53.78
819.576	53.56
819.749	52.94
819.922	52.28
820.095	48.12
820.268	47.97
820.441	47.02
820.614	47.36
820.786	46.74
820.959	45.3
821.132	45.98
821.305	45.48
821.477	45.66
821.65	45.46
821.823	44.37
821.996	44.48
822.168	44.21
822.341	43.8
822.514	43.42
822.686	43
822.859	42.35
823.031	41.71
823.204	41.49
823.376	40.78
823.549	40.17
823.722	39.94
823.894	40.13
824.067	40.32
824.239	40.35
824.411	40.31
824.584	40.64
824.756	40.59
824.929	40.64
825.101	41.02
825.273	41.37
825.446	42.14
825.618	42.45
825.79	41.83
825.963	41.59
826.135	41.31
826.307	41.73
826.479	42.33
826.652	42.7
826.824	42.36
826.996	41.83
827.168	42.32
827.34	41.84
827.512	42.19
827.684	42.96
827.856	43.14
828.029	43.94
828.201	43.7
828.373	43.48
828.545	43.97
828.717	45.15
828.889	44.42
829.061	44.49
829.232	45.52
829.404	46.06
829.576	45.97
829.748	46.67
829.92	45.58
830.092	46.27
830.264	46.51
830.436	45.71
830.607	44.71
830.779	45.31
830.951	45.4
831.123	43.38
831.294	41.54
831.466	42.04
831.638	42.34
831.809	44.74
831.981	44.65
832.153	42.28
832.324	44.16
832.496	45.88
832.667	48.11
832.839	47.28
833.011	49.12
833.182	49.98
833.354	50.28
833.525	48.93
833.697	46.89
833.868	46.59
834.039	49.36
834.211	48.04
834.382	46.54
834.554	45.9
834.725	45.15
834.896	45.2
835.068	44.46
835.239	42.34
835.41	41.61
835.581	42.67
835.753	41.56
835.924	41.02
836.095	40.3
836.266	40.38
836.438	40.09
836.609	40.73
836.78	41.63
836.951	42.52
837.122	43.12
837.293	44.05
837.464	42.3
837.635	44.28
837.806	45.87
837.977	47.7
838.148	47.25
838.319	46.64
838.49	46.4
838.661	47.35
838.832	48.93
839.003	50.26
839.174	54.35
839.345	60.09
839.516	59.89
839.687	57.94
839.857	55.78
840.028	55.53
840.199	55.26
840.37	59.59
840.54	54.3
840.711	51.39
840.882	52.23
841.053	49.27
841.223	46.35
841.394	41.43
841.564	43.29
841.735	45.69
841.906	52.83
842.076	54.55
842.247	53.25
842.417	57.6
842.588	60.89
842.758	60.94
842.929	59.26
843.099	56.83
843.27	64.46
843.44	62.29
843.611	62.33
843.781	54.58
843.951	51.87
844.122	48.68
844.292	48.15
844.462	43.97
844.633	40.46
844.803	41.54
844.973	36.72
845.144	31.36
845.314	27.94
845.484	27.65
845.654	29.74
845.824	37.5
845.995	33.44
846.165	29.34
846.335	35.46
846.505	39.33
846.675	38.54
846.845	51.21
847.015	45.49
847.185	50.49
847.355	49.26
847.525	52.7
847.695	51.34
847.865	62.05
848.035	60.97
848.205	51.8
848.375	55.9
848.545	56.98
848.715	46.2
848.884	56.25
849.054	48.87
849.224	46.61
849.394	48.32
849.564	52.35
849.733	52.01
849.903	55.38
850.073	57.78
850.243	54.08
850.412	55.21
850.582	61.54
850.752	57.1
850.921	61.26
851.091	68.11
851.26	60.23
851.43	58.76
851.599	58.53
851.769	59.35
851.939	57.17
852.108	61.35
852.278	67.27
852.447	67.29
852.616	70.72
852.786	74.1
852.955	72.45
853.125	76.46
853.294	75.42
853.463	74.07
853.633	68.68
853.802	81.13
853.971	78.19
854.141	72.04
854.31	70.64
854.479	68.1
854.648	61.84
854.818	55.63
854.987	59.65
855.156	53.13
855.325	49.59
855.494	51.03
855.663	42.04
855.832	37.59
856.001	36.72
856.171	43.2
856.34	47.79
856.509	48.96
856.678	56.9
856.847	57.38
857.016	67.05
857.185	71.71
857.353	71.16
857.522	69.43
857.691	71.02
857.86	64.63
858.029	58.5
858.198	56
858.367	55.86
858.535	45.66
858.704	44.03
858.873	41.65
859.042	37.16
859.21	41.84
859.379	43.7
859.548	40.69
859.717	45.74
859.885	52.5
860.054	54.32
860.222	46.64
860.391	57.34
860.56	56.92
860.728	51.77
860.897	55.5
861.065	55.64
861.234	56.67
861.402	54.63
861.571	54.72
861.739	50.52
861.908	48.85
862.076	52.09
862.244	47.73
862.413	46.01
862.581	41.7
862.749	40.83
862.918	46.81
863.086	50.99
863.254	53.18
863.423	53.38
863.591	53.62
863.759	57.5
863.927	60.25
864.096	62.17
864.264	61.77
864.432	73.42
864.6	74.3
864.768	75.56
864.936	70.05
865.104	75.89
865.272	81.45
865.44	79.5
865.608	73.23
865.776	72.59
865.944	71.36
866.112	75.1
866.28	79.03
866.448	87.06
866.616	83.65
866.784	72.34
866.952	68.53
867.12	58.58
867.288	68.2
867.455	72.59
867.623	67.42
867.791	66.71
867.959	67.42
868.127	62.59
868.294	60.51
868.462	62.16
868.63	69.54
868.797	70.19
868.965	77.65
869.133	57.02
869.3	57.66
869.468	61.35
869.636	65.44
869.803	63.35
869.971	66.75
870.138	57.54
870.306	61.5
870.473	59.67
870.641	60.96
870.808	63.28
870.975	78.47
871.143	74.69
871.31	81.94
871.478	87.9
871.645	89.13
871.812	93.97
871.98	105.23
872.147	87.99
872.314	105.02
872.482	100.22
872.649	99.62
872.816	99.43
872.983	98.53
873.15	83.03
873.318	75.14
873.485	75.51
873.652	67.44
873.819	69.97
873.986	64.48
874.153	58.17
874.32	57.21
874.487	51.03
874.654	35.87
874.821	34.66
874.988	35.78
875.155	34.97
875.322	29.35
875.489	22.63
875.656	19.54
875.823	34.64
875.99	39.55
876.157	45.16
876.324	49.93
876.49	52.52
876.657	61.21
876.824	73.84
876.991	73.02
877.157	77.22
877.324	87.41
877.491	85.57
877.658	87.76
877.824	92.07
877.991	85.23
878.157	84.13
878.324	100.96
878.491	94.18
878.657	83.66
878.824	73.8
878.99	71.28
879.157	64.89
879.323	60.28
879.49	54.48
879.656	54.76
879.823	49.88
879.989	50.58
880.156	41.5
880.322	39.61
880.488	44.03
880.655	51.29
880.821	58.53
880.987	59.07
881.154	61.14
881.32	71.06
881.486	61.46
881.652	63.3
881.819	60.07
881.985	56.93
882.151	56.44
882.317	52.64
882.483	52.88
882.649	48.51
882.816	47.95
882.982	48.11
883.148	44.2
883.314	45.71
883.48	45.21
883.646	45.56
883.812	46.56
883.978	46.89
884.144	47.3
884.31	46.99
884.476	46.65
884.642	45.77
884.807	43.98
884.973	44.82
885.139	44.17
885.305	43.68
885.471	43.83
885.637	43.47
885.802	42.34
885.968	43.04
886.134	42.63
886.3	44.65
886.465	46.53
886.631	47.7
886.797	49.23
886.962	51.02
887.128	53.7
887.293	53.79
887.459	58.04
887.625	59.9
887.79	64.6
887.956	64.34
888.121	66.03
888.287	65.31
888.452	66.83
888.618	65.4
888.783	66.27
