Data from LC_245_Reflection_3.txt Node
Date: Thu Nov 19 22:44:00 EST 2015
User: robert
Spectrometer: USB4E03001
Autoset integration time: false
Trigger mode: 4
Integration Time (sec): 1.000000E-1
Scans to average: 15
Electric dark correction enabled: true
Nonlinearity correction enabled: false
Boxcar width: 5
Stray light correction enabled: false
XAxis mode: Wavelengths
Stop averaging: false
Number of Pixels in Spectrum: 3648
>>>>>Begin Spectral Data<<<<<
177.566	-75.17
177.785	-17.93
178.005	6.9
178.225	-7.89
178.445	2.97
178.665	7.45
178.885	41.66
179.105	239.88
179.324	-1.5
179.544	-44.7
179.764	-23.47
179.984	13.22
180.204	-73.24
180.423	-13.05
180.643	-40.02
180.863	-38.63
181.083	-102.08
181.302	-75.82
181.522	-15.47
181.742	14.59
181.961	24.24
182.181	38.4
182.401	45.54
182.621	81.03
182.84	78.6
183.06	115.22
183.279	176.23
183.499	115.97
183.719	271.26
183.938	48.15
184.158	633.4
184.377	756.75
184.597	-490.94
184.816	5678.3
185.036	461.93
185.256	-5525
185.475	-267.45
185.695	-187.77
185.914	-194.77
186.134	-372.15
186.353	-158.88
186.572	-115.82
186.792	-181.23
187.011	997.19
187.231	777.34
187.45	97.2
187.67	23.35
187.889	42.22
188.108	56.88
188.328	58.51
188.547	36.81
188.766	135.72
188.986	46.24
189.205	1300
189.424	122.89
189.644	136.58
189.863	90.21
190.082	74.53
190.302	95.75
190.521	106.32
190.74	128.41
190.959	99.13
191.178	90.01
191.398	61
191.617	49.81
191.836	145.59
192.055	70.1
192.274	44.03
192.494	-9.92
192.713	32.22
192.932	33.22
193.151	19.46
193.37	7.34
193.589	6.97
193.808	26.55
194.027	30.71
194.246	13.78
194.465	3.83
194.685	5.93
194.904	3.32
195.123	-8.04
195.342	-67.26
195.561	-68.19
195.78	-9.14
195.999	-5.37
196.218	-21.28
196.436	-18.9
196.655	-42.76
196.874	-33.6
197.093	-93.68
197.312	-148.25
197.531	-141.14
197.75	-143.4
197.969	-60.5
198.188	618.01
198.407	197.57
198.625	265.81
198.844	219.19
199.063	609.91
199.282	129.62
199.501	93.92
199.719	167.17
199.938	151.53
200.157	362.15
200.376	292.9
200.594	-475.89
200.813	-384.55
201.032	-111.76
201.251	-205.62
201.469	-364.68
201.688	-63.32
201.907	-61.3
202.125	-72.31
202.344	46.29
202.563	20.02
202.781	-0.99
203	-48.49
203.218	-24.78
203.437	-77.86
203.656	-24.04
203.874	35.14
204.093	-44.41
204.311	-41.18
204.53	-33.93
204.748	-53.99
204.967	-39.89
205.185	-98.29
205.404	-157.95
205.622	-152.11
205.841	-36.49
206.059	-107.65
206.278	-124.54
206.496	-78.48
206.715	16.6
206.933	-23.92
207.151	21.06
207.37	23.55
207.588	-5.53
207.806	53.65
208.025	36.65
208.243	-144.01
208.461	-149.27
208.68	-78.25
208.898	-9.06
209.116	-45.41
209.335	-34.6
209.553	-333.66
209.771	349.58
209.989	110.86
210.208	227.06
210.426	284.78
210.644	36.39
210.862	30.69
211.081	28.96
211.299	49.49
211.517	55.01
211.735	44.24
211.953	29.89
212.171	10.7
212.39	23.45
212.608	33.73
212.826	41.51
213.044	69.19
213.262	36.54
213.48	-1.61
213.698	-24.49
213.916	-59.25
214.134	-100.04
214.352	-131.94
214.57	-105.78
214.788	73.25
215.006	89.63
215.224	-30.9
215.442	-287.42
215.66	6.64
215.878	-85.47
216.096	-52.75
216.314	-68.06
216.532	181.63
216.75	205.03
216.968	100.87
217.185	835.4
217.403	1325.54
217.621	2271.08
217.839	-216.73
218.057	-151.07
218.275	-28.41
218.492	-43.88
218.71	-33.51
218.928	-82.19
219.146	-116.51
219.363	-35.97
219.581	-64.46
219.799	-76.24
220.017	-74.06
220.234	-51.46
220.452	-15.61
220.67	-38.68
220.887	-33.72
221.105	-20.07
221.323	1.95
221.54	31.69
221.758	26.87
221.976	28.6
222.193	20.29
222.411	11.36
222.629	3.43
222.846	-12.61
223.064	-0.62
223.281	-4.75
223.499	-26.62
223.716	-22.42
223.934	-41.14
224.151	-31.68
224.369	-18.96
224.586	-9.45
224.804	0.96
225.021	6.05
225.239	0.68
225.456	-19.01
225.674	-18.7
225.891	-11.41
226.108	-9.55
226.326	-4.76
226.543	-17.55
226.76	-35.69
226.978	-29.87
227.195	-27.04
227.413	-25.6
227.63	-17.83
227.847	-9.3
228.064	-8.79
228.282	-4.85
228.499	-3.75
228.716	-1.96
228.934	0.19
229.151	5.09
229.368	4.32
229.585	3.13
229.802	3.8
230.02	4.15
230.237	5.01
230.454	6.81
230.671	4.03
230.888	2.52
231.105	-0.57
231.323	0.65
231.54	-5.17
231.757	-7.12
231.974	-4.78
232.191	-3.73
232.408	-5.1
232.625	-8.11
232.842	-8.33
233.059	0.52
233.276	6.5
233.493	8.68
233.71	6.89
233.927	10.2
234.144	8.55
234.361	-1.06
234.578	0.05
234.795	0.57
235.012	2.38
235.229	-3.85
235.446	-4.75
235.663	-12.8
235.879	-10.98
236.096	-15.02
236.313	-21.37
236.53	-11.69
236.747	-7.07
236.964	-7.19
237.181	-10.14
237.397	-12.91
237.614	-6.89
237.831	-6.39
238.048	0.17
238.264	0.38
238.481	4.27
238.698	9.79
238.915	11.11
239.131	13.98
239.348	11.91
239.565	15.78
239.781	15.27
239.998	12.64
240.215	8.85
240.431	6.72
240.648	7.04
240.865	6.13
241.081	6.01
241.298	4.41
241.514	4.01
241.731	4.36
241.947	3.64
242.164	3.59
242.38	2.98
242.597	3.8
242.814	3.96
243.03	2.92
243.246	3.32
243.463	1.16
243.679	0.64
243.896	1.04
244.112	0.22
244.329	-1.4
244.545	-0.63
244.762	-0.06
244.978	-0.35
245.194	-1.07
245.411	0.98
245.627	2.53
245.843	4.86
246.06	5.92
246.276	5.09
246.492	5.39
246.709	6.44
246.925	5.53
247.141	5.41
247.357	5.73
247.574	6.75
247.79	6.85
248.006	6.58
248.222	5.93
248.439	5.47
248.655	5.28
248.871	5.36
249.087	4.95
249.303	5.36
249.519	5.35
249.736	5.21
249.952	3.99
250.168	2.44
250.384	0.86
250.6	1.89
250.816	0.85
251.032	1.39
251.248	2.65
251.464	3.03
251.68	3.18
251.896	4.75
252.112	3.98
252.328	3.97
252.544	3.53
252.76	4.81
252.976	5.27
253.192	6.64
253.408	7.13
253.624	7.33
253.84	6.71
254.056	5.87
254.272	4.62
254.487	4.97
254.703	6.29
254.919	5.34
255.135	5.19
255.351	4.57
255.567	5.48
255.782	4.13
255.998	3.89
256.214	3
256.43	1.98
256.646	4.57
256.861	5.97
257.077	5.08
257.293	8.12
257.508	9.55
257.724	10.09
257.94	9
258.155	9.58
258.371	9.34
258.587	9.2
258.802	9.26
259.018	8.1
259.234	7.58
259.449	7.19
259.665	6.44
259.88	5.3
260.096	4.98
260.312	4.03
260.527	3.47
260.743	3.23
260.958	3.17
261.174	3.97
261.389	3.54
261.605	3.53
261.82	2.8
262.036	2.04
262.251	1.54
262.466	1.47
262.682	1.64
262.897	1.93
263.113	0.4
263.328	0.69
263.543	0.03
263.759	0.13
263.974	-0.32
264.189	-0.31
264.405	-0.16
264.62	0.61
264.835	1.18
265.051	1.54
265.266	0.97
265.481	1.39
265.696	1.19
265.912	-0.47
266.127	0.57
266.342	-0.28
266.557	1.06
266.773	2.51
266.988	2.6
267.203	1.61
267.418	2.38
267.633	2.88
267.848	2.82
268.064	3.2
268.279	3.38
268.494	2.51
268.709	2.69
268.924	1.24
269.139	1.55
269.354	1.37
269.569	0.3
269.784	-1.48
269.999	-1.26
270.214	-0.67
270.429	-1.5
270.644	-0.17
270.859	0.2
271.074	0.09
271.289	1.17
271.504	0.17
271.719	0.61
271.934	1.36
272.149	2.33
272.363	1.83
272.578	2.3
272.793	2.5
273.008	1.6
273.223	1.58
273.438	2.4
273.653	2.93
273.867	3.41
274.082	3.33
274.297	3.24
274.512	2.91
274.726	3.8
274.941	3.23
275.156	2.28
275.371	2.59
275.585	2.55
275.8	1.46
276.015	0.47
276.229	0.34
276.444	-0.04
276.659	0.18
276.873	0.27
277.088	0.36
277.302	0.74
277.517	2.14
277.732	3.44
277.946	3.2
278.161	3.75
278.375	2.84
278.59	2.68
278.804	2.65
279.019	2.76
279.233	4.31
279.448	4.36
279.662	5.09
279.877	4.43
280.091	3.04
280.306	3.2
280.52	3.11
280.735	4.14
280.949	4.15
281.163	4.51
281.378	4.68
281.592	5.08
281.806	5.45
282.021	5.1
282.235	4.94
282.449	5.15
282.664	5.6
282.878	5.48
283.092	5.88
283.307	6.65
283.521	6.09
283.735	5.98
283.949	5.31
284.164	4.67
284.378	4.07
284.592	4.39
284.806	4.58
285.02	4.87
285.234	5.36
285.449	5.12
285.663	4.9
285.877	5.56
286.091	5.4
286.305	4.82
286.519	5.07
286.733	5.08
286.947	5.51
287.161	4.66
287.375	4.04
287.589	2.62
287.803	3.04
288.017	2.69
288.231	2.06
288.445	2.04
288.659	2.39
288.873	1.41
289.087	0.61
289.301	1.3
289.515	2.24
289.729	2.11
289.943	2.91
290.157	3.58
290.371	3.98
290.584	3.73
290.798	3.68
291.012	3.45
291.226	4.09
291.44	6.21
291.654	5.31
291.867	5.17
292.081	4.99
292.295	4.68
292.509	3.05
292.722	2.89
292.936	2.83
293.15	2.8
293.364	3.83
293.577	2.97
293.791	1.61
294.005	1.79
294.218	2.48
294.432	2.23
294.645	2.34
294.859	2.55
295.073	1.71
295.286	2.7
295.5	2.74
295.713	2.1
295.927	3.02
296.14	2.77
296.354	2.1
296.568	2.18
296.781	2.59
296.994	2.85
297.208	3.44
297.421	4.36
297.635	4.41
297.848	4.28
298.062	4.5
298.275	4.39
298.489	4.8
298.702	5.4
298.915	4.76
299.129	5.4
299.342	5.71
299.555	4.99
299.769	3.76
299.982	3.21
300.195	3.88
300.409	3.29
300.622	2.44
300.835	1.76
301.048	2.03
301.262	1.88
301.475	0.64
301.688	-0.13
301.901	0.25
302.115	1.03
302.328	1.32
302.541	0.78
302.754	1.49
302.967	2.29
303.18	2.72
303.393	2.38
303.607	2.52
303.82	3.24
304.033	3.68
304.246	4.5
304.459	4.03
304.672	4.15
304.885	4.53
305.098	4.25
305.311	3.87
305.524	3.67
305.737	3.34
305.95	3.44
306.163	2.27
306.376	2.81
306.589	2.42
306.802	2.55
307.015	2.09
307.228	2.06
307.44	2.71
307.653	3.49
307.866	4.39
308.079	5.04
308.292	5.6
308.505	6.97
308.718	6.08
308.93	5.88
309.143	6.19
309.356	5.86
309.569	5.37
309.781	5.36
309.994	4.46
310.207	3.91
310.42	4.53
310.632	4.18
310.845	3.84
311.058	5.32
311.27	4.51
311.483	4.17
311.696	4.26
311.908	4.6
312.121	3.87
312.333	4.74
312.546	4.04
312.759	3.15
312.971	3.37
313.184	3.52
313.396	2.81
313.609	3.98
313.821	5.17
314.034	6.54
314.246	6.56
314.459	7.25
314.671	6.93
314.884	8.06
315.096	8.64
315.309	8.81
315.521	8.81
315.733	8.93
315.946	8.99
316.158	8.6
316.371	7.6
316.583	7.94
316.795	6.61
317.008	6.36
317.22	5.8
317.432	5.37
317.644	5.3
317.857	3.67
318.069	2.37
318.281	1.42
318.494	1.56
318.706	1.16
318.918	0.73
319.13	2.17
319.342	1.96
319.555	2.36
319.767	2.54
319.979	2.06
320.191	3.16
320.403	5.2
320.615	5.4
320.827	3.77
321.039	2.96
321.252	2.94
321.464	3.42
321.676	3.58
321.888	3.19
322.1	2.46
322.312	2.74
322.524	4.72
322.736	3.22
322.948	4.5
323.16	5.68
323.372	6.92
323.584	7.02
323.796	6.78
324.007	6.71
324.219	7.92
324.431	8.3
324.643	8.57
324.855	7.43
325.067	8.25
325.279	7.76
325.491	8.37
325.702	9.08
325.914	9.33
326.126	10.4
326.338	11.29
326.55	10.56
326.761	10.82
326.973	11.15
327.185	11.07
327.396	10.61
327.608	11.26
327.82	10.85
328.032	10.83
328.243	10.99
328.455	9.94
328.666	10.2
328.878	11.19
329.09	12.49
329.301	13.42
329.513	14.41
329.725	14.42
329.936	13.65
330.148	13.77
330.359	14.24
330.571	14.94
330.782	15.6
330.994	15.87
331.205	15.45
331.417	15.18
331.628	14.71
331.84	14.5
332.051	16.31
332.262	17.78
332.474	18.55
332.685	18.92
332.897	19.58
333.108	18.56
333.319	18.5
333.531	18.37
333.742	18.46
333.953	18.83
334.165	19.43
334.376	18.99
334.587	18.94
334.799	18.81
335.01	18.09
335.221	17.75
335.432	19.19
335.644	18.55
335.855	19
336.066	19.82
336.277	19.34
336.488	18.57
336.7	17.73
336.911	17.03
337.122	17.84
337.333	18.05
337.544	17.5
337.755	16.57
337.966	16.58
338.177	16.42
338.388	15.99
338.599	16.31
338.811	17.5
339.022	18.34
339.233	18.89
339.444	19.44
339.655	19.45
339.866	19.95
340.076	20.58
340.287	21.76
340.498	22.57
340.709	23.04
340.92	23.06
341.131	23.07
341.342	22.69
341.553	22.9
341.764	21.76
341.975	22.07
342.185	22.44
342.396	22.12
342.607	21.82
342.818	20.52
343.029	20.5
343.239	20.98
343.45	20.8
343.661	21.22
343.872	20.99
344.082	21.41
344.293	21.44
344.504	21.85
344.714	22.39
344.925	22.78
345.136	24.14
345.346	21.98
345.557	21.75
345.768	21.79
345.978	21.99
346.189	21.65
346.399	21.6
346.61	21.21
346.821	20.62
347.031	20.47
347.242	20.68
347.452	20.38
347.663	22.09
347.873	22.49
348.084	22.75
348.294	22.74
348.504	23.05
348.715	23.32
348.925	23.79
349.136	23.96
349.346	23.32
349.557	23
349.767	23.03
349.977	23.7
350.188	22.59
350.398	21.79
350.608	21.22
350.819	21.36
351.029	21.06
351.239	21.59
351.449	20.83
351.66	21.39
351.87	20.95
352.08	20.23
352.29	20.02
352.501	20.62
352.711	21.54
352.921	22.5
353.131	21.78
353.341	21.11
353.552	20.56
353.762	20.77
353.972	21.16
354.182	21.14
354.392	21.96
354.602	21.58
354.812	22.05
355.022	20.94
355.232	20.92
355.442	21.39
355.652	21.6
355.862	21.88
356.072	22.54
356.282	22.79
356.492	22.71
356.702	22.65
356.912	22.32
357.122	22.12
357.332	23.11
357.542	22.47
357.752	22.3
357.962	23.15
358.171	23.22
358.381	23
358.591	22.46
358.801	22.14
359.011	21.95
359.221	22.27
359.43	21.87
359.64	21.24
359.85	21.69
360.06	22.34
360.269	22.08
360.479	21.54
360.689	21.72
360.899	22.12
361.108	22.71
361.318	22.74
361.528	22.53
361.737	22.78
361.947	22.74
362.156	22.54
362.366	22.49
362.576	22.24
362.785	22.3
362.995	22.02
363.204	21.87
363.414	21.31
363.623	21.1
363.833	20.94
364.042	21.08
364.252	21.69
364.461	21.41
364.671	20.96
364.88	20.92
365.09	20.98
365.299	21.1
365.509	21.01
365.718	20.98
365.927	20.98
366.137	21.33
366.346	21.12
366.555	20.42
366.765	20.64
366.974	20.6
367.183	20.72
367.393	20.4
367.602	20.54
367.811	20.34
368.021	20.88
368.23	20.21
368.439	19.58
368.648	19.48
368.857	20.19
369.067	20.02
369.276	20.73
369.485	20.32
369.694	20.63
369.903	20.67
370.112	20.3
370.321	19.93
370.531	20.57
370.74	20.95
370.949	20.55
371.158	19.98
371.367	20.21
371.576	19.4
371.785	19.54
371.994	18.98
372.203	18.94
372.412	19.64
372.621	19.68
372.83	19.82
373.039	19.81
373.248	20.2
373.457	20.51
373.666	20.08
373.874	20.31
374.083	20.52
374.292	20.92
374.501	20.82
374.71	20.58
374.919	20.56
375.128	20.59
375.336	20.51
375.545	20.62
375.754	19.82
375.963	19.79
376.171	19.68
376.38	19.24
376.589	19.17
376.798	18.9
377.006	18.88
377.215	19.15
377.424	18.69
377.632	19.23
377.841	19.03
378.05	19.64
378.258	19.71
378.467	19.48
378.675	19.47
378.884	19.81
379.093	19.88
379.301	19.71
379.51	19.49
379.718	20
379.927	19.57
380.135	19.8
380.344	19.39
380.552	19.73
380.761	19.79
380.969	19.98
381.177	19.07
381.386	19.11
381.594	19.34
381.803	18.98
382.011	18.66
382.219	18.59
382.428	18.43
382.636	18.24
382.845	18.03
383.053	17.78
383.261	17.65
383.469	18.06
383.678	17.93
383.886	17.51
384.094	17.79
384.302	17.81
384.511	17.62
384.719	17.48
384.927	17.26
385.135	17.42
385.343	17.68
385.552	18.04
385.76	18.05
385.968	18.01
386.176	18.15
386.384	18.18
386.592	17.94
386.8	18.19
387.008	17.82
387.216	18.11
387.424	17.71
387.633	17.71
387.841	17.48
388.049	17.5
388.257	17.36
388.465	17.22
388.672	17.01
388.88	17.07
389.088	17
389.296	17.28
389.504	17.5
389.712	17.35
389.92	17.34
390.128	17.06
390.336	17.19
390.544	17.32
390.751	17.21
390.959	17.12
391.167	17.23
391.375	17.03
391.583	16.64
391.79	16.29
391.998	16.62
392.206	16.57
392.414	16.53
392.621	16.3
392.829	16.14
393.037	16.34
393.244	16.47
393.452	16.17
393.66	15.96
393.867	16.22
394.075	16.29
394.283	15.78
394.49	15.69
394.698	15.66
394.905	15.51
395.113	15.61
395.32	15.63
395.528	15.59
395.735	16.02
395.943	16.17
396.15	15.98
396.358	15.95
396.565	16.2
396.773	16.08
396.98	16.15
397.188	16.37
397.395	16.27
397.602	15.97
397.81	15.77
398.017	15.36
398.225	15.32
398.432	15.32
398.639	15.1
398.847	15.18
399.054	15.27
399.261	15.41
399.468	15.56
399.676	15.56
399.883	15.39
400.09	15.47
400.297	15.55
400.505	15.74
400.712	16.06
400.919	16.3
401.126	16.46
401.333	16.6
401.54	16.43
401.748	16.21
401.955	16.33
402.162	16.35
402.369	16.31
402.576	16.36
402.783	16.11
402.99	15.99
403.197	15.81
403.404	15.66
403.611	15.72
403.818	15.86
404.025	15.84
404.232	15.67
404.439	16.03
404.646	16.08
404.853	16.16
405.06	16.24
405.267	16.29
405.474	16.49
405.681	16.38
405.887	16.39
406.094	16.41
406.301	16.66
406.508	16.96
406.715	16.73
406.922	16.44
407.128	16.1
407.335	15.92
407.542	15.99
407.749	15.72
407.955	15.65
408.162	15.61
408.369	15.55
408.575	15.27
408.782	14.95
408.989	14.78
409.195	14.99
409.402	15.38
409.609	15.83
409.815	15.58
410.022	15.84
410.228	16.15
410.435	16.03
410.642	15.72
410.848	15.75
411.055	15.56
411.261	15.91
411.468	15.69
411.674	15.74
411.881	15.49
412.087	15.5
412.294	15.35
412.5	15.17
412.706	15.04
412.913	15.28
413.119	15.3
413.326	15.36
413.532	15.34
413.738	15.51
413.945	15.15
414.151	15.23
414.357	15.26
414.564	15.38
414.77	15.17
414.976	15.27
415.182	15.32
415.389	15.13
415.595	15.28
415.801	15.16
416.007	15.17
416.214	15.36
416.42	15.04
416.626	14.71
416.832	14.91
417.038	15
417.244	14.84
417.45	14.86
417.657	15.07
417.863	15.17
418.069	15.12
418.275	15.15
418.481	15.19
418.687	15.44
418.893	15.82
419.099	15.63
419.305	15.77
419.511	15.87
419.717	15.82
419.923	15.74
420.129	15.57
420.335	15.63
420.541	15.76
420.746	15.71
420.952	15.62
421.158	15.48
421.364	15.37
421.57	15.27
421.776	15.34
421.982	15.36
422.187	15.35
422.393	15.32
422.599	15.22
422.805	15.06
423.01	14.96
423.216	14.85
423.422	14.85
423.628	14.98
423.833	14.91
424.039	14.8
424.245	14.73
424.45	14.85
424.656	14.85
424.862	14.86
425.067	14.76
425.273	14.85
425.478	14.95
425.684	14.97
425.889	15.06
426.095	15.08
426.301	15
426.506	15.05
426.712	14.84
426.917	15.09
427.123	15.15
427.328	15.14
427.533	15.07
427.739	15.18
427.944	15.17
428.15	15
428.355	14.81
428.561	14.83
428.766	14.8
428.971	14.9
429.177	14.68
429.382	14.82
429.587	14.97
429.793	15.02
429.998	14.84
430.203	14.68
430.408	14.58
430.614	14.85
430.819	14.92
431.024	14.86
431.229	14.79
431.434	14.68
431.64	14.53
431.845	14.67
432.05	14.56
432.255	14.55
432.46	14.67
432.665	14.82
432.87	14.83
433.076	14.83
433.281	14.9
433.486	14.98
433.691	15.1
433.896	14.97
434.101	14.86
434.306	14.87
434.511	14.95
434.716	15.01
434.921	14.85
435.126	14.93
435.331	14.96
435.535	14.88
435.74	14.77
435.945	14.84
436.15	14.95
436.355	15.14
436.56	15.15
436.765	15.14
436.97	15.01
437.174	15.17
437.379	15
437.584	14.9
437.789	15.02
437.993	15.07
438.198	14.98
438.403	14.84
438.608	14.81
438.812	14.79
439.017	14.74
439.222	14.9
439.426	14.75
439.631	14.77
439.836	14.99
440.04	14.97
440.245	15.01
440.45	14.96
440.654	15.11
440.859	15.02
441.063	15.14
441.268	15.11
441.472	14.95
441.677	15.05
441.881	15.13
442.086	14.81
442.29	14.8
442.495	14.66
442.699	14.74
442.904	14.7
443.108	14.79
443.312	14.7
443.517	14.8
443.721	15.02
443.925	15.04
444.13	14.92
444.334	15.1
444.538	15.1
444.743	15.18
444.947	15.16
445.151	15.12
445.356	15.11
445.56	15.13
445.764	15.1
445.968	15.05
446.173	15.07
446.377	15.1
446.581	15.1
446.785	14.98
446.989	14.99
447.193	14.93
447.398	14.9
447.602	14.89
447.806	14.93
448.01	14.81
448.214	14.68
448.418	14.61
448.622	14.64
448.826	14.68
449.03	14.78
449.234	14.71
449.438	14.67
449.642	14.76
449.846	14.7
450.05	14.58
450.254	14.71
450.458	14.6
450.662	14.43
450.866	14.35
451.069	14.41
451.273	14.33
451.477	14.42
451.681	14.39
451.885	14.3
452.089	14.48
452.292	14.46
452.496	14.45
452.7	14.55
452.904	14.63
453.107	14.75
453.311	14.78
453.515	14.84
453.719	14.78
453.922	14.9
454.126	14.92
454.33	14.9
454.533	14.86
454.737	14.8
454.94	14.9
455.144	15.14
455.348	15.04
455.551	14.92
455.755	14.7
455.958	14.6
456.162	14.52
456.365	14.66
456.569	14.27
456.772	14.35
456.976	14.51
457.179	14.56
457.383	14.36
457.586	14.4
457.79	14.44
457.993	14.49
458.196	14.55
458.4	14.63
458.603	14.53
458.807	14.75
459.01	14.87
459.213	14.81
459.417	14.84
459.62	14.84
459.823	14.9
460.026	14.87
460.23	14.9
460.433	14.89
460.636	14.82
460.839	14.94
461.042	14.97
461.246	14.8
461.449	14.71
461.652	14.69
461.855	14.7
462.058	14.55
462.261	14.65
462.464	14.63
462.668	14.76
462.871	14.81
463.074	14.68
463.277	14.36
463.48	14.62
463.683	14.69
463.886	14.73
464.089	14.76
464.292	14.78
464.495	14.84
464.698	14.8
464.901	14.61
465.104	14.75
465.306	14.71
465.509	14.96
465.712	14.78
465.915	14.75
466.118	14.55
466.321	14.56
466.524	14.63
466.726	14.2
466.929	14.43
467.132	14.5
467.335	14.34
467.538	14.28
467.74	14.31
467.943	14.35
468.146	14.4
468.348	14.51
468.551	14.46
468.754	14.43
468.956	14.7
469.159	14.51
469.362	14.51
469.564	14.61
469.767	14.77
469.969	14.75
470.172	14.72
470.375	14.68
470.577	14.7
470.78	14.72
470.982	14.77
471.185	14.79
471.387	14.75
471.59	14.9
471.792	14.95
471.995	14.9
472.197	14.94
472.399	15.07
472.602	15.15
472.804	15.12
473.007	15.13
473.209	15.04
473.411	15.01
473.614	15.13
473.816	15.17
474.018	15.04
474.22	15.03
474.423	14.98
474.625	14.82
474.827	14.69
475.03	14.66
475.232	14.66
475.434	14.86
475.636	14.94
475.838	14.94
476.04	14.92
476.243	14.92
476.445	14.95
476.647	14.9
476.849	15.01
477.051	15.16
477.253	15.18
477.455	15.27
477.657	15.12
477.859	14.96
478.061	14.95
478.263	14.94
478.465	14.84
478.667	14.74
478.869	14.99
479.071	14.86
479.273	14.78
479.475	14.69
479.677	14.65
479.879	14.66
480.081	14.72
480.283	14.78
480.485	14.65
480.686	14.78
480.888	14.8
481.09	14.68
481.292	14.87
481.494	14.94
481.695	15.14
481.897	15.18
482.099	15.2
482.301	15.22
482.502	15.15
482.704	15.15
482.906	15.14
483.107	15.24
483.309	15.19
483.511	15.16
483.712	15.16
483.914	15.17
484.115	15.15
484.317	15.16
484.519	15.13
484.72	15.12
484.922	15.11
485.123	15.06
485.325	14.99
485.526	14.97
485.728	14.97
485.929	14.95
486.131	14.85
486.332	14.82
486.534	14.83
486.735	14.85
486.936	14.9
487.138	14.9
487.339	14.99
487.541	15.05
487.742	15.03
487.943	15.04
488.144	15.03
488.346	15.11
488.547	15.12
488.748	15.13
488.95	15.14
489.151	15.16
489.352	15.21
489.553	15.28
489.755	15.23
489.956	15.25
490.157	15.22
490.358	15.24
490.559	15.2
490.76	15.28
490.961	15.29
491.163	15.34
491.364	15.36
491.565	15.4
491.766	15.33
491.967	15.34
492.168	15.35
492.369	15.38
492.57	15.34
492.771	15.36
492.972	15.27
493.173	15.27
493.374	15.29
493.575	15.23
493.776	15.11
493.976	15
494.177	15.02
494.378	15.16
494.579	15.09
494.78	15.11
494.981	15.06
495.182	15.17
495.382	15.05
495.583	14.98
495.784	15.06
495.985	15.25
496.185	15.41
496.386	15.46
496.587	15.47
496.788	15.51
496.988	15.64
497.189	15.51
497.39	15.62
497.59	15.68
497.791	15.73
497.992	15.74
498.192	15.78
498.393	15.9
498.593	15.9
498.794	15.88
498.994	15.93
499.195	15.94
499.395	15.98
499.596	15.78
499.796	15.81
499.997	15.81
500.197	15.78
500.398	15.79
500.598	15.56
500.799	15.58
500.999	15.47
501.199	15.58
501.4	15.49
501.6	15.66
501.801	15.78
502.001	15.64
502.201	15.57
502.402	15.55
502.602	15.57
502.802	15.65
503.002	15.71
503.203	15.83
503.403	15.76
503.603	15.79
503.803	15.94
504.003	15.99
504.204	16.22
504.404	16.32
504.604	16.4
504.804	16.44
505.004	16.58
505.204	16.63
505.404	16.7
505.604	16.73
505.804	16.87
506.005	16.89
506.205	17.05
506.405	17.03
506.605	17.26
506.805	17.23
507.005	17.18
507.204	17.2
507.404	17.24
507.604	17.35
507.804	17.48
508.004	17.65
508.204	17.71
508.404	17.78
508.604	17.94
508.804	17.85
509.003	18
509.203	18.05
509.403	18.12
509.603	18.1
509.803	18.16
510.002	18.2
510.202	18.06
510.402	18.07
510.602	17.97
510.801	17.99
511.001	18.09
511.201	18.07
511.4	18.16
511.6	18.37
511.8	18.53
511.999	18.51
512.199	18.58
512.398	18.68
512.598	18.89
512.797	18.98
512.997	19.07
513.197	19.06
513.396	19.32
513.596	19.27
513.795	19.15
513.994	19.23
514.194	19.47
514.393	19.57
514.593	19.68
514.792	19.64
514.992	19.7
515.191	19.82
515.39	19.97
515.59	20.01
515.789	20.32
515.988	20.45
516.188	20.51
516.387	20.57
516.586	20.59
516.786	20.63
516.985	20.63
517.184	20.71
517.383	20.74
517.582	20.75
517.782	20.81
517.981	20.86
518.18	20.95
518.379	21.05
518.578	21.1
518.777	21.22
518.976	21.33
519.176	21.5
519.375	21.67
519.574	21.73
519.773	21.92
519.972	22.08
520.171	22.13
520.37	22.27
520.569	22.34
520.768	22.44
520.967	22.44
521.166	22.53
521.365	22.67
521.564	22.79
521.762	22.95
521.961	23.11
522.16	23.13
522.359	23.32
522.558	23.38
522.757	23.39
522.956	23.46
523.154	23.46
523.353	23.76
523.552	23.74
523.751	23.82
523.949	23.85
524.148	23.79
524.347	23.89
524.546	23.93
524.744	24.06
524.943	24.3
525.142	24.38
525.34	24.6
525.539	24.49
525.737	24.64
525.936	24.71
526.135	24.86
526.333	25.08
526.532	25.13
526.73	25.17
526.929	25.29
527.127	25.3
527.326	25.41
527.524	25.51
527.723	25.65
527.921	25.7
528.12	25.8
528.318	25.92
528.516	25.91
528.715	26.01
528.913	26.13
529.112	26.19
529.31	26.31
529.508	26.33
529.707	26.38
529.905	26.47
530.103	26.55
530.301	26.56
530.5	26.54
530.698	26.64
530.896	26.7
531.094	26.79
531.293	26.86
531.491	27
531.689	27.17
531.887	27.31
532.085	27.44
532.283	27.5
532.481	27.58
532.68	27.69
532.878	27.83
533.076	27.93
533.274	27.93
533.472	27.87
533.67	27.87
533.868	27.94
534.066	27.97
534.264	27.99
534.462	28.03
534.66	28.15
534.858	28.18
535.056	28.18
535.253	28.18
535.451	28.3
535.649	28.46
535.847	28.53
536.045	28.56
536.243	28.64
536.441	28.78
536.638	28.92
536.836	28.99
537.034	29.12
537.232	29.26
537.43	29.44
537.627	29.5
537.825	29.59
538.023	29.64
538.22	29.73
538.418	29.71
538.616	29.65
538.813	29.64
539.011	29.69
539.209	29.81
539.406	29.9
539.604	29.89
539.801	29.99
539.999	29.99
540.196	30.1
540.394	30.19
540.591	30.32
540.789	30.46
540.986	30.54
541.184	30.58
541.381	30.61
541.579	30.63
541.776	30.74
541.974	30.8
542.171	30.84
542.368	30.93
542.566	30.97
542.763	30.99
542.96	30.99
543.158	31.07
543.355	31.13
543.552	31.21
543.75	31.2
543.947	31.2
544.144	31.22
544.341	31.37
544.539	31.37
544.736	31.47
544.933	31.52
545.13	31.67
545.327	31.71
545.524	31.79
545.722	31.84
545.919	31.93
546.116	31.98
546.313	32.08
546.51	32.1
546.707	32.09
546.904	32.06
547.101	32.21
547.298	32.12
547.495	32.12
547.692	32.14
547.889	32.03
548.086	32.18
548.283	32.21
548.48	32.24
548.677	32.32
548.874	32.5
549.07	32.67
549.267	32.57
549.464	32.77
549.661	32.92
549.858	33.06
550.055	33.23
550.251	33.27
550.448	33.28
550.645	33.42
550.842	33.48
551.038	33.51
551.235	33.54
551.432	33.78
551.628	33.6
551.825	33.64
552.022	33.53
552.218	33.68
552.415	33.67
552.612	33.78
552.808	33.73
553.005	33.76
553.201	33.68
553.398	33.63
553.594	33.48
553.791	33.64
553.987	33.78
554.184	33.78
554.38	33.71
554.577	33.79
554.773	33.77
554.97	33.84
555.166	33.84
555.362	33.89
555.559	34.1
555.755	34.32
555.952	34.45
556.148	34.29
556.344	34.56
556.541	34.56
556.737	34.56
556.933	34.64
557.129	34.55
557.326	34.62
557.522	34.6
557.718	34.46
557.914	34.5
558.11	34.34
558.307	34.52
558.503	34.36
558.699	34.45
558.895	34.54
559.091	34.47
559.287	34.64
559.483	34.84
559.679	35.16
559.876	35.21
560.072	35.38
560.268	35.45
560.464	35.24
560.66	35.35
560.856	35.48
561.052	35.4
561.247	35.48
561.443	35.43
561.639	35.3
561.835	35.22
562.031	35.33
562.227	35.19
562.423	35.41
562.619	35.75
562.815	35.79
563.01	35.77
563.206	35.86
563.402	35.93
563.598	36.17
563.793	36.25
563.989	36.26
564.185	36.21
564.381	36.42
564.576	36.3
564.772	36.45
564.968	36.57
565.163	36.58
565.359	36.59
565.555	36.68
565.75	36.69
565.946	36.8
566.141	36.89
566.337	37.1
566.532	37
566.728	37.16
566.923	37.12
567.119	37.21
567.314	37.24
567.51	37.26
567.705	37.17
567.901	37.05
568.096	37.13
568.292	37.13
568.487	36.89
568.682	37.05
568.878	37
569.073	36.95
569.268	36.93
569.464	37.03
569.659	37.09
569.854	37.34
570.05	37.45
570.245	37.45
570.44	37.47
570.635	37.66
570.831	37.53
571.026	37.65
571.221	37.49
571.416	37.5
571.611	37.6
571.806	37.69
572.002	37.68
572.197	37.76
572.392	37.85
572.587	38.01
572.782	37.91
572.977	37.92
573.172	37.93
573.367	38.1
573.562	38.23
573.757	38.28
573.952	38.23
574.147	38.19
574.342	38.19
574.537	38.19
574.732	38.08
574.927	38.02
575.121	38.17
575.316	38.26
575.511	38.29
575.706	38.2
575.901	38.08
576.096	38.23
576.29	38.35
576.485	38.25
576.68	38.09
576.875	38.1
577.069	38.33
577.264	38.34
577.459	38.2
577.654	38.24
577.848	38.21
578.043	38.34
578.238	38.29
578.432	38.2
578.627	38.24
578.821	38.51
579.016	38.56
579.21	38.65
579.405	38.52
579.6	38.58
579.794	38.65
579.989	38.59
580.183	38.7
580.378	38.77
580.572	38.87
580.766	39.15
580.961	38.9
581.155	38.93
581.35	38.92
581.544	39.18
581.738	39.36
581.933	39.26
582.127	39.54
582.321	39.26
582.516	39.36
582.71	39.26
582.904	39.18
583.099	39.16
583.293	39.28
583.487	39.24
583.681	39.16
583.875	39.18
584.07	39.36
584.264	39.43
584.458	39.58
584.652	39.49
584.846	39.58
585.04	39.73
585.234	40.09
585.428	40.01
585.623	40.09
585.817	40.07
586.011	40.17
586.205	40.2
586.399	40.36
586.593	40.41
586.787	40.45
586.981	40.51
587.174	40.49
587.368	40.27
587.562	40.41
587.756	40.61
587.95	40.84
588.144	40.54
588.338	40.46
588.532	40.33
588.725	40.38
588.919	40.54
589.113	40.9
589.307	40.88
589.501	41.1
589.694	41.17
589.888	41.18
590.082	41.28
590.275	41.46
590.469	41.54
590.663	41.63
590.856	41.6
591.05	41.5
591.244	41.36
591.437	41.29
591.631	41.24
591.824	41.13
592.018	40.99
592.212	40.78
592.405	40.83
592.599	41.11
592.792	41.3
592.986	41.59
593.179	41.64
593.372	41.79
593.566	42.24
593.759	42.2
593.953	42.26
594.146	42.33
594.339	42.59
594.533	42.71
594.726	42.62
594.92	42.55
595.113	42.43
595.306	42.49
595.499	42.28
595.693	42.23
595.886	42.56
596.079	42.76
596.272	42.93
596.466	43.1
596.659	42.94
596.852	42.84
597.045	42.69
597.238	42.78
597.431	42.96
597.624	43.01
597.818	43
598.011	42.8
598.204	42.73
598.397	42.65
598.59	42.23
598.783	42.33
598.976	42.31
599.169	42.51
599.362	42.42
599.555	42.14
599.748	42.21
599.941	42.13
600.134	42.28
600.326	42.26
600.519	42.37
600.712	42.44
600.905	42.48
601.098	42.75
601.291	42.65
601.483	42.69
601.676	42.99
601.869	42.96
602.062	42.85
602.255	43.04
602.447	43.29
602.64	43.19
602.833	43.25
603.025	43.39
603.218	43.32
603.411	43.24
603.603	43.26
603.796	43.1
603.989	42.97
604.181	43.17
604.374	43.11
604.566	43.01
604.759	42.82
604.951	42.91
605.144	42.98
605.336	42.89
605.529	42.9
605.721	42.93
605.914	42.86
606.106	42.96
606.299	42.87
606.491	42.75
606.683	42.63
606.876	43.03
607.068	43.05
607.26	42.87
607.453	43
607.645	43.05
607.837	42.89
608.03	42.97
608.222	43.11
608.414	42.98
608.606	42.93
608.799	43.12
608.991	43.18
609.183	43.32
609.375	43.34
609.567	43.64
609.759	43.8
609.952	44.12
610.144	44.28
610.336	44.22
610.528	44.36
610.72	44.54
610.912	44.64
611.104	44.69
611.296	44.61
611.488	44.84
611.68	44.5
611.872	44.57
612.064	44.57
612.256	44.36
612.448	44.37
612.64	44.37
612.832	44.23
613.023	44.14
613.215	43.85
613.407	43.84
613.599	43.55
613.791	43.73
613.983	43.42
614.174	43.25
614.366	43.37
614.558	43.41
614.75	43.56
614.941	43.94
615.133	43.71
615.325	43.84
615.516	44.04
615.708	44.27
615.9	44.24
616.091	44.5
616.283	44.53
616.475	44.48
616.666	44.68
616.858	44.87
617.049	44.4
617.241	44.58
617.432	44.63
617.624	44.6
617.815	44.85
618.007	44.99
618.198	44.77
618.39	44.92
618.581	45.11
618.773	45.18
618.964	45.04
619.155	45.35
619.347	45.27
619.538	45.3
619.729	45.57
619.921	45.5
620.112	45.41
620.303	45.63
620.494	45.57
620.686	45.58
620.877	45.43
621.068	45.22
621.259	45.15
621.451	45.53
621.642	45.46
621.833	45.36
622.024	45.08
622.215	44.92
622.406	44.82
622.597	44.57
622.788	44.5
622.98	44.31
623.171	44.57
623.362	44.3
623.553	44.14
623.744	44.46
623.935	44.25
624.126	44.58
624.317	44.76
624.508	44.69
624.698	44.95
624.889	44.77
625.08	45.15
625.271	45.48
625.462	45.55
625.653	45.19
625.844	45.09
626.034	45.11
626.225	45.08
626.416	45.1
626.607	45.21
626.798	45.3
626.988	45.5
627.179	45.18
627.37	44.72
627.56	44.87
627.751	45.19
627.942	45.31
628.132	45.43
628.323	45.28
628.514	45.26
628.704	45.4
628.895	45.33
629.085	45.5
629.276	45.63
629.466	45.95
629.657	46.12
629.847	45.97
630.038	45.83
630.228	45.69
630.419	45.88
630.609	45.94
630.8	46.07
630.99	46.32
631.181	46.38
631.371	46.41
631.561	46.26
631.752	46.21
631.942	46.46
632.132	46.27
632.323	46.23
632.513	46.22
632.703	46.22
632.893	45.8
633.084	45.53
633.274	45.46
633.464	45.65
633.654	45.57
633.844	45.39
634.034	44.96
634.225	45.25
634.415	45.53
634.605	45.27
634.795	45.46
634.985	45.7
635.175	45.78
635.365	45.84
635.555	45.91
635.745	46.17
635.935	46.24
636.125	46.78
636.315	46.79
636.505	46.65
636.695	46.65
636.885	46.46
637.075	46.33
637.265	46.39
637.455	46.35
637.644	46.06
637.834	45.82
638.024	45.87
638.214	45.68
638.404	45.66
638.593	45.66
638.783	46.05
638.973	46.02
639.163	46.33
639.352	46.34
639.542	46.07
639.732	46.44
639.921	46.51
640.111	46.63
640.301	46.68
640.49	46.63
640.68	46.21
640.87	46.03
641.059	46.15
641.249	46.13
641.438	45.93
641.628	46.08
641.817	46.07
642.007	46.22
642.196	46.36
642.386	46.44
642.575	46.7
642.764	47.46
642.954	47.6
643.143	48.14
643.333	48.19
643.522	48.16
643.711	48.29
643.901	47.82
644.09	47.96
644.279	47.59
644.469	47.58
644.658	47.16
644.847	46.64
645.036	46.43
645.226	45.91
645.415	45.42
645.604	45.57
645.793	45.65
645.982	45.73
646.171	45.61
646.361	45.85
646.55	45.73
646.739	45.86
646.928	45.98
647.117	46.04
647.306	45.8
647.495	46.33
647.684	46.2
647.873	46
648.062	46.4
648.251	46.39
648.44	46.05
648.629	46.19
648.818	46.39
649.007	46.74
649.196	46.95
649.384	47.07
649.573	47.28
649.762	47.36
649.951	47.4
650.14	47.43
650.328	47.61
650.517	47.69
650.706	47.52
650.895	47.5
651.083	47.38
651.272	46.58
651.461	46.55
651.65	46.05
651.838	45.98
652.027	46.17
652.216	45.8
652.404	45.72
652.593	46.17
652.781	46.02
652.97	45.6
653.158	45.34
653.347	45.86
653.535	45.76
653.724	45.73
653.912	46.37
654.101	46.36
654.289	46.6
654.478	46.44
654.666	45.94
654.855	45.81
655.043	46.04
655.231	46.11
655.42	46.18
655.608	46.19
655.796	46.46
655.985	45.79
656.173	46.12
656.361	45.98
656.55	45.74
656.738	45.92
656.926	46.31
657.114	46.47
657.302	46.4
657.491	46.43
657.679	46.72
657.867	46.59
658.055	47.24
658.243	47.07
658.431	47.41
658.619	47.77
658.807	47.9
658.996	48.01
659.184	47.91
659.372	48.22
659.56	48.24
659.748	48.26
659.936	48.34
660.124	48.05
660.311	47.95
660.499	47.66
660.687	47.89
660.875	48.08
661.063	47.89
661.251	47.91
661.439	47.97
661.627	48.27
661.814	48.46
662.002	48.28
662.19	48.44
662.378	48.44
662.565	48.88
662.753	48.29
662.941	48.35
663.129	48.44
663.316	48.3
663.504	47.7
663.692	47.45
663.879	47.18
664.067	47.45
664.254	47.33
664.442	47.42
664.63	46.83
664.817	47.09
665.005	46.89
665.192	46.88
665.38	46.95
665.567	47.7
665.755	47.65
665.942	47.37
666.13	47.08
666.317	46.68
666.504	46.6
666.692	46.82
666.879	47
667.067	47.04
667.254	47.36
667.441	47.56
667.629	47.15
667.816	47.14
668.003	47.45
668.19	48.04
668.378	48.31
668.565	48.49
668.752	48.53
668.939	48.28
669.127	47.91
669.314	47.91
669.501	47.64
669.688	47.67
669.875	47.66
670.062	47.78
670.249	47.58
670.436	47.83
670.623	47.94
670.81	47.78
670.997	47.58
671.184	47.6
671.371	47.49
671.558	47.5
671.745	47.68
671.932	47.75
672.119	47.19
672.306	47.13
672.493	46.64
672.68	46.45
672.867	46.82
673.054	47.33
673.24	47.98
673.427	48.16
673.614	48.06
673.801	48.03
673.988	47.81
674.174	48.36
674.361	48.39
674.548	48.46
674.734	48.4
674.921	48.46
675.108	48.05
675.294	47.66
675.481	47.27
675.668	47.43
675.854	47.41
676.041	47.73
676.227	47.52
676.414	47.66
676.601	47.92
676.787	48.16
676.974	48.36
677.16	48.43
677.347	48.51
677.533	48.77
677.719	49.1
677.906	49.07
678.092	48.77
678.279	49.08
678.465	48.52
678.651	48.32
678.838	47.91
679.024	47.52
679.21	47.48
679.397	47.75
679.583	47.8
679.769	47.59
679.955	47.52
680.142	47.69
680.328	47.72
680.514	47.86
680.7	47.68
680.886	47.79
681.073	47.62
681.259	47.98
681.445	47.6
681.631	47.34
681.817	47.44
682.003	47.44
682.189	47.44
682.375	47.07
682.561	47.38
682.747	47.84
682.933	47.85
683.119	48.2
683.305	48.09
683.491	48.18
683.677	48.08
683.863	47.92
684.049	47.96
684.235	47.83
684.42	47.98
684.606	48.15
684.792	48.03
684.978	48.29
685.164	48.54
685.349	48.91
685.535	49.08
685.721	49.45
685.907	49.75
686.092	50.1
686.278	50.49
686.464	50.44
686.649	50.07
686.835	50.05
687.021	49.64
687.206	48.95
687.392	48.38
687.577	48.53
687.763	48.33
687.948	48.33
688.134	48.07
688.319	47.91
688.505	48.18
688.69	48.4
688.876	47.93
689.061	48.04
689.247	48.1
689.432	47.99
689.618	48.05
689.803	48.04
689.988	47.99
690.174	48.01
690.359	47.76
690.544	47.82
690.73	47.54
690.915	47.69
691.1	47.57
691.285	47.82
691.471	48.13
691.656	47.93
691.841	47.85
692.026	47.74
692.211	47.58
692.396	47.56
692.582	47.18
692.767	47.27
692.952	47.68
693.137	48.02
693.322	48.14
693.507	47.66
693.692	47.8
693.877	47.88
694.062	48.18
694.247	48.15
694.432	48.5
694.617	48.83
694.802	49.03
694.987	49.46
695.172	49.17
695.357	49
695.541	49.33
695.726	49.18
695.911	49.79
696.096	49.73
696.281	49.92
696.466	49.63
696.65	49.35
696.835	49.61
697.02	48.77
697.204	49.08
697.389	49.19
697.574	49.53
697.759	49.3
697.943	48.81
698.128	48.38
698.312	48.15
698.497	48.09
698.682	48.2
698.866	48.02
699.051	48.44
699.235	48.48
699.42	48.46
699.604	48.29
699.789	48.13
699.973	48.57
700.158	48.8
700.342	48.94
700.527	49.35
700.711	49.23
700.895	49.26
701.08	49.15
701.264	48.77
701.448	48.89
701.633	48.09
701.817	48.8
702.001	48.29
702.186	48.57
702.37	48.52
702.554	48.13
702.738	47.93
702.923	47.83
703.107	47.56
703.291	47.89
703.475	48.14
703.659	48.81
703.843	48.11
704.027	48.06
704.212	47.79
704.396	48.31
704.58	47.8
704.764	48.06
704.948	47.67
705.132	48.1
705.316	48.02
705.5	47.38
705.684	47.98
705.868	48.68
706.052	49.48
706.235	49.41
706.419	49.1
706.603	50.07
706.787	50.26
706.971	50.39
707.155	50.09
707.339	50.26
707.522	50.08
707.706	50.01
707.89	49.68
708.074	48.99
708.257	48.84
708.441	49.36
708.625	48.97
708.808	48.89
708.992	48.84
709.176	48.93
709.359	48.89
709.543	49
709.727	48.78
709.91	48.51
710.094	48.46
710.277	48.77
710.461	47.92
710.644	47.99
710.828	47.93
711.011	47.87
711.195	48.09
711.378	48.62
711.562	48.84
711.745	48.73
711.928	48.69
712.112	48.59
712.295	48.21
712.478	48.02
712.662	47.95
712.845	48.14
713.028	48.82
713.212	48.27
713.395	47.66
713.578	47.63
713.761	48.3
713.945	47.93
714.128	48.35
714.311	48.88
714.494	49.35
714.677	49.13
714.86	49.02
715.043	48.69
715.227	49.17
715.41	49.22
715.593	49.16
715.776	48.48
715.959	49.31
716.142	49.05
716.325	49.09
716.508	49.21
716.691	49.94
716.874	49.75
717.057	49.84
717.239	50.11
717.422	49.95
717.605	50.3
717.788	50.71
717.971	50.85
718.154	51.67
718.337	51.81
718.519	51.57
718.702	51.22
718.885	51.34
719.068	51.19
719.25	51.38
719.433	51.69
719.616	51.55
719.798	51.3
719.981	51.27
720.164	50.86
720.346	50.46
720.529	50.25
720.712	49.62
720.894	49.33
721.077	48.98
721.259	49.1
721.442	49.16
721.624	48.72
721.807	48.55
721.989	48.07
722.172	47.68
722.354	48.35
722.537	48.83
722.719	49.47
722.901	49.58
723.084	50.31
723.266	49.76
723.448	49.41
723.631	51.27
723.813	51.64
723.995	51.79
724.178	51.21
724.36	50.85
724.542	50.31
724.724	49.37
724.907	50
725.089	49.33
725.271	49.39
725.453	49.41
725.635	48.27
725.817	48.98
725.999	49.52
726.181	50.23
726.364	50.48
726.546	50.91
726.728	52.2
726.91	51.94
727.092	51.93
727.274	51.79
727.456	51.76
727.638	51.9
727.819	51.24
728.001	50.85
728.183	50.32
728.365	50.4
728.547	50.55
728.729	50.52
728.911	50.62
729.093	50.83
729.274	51.17
729.456	50.81
729.638	50.48
729.82	50.38
730.001	50.57
730.183	50.65
730.365	49.44
730.546	49.19
730.728	48.19
730.91	48.28
731.091	48.03
731.273	47.82
731.455	47.55
731.636	47.74
731.818	47.36
731.999	47.32
732.181	47.59
732.362	48.87
732.544	48.69
732.725	49.15
732.907	48.79
733.088	49.59
733.27	49.23
733.451	50.4
733.633	49.92
733.814	50.07
733.995	49.65
734.177	49.44
734.358	48.57
734.539	48.72
734.721	48.09
734.902	48.15
735.083	47.68
735.264	47.87
735.446	47.03
735.627	47.52
735.808	47.44
735.989	47.21
736.17	47.89
736.351	47.35
736.533	47.56
736.714	48.46
736.895	48.33
737.076	48.25
737.257	47.68
737.438	47.95
737.619	47.69
737.8	47.57
737.981	47.77
738.162	47.66
738.343	47.94
738.524	48.16
738.705	48.11
738.886	48.15
739.067	48.5
739.247	49.25
739.428	48.78
739.609	48.09
739.79	48.74
739.971	48.77
740.151	47.78
740.332	49.07
740.513	49.69
740.694	49.97
740.874	49.71
741.055	49.84
741.236	49.71
741.417	50.36
741.597	50.58
741.778	50
741.958	50.02
742.139	50.43
742.32	49.85
742.5	48.47
742.681	48.35
742.861	49.04
743.042	48.37
743.222	48.33
743.403	48.16
743.583	48.94
743.764	49.19
743.944	49.21
744.124	48.89
744.305	49.37
744.485	50.23
744.666	49.4
744.846	49.26
745.026	49.4
745.207	49.42
745.387	49.33
745.567	49.18
745.747	48.95
745.928	49.49
746.108	50.17
746.288	49.64
746.468	49.44
746.648	50.22
746.829	49.24
747.009	48.93
747.189	48.23
747.369	48.53
747.549	48.13
747.729	48.63
747.909	49.77
748.089	49.77
748.269	49.53
748.449	49.56
748.629	49.5
748.809	50.47
748.989	50.03
749.169	51.17
749.349	50.43
749.529	51.19
749.709	51.14
749.889	49.68
750.068	49.15
750.248	48.89
750.428	48.54
750.608	49.1
750.788	49
750.967	49.31
751.147	49.01
751.327	48.64
751.507	47.72
751.686	47.07
751.866	47.66
752.046	48.36
752.225	49.45
752.405	50.04
752.585	48.16
752.764	48.85
752.944	48.98
753.123	48.95
753.303	50.68
753.482	51.1
753.662	51.2
753.841	50.61
754.021	50.66
754.2	50.48
754.38	50.01
754.559	51.27
754.739	50.02
754.918	49.84
755.097	49.4
755.277	48.58
755.456	48.52
755.635	48.16
755.815	48.22
755.994	47.99
756.173	46.67
756.352	47.08
756.532	47.47
756.711	48.34
756.89	48.75
757.069	49.03
757.248	48.95
757.427	49.32
757.607	50.05
757.786	50.42
757.965	50.93
758.144	51.31
758.323	51.22
758.502	50.53
758.681	49.81
758.86	49.61
759.039	49.71
759.218	50.05
759.397	50.08
759.576	49.98
759.755	48.88
759.934	47.45
760.113	46.81
760.291	47.42
760.47	48.81
760.649	50.05
760.828	50.17
761.007	50.1
761.186	50.58
761.364	50.34
761.543	50.49
761.722	51.27
761.901	51.35
762.079	52.08
762.258	51.35
762.437	50.65
762.615	50.22
762.794	50.68
762.972	50.3
763.151	50.02
763.33	49.79
763.508	50.05
763.687	50.21
763.865	51
764.044	50.81
764.222	50.59
764.401	50.52
764.579	50.6
764.758	50.15
764.936	50.87
765.114	50.37
765.293	51.02
765.471	50.99
765.65	50.05
765.828	49.68
766.006	49.78
766.184	50.16
766.363	49.97
766.541	49.36
766.719	49.5
766.898	49.81
767.076	50.36
767.254	50.06
767.432	49.45
767.61	50.45
767.788	50.47
767.967	51.64
768.145	51.33
768.323	52.02
768.501	53
768.679	53.12
768.857	51.93
769.035	51.7
769.213	51.95
769.391	51.77
769.569	51.89
769.747	51.53
769.925	49.93
770.103	49.53
770.281	49.2
770.459	47.89
770.636	47.88
770.814	48.98
770.992	49.32
771.17	48.16
771.348	47.52
771.525	47.89
771.703	49.37
771.881	49.85
772.059	50.11
772.236	49.03
772.414	52.01
772.592	51.69
772.769	49.61
772.947	50.72
773.125	51.7
773.302	53.26
773.48	52.28
773.657	50.85
773.835	51.25
774.013	50.99
774.19	51.66
774.368	48.96
774.545	49.32
774.723	50.09
774.9	47.91
775.077	47.86
775.255	46.68
775.432	48.11
775.61	47.95
775.787	46.47
775.964	47.05
776.142	47.29
776.319	47.89
776.496	47.98
776.674	48.01
776.851	48.11
777.028	48.19
777.205	49.95
777.382	48.51
777.56	49.85
777.737	50.86
777.914	49.43
778.091	50.39
778.268	49.83
778.445	50.6
778.622	51.46
778.8	54.72
778.977	52.91
779.154	61.61
779.331	62.3
779.508	61.83
779.685	62.41
779.862	63.82
780.038	62.68
780.215	63.39
780.392	61.6
780.569	62.02
780.746	58.19
780.923	58.59
781.1	49.1
781.277	48
781.453	48.59
781.63	48.56
781.807	49.97
781.984	49.67
782.16	50.19
782.337	50.2
782.514	49.86
782.691	51.98
782.867	52.54
783.044	51.54
783.221	51.37
783.397	51.32
783.574	51.43
783.75	51.39
783.927	51.66
784.103	52
784.28	52.63
784.456	52.95
784.633	51.43
784.809	52.42
784.986	53.19
785.162	54.27
785.339	53.99
785.515	55.1
785.692	54.21
785.868	54.84
786.044	53.4
786.221	52.95
786.397	53.31
786.573	53.46
786.749	52.11
786.926	50.14
787.102	48.91
787.278	48.55
787.454	46.17
787.631	44.08
787.807	44.38
787.983	43.41
788.159	44.15
788.335	44.04
788.511	44.81
788.687	46.18
788.863	48.76
789.039	50.43
789.216	50.7
789.392	52.03
789.568	53.24
789.744	53.3
789.919	55.32
790.095	55.5
790.271	55.45
790.447	54.55
790.623	55.17
790.799	53.65
790.975	53.21
791.151	54.83
791.327	53.16
791.502	54.69
791.678	53.86
791.854	54.35
792.03	55.1
792.205	54.04
792.381	54.21
792.557	52.74
792.733	51.71
792.908	53.62
793.084	52.74
793.259	53.07
793.435	50.78
793.611	51.42
793.786	49.6
793.962	48.21
794.137	48.7
794.313	48.92
794.488	48.2
794.664	50.31
794.839	45.89
795.015	45.15
795.19	45.49
795.366	48
795.541	45.83
795.716	45.27
795.892	44.93
796.067	45.1
796.242	44.95
796.418	46.9
796.593	46.43
796.768	47.44
796.944	47.82
797.119	47.06
797.294	46.13
797.469	47.89
797.644	49.56
797.82	50.72
797.995	49.94
798.17	50.78
798.345	51.15
798.52	51.42
798.695	51.12
798.87	50.63
799.045	53.04
799.22	52.13
799.395	53.36
799.57	53.19
799.745	51.83
799.92	51.03
800.095	50.65
800.27	48.92
800.445	48.95
800.62	49.47
800.795	49.18
800.97	49.67
801.145	50.84
801.319	49.02
801.494	47.84
801.669	49
801.844	51.2
802.018	51.07
802.193	52.7
802.368	52.58
802.543	52.21
802.717	49.67
802.892	49.35
803.067	47.38
803.241	45.47
803.416	46.32
803.59	46.69
803.765	46.76
803.94	46.14
804.114	45.5
804.289	45.93
804.463	47.84
804.638	49.98
804.812	49.57
804.986	54.06
805.161	56.98
805.335	58.06
805.51	57.33
805.684	56.98
805.858	57.31
806.033	56.28
806.207	54.96
806.381	53.6
806.556	56.49
806.73	56.97
806.904	55.25
807.078	56.3
807.253	56.36
807.427	56.09
807.601	57.72
807.775	55.87
807.949	54
808.123	53.42
808.298	53.6
808.472	50.13
808.646	47.79
808.82	47.27
808.994	46.19
809.168	45.65
809.342	44.84
809.516	41.46
809.69	43.63
809.864	46.32
810.038	47.77
810.212	46.42
810.385	48.24
810.559	47.33
810.733	49.55
810.907	50.07
811.081	48.89
811.255	47.78
811.428	51.94
811.602	54.34
811.776	54.84
811.95	52.37
812.123	53.24
812.297	50.28
812.471	50.61
812.644	46.52
812.818	47.68
812.992	49.31
813.165	50.94
813.339	46.44
813.512	43.89
813.686	42.69
813.86	46
814.033	47.52
814.207	49.25
814.38	48.12
814.554	48.17
814.727	46.2
814.9	44.77
815.074	45.6
815.247	46.98
815.421	44.7
815.594	40.64
815.767	39.71
815.941	35.68
816.114	35.99
816.287	40.49
816.46	43.69
816.634	45.7
816.807	45.98
816.98	45.6
817.153	45.77
817.327	50.17
817.5	56.02
817.673	55.34
817.846	57.45
818.019	57.09
818.192	57.71
818.365	54.68
818.538	49.74
818.711	51.55
818.884	49.4
819.057	49.78
819.23	48.38
819.403	46.86
819.576	47.3
819.749	46.09
819.922	46.15
820.095	45.39
820.268	45.48
820.441	48.79
820.614	46.89
820.786	47.97
820.959	46.92
821.132	47.89
821.305	47.27
821.477	47.13
821.65	47.99
821.823	47.93
821.996	47.54
822.168	47.63
822.341	47.19
822.514	46.76
822.686	46.78
822.859	47.49
823.031	47.01
823.204	46.81
823.376	46.95
823.549	46.97
823.722	47.34
823.894	47.61
824.067	47.81
824.239	47.81
824.411	48.02
824.584	48.5
824.756	47.92
824.929	47.85
825.101	48.93
825.273	48.75
825.446	48.32
825.618	48.02
825.79	48.25
825.963	48.75
826.135	48.69
826.307	48.82
826.479	48.76
826.652	49.26
826.824	49.62
826.996	48.82
827.168	49.38
827.34	49.57
827.512	49.89
827.684	50
827.856	49.09
828.029	48.91
828.201	48.78
828.373	47.98
828.545	48.2
828.717	48.44
828.889	47.67
829.061	47.31
829.232	48
829.404	48.51
829.576	47.4
829.748	47.88
829.92	47.23
830.092	49.34
830.264	50.31
830.436	48.9
830.607	48.84
830.779	49.18
830.951	49.33
831.123	49.64
831.294	47.21
831.466	47.01
831.638	46.06
831.809	48.1
831.981	44.78
832.153	43.8
832.324	44.94
832.496	44.97
832.667	45.62
832.839	44.04
833.011	41.58
833.182	43.32
833.354	44
833.525	45.55
833.697	45.5
833.868	47.38
834.039	48.2
834.211	48.75
834.382	47.29
834.554	49.37
834.725	50.51
834.896	50.59
835.068	49.53
835.239	48.75
835.41	46.97
835.581	47.98
835.753	46.79
835.924	46.84
836.095	45.88
836.266	46.44
836.438	45.29
836.609	46.07
836.78	46.04
836.951	46.73
837.122	44.91
837.293	45.19
837.464	44.18
837.635	46.87
837.806	46.55
837.977	46.43
838.148	46.81
838.319	45.66
838.49	43.99
838.661	47.44
838.832	46.38
839.003	50.62
839.174	54.17
839.345	53.78
839.516	50.69
839.687	51.51
839.857	51.03
840.028	51
840.199	51.56
840.37	52.04
840.54	48.73
840.711	53.09
840.882	57.33
841.053	54.98
841.223	53.49
841.394	52.87
841.564	52.98
841.735	57.17
841.906	56.46
842.076	57.92
842.247	53.94
842.417	53.25
842.588	50.16
842.758	47.02
842.929	45.57
843.099	45.82
843.27	50.64
843.44	51.43
843.611	49.36
843.781	48.44
843.951	46.15
844.122	47.01
844.292	46.16
844.462	42.19
844.633	37.5
844.803	35.39
844.973	32.16
845.144	25.9
845.314	20.15
845.484	19.17
845.654	18.27
845.824	21.49
845.995	20.1
846.165	24.54
846.335	30.38
846.505	32.47
846.675	41.44
846.845	54.35
847.015	54.95
847.185	59.32
847.355	57.14
847.525	61.42
847.695	62.69
847.865	74.8
848.035	65.88
848.205	58.16
848.375	61.63
848.545	55.42
848.715	36.98
848.884	36.06
849.054	37.41
849.224	38.36
849.394	39.72
849.564	39.79
849.733	37.52
849.903	44.61
850.073	42.5
850.243	44.83
850.412	43.07
850.582	48.44
850.752	48.96
850.921	41.61
851.091	39.78
851.26	39.8
851.43	35.5
851.599	28.23
851.769	24
851.939	32.93
852.108	31.72
852.278	37.96
852.447	40.78
852.616	40.87
852.786	44.56
852.955	47.98
853.125	50.88
853.294	56.28
853.463	56.84
853.633	53.67
853.802	55.08
853.971	53.89
854.141	54.64
854.31	55.89
854.479	46.08
854.648	40.98
854.818	32.47
854.987	15.61
855.156	15.18
855.325	19.6
855.494	21.12
855.663	19.4
855.832	7.61
856.001	0.26
856.171	0.46
856.34	0.76
856.509	3.81
856.678	17.42
856.847	31.87
857.016	32.38
857.185	32.71
857.353	33.56
857.522	39.61
857.691	45.18
857.86	42.3
858.029	45.46
858.198	51.72
858.367	51.69
858.535	44.53
858.704	44.44
858.873	45.05
859.042	36.93
859.21	35
859.379	28.12
859.548	26.68
859.717	31.05
859.885	26.35
860.054	23.55
860.222	9.44
860.391	18.71
860.56	19.9
860.728	17.26
860.897	24.25
861.065	28.69
861.234	32.57
861.402	32.49
861.571	39.5
861.739	35.12
861.908	30.44
862.076	33.04
862.244	30.89
862.413	32.01
862.581	34.31
862.749	33.41
862.918	37.22
863.086	39.61
863.254	39.27
863.423	25.17
863.591	27.13
863.759	29.49
863.927	30.13
864.096	26.62
864.264	21.68
864.432	26.03
864.6	31.96
864.768	26.99
864.936	21.73
865.104	21.24
865.272	28.51
865.44	36.56
865.608	34.43
865.776	34.51
865.944	36.65
866.112	39.91
866.28	40.16
866.448	33.86
866.616	29.23
866.784	22.21
866.952	22.4
867.12	24.12
867.288	16.97
867.455	22.82
867.623	19.37
867.791	20.38
867.959	17.29
868.127	17.26
868.294	26.1
868.462	28.56
868.63	34.8
868.797	37.23
868.965	43.35
869.133	48.22
869.3	54.69
869.468	55.17
869.636	53.36
869.803	52.49
869.971	52.21
870.138	38.37
870.306	32.28
870.473	28.16
870.641	33.66
870.808	35.74
870.975	37.25
871.143	28.65
871.31	34.04
871.478	42.47
871.645	38.52
871.812	40.13
871.98	43.98
872.147	53.2
872.314	50.92
872.482	40.13
872.649	27.95
872.816	26.61
872.983	19.98
873.15	15.87
873.318	13.91
873.485	17.45
873.652	10.47
873.819	10.76
873.986	10.48
874.153	17.22
874.32	14.07
874.487	12.76
874.654	11.15
874.821	5.52
874.988	-0.47
875.155	2.78
875.322	10.25
875.489	5.65
875.656	7.65
875.823	3.17
875.99	9.53
876.157	14.52
876.324	24.62
876.49	29.25
876.657	40.43
876.824	52.35
876.991	48.43
877.157	42.89
877.324	47.95
877.491	45.7
877.658	49.66
877.824	50.33
877.991	50.23
878.157	52.2
878.324	56.08
878.491	52.44
878.657	40.53
878.824	44.07
878.99	48.39
879.157	54.36
879.323	46
879.49	49.16
879.656	46.66
879.823	47.58
879.989	42.34
880.156	36.49
880.322	38.15
880.488	44.41
880.655	38.22
880.821	42.24
880.987	41.36
881.154	47.56
881.32	44.88
881.486	46.63
881.652	45.45
881.819	46.56
881.985	44.66
882.151	45.68
882.317	45.76
882.483	48.31
882.649	44.42
882.816	41.88
882.982	42.24
883.148	42.5
883.314	43.61
883.48	43.74
883.646	43.03
883.812	43.9
883.978	44.34
884.144	43.45
884.31	42.85
884.476	43.01
884.642	44.68
884.807	44.46
884.973	46.06
885.139	44.95
885.305	44.26
885.471	44.64
885.637	43.94
885.802	43.12
885.968	45.13
886.134	44.31
886.3	46.77
886.465	46
886.631	44.07
886.797	43.37
886.962	43.15
887.128	46.28
887.293	47.84
887.459	49.43
887.625	50.34
887.79	50.2
887.956	46.31
888.121	43.89
888.287	44.96
888.452	49.57
888.618	44.29
888.783	45.75
