Data from LC_268_Reflection_6.txt Node
Date: Sat Nov 21 12:02:23 EST 2015
User: robert
Spectrometer: USB4E03001
Autoset integration time: false
Trigger mode: 4
Integration Time (sec): 1.000000E-1
Scans to average: 15
Electric dark correction enabled: true
Nonlinearity correction enabled: false
Boxcar width: 5
Stray light correction enabled: false
XAxis mode: Wavelengths
Stop averaging: false
Number of Pixels in Spectrum: 3648
>>>>>Begin Spectral Data<<<<<
177.566	93.2
177.785	136.64
178.005	516.75
178.225	-123.74
178.445	-274.03
178.665	-943.53
178.885	304.12
179.105	5.56
179.324	14.7
179.544	10.54
179.764	340.77
179.984	32.62
180.204	17.99
180.423	18.02
180.643	12.08
180.863	20.16
181.083	33.58
181.302	74.14
181.522	115.67
181.742	136.46
181.961	126.75
182.181	85.47
182.401	215.98
182.621	183.91
182.84	177.13
183.06	178.81
183.279	162.52
183.499	148.47
183.719	142.15
183.938	125.79
184.158	142.14
184.377	140.29
184.597	143.32
184.816	110.87
185.036	115.53
185.256	130.24
185.475	109.8
185.695	108.98
185.914	100.91
186.134	86.7
186.353	92.43
186.572	85.6
186.792	83.88
187.011	94.91
187.231	114.24
187.45	121.86
187.67	132.75
187.889	158.85
188.108	189.69
188.328	229.52
188.547	260.13
188.766	259.64
188.986	250.3
189.205	314.32
189.424	429.64
189.644	333.31
189.863	-24.91
190.082	118.93
190.302	-489.78
190.521	-103.51
190.74	-59.75
190.959	-33.75
191.178	9.22
191.398	17.48
191.617	30.44
191.836	32.79
192.055	5.19
192.274	18.26
192.494	28.72
192.713	29.95
192.932	60.59
193.151	39.91
193.37	42.45
193.589	24.77
193.808	51.11
194.027	68.65
194.246	76.43
194.465	76.5
194.685	73.56
194.904	81.59
195.123	102.61
195.342	125.8
195.561	148.65
195.78	114.94
195.999	140.65
196.218	99.75
196.436	107.91
196.655	102.95
196.874	92.55
197.093	97.7
197.312	75.2
197.531	100.58
197.75	76.29
197.969	80.32
198.188	97.63
198.407	103.71
198.625	100.86
198.844	100.36
199.063	91.46
199.282	73.86
199.501	102.83
199.719	87.03
199.938	57.39
200.157	53.6
200.376	32.58
200.594	36.89
200.813	37.94
201.032	54.29
201.251	35.69
201.469	36.36
201.688	61.53
201.907	18.87
202.125	65.18
202.344	70.91
202.563	81.92
202.781	88.11
203	79.82
203.218	93.64
203.437	120.32
203.656	281.03
203.874	292.97
204.093	146.84
204.311	161.86
204.53	156.27
204.748	123.78
204.967	144.05
205.185	100.95
205.404	87.46
205.622	101.74
205.841	95.57
206.059	95.05
206.278	103.09
206.496	102.13
206.715	65.11
206.933	129.73
207.151	130.59
207.37	88.43
207.588	148.26
207.806	194.87
208.025	121.44
208.243	128.87
208.461	110.95
208.68	125
208.898	171.31
209.116	146.04
209.335	163.77
209.553	164.87
209.771	213.01
209.989	210.87
210.208	186.91
210.426	246.49
210.644	221.53
210.862	330.22
211.081	148.22
211.299	71.66
211.517	108.4
211.735	34.75
211.953	46.25
212.171	23.77
212.39	14.34
212.608	31.49
212.826	45.23
213.044	43.04
213.262	32.44
213.48	40.28
213.698	36.76
213.916	19.23
214.134	37.41
214.352	38.42
214.57	58.15
214.788	62.12
215.006	62.08
215.224	49.19
215.442	53.42
215.66	81.5
215.878	105.02
216.096	134.19
216.314	114.26
216.532	126.62
216.75	112.06
216.968	124.77
217.185	108.64
217.403	128.68
217.621	117.76
217.839	110.81
218.057	107.46
218.275	82.45
218.492	65.71
218.71	87.12
218.928	88.71
219.146	98.32
219.363	96.26
219.581	106.46
219.799	34.44
220.017	40.63
220.234	36.62
220.452	26.44
220.67	30.9
220.887	39.5
221.105	29.59
221.323	18.66
221.54	-2.73
221.758	5.59
221.976	26.63
222.193	44.79
222.411	51.43
222.629	48.94
222.846	50.87
223.064	67.95
223.281	55.28
223.499	44.15
223.716	54.21
223.934	58.99
224.151	56.25
224.369	41.63
224.586	43.69
224.804	38.19
225.021	42.72
225.239	42.73
225.456	30.89
225.674	32.46
225.891	31.03
226.108	24.69
226.326	24.03
226.543	26.62
226.76	36.4
226.978	32.99
227.195	28.33
227.413	26.66
227.63	28.62
227.847	29.42
228.064	27.88
228.282	25.75
228.499	25.73
228.716	26.44
228.934	22.77
229.151	20.2
229.368	18.14
229.585	18.54
229.802	16.91
230.02	14.02
230.237	11.94
230.454	12.87
230.671	15.87
230.888	14.93
231.105	11.54
231.323	12.47
231.54	12.18
231.757	15.66
231.974	21.75
232.191	22.29
232.408	24.52
232.625	26.48
232.842	22.7
233.059	21.27
233.276	25.02
233.493	29.2
233.71	30.42
233.927	26.37
234.144	24.94
234.361	24.82
234.578	24.68
234.795	27.01
235.012	28.74
235.229	33.23
235.446	30.95
235.663	25.04
235.879	24.74
236.096	25.51
236.313	30.43
236.53	26.16
236.747	23.43
236.964	22.58
237.181	26.03
237.397	23.45
237.614	20.99
237.831	19.94
238.048	20.83
238.264	16.79
238.481	12.24
238.698	10.99
238.915	15.43
239.131	11.26
239.348	11.58
239.565	8.74
239.781	10.16
239.998	11.32
240.215	13.91
240.431	12.04
240.648	13.48
240.865	14.26
241.081	11.16
241.298	10.51
241.514	13.27
241.731	13.47
241.947	13.99
242.164	14.57
242.38	13.27
242.597	13.42
242.814	14.11
243.03	14.79
243.246	15.34
243.463	15.88
243.679	16.3
243.896	15.92
244.112	16.48
244.329	17.37
244.545	18.08
244.762	18.46
244.978	19.07
245.194	20.32
245.411	19.71
245.627	20.09
245.843	20.34
246.06	18.12
246.276	16.33
246.492	15.99
246.709	14.62
246.925	14.67
247.141	14.72
247.357	13.33
247.574	12.39
247.79	11.69
248.006	11.98
248.222	11.91
248.439	13.47
248.655	14.69
248.871	14.96
249.087	15.09
249.303	14.31
249.519	13.75
249.736	15.85
249.952	16.21
250.168	17.71
250.384	18.11
250.6	18.48
250.816	17.91
251.032	17.5
251.248	16.14
251.464	17.28
251.68	17.48
251.896	19.27
252.112	17.9
252.328	18.71
252.544	18.43
252.76	17.42
252.976	16.93
253.192	16.34
253.408	16.46
253.624	17.09
253.84	17.31
254.056	16.64
254.272	14.76
254.487	15.85
254.703	15.7
254.919	14.74
255.135	13.89
255.351	14.76
255.567	13.29
255.782	13.1
255.998	12.92
256.214	12.13
256.43	13.33
256.646	13.42
256.861	13.14
257.077	12.43
257.293	14.58
257.508	15.39
257.724	15.4
257.94	16.9
258.155	16.01
258.371	15.88
258.587	14.45
258.802	13.46
259.018	13.36
259.234	13.34
259.449	13.14
259.665	11.96
259.88	11.86
260.096	11.48
260.312	11.71
260.527	12.11
260.743	11.94
260.958	12.05
261.174	11.84
261.389	12.42
261.605	12.38
261.82	13
262.036	13.78
262.251	13.14
262.466	14.28
262.682	13.2
262.897	11.3
263.113	12.03
263.328	13.2
263.543	14.3
263.759	13.76
263.974	14.51
264.189	14.69
264.405	16.58
264.62	18.31
264.835	18.41
265.051	18.21
265.266	19.82
265.481	19.47
265.696	19.4
265.912	17.82
266.127	16.56
266.342	14.78
266.557	13.93
266.773	11.8
266.988	10.89
267.203	9.8
267.418	10.63
267.633	10.29
267.848	9.34
268.064	8.91
268.279	10.07
268.494	9.42
268.709	10.68
268.924	11.37
269.139	11.66
269.354	11.46
269.569	11.59
269.784	10.42
269.999	9.8
270.214	10.99
270.429	10.41
270.644	9.84
270.859	10.53
271.074	9.16
271.289	8.03
271.504	8.62
271.719	8.15
271.934	8.56
272.149	8.98
272.363	9.4
272.578	7.51
272.793	7.66
273.008	8.95
273.223	8.73
273.438	8.82
273.653	10.73
273.867	10.41
274.082	10.68
274.297	9.12
274.512	8
274.726	8.66
274.941	9.97
275.156	10.1
275.371	7.77
275.585	9.59
275.8	9.38
276.015	7.86
276.229	7.06
276.444	8.41
276.659	9.45
276.873	10.93
277.088	11.79
277.302	11.79
277.517	12.63
277.732	13.7
277.946	13.02
278.161	13.94
278.375	13.28
278.59	14.38
278.804	13.43
279.019	12.6
279.233	12.78
279.448	10.73
279.662	10.93
279.877	10.38
280.091	9.92
280.306	8.96
280.52	7.88
280.735	8.8
280.949	7.53
281.163	7.73
281.378	8.12
281.592	8.09
281.806	9.18
282.021	10.05
282.235	9.31
282.449	10.22
282.664	10.21
282.878	11.36
283.092	11.99
283.307	12.85
283.521	12.5
283.735	12.7
283.949	12.16
284.164	10.49
284.378	9.86
284.592	9.28
284.806	9.19
285.02	9.33
285.234	9.27
285.449	7.54
285.663	7.77
285.877	8.49
286.091	9.37
286.305	9.08
286.519	10.28
286.733	10.42
286.947	11.59
287.161	11.29
287.375	12.03
287.589	12.42
287.803	14.32
288.017	14.45
288.231	14.5
288.445	13.95
288.659	14.17
288.873	14.48
289.087	14.36
289.301	14.56
289.515	15.16
289.729	14.84
289.943	14.41
290.157	13.57
290.371	13.38
290.584	13.53
290.798	13.3
291.012	13.31
291.226	13.07
291.44	12.27
291.654	12.33
291.867	11.81
292.081	11.91
292.295	12.12
292.509	12.01
292.722	11.96
292.936	12.25
293.15	11.63
293.364	12.4
293.577	11.64
293.791	13.57
294.005	12.62
294.218	12.94
294.432	12.72
294.645	13.12
294.859	13.02
295.073	12.21
295.286	11.23
295.5	12.6
295.713	12.1
295.927	12.57
296.14	11.76
296.354	12.01
296.568	12.47
296.781	12.8
296.994	12.35
297.208	11.98
297.421	13.08
297.635	12.76
297.848	11.68
298.062	12.29
298.275	12.19
298.489	12.06
298.702	11.98
298.915	11.19
299.129	10.84
299.342	9.72
299.555	10.32
299.769	9.98
299.982	10.92
300.195	12.12
300.409	11.2
300.622	11.13
300.835	11.69
301.048	12.49
301.262	13.2
301.475	13.56
301.688	15.02
301.901	15.54
302.115	14.88
302.328	15.26
302.541	14.64
302.754	15.48
302.967	16.49
303.18	16.33
303.393	16.2
303.607	15.24
303.82	14.94
304.033	14.15
304.246	13.88
304.459	15.18
304.672	15.48
304.885	16.1
305.098	16.17
305.311	15.24
305.524	15.67
305.737	14.94
305.95	15.18
306.163	15.01
306.376	14.72
306.589	14.7
306.802	13.98
307.015	12.03
307.228	11.27
307.44	10.84
307.653	12.28
307.866	12.12
308.079	10.77
308.292	10.49
308.505	10.74
308.718	11.96
308.93	11.59
309.143	10.45
309.356	10.76
309.569	10.57
309.781	10.45
309.994	9.89
310.207	9.77
310.42	11.3
310.632	11.58
310.845	11.72
311.058	11.56
311.27	11.55
311.483	13.09
311.696	13.09
311.908	13.35
312.121	13.89
312.333	13.46
312.546	12.96
312.759	12.65
312.971	12.67
313.184	13.2
313.396	13.41
313.609	13.02
313.821	11.95
314.034	13.27
314.246	14.16
314.459	14.19
314.671	13.88
314.884	14.31
315.096	14.51
315.309	14.26
315.521	13.52
315.733	13.43
315.946	13.95
316.158	13.82
316.371	13.15
316.583	12.2
316.795	12.13
317.008	12.95
317.22	12.67
317.432	12.75
317.644	13.18
317.857	12.61
318.069	10.69
318.281	11.45
318.494	11.79
318.706	11.7
318.918	11.28
319.13	9.84
319.342	9.51
319.555	9.63
319.767	9.31
319.979	9.5
320.191	9.87
320.403	12.1
320.615	11.08
320.827	11.04
321.039	10.94
321.252	11.51
321.464	11.5
321.676	10.16
321.888	10.45
322.1	10.2
322.312	10.06
322.524	9.82
322.736	9.12
322.948	10.8
323.16	10.78
323.372	10.92
323.584	11.55
323.796	12.95
324.007	14.25
324.219	14.48
324.431	14.97
324.643	15.72
324.855	15.69
325.067	16.41
325.279	15.27
325.491	14.6
325.702	14.33
325.914	14.42
326.126	14.02
326.338	13.27
326.55	13.88
326.761	13.24
326.973	12.81
327.185	13.81
327.396	13.2
327.608	13.71
327.82	14.49
328.032	14.38
328.243	13.34
328.455	13.98
328.666	15
328.878	14.92
329.09	15.48
329.301	16.34
329.513	15.67
329.725	16.16
329.936	15.9
330.148	15.55
330.359	16.53
330.571	17.27
330.782	16.41
330.994	15.65
331.205	15.35
331.417	15.89
331.628	15.58
331.84	16.07
332.051	16.01
332.262	15.89
332.474	17.22
332.685	16.99
332.897	16.8
333.108	16.81
333.319	17.74
333.531	17.21
333.742	16.16
333.953	15.34
334.165	14.98
334.376	14.97
334.587	16.08
334.799	15.7
335.01	15.6
335.221	16.57
335.432	17
335.644	17.41
335.855	18.07
336.066	19.21
336.277	20.02
336.488	19.85
336.7	19.36
336.911	18.43
337.122	18.87
337.333	19.47
337.544	19.43
337.755	20.17
337.966	19.65
338.177	19.51
338.388	19.31
338.599	18.68
338.811	19.39
339.022	19.67
339.233	19.45
339.444	18.23
339.655	17.85
339.866	17.71
340.076	16.69
340.287	16.78
340.498	16.84
340.709	16.77
340.92	17.13
341.131	16.9
341.342	17.41
341.553	17.94
341.764	17.75
341.975	18.02
342.185	16.98
342.396	17.06
342.607	17.08
342.818	17.07
343.029	17.48
343.239	17.97
343.45	17.09
343.661	16.95
343.872	16.17
344.082	17.61
344.293	16.33
344.504	16.75
344.714	17.09
344.925	17.09
345.136	16.33
345.346	15.81
345.557	15.13
345.768	15.79
345.978	15.47
346.189	16.6
346.399	15.81
346.61	16.96
346.821	16.79
347.031	15.49
347.242	15.49
347.452	16.21
347.663	16.19
347.873	16.42
348.084	16.3
348.294	15.95
348.504	15.76
348.715	15.85
348.925	15.57
349.136	16.03
349.346	17.77
349.557	17.24
349.767	16.87
349.977	16.89
350.188	17.06
350.398	17.36
350.608	17.41
350.819	17.9
351.029	17.23
351.239	17.3
351.449	17.61
351.66	17.53
351.87	18.02
352.08	18.35
352.29	18.51
352.501	17.96
352.711	17.75
352.921	17.4
353.131	16.84
353.341	17
353.552	16.72
353.762	16.23
353.972	16.41
354.182	17.09
354.392	16.85
354.602	16.79
354.812	17.33
355.022	17.04
355.232	17.6
355.442	16.74
355.652	17.33
355.862	17.37
356.072	17.14
356.282	16.74
356.492	15.79
356.702	15.63
356.912	15.27
357.122	15.45
357.332	15.42
357.542	15.38
357.752	16.42
357.962	16.3
358.171	15.85
358.381	16.05
358.591	15.33
358.801	15.85
359.011	16.1
359.221	16.17
359.43	15.79
359.64	16.16
359.85	16.18
360.06	15.14
360.269	15.34
360.479	15.6
360.689	14.96
360.899	15.14
361.108	14.44
361.318	13.9
361.528	13.62
361.737	13.19
361.947	13.26
362.156	12.93
362.366	13.43
362.576	12.96
362.785	12.73
362.995	13.6
363.204	13.34
363.414	13.61
363.623	14.53
363.833	14.51
364.042	15.23
364.252	14.66
364.461	14.71
364.671	14.38
364.88	14.39
365.09	14.71
365.299	14.84
365.509	15.05
365.718	14.93
365.927	14
366.137	14.01
366.346	13.65
366.555	13.91
366.765	14.56
366.974	14.67
367.183	14.54
367.393	14.82
367.602	14.44
367.811	14.62
368.021	14.68
368.23	15.13
368.439	15.47
368.648	15.24
368.857	15.5
369.067	14.78
369.276	15.22
369.485	15.51
369.694	15.15
369.903	14.49
370.112	14.34
370.321	14.33
370.531	13.5
370.74	12.98
370.949	12.91
371.158	12.69
371.367	12.76
371.576	12.01
371.785	12.07
371.994	12.16
372.203	12.3
372.412	12.26
372.621	11.64
372.83	11.89
373.039	12.39
373.248	11.92
373.457	11.58
373.666	11.65
373.874	11.32
374.083	11.59
374.292	11.25
374.501	11.4
374.71	11.4
374.919	11.87
375.128	12.17
375.336	11.8
375.545	12.78
375.754	13.07
375.963	12.66
376.171	13.11
376.38	12.44
376.589	12.08
376.798	11.94
377.006	12.13
377.215	11.74
377.424	11.82
377.632	12.11
377.841	11.63
378.05	11.41
378.258	11.53
378.467	11.1
378.675	11.38
378.884	11.64
379.093	11.46
379.301	11.43
379.51	11.6
379.718	11.8
379.927	12.04
380.135	12.06
380.344	12.17
380.552	12.33
380.761	12.66
380.969	12.59
381.177	12.67
381.386	12.69
381.594	12.74
381.803	12.51
382.011	12.25
382.219	11.83
382.428	11.92
382.636	11.98
382.845	11.94
383.053	12.16
383.261	12.02
383.469	11.9
383.678	12.22
383.886	11.96
384.094	11.88
384.302	11.3
384.511	11.32
384.719	10.97
384.927	10.82
385.135	10.74
385.343	10.33
385.552	10.72
385.76	11.07
385.968	10.96
386.176	10.98
386.384	11.38
386.592	11.44
386.8	11.28
387.008	11.68
387.216	11.75
387.424	11.9
387.633	11.76
387.841	10.96
388.049	10.68
388.257	10.47
388.465	10.23
388.672	10.16
388.88	10.15
389.088	10.3
389.296	9.86
389.504	9.75
389.712	9.42
389.92	9.5
390.128	9.61
390.336	9.57
390.544	9.52
390.751	9.61
390.959	9.64
391.167	9.98
391.375	9.5
391.583	9.6
391.79	9.44
391.998	9.59
392.206	9.79
392.414	9.59
392.621	9.54
392.829	9.28
393.037	9.31
393.244	9.29
393.452	9.07
393.66	9.51
393.867	9.57
394.075	9.9
394.283	9.44
394.49	9.32
394.698	9.49
394.905	9.41
395.113	9.6
395.32	9.61
395.528	9.29
395.735	9.42
395.943	9.23
396.15	9.41
396.358	8.96
396.565	9.2
396.773	9.19
396.98	9.35
397.188	9.37
397.395	9.34
397.602	9.38
397.81	9.61
398.017	9.42
398.225	9.47
398.432	9.25
398.639	9.24
398.847	9.05
399.054	9.15
399.261	9.29
399.468	9.37
399.676	9.7
399.883	9.77
400.09	9.79
400.297	9.88
400.505	9.9
400.712	9.65
400.919	9.48
401.126	10.14
401.333	9.84
401.54	9.86
401.748	9.55
401.955	9.28
402.162	9.08
402.369	9.15
402.576	9.03
402.783	8.98
402.99	8.77
403.197	8.92
403.404	8.61
403.611	8.93
403.818	8.79
404.025	8.89
404.232	8.79
404.439	8.55
404.646	8.21
404.853	8.44
405.06	8.66
405.267	9.1
405.474	9.08
405.681	8.96
405.887	8.75
406.094	8.85
406.301	8.88
406.508	8.9
406.715	9.09
406.922	9.34
407.128	9.22
407.335	8.93
407.542	8.79
407.749	9.01
407.955	8.87
408.162	8.68
408.369	8.81
408.575	9.17
408.782	9.34
408.989	9.42
409.195	9.37
409.402	9.27
409.609	9.16
409.815	8.89
410.022	8.8
410.228	9.07
410.435	9.3
410.642	8.97
410.848	8.87
411.055	8.73
411.261	8.58
411.468	8.4
411.674	8.48
411.881	8.52
412.087	8.7
412.294	8.89
412.5	8.85
412.706	8.82
412.913	9.05
413.119	8.88
413.326	9.08
413.532	9.28
413.738	9.48
413.945	9.35
414.151	9.23
414.357	9.31
414.564	9.29
414.77	9.52
414.976	9.59
415.182	9.46
415.389	9.47
415.595	9.44
415.801	9.31
416.007	9.24
416.214	9.18
416.42	9.21
416.626	9.27
416.832	8.96
417.038	8.65
417.244	8.67
417.45	8.69
417.657	8.66
417.863	8.68
418.069	8.84
418.275	8.85
418.481	8.86
418.687	8.77
418.893	8.59
419.099	8.63
419.305	8.63
419.511	8.63
419.717	8.5
419.923	8.45
420.129	8.4
420.335	8.25
420.541	8.16
420.746	8.04
420.952	8.13
421.158	8.25
421.364	8.39
421.57	8.4
421.776	8.43
421.982	8.51
422.187	8.51
422.393	8.46
422.599	8.38
422.805	8.53
423.01	8.76
423.216	8.78
423.422	8.73
423.628	8.64
423.833	8.61
424.039	8.62
424.245	8.56
424.45	8.61
424.656	8.55
424.862	8.6
425.067	8.52
425.273	8.4
425.478	8.41
425.684	8.38
425.889	8.43
426.095	8.45
426.301	8.38
426.506	8.39
426.712	8.12
426.917	8.11
427.123	8.05
427.328	8.14
427.533	8.26
427.739	8.27
427.944	8.43
428.15	8.33
428.355	8.42
428.561	8.45
428.766	8.44
428.971	8.72
429.177	8.83
429.382	9.1
429.587	8.93
429.793	8.97
429.998	9.07
430.203	8.73
430.408	8.81
430.614	8.66
430.819	8.51
431.024	8.6
431.229	8.77
431.434	8.56
431.64	8.32
431.845	8.48
432.05	8.56
432.255	8.41
432.46	8.62
432.665	8.42
432.87	8.34
433.076	8.41
433.281	8.31
433.486	8.05
433.691	8.29
433.896	8.21
434.101	8.05
434.306	7.92
434.511	7.94
434.716	7.83
434.921	7.77
435.126	7.91
435.331	7.93
435.535	8.03
435.74	8.02
435.945	7.81
436.15	7.79
436.355	7.92
436.56	7.89
436.765	7.93
436.97	8.03
437.174	8.26
437.379	8.32
437.584	8.23
437.789	8.22
437.993	8.36
438.198	8.4
438.403	8.57
438.608	8.59
438.812	8.41
439.017	8.3
439.222	8.37
439.426	8.34
439.631	8.37
439.836	8.42
440.04	8.29
440.245	8.21
440.45	8.25
440.654	8.11
440.859	7.99
441.063	8.01
441.268	7.95
441.472	7.86
441.677	7.74
441.881	7.74
442.086	7.68
442.29	7.78
442.495	7.86
442.699	7.84
442.904	7.91
443.108	7.88
443.312	7.98
443.517	8.18
443.721	8.31
443.925	8.25
444.13	8.06
444.334	8.09
444.538	8.02
444.743	7.9
444.947	7.84
445.151	7.79
445.356	7.78
445.56	7.76
445.764	7.61
445.968	7.5
446.173	7.6
446.377	7.65
446.581	7.69
446.785	7.74
446.989	7.75
447.193	7.82
447.398	7.85
447.602	7.79
447.806	7.68
448.01	7.71
448.214	7.75
448.418	7.72
448.622	7.77
448.826	7.74
449.03	7.54
449.234	7.58
449.438	7.37
449.642	7.36
449.846	7.41
450.05	7.58
450.254	7.64
450.458	7.44
450.662	7.67
450.866	7.49
451.069	7.42
451.273	7.49
451.477	7.43
451.681	7.58
451.885	7.62
452.089	7.69
452.292	7.85
452.496	7.72
452.7	7.87
452.904	7.68
453.107	7.81
453.311	7.87
453.515	7.91
453.719	7.9
453.922	7.92
454.126	7.78
454.33	7.88
454.533	7.63
454.737	7.65
454.94	7.66
455.144	7.72
455.348	7.7
455.551	7.75
455.755	7.97
455.958	8.11
456.162	8.19
456.365	8.37
456.569	8.32
456.772	8.32
456.976	8.31
457.179	8.16
457.383	8.17
457.586	8.14
457.79	8
457.993	7.82
458.196	7.79
458.4	7.77
458.603	7.61
458.807	7.63
459.01	7.64
459.213	7.72
459.417	7.75
459.62	7.66
459.823	7.58
460.026	7.62
460.23	7.62
460.433	7.48
460.636	7.41
460.839	7.49
461.042	7.53
461.246	7.39
461.449	7.5
461.652	7.44
461.855	7.39
462.058	7.5
462.261	7.39
462.464	7.54
462.668	7.55
462.871	7.7
463.074	7.63
463.277	7.55
463.48	7.79
463.683	7.58
463.886	7.77
464.089	7.94
464.292	7.81
464.495	7.82
464.698	7.59
464.901	7.85
465.104	7.73
465.306	7.94
465.509	7.8
465.712	7.85
465.915	7.81
466.118	7.86
466.321	7.85
466.524	7.84
466.726	8.02
466.929	8.13
467.132	8.04
467.335	8.16
467.538	8.22
467.74	8.25
467.943	8.26
468.146	8.39
468.348	8.41
468.551	8.29
468.754	8.48
468.956	8.39
469.159	8.29
469.362	8.45
469.564	8.33
469.767	8.26
469.969	8.24
470.172	8.15
470.375	8.01
470.577	8.08
470.78	8.03
470.982	8.04
471.185	8.02
471.387	8.15
471.59	7.97
471.792	8.09
471.995	8.01
472.197	8.02
472.399	8.11
472.602	8.14
472.804	7.91
473.007	7.95
473.209	7.75
473.411	7.73
473.614	7.57
473.816	7.57
474.018	7.35
474.22	7.45
474.423	7.64
474.625	7.55
474.827	7.57
475.03	7.8
475.232	8.01
475.434	8.1
475.636	8.14
475.838	8.33
476.04	8.23
476.243	8.41
476.445	8.33
476.647	8.12
476.849	8
477.051	8
477.253	7.92
477.455	7.77
477.657	7.69
477.859	7.51
478.061	7.39
478.263	7.53
478.465	7.43
478.667	7.36
478.869	7.41
479.071	7.44
479.273	7.42
479.475	7.41
479.677	7.48
479.879	7.57
480.081	7.81
480.283	7.74
480.485	7.76
480.686	7.8
480.888	7.79
481.09	7.74
481.292	7.84
481.494	7.76
481.695	7.62
481.897	7.47
482.099	7.38
482.301	7.29
482.502	7.34
482.704	7.31
482.906	7.28
483.107	7.28
483.309	7.34
483.511	7.29
483.712	7.3
483.914	7.37
484.115	7.35
484.317	7.37
484.519	7.36
484.72	7.31
484.922	7.31
485.123	7.31
485.325	7.34
485.526	7.28
485.728	7.28
485.929	7.31
486.131	7.25
486.332	7.3
486.534	7.26
486.735	7.23
486.936	7.3
487.138	7.29
487.339	7.33
487.541	7.31
487.742	7.35
487.943	7.41
488.144	7.37
488.346	7.35
488.547	7.34
488.748	7.37
488.95	7.43
489.151	7.45
489.352	7.45
489.553	7.41
489.755	7.41
489.956	7.41
490.157	7.34
490.358	7.33
490.559	7.37
490.76	7.43
490.961	7.47
491.163	7.42
491.364	7.46
491.565	7.51
491.766	7.45
491.967	7.45
492.168	7.43
492.369	7.43
492.57	7.46
492.771	7.45
492.972	7.43
493.173	7.44
493.374	7.45
493.575	7.36
493.776	7.27
493.976	7.38
494.177	7.45
494.378	7.42
494.579	7.57
494.78	7.5
494.981	7.67
495.182	7.69
495.382	7.83
495.583	7.91
495.784	7.96
495.985	8.03
496.185	8.07
496.386	8.03
496.587	8.16
496.788	8.07
496.988	8.07
497.189	7.97
497.39	7.92
497.59	7.74
497.791	7.79
497.992	7.69
498.192	7.73
498.393	7.64
498.593	7.69
498.794	7.67
498.994	7.66
499.195	7.63
499.395	7.74
499.596	7.82
499.796	7.97
499.997	8
500.197	8.17
500.398	8
500.598	8.04
500.799	8.02
500.999	8.06
501.199	8.11
501.4	8.33
501.6	8.3
501.801	8.33
502.001	8.3
502.201	8.39
502.402	8.35
502.602	8.57
502.802	8.63
503.002	8.73
503.203	8.81
503.403	8.76
503.603	8.8
503.803	8.75
504.003	8.73
504.204	8.67
504.404	8.65
504.604	8.73
504.804	8.84
505.004	8.87
505.204	8.8
505.404	8.69
505.604	8.68
505.804	8.66
506.005	8.64
506.205	8.84
506.405	8.99
506.605	8.95
506.805	9.02
507.005	8.81
507.204	8.88
507.404	8.89
507.604	9.04
507.804	9.1
508.004	9.12
508.204	9.24
508.404	9.06
508.604	9
508.804	9.02
509.003	8.96
509.203	9.14
509.403	9.13
509.603	9.14
509.803	9.15
510.002	9.22
510.202	9.21
510.402	9.16
510.602	9.1
510.801	9.2
511.001	9.25
511.201	9.32
511.4	9.33
511.6	9.22
511.8	9.31
511.999	9.24
512.199	9.34
512.398	9.34
512.598	9.48
512.797	9.64
512.997	9.54
513.197	9.47
513.396	9.56
513.596	9.56
513.795	9.72
513.994	9.63
514.194	9.77
514.393	9.63
514.593	9.64
514.792	9.54
514.992	9.54
515.191	9.53
515.39	9.67
515.59	9.69
515.789	9.75
515.988	9.73
516.188	9.82
516.387	9.92
516.586	10.07
516.786	10.17
516.985	10.3
517.184	10.4
517.383	10.56
517.582	10.58
517.782	10.56
517.981	10.58
518.18	10.61
518.379	10.63
518.578	10.47
518.777	10.49
518.976	10.54
519.176	10.48
519.375	10.42
519.574	10.37
519.773	10.32
519.972	10.29
520.171	10.35
520.37	10.31
520.569	10.48
520.768	10.61
520.967	10.68
521.166	10.62
521.365	10.73
521.564	10.82
521.762	10.78
521.961	10.85
522.16	10.91
522.359	10.88
522.558	10.89
522.757	10.81
522.956	10.82
523.154	10.79
523.353	10.9
523.552	10.88
523.751	10.99
523.949	11.17
524.148	11.22
524.347	11.32
524.546	11.39
524.744	11.53
524.943	11.61
525.142	11.6
525.34	11.6
525.539	11.58
525.737	11.65
525.936	11.76
526.135	11.84
526.333	11.89
526.532	11.93
526.73	11.9
526.929	11.89
527.127	11.87
527.326	11.9
527.524	11.92
527.723	11.98
527.921	12
528.12	11.97
528.318	11.87
528.516	11.88
528.715	11.89
528.913	11.9
529.112	11.94
529.31	11.9
529.508	11.96
529.707	11.95
529.905	11.93
530.103	11.94
530.301	11.91
530.5	12.03
530.698	12.05
530.896	12.07
531.094	12.06
531.293	12.02
531.491	12.15
531.689	12.13
531.887	12.29
532.085	12.38
532.283	12.37
532.481	12.41
532.68	12.43
532.878	12.44
533.076	12.45
533.274	12.58
533.472	12.69
533.67	12.65
533.868	12.71
534.066	12.73
534.264	12.75
534.462	12.87
534.66	12.9
534.858	12.9
535.056	12.97
535.253	13.02
535.451	13.09
535.649	13.06
535.847	13.2
536.045	13.29
536.243	13.38
536.441	13.34
536.638	13.41
536.836	13.51
537.034	13.55
537.232	13.6
537.43	13.59
537.627	13.63
537.825	13.67
538.023	13.67
538.22	13.67
538.418	13.67
538.616	13.82
538.813	13.85
539.011	13.88
539.209	13.99
539.406	14.11
539.604	14.32
539.801	14.35
539.999	14.54
540.196	14.58
540.394	14.68
540.591	14.68
540.789	14.72
540.986	14.76
541.184	14.75
541.381	14.72
541.579	14.72
541.776	14.62
541.974	14.64
542.171	14.62
542.368	14.72
542.566	14.72
542.763	14.78
542.96	14.81
543.158	14.81
543.355	14.98
543.552	15.15
543.75	15.34
543.947	15.51
544.144	15.68
544.341	15.78
544.539	15.84
544.736	15.93
544.933	16.03
545.13	16.15
545.327	16.23
545.524	16.16
545.722	16.11
545.919	16.09
546.116	16.16
546.313	16.17
546.51	16.2
546.707	16.35
546.904	16.42
547.101	16.56
547.298	16.62
547.495	16.72
547.692	16.74
547.889	16.92
548.086	16.85
548.283	16.96
548.48	17.11
548.677	17.17
548.874	17.13
549.07	17.25
549.267	17.32
549.464	17.44
549.661	17.5
549.858	17.58
550.055	17.56
550.251	17.72
550.448	17.64
550.645	17.59
550.842	17.62
551.038	17.86
551.235	17.96
551.432	17.98
551.628	18.05
551.825	18.21
552.022	18.53
552.218	18.66
552.415	18.78
552.612	19.06
552.808	19.21
553.005	19.2
553.201	19.21
553.398	19.22
553.594	19.18
553.791	19.44
553.987	19.56
554.184	19.49
554.38	19.67
554.577	19.89
554.773	19.96
554.97	20.03
555.166	20.45
555.362	20.38
555.559	20.46
555.755	20.62
555.952	20.71
556.148	20.8
556.344	21.02
556.541	21.06
556.737	20.94
556.933	20.89
557.129	21.02
557.326	21.1
557.522	21.45
557.718	21.57
557.914	21.75
558.11	21.56
558.307	21.46
558.503	21.62
558.699	21.76
558.895	21.83
559.091	21.94
559.287	22.07
559.483	22.1
559.679	22.26
559.876	22.47
560.072	22.47
560.268	22.76
560.464	23.11
560.66	23.17
560.856	23.35
561.052	23.55
561.247	23.88
561.443	23.86
561.639	24.05
561.835	24.06
562.031	24.07
562.227	24.35
562.423	24.3
562.619	24.44
562.815	24.75
563.01	24.45
563.206	24.65
563.402	24.47
563.598	24.77
563.793	24.81
563.989	24.82
564.185	25
564.381	24.92
564.576	25.09
564.772	25.13
564.968	25.11
565.163	25.57
565.359	25.54
565.555	25.58
565.75	25.51
565.946	25.52
566.141	25.54
566.337	25.58
566.532	25.71
566.728	25.75
566.923	25.58
567.119	25.56
567.314	25.52
567.51	25.62
567.705	25.94
567.901	26.02
568.096	26.17
568.292	26.47
568.487	26.39
568.682	26.55
568.878	26.71
569.073	27.08
569.268	27.12
569.464	27.15
569.659	27.34
569.854	27.45
570.05	27.59
570.245	27.67
570.44	27.56
570.635	27.73
570.831	27.76
571.026	27.91
571.221	27.93
571.416	28.04
571.611	28.22
571.806	28.2
572.002	28.21
572.197	28.3
572.392	28.23
572.587	28.34
572.782	28.5
572.977	28.61
573.172	28.47
573.367	28.58
573.562	28.6
573.757	28.52
573.952	28.71
574.147	28.79
574.342	28.92
574.537	29.03
574.732	29.1
574.927	29.3
575.121	29.2
575.316	29.35
575.511	29.44
575.706	29.39
575.901	29.52
576.096	29.53
576.29	29.7
576.485	29.53
576.68	29.67
576.875	29.59
577.069	29.39
577.264	29.6
577.459	29.53
577.654	29.51
577.848	29.63
578.043	29.68
578.238	29.57
578.432	29.43
578.627	29.68
578.821	29.81
579.016	29.93
579.21	30.01
579.405	30.02
579.6	30.24
579.794	30.37
579.989	30.66
580.183	31.04
580.378	31.16
580.572	31.22
580.766	31.43
580.961	31.57
581.155	31.67
581.35	32.05
581.544	32.18
581.738	32.29
581.933	32.26
582.127	32.27
582.321	32.01
582.516	32.06
582.71	32
582.904	31.93
583.099	31.89
583.293	31.9
583.487	31.68
583.681	31.65
583.875	31.79
584.07	31.83
584.264	31.66
584.458	31.82
584.652	32.06
584.846	32.36
585.04	32.33
585.234	32.19
585.428	32.4
585.623	32.49
585.817	32.51
586.011	32.38
586.205	32.53
586.399	32.81
586.593	32.79
586.787	32.8
586.981	32.57
587.174	32.7
587.368	32.89
587.562	32.9
587.756	32.92
587.95	33.08
588.144	33.23
588.338	32.88
588.532	32.84
588.725	32.78
588.919	32.7
589.113	32.89
589.307	32.68
589.501	32.38
589.694	32.3
589.888	32.39
590.082	32.29
590.275	32.06
590.469	32.4
590.663	32.36
590.856	32.43
591.05	32.56
591.244	32.51
591.437	32.86
591.631	33.22
591.824	33.51
592.018	33.58
592.212	33.62
592.405	33.53
592.599	33.51
592.792	33.55
592.986	33.85
593.179	33.85
593.372	33.96
593.566	33.85
593.759	34.09
593.953	34.1
594.146	34.05
594.339	34.02
594.533	34.33
594.726	34.45
594.92	34.52
595.113	34.45
595.306	34.47
595.499	34.47
595.693	34.42
595.886	33.99
596.079	33.77
596.272	33.87
596.466	34.04
596.659	34.12
596.852	34.1
597.045	34.12
597.238	33.91
597.431	33.95
597.624	34.16
597.818	34.19
598.011	34.38
598.204	34.46
598.397	34.45
598.59	34.49
598.783	34.54
598.976	34.4
599.169	34.41
599.362	34.44
599.555	34.51
599.748	34.51
599.941	34.77
600.134	34.96
600.326	34.99
600.519	35.02
600.712	35.11
600.905	35.31
601.098	35.44
601.291	35.48
601.483	35.58
601.676	35.41
601.869	35.28
602.062	35.22
602.255	35.09
602.447	35.08
602.64	35.07
602.833	34.82
603.025	34.67
603.218	34.92
603.411	35.01
603.603	35
603.796	35.08
603.989	35.1
604.181	35.16
604.374	35.19
604.566	35.35
604.759	35.28
604.951	35.22
605.144	35.15
605.336	35.17
605.529	35.14
605.721	35.37
605.914	35.35
606.106	35.36
606.299	35.33
606.491	35.35
606.683	35.34
606.876	35.41
607.068	35.76
607.26	35.82
607.453	35.81
607.645	36.02
607.837	36.07
608.03	36.11
608.222	36.09
608.414	36.07
608.606	36.08
608.799	36.04
608.991	36.02
609.183	35.95
609.375	35.96
609.567	35.76
609.759	35.62
609.952	35.51
610.144	35.4
610.336	35.47
610.528	35.55
610.72	35.46
610.912	35.44
611.104	35.5
611.296	35.64
611.488	35.7
611.68	35.64
611.872	35.69
612.064	35.81
612.256	36
612.448	35.83
612.64	35.85
612.832	36
613.023	36.12
613.215	36.05
613.407	36.06
613.599	36.27
613.791	36.74
613.983	36.47
614.174	36.17
614.366	36.25
614.558	36.38
614.75	36.2
614.941	36.17
615.133	36.18
615.325	36.5
615.516	36.38
615.708	36.12
615.9	35.99
616.091	36.36
616.283	36.43
616.475	36.62
616.666	36.77
616.858	36.84
617.049	36.82
617.241	37.05
617.432	36.77
617.624	36.9
617.815	36.95
618.007	36.91
618.198	36.76
618.39	36.98
618.581	36.77
618.773	36.82
618.964	37.02
619.155	37.16
619.347	36.65
619.538	36.8
619.729	36.69
619.921	36.88
620.112	36.81
620.303	36.74
620.494	36.68
620.686	36.8
620.877	36.72
621.068	36.47
621.259	36.45
621.451	36.84
621.642	36.78
621.833	36.83
622.024	36.89
622.215	37.09
622.406	37.17
622.597	37.38
622.788	37.51
622.98	37.69
623.171	37.9
623.362	38.09
623.553	38.13
623.744	38.37
623.935	38.1
624.126	38.11
624.317	37.95
624.508	38.07
624.698	37.96
624.889	37.8
625.08	37.64
625.271	37.77
625.462	37.8
625.653	37.7
625.844	37.58
626.034	37.45
626.225	37.34
626.416	37.59
626.607	37.69
626.798	37.81
626.988	37.79
627.179	37.87
627.37	37.64
627.56	37.46
627.751	37.59
627.942	37.47
628.132	37.77
628.323	37.75
628.514	37.6
628.704	37.49
628.895	37.47
629.085	37.49
629.276	37.32
629.466	37.25
629.657	37.24
629.847	37.19
630.038	37.39
630.228	37.48
630.419	37.57
630.609	37.53
630.8	37.68
630.99	37.66
631.181	37.73
631.371	37.85
631.561	38.21
631.752	38.31
631.942	38.24
632.132	38.07
632.323	37.94
632.513	37.92
632.703	38.07
632.893	37.98
633.084	37.75
633.274	37.74
633.464	37.66
633.654	37.45
633.844	37.42
634.034	37.62
634.225	37.86
634.415	38.01
634.605	38.11
634.795	37.86
634.985	37.84
635.175	37.86
635.365	37.78
635.555	37.86
635.745	38.12
635.935	38.24
636.125	37.87
636.315	37.64
636.505	37.81
636.695	37.7
636.885	37.67
637.075	37.63
637.265	37.57
637.455	37.75
637.644	37.9
637.834	37.65
638.024	37.65
638.214	38.01
638.404	37.81
638.593	37.57
638.783	37.52
638.973	37.67
639.163	37.81
639.352	38.11
639.542	38
639.732	37.94
639.921	37.88
640.111	37.85
640.301	37.73
640.49	38.26
640.68	38.63
640.87	39.18
641.059	38.95
641.249	39.1
641.438	39.06
641.628	39.05
641.817	38.92
642.007	39.21
642.196	39.27
642.386	39.28
642.575	38.84
642.764	38.64
642.954	38.19
643.143	38.59
643.333	38.33
643.522	38.16
643.711	38.09
643.901	38.54
644.09	39
644.279	39.04
644.469	39.33
644.658	39.7
644.847	39.75
645.036	39.75
645.226	39.44
645.415	39.3
645.604	39.43
645.793	39.35
645.982	38.95
646.171	38.51
646.361	38.44
646.55	38.5
646.739	38.61
646.928	38.44
647.117	38.46
647.306	39
647.495	39.3
647.684	39.36
647.873	39.85
648.062	40.23
648.251	39.85
648.44	39.78
648.629	39.35
648.818	38.85
649.007	39.1
649.196	39.15
649.384	39.1
649.573	39.05
649.762	39.03
649.951	39.05
650.14	38.65
650.328	39.06
650.517	39.09
650.706	39.43
650.895	39.55
651.083	39.61
651.272	39.48
651.461	39.36
651.65	39.92
651.838	39.9
652.027	39.53
652.216	39.45
652.404	39.17
652.593	39.41
652.781	39.06
652.97	39.65
653.158	39.45
653.347	39.48
653.535	39.7
653.724	39.36
653.912	39.15
654.101	39.23
654.289	39.61
654.478	39.7
654.666	39.08
654.855	39.43
655.043	38.77
655.231	38.86
655.42	39
655.608	38.95
655.796	38.8
655.985	38.96
656.173	39.24
656.361	39.22
656.55	39.49
656.738	40.21
656.926	40.01
657.114	40.5
657.302	40.66
657.491	40.5
657.679	40.24
657.867	40.51
658.055	40.58
658.243	40.26
658.431	40.32
658.619	40.48
658.807	40.32
658.996	40.39
659.184	40.34
659.372	40.33
659.56	40.44
659.748	40.57
659.936	40.48
660.124	40.46
660.311	40.73
660.499	40.68
660.687	40.46
660.875	40.43
661.063	40.17
661.251	39.85
661.439	39.68
661.627	39.83
661.814	39.56
662.002	39.19
662.19	39.23
662.378	38.63
662.565	38.39
662.753	38.37
662.941	38.33
663.129	38.73
663.316	38.92
663.504	38.46
663.692	38.36
663.879	38.67
664.067	39.08
664.254	39.15
664.442	39.52
664.63	39.93
664.817	39.74
665.005	39.52
665.192	39.5
665.38	39.67
665.567	40.06
665.755	40.32
665.942	40.62
666.13	40.31
666.317	40.54
666.504	40.72
666.692	40.72
666.879	40.73
667.067	41.28
667.254	40.85
667.441	40.52
667.629	40.11
667.816	39.41
668.003	39
668.19	38.97
668.378	38.68
668.565	38.66
668.752	38.51
668.939	39.05
669.127	38.95
669.314	39.23
669.501	39.39
669.688	39.83
669.875	40.21
670.062	40.12
670.249	40.26
670.436	40.58
670.623	40.68
670.81	40.37
670.997	39.61
671.184	39.27
671.371	39.36
671.558	39.48
671.745	39.59
671.932	39.36
672.119	39.74
672.306	40.19
672.493	39.93
672.68	40.17
672.867	40.37
673.054	40.89
673.24	41.03
673.427	40.99
673.614	40.83
673.801	40.75
673.988	41.25
674.174	40.89
674.361	40.58
674.548	40.64
674.734	40.29
674.921	40.16
675.108	40.17
675.294	40.41
675.481	40.25
675.668	40.38
675.854	40.41
676.041	40.16
676.227	40.17
676.414	40.26
676.601	40.42
676.787	40.79
676.974	41.06
677.16	40.9
677.347	40.82
677.533	41.36
677.719	41.14
677.906	41.07
678.092	40.87
678.279	40.91
678.465	40.85
678.651	40.69
678.838	40.25
679.024	40.3
679.21	40.4
679.397	40.45
679.583	40.09
679.769	40.34
679.955	40.3
680.142	40.46
680.328	40.63
680.514	40.66
680.7	40.58
680.886	40.62
681.073	40.39
681.259	40.69
681.445	40.67
681.631	40.77
681.817	40.77
682.003	40.74
682.189	40.66
682.375	40.62
682.561	40.69
682.747	40.91
682.933	40.94
683.119	41.03
683.305	40.32
683.491	40.05
683.677	39.88
683.863	39.81
684.049	39.89
684.235	40.01
684.42	40.06
684.606	39.75
684.792	39.67
684.978	39.77
685.164	39.93
685.349	40.76
685.535	41.19
685.721	41.3
685.907	40.76
686.092	41.11
686.278	41.09
686.464	41.23
686.649	41.1
686.835	41.32
687.021	41.38
687.206	41.28
687.392	40.48
687.577	40.19
687.763	40.32
687.948	41.01
688.134	41
688.319	41.38
688.505	41.33
688.69	41.91
688.876	41.5
689.061	41.88
689.247	42.19
689.432	42.28
689.618	42.41
689.803	42.07
689.988	41.89
690.174	41.45
690.359	40.85
690.544	40.98
690.73	40.47
690.915	40.55
691.1	39.85
691.285	39.62
691.471	40.07
691.656	40.01
691.841	40.3
692.026	40.04
692.211	39.82
692.396	39.96
692.582	39.85
692.767	39.71
692.952	39.88
693.137	40.14
693.322	40.17
693.507	40.43
693.692	40.35
693.877	40.87
694.062	40.99
694.247	42.09
694.432	42.21
694.617	42.08
694.802	43.16
694.987	43.37
695.172	43.37
695.357	43.28
695.541	43.28
695.726	43.09
695.911	42.41
696.096	42.66
696.281	41.83
696.466	42.07
696.65	41.53
696.835	40.49
697.02	40.14
697.204	39.82
697.389	39.87
697.574	39.7
697.759	39.76
697.943	39.88
698.128	39.73
698.312	39.95
698.497	39.68
698.682	40.15
698.866	40.49
699.051	40.42
699.235	40.52
699.42	40.64
699.604	40.71
699.789	40.77
699.973	40.88
700.158	41.07
700.342	41.1
700.527	41.6
700.711	41.44
700.895	41.44
701.08	41.57
701.264	41.47
701.448	41.75
701.633	41.37
701.817	41.7
702.001	41.33
702.186	41.4
702.37	40.65
702.554	39.9
702.738	40.17
702.923	39.93
703.107	40.13
703.291	40.94
703.475	40.5
703.659	40.75
703.843	40.65
704.027	41.38
704.212	41.54
704.396	42.62
704.58	43.07
704.764	42.74
704.948	43.27
705.132	43.25
705.316	43.61
705.5	43.92
705.684	44.4
705.868	44.8
706.052	44.75
706.235	44.69
706.419	44.31
706.603	44.4
706.787	44.47
706.971	44.87
707.155	44.14
707.339	43.58
707.522	42.56
707.706	42.16
707.89	41.75
708.074	41.24
708.257	40.38
708.441	40.32
708.625	40.44
708.808	40.23
708.992	39.62
709.176	39.62
709.359	39.34
709.543	39.62
709.727	39.85
709.91	40.22
710.094	40.55
710.277	41.53
710.461	41.38
710.644	41.53
710.828	41.73
711.011	41.52
711.195	42.05
711.378	42.27
711.562	42.16
711.745	42.12
711.928	41.61
712.112	41.68
712.295	41.3
712.478	42.27
712.662	41.33
712.845	41.6
713.028	41.43
713.212	41.55
713.395	41.32
713.578	41.61
713.761	41.39
713.945	41.62
714.128	41.68
714.311	41.82
714.494	41.02
714.677	41.27
714.86	41.19
715.043	41.62
715.227	41.69
715.41	41.98
715.593	42.19
715.776	42.27
715.959	42.55
716.142	42.88
716.325	43.14
716.508	42.87
716.691	43.32
716.874	43.41
717.057	44.04
717.239	44
717.422	43.93
717.605	44.33
717.788	44.53
717.971	44.72
718.154	44.51
718.337	44.64
718.519	45.01
718.702	45.11
718.885	44.94
719.068	44.33
719.25	44.37
719.433	44.67
719.616	44.01
719.798	43.91
719.981	43.39
720.164	42.81
720.346	42.5
720.529	42.51
720.712	42.03
720.894	42.03
721.077	42.41
721.259	41.69
721.442	41.36
721.624	41.52
721.807	42
721.989	42
722.172	42.71
722.354	42.6
722.537	43.08
722.719	42.99
722.901	43.24
723.084	42.56
723.266	43.58
723.448	43.72
723.631	43.55
723.813	43.24
723.995	43.2
724.178	42.24
724.36	42.02
724.542	41.86
724.724	42.22
724.907	43.13
725.089	42.95
725.271	42.75
725.453	42.66
725.635	43.89
725.817	43.93
725.999	44.44
726.181	44.6
726.364	44.11
726.546	44.28
726.728	44.8
726.91	45.07
727.092	45.44
727.274	44.94
727.456	45.58
727.638	44.92
727.819	44.17
728.001	43.63
728.183	44.26
728.365	44.71
728.547	44.13
728.729	43.83
728.911	42.7
729.093	42.42
729.274	43.19
729.456	43.17
729.638	42.94
729.82	43.33
730.001	43.5
730.183	43.03
730.365	43.5
730.546	43.35
730.728	43.53
730.91	43.69
731.091	43.57
731.273	42.96
731.455	42.17
731.636	42.68
731.818	42.51
731.999	42.22
732.181	42.41
732.362	42.23
732.544	42.97
732.725	42.55
732.907	42.63
733.088	43.37
733.27	43.07
733.451	42.93
733.633	42.62
733.814	42.96
733.995	42.74
734.177	42.92
734.358	42.3
734.539	41.77
734.721	41.73
734.902	41.55
735.083	41.09
735.264	41.6
735.446	42.88
735.627	42.84
735.808	42.54
735.989	42.76
736.17	42.71
736.351	43.32
736.533	43.43
736.714	43.72
736.895	43.67
737.076	43.79
737.257	44.03
737.438	43.38
737.619	42.78
737.8	42.43
737.981	42.97
738.162	43.43
738.343	44.19
738.524	44.49
738.705	44.25
738.886	43.92
739.067	44.16
739.247	44.18
739.428	43.42
739.609	44.3
739.79	44.64
739.971	44.31
740.151	43.72
740.332	43
740.513	42.42
740.694	42.43
740.874	42.58
741.055	42.03
741.236	41.77
741.417	42.21
741.597	41.84
741.778	42.33
741.958	42.45
742.139	43.07
742.32	43.13
742.5	43.84
742.681	43.72
742.861	44.06
743.042	44.28
743.222	44.3
743.403	44.32
743.583	44.94
743.764	44.27
743.944	43.91
744.124	43.61
744.305	42.95
744.485	42.69
744.666	43.04
744.846	42.6
745.026	43.35
745.207	43.31
745.387	43.37
745.567	43.05
745.747	44.5
745.928	45.42
746.108	45.91
746.288	46.62
746.468	46.14
746.648	46.59
746.829	47.11
747.009	46.83
747.189	47.09
747.369	46.43
747.549	46.02
747.729	45.23
747.909	44.66
748.089	44.27
748.269	43.72
748.449	44.39
748.629	43.49
748.809	42.33
748.989	42.5
749.169	42.73
749.349	42.85
749.529	42.47
749.709	41.88
749.889	41.43
750.068	40.92
750.248	41.25
750.428	41.39
750.608	40.78
750.788	42.85
750.967	42.41
751.147	42.92
751.327	44.06
751.507	44.49
751.686	44.64
751.866	45.7
752.046	45.05
752.225	44.61
752.405	44.25
752.585	45.27
752.764	44.14
752.944	44.53
753.123	44.18
753.303	43.4
753.482	44.12
753.662	45.37
753.841	44.29
754.021	45.29
754.2	45.89
754.38	46.69
754.559	47.12
754.739	46.35
754.918	45.38
755.097	44.44
755.277	44.31
755.456	43.8
755.635	42.11
755.815	43.41
755.994	42.57
756.173	42.84
756.352	42.8
756.532	41.86
756.711	42.31
756.89	42.81
757.069	43.45
757.248	43.11
757.427	42.51
757.607	43.78
757.786	43.73
757.965	44.49
758.144	43.69
758.323	41.85
758.502	42.62
758.681	42.18
758.86	41.99
759.039	42.27
759.218	42.11
759.397	42.73
759.576	42.12
759.755	41.47
759.934	41.52
760.113	42.07
760.291	43.1
760.47	43.19
760.649	43.43
760.828	42.87
761.007	42.3
761.186	42.9
761.364	43.61
761.543	43.32
761.722	43.41
761.901	42.98
762.079	43.15
762.258	43.66
762.437	42.89
762.615	43.38
762.794	43.57
762.972	43.54
763.151	43.49
763.33	43.37
763.508	43.36
763.687	43.66
763.865	43.92
764.044	43.6
764.222	43.46
764.401	44.37
764.579	44.23
764.758	43.71
764.936	44.57
765.114	44.89
765.293	44.51
765.471	45
765.65	44.95
765.828	44.98
766.006	44.43
766.184	44.29
766.363	43.79
766.541	43.07
766.719	44.27
766.898	43.33
767.076	42.9
767.254	42.99
767.432	43.12
767.61	42.23
767.788	41.34
767.967	42.23
768.145	42.23
768.323	41.39
768.501	42.62
768.679	42.65
768.857	42.32
769.035	42.96
769.213	42.73
769.391	41.72
769.569	42.9
769.747	45.08
769.925	46.67
770.103	46.43
770.281	45.84
770.459	45.41
770.636	44.97
770.814	45.45
770.992	44.93
771.17	44.64
771.348	45.3
771.525	45.04
771.703	44.91
771.881	42.48
772.059	43
772.236	44
772.414	44.04
772.592	43.88
772.769	44.71
772.947	45.3
773.125	45.97
773.302	45.91
773.48	45.53
773.657	43.82
773.835	45.86
774.013	44.77
774.19	46.67
774.368	47.46
774.545	47.64
774.723	47.15
774.9	45.84
775.077	45.53
775.255	45.49
775.432	45.7
775.61	46.78
775.787	45.58
775.964	46.8
776.142	45.05
776.319	44.69
776.496	44.14
776.674	44.26
776.851	46.35
777.028	47
777.205	46.55
777.382	47.11
777.56	46.23
777.737	48.27
777.914	48.29
778.091	49.4
778.268	49.3
778.445	50.45
778.622	49.81
778.8	49.03
778.977	47.74
779.154	54.9
779.331	55.19
779.508	55.56
779.685	53.52
779.862	53.33
780.038	51.41
780.215	51.55
780.392	50.99
780.569	50.46
780.746	50.9
780.923	52.76
781.1	45.09
781.277	45.97
781.453	45.77
781.63	45.36
781.807	44.36
781.984	44.84
782.16	44.66
782.337	44.78
782.514	45.89
782.691	45.15
782.867	44.76
783.044	46.05
783.221	44.35
783.397	43.23
783.574	43.05
783.75	44.13
783.927	46.14
784.103	47.3
784.28	48.82
784.456	49.39
784.633	49.36
784.809	47.56
784.986	47.46
785.162	46.74
785.339	47.15
785.515	47.01
785.692	46.51
785.868	45.59
786.044	44.2
786.221	43.3
786.397	42.64
786.573	42.62
786.749	43.35
786.926	43.17
787.102	44.29
787.278	45.56
787.454	45.74
787.631	46.58
787.807	45.11
787.983	46.1
788.159	44.56
788.335	44.4
788.511	45.17
788.687	44.33
788.863	44.14
789.039	44.11
789.216	42.63
789.392	43.71
789.568	44.82
789.744	44.11
789.919	44.62
790.095	46.62
790.271	46.33
790.447	44.69
790.623	45.04
790.799	44.97
790.975	43.71
791.151	45.05
791.327	43.83
791.502	42.05
791.678	44.2
791.854	42.16
792.03	42
792.205	42.71
792.381	42.49
792.557	43.37
792.733	42.67
792.908	43.83
793.084	43.43
793.259	42.07
793.435	41.85
793.611	42.66
793.786	43.8
793.962	42.58
794.137	43.32
794.313	43.93
794.488	43.87
794.664	46.26
794.839	45.53
795.015	45.43
795.19	47.93
795.366	48.98
795.541	46.66
795.716	45.65
795.892	47.75
796.067	47.17
796.242	48.46
796.418	49.35
796.593	48.77
796.768	48.86
796.944	49.89
797.119	49.87
797.294	50.72
797.469	52.9
797.644	53.1
797.82	52.07
797.995	52.71
798.17	51.92
798.345	51.72
798.52	51.42
798.695	52.45
798.87	50.67
799.045	49.05
799.22	46.37
799.395	43.64
799.57	44.67
799.745	43.89
799.92	43.13
800.095	42.47
800.27	41.37
800.445	40.5
800.62	40.77
800.795	41.76
800.97	42.28
801.145	42.18
801.319	44.7
801.494	44.14
801.669	44.67
801.844	43.18
802.018	43.94
802.193	43.07
802.368	43.19
802.543	41.9
802.717	43.33
802.892	43.23
803.067	45.36
803.241	45.27
803.416	44.22
803.59	43.37
803.765	45.41
803.94	46.45
804.114	47.91
804.289	50.08
804.463	49.07
804.638	48.03
804.812	48.3
804.986	49.07
805.161	47.39
805.335	46.59
805.51	47.85
805.684	46.72
805.858	45.72
806.033	44.2
806.207	42.67
806.381	44.63
806.556	41.15
806.73	42.94
806.904	43.28
807.078	44.41
807.253	44.83
807.427	44.72
807.601	43.19
807.775	43.74
807.949	44.08
808.123	41.85
808.298	41.91
808.472	45.88
808.646	46.05
808.82	44.74
808.994	42.68
809.168	44.82
809.342	43.84
809.516	43.71
809.69	41.61
809.864	43.28
810.038	45.22
810.212	44.38
810.385	42.25
810.559	41.67
810.733	41.94
810.907	43.13
811.081	40.39
811.255	41.18
811.428	42.39
811.602	43.8
811.776	43.87
811.95	44.12
812.123	45.82
812.297	47.7
812.471	48.07
812.644	47.74
812.818	47.28
812.992	46.28
813.165	43.56
813.339	44.1
813.512	46.41
813.686	46.93
813.86	47.7
814.033	46.48
814.207	45.04
814.38	44.74
814.554	42.43
814.727	42.46
814.9	46.81
815.074	48.78
815.247	51.72
815.421	49.83
815.594	48.58
815.767	48.51
815.941	46.51
816.114	47.28
816.287	46.37
816.46	48.25
816.634	48.82
816.807	48.39
816.98	49.22
817.153	47.81
817.327	49.59
817.5	48.89
817.673	49.49
817.846	49.46
818.019	51.33
818.192	49.26
818.365	47.15
818.538	47.9
818.711	47.08
818.884	47.42
819.057	46.71
819.23	45.54
819.403	44.63
819.576	42.28
819.749	45.91
819.922	43.47
820.095	45.86
820.268	46.42
820.441	44.65
820.614	43.97
820.786	43.35
820.959	44.08
821.132	43.56
821.305	44.7
821.477	44.41
821.65	43.14
821.823	43.47
821.996	42.8
822.168	42.61
822.341	42.56
822.514	42.56
822.686	42.04
822.859	41.43
823.031	41.3
823.204	41.31
823.376	41.76
823.549	41.49
823.722	41.17
823.894	41.5
824.067	41.95
824.239	42.36
824.411	42.73
824.584	43.13
824.756	43.85
824.929	43.91
825.101	43.74
825.273	43.28
825.446	44.05
825.618	44.47
825.79	43.73
825.963	43.58
826.135	43.58
826.307	43.8
826.479	43.86
826.652	43.43
826.824	43.66
826.996	43.08
827.168	42.8
827.34	41.84
827.512	41.87
827.684	42.59
827.856	42.14
828.029	42.39
828.201	41.53
828.373	41.45
828.545	40.79
828.717	41.01
828.889	42.15
829.061	42.38
829.232	42.39
829.404	41.69
829.576	41.73
829.748	41.6
829.92	40.72
830.092	41.66
830.264	42.19
830.436	43.6
830.607	42.81
830.779	41.83
830.951	44
831.123	43.18
831.294	45.52
831.466	46.5
831.638	48.07
831.809	48.03
831.981	48.43
832.153	45.96
832.324	45.27
832.496	45.01
832.667	47.2
832.839	44.79
833.011	44.23
833.182	44.36
833.354	44.12
833.525	42.89
833.697	42.21
833.868	42.37
834.039	43.46
834.211	42.5
834.382	43.14
834.554	40.69
834.725	40.82
834.896	43.57
835.068	42.57
835.239	41.88
835.41	42.87
835.581	44.28
835.753	44.2
835.924	46.07
836.095	48.15
836.266	49.22
836.438	51
836.609	52.25
836.78	51.15
836.951	50.31
837.122	50.86
837.293	50.57
837.464	52.18
837.635	50.62
837.806	51.53
837.977	51.07
838.148	50.53
838.319	51.24
838.49	51.26
838.661	53.94
838.832	57.6
839.003	58.73
839.174	61.6
839.345	59.25
839.516	62.32
839.687	58.36
839.857	56.16
840.028	60.57
840.199	60.96
840.37	58.96
840.54	57.98
840.711	56.74
840.882	56.71
841.053	53.92
841.223	50.76
841.394	50.14
841.564	50.24
841.735	53.7
841.906	47.25
842.076	46.67
842.247	49.09
842.417	47.43
842.588	51.78
842.758	52.97
842.929	57.21
843.099	58.01
843.27	57.73
843.44	60.68
843.611	57.96
843.781	62.18
843.951	64.66
844.122	62.62
844.292	64.98
844.462	58.24
844.633	53.71
844.803	46.39
844.973	49.87
845.144	53.94
845.314	53.52
845.484	53.91
845.654	54.44
845.824	53.98
845.995	57.65
846.165	56.94
846.335	52.51
846.505	53.9
846.675	61.48
846.845	58.03
847.015	53.57
847.185	52.97
847.355	53.84
847.525	53.75
847.695	54.02
847.865	53.37
848.035	53.39
848.205	55.53
848.375	54.43
848.545	45.81
848.715	47.09
848.884	48.89
849.054	46.02
849.224	48.53
849.394	46.81
849.564	46.49
849.733	37.76
849.903	37.12
850.073	41.42
850.243	48.36
850.412	58.13
850.582	65.74
850.752	59.13
850.921	56.78
851.091	52.9
851.26	54.42
851.43	54.37
851.599	63.31
851.769	62.27
851.939	54.72
852.108	51.39
852.278	46.69
852.447	48.38
852.616	53.5
852.786	55.25
852.955	49.95
853.125	52.36
853.294	48.29
853.463	48.06
853.633	46.86
853.802	50.3
853.971	48.95
854.141	47.03
854.31	44.07
854.479	33.85
854.648	41.57
854.818	53.77
854.987	46.14
855.156	50.6
855.325	47.39
855.494	51.85
855.663	58.82
855.832	51.45
856.001	56.02
856.171	53.5
856.34	61.19
856.509	55.73
856.678	49.88
856.847	49.63
857.016	50.34
857.185	52.72
857.353	43.87
857.522	34.56
857.691	47.32
857.86	47.89
858.029	56.61
858.198	53.11
858.367	55.58
858.535	56.63
858.704	57.72
858.873	61.93
859.042	61.93
859.21	66.5
859.379	70.06
859.548	61.72
859.717	63.3
859.885	56.63
860.054	55.77
860.222	52.87
860.391	56.48
860.56	58.43
860.728	50.66
860.897	53.89
861.065	54.52
861.234	50.46
861.402	53.33
861.571	56.17
861.739	54.3
861.908	55.2
862.076	57.29
862.244	55.86
862.413	59.91
862.581	60.43
862.749	59.08
862.918	55.72
863.086	60.45
863.254	65.91
863.423	65.95
863.591	73.43
863.759	72.28
863.927	69.66
864.096	67.61
864.264	64
864.432	64.23
864.6	64.41
864.768	62.18
864.936	54.04
865.104	49.23
865.272	47.77
865.44	45.78
865.608	41.65
865.776	39.45
865.944	36.24
866.112	38.26
866.28	38.77
866.448	34.08
866.616	45.21
866.784	49.11
866.952	55.57
867.12	53.83
867.288	57.43
867.455	66.09
867.623	75.35
867.791	73.78
867.959	75.16
868.127	73.38
868.294	74.87
868.462	66.68
868.63	72.35
868.797	66.75
868.965	65.01
869.133	59.08
869.3	57.84
869.468	55.81
869.636	55.12
869.803	58.4
869.971	57.38
870.138	58.66
870.306	58.28
870.473	49.96
870.641	55.75
870.808	59.8
870.975	61.45
871.143	61.34
871.31	64.26
871.478	73.2
871.645	73.54
871.812	73.05
871.98	66.55
872.147	68.01
872.314	72.26
872.482	76.72
872.649	69.25
872.816	66.03
872.983	66.61
873.15	59.58
873.318	59.41
873.485	54.72
873.652	57.74
873.819	58.57
873.986	63.41
874.153	62.23
874.32	54.91
874.487	60.96
874.654	63.05
874.821	61.28
874.988	65.69
875.155	62.36
875.322	63.76
875.489	59.16
875.656	66.32
875.823	55.92
875.99	45.49
876.157	44.29
876.324	41.15
876.49	44.16
876.657	44.98
876.824	44.9
876.991	42.46
877.157	46.53
877.324	49.21
877.491	46.9
877.658	49.73
877.824	54.3
877.991	54.98
878.157	57.51
878.324	59.13
878.491	59.41
878.657	62
878.824	71.07
878.99	66.03
879.157	67.9
879.323	66.78
879.49	65.07
879.656	68.91
879.823	73.42
879.989	64.61
880.156	59.48
880.322	53.18
880.488	47.32
880.655	40.31
880.821	43.53
880.987	45.44
881.154	45.07
881.32	44.73
881.486	42.27
881.652	36.82
881.819	39.24
881.985	40.33
882.151	40.89
882.317	41.3
882.483	39.63
882.649	39.46
882.816	36.97
882.982	36.94
883.148	38.84
883.314	36.44
883.48	37.7
883.646	38.63
883.812	37.64
883.978	40.14
884.144	41.79
884.31	42.98
884.476	43.29
884.642	45.54
884.807	45.84
884.973	44.34
885.139	46.48
885.305	47.28
885.471	46.46
885.637	47.18
885.802	45.49
885.968	45.21
886.134	44.35
886.3	42.95
886.465	40.63
886.631	41.93
886.797	42.16
886.962	40.78
887.128	39.61
887.293	41.17
887.459	41.67
887.625	44.05
887.79	45.12
887.956	49.94
888.121	53.03
888.287	56.44
888.452	54.96
888.618	58.71
888.783	64.41
