Data from LC_238_Reflection_1.txt Node
Date: Thu Nov 19 22:15:45 EST 2015
User: robert
Spectrometer: USB4E03001
Autoset integration time: false
Trigger mode: 4
Integration Time (sec): 1.000000E-1
Scans to average: 15
Electric dark correction enabled: true
Nonlinearity correction enabled: false
Boxcar width: 5
Stray light correction enabled: false
XAxis mode: Wavelengths
Stop averaging: false
Number of Pixels in Spectrum: 3648
>>>>>Begin Spectral Data<<<<<
177.566	93.35
177.785	56.4
178.005	48.84
178.225	17.58
178.445	9.23
178.665	7.49
178.885	34.13
179.105	-626.19
179.324	-435.1
179.544	-214.44
179.764	-47.7
179.984	-91.42
180.204	-179.34
180.423	-82.6
180.643	-24.24
180.863	-13.54
181.083	-87.49
181.302	-73.24
181.522	-19.38
181.742	-17.69
181.961	-28.58
182.181	-33.25
182.401	-37.87
182.621	-30.82
182.84	-166.72
183.06	-111.02
183.279	-100
183.499	-8.97
183.719	-289.09
183.938	-2095.96
184.158	1200
184.377	1119.34
184.597	-639.79
184.816	5897.17
185.036	334.9
185.256	-4057.78
185.475	-211.74
185.695	-109.94
185.914	-142.39
186.134	-352.46
186.353	-72.23
186.572	-83.87
186.792	-152.61
187.011	1241.77
187.231	883.3
187.45	1112.52
187.67	140.79
187.889	101.8
188.108	96.44
188.328	83.78
188.547	110.34
188.766	250.93
188.986	133.31
189.205	282.35
189.424	56.97
189.644	28.43
189.863	54.94
190.082	58.41
190.302	39.75
190.521	47.47
190.74	20.79
190.959	-5.39
191.178	-9.99
191.398	-52.73
191.617	-84.36
191.836	-555.36
192.055	-168.13
192.274	-324.15
192.494	-333.21
192.713	-109.82
192.932	-78.17
193.151	-77.24
193.37	-81.85
193.589	-108.11
193.808	-72.07
194.027	-56.93
194.246	-43.6
194.465	-42.5
194.685	-42.03
194.904	-27.66
195.123	-23.13
195.342	-65.17
195.561	-32.98
195.78	0.01
195.999	-1.41
196.218	-13.88
196.436	-8.18
196.655	-26.71
196.874	-16.78
197.093	-30.06
197.312	-94.21
197.531	-62.69
197.75	-81.22
197.969	-67.09
198.188	399.02
198.407	109.14
198.625	121.01
198.844	59.98
199.063	-505.79
199.282	-11.31
199.501	-34.18
199.719	-72.82
199.938	11.8
200.157	-29.36
200.376	-103.36
200.594	139.88
200.813	-48.34
201.032	207.33
201.251	-229.15
201.469	-547.97
201.688	-120.9
201.907	-208.63
202.125	-775.47
202.344	-169.79
202.563	-285.94
202.781	-323.44
203	-292.42
203.218	-166.8
203.437	-220.75
203.656	-133.46
203.874	-200.96
204.093	-376.36
204.311	-111.86
204.53	-58.56
204.748	-79.22
204.967	-30.04
205.185	-62.66
205.404	-101.36
205.622	-121.97
205.841	-59.74
206.059	-192.13
206.278	-132.19
206.496	-134.14
206.715	-90.04
206.933	-160.05
207.151	-55.83
207.37	-248.15
207.588	-376.09
207.806	-198.15
208.025	-245.29
208.243	-590.81
208.461	-669.69
208.68	-546.96
208.898	-330.02
209.116	-361.4
209.335	-469.98
209.553	-2005.33
209.771	10824.37
209.989	-1099.3
210.208	1037.81
210.426	1589.36
210.644	-409.35
210.862	-230.15
211.081	-230.47
211.299	-207.19
211.517	-156.71
211.735	-121.85
211.953	-73.99
212.171	-57.95
212.39	-44.7
212.608	-32.02
212.826	-0.38
213.044	-22.69
213.262	-32.64
213.48	-54.81
213.698	-57.01
213.916	-81.29
214.134	-70.89
214.352	-41.5
214.57	-55.92
214.788	-83.31
215.006	-28.69
215.224	-214.88
215.442	-466.53
215.66	-115.36
215.878	-279.09
216.096	-316.37
216.314	-426.7
216.532	-467.65
216.75	-1310.57
216.968	389.32
217.185	1171.71
217.403	1912.57
217.621	2802.81
217.839	-177.38
218.057	-76.76
218.275	17.68
218.492	31.01
218.71	44.02
218.928	14.37
219.146	-21.49
219.363	-0.44
219.581	-3.49
219.799	2.78
220.017	-11.69
220.234	-24.14
220.452	-2.26
220.67	-42.98
220.887	-51.31
221.105	-41.45
221.323	-28.4
221.54	5.05
221.758	6.45
221.976	3.17
222.193	3.32
222.411	13.3
222.629	18.98
222.846	3.69
223.064	1.41
223.281	6.32
223.499	-22.41
223.716	-22.41
223.934	-34.43
224.151	-30.88
224.369	-31.58
224.586	-48.51
224.804	-49.89
225.021	-46.86
225.239	-44.54
225.456	-51.77
225.674	-58.93
225.891	-34.84
226.108	-25.67
226.326	-23.73
226.543	-15.7
226.76	-19.66
226.978	-3.35
227.195	-15.18
227.413	-19.57
227.63	-24
227.847	-14.86
228.064	-9.41
228.282	-2.35
228.499	0.17
228.716	3.22
228.934	1.57
229.151	2.97
229.368	3.5
229.585	6.08
229.802	4.91
230.02	6.03
230.237	5.67
230.454	5.14
230.671	1.87
230.888	2.17
231.105	-0.72
231.323	1.33
231.54	-0.12
231.757	-5.16
231.974	-5.47
232.191	-3.44
232.408	-4.04
232.625	0.14
232.842	4.68
233.059	9.4
233.276	10.35
233.493	11.17
233.71	8.82
233.927	10.45
234.144	11.97
234.361	7.34
234.578	6.08
234.795	7.69
235.012	4.88
235.229	-2.37
235.446	-3.88
235.663	-13.53
235.879	-11.71
236.096	-16.69
236.313	-20.52
236.53	-12.79
236.747	-6.91
236.964	-2.84
237.181	-7.37
237.397	-10.04
237.614	-4.65
237.831	0.44
238.048	6.15
238.264	2.07
238.481	7.78
238.698	10.09
238.915	13.78
239.131	8.76
239.348	6.74
239.565	11.85
239.781	15.73
239.998	13.24
240.215	8.53
240.431	7.17
240.648	9.88
240.865	9.19
241.081	9.64
241.298	6.65
241.514	8.94
241.731	8.52
241.947	8.99
242.164	6.81
242.38	7.2
242.597	6.74
242.814	7.05
243.03	6.74
243.246	6.91
243.463	5.7
243.679	4.7
243.896	3.32
244.112	2.72
244.329	0.23
244.545	2.06
244.762	2.7
244.978	3.2
245.194	3.97
245.411	3.48
245.627	4.02
245.843	5.63
246.06	7.57
246.276	7.21
246.492	7.93
246.709	9.12
246.925	7.78
247.141	7.58
247.357	7.99
247.574	7.87
247.79	8.42
248.006	8.7
248.222	8.06
248.439	7.4
248.655	7.39
248.871	7.61
249.087	6.58
249.303	6.24
249.519	6.23
249.736	5.04
249.952	4.36
250.168	2.44
250.384	1.19
250.6	2.3
250.816	0.71
251.032	2
251.248	0.56
251.464	1.51
251.68	2.43
251.896	1.69
252.112	2.72
252.328	2.96
252.544	2.38
252.76	3.73
252.976	3.15
253.192	4.26
253.408	3.21
253.624	6.07
253.84	5.15
254.056	5.54
254.272	7.3
254.487	5.32
254.703	4.73
254.919	5.56
255.135	2.15
255.351	2.36
255.567	3.64
255.782	1.48
255.998	-1.78
256.214	-1.16
256.43	-2.63
256.646	-4.02
256.861	-1.42
257.077	0.39
257.293	-0.29
257.508	2.27
257.724	1.83
257.94	2.02
258.155	4.94
258.371	6.12
258.587	5.7
258.802	5.95
259.018	7.42
259.234	7.81
259.449	7.39
259.665	8.02
259.88	7.82
260.096	8.37
260.312	7.2
260.527	6.81
260.743	6.66
260.958	7.4
261.174	8.23
261.389	7.05
261.605	7.43
261.82	6.81
262.036	6.38
262.251	5.19
262.466	4.63
262.682	5.78
262.897	6.1
263.113	5.13
263.328	4.85
263.543	5.33
263.759	5.55
263.974	5.25
264.189	6.85
264.405	7.76
264.62	8.99
264.835	9.29
265.051	8.56
265.266	8.89
265.481	9.63
265.696	9.39
265.912	6.18
266.127	7.89
266.342	6.37
266.557	6.65
266.773	6.09
266.988	5.85
267.203	6.18
267.418	6.19
267.633	5.29
267.848	4.14
268.064	3.57
268.279	3.6
268.494	2.96
268.709	2.79
268.924	1.43
269.139	1.93
269.354	2.72
269.569	2.41
269.784	3.38
269.999	2.46
270.214	2.91
270.429	2.54
270.644	3.65
270.859	3.16
271.074	2.3
271.289	3.19
271.504	3.72
271.719	3.36
271.934	2.75
272.149	2.56
272.363	3.97
272.578	5.08
272.793	5.54
273.008	5.04
273.223	5.84
273.438	6.71
273.653	6.28
273.867	5.51
274.082	5.25
274.297	4.77
274.512	4.99
274.726	5.63
274.941	4.52
275.156	2.8
275.371	2.87
275.585	1.28
275.8	0.53
276.015	1.37
276.229	2.48
276.444	2.41
276.659	3.57
276.873	3.77
277.088	3.13
277.302	3.49
277.517	5.69
277.732	7.24
277.946	8.19
278.161	8.95
278.375	8.51
278.59	7.37
278.804	7.45
279.019	7.46
279.233	6.93
279.448	7.09
279.662	6.63
279.877	6.27
280.091	5.66
280.306	5.08
280.52	5.3
280.735	5.85
280.949	5.5
281.163	5.76
281.378	6.44
281.592	6.92
281.806	6.83
282.021	7.38
282.235	6.76
282.449	5.92
282.664	6.28
282.878	5.81
283.092	5.5
283.307	6.64
283.521	5.83
283.735	4.82
283.949	4.74
284.164	3.84
284.378	3.47
284.592	3.76
284.806	4.11
285.02	4.63
285.234	4.89
285.449	4.02
285.663	3.46
285.877	4.2
286.091	4.11
286.305	4.25
286.519	4.9
286.733	5.1
286.947	5.49
287.161	4.56
287.375	5.06
287.589	4.75
287.803	5.37
288.017	5.62
288.231	6.16
288.445	7.11
288.659	7.2
288.873	6.93
289.087	6.58
289.301	6.17
289.515	7.69
289.729	6.21
289.943	6.96
290.157	7.71
290.371	7.42
290.584	6.25
290.798	5.42
291.012	4.74
291.226	4.83
291.44	5.73
291.654	6.18
291.867	6.04
292.081	5.37
292.295	4.31
292.509	3.48
292.722	4.29
292.936	5.07
293.15	4.63
293.364	5.83
293.577	5.49
293.791	5.32
294.005	4.95
294.218	4.71
294.432	5.03
294.645	5.73
294.859	5.82
295.073	4.98
295.286	4.71
295.5	5.03
295.713	3.93
295.927	4.31
296.14	4.15
296.354	3.78
296.568	4.22
296.781	5.41
296.994	5.73
297.208	5.22
297.421	5.85
297.635	6.6
297.848	6.7
298.062	7.37
298.275	7.28
298.489	7.5
298.702	7.94
298.915	8.44
299.129	8.07
299.342	7.62
299.555	8.11
299.769	7.16
299.982	5.69
300.195	6
300.409	5.26
300.622	5.21
300.835	5.17
301.048	5.67
301.262	4.68
301.475	4.44
301.688	3.54
301.901	3.88
302.115	4.57
302.328	5.9
302.541	4.85
302.754	5.45
302.967	5.25
303.18	4.63
303.393	4.06
303.607	4.23
303.82	4.39
304.033	5.75
304.246	5.48
304.459	5.3
304.672	5.3
304.885	6.46
305.098	5.55
305.311	5.66
305.524	5.95
305.737	6.01
305.95	6.37
306.163	5.93
306.376	6.29
306.589	6.57
306.802	5.64
307.015	5.42
307.228	5.28
307.44	5.87
307.653	6.68
307.866	7.23
308.079	8.27
308.292	8.61
308.505	8.98
308.718	7.86
308.93	6.95
309.143	7.46
309.356	7.15
309.569	7.37
309.781	7.51
309.994	6.43
310.207	5.55
310.42	5.85
310.632	4.67
310.845	5.15
311.058	6.03
311.27	6.5
311.483	6.52
311.696	6.43
311.908	6.38
312.121	6.33
312.333	6.36
312.546	6.62
312.759	5.48
312.971	5.84
313.184	4.91
313.396	4.69
313.609	4.99
313.821	4.71
314.034	5.7
314.246	4.96
314.459	5.57
314.671	5.52
314.884	6.18
315.096	6.19
315.309	6.21
315.521	6.08
315.733	6.43
315.946	6.11
316.158	6.88
316.371	6.37
316.583	7.51
316.795	5.82
317.008	6.03
317.22	5.1
317.432	5.46
317.644	5.77
317.857	5.01
318.069	3.9
318.281	4.1
318.494	5.08
318.706	4.61
318.918	3.38
319.13	3.92
319.342	2.84
319.555	2.79
319.767	2.64
319.979	1.79
320.191	2.5
320.403	3.25
320.615	3.26
320.827	1.66
321.039	0.62
321.252	1.84
321.464	3.36
321.676	4.81
321.888	5.14
322.1	5.88
322.312	6.47
322.524	7.47
322.736	6.49
322.948	7.12
323.16	7.75
323.372	7.44
323.584	6.66
323.796	5.45
324.007	5.04
324.219	5.36
324.431	4.2
324.643	4.06
324.855	3.94
325.067	4.29
325.279	3.57
325.491	3.13
325.702	4.06
325.914	3.28
326.126	4.17
326.338	5.43
326.55	5.07
326.761	5.63
326.973	6.39
327.185	6.23
327.396	6.95
327.608	7.59
327.82	8.38
328.032	8.51
328.243	10.14
328.455	9.38
328.666	8.87
328.878	8.04
329.09	8.02
329.301	8.1
329.513	8.41
329.725	7.34
329.936	7.04
330.148	6.91
330.359	7.87
330.571	8.17
330.782	8.81
330.994	8.61
331.205	10.15
331.417	10.67
331.628	10.45
331.84	10.47
332.051	11.28
332.262	11.37
332.474	11.99
332.685	11.79
332.897	11.65
333.108	11.94
333.319	12.42
333.531	12.72
333.742	12.78
333.953	13.09
334.165	12.83
334.376	12.58
334.587	13.06
334.799	11.73
335.01	11.29
335.221	11.09
335.432	11.51
335.644	10.96
335.855	9.91
336.066	10.07
336.277	9.49
336.488	9.26
336.7	9.15
336.911	8.37
337.122	9.16
337.333	9.32
337.544	8.28
337.755	7.42
337.966	7.14
338.177	8.1
338.388	8.14
338.599	8.69
338.811	9.23
339.022	9.06
339.233	9.15
339.444	8.86
339.655	8.67
339.866	8.82
340.076	9.15
340.287	8.91
340.498	7.92
340.709	8.03
340.92	7.18
341.131	6.9
341.342	7.96
341.553	7.63
341.764	7.21
341.975	7.27
342.185	8.26
342.396	7.92
342.607	9.29
342.818	9.44
343.029	9.45
343.239	9.42
343.45	9.65
343.661	9
343.872	9.48
344.082	9.51
344.293	9.84
344.504	10.03
344.714	10.26
344.925	9.56
345.136	9.54
345.346	9.22
345.557	8.78
345.768	7.92
345.978	8.12
346.189	7.54
346.399	7.59
346.61	6.62
346.821	5.86
347.031	5.33
347.242	6.31
347.452	6.42
347.663	6.02
347.873	7.14
348.084	7.88
348.294	7.48
348.504	7.72
348.715	8.1
348.925	9.02
349.136	9.71
349.346	9.45
349.557	8.8
349.767	8.9
349.977	9.38
350.188	8.93
350.398	8.79
350.608	8.99
350.819	9.09
351.029	8.81
351.239	8.99
351.449	8.38
351.66	9.44
351.87	9.13
352.08	9.19
352.29	9.38
352.501	9.61
352.711	9.71
352.921	9.66
353.131	8.92
353.341	8.51
353.552	8.4
353.762	8.47
353.972	7.96
354.182	7.45
354.392	7.37
354.602	6.28
354.812	6.02
355.022	5.84
355.232	6.34
355.442	7.76
355.652	7.75
355.862	7.44
356.072	7.34
356.282	8.35
356.492	8.79
356.702	8.8
356.912	9.11
357.122	8.8
357.332	9.16
357.542	8.47
357.752	7.61
357.962	8.14
358.171	8.14
358.381	8.39
358.591	7.34
358.801	7.31
359.011	7.46
359.221	7.79
359.43	7.76
359.64	7.43
359.85	7.51
360.06	7.95
360.269	7.82
360.479	8.15
360.689	7.91
360.899	8.11
361.108	8.23
361.318	8.05
361.528	8
361.737	8.72
361.947	8.78
362.156	9.04
362.366	9.11
362.576	9.06
362.785	8.77
362.995	8.5
363.204	8.69
363.414	8.14
363.623	8.09
363.833	7.61
364.042	7.38
364.252	7.43
364.461	7.07
364.671	6.97
364.88	7.44
365.09	7.57
365.299	8.35
365.509	8.39
365.718	8.93
365.927	9.23
366.137	9.61
366.346	9.53
366.555	9.78
366.765	10.53
366.974	9.9
367.183	9.37
367.393	8.48
367.602	8.44
367.811	8.65
368.021	8.98
368.23	8.2
368.439	8.02
368.648	8.05
368.857	8.07
369.067	7.4
369.276	8.14
369.485	8.26
369.694	9.03
369.903	8.24
370.112	7.58
370.321	6.74
370.531	7.23
370.74	7.12
370.949	6.63
371.158	6.08
371.367	6.03
371.576	5.63
371.785	5.54
371.994	5.6
372.203	5.83
372.412	6.28
372.621	6.74
372.83	6.45
373.039	6.45
373.248	6.97
373.457	7.28
373.666	7.52
373.874	7.36
374.083	7.21
374.292	7.13
374.501	7.57
374.71	7.35
374.919	6.94
375.128	7.13
375.336	7.12
375.545	6.57
375.754	6.5
375.963	6.59
376.171	6.97
376.38	7.37
376.589	7.35
376.798	6.81
377.006	6.48
377.215	6.85
377.424	6.32
377.632	6.51
377.841	6.88
378.05	7.29
378.258	7.07
378.467	7.02
378.675	6.72
378.884	6.64
379.093	6.87
379.301	6.94
379.51	6.73
379.718	7.25
379.927	7.31
380.135	7.04
380.344	6.49
380.552	6.62
380.761	6.34
380.969	6.67
381.177	6.55
381.386	6.28
381.594	5.83
381.803	5.77
382.011	5.65
382.219	5.55
382.428	5.67
382.636	5.84
382.845	5.69
383.053	5.76
383.261	5.31
383.469	5.45
383.678	5.7
383.886	6.13
384.094	6.43
384.302	6.49
384.511	6.4
384.719	6.31
384.927	6.01
385.135	6.18
385.343	6.17
385.552	6.33
385.76	6.33
385.968	6.18
386.176	6.12
386.384	5.84
386.592	5.84
386.8	6.09
387.008	5.94
387.216	5.53
387.424	5.41
387.633	5.58
387.841	5.25
388.049	5.33
388.257	5.62
388.465	5.86
388.672	5.92
388.88	5.87
389.088	5.64
389.296	6.05
389.504	6.71
389.712	6.68
389.92	6.53
390.128	6.7
390.336	6.59
390.544	6.58
390.751	6.65
390.959	6.64
391.167	6.92
391.375	6.79
391.583	6.25
391.79	6.2
391.998	6.35
392.206	6.3
392.414	6.65
392.621	6.43
392.829	6.21
393.037	6.15
393.244	6.17
393.452	5.9
393.66	5.9
393.867	6.12
394.075	6
394.283	5.61
394.49	5.48
394.698	5.18
394.905	5.48
395.113	5.47
395.32	5.38
395.528	5.35
395.735	5.65
395.943	5.68
396.15	5.65
396.358	5.5
396.565	5.73
396.773	5.87
396.98	5.96
397.188	5.78
397.395	6.02
397.602	5.79
397.81	5.46
398.017	5.08
398.225	5.16
398.432	4.83
398.639	4.73
398.847	4.62
399.054	4.3
399.261	4.46
399.468	4.37
399.676	4.01
399.883	4.19
400.09	4.52
400.297	4.7
400.505	4.69
400.712	4.99
400.919	5.37
401.126	5.4
401.333	5.62
401.54	5.67
401.748	5.96
401.955	6.1
402.162	6.25
402.369	6.24
402.576	6.41
402.783	6.28
402.99	6.27
403.197	6.3
403.404	6.26
403.611	6.71
403.818	6.54
404.025	6.46
404.232	6.2
404.439	6.18
404.646	5.97
404.853	5.76
405.06	5.64
405.267	5.85
405.474	5.74
405.681	5.87
405.887	5.72
406.094	5.64
406.301	5.68
406.508	6.14
406.715	5.86
406.922	5.85
407.128	5.63
407.335	6.02
407.542	6.07
407.749	6.2
407.955	6.23
408.162	6.13
408.369	6.25
408.575	6.1
408.782	5.83
408.989	6
409.195	6.19
409.402	6.4
409.609	6.13
409.815	5.69
410.022	5.45
410.228	5.34
410.435	5.23
410.642	5.27
410.848	5.3
411.055	5.27
411.261	5.46
411.468	5.34
411.674	5.51
411.881	5.81
412.087	5.9
412.294	6.07
412.5	5.98
412.706	6.21
412.913	5.98
413.119	6.03
413.326	5.86
413.532	5.72
413.738	5.92
413.945	5.77
414.151	5.57
414.357	5.77
414.564	5.7
414.77	5.72
414.976	5.56
415.182	5.46
415.389	5.47
415.595	5.47
415.801	5.34
416.007	5.25
416.214	5.31
416.42	5.25
416.626	5.3
416.832	5.56
417.038	5.55
417.244	5.39
417.45	5.69
417.657	5.78
417.863	6.13
418.069	6.18
418.275	6.36
418.481	6.31
418.687	6.34
418.893	6.35
419.099	6.1
419.305	6.22
419.511	6.35
419.717	6.16
419.923	6.06
420.129	5.9
420.335	5.78
420.541	5.64
420.746	5.67
420.952	5.8
421.158	5.74
421.364	5.76
421.57	5.7
421.776	5.7
421.982	5.77
422.187	5.76
422.393	5.64
422.599	5.72
422.805	5.6
423.01	5.59
423.216	5.41
423.422	5.35
423.628	5.27
423.833	5.22
424.039	5.06
424.245	5.08
424.45	5.09
424.656	5.25
424.862	5.23
425.067	5.2
425.273	5.21
425.478	5.35
425.684	5.46
425.889	5.63
426.095	5.68
426.301	5.86
426.506	5.81
426.712	5.83
426.917	5.8
427.123	5.91
427.328	6.04
427.533	6.15
427.739	6.08
427.944	5.98
428.15	5.81
428.355	5.58
428.561	5.46
428.766	5.52
428.971	5.76
429.177	5.75
429.382	5.68
429.587	5.72
429.793	5.41
429.998	5.33
430.203	5.23
430.408	5.33
430.614	5.54
430.819	5.62
431.024	5.53
431.229	5.33
431.434	5.19
431.64	5.02
431.845	5.21
432.05	5.31
432.255	5.09
432.46	5.25
432.665	5.3
432.87	5.3
433.076	5.12
433.281	5.05
433.486	5.11
433.691	5.19
433.896	5.37
434.101	5.2
434.306	5.22
434.511	5.21
434.716	5.18
434.921	5.05
435.126	5.09
435.331	5.13
435.535	5.21
435.74	5
435.945	5.09
436.15	5.02
436.355	5.13
436.56	5.21
436.765	5.51
436.97	5.41
437.174	5.44
437.379	5.46
437.584	5.5
437.789	5.49
437.993	5.63
438.198	5.52
438.403	5.47
438.608	5.45
438.812	5.29
439.017	5.17
439.222	5.36
439.426	5.33
439.631	5.21
439.836	5.38
440.04	5.5
440.245	5.51
440.45	5.53
440.654	5.6
440.859	5.56
441.063	5.7
441.268	5.82
441.472	5.76
441.677	5.76
441.881	5.79
442.086	5.5
442.29	5.43
442.495	5.37
442.699	5.33
442.904	5.39
443.108	5.37
443.312	5.16
443.517	4.92
443.721	4.84
443.925	4.97
444.13	5.19
444.334	5.57
444.538	5.63
444.743	5.68
444.947	5.8
445.151	5.62
445.356	5.64
445.56	5.74
445.764	5.77
445.968	5.86
446.173	5.85
446.377	5.72
446.581	5.56
446.785	5.6
446.989	5.58
447.193	5.37
447.398	5.36
447.602	5.36
447.806	5.34
448.01	5.33
448.214	5.27
448.418	5.12
448.622	5.04
448.826	5.09
449.03	4.98
449.234	4.78
449.438	4.79
449.642	4.73
449.846	4.51
450.05	4.5
450.254	4.59
450.458	4.49
450.662	4.55
450.866	4.55
451.069	4.52
451.273	4.48
451.477	4.59
451.681	4.62
451.885	4.76
452.089	4.87
452.292	4.82
452.496	4.76
452.7	4.75
452.904	4.77
453.107	4.92
453.311	5.05
453.515	4.97
453.719	5.14
453.922	5.27
454.126	5.17
454.33	5.35
454.533	5.26
454.737	5.13
454.94	5.09
455.144	5.16
455.348	4.98
455.551	4.87
455.755	4.8
455.958	4.86
456.162	4.99
456.365	5.07
456.569	5
456.772	5.06
456.976	5.21
457.179	5.39
457.383	5.25
457.586	5.18
457.79	5.09
457.993	5.1
458.196	4.82
458.4	4.77
458.603	4.82
458.807	4.83
459.01	4.83
459.213	4.83
459.417	4.85
459.62	4.81
459.823	4.94
460.026	4.95
460.23	4.99
460.433	5.05
460.636	4.98
460.839	4.94
461.042	4.91
461.246	4.86
461.449	4.83
461.652	4.71
461.855	4.86
462.058	4.76
462.261	4.83
462.464	4.89
462.668	5.03
462.871	5.24
463.074	5.23
463.277	5.03
463.48	5.18
463.683	5.4
463.886	5.46
464.089	5.35
464.292	5.45
464.495	5.44
464.698	5.36
464.901	5.17
465.104	5.09
465.306	5.15
465.509	5.31
465.712	5.22
465.915	5.12
466.118	5.12
466.321	5.19
466.524	5.17
466.726	5.12
466.929	5.2
467.132	5.3
467.335	5.22
467.538	5.15
467.74	5.18
467.943	5.23
468.146	5.1
468.348	5.21
468.551	5.13
468.754	5.12
468.956	5.18
469.159	5.15
469.362	5.06
469.564	4.99
469.767	5.14
469.969	5.18
470.172	5.33
470.375	5.3
470.577	5.24
470.78	5.25
470.982	5.38
471.185	5.42
471.387	5.22
471.59	5.33
471.792	5.36
471.995	5.3
472.197	5.23
472.399	5.13
472.602	5.39
472.804	5.2
473.007	5.21
473.209	4.96
473.411	4.84
473.614	5.09
473.816	5.1
474.018	5.1
474.22	5.03
474.423	5.12
474.625	5.08
474.827	4.82
475.03	5.04
475.232	4.97
475.434	5.22
475.636	5.14
475.838	5.15
476.04	5.1
476.243	5.1
476.445	5.19
476.647	5.09
476.849	5.07
477.051	5.27
477.253	5.14
477.455	5.3
477.657	5.11
477.859	5.12
478.061	5.09
478.263	5.08
478.465	5.05
478.667	5
478.869	5.16
479.071	5.08
479.273	4.86
479.475	4.74
479.677	4.62
479.879	4.71
480.081	4.73
480.283	4.69
480.485	4.67
480.686	4.81
480.888	4.82
481.09	4.7
481.292	4.8
481.494	4.99
481.695	5.18
481.897	5.28
482.099	5.24
482.301	5.29
482.502	5.31
482.704	5.23
482.906	5.15
483.107	5.19
483.309	5.23
483.511	5.24
483.712	5.19
483.914	5.22
484.115	5.17
484.317	5.24
484.519	5.25
484.72	5.28
484.922	5.3
485.123	5.34
485.325	5.32
485.526	5.27
485.728	5.29
485.929	5.31
486.131	5.21
486.332	5.26
486.534	5.19
486.735	5.15
486.936	5.16
487.138	5.22
487.339	5.17
487.541	5.22
487.742	5.25
487.943	5.19
488.144	5.18
488.346	5.29
488.547	5.34
488.748	5.37
488.95	5.41
489.151	5.36
489.352	5.32
489.553	5.46
489.755	5.39
489.956	5.41
490.157	5.45
490.358	5.44
490.559	5.37
490.76	5.33
490.961	5.32
491.163	5.33
491.364	5.39
491.565	5.41
491.766	5.34
491.967	5.36
492.168	5.36
492.369	5.38
492.57	5.38
492.771	5.4
492.972	5.33
493.173	5.36
493.374	5.36
493.575	5.29
493.776	5.3
493.976	5.19
494.177	5.21
494.378	5.23
494.579	5.17
494.78	5.24
494.981	5.16
495.182	5.24
495.382	5.16
495.583	5.04
495.784	5
495.985	5
496.185	5.1
496.386	5.01
496.587	5.07
496.788	5.16
496.988	5.23
497.189	5.25
497.39	5.28
497.59	5.32
497.791	5.42
497.992	5.46
498.192	5.51
498.393	5.61
498.593	5.77
498.794	5.72
498.994	5.64
499.195	5.57
499.395	5.58
499.596	5.59
499.796	5.52
499.997	5.5
500.197	5.5
500.398	5.36
500.598	5.23
500.799	5.22
500.999	5.01
501.199	5.12
501.4	5.01
501.6	5.05
501.801	4.84
502.001	4.85
502.201	4.82
502.402	4.97
502.602	5.11
502.802	5.19
503.002	5.27
503.203	5.6
503.403	5.58
503.603	5.66
503.803	5.79
504.003	5.99
504.204	6.09
504.404	5.98
504.604	5.87
504.804	5.84
505.004	5.79
505.204	5.76
505.404	5.68
505.604	5.67
505.804	5.76
506.005	5.69
506.205	5.72
506.405	5.68
506.605	6.03
506.805	6.13
507.005	6.09
507.204	6.16
507.404	6.08
507.604	6.07
507.804	6.2
508.004	6.35
508.204	6.51
508.404	6.52
508.604	6.68
508.804	6.55
509.003	6.65
509.203	6.74
509.403	6.73
509.603	6.84
509.803	6.97
510.002	6.9
510.202	6.75
510.402	6.72
510.602	6.75
510.801	6.7
511.001	6.76
511.201	6.73
511.4	6.77
511.6	6.99
511.8	7
511.999	6.94
512.199	7.12
512.398	7.18
512.598	7.2
512.797	7.27
512.997	7.25
513.197	7.27
513.396	7.3
513.596	7.23
513.795	7.17
513.994	7.28
514.194	7.47
514.393	7.38
514.593	7.47
514.792	7.54
514.992	7.49
515.191	7.62
515.39	7.68
515.59	7.75
515.789	7.88
515.988	7.91
516.188	7.88
516.387	7.81
516.586	7.97
516.786	7.98
516.985	7.94
517.184	7.99
517.383	8.01
517.582	8.05
517.782	8.04
517.981	8.14
518.18	8.14
518.379	8.22
518.578	8.36
518.777	8.27
518.976	8.32
519.176	8.44
519.375	8.47
519.574	8.53
519.773	8.6
519.972	8.75
520.171	8.7
520.37	8.8
520.569	8.88
520.768	8.91
520.967	9.06
521.166	9.11
521.365	9.18
521.564	9.27
521.762	9.33
521.961	9.4
522.16	9.39
522.359	9.68
522.558	9.69
522.757	9.73
522.956	9.67
523.154	9.62
523.353	9.75
523.552	9.79
523.751	9.86
523.949	9.91
524.148	9.93
524.347	10.03
524.546	9.98
524.744	10.11
524.943	10.22
525.142	10.3
525.34	10.4
525.539	10.41
525.737	10.51
525.936	10.65
526.135	10.79
526.333	10.79
526.532	10.81
526.73	10.93
526.929	10.96
527.127	10.98
527.326	11.04
527.524	11.21
527.723	11.27
527.921	11.32
528.12	11.33
528.318	11.36
528.516	11.41
528.715	11.48
528.913	11.5
529.112	11.53
529.31	11.55
529.508	11.59
529.707	11.54
529.905	11.58
530.103	11.61
530.301	11.58
530.5	11.56
530.698	11.68
530.896	11.7
531.094	11.72
531.293	11.82
531.491	11.92
531.689	12.01
531.887	12.1
532.085	12.17
532.283	12.18
532.481	12.25
532.68	12.41
532.878	12.43
533.076	12.45
533.274	12.53
533.472	12.49
533.67	12.51
533.868	12.47
534.066	12.52
534.264	12.54
534.462	12.6
534.66	12.71
534.858	12.65
535.056	12.69
535.253	12.71
535.451	12.78
535.649	12.87
535.847	12.88
536.045	12.98
536.243	13.1
536.441	13.32
536.638	13.29
536.836	13.33
537.034	13.43
537.232	13.46
537.43	13.59
537.627	13.63
537.825	13.72
538.023	13.79
538.22	13.86
538.418	13.7
538.616	13.55
538.813	13.59
539.011	13.63
539.209	13.77
539.406	13.88
539.604	13.91
539.801	13.97
539.999	14.06
540.196	14.22
540.394	14.29
540.591	14.47
540.789	14.47
540.986	14.52
541.184	14.5
541.381	14.47
541.579	14.52
541.776	14.56
541.974	14.6
542.171	14.59
542.368	14.6
542.566	14.6
542.763	14.64
542.96	14.71
543.158	14.85
543.355	14.93
543.552	15.08
543.75	15.17
543.947	15.25
544.144	15.17
544.341	15.32
544.539	15.33
544.736	15.45
544.933	15.47
545.13	15.56
545.327	15.49
545.524	15.63
545.722	15.59
545.919	15.56
546.116	15.5
546.313	15.67
546.51	15.53
546.707	15.63
546.904	15.69
547.101	15.74
547.298	15.85
547.495	15.79
547.692	15.86
547.889	15.85
548.086	15.89
548.283	16.09
548.48	16.17
548.677	16.25
548.874	16.41
549.07	16.58
549.267	16.67
549.464	16.9
549.661	17.02
549.858	17.23
550.055	17.28
550.251	17.4
550.448	17.41
550.645	17.54
550.842	17.7
551.038	17.51
551.235	17.44
551.432	17.58
551.628	17.33
551.825	17.42
552.022	17.29
552.218	17.37
552.415	17.51
552.612	17.42
552.808	17.41
553.005	17.43
553.201	17.66
553.398	17.83
553.594	17.65
553.791	17.82
553.987	17.96
554.184	17.96
554.38	17.97
554.577	17.95
554.773	18.08
554.97	18.03
555.166	18.21
555.362	18.01
555.559	17.95
555.755	18.22
555.952	18.24
556.148	18.23
556.344	18.36
556.541	18.46
556.737	18.28
556.933	18.4
557.129	18.44
557.326	18.38
557.522	18.57
557.718	18.59
557.914	18.68
558.11	18.65
558.307	18.8
558.503	18.81
558.699	18.93
558.895	19.18
559.091	19.07
559.287	19.22
559.483	19.16
559.679	19.28
559.876	19.34
560.072	19.2
560.268	19.21
560.464	19.09
560.66	19.2
560.856	19.29
561.052	19.42
561.247	19.66
561.443	19.67
561.639	19.72
561.835	19.77
562.031	19.62
562.227	19.65
562.423	19.8
562.619	20.04
562.815	20.23
563.01	20.37
563.206	20.35
563.402	20.41
563.598	20.56
563.793	20.66
563.989	20.69
564.185	20.84
564.381	21
564.576	21.13
564.772	21.19
564.968	21.06
565.163	21.03
565.359	21.09
565.555	21.03
565.75	21.1
565.946	21.17
566.141	21.2
566.337	21.28
566.532	21.38
566.728	21.41
566.923	21.3
567.119	21.39
567.314	21.39
567.51	21.45
567.705	21.51
567.901	21.61
568.096	21.72
568.292	21.65
568.487	21.66
568.682	21.58
568.878	21.58
569.073	21.87
569.268	21.86
569.464	21.91
569.659	21.88
569.854	21.97
570.05	21.76
570.245	21.73
570.44	21.91
570.635	22.11
570.831	22.35
571.026	22.47
571.221	22.35
571.416	22.46
571.611	22.71
571.806	22.65
572.002	22.7
572.197	22.86
572.392	23.05
572.587	23.26
572.782	23.09
572.977	23.06
573.172	23.06
573.367	23.05
573.562	23.13
573.757	23.06
573.952	23.15
574.147	23.3
574.342	23.26
574.537	23.21
574.732	23.09
574.927	23.2
575.121	23.33
575.316	23.41
575.511	23.49
575.706	23.57
575.901	23.63
576.096	23.78
576.29	23.8
576.485	23.91
576.68	23.79
576.875	23.84
577.069	23.91
577.264	23.84
577.459	23.79
577.654	23.89
577.848	23.8
578.043	23.71
578.238	23.77
578.432	23.45
578.627	23.52
578.821	23.69
579.016	23.6
579.21	23.61
579.405	23.64
579.6	23.57
579.794	23.62
579.989	23.78
580.183	23.62
580.378	23.72
580.572	23.87
580.766	23.88
580.961	23.77
581.155	24.03
581.35	24.21
581.544	24.36
581.738	24.47
581.933	24.59
582.127	24.43
582.321	24.57
582.516	24.66
582.71	24.92
582.904	24.84
583.099	24.88
583.293	24.86
583.487	24.74
583.681	24.81
583.875	24.87
584.07	24.77
584.264	25
584.458	25.17
584.652	25.02
584.846	25.05
585.04	25.29
585.234	25.37
585.428	25.28
585.623	25.5
585.817	25.39
586.011	25.37
586.205	25.59
586.399	25.61
586.593	25.53
586.787	25.31
586.981	25.24
587.174	25.18
587.368	25.23
587.562	25.13
587.756	25.06
587.95	25.02
588.144	24.98
588.338	24.84
588.532	24.74
588.725	24.73
588.919	25.03
589.113	25.22
589.307	25.3
589.501	25.56
589.694	25.84
589.888	25.95
590.082	26.13
590.275	26.1
590.469	26.14
590.663	26.3
590.856	26.37
591.05	26.18
591.244	26
591.437	25.93
591.631	25.97
591.824	25.74
592.018	25.5
592.212	25.41
592.405	25.55
592.599	25.6
592.792	25.64
592.986	25.78
593.179	26.26
593.372	26.63
593.566	26.77
593.759	26.53
593.953	26.87
594.146	27.07
594.339	27.18
594.533	27.18
594.726	27.26
594.92	27.25
595.113	27.36
595.306	27.13
595.499	26.79
595.693	26.94
595.886	27.23
596.079	27.13
596.272	27.19
596.466	27.26
596.659	27.33
596.852	27.32
597.045	27.29
597.238	27.19
597.431	27.27
597.624	27.26
597.818	27.29
598.011	27.26
598.204	27.25
598.397	27.07
598.59	26.83
598.783	26.84
598.976	26.68
599.169	26.73
599.362	26.87
599.555	26.68
599.748	26.98
599.941	26.71
600.134	26.61
600.326	26.58
600.519	26.73
600.712	26.87
600.905	26.87
601.098	27.31
601.291	27.38
601.483	27.15
601.676	27.52
601.869	27.17
602.062	27.38
602.255	27.61
602.447	27.81
602.64	27.88
602.833	27.9
603.025	28.12
603.218	27.88
603.411	27.87
603.603	28.01
603.796	28.01
603.989	28.12
604.181	28.05
604.374	28
604.566	27.99
604.759	27.9
604.951	28
605.144	27.96
605.336	28.06
605.529	28
605.721	27.9
605.914	27.75
606.106	27.91
606.299	28.01
606.491	28
606.683	27.95
606.876	28.25
607.068	28.29
607.26	28.19
607.453	28.15
607.645	28.28
607.837	28.49
608.03	28.5
608.222	28.45
608.414	28.36
608.606	28.37
608.799	28.49
608.991	28.43
609.183	28.49
609.375	28.64
609.567	28.66
609.759	28.49
609.952	28.55
610.144	28.68
610.336	28.65
610.528	28.9
610.72	28.89
610.912	28.81
611.104	28.9
611.296	29
611.488	29
611.68	29.13
611.872	29.39
612.064	29.36
612.256	29.29
612.448	29.57
612.64	29.46
612.832	29.7
613.023	29.88
613.215	29.67
613.407	29.59
613.599	29.42
613.791	29.23
613.983	29.17
614.174	29.22
614.366	29.03
614.558	28.8
614.75	28.69
614.941	28.41
615.133	28.38
615.325	28.67
615.516	28.59
615.708	28.92
615.9	29.05
616.091	28.91
616.283	29.11
616.475	29.59
616.666	29.88
616.858	30.06
617.049	30.14
617.241	30.03
617.432	29.88
617.624	30.02
617.815	29.92
618.007	29.95
618.198	30.17
618.39	29.79
618.581	29.84
618.773	29.53
618.964	29.43
619.155	29.34
619.347	29.27
619.538	29.17
619.729	29.12
619.921	29.16
620.112	29.25
620.303	29.14
620.494	29.35
620.686	29
620.877	28.97
621.068	28.94
621.259	28.95
621.451	29.2
621.642	29.35
621.833	29.46
622.024	29.41
622.215	29.14
622.406	29.21
622.597	29.1
622.788	29.41
622.98	29.26
623.171	29.44
623.362	29.61
623.553	29.47
623.744	29.75
623.935	29.78
624.126	30.03
624.317	30.26
624.508	30.04
624.698	30.1
624.889	29.7
625.08	30.08
625.271	30.05
625.462	30.12
625.653	30.25
625.844	29.98
626.034	29.84
626.225	29.74
626.416	29.92
626.607	30.14
626.798	30.26
626.988	30.58
627.179	30.47
627.37	30.45
627.56	30.46
627.751	30.49
627.942	30.7
628.132	30.65
628.323	30.57
628.514	30.39
628.704	30.49
628.895	30.43
629.085	30.35
629.276	30.7
629.466	30.71
629.657	30.76
629.847	30.89
630.038	30.94
630.228	30.95
630.419	30.89
630.609	31.04
630.8	30.99
630.99	31.22
631.181	31.42
631.371	31.22
631.561	31.25
631.752	31.24
631.942	31.09
632.132	30.87
632.323	31.01
632.513	30.99
632.703	30.99
632.893	30.8
633.084	30.59
633.274	30.61
633.464	30.8
633.654	30.87
633.844	30.71
634.034	30.48
634.225	30.65
634.415	30.78
634.605	30.7
634.795	30.64
634.985	30.62
635.175	30.61
635.365	30.57
635.555	30.45
635.745	30.35
635.935	30.41
636.125	30.64
636.315	30.54
636.505	30.4
636.695	30.45
636.885	30.61
637.075	30.87
637.265	31.08
637.455	31.21
637.644	31.09
637.834	31.09
638.024	31.15
638.214	31.29
638.404	31.64
638.593	31.75
638.783	32.06
638.973	31.81
639.163	31.74
639.352	31.65
639.542	31.45
639.732	31.56
639.921	31.67
640.111	31.83
640.301	31.68
640.49	31.44
640.68	30.91
640.87	30.99
641.059	31
641.249	31.23
641.438	31.3
641.628	31.22
641.817	31.57
642.007	31.39
642.196	31.09
642.386	31.42
642.575	31.51
642.764	32.45
642.954	32.46
643.143	32.85
643.333	32.71
643.522	32.69
643.711	32.64
643.901	32.29
644.09	32.6
644.279	32.88
644.469	32.58
644.658	32.32
644.847	32.05
645.036	31.86
645.226	31.8
645.415	31.55
645.604	31.51
645.793	31.91
645.982	31.83
646.171	31.79
646.361	32.02
646.55	32.07
646.739	32.34
646.928	32.39
647.117	32.41
647.306	32.05
647.495	32.28
647.684	32.31
647.873	32.15
648.062	32.41
648.251	32.44
648.44	32.2
648.629	32.24
648.818	32.2
649.007	31.8
649.196	31.89
649.384	32.18
649.573	31.97
649.762	31.87
649.951	32.03
650.14	32.18
650.328	32.2
650.517	32.1
650.706	32.29
650.895	32.4
651.083	32.53
651.272	32.7
651.461	32.54
651.65	32.87
651.838	33.19
652.027	33.11
652.216	33.1
652.404	33.03
652.593	33.16
652.781	32.98
652.97	32.74
653.158	32.62
653.347	32.36
653.535	32.48
653.724	32.47
653.912	32.48
654.101	32.53
654.289	32.28
654.478	32.27
654.666	32.21
654.855	32.34
655.043	32.25
655.231	32.16
655.42	32.1
655.608	32.01
655.796	31.86
655.985	31.99
656.173	32.07
656.361	32.24
656.55	32.09
656.738	32.01
656.926	31.97
657.114	32.34
657.302	32.34
657.491	32.51
657.679	32.47
657.867	32.37
658.055	32.29
658.243	32.28
658.431	32.4
658.619	32.85
658.807	33.02
658.996	33.17
659.184	33.2
659.372	33.6
659.56	33.6
659.748	33.85
659.936	34.32
660.124	34.41
660.311	34.5
660.499	34.24
660.687	34
660.875	34.35
661.063	34.38
661.251	34.21
661.439	33.89
661.627	33.93
661.814	33.86
662.002	33.54
662.19	33.5
662.378	33.19
662.565	33.15
662.753	33.32
662.941	32.9
663.129	32.7
663.316	32.81
663.504	33.1
663.692	33.15
663.879	32.94
664.067	32.94
664.254	32.93
664.442	33.17
664.63	33.37
664.817	33.24
665.005	33.09
665.192	33.12
665.38	32.77
665.567	33.05
665.755	33.48
665.942	33.76
666.13	34.14
666.317	33.81
666.504	33.33
666.692	32.91
666.879	33.12
667.067	33.53
667.254	33.73
667.441	34.45
667.629	33.7
667.816	33.33
668.003	33.32
668.19	33.47
668.378	33.71
668.565	34.12
668.752	34.73
668.939	35.09
669.127	34.83
669.314	34.83
669.501	34.25
669.688	34.86
669.875	35.05
670.062	35.21
670.249	34.83
670.436	35.16
670.623	35.32
670.81	35.02
670.997	34.26
671.184	34.19
671.371	34.62
671.558	35.05
671.745	35.1
671.932	34.94
672.119	34.44
672.306	34.41
672.493	33.91
672.68	33.69
672.867	34.25
673.054	34.31
673.24	34.47
673.427	34.04
673.614	34.03
673.801	34.09
673.988	34.16
674.174	34.79
674.361	35.1
674.548	35.56
674.734	35.58
674.921	35.32
675.108	35.47
675.294	35.44
675.481	35.8
675.668	35.82
675.854	35.85
676.041	36
676.227	35.88
676.414	35.96
676.601	35.89
676.787	36.01
676.974	36.18
677.16	36.38
677.347	36.52
677.533	35.86
677.719	35.87
677.906	35.67
678.092	35.28
678.279	35.06
678.465	34.92
678.651	34.51
678.838	34.01
679.024	33.55
679.21	33.48
679.397	33.27
679.583	33.59
679.769	33.57
679.955	33.72
680.142	33.99
680.328	34.39
680.514	34.09
680.7	34.22
680.886	34.79
681.073	35.12
681.259	34.95
681.445	35.22
681.631	35.04
681.817	35.03
682.003	35.17
682.189	35.21
682.375	34.98
682.561	35.2
682.747	35.27
682.933	34.91
683.119	34.96
683.305	35.06
683.491	34.65
683.677	34.91
683.863	34.62
684.049	34.41
684.235	34.17
684.42	33.8
684.606	33.79
684.792	34.11
684.978	34.76
685.164	34.76
685.349	35.2
685.535	35.26
685.721	34.65
685.907	35.38
686.092	35.16
686.278	35.36
686.464	36.15
686.649	36.09
686.835	35.75
687.021	35.37
687.206	35.05
687.392	34.58
687.577	34.82
687.763	35.05
687.948	34.76
688.134	34.89
688.319	34.86
688.505	34.26
688.69	34.25
688.876	34.37
689.061	34.33
689.247	34.83
689.432	34.98
689.618	35.19
689.803	35.54
689.988	35.88
690.174	35.88
690.359	35.72
690.544	35.94
690.73	36.11
690.915	35.81
691.1	36.06
691.285	36.18
691.471	36.74
691.656	36.89
691.841	36.75
692.026	36.2
692.211	36.47
692.396	36.61
692.582	36.2
692.767	36.16
692.952	36.31
693.137	36.34
693.322	36.19
693.507	35.81
693.692	35.54
693.877	35.3
694.062	35.42
694.247	35.35
694.432	35.54
694.617	36.34
694.802	36.61
694.987	36.96
695.172	36.43
695.357	36.31
695.541	36.11
695.726	36.19
695.911	36.7
696.096	36.83
696.281	36.62
696.466	36.6
696.65	36.4
696.835	36.49
697.02	36.83
697.204	36.91
697.389	36.92
697.574	36.81
697.759	36.5
697.943	36.86
698.128	36.84
698.312	36.85
698.497	36.87
698.682	36.67
698.866	36.41
699.051	35.9
699.235	36.15
699.42	36.15
699.604	36.23
699.789	36.51
699.973	36.27
700.158	36.26
700.342	35.96
700.527	35.72
700.711	35.89
700.895	36.06
701.08	36.36
701.264	36.35
701.448	36.27
701.633	36.37
701.817	36.25
702.001	35.48
702.186	35.36
702.37	36.07
702.554	36.25
702.738	36.13
702.923	36.47
703.107	36.13
703.291	35.87
703.475	36.13
703.659	36.25
703.843	36.6
704.027	37.12
704.212	36.9
704.396	36.83
704.58	36.88
704.764	36.94
704.948	35.75
705.132	36.09
705.316	36.44
705.5	36.16
705.684	35.85
705.868	35.18
706.052	35.83
706.235	36.33
706.419	35.53
706.603	35.29
706.787	35.55
706.971	36.25
707.155	36.5
707.339	36.35
707.522	36.42
707.706	36.4
707.89	36.39
708.074	35.72
708.257	35.58
708.441	36.45
708.625	37.07
708.808	36.77
708.992	36.58
709.176	36.13
709.359	36.4
709.543	35.93
709.727	36.11
709.91	36.27
710.094	36.35
710.277	36.47
710.461	36.03
710.644	36
710.828	36.11
711.011	36.06
711.195	36.66
711.378	36.37
711.562	37.08
711.745	36.85
711.928	36.95
712.112	36.89
712.295	36.84
712.478	36.71
712.662	36.6
712.845	36.31
713.028	36.74
713.212	35.97
713.395	36.42
713.578	35.95
713.761	36.87
713.945	37.04
714.128	37.48
714.311	37.59
714.494	37.69
714.677	37.58
714.86	37.74
715.043	37.77
715.227	38.16
715.41	38.2
715.593	38.77
715.776	38.33
715.959	38.29
716.142	38.08
716.325	37.85
716.508	37.59
716.691	37.79
716.874	38.03
717.057	38.04
717.239	37.84
717.422	37.78
717.605	37.7
717.788	38.02
717.971	38.27
718.154	38.74
718.337	38.76
718.519	38.82
718.702	38.32
718.885	38.06
719.068	37.92
719.25	38.44
719.433	38.79
719.616	38.32
719.798	37.44
719.981	37.24
720.164	36.24
720.346	35.96
720.529	35.83
720.712	35.49
720.894	35.8
721.077	35.49
721.259	35.02
721.442	34.47
721.624	34.61
721.807	34.75
721.989	34.79
722.172	35.52
722.354	36.22
722.537	36.81
722.719	37.67
722.901	37.61
723.084	38.43
723.266	38.48
723.448	38.7
723.631	39.7
723.813	39.85
723.995	40.13
724.178	39.7
724.36	39.68
724.542	39.22
724.724	39.22
724.907	39.25
725.089	39.03
725.271	39.32
725.453	38.32
725.635	37.48
725.817	38.64
725.999	38.7
726.181	39.48
726.364	39.4
726.546	40.42
726.728	40.46
726.91	40.41
727.092	39.26
727.274	38.86
727.456	39.08
727.638	38.45
727.819	37.53
728.001	37.21
728.183	36.14
728.365	36.18
728.547	35.96
728.729	35.85
728.911	35.62
729.093	36.28
729.274	37.15
729.456	37.42
729.638	37.79
729.82	37.81
730.001	37.82
730.183	38.43
730.365	38.26
730.546	37.81
730.728	37.43
730.91	37.47
731.091	37.44
731.273	36.9
731.455	36.46
731.636	36.77
731.818	36.45
731.999	36.37
732.181	36.36
732.362	36.49
732.544	37.35
732.725	37.94
732.907	38.38
733.088	38.34
733.27	38.11
733.451	38.3
733.633	38.79
733.814	39.37
733.995	38.9
734.177	39.24
734.358	39.7
734.539	39.38
734.721	39.03
734.902	38.54
735.083	37.86
735.264	37.89
735.446	37.76
735.627	37.15
735.808	37.22
735.989	37.61
736.17	37.77
736.351	37.23
736.533	36.86
736.714	36.28
736.895	36.02
737.076	37.12
737.257	37.59
737.438	38.25
737.619	38.12
737.8	37.86
737.981	38.19
738.162	37.61
738.343	37.71
738.524	38.6
738.705	39.09
738.886	39.76
739.067	39.49
739.247	39.19
739.428	38.47
739.609	38.48
739.79	38.24
739.971	38.78
740.151	39.16
740.332	39.27
740.513	39.28
740.694	39.26
740.874	37.67
741.055	37.72
741.236	37.72
741.417	38.1
741.597	38
741.778	37.17
741.958	36.3
742.139	35.48
742.32	34.63
742.5	33.57
742.681	33.91
742.861	35.45
743.042	35.45
743.222	35.45
743.403	35.61
743.583	36.41
743.764	37.89
743.944	38.81
744.124	38.6
744.305	39.42
744.485	39.87
744.666	39.29
744.846	39.44
745.026	39.23
745.207	39.11
745.387	38.95
745.567	38.42
745.747	37.57
745.928	37.48
746.108	37.33
746.288	36.4
746.468	37.02
746.648	36.81
746.829	35.86
747.009	36.87
747.189	37.53
747.369	38.45
747.549	38.13
747.729	38.04
747.909	38.09
748.089	39.76
748.269	40.44
748.449	40.07
748.629	40.63
748.809	41.28
748.989	40.57
749.169	39.87
749.349	38.96
749.529	40.15
749.709	40.44
749.889	39.72
750.068	39.01
750.248	39.17
750.428	38.46
750.608	39.69
750.788	39.39
750.967	39.69
751.147	40.05
751.327	40.06
751.507	39.2
751.686	38.13
751.866	38.63
752.046	38.25
752.225	38.94
752.405	38.83
752.585	36.86
752.764	37.56
752.944	37.37
753.123	37.33
753.303	37.72
753.482	37.46
753.662	38.55
753.841	38.17
754.021	38.71
754.2	37.86
754.38	38.57
754.559	38.96
754.739	38.02
754.918	37.91
755.097	37.31
755.277	37.17
755.456	37.31
755.635	37.12
755.815	37.38
755.994	37.85
756.173	38.39
756.352	38.61
756.532	39.15
756.711	39.96
756.89	40.35
757.069	40.51
757.248	40.09
757.427	40.19
757.607	39.52
757.786	40.25
757.965	40.49
758.144	39.53
758.323	38.91
758.502	38.31
758.681	38.42
758.86	38.66
759.039	38.94
759.218	38.62
759.397	38.65
759.576	39.29
759.755	37.75
759.934	36.48
760.113	37.1
760.291	37.16
760.47	36.81
760.649	36.29
760.828	35.43
761.007	35.01
761.186	36.02
761.364	36.6
761.543	36.96
761.722	37.58
761.901	37.4
762.079	37.47
762.258	37.61
762.437	38.6
762.615	39.22
762.794	40.48
762.972	41.82
763.151	41.38
763.33	40.91
763.508	40.65
763.687	40.91
763.865	42.03
764.044	42.5
764.222	42.81
764.401	42.31
764.579	41.8
764.758	40.92
764.936	40.37
765.114	40.38
765.293	40.47
765.471	40.51
765.65	40.49
765.828	39.87
766.006	38.76
766.184	38.38
766.363	38.49
766.541	39.02
766.719	39.39
766.898	38.73
767.076	38.97
767.254	39.17
767.432	40.11
767.61	39.68
767.788	40.08
767.967	40.62
768.145	40.09
768.323	40.13
768.501	39.87
768.679	39.54
768.857	39.32
769.035	40.01
769.213	39.69
769.391	39.06
769.569	38.72
769.747	37.97
769.925	38.44
770.103	38.52
770.281	38.92
770.459	38.59
770.636	38.58
770.814	40.04
770.992	38.68
771.17	38.15
771.348	37.44
771.525	37.42
771.703	37.85
771.881	37.24
772.059	38.4
772.236	37.31
772.414	38.26
772.592	38.39
772.769	37.42
772.947	37.59
773.125	39.56
773.302	40.73
773.48	41.69
773.657	42.18
773.835	42.03
774.013	41.66
774.19	41.65
774.368	40.73
774.545	40.06
774.723	38.71
774.9	39.12
775.077	37.36
775.255	35.41
775.432	34.8
775.61	34.65
775.787	34.7
775.964	33.65
776.142	35.9
776.319	36.68
776.496	37.17
776.674	38.36
776.851	37.36
777.028	37.08
777.205	39.2
777.382	39
777.56	39.08
777.737	39.31
777.914	39.35
778.091	39.15
778.268	38.57
778.445	38.61
778.622	38.6
778.8	39.89
778.977	39.31
779.154	47.57
779.331	46.89
779.508	46.64
779.685	48.01
779.862	48.38
780.038	47
780.215	47.37
780.392	48.09
780.569	48.58
780.746	48.2
780.923	48.89
781.1	39.27
781.277	40.51
781.453	39.64
781.63	37.6
781.807	40.06
781.984	39.42
782.16	40.61
782.337	40.05
782.514	38.82
782.691	39.25
782.867	38.18
783.044	35.87
783.221	33.88
783.397	34.91
783.574	36.65
783.75	36.08
783.927	39.76
784.103	39.01
784.28	38.61
784.456	39.66
784.633	39.7
784.809	41.64
784.986	43.36
785.162	45.07
785.339	45.02
785.515	45.06
785.692	43.66
785.868	41.33
786.044	38.51
786.221	39.45
786.397	38.86
786.573	38.17
786.749	36.69
786.926	36.17
787.102	37.59
787.278	37.05
787.454	37.54
787.631	37.32
787.807	36.25
787.983	38.66
788.159	39.05
788.335	38.77
788.511	39.27
788.687	41.41
788.863	42.52
789.039	40.87
789.216	41.76
789.392	40.22
789.568	40.78
789.744	42.91
789.919	43.45
790.095	41.79
790.271	42.96
790.447	41.79
790.623	40.41
790.799	40.22
790.975	39.9
791.151	38.17
791.327	38.44
791.502	37.05
791.678	35.03
791.854	34.85
792.03	36.77
792.205	37.02
792.381	38.01
792.557	36.76
792.733	35.92
792.908	36.94
793.084	37.52
793.259	37.45
793.435	38.73
793.611	38.69
793.786	37.72
793.962	34.84
794.137	36.01
794.313	36.15
794.488	39.05
794.664	41.59
794.839	40.7
795.015	40.35
795.19	39.57
795.366	38.85
795.541	38.13
795.716	38.06
795.892	40.41
796.067	38.42
796.242	36.18
796.418	34.66
796.593	32.65
796.768	32.77
796.944	32.98
797.119	32.04
797.294	33.42
797.469	35.33
797.644	35.33
797.82	34.95
797.995	34.17
798.17	38.12
798.345	39.36
798.52	39.66
798.695	39.35
798.87	38.85
799.045	41.13
799.22	39.65
799.395	38.31
799.57	38.62
799.745	37.58
799.92	38.06
800.095	35.92
800.27	32.27
800.445	33.45
800.62	33.62
800.795	34.17
800.97	35.53
801.145	34.98
801.319	34.82
801.494	33.96
801.669	33.94
801.844	35.68
802.018	35.13
802.193	38.37
802.368	37.42
802.543	37.11
802.717	34.31
802.892	31.52
803.067	32.89
803.241	34.23
803.416	34.61
803.59	36.02
803.765	36.2
803.94	36.67
804.114	37.64
804.289	38.29
804.463	39.53
804.638	40.56
804.812	41.41
804.986	41.85
805.161	41.86
805.335	41.7
805.51	41.71
805.684	40.59
805.858	41.47
806.033	39.97
806.207	38.48
806.381	39.71
806.556	39.92
806.73	44.36
806.904	45.45
807.078	45.79
807.253	46.95
807.427	47.41
807.601	46.53
807.775	47.16
807.949	44.74
808.123	42.94
808.298	40.42
808.472	40.92
808.646	35.77
808.82	35.06
808.994	35.03
809.168	32.61
809.342	32.33
809.516	33.1
809.69	32.87
809.864	33.06
810.038	35.68
810.212	35.55
810.385	37.47
810.559	36.99
810.733	35.34
810.907	34.39
811.081	35.18
811.255	32.13
811.428	32.81
811.602	32.23
811.776	34.1
811.95	34.52
812.123	35.84
812.297	36.44
812.471	37.89
812.644	37.12
812.818	39.47
812.992	39.87
813.165	42.17
813.339	41.07
813.512	39.81
813.686	39.01
813.86	38.83
814.033	38.95
814.207	39.14
814.38	39.53
814.554	39.14
814.727	36.45
814.9	37.36
815.074	36.22
815.247	35.49
815.421	36.13
815.594	35.25
815.767	34.41
815.941	30.11
816.114	28.79
816.287	26.66
816.46	29.76
816.634	30.91
816.807	25.33
816.98	26.06
817.153	25.26
817.327	26.69
817.5	29.95
817.673	30.27
817.846	34.63
818.019	36.43
818.192	37.63
818.365	34.34
818.538	31.69
818.711	36.94
818.884	35.47
819.057	36.03
819.23	34.51
819.403	33.1
819.576	33.6
819.749	33.31
819.922	32.47
820.095	32.05
820.268	33.04
820.441	34.16
820.614	33.13
820.786	33.78
820.959	35.85
821.132	38.12
821.305	38.05
821.477	37.74
821.65	38.48
821.823	38.63
821.996	39.52
822.168	39.79
822.341	40.07
822.514	39.85
822.686	39.99
822.859	39.41
823.031	38.92
823.204	39.9
823.376	39.96
823.549	39.65
823.722	39.78
823.894	39.36
824.067	39.3
824.239	39.62
824.411	39.7
824.584	40.1
824.756	40.12
824.929	39.79
825.101	38.94
825.273	38.78
825.446	37.98
825.618	37.24
825.79	37.43
825.963	37.8
826.135	37.41
826.307	37.2
826.479	36.95
826.652	37.12
826.824	37.7
826.996	37.49
827.168	38.2
827.34	39.41
827.512	40.57
827.684	40.53
827.856	40.33
828.029	40.19
828.201	41.27
828.373	41.04
828.545	41.29
828.717	40.63
828.889	40.13
829.061	40.12
829.232	39.73
829.404	39.99
829.576	39.72
829.748	39.71
829.92	39.88
830.092	39.82
830.264	40.06
830.436	39.73
830.607	40.18
830.779	41.37
830.951	40.94
831.123	40.09
831.294	36.75
831.466	37.77
831.638	37.22
831.809	37.13
831.981	35.25
832.153	34.74
832.324	37.1
832.496	36.76
832.667	37.8
832.839	37.76
833.011	38.59
833.182	40.64
833.354	40.48
833.525	38.52
833.697	38.11
833.868	39.26
834.039	41.6
834.211	41.48
834.382	41.1
834.554	42.53
834.725	41.33
834.896	41.81
835.068	40.25
835.239	39.65
835.41	40.19
835.581	40.99
835.753	41
835.924	38.36
836.095	37.15
836.266	37.7
836.438	34.68
836.609	35.07
836.78	34.74
836.951	34.95
837.122	33.08
837.293	32.82
837.464	30.84
837.635	30.54
837.806	33.27
837.977	33.42
838.148	31.3
838.319	29.76
838.49	28.1
838.661	28.99
838.832	30.64
839.003	34.51
839.174	39.09
839.345	39.86
839.516	40.45
839.687	38.28
839.857	36.65
840.028	36.78
840.199	37.17
840.37	38.78
840.54	34.34
840.711	32.15
840.882	31.28
841.053	29.82
841.223	30.85
841.394	27.27
841.564	25.21
841.735	27.35
841.906	29.64
842.076	32.12
842.247	34.35
842.417	35.64
842.588	36.87
842.758	35.04
842.929	32.16
843.099	27.49
843.27	33.78
843.44	33.35
843.611	32.12
843.781	31.68
843.951	31.86
844.122	29.65
844.292	30.23
844.462	29.28
844.633	29.71
844.803	26.21
844.973	28.16
845.144	23.05
845.314	26.1
845.484	26.22
845.654	23.72
845.824	23.2
845.995	20.9
846.165	20.56
846.335	22.66
846.505	23.98
846.675	27.67
846.845	29.83
847.015	23.51
847.185	19.65
847.355	13.29
847.525	14.7
847.695	15.97
847.865	14.44
848.035	4
848.205	-0.7
848.375	-6.42
848.545	-4.62
848.715	-0.28
848.884	1.68
849.054	4.89
849.224	9.82
849.394	11.45
849.564	9.11
849.733	18.13
849.903	27.7
850.073	33.76
850.243	36.98
850.412	39.65
850.582	42.02
850.752	47.15
850.921	46.32
851.091	47.02
851.26	44.41
851.43	48.88
851.599	45.56
851.769	47.65
851.939	47.58
852.108	42.24
852.278	41.64
852.447	46.71
852.616	40.8
852.786	50.86
852.955	47.52
853.125	49.35
853.294	41.26
853.463	41.54
853.633	36.91
853.802	44.32
853.971	49.99
854.141	46.15
854.31	31.03
854.479	25.74
854.648	10.78
854.818	-2.1
854.987	-11.31
855.156	-9.75
855.325	-15.09
855.494	-1.27
855.663	-5.09
855.832	-12.65
856.001	-15.32
856.171	-12.2
856.34	-12.71
856.509	-14.78
856.678	-0.05
856.847	13.43
857.016	18.25
857.185	16.21
857.353	4.32
857.522	6.2
857.691	17.49
857.86	12.74
858.029	16.4
858.198	23.97
858.367	24.7
858.535	20.74
858.704	15.5
858.873	12.83
859.042	14.88
859.21	14.04
859.379	15.6
859.548	2.88
859.717	1.54
859.885	7.21
860.054	4.58
860.222	0.06
860.391	20.31
860.56	16.75
860.728	17.49
860.897	21.07
861.065	18.34
861.234	10.44
861.402	9.98
861.571	18.94
861.739	13.83
861.908	9.99
862.076	13.64
862.244	8.43
862.413	16.95
862.581	14.43
862.749	12.06
862.918	20.03
863.086	22.3
863.254	25.08
863.423	19.61
863.591	13.72
863.759	13.52
863.927	19.66
864.096	15.91
864.264	2.11
864.432	5.1
864.6	4.96
864.768	-2.82
864.936	0.64
865.104	1.08
865.272	3.41
865.44	9.64
865.608	6.28
865.776	3.68
865.944	0.01
866.112	2.32
866.28	9.41
866.448	9.79
866.616	17.81
866.784	2.16
866.952	-3.65
867.12	3.86
867.288	13.58
867.455	18.65
867.623	9.53
867.791	11.53
867.959	18.03
868.127	17.22
868.294	21.2
868.462	21.79
868.63	36.67
868.797	43.28
868.965	47.54
869.133	39.67
869.3	48.05
869.468	55.75
869.636	65.86
869.803	55.95
869.971	50.58
870.138	42.41
870.306	38.91
870.473	31.74
870.641	29.68
870.808	29.81
870.975	32.91
871.143	26.7
871.31	19.59
871.478	8.56
871.645	8.52
871.812	15.61
871.98	22.41
872.147	27.35
872.314	38.75
872.482	38.09
872.649	33.61
872.816	34.3
872.983	30.26
873.15	25.28
873.318	25.52
873.485	26.52
873.652	23.48
873.819	17.24
873.986	17.17
874.153	11.39
874.32	8.09
874.487	9.71
874.654	8.11
874.821	3.39
874.988	-0.57
875.155	0.95
875.322	7.52
875.489	-5.97
875.656	-10.1
875.823	-4.68
875.99	-1.97
876.157	-1.57
876.324	-1.6
876.49	0.43
876.657	8.93
876.824	13.88
876.991	7.14
877.157	9.27
877.324	13.96
877.491	21.57
877.658	15.7
877.824	15.39
877.991	25.2
878.157	25.78
878.324	26.7
878.491	23.71
878.657	18.28
878.824	26.2
878.99	14.15
879.157	16.94
879.323	1.92
879.49	3.17
879.656	5.12
879.823	1.72
879.989	-0.66
880.156	-6.83
880.322	-13.27
880.488	0.51
880.655	-6.2
880.821	1.22
880.987	6.84
881.154	20.34
881.32	32.98
881.486	36.35
881.652	36.48
881.819	39.05
881.985	40.99
882.151	43.24
882.317	40.79
882.483	44.37
882.649	43.32
882.816	41.88
882.982	41.02
883.148	37.81
883.314	38.26
883.48	38.35
883.646	38.45
883.812	39.04
883.978	39.47
884.144	40.48
884.31	39.91
884.476	39.24
884.642	38.04
884.807	37.67
884.973	40.34
885.139	40.79
885.305	39.51
885.471	40.23
885.637	40.29
885.802	38.47
885.968	37.83
886.134	37.78
886.3	39.32
886.465	41.67
886.631	40.57
886.797	37.89
886.962	35.7
887.128	37.1
887.293	34.89
887.459	32.7
887.625	32.4
887.79	34.31
887.956	30.97
888.121	27.72
888.287	26.43
888.452	28.89
888.618	24.45
888.783	24.05
