Data from LC_241_Reflection_1.txt Node
Date: Thu Nov 19 22:29:39 EST 2015
User: robert
Spectrometer: USB4E03001
Autoset integration time: false
Trigger mode: 4
Integration Time (sec): 1.000000E-1
Scans to average: 15
Electric dark correction enabled: true
Nonlinearity correction enabled: false
Boxcar width: 5
Stray light correction enabled: false
XAxis mode: Wavelengths
Stop averaging: false
Number of Pixels in Spectrum: 3648
>>>>>Begin Spectral Data<<<<<
177.566	80.21
177.785	60.67
178.005	62.86
178.225	53.64
178.445	72.14
178.665	52.23
178.885	47.75
179.105	-347.02
179.324	-277.79
179.544	-154.4
179.764	-83.05
179.984	-40.63
180.204	-76.71
180.423	-23.8
180.643	25.84
180.863	17.82
181.083	23.43
181.302	30.86
181.522	59.03
181.742	88.09
181.961	102.83
182.181	122.76
182.401	108.55
182.621	91.58
182.84	134.19
183.06	115.82
183.279	105.11
183.499	63.49
183.719	8.23
183.938	-195.62
184.158	487.03
184.377	276.82
184.597	-159.92
184.816	768.87
185.036	157.91
185.256	-1016.11
185.475	11.81
185.695	79.26
185.914	126.15
186.134	287.5
186.353	144.71
186.572	122.16
186.792	150.76
187.011	-1750.6
187.231	-456.9
187.45	-931.4
187.67	-46.29
187.889	-4.62
188.108	30.15
188.328	39.83
188.547	99.73
188.766	119.91
188.986	119.48
189.205	-238.24
189.424	23.31
189.644	44.21
189.863	25.51
190.082	45.58
190.302	60.98
190.521	83.08
190.74	65.64
190.959	76.43
191.178	48.81
191.398	9.87
191.617	-7.55
191.836	-211.36
192.055	-0.56
192.274	74.41
192.494	12.95
192.713	12.78
192.932	3.83
193.151	18.13
193.37	18.05
193.589	37.34
193.808	51.5
194.027	62.99
194.246	47
194.465	42.01
194.685	25.72
194.904	41.07
195.123	59
195.342	60.79
195.561	42.24
195.78	49.19
195.999	43.12
196.218	54.62
196.436	53.3
196.655	51.47
196.874	56.36
197.093	57.3
197.312	26.35
197.531	49.5
197.75	49.6
197.969	158.32
198.188	-281.89
198.407	-44.88
198.625	-104.33
198.844	-77.81
199.063	-873.08
199.282	-65.94
199.501	-130.97
199.719	-153.79
199.938	4.71
200.157	-11.62
200.376	14.85
200.594	279.76
200.813	109.93
201.032	110.62
201.251	-92.94
201.469	20.61
201.688	49.49
201.907	99.76
202.125	519.85
202.344	111.91
202.563	106.56
202.781	102.21
203	54
203.218	108.3
203.437	101.68
203.656	110.54
203.874	122.44
204.093	144.74
204.311	52.21
204.53	40.1
204.748	34.7
204.967	84.08
205.185	49.2
205.404	26.45
205.622	34.24
205.841	62.77
206.059	84
206.278	89.32
206.496	135.5
206.715	189.86
206.933	184.68
207.151	168.59
207.37	164
207.588	138.45
207.806	115.29
208.025	52.93
208.243	-67.61
208.461	-205.67
208.68	-245.12
208.898	-178.72
209.116	-183.75
209.335	-299.55
209.553	-1250.21
209.771	7348.74
209.989	-705.72
210.208	627.16
210.426	877.97
210.644	-190.37
210.862	-101.73
211.081	-67.19
211.299	-42
211.517	-70.51
211.735	-24.32
211.953	-11.61
212.171	-14.14
212.39	-15.14
212.608	-17.36
212.826	3.55
213.044	-17.4
213.262	-20.66
213.48	-38.88
213.698	-38.48
213.916	-39.51
214.134	-106.57
214.352	-160.06
214.57	-132.59
214.788	-120.26
215.006	-54.76
215.224	-136.18
215.442	-306.8
215.66	-40.15
215.878	-166.62
216.096	-189.27
216.314	-287.51
216.532	-172.48
216.75	-588.26
216.968	301.05
217.185	1164.03
217.403	1881.53
217.621	3146.59
217.839	-241.73
218.057	-102.99
218.275	-4.38
218.492	-42.29
218.71	-39.61
218.928	-29.35
219.146	-42.82
219.363	-4.5
219.581	-5.7
219.799	6.04
220.017	0.73
220.234	4.19
220.452	16.13
220.67	-3.19
220.887	19.16
221.105	49.38
221.323	28.24
221.54	27.63
221.758	35.91
221.976	29.33
222.193	25.47
222.411	13.61
222.629	33.87
222.846	13.26
223.064	16.65
223.281	13.28
223.499	3.04
223.716	15.35
223.934	19.02
224.151	14.77
224.369	12.4
224.586	7.51
224.804	21.3
225.021	8.54
225.239	13.92
225.456	0.73
225.674	6.31
225.891	10.35
226.108	10.55
226.326	6.74
226.543	6.96
226.76	4.01
226.978	10.61
227.195	10.58
227.413	10.57
227.63	10.31
227.847	15.59
228.064	13.26
228.282	12.5
228.499	9.84
228.716	12.83
228.934	11.18
229.151	13.02
229.368	12.64
229.585	11.94
229.802	8.51
230.02	7.78
230.237	6.76
230.454	6.43
230.671	3.3
230.888	2.39
231.105	-0.72
231.323	-0.56
231.54	-4.92
231.757	-7.34
231.974	-5.45
232.191	-2.42
232.408	-2.1
232.625	-0.94
232.842	0.96
233.059	7.96
233.276	12.3
233.493	12.74
233.71	14.91
233.927	20
234.144	21.68
234.361	16.55
234.578	17.57
234.795	18.69
235.012	20.18
235.229	17.71
235.446	14.24
235.663	11.98
235.879	10.39
236.096	6.36
236.313	3.49
236.53	6.39
236.747	5.96
236.964	8.74
237.181	3.56
237.397	5.77
237.614	2.25
237.831	4.84
238.048	5.38
238.264	6.47
238.481	12.5
238.698	12.82
238.915	15.54
239.131	13.32
239.348	10.59
239.565	15.51
239.781	13.37
239.998	15.04
240.215	12.9
240.431	11.51
240.648	11.77
240.865	9.45
241.081	9.23
241.298	9.2
241.514	12.47
241.731	11.4
241.947	11.57
242.164	11.46
242.38	10.75
242.597	10.53
242.814	11.91
243.03	12.3
243.246	12.87
243.463	12.42
243.679	9.85
243.896	9.08
244.112	9.59
244.329	8.47
244.545	8.35
244.762	9.44
244.978	9.27
245.194	7.57
245.411	8.14
245.627	8.45
245.843	9.13
246.06	12.05
246.276	11.54
246.492	12.09
246.709	12.76
246.925	12.38
247.141	12.69
247.357	12.44
247.574	12.97
247.79	12.35
248.006	12.8
248.222	12.48
248.439	11.39
248.655	11.3
248.871	11.57
249.087	9.85
249.303	9.17
249.519	7.57
249.736	8.6
249.952	8.22
250.168	7.75
250.384	6.18
250.6	6.2
250.816	7.46
251.032	7.97
251.248	7.19
251.464	9.09
251.68	9.98
251.896	10.62
252.112	9.75
252.328	9.18
252.544	9.72
252.76	9.6
252.976	10.56
253.192	8.77
253.408	8.44
253.624	10.49
253.84	10.71
254.056	10.43
254.272	10.91
254.487	12.48
254.703	14.13
254.919	13.62
255.135	15.85
255.351	15.12
255.567	17.37
255.782	17.99
255.998	16.13
256.214	15.81
256.43	14.88
256.646	16.93
256.861	15.43
257.077	15.25
257.293	16.93
257.508	16.54
257.724	16.36
257.94	16.41
258.155	16.16
258.371	15.05
258.587	13.66
258.802	14.13
259.018	13.32
259.234	13.31
259.449	12.35
259.665	11.26
259.88	10.08
260.096	10.11
260.312	8.88
260.527	8.7
260.743	8.7
260.958	8.89
261.174	8.6
261.389	8.59
261.605	8.65
261.82	8.28
262.036	8.02
262.251	8.63
262.466	9.03
262.682	9.86
262.897	9.59
263.113	8.68
263.328	10.27
263.543	10.28
263.759	9.81
263.974	9.5
264.189	10.33
264.405	9.77
264.62	9.58
264.835	8.17
265.051	8.14
265.266	8.12
265.481	8.04
265.696	6.55
265.912	6.68
266.127	7.48
266.342	6.96
266.557	7.57
266.773	8.16
266.988	8.21
267.203	8.43
267.418	8.98
267.633	9.76
267.848	10.16
268.064	9.75
268.279	9.39
268.494	8.15
268.709	6.95
268.924	6.25
269.139	6.7
269.354	5.73
269.569	5.71
269.784	5.24
269.999	3.79
270.214	5.04
270.429	4.61
270.644	3.76
270.859	4.04
271.074	3.88
271.289	4.07
271.504	4.47
271.719	5.91
271.934	6.41
272.149	7.76
272.363	8.15
272.578	7.43
272.793	8.39
273.008	8.87
273.223	9.65
273.438	11.17
273.653	11.13
273.867	10.96
274.082	10.68
274.297	10.07
274.512	8.82
274.726	9.07
274.941	8.26
275.156	6.62
275.371	7.18
275.585	6.87
275.8	6.31
276.015	6.14
276.229	7.05
276.444	7.3
276.659	7.63
276.873	7.32
277.088	8.26
277.302	9.08
277.517	9.34
277.732	10.48
277.946	9.11
278.161	9.01
278.375	8.99
278.59	8.51
278.804	7.93
279.019	7.43
279.233	7.7
279.448	7.58
279.662	7.5
279.877	8.11
280.091	7.2
280.306	8.41
280.52	7.64
280.735	8.8
280.949	8.6
281.163	8.95
281.378	9.65
281.592	11.03
281.806	11.28
282.021	12.27
282.235	11.53
282.449	10.35
282.664	9.76
282.878	9.82
283.092	9.38
283.307	9.4
283.521	9.08
283.735	9.41
283.949	8.04
284.164	7.3
284.378	6.17
284.592	5.97
284.806	7.12
285.02	6.47
285.234	7.2
285.449	6.73
285.663	6.76
285.877	7.54
286.091	7.26
286.305	7.23
286.519	7.41
286.733	7.52
286.947	8.86
287.161	7.93
287.375	9.11
287.589	8.76
287.803	9.54
288.017	10.21
288.231	9.57
288.445	8.8
288.659	9.57
288.873	9.41
289.087	8.93
289.301	8.92
289.515	9.8
289.729	9.81
289.943	10.49
290.157	10.69
290.371	10.17
290.584	10.06
290.798	10.72
291.012	10.62
291.226	10.73
291.44	11.66
291.654	10.78
291.867	11.02
292.081	10.44
292.295	9.46
292.509	8.82
292.722	9.27
292.936	8.79
293.15	8.39
293.364	9
293.577	9.89
293.791	8.86
294.005	9.78
294.218	9.34
294.432	8.81
294.645	8.89
294.859	7.78
295.073	6.67
295.286	7.69
295.5	8.33
295.713	7.33
295.927	6.86
296.14	7.49
296.354	6.49
296.568	6.96
296.781	7.47
296.994	8.02
297.208	8.79
297.421	9.74
297.635	9.98
297.848	9.22
298.062	9.88
298.275	9.87
298.489	9.84
298.702	10.37
298.915	10.37
299.129	10.74
299.342	10.55
299.555	10.04
299.769	8.95
299.982	8.43
300.195	8.66
300.409	8.38
300.622	7.65
300.835	8.33
301.048	8.67
301.262	8.43
301.475	7.92
301.688	7.24
301.901	7.88
302.115	8.41
302.328	8.24
302.541	7.38
302.754	7.02
302.967	7.45
303.18	6.61
303.393	5.98
303.607	5.96
303.82	5.13
304.033	5.9
304.246	6.24
304.459	6.23
304.672	6.03
304.885	7.39
305.098	7.4
305.311	7.35
305.524	7.05
305.737	7.3
305.95	6.88
306.163	7.05
306.376	6.48
306.589	6.23
306.802	5.41
307.015	4.9
307.228	4.79
307.44	4.97
307.653	4.87
307.866	5.64
308.079	6.54
308.292	6.95
308.505	8.4
308.718	8.12
308.93	8.19
309.143	8.67
309.356	8.99
309.569	8.95
309.781	9.05
309.994	9.04
310.207	8.58
310.42	8.57
310.632	7.87
310.845	7.3
311.058	8.37
311.27	7.77
311.483	8.44
311.696	8.32
311.908	8.54
312.121	7.75
312.333	7.29
312.546	6.81
312.759	6.95
312.971	8.02
313.184	7.99
313.396	7.67
313.609	8.84
313.821	8.57
314.034	9.21
314.246	9.52
314.459	9.73
314.671	10.47
314.884	10.25
315.096	9.18
315.309	9.58
315.521	9.4
315.733	9.2
315.946	8.36
316.158	8.91
316.371	8.29
316.583	7.85
316.795	7.08
317.008	6.72
317.22	7.79
317.432	8.63
317.644	7.73
317.857	6.56
318.069	5.89
318.281	6.05
318.494	5.58
318.706	5.97
318.918	4.42
319.13	6.21
319.342	5.35
319.555	4.28
319.767	3.78
319.979	2.54
320.191	3.73
320.403	4.84
320.615	3.89
320.827	3.63
321.039	2.49
321.252	4.5
321.464	4.92
321.676	5.62
321.888	6
322.1	6
322.312	7.3
322.524	8.48
322.736	7.6
322.948	9.04
323.16	8.76
323.372	8.07
323.584	7.74
323.796	7.15
324.007	6.63
324.219	7.55
324.431	7.57
324.643	7.67
324.855	6.96
325.067	8.29
325.279	7.8
325.491	7.92
325.702	9.47
325.914	9.13
326.126	9.55
326.338	10.71
326.55	10.29
326.761	10.17
326.973	9.58
327.185	9.87
327.396	9.92
327.608	10.55
327.82	10.84
328.032	10.92
328.243	11.37
328.455	10.73
328.666	10.63
328.878	10.3
329.09	10.56
329.301	11.25
329.513	11.16
329.725	9.23
329.936	9.57
330.148	9.91
330.359	10.08
330.571	10.12
330.782	10.6
330.994	10.59
331.205	11.37
331.417	12.58
331.628	12.26
331.84	12.48
332.051	13.57
332.262	12.83
332.474	12.8
332.685	13.09
332.897	14.11
333.108	14.04
333.319	14.53
333.531	15
333.742	13.56
333.953	14.86
334.165	15.11
334.376	15.38
334.587	15.67
334.799	15.04
335.01	13.89
335.221	12.73
335.432	13.31
335.644	12.67
335.855	11.88
336.066	12.2
336.277	10.66
336.488	10.08
336.7	9.26
336.911	8.88
337.122	9.34
337.333	10.47
337.544	10.32
337.755	10.06
337.966	9.5
338.177	10.1
338.388	10.32
338.599	11.03
338.811	11.54
339.022	11.61
339.233	10.95
339.444	11.03
339.655	10.85
339.866	11.17
340.076	10.95
340.287	12.39
340.498	11.83
340.709	12.11
340.92	11.96
341.131	12.03
341.342	12.24
341.553	13.22
341.764	12.62
341.975	11.94
342.185	12.72
342.396	13.3
342.607	12.58
342.818	12.34
343.029	12.7
343.239	13.17
343.45	12.57
343.661	13
343.872	13.12
344.082	13.81
344.293	14.33
344.504	14.21
344.714	13.48
344.925	13.3
345.136	13.66
345.346	13.28
345.557	13.03
345.768	12.94
345.978	12.66
346.189	12.1
346.399	12.08
346.61	12.08
346.821	11.63
347.031	12.17
347.242	12.8
347.452	13.16
347.663	12.8
347.873	13.57
348.084	14.44
348.294	14.42
348.504	15.64
348.715	15.81
348.925	16.26
349.136	16.47
349.346	16.3
349.557	16.35
349.767	15.9
349.977	16.15
350.188	15.16
350.398	15.14
350.608	15.54
350.819	15.01
351.029	14.55
351.239	14.07
351.449	13.95
351.66	13.7
351.87	13.76
352.08	13.9
352.29	14.39
352.501	14.61
352.711	14.37
352.921	13.96
353.131	13.55
353.341	13.42
353.552	13.96
353.762	13.96
353.972	13.94
354.182	13.62
354.392	12.77
354.602	11.71
354.812	11.42
355.022	10.97
355.232	10.88
355.442	10.97
355.652	11.15
355.862	10.3
356.072	10.17
356.282	10.94
356.492	11.11
356.702	12.02
356.912	12.54
357.122	12.2
357.332	12.53
357.542	12.51
357.752	12.59
357.962	12.36
358.171	13.1
358.381	13.48
358.591	13.33
358.801	12.9
359.011	12.82
359.221	12.69
359.43	12.99
359.64	12.6
359.85	12.92
360.06	12.88
360.269	13.15
360.479	12.43
360.689	12.15
360.899	11.77
361.108	12.16
361.318	12.21
361.528	12.24
361.737	12.46
361.947	12.58
362.156	12.29
362.366	12.75
362.576	12.59
362.785	12.42
362.995	12.25
363.204	12.67
363.414	12.3
363.623	11.67
363.833	11.7
364.042	11.83
364.252	12.39
364.461	12.22
364.671	11.56
364.88	11.72
365.09	12.15
365.299	12.25
365.509	11.55
365.718	11.35
365.927	12.1
366.137	11.94
366.346	12.17
366.555	11.56
366.765	11.83
366.974	11.39
367.183	11.63
367.393	11.44
367.602	12.11
367.811	12.58
368.021	13.12
368.23	12.22
368.439	12.14
368.648	11.41
368.857	12.28
369.067	12.29
369.276	13.26
369.485	12.56
369.694	12.58
369.903	12.14
370.112	11.71
370.321	11.39
370.531	12.01
370.74	11.77
370.949	12.1
371.158	11.42
371.367	11.54
371.576	10.52
371.785	10.91
371.994	10.97
372.203	10.93
372.412	11.05
372.621	10.63
372.83	10.37
373.039	10.83
373.248	11.04
373.457	11.12
373.666	11.13
373.874	11.88
374.083	11.57
374.292	11.43
374.501	10.87
374.71	10.87
374.919	11.4
375.128	11.58
375.336	11.66
375.545	11.43
375.754	11.11
375.963	11.29
376.171	11.09
376.38	11.34
376.589	11.08
376.798	11.46
377.006	11.5
377.215	11.6
377.424	11.45
377.632	11.3
377.841	11.36
378.05	11.85
378.258	11.51
378.467	11.47
378.675	11.13
378.884	11.36
379.093	11.38
379.301	11.28
379.51	10.8
379.718	10.8
379.927	10.48
380.135	10.48
380.344	9.84
380.552	9.97
380.761	9.63
380.969	9.85
381.177	9.72
381.386	9.88
381.594	9.93
381.803	10.01
382.011	9.98
382.219	10.32
382.428	10.15
382.636	10.39
382.845	10.35
383.053	10.31
383.261	10.14
383.469	10.15
383.678	10.04
383.886	9.98
384.094	10.17
384.302	10.25
384.511	9.77
384.719	9.59
384.927	9.29
385.135	9.34
385.343	9.45
385.552	9.94
385.76	9.89
385.968	9.64
386.176	9.71
386.384	9.83
386.592	9.97
386.8	10.09
387.008	9.74
387.216	10
387.424	9.74
387.633	9.69
387.841	9.55
388.049	9.56
388.257	9.75
388.465	9.61
388.672	9.34
388.88	8.85
389.088	8.79
389.296	9.1
389.504	8.88
389.712	8.87
389.92	9.12
390.128	8.75
390.336	8.87
390.544	8.66
390.751	8.73
390.959	8.67
391.167	8.92
391.375	9.1
391.583	8.95
391.79	9.22
391.998	9.57
392.206	9.61
392.414	9.76
392.621	9.73
392.829	9.67
393.037	9.62
393.244	9.62
393.452	9.57
393.66	9.3
393.867	9.71
394.075	9.66
394.283	9.32
394.49	8.98
394.698	8.9
394.905	8.84
395.113	8.87
395.32	8.93
395.528	9.23
395.735	9.44
395.943	9.46
396.15	9.04
396.358	8.96
396.565	9.05
396.773	9.18
396.98	9.24
397.188	9.31
397.395	9.25
397.602	9.02
397.81	8.56
398.017	8.15
398.225	8.26
398.432	8.27
398.639	8
398.847	8.11
399.054	8.07
399.261	7.88
399.468	8.01
399.676	7.92
399.883	8.01
400.09	8.44
400.297	9.31
400.505	9.29
400.712	9.53
400.919	9.8
401.126	9.74
401.333	9.86
401.54	9.93
401.748	10.01
401.955	10.32
402.162	10.58
402.369	10.26
402.576	9.77
402.783	9.78
402.99	9.66
403.197	9.63
403.404	9.4
403.611	9.3
403.818	9.4
404.025	9.28
404.232	8.96
404.439	8.82
404.646	8.68
404.853	8.57
405.06	8.7
405.267	9.03
405.474	8.97
405.681	8.9
405.887	9.28
406.094	9.26
406.301	9.15
406.508	9.32
406.715	9.19
406.922	9.28
407.128	9.16
407.335	8.98
407.542	8.87
407.749	8.72
407.955	9.11
408.162	8.78
408.369	8.87
408.575	9.06
408.782	8.72
408.989	8.74
409.195	8.74
409.402	8.72
409.609	8.55
409.815	8.23
410.022	8.22
410.228	7.94
410.435	7.87
410.642	7.75
410.848	7.49
411.055	7.74
411.261	8
411.468	8.29
411.674	8.34
411.881	8.73
412.087	8.8
412.294	8.96
412.5	9.06
412.706	8.93
412.913	8.8
413.119	8.73
413.326	8.68
413.532	8.5
413.738	8.26
413.945	8.28
414.151	8.19
414.357	8.4
414.564	8.3
414.77	8.35
414.976	8.49
415.182	8.54
415.389	8.73
415.595	8.53
415.801	8.55
416.007	8.65
416.214	8.63
416.42	8.58
416.626	8.33
416.832	8.52
417.038	8.39
417.244	8.41
417.45	8.49
417.657	8.55
417.863	8.86
418.069	8.84
418.275	8.88
418.481	8.78
418.687	8.78
418.893	9.01
419.099	8.8
419.305	9
419.511	8.97
419.717	8.83
419.923	8.74
420.129	8.68
420.335	8.6
420.541	8.47
420.746	8.46
420.952	8.45
421.158	8.31
421.364	8.35
421.57	8.23
421.776	8.31
421.982	8.27
422.187	8.3
422.393	8.16
422.599	8.18
422.805	8.18
423.01	8.25
423.216	8.2
423.422	8.05
423.628	8.03
423.833	8
424.039	7.8
424.245	7.86
424.45	7.85
424.656	8.03
424.862	7.99
425.067	7.96
425.273	8.01
425.478	7.99
425.684	8.18
425.889	8.34
426.095	8.34
426.301	8.44
426.506	8.56
426.712	8.52
426.917	8.54
427.123	8.61
427.328	8.63
427.533	8.7
427.739	8.82
427.944	8.83
428.15	8.71
428.355	8.72
428.561	8.65
428.766	8.67
428.971	8.8
429.177	8.65
429.382	8.64
429.587	8.8
429.793	8.44
429.998	8.39
430.203	8.22
430.408	8.32
430.614	8.4
430.819	8.4
431.024	8.27
431.229	8.16
431.434	8.16
431.64	8.06
431.845	8.14
432.05	8.42
432.255	8.44
432.46	8.44
432.665	8.37
432.87	8.12
433.076	8.23
433.281	8.13
433.486	8.11
433.691	8.07
433.896	8.19
434.101	7.99
434.306	7.76
434.511	7.69
434.716	7.71
434.921	7.68
435.126	8.03
435.331	7.97
435.535	8.03
435.74	7.99
435.945	8.07
436.15	7.88
436.355	8.11
436.56	8.25
436.765	8.34
436.97	8.39
437.174	8.26
437.379	8
437.584	8.04
437.789	8.17
437.993	8.24
438.198	8.17
438.403	8.16
438.608	8.03
438.812	7.93
439.017	7.88
439.222	7.93
439.426	7.94
439.631	7.96
439.836	7.94
440.04	7.9
440.245	7.92
440.45	8.08
440.654	8.17
440.859	8.24
441.063	8.36
441.268	8.42
441.472	8.32
441.677	8.3
441.881	8.42
442.086	8.27
442.29	8.2
442.495	8.07
442.699	8.08
442.904	7.97
443.108	7.81
443.312	7.69
443.517	7.55
443.721	7.66
443.925	7.82
444.13	7.83
444.334	8.08
444.538	8.06
444.743	8.18
444.947	8.01
445.151	8.15
445.356	8.29
445.56	8.38
445.764	8.42
445.968	8.42
446.173	8.33
446.377	8.24
446.581	8.17
446.785	8.24
446.989	8.11
447.193	8.13
447.398	8.02
447.602	7.87
447.806	7.87
448.01	7.85
448.214	7.76
448.418	7.72
448.622	7.65
448.826	7.69
449.03	7.72
449.234	7.77
449.438	7.79
449.642	7.76
449.846	7.79
450.05	7.76
450.254	7.79
450.458	7.79
450.662	7.79
450.866	7.81
451.069	7.63
451.273	7.49
451.477	7.53
451.681	7.43
451.885	7.54
452.089	7.54
452.292	7.5
452.496	7.34
452.7	7.25
452.904	7.09
453.107	7.16
453.311	7.3
453.515	7.37
453.719	7.38
453.922	7.28
454.126	7.22
454.33	7.26
454.533	7.06
454.737	7.06
454.94	7.24
455.144	7.44
455.348	7.34
455.551	7.35
455.755	7.32
455.958	7.15
456.162	7.19
456.365	7.26
456.569	7.14
456.772	7.29
456.976	7.55
457.179	7.46
457.383	7.45
457.586	7.53
457.79	7.56
457.993	7.5
458.196	7.61
458.4	7.86
458.603	7.86
458.807	7.95
459.01	7.97
459.213	7.88
459.417	7.97
459.62	7.89
459.823	7.94
460.026	7.91
460.23	7.97
460.433	7.97
460.636	7.83
460.839	7.77
461.042	7.7
461.246	7.66
461.449	7.54
461.652	7.47
461.855	7.58
462.058	7.53
462.261	7.61
462.464	7.55
462.668	7.56
462.871	7.72
463.074	7.71
463.277	7.63
463.48	7.82
463.683	7.94
463.886	7.94
464.089	7.88
464.292	7.84
464.495	7.88
464.698	7.81
464.901	7.78
465.104	7.57
465.306	7.57
465.509	7.73
465.712	7.55
465.915	7.47
466.118	7.48
466.321	7.59
466.524	7.73
466.726	7.44
466.929	7.47
467.132	7.49
467.335	7.58
467.538	7.5
467.74	7.4
467.943	7.34
468.146	7.42
468.348	7.29
468.551	7.15
468.754	7.08
468.956	7.29
469.159	7.25
469.362	7.25
469.564	7.24
469.767	7.36
469.969	7.42
470.172	7.63
470.375	7.53
470.577	7.72
470.78	7.85
470.982	7.92
471.185	7.92
471.387	7.82
471.59	7.92
471.792	7.91
471.995	8.01
472.197	7.92
472.399	7.97
472.602	8.08
472.804	7.86
473.007	7.7
473.209	7.49
473.411	7.47
473.614	7.69
473.816	7.65
474.018	7.71
474.22	7.61
474.423	7.75
474.625	7.56
474.827	7.43
475.03	7.58
475.232	7.67
475.434	7.87
475.636	7.73
475.838	7.76
476.04	7.71
476.243	7.65
476.445	7.67
476.647	7.62
476.849	7.7
477.051	7.71
477.253	7.62
477.455	7.7
477.657	7.65
477.859	7.73
478.061	7.65
478.263	7.62
478.465	7.67
478.667	7.69
478.869	7.85
479.071	7.68
479.273	7.74
479.475	7.7
479.677	7.66
479.879	7.68
480.081	7.6
480.283	7.72
480.485	7.73
480.686	7.79
480.888	7.79
481.09	7.7
481.292	7.84
481.494	7.87
481.695	7.94
481.897	7.88
482.099	7.82
482.301	7.84
482.502	7.73
482.704	7.71
482.906	7.66
483.107	7.7
483.309	7.65
483.511	7.6
483.712	7.54
483.914	7.54
484.115	7.51
484.317	7.54
484.519	7.56
484.72	7.59
484.922	7.56
485.123	7.55
485.325	7.47
485.526	7.43
485.728	7.49
485.929	7.53
486.131	7.49
486.332	7.57
486.534	7.58
486.735	7.57
486.936	7.55
487.138	7.58
487.339	7.53
487.541	7.59
487.742	7.63
487.943	7.59
488.144	7.58
488.346	7.65
488.547	7.61
488.748	7.57
488.95	7.63
489.151	7.61
489.352	7.63
489.553	7.82
489.755	7.78
489.956	7.84
490.157	7.88
490.358	7.89
490.559	7.89
490.76	7.91
490.961	7.92
491.163	7.83
491.364	7.84
491.565	7.89
491.766	7.74
491.967	7.81
492.168	7.84
492.369	7.8
492.57	7.84
492.771	7.79
492.972	7.76
493.173	7.78
493.374	7.88
493.575	7.88
493.776	7.73
493.976	7.71
494.177	7.57
494.378	7.55
494.579	7.59
494.78	7.52
494.981	7.47
495.182	7.45
495.382	7.32
495.583	7.17
495.784	7.19
495.985	7.4
496.185	7.48
496.386	7.61
496.587	7.52
496.788	7.42
496.988	7.58
497.189	7.59
497.39	7.85
497.59	7.92
497.791	7.98
497.992	8
498.192	7.97
498.393	8.04
498.593	8.09
498.794	8.12
498.994	8.2
499.195	8.02
499.395	7.98
499.596	7.72
499.796	7.74
499.997	7.72
500.197	7.66
500.398	7.78
500.598	7.59
500.799	7.64
500.999	7.58
501.199	7.6
501.4	7.7
501.6	7.87
501.801	7.9
502.001	7.84
502.201	7.93
502.402	8
502.602	7.86
502.802	8.04
503.002	7.89
503.203	7.97
503.403	7.99
503.603	7.96
503.803	8.04
504.003	8.13
504.204	8.16
504.404	8.11
504.604	8.17
504.804	8.33
505.004	8.26
505.204	8.43
505.404	8.41
505.604	8.42
505.804	8.43
506.005	8.26
506.205	8.17
506.405	8.18
506.605	8.36
506.805	8.43
507.005	8.28
507.204	8.26
507.404	8.16
507.604	8.21
507.804	8.28
508.004	8.38
508.204	8.49
508.404	8.52
508.604	8.65
508.804	8.47
509.003	8.47
509.203	8.49
509.403	8.54
509.603	8.64
509.803	8.61
510.002	8.6
510.202	8.4
510.402	8.44
510.602	8.5
510.801	8.45
511.001	8.45
511.201	8.36
511.4	8.37
511.6	8.5
511.8	8.45
511.999	8.54
512.199	8.61
512.398	8.72
512.598	8.73
512.797	8.8
512.997	8.77
513.197	8.84
513.396	8.89
513.596	8.9
513.795	8.76
513.994	8.84
514.194	8.98
514.393	8.88
514.593	8.95
514.792	8.95
514.992	8.89
515.191	9.03
515.39	9.01
515.59	9.07
515.789	9.13
515.988	9.26
516.188	9.26
516.387	9.18
516.586	9.27
516.786	9.29
516.985	9.2
517.184	9.2
517.383	9.14
517.582	9.22
517.782	9.18
517.981	9.17
518.18	9.11
518.379	9.07
518.578	9.11
518.777	9.17
518.976	9.2
519.176	9.34
519.375	9.44
519.574	9.49
519.773	9.56
519.972	9.66
520.171	9.77
520.37	9.82
520.569	9.93
520.768	9.96
520.967	9.94
521.166	9.99
521.365	10.13
521.564	10.16
521.762	10.2
521.961	10.2
522.16	10.25
522.359	10.35
522.558	10.43
522.757	10.36
522.956	10.39
523.154	10.38
523.353	10.4
523.552	10.32
523.751	10.3
523.949	10.36
524.148	10.36
524.347	10.4
524.546	10.26
524.744	10.32
524.943	10.43
525.142	10.4
525.34	10.48
525.539	10.46
525.737	10.48
525.936	10.62
526.135	10.62
526.333	10.63
526.532	10.57
526.73	10.63
526.929	10.63
527.127	10.6
527.326	10.62
527.524	10.7
527.723	10.79
527.921	10.87
528.12	10.82
528.318	10.87
528.516	10.9
528.715	10.95
528.913	11.03
529.112	11.07
529.31	11.15
529.508	11.2
529.707	11.21
529.905	11.27
530.103	11.3
530.301	11.33
530.5	11.39
530.698	11.44
530.896	11.53
531.094	11.53
531.293	11.56
531.491	11.64
531.689	11.66
531.887	11.69
532.085	11.68
532.283	11.55
532.481	11.59
532.68	11.62
532.878	11.7
533.076	11.72
533.274	11.77
533.472	11.72
533.67	11.7
533.868	11.75
534.066	11.71
534.264	11.69
534.462	11.85
534.66	11.89
534.858	11.86
535.056	11.9
535.253	11.91
535.451	11.92
535.649	12.05
535.847	12.16
536.045	12.22
536.243	12.31
536.441	12.43
536.638	12.4
536.836	12.42
537.034	12.53
537.232	12.54
537.43	12.66
537.627	12.7
537.825	12.74
538.023	12.69
538.22	12.71
538.418	12.78
538.616	12.72
538.813	12.73
539.011	12.77
539.209	12.89
539.406	12.97
539.604	12.87
539.801	12.96
539.999	12.96
540.196	13.01
540.394	13.03
540.591	13.06
540.789	13.13
540.986	13.22
541.184	13.24
541.381	13.17
541.579	13.25
541.776	13.29
541.974	13.34
542.171	13.36
542.368	13.42
542.566	13.54
542.763	13.56
542.96	13.63
543.158	13.72
543.355	13.82
543.552	13.98
543.75	13.96
543.947	14.02
544.144	13.92
544.341	14.06
544.539	14.12
544.736	14.18
544.933	14.24
545.13	14.32
545.327	14.34
545.524	14.35
545.722	14.25
545.919	14.29
546.116	14.28
546.313	14.5
546.51	14.55
546.707	14.63
546.904	14.53
547.101	14.68
547.298	14.69
547.495	14.71
547.692	14.82
547.889	14.94
548.086	15.02
548.283	15.2
548.48	15.21
548.677	15.23
548.874	15.33
549.07	15.52
549.267	15.42
549.464	15.55
549.661	15.61
549.858	15.78
550.055	15.76
550.251	15.82
550.448	15.83
550.645	16.06
550.842	16.18
551.038	15.99
551.235	16.05
551.432	16.36
551.628	16.32
551.825	16.38
552.022	16.09
552.218	16.33
552.415	16.45
552.612	16.44
552.808	16.41
553.005	16.47
553.201	16.76
553.398	16.77
553.594	16.47
553.791	16.63
553.987	16.76
554.184	16.96
554.38	17
554.577	16.95
554.773	17.12
554.97	17.15
555.166	17.15
555.362	16.89
555.559	17
555.755	17.21
555.952	17.31
556.148	17.26
556.344	17.51
556.541	17.6
556.737	17.59
556.933	17.63
557.129	17.6
557.326	17.65
557.522	17.9
557.718	17.9
557.914	18.04
558.11	17.78
558.307	17.99
558.503	17.75
558.699	17.64
558.895	17.7
559.091	17.83
559.287	17.91
559.483	17.98
559.679	18.06
559.876	18.18
560.072	18.25
560.268	18.57
560.464	18.36
560.66	18.57
560.856	18.8
561.052	18.8
561.247	18.95
561.443	18.84
561.639	18.71
561.835	18.84
562.031	18.89
562.227	18.9
562.423	18.93
562.619	19.28
562.815	19.19
563.01	19.17
563.206	19.41
563.402	19.27
563.598	19.59
563.793	19.89
563.989	19.88
564.185	19.8
564.381	19.88
564.576	19.84
564.772	19.91
564.968	19.98
565.163	20.05
565.359	20.04
565.555	20.15
565.75	20.22
565.946	20.32
566.141	20.39
566.337	20.55
566.532	20.74
566.728	20.94
566.923	20.87
567.119	21.04
567.314	21.05
567.51	21.15
567.705	21.25
567.901	21.28
568.096	21.33
568.292	21.23
568.487	21.12
568.682	21.2
568.878	21.22
569.073	21.37
569.268	21.38
569.464	21.49
569.659	21.66
569.854	21.75
570.05	21.91
570.245	21.98
570.44	22.37
570.635	22.56
570.831	22.39
571.026	22.28
571.221	22.28
571.416	22.4
571.611	22.53
571.806	22.47
572.002	22.65
572.197	22.52
572.392	22.47
572.587	22.4
572.782	22.4
572.977	22.74
573.172	23.17
573.367	23.17
573.562	23.28
573.757	23.33
573.952	23.41
574.147	23.28
574.342	23.53
574.537	23.61
574.732	23.61
574.927	23.68
575.121	23.68
575.316	23.51
575.511	23.51
575.706	23.56
575.901	23.42
576.096	23.63
576.29	23.86
576.485	23.84
576.68	23.87
576.875	23.96
577.069	24.04
577.264	24.05
577.459	23.95
577.654	24.28
577.848	24.18
578.043	24.53
578.238	24.58
578.432	24.31
578.627	24.33
578.821	24.63
579.016	24.5
579.21	24.54
579.405	24.5
579.6	24.74
579.794	24.76
579.989	24.99
580.183	24.73
580.378	24.74
580.572	24.84
580.766	24.9
580.961	24.71
581.155	24.94
581.35	24.97
581.544	24.99
581.738	24.85
581.933	24.97
582.127	24.95
582.321	25.14
582.516	25.14
582.71	25.44
582.904	25.53
583.099	25.61
583.293	25.73
583.487	25.88
583.681	25.98
583.875	26.2
584.07	26.18
584.264	26.28
584.458	26.27
584.652	26.33
584.846	26.18
585.04	26.44
585.234	26.63
585.428	26.61
585.623	26.6
585.817	26.67
586.011	26.79
586.205	26.78
586.399	27.06
586.593	27.05
586.787	26.9
586.981	27.06
587.174	26.75
587.368	26.83
587.562	26.72
587.756	26.84
587.95	26.86
588.144	26.62
588.338	26.71
588.532	26.71
588.725	26.87
588.919	27.15
589.113	27.21
589.307	27.21
589.501	27.18
589.694	27.35
589.888	27.49
590.082	27.57
590.275	27.8
590.469	27.72
590.663	27.62
590.856	27.51
591.05	27.29
591.244	27.25
591.437	27.35
591.631	27.4
591.824	27.48
592.018	27.15
592.212	27.19
592.405	27.21
592.599	27.22
592.792	27.23
592.986	27.42
593.179	27.59
593.372	27.81
593.566	27.99
593.759	28.05
593.953	28.18
594.146	28.56
594.339	28.82
594.533	28.92
594.726	29.11
594.92	29.09
595.113	29.16
595.306	29.19
595.499	29.01
595.693	29.32
595.886	29.46
596.079	29.59
596.272	29.57
596.466	29.58
596.659	29.53
596.852	29.38
597.045	29.58
597.238	29.55
597.431	29.61
597.624	29.76
597.818	29.57
598.011	29.52
598.204	29.47
598.397	29.55
598.59	29.29
598.783	29.36
598.976	29.38
599.169	29.36
599.362	29.44
599.555	29.31
599.748	29.38
599.941	29.3
600.134	29.4
600.326	29.19
600.519	29.03
600.712	29.19
600.905	29.23
601.098	29.53
601.291	29.59
601.483	29.71
601.676	30.02
601.869	29.67
602.062	29.81
602.255	29.9
602.447	30.1
602.64	30.33
602.833	30.22
603.025	30.38
603.218	30.28
603.411	30.27
603.603	30.11
603.796	30.14
603.989	30.19
604.181	30.1
604.374	30.13
604.566	30.07
604.759	29.93
604.951	30.09
605.144	30.06
605.336	30.19
605.529	30.15
605.721	30.23
605.914	30.14
606.106	30.35
606.299	30.51
606.491	30.47
606.683	30.36
606.876	30.68
607.068	30.58
607.26	30.4
607.453	30.33
607.645	30.36
607.837	30.49
608.03	30.68
608.222	30.8
608.414	30.65
608.606	30.67
608.799	31.23
608.991	31.2
609.183	31.32
609.375	31.47
609.567	31.55
609.759	31.5
609.952	31.63
610.144	31.56
610.336	31.55
610.528	31.6
610.72	31.55
610.912	31.27
611.104	31.26
611.296	31.27
611.488	31.32
611.68	31.33
611.872	31.39
612.064	31.24
612.256	31.5
612.448	31.67
612.64	32.05
612.832	32.31
613.023	32.42
613.215	32.32
613.407	32.58
613.599	32.54
613.791	32.55
613.983	32.56
614.174	32.48
614.366	32.14
614.558	31.6
614.75	31.43
614.941	31.32
615.133	31.29
615.325	31.32
615.516	31.24
615.708	31.28
615.9	31.11
616.091	31.22
616.283	31.5
616.475	31.81
616.666	32.36
616.858	32.43
617.049	32.53
617.241	32.63
617.432	32.54
617.624	32.54
617.815	32.9
618.007	32.91
618.198	32.92
618.39	32.74
618.581	32.98
618.773	32.84
618.964	32.73
619.155	32.69
619.347	32.55
619.538	32.96
619.729	32.81
619.921	32.53
620.112	32.81
620.303	33.02
620.494	32.85
620.686	32.75
620.877	32.73
621.068	32.63
621.259	32.67
621.451	32.83
621.642	32.57
621.833	32.81
622.024	32.77
622.215	32.57
622.406	32.58
622.597	32.85
622.788	32.64
622.98	32.68
623.171	32.94
623.362	33
623.553	33.1
623.744	33.25
623.935	33.38
624.126	33.67
624.317	33.97
624.508	33.91
624.698	34.24
624.889	34.23
625.08	34.44
625.271	34.64
625.462	34.76
625.653	34.82
625.844	34.92
626.034	34.78
626.225	34.52
626.416	34.42
626.607	34.66
626.798	34.36
626.988	34.51
627.179	34.26
627.37	34.07
627.56	34.01
627.751	34.02
627.942	34.05
628.132	34.08
628.323	34.21
628.514	34.49
628.704	34.38
628.895	34.45
629.085	34.46
629.276	34.6
629.466	34.74
629.657	34.77
629.847	34.77
630.038	34.74
630.228	34.77
630.419	34.71
630.609	34.72
630.8	34.67
630.99	35.07
631.181	35.27
631.371	35.46
631.561	35.49
631.752	35.48
631.942	35.46
632.132	35.51
632.323	35.56
632.513	35.62
632.703	35.38
632.893	35.39
633.084	35.23
633.274	35.3
633.464	35.35
633.654	35.33
633.844	35.28
634.034	35.17
634.225	35.17
634.415	35.34
634.605	35.23
634.795	35.3
634.985	35.34
635.175	35
635.365	34.72
635.555	34.57
635.745	34.76
635.935	35.04
636.125	35.16
636.315	35.18
636.505	35.16
636.695	35.33
636.885	35.23
637.075	35.27
637.265	35.64
637.455	35.67
637.644	35.68
637.834	35.57
638.024	35.08
638.214	35.18
638.404	35.16
638.593	35.15
638.783	35.52
638.973	35.66
639.163	35.71
639.352	35.91
639.542	36.05
639.732	36.19
639.921	36.2
640.111	36.36
640.301	36.42
640.49	36.5
640.68	36.09
640.87	35.78
641.059	35.96
641.249	36.09
641.438	35.94
641.628	36
641.817	35.97
642.007	35.63
642.196	35.7
642.386	35.8
642.575	35.92
642.764	36.61
642.954	36.86
643.143	36.83
643.333	36.94
643.522	36.99
643.711	36.55
643.901	36.75
644.09	37.15
644.279	37.56
644.469	37.43
644.658	37.46
644.847	37.18
645.036	37.03
645.226	37.31
645.415	36.87
645.604	36.79
645.793	37.3
645.982	37.05
646.171	36.81
646.361	36.8
646.55	36.71
646.739	36.78
646.928	36.72
647.117	36.85
647.306	36.73
647.495	36.72
647.684	36.65
647.873	36.65
648.062	37.13
648.251	37.36
648.44	36.91
648.629	37.28
648.818	37.14
649.007	37.13
649.196	37.29
649.384	37.11
649.573	37.16
649.762	37.59
649.951	37.74
650.14	37.68
650.328	37.61
650.517	37.87
650.706	37.75
650.895	37.83
651.083	37.88
651.272	37.35
651.461	37.51
651.65	37.93
651.838	37.69
652.027	37.55
652.216	37.3
652.404	37.38
652.593	37.34
652.781	36.91
652.97	36.75
653.158	36.92
653.347	37.27
653.535	37.12
653.724	36.96
653.912	36.91
654.101	37.07
654.289	37.2
654.478	37.36
654.666	37.47
654.855	37.75
655.043	37.93
655.231	37.93
655.42	38.48
655.608	38.89
655.796	39.18
655.985	39.34
656.173	39.33
656.361	39.41
656.55	39.35
656.738	39.43
656.926	39.6
657.114	39.89
657.302	39.62
657.491	39.41
657.679	39.14
657.867	38.74
658.055	38.89
658.243	38.89
658.431	39.09
658.619	39.1
658.807	38.94
658.996	39.27
659.184	39.03
659.372	39.35
659.56	39.25
659.748	39.2
659.936	39.36
660.124	39.17
660.311	39.35
660.499	38.94
660.687	39.06
660.875	39.68
661.063	39.5
661.251	39.7
661.439	39.69
661.627	39.52
661.814	39.43
662.002	39.41
662.19	39.23
662.378	39.09
662.565	39.48
662.753	39.12
662.941	38.81
663.129	38.39
663.316	38.2
663.504	38.28
663.692	38.68
663.879	38.84
664.067	39.13
664.254	39.5
664.442	39.56
664.63	39.61
664.817	39.73
665.005	39.63
665.192	40.22
665.38	40.19
665.567	40.63
665.755	40.6
665.942	40.97
666.13	40.97
666.317	41.04
666.504	40.72
666.692	40.49
666.879	40.75
667.067	40.99
667.254	40.95
667.441	41.35
667.629	40.68
667.816	40.42
668.003	40.33
668.19	40.39
668.378	40.59
668.565	41.14
668.752	41.54
668.939	41.45
669.127	40.71
669.314	41.02
669.501	40.77
669.688	41.13
669.875	41.42
670.062	41.56
670.249	41.17
670.436	40.96
670.623	41.23
670.81	41.19
670.997	41.64
671.184	41.96
671.371	41.89
671.558	41.51
671.745	41.56
671.932	41.71
672.119	41.28
672.306	41.75
672.493	41.61
672.68	41.26
672.867	41.31
673.054	40.82
673.24	41.2
673.427	41.45
673.614	42.13
673.801	42.02
673.988	41.74
674.174	42.16
674.361	42.05
674.548	42.45
674.734	42.31
674.921	42.47
675.108	42.31
675.294	42.31
675.481	42.12
675.668	41.93
675.854	42.32
676.041	42.27
676.227	42.22
676.414	42.9
676.601	42.81
676.787	43.29
676.974	42.7
677.16	42.5
677.347	42.64
677.533	42.41
677.719	42.33
677.906	41.59
678.092	41.62
678.279	41.7
678.465	41.27
678.651	41.03
678.838	40.74
679.024	41.04
679.21	41.48
679.397	41.36
679.583	41.72
679.769	41.82
679.955	42.32
680.142	42.55
680.328	42.83
680.514	42.57
680.7	42.6
680.886	42.41
681.073	42.48
681.259	42.5
681.445	42.55
681.631	42.13
681.817	42.55
682.003	42.57
682.189	42.36
682.375	42.01
682.561	42.39
682.747	42.61
682.933	42.68
683.119	42.7
683.305	42.85
683.491	42.9
683.677	42.98
683.863	42.36
684.049	42.16
684.235	42.54
684.42	42.55
684.606	42.65
684.792	43.03
684.978	43.23
685.164	42.98
685.349	43.19
685.535	43.12
685.721	43.42
685.907	43.9
686.092	43.74
686.278	43.6
686.464	43.79
686.649	43.48
686.835	43.27
687.021	43.4
687.206	43.46
687.392	43.05
687.577	43.07
687.763	42.76
687.948	42.68
688.134	42.75
688.319	42.84
688.505	42.52
688.69	42.64
688.876	42.9
689.061	42.5
689.247	42.43
689.432	42.61
689.618	42.45
689.803	42.53
689.988	43.09
690.174	43.36
690.359	42.81
690.544	43.32
690.73	43.29
690.915	43.03
691.1	43.39
691.285	43.89
691.471	43.87
691.656	44.15
691.841	43.97
692.026	43.39
692.211	43.22
692.396	43.62
692.582	43.04
692.767	42.93
692.952	42.55
693.137	42.56
693.322	42.25
693.507	42.85
693.692	43.36
693.877	43.45
694.062	43.35
694.247	43.04
694.432	43.26
694.617	43.92
694.802	43.84
694.987	44.22
695.172	44.36
695.357	44.46
695.541	44.14
695.726	43.88
695.911	44.9
696.096	44.72
696.281	45
696.466	45.09
696.65	44.88
696.835	45.44
697.02	45.32
697.204	45.04
697.389	45.2
697.574	45.15
697.759	44.35
697.943	44.03
698.128	43.96
698.312	44.15
698.497	44.03
698.682	44.22
698.866	44.12
699.051	44.18
699.235	44.22
699.42	43.92
699.604	44.19
699.789	44.5
699.973	44.1
700.158	44.44
700.342	44.71
700.527	45.17
700.711	44.8
700.895	44.82
701.08	45.32
701.264	45.57
701.448	46.1
701.633	45.89
701.817	46.43
702.001	46.69
702.186	47.21
702.37	46.76
702.554	46.49
702.738	46.31
702.923	46.36
703.107	45.68
703.291	45.74
703.475	45.57
703.659	45.3
703.843	45.82
704.027	46.17
704.212	45.02
704.396	45.43
704.58	45.47
704.764	45.54
704.948	45.09
705.132	44.99
705.316	44.79
705.5	44.83
705.684	44.89
705.868	44.71
706.052	44.73
706.235	44.7
706.419	44.61
706.603	44.47
706.787	44.49
706.971	44.71
707.155	44.82
707.339	45.34
707.522	45.12
707.706	45.47
707.89	44.31
708.074	44.15
708.257	44.84
708.441	44.95
708.625	44.81
708.808	45.22
708.992	45
709.176	45.05
709.359	44.59
709.543	44.5
709.727	44.44
709.91	45.02
710.094	44.86
710.277	44.9
710.461	44.37
710.644	44.23
710.828	44.03
711.011	44.31
711.195	44.47
711.378	45.12
711.562	45.67
711.745	44.84
711.928	44.88
712.112	44.88
712.295	45.04
712.478	45.1
712.662	45.7
712.845	45.63
713.028	45.62
713.212	45.4
713.395	44.95
713.578	44.36
713.761	45.04
713.945	45.19
714.128	45.69
714.311	45.83
714.494	46.25
714.677	45.56
714.86	46.14
715.043	46.18
715.227	46.25
715.41	46.29
715.593	46.75
715.776	46.87
715.959	46.35
716.142	45.75
716.325	45.48
716.508	45.13
716.691	45.72
716.874	44.99
717.057	44.84
717.239	45.22
717.422	45.02
717.605	44.72
717.788	44.83
717.971	45.37
718.154	46.17
718.337	46.15
718.519	46.12
718.702	45.92
718.885	45.94
719.068	46.14
719.25	46.16
719.433	46.9
719.616	46.77
719.798	45.85
719.981	46.47
720.164	45.92
720.346	45.72
720.529	44.92
720.712	43.97
720.894	44.7
721.077	44.1
721.259	43.98
721.442	43.01
721.624	43.1
721.807	44.1
721.989	43.51
722.172	44.11
722.354	44.1
722.537	45.67
722.719	46.92
722.901	47.08
723.084	47.85
723.266	47.22
723.448	47.72
723.631	49.11
723.813	48.65
723.995	48.81
724.178	48.26
724.36	48.66
724.542	48.14
724.724	47.32
724.907	47.6
725.089	47.87
725.271	47.88
725.453	47.67
725.635	46.64
725.817	47.92
725.999	47.43
726.181	47.63
726.364	47.16
726.546	47.13
726.728	47.86
726.91	47.44
727.092	47.28
727.274	48.11
727.456	47.92
727.638	47.45
727.819	46.21
728.001	46.41
728.183	45.84
728.365	46.35
728.547	46.5
728.729	46.63
728.911	46.42
729.093	45.75
729.274	45.65
729.456	45.41
729.638	46.12
729.82	47.18
730.001	47.15
730.183	47.61
730.365	47.09
730.546	46.68
730.728	45.53
730.91	45.83
731.091	45.78
731.273	45.36
731.455	45.66
731.636	45.77
731.818	45.01
731.999	44.49
732.181	44.14
732.362	44.54
732.544	44.68
732.725	45.37
732.907	45.07
733.088	45.16
733.27	45.26
733.451	45.37
733.633	45.11
733.814	45.58
733.995	45.62
734.177	45.58
734.358	44.85
734.539	45.38
734.721	45.93
734.902	45.5
735.083	46.46
735.264	46.95
735.446	47.13
735.627	46.99
735.808	46.53
735.989	46.96
736.17	47.93
736.351	48.32
736.533	48.48
736.714	48.3
736.895	49.2
737.076	49.46
737.257	48.4
737.438	47.96
737.619	47.43
737.8	47.09
737.981	47.38
738.162	46.83
738.343	47.08
738.524	46.26
738.705	45.63
738.886	45.91
739.067	44.57
739.247	45.47
739.428	44.85
739.609	45.66
739.79	46.49
739.971	46.82
740.151	46.62
740.332	47.13
740.513	47.3
740.694	47.32
740.874	46.95
741.055	48.18
741.236	47.86
741.417	49.17
741.597	49.09
741.778	48.84
741.958	48.35
742.139	47.96
742.32	47.21
742.5	47.29
742.681	47.3
742.861	47.74
743.042	46.74
743.222	46.31
743.403	46.15
743.583	46.1
743.764	45.67
743.944	46.3
744.124	46.62
744.305	47.07
744.485	47.5
744.666	47.42
744.846	46.68
745.026	46.85
745.207	47.27
745.387	46.63
745.567	46.5
745.747	46.79
745.928	46.76
746.108	46.71
746.288	46.27
746.468	46.1
746.648	46.63
746.829	46.82
747.009	46.22
747.189	46.06
747.369	47.18
747.549	46.91
747.729	46.67
747.909	46.58
748.089	47.27
748.269	47.75
748.449	47.35
748.629	48.03
748.809	48.49
748.989	49.12
749.169	49.13
749.349	49.32
749.529	49.67
749.709	50.21
749.889	49.69
750.068	48.29
750.248	48.04
750.428	48.7
750.608	49.03
750.788	48.19
750.967	48.53
751.147	48.46
751.327	46.9
751.507	45.8
751.686	45.61
751.866	46.01
752.046	47.13
752.225	47.02
752.405	46.65
752.585	45.9
752.764	45.92
752.944	45.41
753.123	46.06
753.303	46.74
753.482	47.78
753.662	47.31
753.841	47.13
754.021	47.4
754.2	47.41
754.38	47.14
754.559	47.07
754.739	47.05
754.918	46.9
755.097	46.28
755.277	46.2
755.456	45.86
755.635	46.15
755.815	46.32
755.994	46.29
756.173	46.02
756.352	46.28
756.532	46.5
756.711	46.98
756.89	47.98
757.069	47.56
757.248	46.76
757.427	47.27
757.607	47.11
757.786	46.41
757.965	46.93
758.144	46.81
758.323	46.79
758.502	45.74
758.681	45.29
758.86	44.26
759.039	45.54
759.218	45.76
759.397	44.8
759.576	45.09
759.755	45.23
759.934	43.63
760.113	43.99
760.291	44.47
760.47	45.37
760.649	46.05
760.828	45.84
761.007	44.69
761.186	44.66
761.364	44.9
761.543	44.83
761.722	44.52
761.901	45.43
762.079	45.88
762.258	45.59
762.437	46.17
762.615	45.52
762.794	46.5
762.972	47.54
763.151	48.7
763.33	49.09
763.508	49.2
763.687	50.23
763.865	50.18
764.044	50.4
764.222	50.43
764.401	49.9
764.579	50.69
764.758	50.2
764.936	49.61
765.114	48.89
765.293	48.57
765.471	48.57
765.65	48.08
765.828	48.18
766.006	47.6
766.184	47.56
766.363	47.48
766.541	46.62
766.719	46.79
766.898	47.48
767.076	48.6
767.254	48.88
767.432	49.27
767.61	48.88
767.788	48.84
767.967	48.56
768.145	48.08
768.323	48.18
768.501	49.59
768.679	48.88
768.857	48.8
769.035	47.66
769.213	48.3
769.391	48.08
769.569	48.8
769.747	47.6
769.925	47.76
770.103	48.08
770.281	47.26
770.459	45.7
770.636	47.42
770.814	47.25
770.992	47
771.17	46.55
771.348	45.35
771.525	44.25
771.703	45.29
771.881	46.64
772.059	46.34
772.236	46.16
772.414	47.8
772.592	45.78
772.769	45.37
772.947	45.94
773.125	46.45
773.302	48.62
773.48	49.35
773.657	50.06
773.835	48.42
774.013	48.92
774.19	50.35
774.368	48.87
774.545	49.81
774.723	50.1
774.9	49.78
775.077	48.63
775.255	45.31
775.432	44.68
775.61	43.69
775.787	42.84
775.964	43.05
776.142	44.97
776.319	46.59
776.496	46.93
776.674	47.65
776.851	48.37
777.028	48.71
777.205	51.42
777.382	51.31
777.56	51.87
777.737	53.07
777.914	51.39
778.091	50.88
778.268	49.93
778.445	50.98
778.622	49
778.8	50.29
778.977	50.93
779.154	59.91
779.331	59.83
779.508	60.72
779.685	61.56
779.862	62.69
780.038	61.65
780.215	62.34
780.392	61.9
780.569	64.29
780.746	61.6
780.923	60.06
781.1	51.19
781.277	52.05
781.453	50.23
781.63	48.44
781.807	50.21
781.984	50.1
782.16	49.89
782.337	50.04
782.514	50.16
782.691	51.13
782.867	51.4
783.044	49.07
783.221	49.94
783.397	51.76
783.574	54.26
783.75	52.58
783.927	53.66
784.103	53.67
784.28	52.84
784.456	51.34
784.633	51.57
784.809	52.16
784.986	52.89
785.162	50.83
785.339	48.92
785.515	48.37
785.692	49.12
785.868	49.68
786.044	47.74
786.221	47.97
786.397	49.51
786.573	49.28
786.749	49.56
786.926	49.5
787.102	49.94
787.278	50.54
787.454	50.65
787.631	50.3
787.807	47.13
787.983	47.68
788.159	48.19
788.335	48.15
788.511	47.87
788.687	48.45
788.863	49.72
789.039	50.37
789.216	51.03
789.392	51.16
789.568	51.03
789.744	53.41
789.919	55.38
790.095	55.33
790.271	55.1
790.447	55.01
790.623	55.09
790.799	54.35
790.975	54.86
791.151	54.06
791.327	53.21
791.502	54.04
791.678	52.15
791.854	51.23
792.03	51.82
792.205	51.29
792.381	53.03
792.557	52.85
792.733	51.88
792.908	52.09
793.084	51.8
793.259	51.51
793.435	49.87
793.611	52.1
793.786	51.2
793.962	49.74
794.137	50
794.313	47.96
794.488	48.64
794.664	48.28
794.839	46.57
795.015	45.39
795.19	44.55
795.366	45.85
795.541	44.68
795.716	43.62
795.892	42.86
796.067	42.24
796.242	40.85
796.418	42.61
796.593	43.75
796.768	45.41
796.944	46.68
797.119	47.52
797.294	47.64
797.469	48.74
797.644	50.88
797.82	52.4
797.995	51.92
798.17	54.69
798.345	52.41
798.52	52.42
798.695	50.89
798.87	51.88
799.045	52.9
799.22	52.38
799.395	50.52
799.57	50.99
799.745	50.72
799.92	49.29
800.095	47.08
800.27	46.78
800.445	47.47
800.62	47.25
800.795	46.95
800.97	46.2
801.145	45.79
801.319	45.68
801.494	44.39
801.669	45.51
801.844	48.27
802.018	50.25
802.193	49.39
802.368	46.73
802.543	49.29
802.717	46.45
802.892	48.42
803.067	48.05
803.241	46.8
803.416	45.92
803.59	46.23
803.765	46.89
803.94	45.07
804.114	44.75
804.289	45.3
804.463	42.91
804.638	45.39
804.812	43.03
804.986	44.32
805.161	46.16
805.335	47.91
805.51	44.94
805.684	42.4
805.858	42.04
806.033	43.88
806.207	44.97
806.381	46.55
806.556	47.57
806.73	49.26
806.904	52.2
807.078	53.1
807.253	52.98
807.427	53.69
807.601	54.03
807.775	55.59
807.949	54.57
808.123	53.2
808.298	51.13
808.472	49.19
808.646	46.44
808.82	46.34
808.994	47.3
809.168	46.3
809.342	46.17
809.516	46.26
809.69	45.43
809.864	45.41
810.038	47.71
810.212	47.79
810.385	49.94
810.559	50.91
810.733	47.2
810.907	44.36
811.081	46.59
811.255	47.7
811.428	48.38
811.602	50.83
811.776	50.89
811.95	51.08
812.123	50.42
812.297	48.89
812.471	50.99
812.644	52.91
812.818	55.79
812.992	54.6
813.165	53.58
813.339	54.28
813.512	51.55
813.686	48.31
813.86	48.29
814.033	49.26
814.207	51.99
814.38	51.28
814.554	51.01
814.727	51.47
814.9	52.12
815.074	53.12
815.247	51.06
815.421	47.61
815.594	48.98
815.767	49.58
815.941	47.06
816.114	45.13
816.287	43.73
816.46	46.31
816.634	42.07
816.807	38.68
816.98	38.65
817.153	40.43
817.327	42.99
817.5	45.9
817.673	43.95
817.846	48.04
818.019	47.91
818.192	49.53
818.365	42.81
818.538	42.85
818.711	46.12
818.884	45.51
819.057	47.45
819.23	49.62
819.403	49.15
819.576	51.6
819.749	50.51
819.922	50.24
820.095	49.82
820.268	52.63
820.441	54.22
820.614	52.65
820.786	53.48
820.959	51.68
821.132	50.81
821.305	50.15
821.477	49.51
821.65	49.46
821.823	50.07
821.996	49.7
822.168	49.79
822.341	49.33
822.514	49.23
822.686	48.9
822.859	49.02
823.031	48.98
823.204	48.95
823.376	48.38
823.549	48.4
823.722	48.06
823.894	48.49
824.067	48.21
824.239	48.77
824.411	49.13
824.584	49.49
824.756	49.34
824.929	48.85
825.101	49.37
825.273	50.13
825.446	50.22
825.618	50.23
825.79	49.56
825.963	49.64
826.135	48.53
826.307	48.23
826.479	47.87
826.652	48.33
826.824	49.58
826.996	49.51
827.168	49.2
827.34	49.42
827.512	49.71
827.684	50.11
827.856	50.13
828.029	51.15
828.201	50.86
828.373	51.06
828.545	50.68
828.717	50.34
828.889	50.08
829.061	50.73
829.232	50.1
829.404	50.61
829.576	50.83
829.748	51.78
829.92	52.01
830.092	53.17
830.264	54.01
830.436	54.32
830.607	54.06
830.779	53.97
830.951	53.8
831.123	53.89
831.294	52.95
831.466	53.02
831.638	51.56
831.809	51.82
831.981	51.02
832.153	50.08
832.324	50.4
832.496	50.66
832.667	54
832.839	52.1
833.011	53.49
833.182	53.53
833.354	53.31
833.525	50.22
833.697	49.6
833.868	50.72
834.039	50.08
834.211	50.06
834.382	49.56
834.554	48.8
834.725	49.13
834.896	47.99
835.068	46.75
835.239	46.63
835.41	49.77
835.581	50.47
835.753	49.94
835.924	51.12
836.095	50.29
836.266	50.96
836.438	49.16
836.609	49.59
836.78	50.65
836.951	51.24
837.122	49.7
837.293	49.41
837.464	46.39
837.635	46.42
837.806	45.37
837.977	44.5
838.148	44.23
838.319	43.24
838.49	42.71
838.661	44.01
838.832	44.69
839.003	47.12
839.174	48.44
839.345	51.99
839.516	51.39
839.687	50.68
839.857	52.9
840.028	51.91
840.199	49.8
840.37	47
840.54	42.12
840.711	43.95
840.882	42.16
841.053	35.09
841.223	33.38
841.394	32.43
841.564	34.67
841.735	35.67
841.906	38.21
842.076	44.42
842.247	47.55
842.417	53.32
842.588	52.62
842.758	53.34
842.929	55.06
843.099	54.5
843.27	56.72
843.44	54.47
843.611	53.41
843.781	49.91
843.951	47.45
844.122	45.68
844.292	39.73
844.462	40.58
844.633	38.15
844.803	35.87
844.973	33.85
845.144	32.94
845.314	34.98
845.484	33.33
845.654	38.15
845.824	41.2
845.995	40.18
846.165	41.64
846.335	43.04
846.505	47.89
846.675	54.1
846.845	61.57
847.015	54.36
847.185	56.42
847.355	58.75
847.525	60.41
847.695	62.91
847.865	75.42
848.035	69.71
848.205	66.06
848.375	61.73
848.545	59.37
848.715	59.05
848.884	64.67
849.054	61.82
849.224	61.99
849.394	64.18
849.564	60.23
849.733	54.14
849.903	56.78
850.073	58.13
850.243	65.2
850.412	72.14
850.582	69.11
850.752	69.12
850.921	66.59
851.091	65.41
851.26	59.32
851.43	63.32
851.599	65.38
851.769	71.42
851.939	70.33
852.108	60.15
852.278	52.6
852.447	51.71
852.616	46.46
852.786	49.34
852.955	48.49
853.125	50.42
853.294	45.66
853.463	43.37
853.633	44.26
853.802	47.97
853.971	50.77
854.141	44.31
854.31	42.88
854.479	54.01
854.648	50.33
854.818	48.16
854.987	44.94
855.156	42.49
855.325	36.72
855.494	32.11
855.663	31.56
855.832	35.13
856.001	37.32
856.171	44.28
856.34	42.32
856.509	39.73
856.678	37.73
856.847	43.89
857.016	50.38
857.185	58.04
857.353	50.63
857.522	44.17
857.691	37.77
857.86	30.55
858.029	25.41
858.198	25.31
858.367	26.29
858.535	27.16
858.704	17.44
858.873	11.81
859.042	7.95
859.21	10.9
859.379	6.81
859.548	8.99
859.717	23.66
859.885	29.5
860.054	32
860.222	33.05
860.391	38.4
860.56	45.68
860.728	46.72
860.897	48.36
861.065	53.33
861.234	59.67
861.402	61.82
861.571	58.18
861.739	57.17
861.908	55.54
862.076	50.12
862.244	52.02
862.413	51.43
862.581	55.96
862.749	58.56
862.918	51.38
863.086	55.72
863.254	47.01
863.423	43.37
863.591	42.5
863.759	43.62
863.927	53.86
864.096	49.96
864.264	41.35
864.432	34.14
864.6	40.12
864.768	44.02
864.936	33.24
865.104	44.23
865.272	47.26
865.44	52.32
865.608	42.98
865.776	38.83
865.944	35.29
866.112	37.61
866.28	45.21
866.448	41.31
866.616	39.06
866.784	37.19
866.952	32.32
867.12	30.5
867.288	27.51
867.455	39.29
867.623	43.01
867.791	49.35
867.959	56.38
868.127	56.14
868.294	56.91
868.462	62.58
868.63	63.49
868.797	64.22
868.965	73.61
869.133	70.42
869.3	74.33
869.468	67.58
869.636	64.05
869.803	60.98
869.971	60.94
870.138	59.21
870.306	66.24
870.473	63.52
870.641	68.02
870.808	62.09
870.975	65.83
871.143	54.97
871.31	63.52
871.478	56.48
871.645	52.31
871.812	58.83
871.98	48.59
872.147	33.35
872.314	51.42
872.482	44.44
872.649	43.46
872.816	49.63
872.983	54.9
873.15	44.8
873.318	54.77
873.485	59.9
873.652	56.54
873.819	61.12
873.986	69.91
874.153	56.43
874.32	64.43
874.487	66.84
874.654	61.76
874.821	56.5
874.988	67.37
875.155	68.94
875.322	63.54
875.489	54.26
875.656	53.39
875.823	52.81
875.99	57.26
876.157	62.51
876.324	64.37
876.49	66.89
876.657	66.51
876.824	58.6
876.991	51.36
877.157	52.41
877.324	58.68
877.491	56.93
877.658	59.62
877.824	60.85
877.991	49.94
878.157	49.97
878.324	43.78
878.491	49.88
878.657	58.98
878.824	59.34
878.99	60.49
879.157	53.89
879.323	59.03
879.49	49.94
879.656	49.74
879.823	44.73
879.989	44.46
880.156	41.12
880.322	30.54
880.488	28.65
880.655	28.7
880.821	18.85
880.987	29.44
881.154	28.13
881.32	40.59
881.486	38.07
881.652	40.78
881.819	40.63
881.985	43.97
882.151	46.7
882.317	46.31
882.483	49.87
882.649	51.87
882.816	49.96
882.982	51.22
883.148	48.9
883.314	49.56
883.48	50.76
883.646	51.72
883.812	51.47
883.978	51.59
884.144	51.35
884.31	50
884.476	48.97
884.642	49.1
884.807	46.38
884.973	46.54
885.139	46.64
885.305	44.87
885.471	45.37
885.637	45.37
885.802	44.17
885.968	44.88
886.134	43.78
886.3	45.87
886.465	46.18
886.631	50.02
886.797	48.5
886.962	46.72
887.128	50.09
887.293	49.4
887.459	49.81
887.625	52.34
887.79	51.91
887.956	53.93
888.121	52.88
888.287	51.17
888.452	48.73
888.618	52.61
888.783	56.56
