Data from LC_244_Reflection_1.txt Node
Date: Thu Nov 19 22:40:27 EST 2015
User: robert
Spectrometer: USB4E03001
Autoset integration time: false
Trigger mode: 4
Integration Time (sec): 1.000000E-1
Scans to average: 15
Electric dark correction enabled: true
Nonlinearity correction enabled: false
Boxcar width: 5
Stray light correction enabled: false
XAxis mode: Wavelengths
Stop averaging: false
Number of Pixels in Spectrum: 3648
>>>>>Begin Spectral Data<<<<<
177.566	-76.9
177.785	-17.07
178.005	7.65
178.225	-5.48
178.445	6.49
178.665	9.95
178.885	38.94
179.105	276.19
179.324	-53.28
179.544	-84.59
179.764	-18.78
179.984	16.22
180.204	-12.58
180.423	64.99
180.643	71.25
180.863	74.01
181.083	65.37
181.302	84.82
181.522	76.47
181.742	115.03
181.961	146.97
182.181	212.56
182.401	303.12
182.621	308.5
182.84	533.45
183.06	380.72
183.279	263.31
183.499	211.93
183.719	370.74
183.938	964.65
184.158	-23.97
184.377	6.2
184.597	-85.93
184.816	767.92
185.036	52.08
185.256	-112.78
185.475	85.43
185.695	158.43
185.914	172
186.134	324.55
186.353	185.58
186.572	206.85
186.792	504.5
187.011	-3907.23
187.231	-1336.29
187.45	-1471.03
187.67	-76.46
187.889	-64.66
188.108	-35.24
188.328	-50.32
188.547	-245.03
188.766	-367.79
188.986	-331.45
189.205	2923.53
189.424	82.07
189.644	94.53
189.863	73.54
190.082	79.67
190.302	99.93
190.521	89.68
190.74	112.38
190.959	139.1
191.178	125.31
191.398	151.3
191.617	146.63
191.836	705.64
192.055	200.56
192.274	323.95
192.494	261.9
192.713	119.57
192.932	101.61
193.151	86.07
193.37	77.91
193.589	115.33
193.808	98.81
194.027	112.07
194.246	100.86
194.465	123.89
194.685	94.68
194.904	95.91
195.123	112.61
195.342	130.12
195.561	117.02
195.78	105.42
195.999	98.79
196.218	113.45
196.436	108.24
196.655	89.25
196.874	94.24
197.093	136.03
197.312	159.67
197.531	163.1
197.75	225.17
197.969	212.2
198.188	-655.61
198.407	-183.44
198.625	-228.5
198.844	-120.25
199.063	-1194.02
199.282	-85.07
199.501	-112.13
199.719	-214.32
199.938	-14.86
200.157	-234.17
200.376	-428.34
200.594	1680.65
200.813	781.68
201.032	574.21
201.251	411.9
201.469	387.62
201.688	188.82
201.907	304.89
202.125	1060.68
202.344	235.14
202.563	235.13
202.781	121.07
203	77.5
203.218	86.56
203.437	50.17
203.656	63.14
203.874	70.44
204.093	34.82
204.311	17.09
204.53	25.95
204.748	48.57
204.967	62.24
205.185	85.21
205.404	95.8
205.622	167.11
205.841	179.59
206.059	247.08
206.278	233.83
206.496	238.73
206.715	293.76
206.933	297.48
207.151	229.46
207.37	308.75
207.588	253.15
207.806	216.31
208.025	137.49
208.243	26.73
208.461	23.98
208.68	52.44
208.898	143.71
209.116	85.43
209.335	122.65
209.553	248.67
209.771	-976.47
209.989	150.93
210.208	69.39
210.426	-19.93
210.644	229.27
210.862	168.92
211.081	173.58
211.299	103.05
211.517	130.07
211.735	113.64
211.953	69.15
212.171	73.69
212.39	85.12
212.608	86.99
212.826	105.33
213.044	111.51
213.262	76.01
213.48	62.59
213.698	87.76
213.916	115.96
214.134	85.21
214.352	264.43
214.57	442.52
214.788	963.77
215.006	785.35
215.224	544.44
215.442	1032.86
215.66	466.43
215.878	888.42
216.096	891.75
216.314	896.86
216.532	1168.33
216.75	1754.53
216.968	-190.18
217.185	-191.18
217.403	295.28
217.621	-920.88
217.839	81.18
218.057	22.08
218.275	59.25
218.492	69.71
218.71	70.78
218.928	74.16
219.146	72.13
219.363	62.72
219.581	88.36
219.799	114.59
220.017	98.09
220.234	112.4
220.452	116.75
220.67	113.65
220.887	99.94
221.105	84.43
221.323	65.45
221.54	73.39
221.758	74.19
221.976	55.17
222.193	44.46
222.411	35.07
222.629	39.27
222.846	34.8
223.064	39.2
223.281	34.4
223.499	23.74
223.716	16.94
223.934	6.65
224.151	15.7
224.369	25.51
224.586	17.91
224.804	32.15
225.021	35.5
225.239	38.47
225.456	18.33
225.674	10.58
225.891	14.09
226.108	29.26
226.326	25.45
226.543	28.82
226.76	12.9
226.978	24.06
227.195	18.5
227.413	12.55
227.63	9.69
227.847	16.51
228.064	18.83
228.282	19.99
228.499	18.94
228.716	18.29
228.934	16.22
229.151	17.55
229.368	15.05
229.585	14.19
229.802	12.33
230.02	12.22
230.237	12.43
230.454	10.97
230.671	8.17
230.888	6.49
231.105	6.12
231.323	6.23
231.54	5.84
231.757	9.23
231.974	12.2
232.191	16.55
232.408	18.46
232.625	20.83
232.842	24.53
233.059	33.55
233.276	37.71
233.493	37.35
233.71	37.1
233.927	37.27
234.144	33.08
234.361	27.75
234.578	20.6
234.795	21.45
235.012	20.38
235.229	18.48
235.446	14.78
235.663	6.86
235.879	5.2
236.096	6.31
236.313	4.31
236.53	7.78
236.747	11.27
236.964	19.53
237.181	20.08
237.397	19.08
237.614	21.03
237.831	22.27
238.048	29.41
238.264	29.2
238.481	26.63
238.698	25.64
238.915	29.64
239.131	29.46
239.348	29.85
239.565	29.28
239.781	31.71
239.998	26.2
240.215	24.01
240.431	20.73
240.648	22.12
240.865	20.45
241.081	19.89
241.298	17.4
241.514	17.32
241.731	15.58
241.947	15.45
242.164	12.86
242.38	14.05
242.597	13.65
242.814	13.71
243.03	12.71
243.246	14.1
243.463	12.59
243.679	12.42
243.896	12.31
244.112	11.94
244.329	10.27
244.545	12.19
244.762	12.64
244.978	11.26
245.194	11.22
245.411	12.56
245.627	12.83
245.843	12.63
246.06	13.6
246.276	13.44
246.492	13.59
246.709	13.59
246.925	12.05
247.141	11.03
247.357	11.04
247.574	11.35
247.79	11.58
248.006	11.46
248.222	12.13
248.439	11.79
248.655	10.99
248.871	10.94
249.087	10.67
249.303	11.82
249.519	12.34
249.736	13.22
249.952	12.3
250.168	10.29
250.384	9.79
250.6	9.52
250.816	9.03
251.032	9.37
251.248	9.35
251.464	9.5
251.68	9.49
251.896	9.51
252.112	9.6
252.328	10.47
252.544	9.35
252.76	11.29
252.976	11.6
253.192	11.18
253.408	12.86
253.624	13.01
253.84	13.42
254.056	12.29
254.272	12.19
254.487	11.03
254.703	12.57
254.919	15.43
255.135	14.09
255.351	13.37
255.567	15.31
255.782	12.19
255.998	13.16
256.214	14.1
256.43	12.36
256.646	15.29
256.861	17.94
257.077	17.6
257.293	18.11
257.508	18.35
257.724	19.46
257.94	19.31
258.155	19.82
258.371	19.17
258.587	17.58
258.802	17.6
259.018	16.6
259.234	15.38
259.449	13.7
259.665	12.91
259.88	11.65
260.096	10.91
260.312	9.57
260.527	9.4
260.743	9.08
260.958	9.22
261.174	9.12
261.389	8.45
261.605	8.28
261.82	8.52
262.036	7.9
262.251	8.02
262.466	8.64
262.682	9.63
262.897	9.97
263.113	10.37
263.328	11.1
263.543	11.96
263.759	11.73
263.974	11.82
264.189	12.35
264.405	12.36
264.62	12.12
264.835	11.96
265.051	11.68
265.266	11.28
265.481	11.27
265.696	10.92
265.912	8.53
266.127	10.34
266.342	9.24
266.557	9.75
266.773	11.43
266.988	11.71
267.203	11.24
267.418	11.61
267.633	10.38
267.848	9.17
268.064	8.75
268.279	10.36
268.494	9.66
268.709	10.46
268.924	8.97
269.139	9.56
269.354	8.47
269.569	8.21
269.784	7.46
269.999	8.53
270.214	9.32
270.429	9.84
270.644	9.03
270.859	8.34
271.074	7.85
271.289	8.75
271.504	7.13
271.719	7.85
271.934	7.44
272.149	8.88
272.363	8.9
272.578	9.26
272.793	8.86
273.008	9.24
273.223	9.28
273.438	10.06
273.653	9.63
273.867	9.56
274.082	10.12
274.297	10.56
274.512	9.52
274.726	9.84
274.941	8.83
275.156	7.27
275.371	7.67
275.585	8.29
275.8	7.22
276.015	7.79
276.229	9.31
276.444	9.31
276.659	8.67
276.873	8.86
277.088	8.1
277.302	7.71
277.517	9.06
277.732	8.47
277.946	8.21
278.161	8.98
278.375	9.55
278.59	9.17
278.804	8.03
279.019	9.12
279.233	9.27
279.448	10.04
279.662	11.73
279.877	11.89
280.091	11.56
280.306	10.12
280.52	10.64
280.735	10.38
280.949	9.52
281.163	9.97
281.378	9.96
281.592	10.44
281.806	10.5
282.021	10.85
282.235	10.14
282.449	10.7
282.664	12.51
282.878	11.14
283.092	11.2
283.307	12.07
283.521	11.31
283.735	11.24
283.949	10.84
284.164	10.49
284.378	8.97
284.592	9.46
284.806	9.32
285.02	8.13
285.234	9.01
285.449	7.92
285.663	7.97
285.877	9
286.091	9.24
286.305	9.16
286.519	9.18
286.733	9.66
286.947	10.52
287.161	9.84
287.375	10.17
287.589	9.05
287.803	10.75
288.017	11.16
288.231	11.61
288.445	10.77
288.659	10.42
288.873	10.04
289.087	9.36
289.301	9.25
289.515	10.15
289.729	10.69
289.943	11.66
290.157	11.59
290.371	10.55
290.584	9.42
290.798	9.76
291.012	10.16
291.226	10.99
291.44	12.5
291.654	10.67
291.867	10.3
292.081	9.68
292.295	8.98
292.509	8.1
292.722	8.51
292.936	8.24
293.15	8.02
293.364	9.55
293.577	9.15
293.791	8.41
294.005	10.08
294.218	10.59
294.432	10.66
294.645	11.84
294.859	10.87
295.073	10.47
295.286	11.08
295.5	11.64
295.713	10.33
295.927	10.92
296.14	10.56
296.354	9.49
296.568	9.49
296.781	9.78
296.994	9.23
297.208	9.38
297.421	9.81
297.635	10.11
297.848	9.71
298.062	10.3
298.275	9.53
298.489	9.84
298.702	10.47
298.915	10.47
299.129	10.28
299.342	10.31
299.555	10.79
299.769	10.27
299.982	9.63
300.195	10.24
300.409	9.45
300.622	9.2
300.835	9.5
301.048	9.58
301.262	8.91
301.475	8.21
301.688	8.41
301.901	8.98
302.115	10.41
302.328	11.54
302.541	11.14
302.754	11.67
302.967	12.9
303.18	12.79
303.393	12.24
303.607	13.11
303.82	14.36
304.033	13.76
304.246	14.46
304.459	13.41
304.672	12.79
304.885	12.78
305.098	12.34
305.311	11.5
305.524	11.34
305.737	11.66
305.95	11
306.163	10.01
306.376	9.65
306.589	8.8
306.802	8.51
307.015	8.25
307.228	9.04
307.44	8.58
307.653	9.5
307.866	9.64
308.079	10.93
308.292	10.36
308.505	10.78
308.718	10.96
308.93	10.71
309.143	11.04
309.356	10.79
309.569	9.89
309.781	10.48
309.994	9.17
310.207	8.66
310.42	8.75
310.632	8.86
310.845	9.22
311.058	10.26
311.27	10.56
311.483	9.92
311.696	9.86
311.908	9.94
312.121	9.59
312.333	10.57
312.546	10.82
312.759	10.41
312.971	11.57
313.184	11.14
313.396	10.22
313.609	10.04
313.821	10.57
314.034	12.3
314.246	11.94
314.459	11.81
314.671	11.79
314.884	11.55
315.096	11.28
315.309	11.05
315.521	11.27
315.733	11.83
315.946	11.75
316.158	11.85
316.371	10.12
316.583	10.38
316.795	9.66
317.008	8.29
317.22	7.68
317.432	7.37
317.644	7.56
317.857	6.51
318.069	5.31
318.281	4.58
318.494	6.02
318.706	6.45
318.918	6.23
319.13	7.54
319.342	8.18
319.555	8.47
319.767	8.34
319.979	7.7
320.191	8.21
320.403	9.02
320.615	9.38
320.827	7.92
321.039	6.15
321.252	7.83
321.464	8.4
321.676	8.68
321.888	8.82
322.1	9.71
322.312	9.94
322.524	11.65
322.736	11.64
322.948	11.93
323.16	12.16
323.372	12.87
323.584	12.44
323.796	11.7
324.007	11.59
324.219	12.35
324.431	11.37
324.643	10.95
324.855	10.7
325.067	11.24
325.279	10.78
325.491	10.97
325.702	12.21
325.914	11.16
326.126	12.15
326.338	13.88
326.55	12.73
326.761	13.24
326.973	13.94
327.185	13.45
327.396	13.84
327.608	14.35
327.82	14.92
328.032	14.18
328.243	14.68
328.455	14.35
328.666	13.63
328.878	14.6
329.09	14.9
329.301	15.21
329.513	15.15
329.725	13.86
329.936	13.85
330.148	13.86
330.359	15.47
330.571	15.69
330.782	14.22
330.994	14.25
331.205	14.48
331.417	14.51
331.628	13.88
331.84	14.95
332.051	14.9
332.262	15.88
332.474	15.39
332.685	14.76
332.897	15.42
333.108	16.19
333.319	16.89
333.531	16.6
333.742	16.14
333.953	17.14
334.165	16.41
334.376	17.49
334.587	17.46
334.799	16.66
335.01	15.97
335.221	15.22
335.432	15.47
335.644	13.49
335.855	13.31
336.066	14.4
336.277	12.94
336.488	12.64
336.7	11.95
336.911	11.38
337.122	12.2
337.333	12.69
337.544	12.88
337.755	12.9
337.966	12.56
338.177	12.83
338.388	12.33
338.599	13.05
338.811	14.12
339.022	14.13
339.233	14.13
339.444	14.31
339.655	13.88
339.866	13.75
340.076	13.35
340.287	14.68
340.498	14.65
340.709	14.63
340.92	14.35
341.131	13.18
341.342	13.86
341.553	13.8
341.764	12.89
341.975	12.87
342.185	12.99
342.396	12.94
342.607	12.99
342.818	12.56
343.029	12.86
343.239	12.99
343.45	12.48
343.661	11.68
343.872	11.75
344.082	12.15
344.293	12.63
344.504	13.04
344.714	13.21
344.925	13.22
345.136	13.08
345.346	11.73
345.557	11.7
345.768	12.47
345.978	12.82
346.189	12.02
346.399	12.03
346.61	11.28
346.821	10.96
347.031	11.01
347.242	10.86
347.452	11.7
347.663	12.04
347.873	12.57
348.084	13.05
348.294	12.18
348.504	12.73
348.715	13.58
348.925	14.27
349.136	14.86
349.346	14.82
349.557	14.77
349.767	13.81
349.977	14.38
350.188	13.25
350.398	12.65
350.608	13.34
350.819	13.47
351.029	12.05
351.239	11.59
351.449	10.1
351.66	10.15
351.87	9.99
352.08	10.9
352.29	11.39
352.501	11.43
352.711	11.62
352.921	11.6
353.131	11.13
353.341	11.49
353.552	11.66
353.762	12.19
353.972	12.65
354.182	12.88
354.392	12.69
354.602	11.82
354.812	12.33
355.022	12.02
355.232	12.15
355.442	12.76
355.652	12.71
355.862	12.79
356.072	12.67
356.282	12.81
356.492	11.97
356.702	11.85
356.912	12.02
357.122	12.02
357.332	12.25
357.542	11.55
357.752	11.17
357.962	11.71
358.171	11.52
358.381	12.17
358.591	11.66
358.801	12.36
359.011	12.78
359.221	12.45
359.43	12.15
359.64	11.97
359.85	12.46
360.06	12.45
360.269	12.13
360.479	12.11
360.689	11.61
360.899	10.92
361.108	10.5
361.318	10.1
361.528	10.62
361.737	10.79
361.947	10.73
362.156	10.64
362.366	10.94
362.576	10.87
362.785	10.54
362.995	10.21
363.204	10.81
363.414	10.39
363.623	10.59
363.833	10.48
364.042	10.41
364.252	10.34
364.461	9.86
364.671	9.26
364.88	9.43
365.09	9.82
365.299	10.68
365.509	10.86
365.718	10.86
365.927	10.93
366.137	10.75
366.346	11.59
366.555	11.57
366.765	12.48
366.974	12.8
367.183	12.41
367.393	12.13
367.602	11.8
367.811	11.73
368.021	12.33
368.23	11.4
368.439	11.36
368.648	10.72
368.857	10.92
369.067	10.37
369.276	10.5
369.485	10.16
369.694	10.23
369.903	10.05
370.112	9.74
370.321	9.52
370.531	10.01
370.74	9.36
370.949	8.89
371.158	8.73
371.367	9.06
371.576	8.4
371.785	8.88
371.994	8.83
372.203	9.32
372.412	9.74
372.621	9.55
372.83	9.76
373.039	10.32
373.248	10.19
373.457	10.35
373.666	10.57
373.874	10.97
374.083	10.96
374.292	11.28
374.501	10.63
374.71	10.48
374.919	10.65
375.128	10.51
375.336	10.43
375.545	10.99
375.754	10.72
375.963	10.27
376.171	10.54
376.38	10.44
376.589	10.02
376.798	9.89
377.006	9.79
377.215	10.11
377.424	9.85
377.632	9.68
377.841	9.44
378.05	9.52
378.258	9.43
378.467	8.99
378.675	9.13
378.884	9.24
379.093	9.5
379.301	9.59
379.51	9.42
379.718	9.48
379.927	9.4
380.135	9.85
380.344	9.63
380.552	9.74
380.761	9.92
380.969	9.91
381.177	9.89
381.386	10.1
381.594	9.97
381.803	9.51
382.011	9.51
382.219	9.98
382.428	9.56
382.636	9.94
382.845	10.17
383.053	9.8
383.261	9.35
383.469	9.35
383.678	9.22
383.886	9.31
384.094	9.77
384.302	9.86
384.511	9.81
384.719	9.65
384.927	9.41
385.135	9.24
385.343	9.39
385.552	9.53
385.76	9.43
385.968	9.61
386.176	9.27
386.384	8.92
386.592	9.24
386.8	9.23
387.008	9.13
387.216	8.84
387.424	8.84
387.633	9
387.841	8.87
388.049	9.28
388.257	8.91
388.465	8.78
388.672	8.76
388.88	8.09
389.088	7.95
389.296	8.08
389.504	8.44
389.712	8.27
389.92	8.07
390.128	8.29
390.336	7.92
390.544	7.99
390.751	8.02
390.959	8
391.167	8.4
391.375	8.13
391.583	7.81
391.79	7.54
391.998	7.72
392.206	7.75
392.414	7.66
392.621	7.66
392.829	7.57
393.037	7.85
393.244	7.83
393.452	7.61
393.66	7.72
393.867	8.18
394.075	8.27
394.283	7.78
394.49	7.71
394.698	8
394.905	7.93
395.113	7.85
395.32	7.72
395.528	8.16
395.735	8.34
395.943	8.3
396.15	7.81
396.358	7.8
396.565	8.42
396.773	8.45
396.98	8.3
397.188	8.42
397.395	8.49
397.602	8.51
397.81	8.16
398.017	7.67
398.225	7.69
398.432	7.74
398.639	7.85
398.847	7.45
399.054	7.35
399.261	7.11
399.468	7.05
399.676	7.03
399.883	6.82
400.09	7.07
400.297	7.57
400.505	7.82
400.712	8.11
400.919	8.26
401.126	8.31
401.333	8.5
401.54	8.4
401.748	8.59
401.955	8.62
402.162	8.68
402.369	8.53
402.576	8.29
402.783	8.04
402.99	8.19
403.197	8.1
403.404	7.93
403.611	8
403.818	8.01
404.025	7.88
404.232	7.65
404.439	7.93
404.646	7.83
404.853	7.86
405.06	7.86
405.267	7.87
405.474	7.71
405.681	7.76
405.887	7.82
406.094	8.05
406.301	8.06
406.508	8.32
406.715	8.13
406.922	7.9
407.128	7.83
407.335	7.89
407.542	7.74
407.749	7.7
407.955	7.93
408.162	7.83
408.369	7.88
408.575	7.97
408.782	7.82
408.989	7.64
409.195	7.66
409.402	7.9
409.609	7.86
409.815	7.68
410.022	7.99
410.228	7.9
410.435	7.82
410.642	7.57
410.848	7.45
411.055	7.51
411.261	7.8
411.468	7.95
411.674	7.96
411.881	8.01
412.087	8.15
412.294	7.88
412.5	7.69
412.706	7.66
412.913	7.89
413.119	8.17
413.326	8.01
413.532	7.86
413.738	7.63
413.945	7.33
414.151	7.41
414.357	7.38
414.564	7.28
414.77	7.31
414.976	7.25
415.182	7.13
415.389	6.78
415.595	6.77
415.801	6.83
416.007	6.99
416.214	7.12
416.42	6.88
416.626	6.62
416.832	6.97
417.038	6.95
417.244	6.95
417.45	6.96
417.657	7.16
417.863	7.39
418.069	7.35
418.275	7.5
418.481	7.55
418.687	7.48
418.893	7.68
419.099	7.5
419.305	7.67
419.511	7.65
419.717	7.68
419.923	7.57
420.129	7.43
420.335	7.35
420.541	7.26
420.746	7.08
420.952	7.28
421.158	7.16
421.364	7.1
421.57	7.07
421.776	7.14
421.982	7.13
422.187	7.21
422.393	7.11
422.599	7.17
422.805	7.14
423.01	7.15
423.216	6.98
423.422	7.04
423.628	7.09
423.833	6.91
424.039	6.89
424.245	6.85
424.45	6.89
424.656	7.01
424.862	6.94
425.067	6.92
425.273	7.01
425.478	7.08
425.684	7.15
425.889	7.29
426.095	7.44
426.301	7.27
426.506	7.4
426.712	7.27
426.917	7.36
427.123	7.61
427.328	7.71
427.533	7.95
427.739	8.14
427.944	8.2
428.15	8.02
428.355	7.94
428.561	8.14
428.766	8.08
428.971	8.15
429.177	8.11
429.382	7.94
429.587	8.08
429.793	7.92
429.998	7.92
430.203	7.75
430.408	7.77
430.614	7.71
430.819	7.76
431.024	7.71
431.229	7.51
431.434	7.33
431.64	7.29
431.845	7.36
432.05	7.35
432.255	7.2
432.46	7.23
432.665	7.41
432.87	7.53
433.076	7.55
433.281	7.57
433.486	7.79
433.691	7.78
433.896	7.74
434.101	7.6
434.306	7.45
434.511	7.55
434.716	7.64
434.921	7.45
435.126	7.61
435.331	7.55
435.535	7.44
435.74	7.33
435.945	7.57
436.15	7.52
436.355	7.63
436.56	7.71
436.765	7.69
436.97	7.58
437.174	7.56
437.379	7.38
437.584	7.27
437.789	7.25
437.993	7.12
438.198	6.98
438.403	6.99
438.608	6.96
438.812	7.06
439.017	6.96
439.222	7.16
439.426	7.18
439.631	7.21
439.836	7.41
440.04	7.42
440.245	7.51
440.45	7.48
440.654	7.55
440.859	7.47
441.063	7.43
441.268	7.64
441.472	7.48
441.677	7.45
441.881	7.46
442.086	7.31
442.29	7.38
442.495	7.38
442.699	7.46
442.904	7.55
443.108	7.46
443.312	7.45
443.517	7.17
443.721	7.32
443.925	7.51
444.13	7.53
444.334	7.65
444.538	7.71
444.743	7.71
444.947	7.62
445.151	7.52
445.356	7.63
445.56	7.73
445.764	7.83
445.968	7.85
446.173	7.78
446.377	7.66
446.581	7.59
446.785	7.54
446.989	7.6
447.193	7.55
447.398	7.46
447.602	7.47
447.806	7.44
448.01	7.35
448.214	7.25
448.418	7.14
448.622	7.2
448.826	7.28
449.03	7.39
449.234	7.33
449.438	7.47
449.642	7.65
449.846	7.56
450.05	7.51
450.254	7.56
450.458	7.53
450.662	7.53
450.866	7.52
451.069	7.44
451.273	7.26
451.477	7.26
451.681	7.33
451.885	7.32
452.089	7.59
452.292	7.5
452.496	7.47
452.7	7.42
452.904	7.46
453.107	7.55
453.311	7.79
453.515	7.76
453.719	7.83
453.922	7.81
454.126	7.7
454.33	7.56
454.533	7.5
454.737	7.65
454.94	7.52
455.144	7.57
455.348	7.51
455.551	7.3
455.755	7.43
455.958	7.5
456.162	7.32
456.365	7.44
456.569	7.32
456.772	7.28
456.976	7.23
457.179	7.64
457.383	7.63
457.586	7.6
457.79	7.71
457.993	7.53
458.196	7.37
458.4	7.59
458.603	7.51
458.807	7.48
459.01	7.52
459.213	7.55
459.417	7.45
459.62	7.38
459.823	7.33
460.026	7.2
460.23	7.33
460.433	7.34
460.636	7.18
460.839	7.14
461.042	7.2
461.246	7.18
461.449	7.08
461.652	7.04
461.855	7.18
462.058	7.28
462.261	7.39
462.464	7.36
462.668	7.41
462.871	7.48
463.074	7.45
463.277	7.39
463.48	7.54
463.683	7.68
463.886	7.82
464.089	7.61
464.292	7.55
464.495	7.71
464.698	7.63
464.901	7.51
465.104	7.48
465.306	7.72
465.509	7.75
465.712	7.66
465.915	7.56
466.118	7.5
466.321	7.63
466.524	7.63
466.726	7.38
466.929	7.43
467.132	7.54
467.335	7.67
467.538	7.49
467.74	7.56
467.943	7.56
468.146	7.57
468.348	7.39
468.551	7.35
468.754	7.33
468.956	7.35
469.159	7.33
469.362	7.26
469.564	7.12
469.767	7.28
469.969	7.1
470.172	7.28
470.375	7.14
470.577	7.36
470.78	7.47
470.982	7.58
471.185	7.69
471.387	7.54
471.59	7.64
471.792	7.66
471.995	7.53
472.197	7.65
472.399	7.63
472.602	7.85
472.804	7.49
473.007	7.31
473.209	7.15
473.411	6.98
473.614	7.19
473.816	7.26
474.018	7.31
474.22	7.38
474.423	7.41
474.625	7.3
474.827	7.17
475.03	7.36
475.232	7.52
475.434	7.68
475.636	7.75
475.838	7.7
476.04	7.55
476.243	7.49
476.445	7.48
476.647	7.45
476.849	7.39
477.051	7.45
477.253	7.49
477.455	7.52
477.657	7.34
477.859	7.33
478.061	7.31
478.263	7.35
478.465	7.31
478.667	7.35
478.869	7.53
479.071	7.41
479.273	7.21
479.475	7.19
479.677	7.07
479.879	7.12
480.081	6.97
480.283	7.05
480.485	7
480.686	7.05
480.888	7.03
481.09	6.8
481.292	6.93
481.494	7.07
481.695	7.13
481.897	7.18
482.099	7.15
482.301	7.26
482.502	7.2
482.704	7.13
482.906	7.09
483.107	7.09
483.309	7.09
483.511	7.07
483.712	7.02
483.914	7.01
484.115	6.99
484.317	7.03
484.519	7.02
484.72	7.03
484.922	7.05
485.123	7.11
485.325	7.1
485.526	7.08
485.728	7.13
485.929	7.22
486.131	7.23
486.332	7.31
486.534	7.34
486.735	7.37
486.936	7.36
487.138	7.42
487.339	7.34
487.541	7.37
487.742	7.4
487.943	7.39
488.144	7.33
488.346	7.32
488.547	7.32
488.748	7.32
488.95	7.31
489.151	7.34
489.352	7.29
489.553	7.44
489.755	7.47
489.956	7.52
490.157	7.5
490.358	7.51
490.559	7.5
490.76	7.41
490.961	7.38
491.163	7.32
491.364	7.33
491.565	7.33
491.766	7.18
491.967	7.15
492.168	7.13
492.369	7.17
492.57	7.11
492.771	7.15
492.972	7.14
493.173	7.15
493.374	7.28
493.575	7.24
493.776	7.19
493.976	7.24
494.177	7.24
494.378	7.38
494.579	7.25
494.78	7.36
494.981	7.33
495.182	7.47
495.382	7.3
495.583	7.19
495.784	7.13
495.985	7.3
496.185	7.28
496.386	7.3
496.587	7.27
496.788	7.37
496.988	7.49
497.189	7.46
497.39	7.5
497.59	7.68
497.791	7.65
497.992	7.74
498.192	7.7
498.393	7.81
498.593	7.92
498.794	7.9
498.994	7.87
499.195	7.83
499.395	7.82
499.596	7.73
499.796	7.55
499.997	7.62
500.197	7.6
500.398	7.61
500.598	7.47
500.799	7.42
500.999	7.3
501.199	7.3
501.4	7.27
501.6	7.27
501.801	7.13
502.001	7.23
502.201	7.17
502.402	7.09
502.602	7.03
502.802	7.01
503.002	6.95
503.203	7.06
503.403	7.04
503.603	7.02
503.803	7.16
504.003	7.33
504.204	7.38
504.404	7.45
504.604	7.52
504.804	7.71
505.004	7.9
505.204	7.87
505.404	7.82
505.604	7.8
505.804	7.84
506.005	7.82
506.205	7.86
506.405	7.93
506.605	7.98
506.805	7.93
507.005	7.8
507.204	7.7
507.404	7.72
507.604	7.75
507.804	7.85
508.004	7.97
508.204	8
508.404	7.98
508.604	7.87
508.804	7.92
509.003	8.06
509.203	8.07
509.403	8.1
509.603	8.09
509.803	8.17
510.002	8.04
510.202	7.88
510.402	7.97
510.602	7.91
510.801	7.99
511.001	7.92
511.201	7.83
511.4	7.78
511.6	7.96
511.8	8.02
511.999	8.03
512.199	8.26
512.398	8.31
512.598	8.19
512.797	8.3
512.997	8.27
513.197	8.35
513.396	8.4
513.596	8.39
513.795	8.16
513.994	8.25
514.194	8.34
514.393	8.21
514.593	8.39
514.792	8.51
514.992	8.45
515.191	8.62
515.39	8.69
515.59	8.81
515.789	8.84
515.988	8.97
516.188	8.91
516.387	8.8
516.586	8.92
516.786	8.83
516.985	8.75
517.184	8.67
517.383	8.58
517.582	8.44
517.782	8.3
517.981	8.42
518.18	8.39
518.379	8.47
518.578	8.51
518.777	8.51
518.976	8.57
519.176	8.73
519.375	8.87
519.574	8.89
519.773	9.06
519.972	9.28
520.171	9.34
520.37	9.44
520.569	9.54
520.768	9.64
520.967	9.75
521.166	9.74
521.365	9.81
521.564	9.8
521.762	9.84
521.961	9.88
522.16	9.79
522.359	9.8
522.558	9.94
522.757	9.68
522.956	9.69
523.154	9.6
523.353	9.66
523.552	9.52
523.751	9.56
523.949	9.57
524.148	9.5
524.347	9.54
524.546	9.48
524.744	9.56
524.943	9.79
525.142	9.75
525.34	9.89
525.539	9.87
525.737	9.86
525.936	9.95
526.135	10
526.333	10.04
526.532	10.1
526.73	10.2
526.929	10.13
527.127	10.14
527.326	10.18
527.524	10.2
527.723	10.23
527.921	10.33
528.12	10.31
528.318	10.35
528.516	10.39
528.715	10.35
528.913	10.37
529.112	10.42
529.31	10.4
529.508	10.44
529.707	10.38
529.905	10.46
530.103	10.48
530.301	10.51
530.5	10.57
530.698	10.62
530.896	10.77
531.094	10.82
531.293	10.81
531.491	10.99
531.689	11.07
531.887	11.34
532.085	11.3
532.283	11.35
532.481	11.34
532.68	11.36
532.878	11.39
533.076	11.36
533.274	11.35
533.472	11.3
533.67	11.29
533.868	11.29
534.066	11.2
534.264	11.28
534.462	11.28
534.66	11.4
534.858	11.37
535.056	11.41
535.253	11.42
535.451	11.49
535.649	11.68
535.847	11.71
536.045	11.87
536.243	11.95
536.441	12.07
536.638	12.15
536.836	12.23
537.034	12.28
537.232	12.31
537.43	12.34
537.627	12.49
537.825	12.53
538.023	12.58
538.22	12.63
538.418	12.58
538.616	12.46
538.813	12.48
539.011	12.46
539.209	12.69
539.406	12.73
539.604	12.88
539.801	12.94
539.999	12.95
540.196	12.9
540.394	12.88
540.591	13
540.789	13.06
540.986	13.09
541.184	13.1
541.381	13.09
541.579	13.23
541.776	13.25
541.974	13.26
542.171	13.32
542.368	13.46
542.566	13.53
542.763	13.57
542.96	13.7
543.158	13.87
543.355	13.97
543.552	14.05
543.75	13.99
543.947	14.13
544.144	14.11
544.341	14.3
544.539	14.42
544.736	14.52
544.933	14.58
545.13	14.62
545.327	14.57
545.524	14.66
545.722	14.73
545.919	14.89
546.116	14.9
546.313	15.04
546.51	15
546.707	15.07
546.904	15.1
547.101	15.32
547.298	15.37
547.495	15.46
547.692	15.55
547.889	15.55
548.086	15.65
548.283	15.85
548.48	16.02
548.677	16.07
548.874	16.25
549.07	16.36
549.267	16.35
549.464	16.63
549.661	16.68
549.858	16.98
550.055	17.26
550.251	17.41
550.448	17.3
550.645	17.57
550.842	17.78
551.038	17.66
551.235	17.81
551.432	17.86
551.628	17.85
551.825	18.06
552.022	17.97
552.218	18.03
552.415	18.11
552.612	18.34
552.808	18.31
553.005	18.41
553.201	18.54
553.398	18.77
553.594	18.74
553.791	18.82
553.987	19
554.184	18.96
554.38	18.96
554.577	18.92
554.773	19.02
554.97	19.03
555.166	19.05
555.362	18.91
555.559	18.82
555.755	18.93
555.952	19.06
556.148	19.04
556.344	19.43
556.541	19.51
556.737	19.58
556.933	19.7
557.129	19.72
557.326	19.73
557.522	19.92
557.718	19.9
557.914	20.26
558.11	20.24
558.307	20.31
558.503	20.3
558.699	20.55
558.895	20.69
559.091	20.58
559.287	20.92
559.483	21.19
559.679	21.43
559.876	21.65
560.072	21.62
560.268	21.59
560.464	21.59
560.66	21.69
560.856	21.8
561.052	21.91
561.247	22.03
561.443	21.77
561.639	21.7
561.835	21.82
562.031	21.83
562.227	21.92
562.423	22.2
562.619	22.38
562.815	22.38
563.01	22.38
563.206	22.54
563.402	22.72
563.598	23.01
563.793	23.11
563.989	23.2
564.185	23.11
564.381	23.13
564.576	23.23
564.772	23.36
564.968	23.45
565.163	23.63
565.359	23.69
565.555	23.68
565.75	23.78
565.946	24
566.141	24.07
566.337	24.21
566.532	24.29
566.728	24.34
566.923	24.36
567.119	24.51
567.314	24.56
567.51	24.67
567.705	24.84
567.901	24.9
568.096	24.87
568.292	24.77
568.487	24.89
568.682	25.07
568.878	25.15
569.073	25.25
569.268	25.29
569.464	25.12
569.659	25.17
569.854	25.28
570.05	25.26
570.245	25.41
570.44	25.5
570.635	25.62
570.831	25.54
571.026	25.63
571.221	25.65
571.416	25.72
571.611	25.98
571.806	25.91
572.002	25.89
572.197	25.97
572.392	26.01
572.587	26.19
572.782	26.3
572.977	26.57
573.172	26.52
573.367	26.48
573.562	26.56
573.757	26.64
573.952	26.72
574.147	26.83
574.342	27.12
574.537	27.23
574.732	27.3
574.927	27.16
575.121	27.1
575.316	27.26
575.511	27.48
575.706	27.43
575.901	27.36
576.096	27.55
576.29	27.47
576.485	27.19
576.68	27.03
576.875	26.94
577.069	27.02
577.264	26.97
577.459	26.97
577.654	26.91
577.848	27.05
578.043	27.26
578.238	27.16
578.432	27.12
578.627	27.25
578.821	27.44
579.016	27.6
579.21	27.77
579.405	27.91
579.6	28.03
579.794	28.33
579.989	28.31
580.183	28.08
580.378	28.19
580.572	28.34
580.766	28.44
580.961	28.41
581.155	28.45
581.35	28.43
581.544	28.38
581.738	28.22
581.933	28.08
582.127	27.9
582.321	28.03
582.516	28.22
582.71	28.35
582.904	28.42
583.099	28.38
583.293	28.28
583.487	28.26
583.681	28.68
583.875	28.65
584.07	28.62
584.264	28.85
584.458	28.78
584.652	28.76
584.846	28.78
585.04	29.01
585.234	29.14
585.428	29.21
585.623	29.49
585.817	29.27
586.011	29.39
586.205	29.58
586.399	29.73
586.593	29.7
586.787	29.74
586.981	29.76
587.174	29.45
587.368	29.61
587.562	29.87
587.756	29.86
587.95	29.77
588.144	29.67
588.338	29.61
588.532	29.57
588.725	29.75
588.919	29.63
589.113	29.89
589.307	30.07
589.501	30.06
589.694	29.77
589.888	30.01
590.082	30.26
590.275	30.48
590.469	30.56
590.663	30.77
590.856	30.78
591.05	30.68
591.244	30.56
591.437	30.52
591.631	30.59
591.824	30.9
592.018	30.38
592.212	30.15
592.405	30.11
592.599	30.22
592.792	30.17
592.986	30.31
593.179	30.66
593.372	30.83
593.566	30.96
593.759	30.95
593.953	30.86
594.146	31.01
594.339	31.25
594.533	31.32
594.726	31.32
594.92	31.25
595.113	31.16
595.306	31.07
595.499	30.93
595.693	31.06
595.886	31.07
596.079	31.17
596.272	31.41
596.466	31.48
596.659	31.43
596.852	31.25
597.045	31.44
597.238	31.53
597.431	31.49
597.624	31.58
597.818	31.6
598.011	31.71
598.204	31.6
598.397	31.38
598.59	31.15
598.783	31.09
598.976	31.04
599.169	30.84
599.362	30.87
599.555	30.87
599.748	30.81
599.941	30.64
600.134	30.44
600.326	30.44
600.519	30.47
600.712	30.57
600.905	30.83
601.098	31.24
601.291	31.15
601.483	31.17
601.676	31.56
601.869	31.43
602.062	31.52
602.255	31.64
602.447	32.04
602.64	32.1
602.833	32.09
603.025	32.19
603.218	31.96
603.411	32.03
603.603	31.98
603.796	31.92
603.989	31.98
604.181	31.98
604.374	32.17
604.566	32.1
604.759	32.19
604.951	32.29
605.144	32.15
605.336	32.28
605.529	32.29
605.721	32.37
605.914	32.29
606.106	32.29
606.299	32.44
606.491	32.26
606.683	32.13
606.876	32.23
607.068	32.13
607.26	32.19
607.453	32.25
607.645	32.14
607.837	32.16
608.03	32.18
608.222	32.25
608.414	31.99
608.606	31.98
608.799	31.96
608.991	32.05
609.183	32.25
609.375	32.41
609.567	32.36
609.759	32.31
609.952	32.43
610.144	32.49
610.336	32.46
610.528	32.56
610.72	32.59
610.912	32.66
611.104	32.61
611.296	32.47
611.488	32.48
611.68	32.51
611.872	32.8
612.064	32.75
612.256	32.58
612.448	32.65
612.64	32.75
612.832	32.87
613.023	32.86
613.215	32.68
613.407	32.77
613.599	32.65
613.791	32.54
613.983	32.59
614.174	32.55
614.366	32.82
614.558	32.93
614.75	33.01
614.941	32.91
615.133	33.03
615.325	33
615.516	33.17
615.708	33.19
615.9	33.26
616.091	33.17
616.283	33.21
616.475	32.99
616.666	32.9
616.858	32.8
617.049	33.19
617.241	33.14
617.432	33.37
617.624	33.27
617.815	33.25
618.007	33.15
618.198	33.24
618.39	33.25
618.581	33.54
618.773	33.7
618.964	33.86
619.155	33.35
619.347	33.19
619.538	33.16
619.729	33.31
619.921	33.45
620.112	33.61
620.303	33.63
620.494	33.57
620.686	33.36
620.877	33.14
621.068	32.8
621.259	32.85
621.451	33.03
621.642	33
621.833	33.08
622.024	33.06
622.215	33.07
622.406	32.99
622.597	32.93
622.788	32.83
622.98	32.81
623.171	33
623.362	33.21
623.553	33.27
623.744	33.43
623.935	33.42
624.126	33.34
624.317	33.57
624.508	33.67
624.698	33.96
624.889	33.97
625.08	34.1
625.271	34.18
625.462	34.26
625.653	33.93
625.844	34
626.034	33.64
626.225	33.76
626.416	33.63
626.607	33.46
626.798	33.34
626.988	33.55
627.179	33.47
627.37	33.43
627.56	33.27
627.751	33.57
627.942	33.61
628.132	33.89
628.323	33.75
628.514	33.71
628.704	33.99
628.895	33.93
629.085	33.85
629.276	33.97
629.466	33.99
629.657	34.26
629.847	34.47
630.038	34.31
630.228	34.2
630.419	34.18
630.609	34.28
630.8	34.09
630.99	34.49
631.181	34.52
631.371	34.57
631.561	34.35
631.752	34.18
631.942	33.97
632.132	33.89
632.323	34.13
632.513	34.12
632.703	34.23
632.893	34.24
633.084	33.97
633.274	33.95
633.464	33.93
633.654	34.17
633.844	34.01
634.034	33.92
634.225	34.02
634.415	33.82
634.605	33.76
634.795	33.61
634.985	33.51
635.175	33.32
635.365	33.31
635.555	33.49
635.745	33.38
635.935	33.6
636.125	33.9
636.315	33.92
636.505	33.95
636.695	34.05
636.885	34.16
637.075	34.34
637.265	34.56
637.455	34.75
637.644	34.57
637.834	34.54
638.024	34.48
638.214	34.2
638.404	34.52
638.593	34.75
638.783	34.84
638.973	34.89
639.163	34.86
639.352	35.11
639.542	34.55
639.732	34.49
639.921	34.73
640.111	34.91
640.301	34.8
640.49	34.64
640.68	34.16
640.87	34.47
641.059	34.5
641.249	34.9
641.438	34.39
641.628	34.76
641.817	34.85
642.007	34.52
642.196	34.48
642.386	34.64
642.575	34.61
642.764	34.97
642.954	34.84
643.143	35.11
643.333	35.06
643.522	35.31
643.711	35.54
643.901	35.42
644.09	35.77
644.279	35.77
644.469	36.04
644.658	36.14
644.847	36.04
645.036	35.71
645.226	35.45
645.415	35.05
645.604	34.93
645.793	35.01
645.982	34.97
646.171	34.94
646.361	35.02
646.55	34.82
646.739	34.78
646.928	34.81
647.117	34.94
647.306	34.55
647.495	34.49
647.684	34.45
647.873	34.43
648.062	34.62
648.251	34.35
648.44	34.16
648.629	34.13
648.818	34.12
649.007	33.94
649.196	34.16
649.384	34.36
649.573	34.35
649.762	34.53
649.951	34.79
650.14	34.93
650.328	35.14
650.517	35.06
650.706	35.37
650.895	35.03
651.083	35.21
651.272	34.8
651.461	34.78
651.65	34.83
651.838	34.69
652.027	34.02
652.216	33.99
652.404	34.12
652.593	34.45
652.781	34.07
652.97	34.01
653.158	33.99
653.347	34.51
653.535	34.55
653.724	34.56
653.912	34.94
654.101	35.6
654.289	35.52
654.478	35.61
654.666	35.35
654.855	35.74
655.043	35.93
655.231	35.92
655.42	35.71
655.608	36
655.796	36.27
655.985	36.32
656.173	36.05
656.361	36.22
656.55	36.04
656.738	36.26
656.926	36.08
657.114	36.2
657.302	35.86
657.491	35.76
657.679	35.32
657.867	34.97
658.055	34.68
658.243	35.01
658.431	34.87
658.619	34.94
658.807	34.78
658.996	35.05
659.184	34.98
659.372	35.46
659.56	35.47
659.748	35.6
659.936	35.72
660.124	35.73
660.311	35.7
660.499	35.67
660.687	35.84
660.875	36.18
661.063	35.76
661.251	35.97
661.439	35.77
661.627	35.87
661.814	35.97
662.002	36.15
662.19	36.48
662.378	36.31
662.565	36.1
662.753	35.97
662.941	35.54
663.129	35.69
663.316	35.5
663.504	35.27
663.692	35.37
663.879	35.31
664.067	35.14
664.254	35.18
664.442	35.28
664.63	35.35
664.817	35.22
665.005	35.35
665.192	35.49
665.38	35.39
665.567	36.13
665.755	35.99
665.942	36.38
666.13	36.96
666.317	36.63
666.504	36.12
666.692	36.21
666.879	36.22
667.067	35.93
667.254	35.82
667.441	36.1
667.629	35.55
667.816	35.66
668.003	35.33
668.19	35.1
668.378	35.2
668.565	35.59
668.752	36.14
668.939	36.08
669.127	36.03
669.314	36.24
669.501	35.58
669.688	35.69
669.875	35.84
670.062	36.12
670.249	35.79
670.436	35.71
670.623	35.89
670.81	35.83
670.997	36.08
671.184	36.4
671.371	36.47
671.558	37.11
671.745	37.13
671.932	37.02
672.119	36.51
672.306	36.77
672.493	36.64
672.68	36.69
672.867	36.89
673.054	36.83
673.24	37.12
673.427	37.11
673.614	37.4
673.801	37.14
673.988	36.81
674.174	37.47
674.361	37.35
674.548	37.84
674.734	37.55
674.921	37.3
675.108	37.36
675.294	36.89
675.481	36.83
675.668	36.36
675.854	36.81
676.041	37.04
676.227	36.86
676.414	37.46
676.601	37
676.787	37.18
676.974	36.67
677.16	36.3
677.347	36.58
677.533	36.42
677.719	36.54
677.906	36.24
678.092	36.03
678.279	35.98
678.465	35.31
678.651	35.35
678.838	35.05
679.024	35.2
679.21	35.31
679.397	35.22
679.583	35.31
679.769	35.34
679.955	35.42
680.142	35.43
680.328	35.67
680.514	35.65
680.7	35.64
680.886	35.78
681.073	35.28
681.259	35.39
681.445	35.25
681.631	35.04
681.817	34.99
682.003	35.01
682.189	35.3
682.375	34.77
682.561	35.15
682.747	35.36
682.933	35.23
683.119	36.21
683.305	36.46
683.491	36.87
683.677	37.32
683.863	37.19
684.049	37.41
684.235	37.32
684.42	37.61
684.606	37.47
684.792	37.47
684.978	37.88
685.164	37.55
685.349	37.54
685.535	36.97
685.721	36.33
685.907	36.61
686.092	36.54
686.278	36.4
686.464	36.57
686.649	35.92
686.835	36.42
687.021	35.9
687.206	35.52
687.392	35.2
687.577	35.39
687.763	35.78
687.948	35.63
688.134	35.56
688.319	35.61
688.505	35.13
688.69	35.73
688.876	35.11
689.061	35.33
689.247	35.5
689.432	35.37
689.618	35.42
689.803	35.5
689.988	35.59
690.174	35.51
690.359	35.31
690.544	35.71
690.73	35.57
690.915	35.26
691.1	35.39
691.285	36.11
691.471	36.52
691.656	36.78
691.841	36.73
692.026	36.62
692.211	36.74
692.396	37.11
692.582	36.92
692.767	37.29
692.952	37.46
693.137	37.79
693.322	37.29
693.507	37.03
693.692	37.08
693.877	36.96
694.062	37.34
694.247	37.41
694.432	37.67
694.617	38.06
694.802	37.7
694.987	38.21
695.172	37.54
695.357	37.6
695.541	37.46
695.726	37.28
695.911	37.57
696.096	37.23
696.281	37.17
696.466	36.95
696.65	36.68
696.835	36.78
697.02	36.69
697.204	36.74
697.389	36.51
697.574	36.68
697.759	36.44
697.943	36.61
698.128	36.69
698.312	36.49
698.497	36.33
698.682	36.5
698.866	36.69
699.051	36.7
699.235	37.04
699.42	37.03
699.604	37.17
699.789	37.32
699.973	37.08
700.158	36.96
700.342	37.11
700.527	37.16
700.711	36.78
700.895	36.79
701.08	37.06
701.264	36.67
701.448	36.82
701.633	36.51
701.817	36.9
702.001	36.8
702.186	37.19
702.37	37.49
702.554	37.57
702.738	37.68
702.923	37.33
703.107	37.39
703.291	37.87
703.475	37.93
703.659	38.43
703.843	38.39
704.027	38.73
704.212	38.44
704.396	38.8
704.58	39.2
704.764	39.25
704.948	38.97
705.132	38.35
705.316	38.22
705.5	38.17
705.684	37.85
705.868	37.33
706.052	37.25
706.235	37.18
706.419	36.13
706.603	36.17
706.787	36.37
706.971	36.64
707.155	37.06
707.339	37.36
707.522	36.82
707.706	36.83
707.89	36.76
708.074	36.71
708.257	36.42
708.441	37.04
708.625	36.94
708.808	36.92
708.992	37.02
709.176	36.52
709.359	36.23
709.543	36.93
709.727	37.05
709.91	37.39
710.094	37.12
710.277	37.71
710.461	37.1
710.644	36.96
710.828	36.68
711.011	36.63
711.195	36.63
711.378	36.61
711.562	36.93
711.745	36.61
711.928	36.47
712.112	36.12
712.295	36.08
712.478	35.9
712.662	36.06
712.845	36.38
713.028	36.62
713.212	36.62
713.395	36.63
713.578	36.14
713.761	36.6
713.945	36.85
714.128	37.67
714.311	38.02
714.494	38.85
714.677	38.26
714.86	38.57
715.043	38.69
715.227	38.81
715.41	39.21
715.593	39.6
715.776	39.83
715.959	39.86
716.142	39.43
716.325	38.94
716.508	38.46
716.691	38.91
716.874	38.48
717.057	38.15
717.239	38.33
717.422	37.82
717.605	37.93
717.788	37.73
717.971	37.83
718.154	38.79
718.337	38.96
718.519	39.29
718.702	39.5
718.885	40
719.068	39.74
719.25	39.99
719.433	40.77
719.616	39.67
719.798	38.73
719.981	39.35
720.164	38.64
720.346	38.56
720.529	38.45
720.712	38.05
720.894	38.02
721.077	38.68
721.259	38.58
721.442	38.1
721.624	38.48
721.807	39.34
721.989	38.18
722.172	37.85
722.354	37.71
722.537	37.75
722.719	37.94
722.901	37.56
723.084	37.19
723.266	36.47
723.448	36.22
723.631	38
723.813	38.17
723.995	37.77
724.178	38.01
724.36	37.6
724.542	37.45
724.724	36.97
724.907	37.62
725.089	38.01
725.271	38.67
725.453	38.27
725.635	37.15
725.817	37.74
725.999	37.79
726.181	37.85
726.364	38.01
726.546	38.02
726.728	38.77
726.91	38.66
727.092	38.03
727.274	38.22
727.456	38.5
727.638	38.59
727.819	37.82
728.001	38.16
728.183	38.06
728.365	38.79
728.547	38.73
728.729	38.83
728.911	38.35
729.093	38.55
729.274	38.67
729.456	38.05
729.638	37.18
729.82	37.23
730.001	37.66
730.183	37.44
730.365	36.91
730.546	37.26
730.728	36.45
730.91	36.39
731.091	36.83
731.273	36.37
731.455	36.82
731.636	37.54
731.818	37.71
731.999	37.01
732.181	37.45
732.362	37.38
732.544	37.14
732.725	38.32
732.907	39.09
733.088	39.31
733.27	39.48
733.451	39.55
733.633	39.86
733.814	40
733.995	40.02
734.177	39.37
734.358	39.77
734.539	39.82
734.721	39.24
734.902	38.75
735.083	38.24
735.264	38.56
735.446	38.63
735.627	38.6
735.808	38.9
735.989	39.3
736.17	40.29
736.351	39.86
736.533	40.31
736.714	40.15
736.895	39.84
737.076	39.89
737.257	39.06
737.438	39.27
737.619	38.31
737.8	37.47
737.981	38
738.162	37.98
738.343	37.83
738.524	38.52
738.705	39.02
738.886	39.36
739.067	39.49
739.247	40.18
739.428	40.06
739.609	40.09
739.79	41.01
739.971	41.09
740.151	40.89
740.332	41.56
740.513	39.79
740.694	39.3
740.874	39.18
741.055	39.36
741.236	39.76
741.417	39.86
741.597	39.69
741.778	38.49
741.958	38.05
742.139	37.52
742.32	37.62
742.5	37.96
742.681	37.84
742.861	38.12
743.042	38.05
743.222	37.79
743.403	38.12
743.583	39.38
743.764	39.87
743.944	39.94
744.124	40.16
744.305	39.88
744.485	40.6
744.666	40.49
744.846	40.87
745.026	40.75
745.207	40.59
745.387	39.88
745.567	39.57
745.747	39.77
745.928	39.5
746.108	39.93
746.288	39.93
746.468	39.74
746.648	40.11
746.829	39.4
747.009	39.45
747.189	39.79
747.369	41.05
747.549	40.59
747.729	40.77
747.909	40.95
748.089	40.61
748.269	41.22
748.449	41.7
748.629	42.05
748.809	43.18
748.989	42.4
749.169	41.78
749.349	40.88
749.529	40.9
749.709	41.45
749.889	41.59
750.068	41.71
750.248	41.23
750.428	40.47
750.608	40.24
750.788	39.67
750.967	40.68
751.147	41.16
751.327	40.24
751.507	40.19
751.686	38.85
751.866	39.22
752.046	39.35
752.225	39.7
752.405	40.48
752.585	38.81
752.764	38.25
752.944	37.21
753.123	37.1
753.303	38.48
753.482	38.42
753.662	39.38
753.841	39.15
754.021	38.95
754.2	38.77
754.38	38.77
754.559	39.84
754.739	39.62
754.918	39.67
755.097	38.38
755.277	38.79
755.456	39.27
755.635	38.02
755.815	38.22
755.994	38.71
756.173	38.08
756.352	37.86
756.532	38.53
756.711	39.81
756.89	40.3
757.069	42.15
757.248	40.56
757.427	40.22
757.607	41.01
757.786	40.79
757.965	39.81
758.144	40.23
758.323	39.81
758.502	40.43
758.681	39.6
758.86	39.37
759.039	38.57
759.218	38.99
759.397	39.6
759.576	39.48
759.755	38.41
759.934	38.76
760.113	38.4
760.291	38.73
760.47	37.79
760.649	37.87
760.828	38.09
761.007	37.72
761.186	38.04
761.364	36.62
761.543	36.87
761.722	37.27
761.901	37.44
762.079	37.59
762.258	37.12
762.437	37.09
762.615	37.3
762.794	38
762.972	38.36
763.151	38.47
763.33	38.63
763.508	38.43
763.687	39.11
763.865	39.09
764.044	39.34
764.222	39.31
764.401	39.01
764.579	38.77
764.758	38.64
764.936	39
765.114	39.16
765.293	39.16
765.471	38.96
765.65	38.48
765.828	38.5
766.006	38.61
766.184	38.74
766.363	39.9
766.541	39.41
766.719	38.97
766.898	38.71
767.076	38.24
767.254	39.14
767.432	40.16
767.61	41.06
767.788	40.75
767.967	40.28
768.145	41.23
768.323	39.89
768.501	41.04
768.679	41.16
768.857	41.18
769.035	41.42
769.213	41.28
769.391	41.16
769.569	40.5
769.747	41.55
769.925	42.15
770.103	40.63
770.281	41.93
770.459	41.55
770.636	41.64
770.814	41.97
770.992	41.13
771.17	40.16
771.348	38.27
771.525	37
771.703	37.24
771.881	38.13
772.059	37.97
772.236	35.58
772.414	35.88
772.592	35.75
772.769	34.62
772.947	36.77
773.125	38.7
773.302	39.66
773.48	41.97
773.657	41.33
773.835	40.32
774.013	42.3
774.19	43.48
774.368	43.26
774.545	43.96
774.723	44.44
774.9	45
775.077	43.38
775.255	43.25
775.432	41.92
775.61	42.37
775.787	41.41
775.964	39.25
776.142	41.39
776.319	41.92
776.496	40.3
776.674	40.42
776.851	39.02
777.028	40.66
777.205	42.67
777.382	42.74
777.56	42.88
777.737	42.79
777.914	44.38
778.091	43.14
778.268	43.16
778.445	44.37
778.622	44.75
778.8	46.44
778.977	45.56
779.154	52.85
779.331	52.87
779.508	52.85
779.685	54.8
779.862	55.53
780.038	55.32
780.215	54.89
780.392	54.04
780.569	53.91
780.746	51.06
780.923	50.41
781.1	41.87
781.277	42.32
781.453	40.88
781.63	40.02
781.807	40.32
781.984	41.42
782.16	41.9
782.337	42.57
782.514	43.46
782.691	45.39
782.867	44.16
783.044	43.4
783.221	44.37
783.397	44.85
783.574	45.46
783.75	44.76
783.927	45.58
784.103	47.25
784.28	47.26
784.456	47.31
784.633	45.69
784.809	47.67
784.986	47.68
785.162	44.26
785.339	44.87
785.515	44.34
785.692	44.04
785.868	41.64
786.044	38.02
786.221	38.13
786.397	37.2
786.573	37.74
786.749	37.78
786.926	38.11
787.102	40.5
787.278	40.2
787.454	40.73
787.631	40.28
787.807	40.77
787.983	41.56
788.159	41.51
788.335	42.05
788.511	43.53
788.687	44.12
788.863	44.13
789.039	44.51
789.216	44.7
789.392	45.39
789.568	45.53
789.744	47.29
789.919	49
790.095	47.21
790.271	46.72
790.447	44.66
790.623	44.76
790.799	45.26
790.975	43.99
791.151	45.34
791.327	42.97
791.502	42.9
791.678	40.85
791.854	41.28
792.03	44.25
792.205	43.06
792.381	43.79
792.557	44.13
792.733	42.35
792.908	43.75
793.084	41.66
793.259	43.18
793.435	43.54
793.611	44.09
793.786	42.04
793.962	39.62
794.137	40.11
794.313	40.13
794.488	39.79
794.664	42.33
794.839	42.45
795.015	41.66
795.19	42.85
795.366	43.94
795.541	44.72
795.716	45.98
795.892	46.08
796.067	46.93
796.242	45.99
796.418	45.44
796.593	43.63
796.768	43.37
796.944	45.01
797.119	43.28
797.294	43.75
797.469	42.57
797.644	41.92
797.82	43.08
797.995	41.11
798.17	43.16
798.345	42.21
798.52	44.66
798.695	43.75
798.87	43.92
799.045	45.05
799.22	44.28
799.395	44.05
799.57	44.77
799.745	43.58
799.92	44.09
800.095	41.48
800.27	41.63
800.445	40.46
800.62	39.8
800.795	38.66
800.97	36.04
801.145	35.66
801.319	35.33
801.494	34.51
801.669	35.82
801.844	36.95
802.018	38.05
802.193	38.66
802.368	39.29
802.543	39.19
802.717	37.53
802.892	40.81
803.067	41.92
803.241	42.25
803.416	42.19
803.59	42.15
803.765	41.56
803.94	40.92
804.114	41.26
804.289	39.22
804.463	39.76
804.638	40.89
804.812	39.89
804.986	38.14
805.161	40.1
805.335	38.92
805.51	39.16
805.684	38.54
805.858	38.4
806.033	38.73
806.207	38.55
806.381	38.88
806.556	39.92
806.73	39.6
806.904	39.17
807.078	39.43
807.253	40.71
807.427	40.39
807.601	41.19
807.775	40.68
807.949	39.28
808.123	39.04
808.298	39.67
808.472	39.39
808.646	38.19
808.82	39.98
808.994	40.08
809.168	38.23
809.342	38.09
809.516	35.96
809.69	35.4
809.864	37.87
810.038	40.9
810.212	39.55
810.385	40.61
810.559	41.04
810.733	38.48
810.907	38.54
811.081	41.26
811.255	39.38
811.428	44.06
811.602	47.09
811.776	45.31
811.95	42.35
812.123	43.87
812.297	42.18
812.471	43.12
812.644	44.9
812.818	44.47
812.992	42.45
813.165	43.62
813.339	41.68
813.512	40.45
813.686	39.61
813.86	40.68
814.033	40.08
814.207	41.5
814.38	42.01
814.554	40.43
814.727	41.8
814.9	42.32
815.074	45.96
815.247	45.56
815.421	44.18
815.594	45.19
815.767	46.57
815.941	46.77
816.114	45.1
816.287	45.63
816.46	47.83
816.634	44.04
816.807	42.69
816.98	43.73
817.153	42.41
817.327	44.6
817.5	44.94
817.673	44.37
817.846	42.28
818.019	44.37
818.192	44.13
818.365	41.58
818.538	43.26
818.711	44.28
818.884	41.84
819.057	45.27
819.23	42.97
819.403	43.08
819.576	43.44
819.749	44.36
819.922	43.68
820.095	43.23
820.268	44.89
820.441	44.98
820.614	44.68
820.786	43.95
820.959	41.17
821.132	42.68
821.305	41.81
821.477	40.42
821.65	40.61
821.823	40.53
821.996	40.09
822.168	39.77
822.341	39.1
822.514	38.96
822.686	38.81
822.859	38.75
823.031	38.69
823.204	38.43
823.376	38.3
823.549	38.1
823.722	37.99
823.894	38.15
824.067	38.06
824.239	38.36
824.411	38.76
824.584	38.86
824.756	39.21
824.929	38.39
825.101	38.88
825.273	39.3
825.446	39.1
825.618	38.73
825.79	38.32
825.963	38.29
826.135	38.15
826.307	37.75
826.479	37.91
826.652	37.53
826.824	37.91
826.996	37.8
827.168	38.32
827.34	38.34
827.512	39.08
827.684	40.05
827.856	39.7
828.029	40.28
828.201	40.13
828.373	39.87
828.545	40.85
828.717	41.54
828.889	40.76
829.061	40.86
829.232	41.83
829.404	41.86
829.576	41.25
829.748	41.35
829.92	39.97
830.092	40.91
830.264	41.1
830.436	40.95
830.607	39.7
830.779	39.99
830.951	39.54
831.123	39.41
831.294	37.42
831.466	38.1
831.638	38.46
831.809	39.51
831.981	36.73
832.153	37.83
832.324	39.79
832.496	42.14
832.667	45.01
832.839	42.97
833.011	40.84
833.182	41.91
833.354	41.2
833.525	40.98
833.697	40.81
833.868	41.43
834.039	40.51
834.211	39.17
834.382	38.7
834.554	37.87
834.725	38.28
834.896	39.52
835.068	39.69
835.239	39.22
835.41	39.72
835.581	40.43
835.753	41.75
835.924	41.82
836.095	41.03
836.266	42.01
836.438	41.42
836.609	42.9
836.78	42.76
836.951	41.73
837.122	40.44
837.293	40.81
837.464	37.76
837.635	38.21
837.806	37.56
837.977	36.96
838.148	36.85
838.319	36.84
838.49	36.66
838.661	39.83
838.832	42.53
839.003	46.57
839.174	47.36
839.345	53.3
839.516	51.17
839.687	51.31
839.857	50.5
840.028	46.86
840.199	46.42
840.37	45.3
840.54	40.58
840.711	38.54
840.882	37.37
841.053	36.67
841.223	34.82
841.394	28.82
841.564	30.85
841.735	34.1
841.906	37.24
842.076	38.59
842.247	38.64
842.417	40.69
842.588	40.88
842.758	37.83
842.929	35.44
843.099	34.68
843.27	45.08
843.44	43.25
843.611	42.13
843.781	40.53
843.951	39.51
844.122	32.94
844.292	30.87
844.462	31.12
844.633	32.44
844.803	31.62
844.973	28.17
845.144	24.29
845.314	21.74
845.484	22.94
845.654	24.81
845.824	36.89
845.995	40.65
846.165	39.12
846.335	43.33
846.505	45.27
846.675	47.51
846.845	55.51
847.015	47.35
847.185	52.97
847.355	53.65
847.525	59.24
847.695	52.01
847.865	64.83
848.035	63.68
848.205	61.14
848.375	68.25
848.545	71.09
848.715	66.05
848.884	76.77
849.054	76.33
849.224	71.52
849.394	64.98
849.564	61.27
849.733	57.14
849.903	61.56
850.073	61.18
850.243	57.55
850.412	55.41
850.582	60.08
850.752	63.44
850.921	63.85
851.091	67.2
851.26	70.83
851.43	70.21
851.599	71.37
851.769	69.01
851.939	67.29
852.108	69.45
852.278	69.41
852.447	63.39
852.616	55.88
852.786	55.9
852.955	53.84
853.125	53
853.294	57.08
853.463	55.17
853.633	57.96
853.802	65.44
853.971	60.02
854.141	65.01
854.31	62.43
854.479	57.39
854.648	51.66
854.818	57.78
854.987	51.16
855.156	42.44
855.325	35.39
855.494	38.3
855.663	38.88
855.832	41.09
856.001	39.78
856.171	39.16
856.34	45.62
856.509	50.14
856.678	42.89
856.847	57.61
857.016	70.72
857.185	77.56
857.353	78.04
857.522	73.14
857.691	67.27
857.86	68.27
858.029	69.63
858.198	64.34
858.367	60.06
858.535	63.59
858.704	54.46
858.873	49.76
859.042	45.59
859.21	44.05
859.379	39.96
859.548	43.11
859.717	43.18
859.885	47.04
860.054	56.65
860.222	49.66
860.391	54.7
860.56	54.51
860.728	51.05
860.897	56.23
861.065	50.47
861.234	50.41
861.402	48.95
861.571	48.9
861.739	48.26
861.908	37.91
862.076	46.52
862.244	43.29
862.413	48.38
862.581	48.37
862.749	49.67
862.918	54.91
863.086	62.01
863.254	59.81
863.423	58.55
863.591	58.83
863.759	63.23
863.927	67.15
864.096	56.92
864.264	65
864.432	65.32
864.6	64.19
864.768	64.67
864.936	58.64
865.104	58.88
865.272	61.8
865.44	63.65
865.608	62.13
865.776	65.06
865.944	71.4
866.112	60.43
866.28	61.85
866.448	60.26
866.616	64.8
866.784	61.84
866.952	59.85
867.12	55.39
867.288	60.25
867.455	71.8
867.623	65.54
867.791	60.39
867.959	60.68
868.127	62.35
868.294	62.46
868.462	62.44
868.63	71.08
868.797	80.16
868.965	89.42
869.133	83.32
869.3	85.66
869.468	77.4
869.636	84.57
869.803	85.43
869.971	83.72
870.138	83.79
870.306	94.7
870.473	79.84
870.641	69.78
870.808	74.71
870.975	75.66
871.143	65.44
871.31	68.34
871.478	67.85
871.645	73.76
871.812	92.03
871.98	85.77
872.147	69.41
872.314	90.16
872.482	93.8
872.649	83.93
872.816	87.31
872.983	83.47
873.15	73.07
873.318	67.25
873.485	64.67
873.652	48.89
873.819	50.17
873.986	54.6
874.153	50
874.32	53.53
874.487	57.32
874.654	54.87
874.821	56.08
874.988	66.27
875.155	65.57
875.322	65.25
875.489	72.13
875.656	74.69
875.823	58.08
875.99	45.23
876.157	36.77
876.324	33.61
876.49	23.87
876.657	23.98
876.824	31.29
876.991	42.28
877.157	40.83
877.324	44.19
877.491	47.38
877.658	55.33
877.824	72.45
877.991	75.85
878.157	74.3
878.324	88.63
878.491	86.48
878.657	79.48
878.824	77.54
878.99	74.63
879.157	70.83
879.323	76.23
879.49	66.91
879.656	62.52
879.823	59.55
879.989	54.63
880.156	48.55
880.322	55.21
880.488	52.88
880.655	50.92
880.821	51.09
880.987	54.12
881.154	47.61
881.32	48.39
881.486	45.7
881.652	48.41
881.819	49.64
881.985	50.86
882.151	48.53
882.317	44.71
882.483	44.84
882.649	44.22
882.816	41.82
882.982	41.26
883.148	40.57
883.314	40.8
883.48	39.92
883.646	40.53
883.812	39.7
883.978	40.31
884.144	40.05
884.31	39.78
884.476	40.01
884.642	41.24
884.807	39.18
884.973	41.17
885.139	40.73
885.305	40.22
885.471	38.89
885.637	39.3
885.802	38.68
885.968	40.13
886.134	39.75
886.3	39.17
886.465	37.53
886.631	39.26
886.797	37.05
886.962	37.68
887.128	38.35
887.293	40.75
887.459	43.51
887.625	42.12
887.79	47.7
887.956	46.84
888.121	48.44
888.287	51.34
888.452	56.62
888.618	56.48
888.783	57.14
