Data from LC_263_Reflection_3.txt Node
Date: Sat Nov 21 11:45:33 EST 2015
User: robert
Spectrometer: USB4E03001
Autoset integration time: false
Trigger mode: 4
Integration Time (sec): 1.000000E-1
Scans to average: 15
Electric dark correction enabled: true
Nonlinearity correction enabled: false
Boxcar width: 5
Stray light correction enabled: false
XAxis mode: Wavelengths
Stop averaging: false
Number of Pixels in Spectrum: 3648
>>>>>Begin Spectral Data<<<<<
177.566	151.31
177.785	181.45
178.005	341.63
178.225	-11.03
178.445	93.66
178.665	544.12
178.885	126.29
179.105	-42.93
179.324	-25.06
179.544	-36.51
179.764	-48.61
179.984	13.9
180.204	11.73
180.423	40.09
180.643	65.13
180.863	110.92
181.083	113.79
181.302	92
181.522	111.27
181.742	154.92
181.961	120.5
182.181	105.98
182.401	202.64
182.621	148.79
182.84	154.04
183.06	132
183.279	107.8
183.499	109.76
183.719	99.56
183.938	95.52
184.158	96.44
184.377	99.13
184.597	91.89
184.816	81.41
185.036	74.68
185.256	75.28
185.475	73.55
185.695	79.66
185.914	79.29
186.134	84.18
186.353	86.12
186.572	80.39
186.792	73.38
187.011	77.38
187.231	79.33
187.45	102.4
187.67	106.51
187.889	97.95
188.108	122.2
188.328	130.84
188.547	136.31
188.766	138.19
188.986	193.31
189.205	350.07
189.424	567.85
189.644	396.03
189.863	-47.21
190.082	-175.26
190.302	516.82
190.521	56.72
190.74	101.31
190.959	85.42
191.178	93.47
191.398	16.96
191.617	35.55
191.836	49.6
192.055	40.14
192.274	42.04
192.494	45.19
192.713	35.62
192.932	43.64
193.151	42.5
193.37	59.06
193.589	39.54
193.808	71.39
194.027	81.02
194.246	65.36
194.465	56.43
194.685	65.66
194.904	63.68
195.123	68.33
195.342	78.12
195.561	55.7
195.78	23.85
195.999	48.76
196.218	57.45
196.436	40.43
196.655	54.8
196.874	74.18
197.093	97.24
197.312	105.47
197.531	134.49
197.75	95.97
197.969	100.88
198.188	131.97
198.407	134.66
198.625	116.66
198.844	106.86
199.063	91.96
199.282	91.22
199.501	106.03
199.719	102.44
199.938	95.78
200.157	102.68
200.376	101.85
200.594	92.42
200.813	69.06
201.032	80.98
201.251	78.42
201.469	106.66
201.688	117.93
201.907	53.81
202.125	71.07
202.344	71.7
202.563	105.6
202.781	110.63
203	121.8
203.218	145.66
203.437	286.47
203.656	481.43
203.874	482.23
204.093	246.1
204.311	247.43
204.53	285.74
204.748	190.61
204.967	174.08
205.185	126.91
205.404	152.88
205.622	327.18
205.841	150.64
206.059	115.68
206.278	67.36
206.496	87.4
206.715	132.7
206.933	176.13
207.151	208.36
207.37	141.87
207.588	158.85
207.806	113.04
208.025	59.01
208.243	71.91
208.461	68.05
208.68	98.06
208.898	124.24
209.116	90.15
209.335	83.08
209.553	85.26
209.771	95.62
209.989	110.1
210.208	114.42
210.426	149.99
210.644	153.11
210.862	234.82
211.081	182.66
211.299	122.92
211.517	142.17
211.735	131.5
211.953	96.69
212.171	79.04
212.39	78.97
212.608	61.67
212.826	67.61
213.044	71.88
213.262	71.69
213.48	64.71
213.698	68.17
213.916	83.32
214.134	78.82
214.352	99.23
214.57	89.11
214.788	81.93
215.006	74.87
215.224	51.33
215.442	50.49
215.66	58.51
215.878	58.6
216.096	62.22
216.314	67.89
216.532	56.78
216.75	49.17
216.968	59.67
217.185	58.93
217.403	74.91
217.621	88.75
217.839	68.37
218.057	70.54
218.275	69.2
218.492	47.82
218.71	47.19
218.928	36.39
219.146	25.73
219.363	26.05
219.581	33.98
219.799	13.02
220.017	6.18
220.234	26.58
220.452	12.31
220.67	23.81
220.887	30.26
221.105	23.11
221.323	20.15
221.54	18.67
221.758	23.96
221.976	24.35
222.193	41.69
222.411	53.39
222.629	51.94
222.846	53.65
223.064	51.85
223.281	48.63
223.499	57.19
223.716	64.98
223.934	76
224.151	75.19
224.369	59.93
224.586	54.67
224.804	55.61
225.021	63.48
225.239	56.47
225.456	59.95
225.674	56.88
225.891	54.64
226.108	47.81
226.326	42.28
226.543	41.02
226.76	47.51
226.978	46.56
227.195	41.38
227.413	38.54
227.63	39.96
227.847	37.19
228.064	34.37
228.282	27.38
228.499	25.45
228.716	22.99
228.934	22.21
229.151	22.01
229.368	20.48
229.585	22.3
229.802	23.27
230.02	21.79
230.237	19.71
230.454	21.72
230.671	21.86
230.888	25.43
231.105	26.11
231.323	26.17
231.54	25.47
231.757	27.29
231.974	24.96
232.191	19.05
232.408	22.7
232.625	22.77
232.842	18.02
233.059	22.72
233.276	22.19
233.493	23.94
233.71	24.43
233.927	22.78
234.144	21.51
234.361	17.85
234.578	18.53
234.795	16.38
235.012	17.36
235.229	22.12
235.446	18.7
235.663	14.33
235.879	10.08
236.096	9.8
236.313	16.62
236.53	14.78
236.747	21.06
236.964	18.55
237.181	16.82
237.397	21.03
237.614	14.46
237.831	12.76
238.048	13
238.264	16.39
238.481	12.1
238.698	10.49
238.915	8.83
239.131	0.28
239.348	4.52
239.565	4.93
239.781	3.02
239.998	5.2
240.215	7.04
240.431	6.31
240.648	7.49
240.865	9.89
241.081	5.8
241.298	8.88
241.514	13.29
241.731	12.4
241.947	13.31
242.164	13.3
242.38	13.07
242.597	14.57
242.814	15.11
243.03	14.21
243.246	14.7
243.463	15.47
243.679	16.72
243.896	16.41
244.112	18.26
244.329	20.13
244.545	21.43
244.762	21.65
244.978	20.1
245.194	20.07
245.411	21.09
245.627	20.83
245.843	20.23
246.06	17.18
246.276	15.15
246.492	13.61
246.709	12.83
246.925	12.02
247.141	12.51
247.357	11.55
247.574	10.37
247.79	10.18
248.006	10.09
248.222	9.96
248.439	10.68
248.655	11.66
248.871	12
249.087	12.08
249.303	12.24
249.519	12.16
249.736	13.61
249.952	15.74
250.168	15.92
250.384	16.62
250.6	18.29
250.816	18.14
251.032	17.56
251.248	16.81
251.464	16.78
251.68	16.73
251.896	14.65
252.112	15.36
252.328	15.09
252.544	16.06
252.76	16.14
252.976	15.28
253.192	15.02
253.408	16.7
253.624	17.01
253.84	16.05
254.056	16.29
254.272	17.19
254.487	17.21
254.703	17.89
254.919	18.65
255.135	16.9
255.351	17.94
255.567	18.5
255.782	14.86
255.998	16.19
256.214	14.98
256.43	16.61
256.646	15.36
256.861	13.79
257.077	13.87
257.293	12.14
257.508	10.88
257.724	9.94
257.94	11.25
258.155	11.86
258.371	11.21
258.587	10.83
258.802	10.61
259.018	11.2
259.234	11.39
259.449	11.2
259.665	11.08
259.88	12.19
260.096	11.91
260.312	11.72
260.527	11.91
260.743	11.9
260.958	12.18
261.174	11.07
261.389	11.22
261.605	11.27
261.82	11.98
262.036	12.33
262.251	11.56
262.466	12.99
262.682	12.4
262.897	11.54
263.113	11.77
263.328	13.07
263.543	15.76
263.759	15.64
263.974	16.36
264.189	16.7
264.405	17.29
264.62	18.31
264.835	17.63
265.051	17.44
265.266	18.6
265.481	16.29
265.696	16.95
265.912	16.39
266.127	16.08
266.342	14.84
266.557	12.94
266.773	12.31
266.988	11.74
267.203	11.25
267.418	10.6
267.633	10.15
267.848	10.88
268.064	8.99
268.279	8.59
268.494	9.29
268.709	10.05
268.924	9.56
269.139	9.4
269.354	9.04
269.569	8.29
269.784	9.84
269.999	8.44
270.214	9.81
270.429	11.07
270.644	10.06
270.859	9.26
271.074	7.63
271.289	7.73
271.504	7.42
271.719	7.29
271.934	7.73
272.149	6.66
272.363	7.75
272.578	6.65
272.793	5.98
273.008	7.81
273.223	7.94
273.438	9.21
273.653	9.85
273.867	10.3
274.082	11.23
274.297	10.95
274.512	10.66
274.726	10.64
274.941	11.69
275.156	12.92
275.371	10.5
275.585	11.07
275.8	9.98
276.015	9.35
276.229	8.95
276.444	8.43
276.659	9.77
276.873	11.25
277.088	11.88
277.302	10.99
277.517	10.02
277.732	10.52
277.946	10.59
278.161	11.48
278.375	11.81
278.59	12.27
278.804	11.31
279.019	9.69
279.233	10.06
279.448	9.1
279.662	9
279.877	8.21
280.091	9.28
280.306	8.86
280.52	8.34
280.735	9.01
280.949	7.93
281.163	8.52
281.378	8.37
281.592	7.06
281.806	8.12
282.021	9.65
282.235	10.44
282.449	10.67
282.664	9.97
282.878	10.63
283.092	10.37
283.307	10.85
283.521	10.81
283.735	11.24
283.949	12
284.164	11.1
284.378	9.07
284.592	8.08
284.806	7.95
285.02	9.1
285.234	8.91
285.449	8.05
285.663	8.47
285.877	8.39
286.091	8.79
286.305	8.17
286.519	8.46
286.733	9.42
286.947	9.91
287.161	9.78
287.375	9.83
287.589	10.5
287.803	11.43
288.017	11.43
288.231	11.79
288.445	11.35
288.659	11.88
288.873	11.79
289.087	11.24
289.301	11.94
289.515	11.06
289.729	11.19
289.943	10.19
290.157	10.43
290.371	10.37
290.584	10.57
290.798	10.48
291.012	9.99
291.226	10.08
291.44	10.11
291.654	9.73
291.867	10.11
292.081	10.2
292.295	10.39
292.509	9.77
292.722	9.89
292.936	9.96
293.15	9.33
293.364	9.92
293.577	9.57
293.791	10.83
294.005	10.52
294.218	10.75
294.432	10.01
294.645	10.67
294.859	10.78
295.073	10.01
295.286	10.22
295.5	11.32
295.713	10.68
295.927	11.39
296.14	10.64
296.354	11.42
296.568	11.5
296.781	12.41
296.994	12.65
297.208	12.06
297.421	13.44
297.635	12.89
297.848	12.43
298.062	12.99
298.275	12.74
298.489	13.32
298.702	12.96
298.915	12.47
299.129	11.9
299.342	10.88
299.555	11.7
299.769	11.21
299.982	12.01
300.195	12.89
300.409	12.89
300.622	12.71
300.835	12.69
301.048	13.43
301.262	13.67
301.475	14.1
301.688	15.29
301.901	15.52
302.115	14.4
302.328	14.44
302.541	13.88
302.754	13.91
302.967	13.84
303.18	13.71
303.393	13
303.607	13.53
303.82	12.53
304.033	11.8
304.246	11.9
304.459	12.7
304.672	12.53
304.885	13.17
305.098	13.74
305.311	14.22
305.524	13.38
305.737	13.91
305.95	13.52
306.163	13.78
306.376	13.62
306.589	13.46
306.802	12.69
307.015	11.29
307.228	11.53
307.44	10.16
307.653	10.42
307.866	10.78
308.079	9.88
308.292	9.95
308.505	10.76
308.718	11.5
308.93	11.89
309.143	11.6
309.356	11.26
309.569	10.53
309.781	11.92
309.994	11.45
310.207	11.74
310.42	11.98
310.632	11.73
310.845	11.49
311.058	11.05
311.27	11.08
311.483	12.16
311.696	12.89
311.908	13.26
312.121	12.79
312.333	13.44
312.546	13.87
312.759	14.24
312.971	14.21
313.184	14.25
313.396	14.78
313.609	13.68
313.821	13.28
314.034	15.27
314.246	16.31
314.459	16.25
314.671	15.68
314.884	14.81
315.096	14.37
315.309	14.59
315.521	14.4
315.733	13.64
315.946	15.34
316.158	14.97
316.371	13.68
316.583	13.08
316.795	13.23
317.008	12.82
317.22	12.69
317.432	13.02
317.644	13.41
317.857	12.71
318.069	13.36
318.281	12.49
318.494	13.06
318.706	12.13
318.918	11.12
319.13	10.12
319.342	10.23
319.555	10.96
319.767	11.48
319.979	11.37
320.191	13
320.403	13.12
320.615	13.02
320.827	13.01
321.039	13.53
321.252	13.31
321.464	12.97
321.676	12.13
321.888	12.35
322.1	11.83
322.312	11.49
322.524	10.38
322.736	9.77
322.948	10.52
323.16	10.3
323.372	11.19
323.584	12.2
323.796	13.16
324.007	13.79
324.219	13.71
324.431	14.29
324.643	15.36
324.855	15.3
325.067	16.07
325.279	15.88
325.491	16.16
325.702	16.01
325.914	15.85
326.126	15.78
326.338	15.57
326.55	15.97
326.761	15.29
326.973	15.38
327.185	16.21
327.396	16.05
327.608	15.33
327.82	15.33
328.032	14.94
328.243	14.57
328.455	14.68
328.666	15.79
328.878	16.87
329.09	17.4
329.301	18.5
329.513	18.28
329.725	18.76
329.936	19.14
330.148	19.31
330.359	19.68
330.571	20.29
330.782	20.56
330.994	20.36
331.205	19.06
331.417	18.66
331.628	17.75
331.84	18.13
332.051	17.53
332.262	18.18
332.474	18.32
332.685	18.29
332.897	18.66
333.108	18.13
333.319	18.39
333.531	17.5
333.742	18.25
333.953	17.77
334.165	17.71
334.376	16.92
334.587	17.96
334.799	18.93
335.01	19.24
335.221	19.61
335.432	20.19
335.644	19.86
335.855	21.1
336.066	21.13
336.277	22.01
336.488	21.04
336.7	21.88
336.911	20.87
337.122	20.65
337.333	20.84
337.544	20.19
337.755	20.56
337.966	20.38
338.177	19.79
338.388	19.68
338.599	18.38
338.811	19.25
339.022	19.54
339.233	19.09
339.444	18.52
339.655	18.49
339.866	18.72
340.076	17.73
340.287	17.55
340.498	18.03
340.709	18.46
340.92	19.6
341.131	19.44
341.342	18.81
341.553	19.36
341.764	19.44
341.975	18.56
342.185	18.09
342.396	19.43
342.607	20.34
342.818	20.21
343.029	20.37
343.239	20.55
343.45	19.57
343.661	20.35
343.872	19.81
344.082	20.21
344.293	20.89
344.504	20.89
344.714	20.15
344.925	19.5
345.136	20.26
345.346	20.17
345.557	19.35
345.768	20.62
345.978	19.71
346.189	19.82
346.399	19.02
346.61	19.12
346.821	19.26
347.031	18.8
347.242	18.92
347.452	17.91
347.663	17.55
347.873	17.84
348.084	18.08
348.294	18.74
348.504	19.21
348.715	19.37
348.925	18.54
349.136	17.96
349.346	18.24
349.557	17.86
349.767	18.42
349.977	18.36
350.188	18.53
350.398	17.86
350.608	18.03
350.819	18.7
351.029	18.38
351.239	18.54
351.449	19
351.66	19.69
351.87	20.36
352.08	19.92
352.29	19.49
352.501	18.8
352.711	18.92
352.921	18.73
353.131	18.28
353.341	18.41
353.552	18.33
353.762	18.15
353.972	17.76
354.182	18.07
354.392	18.77
354.602	18.94
354.812	19.37
355.022	19.28
355.232	19.57
355.442	19.14
355.652	19.64
355.862	20.34
356.072	20.19
356.282	20.13
356.492	19.37
356.702	18.58
356.912	18.35
357.122	18.59
357.332	18.25
357.542	17.7
357.752	17.72
357.962	17.54
358.171	16.95
358.381	17.36
358.591	17.34
358.801	17.62
359.011	17.96
359.221	17.76
359.43	17.6
359.64	17.78
359.85	17.93
360.06	18.2
360.269	18.42
360.479	18.37
360.689	17.76
360.899	17.49
361.108	17.48
361.318	17.01
361.528	17.53
361.737	17.16
361.947	17.53
362.156	17.55
362.366	17.5
362.576	17.05
362.785	17.33
362.995	17.75
363.204	17.72
363.414	17.37
363.623	17.95
363.833	17.69
364.042	18.28
364.252	17.98
364.461	17.72
364.671	17.38
364.88	17.62
365.09	16.69
365.299	16.87
365.509	16.84
365.718	17.27
365.927	17.43
366.137	17.05
366.346	16.59
366.555	16.41
366.765	16.56
366.974	16.65
367.183	16.65
367.393	17.58
367.602	17.52
367.811	18.2
368.021	17.68
368.23	17.59
368.439	17.91
368.648	17.93
368.857	17.92
369.067	17.29
369.276	17.79
369.485	17.44
369.694	16.89
369.903	16.6
370.112	16.02
370.321	16.45
370.531	15.4
370.74	15.51
370.949	15.2
371.158	15.17
371.367	15.6
371.576	15.22
371.785	15.55
371.994	16.01
372.203	16.36
372.412	16.42
372.621	16.51
372.83	16.63
373.039	16.46
373.248	16.46
373.457	16.25
373.666	16.26
373.874	15.86
374.083	15.83
374.292	15.1
374.501	14.51
374.71	13.99
374.919	13.58
375.128	14.64
375.336	14.71
375.545	15.1
375.754	15.05
375.963	14.58
376.171	14.87
376.38	14.41
376.589	14.4
376.798	14.15
377.006	14.8
377.215	14.58
377.424	13.98
377.632	13.98
377.841	13.34
378.05	13.42
378.258	13.44
378.467	13.31
378.675	13.37
378.884	13.39
379.093	13.74
379.301	13.39
379.51	13.87
379.718	14.1
379.927	14.08
380.135	14.49
380.344	14.82
380.552	14.68
380.761	14.58
380.969	14.7
381.177	14.9
381.386	14.92
381.594	15.16
381.803	14.71
382.011	14.52
382.219	14.31
382.428	14.16
382.636	13.55
382.845	13.95
383.053	13.7
383.261	13.61
383.469	13.53
383.678	13.44
383.886	12.96
384.094	13.05
384.302	12.43
384.511	12.19
384.719	12.06
384.927	12.41
385.135	12.53
385.343	12.72
385.552	12.68
385.76	12.93
385.968	12.84
386.176	12.99
386.384	13.15
386.592	13.41
386.8	13.52
387.008	13.58
387.216	13.48
387.424	13.3
387.633	13.07
387.841	12.99
388.049	12.71
388.257	12.75
388.465	12.49
388.672	12.18
388.88	12.05
389.088	11.93
389.296	11.95
389.504	11.77
389.712	11.49
389.92	11.71
390.128	11.78
390.336	11.67
390.544	11.63
390.751	11.62
390.959	11.78
391.167	11.69
391.375	11.49
391.583	11.29
391.79	11.07
391.998	11.22
392.206	11.28
392.414	10.92
392.621	11
392.829	10.85
393.037	11.08
393.244	10.62
393.452	10.65
393.66	10.95
393.867	11.21
394.075	11.64
394.283	11.26
394.49	11.16
394.698	11.39
394.905	11.54
395.113	11.63
395.32	11.58
395.528	11.57
395.735	11.36
395.943	11.14
396.15	11.11
396.358	10.35
396.565	10.62
396.773	10.58
396.98	10.57
397.188	10.19
397.395	9.85
397.602	9.78
397.81	10.23
398.017	10.32
398.225	10.44
398.432	10.48
398.639	10.89
398.847	10.78
399.054	10.82
399.261	10.81
399.468	11.15
399.676	11.43
399.883	11.38
400.09	11.28
400.297	11.43
400.505	11.29
400.712	10.88
400.919	10.64
401.126	10.98
401.333	10.84
401.54	11.01
401.748	10.68
401.955	10.79
402.162	10.99
402.369	11
402.576	10.86
402.783	10.86
402.99	10.8
403.197	11.05
403.404	10.95
403.611	11.26
403.818	11.07
404.025	10.89
404.232	10.59
404.439	10.22
404.646	10.02
404.853	10.39
405.06	10.59
405.267	10.93
405.474	10.95
405.681	10.83
405.887	10.66
406.094	10.67
406.301	10.64
406.508	10.75
406.715	10.77
406.922	10.78
407.128	10.66
407.335	10.4
407.542	10.34
407.749	10.33
407.955	10.34
408.162	10.01
408.369	9.81
408.575	9.91
408.782	9.77
408.989	10.02
409.195	10.1
409.402	9.99
409.609	10.15
409.815	9.78
410.022	9.79
410.228	9.53
410.435	9.61
410.642	9.49
410.848	9.77
411.055	9.8
411.261	9.41
411.468	9.22
411.674	9.06
411.881	8.97
412.087	9.24
412.294	9.23
412.5	9.37
412.706	8.99
412.913	9.28
413.119	9.22
413.326	9.31
413.532	9.7
413.738	9.83
413.945	9.98
414.151	9.86
414.357	9.66
414.564	9.69
414.77	9.76
414.976	10.29
415.182	10.15
415.389	10.04
415.595	9.99
415.801	9.8
416.007	9.74
416.214	9.62
416.42	9.76
416.626	10.03
416.832	9.71
417.038	9.58
417.244	9.56
417.45	9.62
417.657	9.64
417.863	9.66
418.069	9.74
418.275	9.82
418.481	9.67
418.687	9.63
418.893	9.29
419.099	9.31
419.305	9.36
419.511	9.43
419.717	9.23
419.923	9.07
420.129	9.1
420.335	8.97
420.541	8.76
420.746	8.76
420.952	8.7
421.158	8.77
421.364	8.87
421.57	8.79
421.776	8.68
421.982	8.85
422.187	8.88
422.393	8.77
422.599	8.7
422.805	8.92
423.01	9.04
423.216	9.15
423.422	9.1
423.628	9.15
423.833	9.14
424.039	9.12
424.245	9
424.45	9.07
424.656	9.08
424.862	9.26
425.067	9.12
425.273	8.91
425.478	8.9
425.684	8.89
425.889	8.93
426.095	9
426.301	9.04
426.506	9.1
426.712	8.85
426.917	8.8
427.123	8.74
427.328	8.92
427.533	9.19
427.739	9.15
427.944	9.13
428.15	8.92
428.355	8.83
428.561	8.69
428.766	8.57
428.971	8.8
429.177	9.01
429.382	9.08
429.587	8.95
429.793	8.9
429.998	8.9
430.203	8.95
430.408	8.94
430.614	8.91
430.819	8.89
431.024	8.97
431.229	8.92
431.434	8.75
431.64	8.54
431.845	8.54
432.05	8.37
432.255	8.25
432.46	8.38
432.665	8.35
432.87	8.47
433.076	8.56
433.281	8.45
433.486	8.47
433.691	8.46
433.896	8.46
434.101	8.5
434.306	8.51
434.511	8.46
434.716	8.41
434.921	8.35
435.126	8.33
435.331	8.39
435.535	8.27
435.74	8.16
435.945	8.06
436.15	8.15
436.355	8.1
436.56	8.3
436.765	8.44
436.97	8.35
437.174	8.56
437.379	8.62
437.584	8.43
437.789	8.6
437.993	8.82
438.198	8.88
438.403	8.83
438.608	8.86
438.812	8.76
439.017	8.69
439.222	8.85
439.426	8.77
439.631	8.78
439.836	8.75
440.04	8.81
440.245	8.7
440.45	8.72
440.654	8.61
440.859	8.58
441.063	8.5
441.268	8.5
441.472	8.45
441.677	8.37
441.881	8.43
442.086	8.41
442.29	8.42
442.495	8.47
442.699	8.52
442.904	8.65
443.108	8.59
443.312	8.65
443.517	8.76
443.721	8.84
443.925	8.77
444.13	8.53
444.334	8.69
444.538	8.69
444.743	8.57
444.947	8.38
445.151	8.26
445.356	8.22
445.56	8.22
445.764	8.06
445.968	7.89
446.173	8
446.377	7.97
446.581	7.94
446.785	7.88
446.989	7.92
447.193	8.15
447.398	8.19
447.602	8.21
447.806	8.14
448.01	8.13
448.214	8.25
448.418	8.14
448.622	8.18
448.826	8.07
449.03	7.95
449.234	7.95
449.438	7.72
449.642	7.66
449.846	7.78
450.05	7.9
450.254	8.02
450.458	7.87
450.662	8.12
450.866	8.16
451.069	8.32
451.273	8.36
451.477	8.26
451.681	8.13
451.885	8.19
452.089	8.07
452.292	8.16
452.496	8.1
452.7	8.18
452.904	7.97
453.107	7.9
453.311	7.82
453.515	7.78
453.719	7.85
453.922	8.08
454.126	7.86
454.33	8.01
454.533	7.88
454.737	7.84
454.94	7.89
455.144	8.16
455.348	8.35
455.551	8.36
455.755	8.62
455.958	8.51
456.162	8.43
456.365	8.57
456.569	8.51
456.772	8.31
456.976	8.42
457.179	8.26
457.383	8.03
457.586	8
457.79	7.9
457.993	7.79
458.196	7.93
458.4	7.89
458.603	7.84
458.807	7.77
459.01	7.91
459.213	7.88
459.417	7.85
459.62	7.87
459.823	7.79
460.026	7.79
460.23	7.78
460.433	7.68
460.636	7.56
460.839	7.64
461.042	7.7
461.246	7.67
461.449	7.67
461.652	7.65
461.855	7.63
462.058	7.7
462.261	7.73
462.464	7.61
462.668	7.64
462.871	7.93
463.074	7.86
463.277	7.88
463.48	7.88
463.683	7.81
463.886	7.94
464.089	8.13
464.292	7.98
464.495	7.95
464.698	8.12
464.901	8.15
465.104	8.21
465.306	8.39
465.509	8.24
465.712	8.24
465.915	8.15
466.118	8.2
466.321	7.99
466.524	8.04
466.726	8.16
466.929	8.08
467.132	7.98
467.335	7.86
467.538	7.75
467.74	7.64
467.943	7.65
468.146	7.66
468.348	7.72
468.551	7.66
468.754	7.61
468.956	7.58
469.159	7.55
469.362	7.64
469.564	7.51
469.767	7.6
469.969	7.92
470.172	7.84
470.375	7.9
470.577	7.85
470.78	7.95
470.982	8.05
471.185	8.02
471.387	8.24
471.59	8.32
471.792	8.55
471.995	8.33
472.197	8.21
472.399	8.35
472.602	8.43
472.804	8.28
473.007	8.24
473.209	8.14
473.411	8.11
473.614	8.03
473.816	7.95
474.018	7.74
474.22	7.96
474.423	7.97
474.625	7.94
474.827	7.9
475.03	8.05
475.232	8.05
475.434	8.14
475.636	8.27
475.838	8.18
476.04	8.19
476.243	8.11
476.445	7.95
476.647	7.99
476.849	7.93
477.051	7.82
477.253	7.87
477.455	7.89
477.657	7.75
477.859	7.75
478.061	7.76
478.263	7.78
478.465	7.85
478.667	7.93
478.869	7.86
479.071	7.95
479.273	7.99
479.475	7.87
479.677	7.78
479.879	7.88
480.081	7.77
480.283	7.76
480.485	7.91
480.686	7.97
480.888	8
481.09	8
481.292	7.95
481.494	7.91
481.695	7.8
481.897	7.82
482.099	7.83
482.301	7.77
482.502	7.8
482.704	7.67
482.906	7.64
483.107	7.59
483.309	7.52
483.511	7.5
483.712	7.52
483.914	7.59
484.115	7.55
484.317	7.53
484.519	7.54
484.72	7.49
484.922	7.46
485.123	7.46
485.325	7.46
485.526	7.47
485.728	7.41
485.929	7.42
486.131	7.33
486.332	7.36
486.534	7.37
486.735	7.36
486.936	7.37
487.138	7.44
487.339	7.47
487.541	7.46
487.742	7.54
487.943	7.64
488.144	7.54
488.346	7.57
488.547	7.55
488.748	7.5
488.95	7.55
489.151	7.56
489.352	7.51
489.553	7.45
489.755	7.51
489.956	7.44
490.157	7.42
490.358	7.55
490.559	7.55
490.76	7.63
490.961	7.73
491.163	7.75
491.364	7.76
491.565	7.78
491.766	7.82
491.967	7.81
492.168	7.86
492.369	7.78
492.57	7.72
492.771	7.72
492.972	7.69
493.173	7.7
493.374	7.65
493.575	7.61
493.776	7.6
493.976	7.67
494.177	7.7
494.378	7.65
494.579	7.82
494.78	8.03
494.981	8.23
495.182	8.21
495.382	8.21
495.583	8.24
495.784	8.23
495.985	8.29
496.185	8.11
496.386	8.08
496.587	8.09
496.788	8.13
496.988	8.02
497.189	7.96
497.39	7.97
497.59	7.93
497.791	8
497.992	8.16
498.192	8.15
498.393	8.31
498.593	8.38
498.794	8.38
498.994	8.31
499.195	8.23
499.395	8.29
499.596	8.5
499.796	8.52
499.997	8.5
500.197	8.45
500.398	8.4
500.598	8.35
500.799	8.31
500.999	8.48
501.199	8.57
501.4	8.7
501.6	8.8
501.801	8.76
502.001	8.84
502.201	8.99
502.402	8.94
502.602	9.01
502.802	9.04
503.002	9.14
503.203	9
503.403	8.87
503.603	8.89
503.803	8.74
504.003	8.66
504.204	8.54
504.404	8.51
504.604	8.5
504.804	8.6
505.004	8.59
505.204	8.68
505.404	8.68
505.604	8.79
505.804	8.83
506.005	8.97
506.205	9.11
506.405	9.35
506.605	9.35
506.805	9.41
507.005	9.26
507.204	9.38
507.404	9.32
507.604	9.42
507.804	9.3
508.004	9.31
508.204	9.31
508.404	9.19
508.604	9.13
508.804	9.26
509.003	9.27
509.203	9.43
509.403	9.46
509.603	9.49
509.803	9.5
510.002	9.62
510.202	9.73
510.402	9.61
510.602	9.57
510.801	9.66
511.001	9.58
511.201	9.52
511.4	9.44
511.6	9.35
511.8	9.32
511.999	9.31
512.199	9.36
512.398	9.36
512.598	9.47
512.797	9.79
512.997	9.68
513.197	9.69
513.396	9.86
513.596	9.95
513.795	9.93
513.994	9.94
514.194	9.98
514.393	10.08
514.593	10.13
514.792	10.13
514.992	9.99
515.191	10.1
515.39	10.18
515.59	10.32
515.789	10.42
515.988	10.64
516.188	10.75
516.387	10.87
516.586	10.94
516.786	10.98
516.985	11.07
517.184	11.03
517.383	11.17
517.582	11.26
517.782	11.2
517.981	11.26
518.18	11.27
518.379	11.36
518.578	11.27
518.777	11.21
518.976	11.2
519.176	11.23
519.375	11.37
519.574	11.33
519.773	11.32
519.972	11.22
520.171	11.29
520.37	11.28
520.569	11.31
520.768	11.56
520.967	11.79
521.166	11.86
521.365	11.87
521.564	11.89
521.762	11.87
521.961	11.94
522.16	12.26
522.359	12.21
522.558	12.32
522.757	12.39
522.956	12.4
523.154	12.47
523.353	12.66
523.552	12.7
523.751	12.85
523.949	12.98
524.148	13.01
524.347	13.03
524.546	13.08
524.744	12.99
524.943	12.97
525.142	13
525.34	12.91
525.539	12.86
525.737	12.99
525.936	12.99
526.135	13.02
526.333	13.05
526.532	13.11
526.73	13.15
526.929	13.3
527.127	13.39
527.326	13.42
527.524	13.39
527.723	13.39
527.921	13.27
528.12	13.29
528.318	13.24
528.516	13.26
528.715	13.27
528.913	13.31
529.112	13.38
529.31	13.35
529.508	13.32
529.707	13.39
529.905	13.46
530.103	13.62
530.301	13.72
530.5	13.89
530.698	13.96
530.896	14.05
531.094	14.11
531.293	14.19
531.491	14.32
531.689	14.48
531.887	14.52
532.085	14.62
532.283	14.68
532.481	14.66
532.68	14.68
532.878	14.75
533.076	14.78
533.274	14.82
533.472	14.8
533.67	14.8
533.868	14.82
534.066	14.92
534.264	14.94
534.462	14.97
534.66	15.03
534.858	15
535.056	15.13
535.253	15.09
535.451	15.11
535.649	15.21
535.847	15.35
536.045	15.47
536.243	15.56
536.441	15.65
536.638	15.72
536.836	15.77
537.034	15.86
537.232	15.75
537.43	15.87
537.627	15.95
537.825	15.99
538.023	15.99
538.22	16.01
538.418	16.05
538.616	16.1
538.813	16.23
539.011	16.33
539.209	16.47
539.406	16.78
539.604	16.82
539.801	16.92
539.999	17.19
540.196	17.26
540.394	17.32
540.591	17.28
540.789	17.26
540.986	17.31
541.184	17.33
541.381	17.3
541.579	17.28
541.776	17.28
541.974	17.32
542.171	17.23
542.368	17.27
542.566	17.36
542.763	17.46
542.96	17.53
543.158	17.52
543.355	17.65
543.552	17.85
543.75	17.93
543.947	18.13
544.144	18.37
544.341	18.54
544.539	18.67
544.736	18.76
544.933	18.85
545.13	18.99
545.327	19.06
545.524	19.15
545.722	19.15
545.919	19.19
546.116	19.24
546.313	19.19
546.51	19.17
546.707	19.12
546.904	19.23
547.101	19.35
547.298	19.47
547.495	19.68
547.692	19.57
547.889	19.81
548.086	19.96
548.283	20.07
548.48	20.21
548.677	20.31
548.874	20.71
549.07	20.83
549.267	20.83
549.464	20.98
549.661	21.02
549.858	21.39
550.055	21.42
550.251	21.46
550.448	21.42
550.645	21.63
550.842	21.8
551.038	21.75
551.235	21.89
551.432	22.03
551.628	21.96
551.825	22.14
552.022	22.15
552.218	22.22
552.415	22.45
552.612	22.58
552.808	22.59
553.005	22.64
553.201	22.52
553.398	22.52
553.594	22.65
553.791	22.97
553.987	22.96
554.184	23
554.38	23.1
554.577	23.11
554.773	23.33
554.97	23.58
555.166	23.85
555.362	24.19
555.559	24.21
555.755	24.33
555.952	24.28
556.148	24.52
556.344	24.66
556.541	24.72
556.737	24.67
556.933	24.68
557.129	24.58
557.326	24.73
557.522	24.96
557.718	25.36
557.914	25.48
558.11	25.55
558.307	25.49
558.503	25.82
558.699	26.1
558.895	26.24
559.091	26.61
559.287	26.58
559.483	26.56
559.679	26.69
559.876	26.71
560.072	26.77
560.268	27
560.464	27.33
560.66	27.47
560.856	27.67
561.052	28.01
561.247	28.01
561.443	28.13
561.639	28.25
561.835	28.3
562.031	28.22
562.227	28.49
562.423	28.51
562.619	28.57
562.815	28.59
563.01	28.43
563.206	28.44
563.402	28.48
563.598	28.73
563.793	28.73
563.989	28.7
564.185	28.83
564.381	28.82
564.576	28.9
564.772	28.94
564.968	29.03
565.163	29.14
565.359	29.21
565.555	29.27
565.75	29.13
565.946	29.28
566.141	29.27
566.337	29.26
566.532	29.19
566.728	29.15
566.923	29.16
567.119	29.08
567.314	29.13
567.51	29.27
567.705	29.46
567.901	29.56
568.096	29.78
568.292	29.87
568.487	29.88
568.682	30.14
568.878	30.34
569.073	30.46
569.268	30.58
569.464	30.74
569.659	30.75
569.854	30.68
570.05	30.85
570.245	30.91
570.44	30.88
570.635	31.08
570.831	31.13
571.026	31.16
571.221	31.23
571.416	31.34
571.611	31.42
571.806	31.53
572.002	31.71
572.197	31.78
572.392	31.63
572.587	31.91
572.782	32.05
572.977	32.11
573.172	32.32
573.367	32.42
573.562	32.55
573.757	32.65
573.952	32.66
574.147	32.62
574.342	32.81
574.537	32.99
574.732	32.98
574.927	33.05
575.121	33.16
575.316	33.14
575.511	33.27
575.706	33.28
575.901	33.23
576.096	33.29
576.29	33.47
576.485	33.35
576.68	33.46
576.875	33.57
577.069	33.58
577.264	33.72
577.459	33.94
577.654	34.2
577.848	34.3
578.043	34.44
578.238	34.64
578.432	34.84
578.627	35.2
578.821	35.45
579.016	35.79
579.21	35.82
579.405	35.8
579.6	35.9
579.794	35.88
579.989	35.98
580.183	36.18
580.378	36.14
580.572	36.24
580.766	36.26
580.961	36.28
581.155	36.02
581.35	36.44
581.544	36.61
581.738	36.73
581.933	36.59
582.127	36.68
582.321	36.68
582.516	36.84
582.71	36.66
582.904	36.75
583.099	36.77
583.293	37.03
583.487	36.98
583.681	37.05
583.875	36.9
584.07	37.16
584.264	37.28
584.458	37.25
584.652	37.52
584.846	37.79
585.04	37.87
585.234	37.92
585.428	37.98
585.623	38.08
585.817	38.12
586.011	38.32
586.205	38.34
586.399	38.36
586.593	38.4
586.787	38.29
586.981	38.11
587.174	37.91
587.368	37.72
587.562	37.49
587.756	37.6
587.95	37.77
588.144	37.63
588.338	37.48
588.532	37.29
588.725	37.35
588.919	37.28
589.113	37.38
589.307	37.47
589.501	37.65
589.694	38.08
589.888	37.87
590.082	37.58
590.275	37.6
590.469	37.79
590.663	37.96
590.856	38.06
591.05	38.23
591.244	38.22
591.437	38.34
591.631	38.38
591.824	38.25
592.018	38.46
592.212	38.52
592.405	38.44
592.599	38.35
592.792	38.36
592.986	38.59
593.179	38.64
593.372	38.78
593.566	38.98
593.759	38.95
593.953	38.72
594.146	38.86
594.339	39.07
594.533	39.29
594.726	39.33
594.92	39.42
595.113	39.29
595.306	39.37
595.499	39.3
595.693	39.09
595.886	39.03
596.079	39.02
596.272	38.86
596.466	38.73
596.659	38.69
596.852	38.71
597.045	38.63
597.238	38.34
597.431	38.34
597.624	38.4
597.818	38.56
598.011	38.78
598.204	38.93
598.397	38.94
598.59	39.01
598.783	39.11
598.976	39.24
599.169	39.54
599.362	40.15
599.555	40.42
599.748	40.6
599.941	40.72
600.134	40.9
600.326	41.27
600.519	41.53
600.712	41.73
600.905	41.79
601.098	41.93
601.291	41.92
601.483	41.37
601.676	41.04
601.869	41.14
602.062	40.96
602.255	40.71
602.447	40.56
602.64	40.33
602.833	40.13
603.025	40.13
603.218	40.02
603.411	40.05
603.603	40.12
603.796	40.08
603.989	39.91
604.181	39.9
604.374	40.01
604.566	39.98
604.759	39.99
604.951	39.94
605.144	39.95
605.336	39.99
605.529	39.93
605.721	40.08
605.914	40.09
606.106	40.23
606.299	40.59
606.491	40.54
606.683	40.83
606.876	41.19
607.068	41.56
607.26	41.64
607.453	41.8
607.645	41.84
607.837	42.07
608.03	42.11
608.222	42.26
608.414	41.82
608.606	42.01
608.799	41.8
608.991	41.46
609.183	41.36
609.375	41.4
609.567	41.32
609.759	41.57
609.952	41.52
610.144	41.37
610.336	41.37
610.528	41.54
610.72	41.37
610.912	41.39
611.104	41.49
611.296	41.62
611.488	41.73
611.68	41.67
611.872	41.59
612.064	41.7
612.256	41.99
612.448	41.91
612.64	42.13
612.832	42.32
613.023	42.52
613.215	42.58
613.407	42.89
613.599	42.8
613.791	42.95
613.983	42.79
614.174	43.02
614.366	43.33
614.558	43.42
614.75	43.48
614.941	43.73
615.133	43.62
615.325	43.63
615.516	43.28
615.708	43.41
615.9	43.48
616.091	43.73
616.283	43.51
616.475	43.46
616.666	43.34
616.858	43.33
617.049	42.95
617.241	43.11
617.432	43.38
617.624	43.6
617.815	43.71
618.007	43.76
618.198	43.65
618.39	43.85
618.581	43.96
618.773	44.07
618.964	43.95
619.155	44.11
619.347	43.91
619.538	43.88
619.729	43.63
619.921	44
620.112	44.27
620.303	44.27
620.494	44.2
620.686	44.19
620.877	44.1
621.068	44
621.259	44.32
621.451	44.52
621.642	44.48
621.833	44.87
622.024	44.58
622.215	44.4
622.406	44.41
622.597	44.38
622.788	44.38
622.98	44.7
623.171	45.08
623.362	44.84
623.553	44.94
623.744	45.11
623.935	44.71
624.126	44.86
624.317	44.86
624.508	44.94
624.698	44.88
624.889	44.5
625.08	44.29
625.271	44.33
625.462	44.43
625.653	44.18
625.844	44.05
626.034	44.13
626.225	44.08
626.416	43.78
626.607	43.88
626.798	44.07
626.988	44.52
627.179	44.79
627.37	44.59
627.56	44.37
627.751	44.4
627.942	44.31
628.132	44.5
628.323	44.32
628.514	44.66
628.704	44.5
628.895	44.42
629.085	44.37
629.276	44.12
629.466	44.26
629.657	44.52
629.847	44.54
630.038	44.87
630.228	44.9
630.419	45.11
630.609	45.06
630.8	45.25
630.99	45.28
631.181	45.18
631.371	45.25
631.561	45.44
631.752	45.66
631.942	45.8
632.132	45.78
632.323	45.78
632.513	45.64
632.703	45.68
632.893	45.57
633.084	45.42
633.274	45.33
633.464	45.27
633.654	45.04
633.844	44.9
634.034	45.07
634.225	44.98
634.415	44.94
634.605	45.08
634.795	45.11
634.985	45.13
635.175	45.42
635.365	45.66
635.555	45.85
635.745	46
635.935	46.16
636.125	45.75
636.315	45.73
636.505	46.01
636.695	45.9
636.885	45.79
637.075	45.61
637.265	45.58
637.455	45.88
637.644	46.01
637.834	45.93
638.024	45.76
638.214	46.31
638.404	46.26
638.593	46.13
638.783	46.36
638.973	46.92
639.163	47.33
639.352	47.47
639.542	47.25
639.732	47.22
639.921	47.21
640.111	47.36
640.301	47.36
640.49	47.55
640.68	47.67
640.87	47.62
641.059	47.39
641.249	47.35
641.438	46.94
641.628	46.74
641.817	46.73
642.007	47.08
642.196	46.89
642.386	47
642.575	46.85
642.764	46.7
642.954	46.81
643.143	46.96
643.333	46.98
643.522	46.94
643.711	46.85
643.901	47.2
644.09	47.36
644.279	47.58
644.469	47.47
644.658	47.66
644.847	47.86
645.036	47.74
645.226	47.47
645.415	47.4
645.604	47.62
645.793	47.83
645.982	47.6
646.171	47.12
646.361	46.46
646.55	46.66
646.739	47.07
646.928	46.95
647.117	47.14
647.306	47.34
647.495	47.16
647.684	47.65
647.873	47.52
648.062	47.43
648.251	47.76
648.44	48.19
648.629	47.97
648.818	47.37
649.007	47.23
649.196	47.24
649.384	47.25
649.573	47.4
649.762	46.79
649.951	46.97
650.14	46.6
650.328	46.28
650.517	46.42
650.706	46.55
650.895	46.6
651.083	46.78
651.272	46.31
651.461	46.04
651.65	46.52
651.838	46.35
652.027	46.56
652.216	46.72
652.404	46.73
652.593	46.63
652.781	46.52
652.97	46.76
653.158	46.52
653.347	46.85
653.535	47.19
653.724	46.83
653.912	47.47
654.101	47.51
654.289	47.88
654.478	47.78
654.666	47.68
654.855	47.53
655.043	47.53
655.231	47.94
655.42	48.13
655.608	48.2
655.796	48.26
655.985	48.21
656.173	48.08
656.361	47.85
656.55	47.77
656.738	48.04
656.926	48.61
657.114	48.6
657.302	48.8
657.491	48.85
657.679	48.46
657.867	48.29
658.055	48.25
658.243	47.76
658.431	47.81
658.619	47.94
658.807	47.89
658.996	47.49
659.184	47.29
659.372	46.88
659.56	46.56
659.748	46.68
659.936	46.89
660.124	46.91
660.311	47.23
660.499	47.18
660.687	47.44
660.875	47.53
661.063	47.35
661.251	47.29
661.439	47.53
661.627	47.85
661.814	47.82
662.002	47.78
662.19	47.72
662.378	47.99
662.565	48.19
662.753	48
662.941	48.2
663.129	48.82
663.316	49.08
663.504	49.07
663.692	48.91
663.879	49.26
664.067	49.54
664.254	49.38
664.442	49.31
664.63	49.6
664.817	49.48
665.005	49.6
665.192	49.69
665.38	49.99
665.567	49.94
665.755	50.19
665.942	49.82
666.13	49.62
666.317	49.87
666.504	49.93
666.692	49.68
666.879	50.11
667.067	49.98
667.254	49.59
667.441	49.42
667.629	49.21
667.816	48.9
668.003	48.99
668.19	49.03
668.378	48.97
668.565	48.76
668.752	48.97
668.939	48.58
669.127	48.42
669.314	48.8
669.501	48.95
669.688	48.99
669.875	49.16
670.062	49.16
670.249	48.94
670.436	49.04
670.623	48.99
670.81	48.62
670.997	48.67
671.184	48.28
671.371	48.04
671.558	47.74
671.745	47.79
671.932	47.98
672.119	48.12
672.306	48.44
672.493	48.52
672.68	48.76
672.867	48.79
673.054	48.9
673.24	49.2
673.427	49.13
673.614	49.42
673.801	49.68
673.988	49.8
674.174	49.91
674.361	50.1
674.548	49.68
674.734	49.63
674.921	50.13
675.108	50.06
675.294	50.69
675.481	50.73
675.668	50.82
675.854	51.03
676.041	50.96
676.227	50.8
676.414	50.57
676.601	50.8
676.787	51.41
676.974	50.97
677.16	51.21
677.347	50.94
677.533	50.93
677.719	50.78
677.906	50.5
678.092	50.01
678.279	50.18
678.465	50.08
678.651	49.78
678.838	49.16
679.024	49
679.21	48.93
679.397	48.78
679.583	48.57
679.769	48.77
679.955	48.56
680.142	48.49
680.328	48.32
680.514	48.42
680.7	48.55
680.886	48.73
681.073	48.86
681.259	48.8
681.445	48.38
681.631	48.64
681.817	48.22
682.003	48.36
682.189	48.6
682.375	48.6
682.561	48.34
682.747	48.51
682.933	48.34
683.119	48.06
683.305	47.65
683.491	48.48
683.677	48.97
683.863	49.13
684.049	48.94
684.235	49.3
684.42	49.2
684.606	49.59
684.792	49.59
684.978	49.99
685.164	50.38
685.349	50.7
685.535	50.6
685.721	49.78
685.907	49.41
686.092	49.64
686.278	49.39
686.464	49.61
686.649	49.44
686.835	49.58
687.021	49.26
687.206	49.22
687.392	49.41
687.577	49.07
687.763	49.34
687.948	49.55
688.134	49.73
688.319	49.73
688.505	49.49
688.69	49.84
688.876	49.95
689.061	49.78
689.247	50.37
689.432	50.34
689.618	50.64
689.803	50.25
689.988	50.67
690.174	50.64
690.359	50.8
690.544	50.95
690.73	50.68
690.915	50.45
691.1	50.82
691.285	50.16
691.471	50.54
691.656	50.8
691.841	51.16
692.026	51.35
692.211	51.4
692.396	51.57
692.582	51.76
692.767	52.15
692.952	52.24
693.137	52.12
693.322	52.26
693.507	52.31
693.692	51.77
693.877	52.01
694.062	51.56
694.247	51.71
694.432	51.45
694.617	51.44
694.802	51.4
694.987	52.07
695.172	52.13
695.357	52.57
695.541	52.65
695.726	52.68
695.911	52.95
696.096	53.05
696.281	52.46
696.466	53.05
696.65	53.06
696.835	52.32
697.02	51.59
697.204	51.18
697.389	50.85
697.574	50.17
697.759	49.89
697.943	49.63
698.128	49.47
698.312	49.43
698.497	48.89
698.682	48.87
698.866	49.05
699.051	48.98
699.235	49.06
699.42	49.17
699.604	49.68
699.789	50.21
699.973	50.03
700.158	49.98
700.342	50.57
700.527	50.92
700.711	51.1
700.895	51.17
701.08	51.44
701.264	51.67
701.448	51.82
701.633	51.58
701.817	51.92
702.001	52.43
702.186	53.32
702.37	52.9
702.554	53.04
702.738	53.46
702.923	54.44
703.107	54.92
703.291	55.75
703.475	55.67
703.659	56.57
703.843	56.47
704.027	56.8
704.212	57.3
704.396	58.19
704.58	58.52
704.764	58.29
704.948	58.4
705.132	58.5
705.316	58.62
705.5	59.15
705.684	59.71
705.868	59.42
706.052	59.29
706.235	59.09
706.419	58.46
706.603	58.66
706.787	59.12
706.971	58.77
707.155	58.53
707.339	58.01
707.522	56.93
707.706	55.75
707.89	56.09
708.074	56.16
708.257	55.47
708.441	55.9
708.625	55.25
708.808	54.92
708.992	55.14
709.176	55.07
709.359	55.15
709.543	55.86
709.727	56.35
709.91	56.55
710.094	56.73
710.277	57.23
710.461	57.19
710.644	57.79
710.828	57.62
711.011	57.3
711.195	57.32
711.378	57.39
711.562	57.89
711.745	57.93
711.928	57.64
712.112	57.73
712.295	57.68
712.478	58.11
712.662	57.42
712.845	57.19
713.028	57.45
713.212	57.65
713.395	57.76
713.578	57.44
713.761	57.52
713.945	57.58
714.128	57.32
714.311	57.43
714.494	56.91
714.677	57.6
714.86	57.63
715.043	57.42
715.227	57.06
715.41	56.96
715.593	56.55
715.776	55.96
715.959	55.42
716.142	55.31
716.325	55.12
716.508	55.12
716.691	54.92
716.874	54.88
717.057	55.06
717.239	55.45
717.422	55.33
717.605	55.38
717.788	55.57
717.971	55.91
718.154	55.25
718.337	55.3
718.519	54.96
718.702	54.52
718.885	55.12
719.068	54.66
719.25	53.96
719.433	54.62
719.616	54.79
719.798	54.26
719.981	54.76
720.164	55.3
720.346	55.94
720.529	56.36
720.712	56.34
720.894	56.01
721.077	57.37
721.259	57.77
721.442	57.73
721.624	57.93
721.807	58.68
721.989	58.52
722.172	59.06
722.354	58.58
722.537	59.28
722.719	60.03
722.901	60.29
723.084	59.66
723.266	60.33
723.448	60.18
723.631	60.92
723.813	61
723.995	60.49
724.178	60.55
724.36	59.78
724.542	59.2
724.724	59.78
724.907	60.44
725.089	59.87
725.271	59.59
725.453	59.37
725.635	58.63
725.817	59.2
725.999	59.4
726.181	59.1
726.364	59.37
726.546	59.53
726.728	59.02
726.91	58.19
727.092	58.69
727.274	58.2
727.456	58.35
727.638	58.66
727.819	58.16
728.001	57.65
728.183	57.46
728.365	58.1
728.547	57.91
728.729	57.64
728.911	57.95
729.093	57.49
729.274	57.52
729.456	57.46
729.638	57.15
729.82	57.55
730.001	58.54
730.183	58.99
730.365	59.05
730.546	59.03
730.728	59.63
730.91	59.54
731.091	59.8
731.273	60.94
731.455	61.12
731.636	61.79
731.818	61.24
731.999	61.18
732.181	61.09
732.362	60.66
732.544	60.71
732.725	60.23
732.907	60.8
733.088	60.87
733.27	59.96
733.451	59.81
733.633	59.54
733.814	59.74
733.995	59.51
734.177	59.65
734.358	59.84
734.539	59.96
734.721	60.39
734.902	60.72
735.083	61.48
735.264	62.32
735.446	63.09
735.627	63.43
735.808	64.53
735.989	65.12
736.17	66.34
736.351	67.13
736.533	67.72
736.714	68.12
736.895	67.71
737.076	66.48
737.257	66.53
737.438	66.39
737.619	66.03
737.8	65.3
737.981	65.24
738.162	64.36
738.343	63.96
738.524	63.73
738.705	63.93
738.886	64.22
739.067	65.5
739.247	65.4
739.428	64.54
739.609	64.47
739.79	64.21
739.971	64.52
740.151	64.58
740.332	64.92
740.513	65.44
740.694	65.29
740.874	65.19
741.055	65.95
741.236	66.13
741.417	66.65
741.597	67.25
741.778	68.22
741.958	67.79
742.139	68.61
742.32	68.59
742.5	69.25
742.681	68.93
742.861	69.6
743.042	68.44
743.222	68.38
743.403	68.67
743.583	69.5
743.764	69.5
743.944	70.2
744.124	69.83
744.305	70.17
744.485	69.85
744.666	70.56
744.846	69.52
745.026	69.85
745.207	70.99
745.387	71.25
745.567	71.08
745.747	71.02
745.928	71.42
746.108	71.14
746.288	71.03
746.468	70.16
746.648	70.1
746.829	70.75
747.009	70.9
747.189	71.22
747.369	71.04
747.549	70.97
747.729	71
747.909	69.94
748.089	70.45
748.269	70.37
748.449	70.77
748.629	70.02
748.809	69.47
748.989	69.59
749.169	67.53
749.349	67.37
749.529	66.95
749.709	67.1
749.889	68.11
750.068	68.45
750.248	68.69
750.428	69.6
750.608	69.28
750.788	69.95
750.967	69.96
751.147	71.74
751.327	72.39
751.507	72.48
751.686	72.12
751.866	71.91
752.046	71.36
752.225	70.97
752.405	71.45
752.585	72.04
752.764	72.53
752.944	73.37
753.123	72.36
753.303	72.56
753.482	72.4
753.662	72.94
753.841	72.54
754.021	72.74
754.2	73.67
754.38	72.78
754.559	73.18
754.739	71.8
754.918	70.63
755.097	70.58
755.277	70.7
755.456	70.6
755.635	69.75
755.815	70.49
755.994	70.24
756.173	69.89
756.352	70.26
756.532	70.28
756.711	71.08
756.89	72.13
757.069	73.19
757.248	72.37
757.427	72.68
757.607	72.73
757.786	71.41
757.965	70.8
758.144	69.84
758.323	68.12
758.502	67.54
758.681	65.84
758.86	64.35
759.039	62.6
759.218	60.83
759.397	59.33
759.576	58.78
759.755	58.33
759.934	57.66
760.113	57.52
760.291	56.67
760.47	55.56
760.649	56.35
760.828	54.93
761.007	54.95
761.186	55.6
761.364	56.17
761.543	56.05
761.722	55.22
761.901	55.68
762.079	54.84
762.258	55.51
762.437	54.69
762.615	53.88
762.794	54.08
762.972	53.16
763.151	53.66
763.33	53.24
763.508	52.47
763.687	53.63
763.865	52.99
764.044	53.67
764.222	54.18
764.401	55.43
764.579	55.49
764.758	55.57
764.936	57.06
765.114	57.4
765.293	57.52
765.471	58.92
765.65	59.1
765.828	60.86
766.006	60.54
766.184	60.03
766.363	60.39
766.541	61.33
766.719	62.14
766.898	62
767.076	61.91
767.254	63.97
767.432	63.5
767.61	64.41
767.788	64.37
767.967	66.22
768.145	67.12
768.323	67.49
768.501	68.21
768.679	68.56
768.857	69.71
769.035	70.09
769.213	69.4
769.391	70.76
769.569	71.48
769.747	71.08
769.925	71.44
770.103	72.52
770.281	71.92
770.459	72.02
770.636	72.96
770.814	71.49
770.992	73.41
771.17	73.34
771.348	74.19
771.525	73.83
771.703	74.44
771.881	74.2
772.059	73.52
772.236	74.5
772.414	74.24
772.592	74.47
772.769	76.86
772.947	76.32
773.125	77.13
773.302	76.23
773.48	77.12
773.657	77.48
773.835	78.08
774.013	78.36
774.19	78.59
774.368	79.63
774.545	79.25
774.723	79.47
774.9	79.21
775.077	79.13
775.255	78.19
775.432	77.9
775.61	78.93
775.787	78.03
775.964	80.11
776.142	80.59
776.319	80.16
776.496	80.11
776.674	78.81
776.851	79.01
777.028	79.22
777.205	80.76
777.382	78.53
777.56	77.25
777.737	77.74
777.914	76.37
778.091	77.58
778.268	77.14
778.445	77.55
778.622	77.27
778.8	76.04
778.977	75.37
779.154	73.7
779.331	74.66
779.508	73.82
779.685	73.5
779.862	73.69
780.038	72.09
780.215	73.69
780.392	74.14
780.569	75.19
780.746	75.94
780.923	76.95
781.1	79.07
781.277	79.69
781.453	79.77
781.63	79.64
781.807	79.75
781.984	78.9
782.16	77.62
782.337	78.11
782.514	76.56
782.691	76.58
782.867	75.85
783.044	75.7
783.221	77.28
783.397	77.35
783.574	75.15
783.75	74.91
783.927	76.33
784.103	76.7
784.28	76.32
784.456	76.2
784.633	76.53
784.809	75.5
784.986	73.75
785.162	72.12
785.339	73.01
785.515	75.09
785.692	75.44
785.868	75.96
786.044	75.56
786.221	75.62
786.397	76.62
786.573	76.53
786.749	78.62
786.926	78.26
787.102	77.89
787.278	76.12
787.454	75.37
787.631	74.64
787.807	72.31
787.983	71.03
788.159	71.44
788.335	70.78
788.511	70.02
788.687	67.42
788.863	67.71
789.039	67.38
789.216	68.47
789.392	69.38
789.568	70.62
789.744	72.32
789.919	73.6
790.095	74.1
790.271	74.42
790.447	73.26
790.623	73.16
790.799	73.13
790.975	74.24
791.151	74.29
791.327	72.43
791.502	70.97
791.678	70.38
791.854	70.19
792.03	68.35
792.205	68.1
792.381	69.49
792.557	71.76
792.733	73.69
792.908	72.9
793.084	71.58
793.259	72.3
793.435	73.06
793.611	74.47
793.786	74.82
793.962	75.99
794.137	76.58
794.313	75.8
794.488	74.56
794.664	73.94
794.839	73.65
795.015	74.29
795.19	74.37
795.366	73.88
795.541	71.88
795.716	70.51
795.892	71.63
796.067	71.41
796.242	71.66
796.418	73.08
796.593	72.29
796.768	71.35
796.944	72.41
797.119	72.64
797.294	70.82
797.469	70.45
797.644	71.14
797.82	69.19
797.995	70.94
798.17	70.38
798.345	68.87
798.52	69.76
798.695	71.3
798.87	69.31
799.045	70.04
799.22	70.42
799.395	70.7
799.57	70.47
799.745	68.93
799.92	65.84
800.095	66.01
800.27	65.83
800.445	64.54
800.62	63.84
800.795	64.89
800.97	63.75
801.145	64.4
801.319	64.71
801.494	65.25
801.669	66
801.844	67.85
802.018	66.91
802.193	65.29
802.368	66.59
802.543	64.46
802.717	65.68
802.892	65.62
803.067	66.02
803.241	66.67
803.416	66.7
803.59	67.71
803.765	66.34
803.94	68.91
804.114	70.54
804.289	70.64
804.463	70.3
804.638	69.65
804.812	70.41
804.986	69.6
805.161	68.21
805.335	68.61
805.51	68.03
805.684	68.23
805.858	67.41
806.033	67.29
806.207	66.44
806.381	67.27
806.556	66.14
806.73	68.28
806.904	70.19
807.078	70.69
807.253	69.43
807.427	69.94
807.601	69.79
807.775	68.3
807.949	68.04
808.123	66.52
808.298	69.47
808.472	70.04
808.646	67.16
808.82	66.34
808.994	67.15
809.168	68.49
809.342	70.65
809.516	67.58
809.69	68
809.864	69.26
810.038	70.14
810.212	68.89
810.385	68.93
810.559	70.48
810.733	69.43
810.907	67.07
811.081	64.2
811.255	62.27
811.428	65
811.602	66.26
811.776	64.05
811.95	64.51
812.123	64.68
812.297	62.9
812.471	60.89
812.644	60.33
812.818	61.69
812.992	63.13
813.165	62.43
813.339	59.2
813.512	59.65
813.686	63.12
813.86	63.28
814.033	66.07
814.207	69.12
814.38	71.91
814.554	72.26
814.727	70.44
814.9	68.5
815.074	67.67
815.247	69.72
815.421	67.83
815.594	65.58
815.767	64.51
815.941	61.28
816.114	58.11
816.287	56.68
816.46	55.27
816.634	56.17
816.807	57.69
816.98	57.01
817.153	60
817.327	60.64
817.5	59.94
817.673	60.18
817.846	59.52
818.019	60.92
818.192	61.26
818.365	58.57
818.538	59.32
818.711	59.82
818.884	61.99
819.057	60.97
819.23	62.69
819.403	62.38
819.576	62.32
819.749	62.34
819.922	60.63
820.095	59.02
820.268	61.64
820.441	60.47
820.614	58.58
820.786	57.15
820.959	55.3
821.132	51.83
821.305	51.85
821.477	50.91
821.65	50.46
821.823	50.79
821.996	50.32
822.168	50.36
822.341	49.11
822.514	48.3
822.686	47.82
822.859	47.34
823.031	47.65
823.204	47.69
823.376	47.37
823.549	46.77
823.722	46.43
823.894	46.66
824.067	46.2
824.239	47.03
824.411	48.04
824.584	48.07
824.756	48.59
824.929	48.21
825.101	48.26
825.273	48.08
825.446	48.71
825.618	49.05
825.79	48.56
825.963	48.54
826.135	47.57
826.307	46.21
826.479	47.11
826.652	47.63
826.824	47.67
826.996	47.13
827.168	48.02
827.34	48.21
827.512	47.9
827.684	48.22
827.856	48.85
828.029	49
828.201	49.89
828.373	49.65
828.545	48.93
828.717	50.03
828.889	50.18
829.061	50.11
829.232	49.06
829.404	48.72
829.576	49.93
829.748	49.7
829.92	51.07
830.092	52.1
830.264	52.02
830.436	51.59
830.607	50.29
830.779	50.7
830.951	52.12
831.123	52.85
831.294	55.23
831.466	53.93
831.638	54.51
831.809	52.74
831.981	52.52
832.153	51.5
832.324	52.44
832.496	53.55
832.667	55.83
832.839	54.45
833.011	54.32
833.182	55.18
833.354	54.8
833.525	54.58
833.697	56.21
833.868	55.53
834.039	54.73
834.211	53.59
834.382	52.41
834.554	51.39
834.725	50.67
834.896	50.61
835.068	50.38
835.239	51.91
835.41	52.65
835.581	53.36
835.753	53.09
835.924	55.25
836.095	56.83
836.266	58.06
836.438	57.12
836.609	60.01
836.78	60.52
836.951	57.81
837.122	57.86
837.293	57.66
837.464	56.84
837.635	57.56
837.806	57.64
837.977	58.14
838.148	59.57
838.319	62.74
838.49	60.47
838.661	62.27
838.832	66.13
839.003	63.99
839.174	63.86
839.345	64.06
839.516	64.08
839.687	64.02
839.857	61.96
840.028	63.3
840.199	60.15
840.37	61.94
840.54	62.33
840.711	62.34
840.882	65.46
841.053	63.92
841.223	60.39
841.394	61.84
841.564	63.29
841.735	64.97
841.906	64.59
842.076	64.94
842.247	64.93
842.417	68.44
842.588	74.34
842.758	76.21
842.929	79.77
843.099	87
843.27	88.51
843.44	84.8
843.611	87.65
843.781	89.66
843.951	95.05
844.122	94.82
844.292	93.53
844.462	84.09
844.633	78.79
844.803	79.65
844.973	75.96
845.144	78.04
845.314	84.07
845.484	83.59
845.654	82.91
845.824	80.14
845.995	86.27
846.165	86.68
846.335	92.02
846.505	95.3
846.675	94.04
846.845	95.46
847.015	96.19
847.185	91.79
847.355	87.37
847.525	87.77
847.695	85.63
847.865	83.88
848.035	82.83
848.205	77.6
848.375	73.3
848.545	68.02
848.715	71.15
848.884	66.66
849.054	73.18
849.224	77.86
849.394	80.02
849.564	85.03
849.733	81.25
849.903	83.07
850.073	85.24
850.243	87.43
850.412	92.57
850.582	87.55
850.752	86.67
850.921	79.24
851.091	76.8
851.26	72.28
851.43	66.19
851.599	71.91
851.769	74.09
851.939	73.61
852.108	77.88
852.278	78.74
852.447	77.81
852.616	78.53
852.786	80.11
852.955	79.26
853.125	77.99
853.294	77.04
853.463	76.09
853.633	77.25
853.802	77.51
853.971	71.9
854.141	71.98
854.31	73.69
854.479	73.39
854.648	80.47
854.818	83.94
854.987	84.57
855.156	83.01
855.325	71.95
855.494	63.46
855.663	75.3
855.832	71.73
856.001	68.05
856.171	73.22
856.34	70.18
856.509	62.04
856.678	63.63
856.847	66.07
857.016	65.68
857.185	71.22
857.353	73.09
857.522	62.94
857.691	71.25
857.86	71.45
858.029	66.27
858.198	70.36
858.367	70.81
858.535	68.28
858.704	66.59
858.873	76.93
859.042	77.06
859.21	77.54
859.379	76.3
859.548	77.76
859.717	80.93
859.885	83.79
860.054	77.41
860.222	80.06
860.391	83.71
860.56	84.11
860.728	73
860.897	75.76
861.065	75.31
861.234	75.29
861.402	73.41
861.571	72.3
861.739	63
861.908	74.41
862.076	75.57
862.244	71.84
862.413	75.86
862.581	80.86
862.749	80.84
862.918	85.35
863.086	89.05
863.254	87.12
863.423	90.58
863.591	102.79
863.759	100.77
863.927	102.07
864.096	103.74
864.264	100.38
864.432	96.41
864.6	98.66
864.768	90.76
864.936	79.51
865.104	79.91
865.272	84.29
865.44	81.63
865.608	84.05
865.776	79.13
865.944	81.83
866.112	83.6
866.28	82.85
866.448	75.52
866.616	80.06
866.784	90.65
866.952	94.35
867.12	89.67
867.288	88.44
867.455	88.07
867.623	92.36
867.791	88.02
867.959	94.46
868.127	91.97
868.294	93.01
868.462	87.37
868.63	87.17
868.797	86.67
868.965	86.48
869.133	86.93
869.3	84.75
869.468	77.93
869.636	74.15
869.803	74.08
869.971	77.1
870.138	81.04
870.306	86.57
870.473	83.65
870.641	77.24
870.808	82.69
870.975	86.72
871.143	83.93
871.31	90.08
871.478	94.29
871.645	93.91
871.812	100.9
871.98	95.74
872.147	89.41
872.314	88.85
872.482	94.07
872.649	85.65
872.816	82.12
872.983	87.38
873.15	84.89
873.318	82.43
873.485	75.52
873.652	72.18
873.819	70.57
873.986	78.62
874.153	74.03
874.32	70.69
874.487	76.7
874.654	79.03
874.821	73.67
874.988	71.16
875.155	76.62
875.322	88.52
875.489	83.72
875.656	84.86
875.823	82.49
875.99	88.42
876.157	90.67
876.324	80.78
876.49	77.95
876.657	79.4
876.824	72.81
876.991	66.86
877.157	65.31
877.324	61.61
877.491	64.37
877.658	61.32
877.824	63.67
877.991	67.25
878.157	68.93
878.324	72.05
878.491	77.86
878.657	88.62
878.824	88.77
878.99	90.61
879.157	100.93
879.323	105.01
879.49	99.43
879.656	96.67
879.823	91.89
879.989	86.09
880.156	79.55
880.322	73.6
880.488	70.1
880.655	65.68
880.821	59.98
880.987	58.26
881.154	52.65
881.32	56.79
881.486	45.08
881.652	47.38
881.819	49.38
881.985	47.98
882.151	46.44
882.317	45.44
882.483	46.32
882.649	46.31
882.816	44.74
882.982	45.07
883.148	44.78
883.314	46.49
883.48	44.9
883.646	44.42
883.812	44.26
883.978	44.41
884.144	45.99
884.31	45.11
884.476	45.73
884.642	47.2
884.807	46.22
884.973	47.54
885.139	47.8
885.305	49.79
885.471	50.03
885.637	51.41
885.802	53.61
885.968	53.54
886.134	54.65
886.3	52.78
886.465	51.91
886.631	53.47
886.797	52.44
886.962	54.89
887.128	54.94
887.293	56.95
887.459	56.6
887.625	56.83
887.79	58.98
887.956	63.16
888.121	68
888.287	70.56
888.452	74.91
888.618	77.24
888.783	77.91
