Data from LC_240_Reflection_1.txt Node
Date: Thu Nov 19 22:26:30 EST 2015
User: robert
Spectrometer: USB4E03001
Autoset integration time: false
Trigger mode: 4
Integration Time (sec): 1.000000E-1
Scans to average: 15
Electric dark correction enabled: true
Nonlinearity correction enabled: false
Boxcar width: 5
Stray light correction enabled: false
XAxis mode: Wavelengths
Stop averaging: false
Number of Pixels in Spectrum: 3648
>>>>>Begin Spectral Data<<<<<
177.566	-89.62
177.785	-4.88
178.005	25.2
178.225	-24.63
178.445	18.96
178.665	-1.45
178.885	63.61
179.105	895.83
179.324	308.98
179.544	137.28
179.764	125.4
179.984	67.37
180.204	23.52
180.423	3.71
180.643	100.6
180.863	32.48
181.083	90.09
181.302	96.54
181.522	67.45
181.742	102.83
181.961	118.54
182.181	148.95
182.401	274.2
182.621	323.43
182.84	592.91
183.06	430.83
183.279	444.5
183.499	257.94
183.719	661.3
183.938	1862.63
184.158	-913.16
184.377	-1045.07
184.597	684.49
184.816	-2030.19
185.036	77.26
185.256	148.33
185.475	104.8
185.695	124.91
185.914	129.29
186.134	64.96
186.353	126.83
186.572	78.63
186.792	194.77
187.011	-681.53
187.231	-483.99
187.45	-630.65
187.67	-19.59
187.889	-4.25
188.108	24.4
188.328	10.8
188.547	-144.63
188.766	-158.54
188.986	-190.78
189.205	1995.1
189.424	150.28
189.644	136.45
189.863	91.98
190.082	75.33
190.302	94.1
190.521	102.59
190.74	90.6
190.959	102.83
191.178	105.63
191.398	121.91
191.617	85.32
191.836	151.31
192.055	46.25
192.274	126.1
192.494	111.04
192.713	79.55
192.932	73.74
193.151	107.02
193.37	144.7
193.589	169.5
193.808	150.29
194.027	171.27
194.246	143.95
194.465	167.41
194.685	154.53
194.904	151.69
195.123	147.23
195.342	192.42
195.561	151.5
195.78	95.36
195.999	87.06
196.218	84.01
196.436	72.13
196.655	62.31
196.874	71.09
197.093	104.02
197.312	135.36
197.531	191.17
197.75	270.74
197.969	248.81
198.188	-827.26
198.407	-184.65
198.625	-258.27
198.844	-160.21
199.063	-1544.3
199.282	-131.51
199.501	-133.07
199.719	-163.46
199.938	33.79
200.157	105.93
200.376	96.06
200.594	-431.25
200.813	90.51
201.032	416.69
201.251	288.1
201.469	-44.42
201.688	34.68
201.907	36.75
202.125	263.84
202.344	157.93
202.563	214.67
202.781	167.23
203	132.59
203.218	121.06
203.437	114.55
203.656	160.97
203.874	328.46
204.093	513.61
204.311	203.32
204.53	155.21
204.748	138.85
204.967	145.13
205.185	179.27
205.404	224.7
205.622	303.04
205.841	223.46
206.059	286.07
206.278	296.15
206.496	386.33
206.715	416.2
206.933	405.93
207.151	294.73
207.37	381.43
207.588	361.86
207.806	276.33
208.025	213.49
208.243	194.09
208.461	270.71
208.68	39.86
208.898	13.38
209.116	-21.22
209.335	78.54
209.553	331
209.771	-857.98
209.989	99.53
210.208	202.69
210.426	65.1
210.644	134.62
210.862	109.65
211.081	175.97
211.299	158.41
211.517	185.85
211.735	131
211.953	88.19
212.171	88.52
212.39	99.16
212.608	98.28
212.826	103.68
213.044	144.32
213.262	141.2
213.48	106.55
213.698	127.69
213.916	183.65
214.134	170.37
214.352	339.94
214.57	500.16
214.788	914.76
215.006	786.76
215.224	607.7
215.442	1072.62
215.66	394.25
215.878	853.54
216.096	763.14
216.314	491.55
216.532	546.57
216.75	784.23
216.968	-36.85
217.185	-58.88
217.403	414.93
217.621	519.28
217.839	-72.3
218.057	-36.75
218.275	11.16
218.492	23.09
218.71	39.59
218.928	6.07
219.146	-28.49
219.363	8.84
219.581	1
219.799	3.19
220.017	23.94
220.234	42.21
220.452	42.45
220.67	27.36
220.887	5.35
221.105	21.46
221.323	51.26
221.54	59.26
221.758	46.33
221.976	32.59
222.193	37.17
222.411	21.87
222.629	24.7
222.846	16.57
223.064	19.78
223.281	25.27
223.499	24.48
223.716	10.56
223.934	-2.56
224.151	5.79
224.369	18.27
224.586	18.39
224.804	30.93
225.021	28.68
225.239	40.92
225.456	32.03
225.674	16.87
225.891	11.59
226.108	14.85
226.326	15.24
226.543	19.58
226.76	15.81
226.978	12.15
227.195	9.94
227.413	7.75
227.63	-6.62
227.847	0.96
228.064	7.67
228.282	8.41
228.499	8.96
228.716	10.93
228.934	8.71
229.151	10.34
229.368	9.11
229.585	9.66
229.802	9.54
230.02	12.07
230.237	11.88
230.454	10.22
230.671	9.63
230.888	11.29
231.105	8.84
231.323	11.52
231.54	9.24
231.757	9.29
231.974	9.48
232.191	10.72
232.408	11.73
232.625	11.84
232.842	16.34
233.059	18.17
233.276	21.29
233.493	25.84
233.71	25.99
233.927	27.64
234.144	29.94
234.361	28.14
234.578	28.05
234.795	27.77
235.012	31.18
235.229	31.49
235.446	34.71
235.663	31.67
235.879	31.58
236.096	32.64
236.313	31.08
236.53	31.01
236.747	31.83
236.964	36.09
237.181	37.65
237.397	37.26
237.614	34.84
237.831	38.03
238.048	38.26
238.264	31.67
238.481	27.36
238.698	30.84
238.915	34.25
239.131	28.63
239.348	26.15
239.565	27.03
239.781	24.48
239.998	25.07
240.215	20.8
240.431	16.58
240.648	18.74
240.865	19.51
241.081	17.61
241.298	15.46
241.514	17.64
241.731	16.27
241.947	14.49
242.164	14.36
242.38	14.1
242.597	13.65
242.814	14.55
243.03	14.7
243.246	15.77
243.463	15.98
243.679	14.37
243.896	15.38
244.112	15.79
244.329	15.57
244.545	16.22
244.762	15.15
244.978	15.31
245.194	15.87
245.411	16.08
245.627	14.32
245.843	13.98
246.06	15.74
246.276	13.69
246.492	13.28
246.709	13.42
246.925	12.99
247.141	12.6
247.357	12.66
247.574	12.5
247.79	11.86
248.006	12.14
248.222	11.56
248.439	11.2
248.655	12.06
248.871	12.68
249.087	13.12
249.303	12.77
249.519	13.18
249.736	13.24
249.952	14.55
250.168	15.4
250.384	14.41
250.6	15.98
250.816	16.27
251.032	14.09
251.248	13.38
251.464	11.57
251.68	11.6
251.896	12.54
252.112	13.43
252.328	12.17
252.544	11.36
252.76	11.79
252.976	11.69
253.192	10.59
253.408	12.03
253.624	13.22
253.84	13.51
254.056	11.84
254.272	11.33
254.487	10.01
254.703	10.5
254.919	11.48
255.135	10.85
255.351	11.29
255.567	14.52
255.782	15.35
255.998	15.56
256.214	16.26
256.43	19.76
256.646	20.1
256.861	21.16
257.077	19.45
257.293	20.7
257.508	21.59
257.724	19.27
257.94	18.23
258.155	18.33
258.371	15.3
258.587	14.2
258.802	13.22
259.018	12.75
259.234	11.74
259.449	12.11
259.665	10.63
259.88	10.1
260.096	10.5
260.312	9.93
260.527	9.1
260.743	9.58
260.958	10.13
261.174	10.22
261.389	10.55
261.605	11.07
261.82	10.3
262.036	10.81
262.251	11.6
262.466	11.55
262.682	10.79
262.897	11.22
263.113	11.73
263.328	11.95
263.543	13.39
263.759	12.65
263.974	12.23
264.189	13.05
264.405	13.17
264.62	14.3
264.835	13.88
265.051	14.55
265.266	13.81
265.481	13.5
265.696	13.31
265.912	11.59
266.127	12.49
266.342	11.3
266.557	12.07
266.773	13.47
266.988	11.85
267.203	11.69
267.418	12.48
267.633	12.49
267.848	10.97
268.064	10.4
268.279	9.89
268.494	9.04
268.709	9.46
268.924	8.55
269.139	7.93
269.354	7.06
269.569	6.2
269.784	5.39
269.999	4.46
270.214	6.23
270.429	6.8
270.644	7.95
270.859	7.45
271.074	7.06
271.289	7.4
271.504	6.79
271.719	7.43
271.934	9.09
272.149	9.27
272.363	10.19
272.578	10.59
272.793	10.37
273.008	9.91
273.223	10.25
273.438	11.33
273.653	10.88
273.867	10.94
274.082	10.61
274.297	9.2
274.512	9.2
274.726	9.47
274.941	8.2
275.156	6.94
275.371	6.96
275.585	7.41
275.8	6.5
276.015	7.19
276.229	7.97
276.444	8.83
276.659	8.97
276.873	8.49
277.088	7.84
277.302	7.92
277.517	9.54
277.732	9.41
277.946	8.54
278.161	8.47
278.375	9.51
278.59	9.37
278.804	9.84
279.019	10.32
279.233	10.56
279.448	11.04
279.662	12.49
279.877	11.78
280.091	12.41
280.306	12.72
280.52	12.47
280.735	12.19
280.949	12.01
281.163	12.57
281.378	12.54
281.592	13.68
281.806	14.32
282.021	13.97
282.235	13.54
282.449	13.15
282.664	13.49
282.878	14.21
283.092	13.9
283.307	14
283.521	13.63
283.735	14.59
283.949	14.61
284.164	13.9
284.378	13.06
284.592	13.7
284.806	14.24
285.02	14.13
285.234	14.95
285.449	14.92
285.663	14.69
285.877	13.92
286.091	14.26
286.305	13.57
286.519	13.9
286.733	13.55
286.947	13.62
287.161	12.37
287.375	12.51
287.589	10.51
287.803	10.52
288.017	10.67
288.231	11.38
288.445	10.7
288.659	10.84
288.873	9.72
289.087	10.3
289.301	10.79
289.515	11.14
289.729	10.71
289.943	11.89
290.157	12.15
290.371	12.33
290.584	11.15
290.798	10.55
291.012	10.79
291.226	10.81
291.44	11.62
291.654	10.39
291.867	11.06
292.081	11.23
292.295	10.5
292.509	9.46
292.722	8.57
292.936	8.34
293.15	7.17
293.364	8.01
293.577	9.37
293.791	8.13
294.005	8.82
294.218	8.66
294.432	8.59
294.645	8.65
294.859	8.01
295.073	8.44
295.286	9.09
295.5	10.35
295.713	9.21
295.927	8.43
296.14	8.93
296.354	8.64
296.568	8.99
296.781	8.79
296.994	9.64
297.208	9.82
297.421	10.12
297.635	10.87
297.848	10.78
298.062	11.63
298.275	11.8
298.489	11.57
298.702	12.12
298.915	12.44
299.129	12.84
299.342	12.35
299.555	12.77
299.769	11.53
299.982	11.28
300.195	11.49
300.409	11.56
300.622	11.57
300.835	11.91
301.048	11.56
301.262	10.29
301.475	9.04
301.688	9.09
301.901	9.15
302.115	10.39
302.328	10.47
302.541	9.13
302.754	7.72
302.967	7.93
303.18	7.7
303.393	7.8
303.607	8.28
303.82	8.84
304.033	9.69
304.246	9.23
304.459	8.59
304.672	8.35
304.885	10
305.098	9.8
305.311	9.58
305.524	10.1
305.737	9.31
305.95	9.13
306.163	9.66
306.376	7.97
306.589	8.47
306.802	7.98
307.015	7.45
307.228	6.96
307.44	7.67
307.653	7.64
307.866	6.94
308.079	8.27
308.292	8.73
308.505	8.15
308.718	8.02
308.93	7.58
309.143	7.69
309.356	8.07
309.569	7.99
309.781	8.2
309.994	7.44
310.207	7.4
310.42	8.16
310.632	8.03
310.845	8.47
311.058	9.43
311.27	9.59
311.483	9.42
311.696	9.11
311.908	9.66
312.121	9.08
312.333	9.58
312.546	9.36
312.759	9.02
312.971	8.94
313.184	9.06
313.396	8.94
313.609	9.47
313.821	10.41
314.034	10.72
314.246	9.26
314.459	9.8
314.671	10.31
314.884	10.49
315.096	9.31
315.309	9.66
315.521	9.55
315.733	9.49
315.946	9.4
316.158	9.67
316.371	9.25
316.583	9.62
316.795	9.51
317.008	9.73
317.22	9.16
317.432	9.43
317.644	9.39
317.857	8.45
318.069	8.1
318.281	7.53
318.494	7.88
318.706	7.59
318.918	6.84
319.13	6.77
319.342	5.54
319.555	5.9
319.767	5.28
319.979	4.95
320.191	5.33
320.403	5.96
320.615	6.32
320.827	5.45
321.039	4.69
321.252	5.45
321.464	5.57
321.676	6.23
321.888	6.84
322.1	7.88
322.312	7.44
322.524	8.84
322.736	7.48
322.948	7.64
323.16	8.22
323.372	8.36
323.584	8.99
323.796	9.2
324.007	9.69
324.219	9.52
324.431	8.74
324.643	8.75
324.855	8.25
325.067	9.14
325.279	8.81
325.491	8.83
325.702	9.47
325.914	8.55
326.126	9.43
326.338	8.97
326.55	8.63
326.761	8.3
326.973	8.39
327.185	7.64
327.396	7.35
327.608	7.44
327.82	7.12
328.032	7.28
328.243	8.36
328.455	7.45
328.666	8.03
328.878	8.28
329.09	9.39
329.301	10.15
329.513	11.07
329.725	10.7
329.936	11.64
330.148	12.16
330.359	12.86
330.571	12.09
330.782	11.37
330.994	11.26
331.205	11.09
331.417	11.14
331.628	10.55
331.84	10.08
332.051	10.84
332.262	10.75
332.474	10.41
332.685	9.72
332.897	11.2
333.108	11.55
333.319	10.65
333.531	10.87
333.742	10.14
333.953	10.37
334.165	10.89
334.376	11.29
334.587	11.03
334.799	10.26
335.01	10.12
335.221	9.1
335.432	9.84
335.644	10.33
335.855	10.05
336.066	10.62
336.277	10.2
336.488	9.53
336.7	8.45
336.911	7.96
337.122	9.1
337.333	10.07
337.544	10.35
337.755	9
337.966	8.31
338.177	9.12
338.388	8.74
338.599	8.93
338.811	9.8
339.022	9.67
339.233	10.06
339.444	10.05
339.655	9.17
339.866	8.84
340.076	9.14
340.287	9.69
340.498	9.49
340.709	10.28
340.92	9.85
341.131	9.23
341.342	9.83
341.553	10.24
341.764	9.47
341.975	9.47
342.185	9.39
342.396	9.98
342.607	10.15
342.818	9.6
343.029	9.32
343.239	9.4
343.45	8.94
343.661	8.61
343.872	7.86
344.082	8.05
344.293	8.38
344.504	8.21
344.714	8.15
344.925	8.53
345.136	8.7
345.346	8.84
345.557	9.6
345.768	9.93
345.978	10.48
346.189	10.29
346.399	10.19
346.61	9.66
346.821	9.9
347.031	10.21
347.242	9.83
347.452	9.94
347.663	8.98
347.873	8.93
348.084	9.53
348.294	9.18
348.504	9.39
348.715	10.23
348.925	10.44
349.136	10.04
349.346	10.13
349.557	9.89
349.767	10.23
349.977	10.84
350.188	10.29
350.398	10
350.608	10.37
350.819	10.37
351.029	9.6
351.239	9.9
351.449	10.26
351.66	9.96
351.87	10.21
352.08	10.27
352.29	10.88
352.501	10.67
352.711	10.56
352.921	10.52
353.131	10.24
353.341	9.45
353.552	9.88
353.762	9.33
353.972	9.29
354.182	9.22
354.392	9.32
354.602	8.59
354.812	8.95
355.022	8.61
355.232	8.86
355.442	9.28
355.652	9.77
355.862	9.04
356.072	9.47
356.282	9.8
356.492	9.66
356.702	8.72
356.912	8.8
357.122	8.73
357.332	9.24
357.542	8.25
357.752	7.77
357.962	8.27
358.171	8.53
358.381	8.63
358.591	7.8
358.801	7.85
359.011	8.25
359.221	8.21
359.43	8.19
359.64	7.65
359.85	7.85
360.06	8.46
360.269	8.12
360.479	7.95
360.689	7.79
360.899	7.71
361.108	7.74
361.318	7.73
361.528	8.05
361.737	8.11
361.947	7.91
362.156	8.57
362.366	8.61
362.576	8.4
362.785	8.34
362.995	8.02
363.204	8.5
363.414	8.44
363.623	8.3
363.833	7.84
364.042	7.44
364.252	7.66
364.461	6.94
364.671	6.42
364.88	6.92
365.09	6.99
365.299	7.51
365.509	7.26
365.718	7.39
365.927	7.49
366.137	7.47
366.346	7.95
366.555	7.65
366.765	8.25
366.974	8.43
367.183	8.12
367.393	7.86
367.602	8.01
367.811	8.7
368.021	8.58
368.23	7.58
368.439	7.7
368.648	7.45
368.857	8.4
369.067	7.83
369.276	8.23
369.485	8.31
369.694	8.42
369.903	8.12
370.112	6.98
370.321	6.77
370.531	8.12
370.74	7.52
370.949	7.33
371.158	6.56
371.367	6.58
371.576	5.68
371.785	5.84
371.994	6.29
372.203	6.37
372.412	6.94
372.621	6.99
372.83	6.69
373.039	6.94
373.248	7.06
373.457	7.4
373.666	7.88
373.874	8.6
374.083	8.16
374.292	7.56
374.501	7.44
374.71	7.22
374.919	7.17
375.128	7.47
375.336	7.19
375.545	6.94
375.754	6.98
375.963	6.48
376.171	5.91
376.38	5.92
376.589	5.65
376.798	5.28
377.006	5.32
377.215	5.73
377.424	5.25
377.632	6.14
377.841	6.3
378.05	6.32
378.258	6.2
378.467	6.38
378.675	6.58
378.884	7.28
379.093	7.37
379.301	7.55
379.51	7.41
379.718	7.64
379.927	6.89
380.135	7.18
380.344	7.16
380.552	7.23
380.761	6.82
380.969	6.99
381.177	6.54
381.386	6.49
381.594	6.41
381.803	6.18
382.011	5.99
382.219	6.67
382.428	6.52
382.636	6.14
382.845	6.26
383.053	6.56
383.261	6.05
383.469	6.31
383.678	6.49
383.886	6.33
384.094	6.64
384.302	6.71
384.511	6.04
384.719	6.01
384.927	6.09
385.135	6.12
385.343	6.18
385.552	6.52
385.76	6.25
385.968	6.25
386.176	6.04
386.384	5.76
386.592	5.63
386.8	5.75
387.008	5.33
387.216	5.08
387.424	4.95
387.633	4.95
387.841	4.53
388.049	4.55
388.257	4.65
388.465	5.12
388.672	5.01
388.88	4.9
389.088	4.86
389.296	5.23
389.504	5.51
389.712	5.73
389.92	5.62
390.128	6.01
390.336	6.06
390.544	6.06
390.751	5.72
390.959	5.47
391.167	5.75
391.375	5.77
391.583	5.48
391.79	5.36
391.998	5.53
392.206	5.6
392.414	5.52
392.621	5.55
392.829	5.33
393.037	5.67
393.244	5.86
393.452	5.64
393.66	5.55
393.867	5.82
394.075	6.07
394.283	5.48
394.49	5.54
394.698	5.54
394.905	5.5
395.113	5.75
395.32	5.59
395.528	5.74
395.735	6.01
395.943	6.14
396.15	5.64
396.358	5.4
396.565	5.75
396.773	5.48
396.98	5.45
397.188	5.63
397.395	5.34
397.602	4.92
397.81	4.95
398.017	4.61
398.225	4.63
398.432	5.09
398.639	5.21
398.847	5.11
399.054	5.2
399.261	5.2
399.468	4.95
399.676	4.94
399.883	5.14
400.09	4.79
400.297	5.35
400.505	5.23
400.712	5.34
400.919	5.54
401.126	5.73
401.333	6.03
401.54	6.03
401.748	6.34
401.955	6.56
402.162	6.84
402.369	7.21
402.576	6.89
402.783	7.1
402.99	6.91
403.197	6.74
403.404	6.62
403.611	6.46
403.818	6.52
404.025	6.34
404.232	6.19
404.439	5.94
404.646	5.77
404.853	5.76
405.06	5.51
405.267	5.71
405.474	5.46
405.681	5.37
405.887	5.54
406.094	5.56
406.301	5.51
406.508	5.63
406.715	5.51
406.922	5.29
407.128	4.95
407.335	4.97
407.542	4.89
407.749	4.97
407.955	5.13
408.162	5.08
408.369	4.95
408.575	5.18
408.782	4.97
408.989	5.17
409.195	5.3
409.402	5.64
409.609	5.6
409.815	5.33
410.022	5.52
410.228	5.46
410.435	5.44
410.642	5.49
410.848	5.08
411.055	5.03
411.261	5.04
411.468	5.12
411.674	5.09
411.881	5.33
412.087	5.3
412.294	5.2
412.5	4.98
412.706	4.69
412.913	4.53
413.119	4.83
413.326	4.87
413.532	4.84
413.738	4.8
413.945	4.7
414.151	4.81
414.357	5.22
414.564	5.27
414.77	5.42
414.976	5.5
415.182	5.48
415.389	5.55
415.595	5.44
415.801	5.44
416.007	5.54
416.214	5.56
416.42	5.38
416.626	5.17
416.832	5.25
417.038	5.29
417.244	5.26
417.45	5.37
417.657	5.43
417.863	5.7
418.069	5.85
418.275	5.82
418.481	5.72
418.687	5.55
418.893	5.62
419.099	5.63
419.305	5.64
419.511	5.51
419.717	5.45
419.923	5.33
420.129	5.15
420.335	5.04
420.541	5.04
420.746	5.01
420.952	5.08
421.158	4.89
421.364	4.75
421.57	4.62
421.776	4.82
421.982	4.82
422.187	4.72
422.393	4.68
422.599	4.65
422.805	4.56
423.01	4.55
423.216	4.42
423.422	4.47
423.628	4.46
423.833	4.39
424.039	4.26
424.245	4.21
424.45	4.38
424.656	4.54
424.862	4.49
425.067	4.38
425.273	4.49
425.478	4.57
425.684	4.72
425.889	4.89
426.095	5.01
426.301	5.02
426.506	5.11
426.712	5.06
426.917	5
427.123	5.16
427.328	5.24
427.533	5.32
427.739	5.48
427.944	5.42
428.15	5.29
428.355	5.22
428.561	5.22
428.766	5.24
428.971	5.22
429.177	5.2
429.382	5.16
429.587	5.31
429.793	5.07
429.998	4.9
430.203	4.6
430.408	4.57
430.614	4.73
430.819	4.68
431.024	4.45
431.229	4.14
431.434	4.07
431.64	4
431.845	4.04
432.05	4.13
432.255	4.15
432.46	4.33
432.665	4.44
432.87	4.32
433.076	4.34
433.281	4.5
433.486	4.77
433.691	4.75
433.896	4.63
434.101	4.57
434.306	4.53
434.511	4.49
434.716	4.55
434.921	4.38
435.126	4.58
435.331	4.69
435.535	4.51
435.74	4.34
435.945	4.54
436.15	4.57
436.355	4.63
436.56	4.64
436.765	4.84
436.97	4.72
437.174	4.83
437.379	4.69
437.584	4.55
437.789	4.68
437.993	4.6
438.198	4.36
438.403	4.39
438.608	4.38
438.812	4.32
439.017	4.21
439.222	4.2
439.426	4.11
439.631	4.1
439.836	4.26
440.04	4.39
440.245	4.53
440.45	4.52
440.654	4.62
440.859	4.65
441.063	4.81
441.268	4.81
441.472	4.89
441.677	4.88
441.881	4.79
442.086	4.6
442.29	4.38
442.495	4.4
442.699	4.51
442.904	4.5
443.108	4.45
443.312	4.25
443.517	4.21
443.721	4.17
443.925	4.31
444.13	4.49
444.334	4.62
444.538	4.76
444.743	4.66
444.947	4.55
445.151	4.49
445.356	4.55
445.56	4.63
445.764	4.59
445.968	4.59
446.173	4.49
446.377	4.42
446.581	4.41
446.785	4.38
446.989	4.36
447.193	4.29
447.398	4.14
447.602	4.16
447.806	4.08
448.01	4.05
448.214	4
448.418	3.99
448.622	3.96
448.826	4.07
449.03	4.1
449.234	3.99
449.438	4.11
449.642	4.28
449.846	4.07
450.05	4.24
450.254	4.3
450.458	4.31
450.662	4.28
450.866	4.16
451.069	4.06
451.273	4.01
451.477	4.21
451.681	4.19
451.885	4.18
452.089	4.29
452.292	4.24
452.496	4.34
452.7	4.17
452.904	4.07
453.107	4.14
453.311	4.2
453.515	4.19
453.719	4.3
453.922	4.41
454.126	4.29
454.33	4.23
454.533	4.05
454.737	3.88
454.94	3.86
455.144	4.08
455.348	4.1
455.551	4.05
455.755	3.96
455.958	3.85
456.162	3.74
456.365	3.93
456.569	3.89
456.772	4.17
456.976	4.3
457.179	4.58
457.383	4.51
457.586	4.64
457.79	4.56
457.993	4.46
458.196	4.26
458.4	4.27
458.603	4.16
458.807	4.27
459.01	4.13
459.213	4.11
459.417	4.08
459.62	4.07
459.823	3.98
460.026	3.94
460.23	4.05
460.433	4.13
460.636	4.15
460.839	4.21
461.042	4.19
461.246	4.18
461.449	4.21
461.652	4.1
461.855	4.14
462.058	4.13
462.261	4.3
462.464	4.28
462.668	4.22
462.871	4.4
463.074	4.26
463.277	4.09
463.48	4.31
463.683	4.27
463.886	4.45
464.089	4.47
464.292	4.54
464.495	4.61
464.698	4.41
464.901	4.49
465.104	4.41
465.306	4.53
465.509	4.71
465.712	4.55
465.915	4.48
466.118	4.28
466.321	4.2
466.524	4.07
466.726	3.86
466.929	4.05
467.132	4.05
467.335	3.89
467.538	3.8
467.74	3.7
467.943	3.62
468.146	3.64
468.348	3.8
468.551	3.87
468.754	3.93
468.956	4.03
469.159	3.91
469.362	4
469.564	4.01
469.767	4.15
469.969	4.18
470.172	4.41
470.375	4.3
470.577	4.24
470.78	4.32
470.982	4.35
471.185	4.3
471.387	4.32
471.59	4.21
471.792	4.2
471.995	4.05
472.197	4.13
472.399	3.97
472.602	4.16
472.804	3.96
473.007	4.02
473.209	3.87
473.411	3.93
473.614	4.03
473.816	4.18
474.018	4.37
474.22	4.39
474.423	4.24
474.625	4.21
474.827	4.18
475.03	4.29
475.232	4.12
475.434	4.26
475.636	4.25
475.838	4.31
476.04	4.1
476.243	3.81
476.445	3.84
476.647	3.86
476.849	3.87
477.051	3.86
477.253	3.93
477.455	3.96
477.657	3.97
477.859	3.85
478.061	3.74
478.263	3.79
478.465	3.86
478.667	3.77
478.869	3.91
479.071	3.8
479.273	3.64
479.475	3.67
479.677	3.71
479.879	3.73
480.081	3.82
480.283	3.96
480.485	3.99
480.686	4.03
480.888	4.04
481.09	4.04
481.292	4.07
481.494	4.15
481.695	4.25
481.897	4.21
482.099	4.07
482.301	4.07
482.502	4.02
482.704	3.98
482.906	4
483.107	4.03
483.309	3.97
483.511	3.98
483.712	3.95
483.914	3.92
484.115	3.91
484.317	3.96
484.519	3.96
484.72	3.94
484.922	3.94
485.123	4.01
485.325	4.01
485.526	3.98
485.728	4.03
485.929	4.08
486.131	4.04
486.332	4.07
486.534	4.06
486.735	4.03
486.936	4.07
487.138	4.08
487.339	3.93
487.541	3.98
487.742	3.99
487.943	3.96
488.144	3.93
488.346	3.96
488.547	4
488.748	4.04
488.95	4.05
489.151	4.07
489.352	4.06
489.553	4.23
489.755	4.17
489.956	4.25
490.157	4.24
490.358	4.27
490.559	4.27
490.76	4.21
490.961	4.25
491.163	4.22
491.364	4.14
491.565	4.14
491.766	4.08
491.967	4.14
492.168	4.1
492.369	4.16
492.57	4.16
492.771	4.14
492.972	4.05
493.173	4.06
493.374	4.16
493.575	4.19
493.776	4.21
493.976	4.16
494.177	4.06
494.378	4.24
494.579	4.18
494.78	4.18
494.981	4.24
495.182	4.33
495.382	4.15
495.583	4.06
495.784	4.05
495.985	4.23
496.185	4.18
496.386	4.26
496.587	4.24
496.788	4.25
496.988	4.34
497.189	4.29
497.39	4.39
497.59	4.56
497.791	4.58
497.992	4.59
498.192	4.58
498.393	4.64
498.593	4.73
498.794	4.67
498.994	4.59
499.195	4.41
499.395	4.41
499.596	4.39
499.796	4.24
499.997	4.08
500.197	4.16
500.398	4.07
500.598	4.12
500.799	4.06
500.999	4.06
501.199	4.31
501.4	4.43
501.6	4.42
501.801	4.29
502.001	4.35
502.201	4.42
502.402	4.41
502.602	4.38
502.802	4.28
503.002	4.42
503.203	4.42
503.403	4.32
503.603	4.34
503.803	4.49
504.003	4.6
504.204	4.66
504.404	4.7
504.604	4.66
504.804	4.73
505.004	4.88
505.204	4.79
505.404	4.74
505.604	4.68
505.804	4.79
506.005	4.73
506.205	4.76
506.405	4.76
506.605	4.89
506.805	4.97
507.005	4.86
507.204	4.79
507.404	4.83
507.604	4.85
507.804	4.93
508.004	5.01
508.204	5.08
508.404	4.98
508.604	5.11
508.804	5.03
509.003	5.1
509.203	5.14
509.403	5.01
509.603	4.81
509.803	4.83
510.002	4.77
510.202	4.45
510.402	4.4
510.602	4.51
510.801	4.43
511.001	4.42
511.201	4.37
511.4	4.29
511.6	4.55
511.8	4.82
511.999	4.91
512.199	5.09
512.398	5.29
512.598	5.25
512.797	5.29
512.997	5.29
513.197	5.42
513.396	5.5
513.596	5.56
513.795	5.47
513.994	5.42
514.194	5.59
514.393	5.46
514.593	5.55
514.792	5.59
514.992	5.45
515.191	5.54
515.39	5.47
515.59	5.55
515.789	5.71
515.988	5.72
516.188	5.67
516.387	5.49
516.586	5.65
516.786	5.62
516.985	5.68
517.184	5.74
517.383	5.63
517.582	5.57
517.782	5.51
517.981	5.48
518.18	5.45
518.379	5.49
518.578	5.52
518.777	5.46
518.976	5.47
519.176	5.53
519.375	5.61
519.574	5.71
519.773	5.85
519.972	5.95
520.171	5.97
520.37	6.08
520.569	6.12
520.768	6.18
520.967	6.22
521.166	6.36
521.365	6.45
521.564	6.36
521.762	6.36
521.961	6.34
522.16	6.24
522.359	6.28
522.558	6.42
522.757	6.39
522.956	6.43
523.154	6.37
523.353	6.36
523.552	6.26
523.751	6.29
523.949	6.33
524.148	6.39
524.347	6.5
524.546	6.57
524.744	6.57
524.943	6.72
525.142	6.7
525.34	6.81
525.539	6.76
525.737	6.84
525.936	7.02
526.135	7.1
526.333	7.07
526.532	7.04
526.73	7.03
526.929	7
527.127	6.95
527.326	6.99
527.524	7.02
527.723	7.02
527.921	7.03
528.12	6.99
528.318	6.99
528.516	6.93
528.715	7.01
528.913	7.03
529.112	7.05
529.31	7.04
529.508	7.04
529.707	7.01
529.905	7.08
530.103	7.14
530.301	7.14
530.5	7.13
530.698	7.24
530.896	7.21
531.094	7.25
531.293	7.32
531.491	7.42
531.689	7.51
531.887	7.57
532.085	7.56
532.283	7.48
532.481	7.58
532.68	7.66
532.878	7.72
533.076	7.77
533.274	7.74
533.472	7.68
533.67	7.7
533.868	7.67
534.066	7.67
534.264	7.73
534.462	7.84
534.66	7.89
534.858	7.87
535.056	7.93
535.253	7.9
535.451	7.99
535.649	8.22
535.847	8.31
536.045	8.4
536.243	8.58
536.441	8.71
536.638	8.73
536.836	8.76
537.034	8.88
537.232	8.87
537.43	9.02
537.627	9.09
537.825	9.01
538.023	8.95
538.22	9
538.418	8.91
538.616	8.81
538.813	8.79
539.011	8.88
539.209	8.98
539.406	9.02
539.604	9.07
539.801	9.14
539.999	9.09
540.196	9.16
540.394	9.15
540.591	9.15
540.789	9.19
540.986	9.18
541.184	9.13
541.381	9.09
541.579	9.1
541.776	9.1
541.974	9.06
542.171	9.07
542.368	9.11
542.566	9.16
542.763	9.21
542.96	9.2
543.158	9.24
543.355	9.32
543.552	9.36
543.75	9.47
543.947	9.54
544.144	9.52
544.341	9.67
544.539	9.69
544.736	9.71
544.933	9.69
545.13	9.83
545.327	9.89
545.524	9.94
545.722	9.9
545.919	9.85
546.116	9.82
546.313	9.98
546.51	9.98
546.707	10.05
546.904	10.1
547.101	10.27
547.298	10.27
547.495	10.28
547.692	10.25
547.889	10.44
548.086	10.58
548.283	10.69
548.48	10.7
548.677	10.81
548.874	10.87
549.07	10.96
549.267	10.92
549.464	11.19
549.661	11.2
549.858	11.39
550.055	11.34
550.251	11.33
550.448	11.37
550.645	11.66
550.842	11.67
551.038	11.68
551.235	11.69
551.432	11.73
551.628	11.62
551.825	11.74
552.022	11.73
552.218	11.76
552.415	11.87
552.612	11.92
552.808	11.85
553.005	11.95
553.201	12
553.398	12.01
553.594	11.96
553.791	12.09
553.987	12.2
554.184	12.23
554.38	12.24
554.577	12.19
554.773	12.36
554.97	12.44
555.166	12.55
555.362	12.52
555.559	12.62
555.755	12.65
555.952	12.71
556.148	12.65
556.344	12.74
556.541	12.7
556.737	12.57
556.933	12.46
557.129	12.23
557.326	12.06
557.522	12.14
557.718	12.25
557.914	12.67
558.11	12.55
558.307	12.74
558.503	12.74
558.699	12.91
558.895	13.05
559.091	13.02
559.287	13.29
559.483	13.39
559.679	13.58
559.876	13.65
560.072	13.46
560.268	13.66
560.464	13.64
560.66	13.77
560.856	13.86
561.052	13.99
561.247	14.15
561.443	14.09
561.639	14.08
561.835	14.26
562.031	14.22
562.227	14.23
562.423	14.2
562.619	14.21
562.815	14.18
563.01	14.3
563.206	14.42
563.402	14.5
563.598	14.75
563.793	15.01
563.989	15
564.185	14.98
564.381	15.24
564.576	15.3
564.772	15.52
564.968	15.62
565.163	15.67
565.359	15.7
565.555	15.74
565.75	15.7
565.946	15.81
566.141	15.68
566.337	15.73
566.532	15.78
566.728	15.87
566.923	15.9
567.119	15.95
567.314	16.07
567.51	15.95
567.705	16.01
567.901	15.94
568.096	15.98
568.292	15.98
568.487	16.05
568.682	15.98
568.878	16.08
569.073	16.1
569.268	16.27
569.464	16.33
569.659	16.47
569.854	16.59
570.05	16.85
570.245	16.81
570.44	16.89
570.635	17.07
570.831	17.29
571.026	17.25
571.221	17.24
571.416	17.09
571.611	17
571.806	17
572.002	17.05
572.197	17.01
572.392	17.1
572.587	17.25
572.782	17.21
572.977	17.1
573.172	17.06
573.367	17.14
573.562	17.31
573.757	17.42
573.952	17.6
574.147	17.44
574.342	17.56
574.537	17.6
574.732	17.69
574.927	17.57
575.121	17.59
575.316	17.85
575.511	17.8
575.706	17.84
575.901	17.82
576.096	17.98
576.29	18.25
576.485	18.17
576.68	18
576.875	17.91
577.069	18.14
577.264	18.23
577.459	18.19
577.654	18.46
577.848	18.41
578.043	18.7
578.238	18.7
578.432	18.45
578.627	18.71
578.821	19.01
579.016	18.99
579.21	19.11
579.405	19.16
579.6	19.17
579.794	19.08
579.989	19.08
580.183	18.74
580.378	18.71
580.572	18.87
580.766	18.77
580.961	18.51
581.155	18.71
581.35	18.64
581.544	18.85
581.738	18.95
581.933	19.07
582.127	19.28
582.321	19.35
582.516	19.64
582.71	19.8
582.904	19.78
583.099	20.03
583.293	20.09
583.487	20.09
583.681	20.22
583.875	20.18
584.07	20.23
584.264	20.16
584.458	20.25
584.652	20.1
584.846	20.03
585.04	20.29
585.234	20.53
585.428	20.47
585.623	20.68
585.817	20.56
586.011	20.65
586.205	20.7
586.399	21.03
586.593	21.01
586.787	20.92
586.981	21.2
587.174	21.17
587.368	20.98
587.562	21.14
587.756	21.16
587.95	21.18
588.144	21.11
588.338	21.03
588.532	21.02
588.725	21.06
588.919	21.05
589.113	20.94
589.307	20.83
589.501	20.9
589.694	20.9
589.888	21.06
590.082	21.11
590.275	21.24
590.469	21.01
590.663	21.02
590.856	21.09
591.05	21.16
591.244	21.42
591.437	21.59
591.631	21.81
591.824	21.91
592.018	21.62
592.212	21.75
592.405	21.71
592.599	22.12
592.792	22.22
592.986	22.33
593.179	22.37
593.372	22.4
593.566	22.33
593.759	22.1
593.953	22.06
594.146	22.12
594.339	22.11
594.533	22.12
594.726	22.15
594.92	22.04
595.113	22.13
595.306	22.26
595.499	22.11
595.693	22.43
595.886	22.61
596.079	22.57
596.272	22.78
596.466	22.83
596.659	22.92
596.852	22.94
597.045	22.91
597.238	22.84
597.431	22.91
597.624	23.11
597.818	23.13
598.011	23.09
598.204	23.23
598.397	23.26
598.59	23.3
598.783	23.35
598.976	23.26
599.169	23.52
599.362	23.61
599.555	23.47
599.748	23.39
599.941	23.16
600.134	23.4
600.326	23.43
600.519	23.41
600.712	23.08
600.905	22.99
601.098	23.37
601.291	23.37
601.483	23.52
601.676	23.84
601.869	23.81
602.062	23.78
602.255	23.73
602.447	23.5
602.64	23.58
602.833	23.9
603.025	24.09
603.218	23.85
603.411	23.71
603.603	23.76
603.796	23.6
603.989	23.47
604.181	23.52
604.374	23.67
604.566	24.1
604.759	23.91
604.951	23.91
605.144	23.95
605.336	24.02
605.529	24.05
605.721	23.88
605.914	23.98
606.106	24.12
606.299	24.3
606.491	24.13
606.683	23.9
606.876	24.24
607.068	24.15
607.26	24.01
607.453	24.1
607.645	24.18
607.837	24.46
608.03	24.48
608.222	24.7
608.414	24.52
608.606	24.62
608.799	24.72
608.991	24.88
609.183	25.25
609.375	25.5
609.567	25.53
609.759	25.47
609.952	25.56
610.144	25.66
610.336	25.61
610.528	25.83
610.72	25.98
610.912	26.14
611.104	25.96
611.296	25.7
611.488	25.63
611.68	25.54
611.872	25.71
612.064	25.61
612.256	25.43
612.448	25.42
612.64	25.48
612.832	25.52
613.023	25.33
613.215	25.37
613.407	25.55
613.599	25.47
613.791	25.55
613.983	25.67
614.174	25.67
614.366	25.89
614.558	25.55
614.75	25.42
614.941	25.44
615.133	25.7
615.325	25.79
615.516	26.04
615.708	26.17
615.9	26.15
616.091	26.07
616.283	26.12
616.475	26.15
616.666	26.74
616.858	26.97
617.049	27.05
617.241	26.91
617.432	26.78
617.624	26.85
617.815	26.86
618.007	26.97
618.198	26.86
618.39	26.79
618.581	27.04
618.773	26.96
618.964	26.55
619.155	26.47
619.347	26.46
619.538	26.7
619.729	26.58
619.921	26.7
620.112	26.68
620.303	26.89
620.494	26.8
620.686	26.54
620.877	26.53
621.068	26.73
621.259	26.64
621.451	26.75
621.642	26.49
621.833	26.31
622.024	26.15
622.215	26.14
622.406	26.2
622.597	26.3
622.788	26.27
622.98	25.97
623.171	26.27
623.362	26.41
623.553	26.39
623.744	26.74
623.935	27.01
624.126	27.37
624.317	27.33
624.508	27.41
624.698	27.88
624.889	27.96
625.08	28.54
625.271	28.37
625.462	28.37
625.653	28.5
625.844	28.56
626.034	28.52
626.225	28.29
626.416	28.42
626.607	28.62
626.798	28.46
626.988	28.51
627.179	28.27
627.37	28.32
627.56	28.28
627.751	28.34
627.942	28.39
628.132	28.25
628.323	28.24
628.514	28.43
628.704	28.27
628.895	28.08
629.085	28.19
629.276	28.18
629.466	28.54
629.657	28.6
629.847	28.51
630.038	28.58
630.228	28.78
630.419	28.86
630.609	28.8
630.8	28.84
630.99	29.41
631.181	29.39
631.371	29.58
631.561	29.36
631.752	29.58
631.942	29.65
632.132	29.25
632.323	29.22
632.513	29.34
632.703	29.36
632.893	29.32
633.084	29.13
633.274	29.01
633.464	29.16
633.654	29.29
633.844	29.08
634.034	29.17
634.225	29.38
634.415	29.51
634.605	29.42
634.795	29.56
634.985	29.41
635.175	29.25
635.365	29.36
635.555	29.43
635.745	29.37
635.935	29.56
636.125	29.45
636.315	29.77
636.505	29.63
636.695	29.75
636.885	29.83
637.075	29.99
637.265	30.33
637.455	30.45
637.644	30.35
637.834	30.28
638.024	30.35
638.214	30.47
638.404	30.5
638.593	30.7
638.783	30.86
638.973	30.73
639.163	30.82
639.352	30.62
639.542	30.54
639.732	30.69
639.921	30.76
640.111	30.78
640.301	30.74
640.49	30.55
640.68	30.18
640.87	30.34
641.059	30.53
641.249	30.85
641.438	31.24
641.628	31.26
641.817	30.99
642.007	30.94
642.196	30.99
642.386	31.15
642.575	31.28
642.764	32.07
642.954	31.91
643.143	31.99
643.333	31.75
643.522	31.59
643.711	31.69
643.901	31.65
644.09	31.83
644.279	31.57
644.469	31.52
644.658	31.7
644.847	31.39
645.036	31.44
645.226	31.62
645.415	31.09
645.604	31.06
645.793	31.28
645.982	31.27
646.171	31.16
646.361	31.62
646.55	31.76
646.739	31.65
646.928	32.02
647.117	32.03
647.306	31.84
647.495	32.3
647.684	32.21
647.873	32.15
648.062	32.69
648.251	32.89
648.44	32.3
648.629	32.02
648.818	32.23
649.007	31.84
649.196	32.08
649.384	31.86
649.573	31.95
649.762	32.29
649.951	32.64
650.14	32.48
650.328	32.16
650.517	32.37
650.706	32.76
650.895	32.9
651.083	32.8
651.272	32.01
651.461	32.2
651.65	32.26
651.838	32.11
652.027	31.76
652.216	31.52
652.404	31.94
652.593	32.16
652.781	32
652.97	31.64
653.158	31.83
653.347	32.57
653.535	32.6
653.724	32.78
653.912	32.76
654.101	32.89
654.289	33.29
654.478	33.53
654.666	33.6
654.855	33.66
655.043	33.72
655.231	33.62
655.42	33.62
655.608	33.99
655.796	33.85
655.985	34.33
656.173	34.56
656.361	34.54
656.55	34.06
656.738	34.15
656.926	34.05
657.114	34.01
657.302	33.75
657.491	33.51
657.679	33.21
657.867	33.33
658.055	33.34
658.243	33.29
658.431	33.5
658.619	33.71
658.807	33.48
658.996	33.91
659.184	33.87
659.372	34.1
659.56	34.2
659.748	34.43
659.936	34.52
660.124	34.6
660.311	34.6
660.499	34.17
660.687	34.15
660.875	34.34
661.063	34.04
661.251	34.1
661.439	34.1
661.627	34.27
661.814	33.91
662.002	33.89
662.19	33.63
662.378	33.58
662.565	33.64
662.753	33.51
662.941	33.69
663.129	33.76
663.316	33.7
663.504	33.85
663.692	33.8
663.879	34.18
664.067	34.4
664.254	34.52
664.442	34.86
664.63	35.06
664.817	35.31
665.005	35.35
665.192	35.6
665.38	35.78
665.567	36.3
665.755	36.35
665.942	36.42
666.13	36.56
666.317	36.15
666.504	35.82
666.692	35.78
666.879	36.01
667.067	36.12
667.254	36.33
667.441	36.38
667.629	36.05
667.816	36.32
668.003	35.75
668.19	35.97
668.378	36.42
668.565	36.68
668.752	36.95
668.939	36.68
669.127	36.42
669.314	36.2
669.501	35.85
669.688	36.02
669.875	35.78
670.062	36.11
670.249	35.68
670.436	35.62
670.623	35.53
670.81	35.5
670.997	35.78
671.184	35.66
671.371	35.73
671.558	36.01
671.745	35.97
671.932	35.92
672.119	35.77
672.306	35.89
672.493	35.9
672.68	36.14
672.867	36.35
673.054	36.35
673.24	36.75
673.427	36.75
673.614	37.44
673.801	37.45
673.988	37.58
674.174	37.96
674.361	37.92
674.548	37.86
674.734	37.57
674.921	37.71
675.108	37.69
675.294	37.46
675.481	37.91
675.668	37.21
675.854	37.19
676.041	37.48
676.227	37.59
676.414	37.85
676.601	37.95
676.787	37.83
676.974	37.89
677.16	37.96
677.347	38.27
677.533	37.7
677.719	38
677.906	37.86
678.092	37.61
678.279	37.47
678.465	36.9
678.651	36.62
678.838	36.8
679.024	36.45
679.21	36.16
679.397	36.14
679.583	36.68
679.769	36.81
679.955	37.27
680.142	37.52
680.328	37.89
680.514	37.96
680.7	37.97
680.886	37.93
681.073	38.03
681.259	38.29
681.445	38.12
681.631	37.79
681.817	37.94
682.003	37.73
682.189	37.72
682.375	37.29
682.561	37.43
682.747	37.66
682.933	37.64
683.119	37.73
683.305	37.68
683.491	37.55
683.677	37.7
683.863	37.44
684.049	37.68
684.235	37.69
684.42	37.57
684.606	37.99
684.792	38.25
684.978	38.85
685.164	39.01
685.349	39.37
685.535	39.77
685.721	39.51
685.907	39.42
686.092	39.01
686.278	38.93
686.464	39.59
686.649	39.29
686.835	38.73
687.021	38.61
687.206	38.62
687.392	38.56
687.577	38.65
687.763	38.79
687.948	39.08
688.134	39.26
688.319	39.53
688.505	39.18
688.69	39.13
688.876	39.62
689.061	39.44
689.247	39.05
689.432	38.78
689.618	38.69
689.803	38.94
689.988	39.29
690.174	39.37
690.359	39.07
690.544	39.41
690.73	39.46
690.915	39.31
691.1	39.25
691.285	39.58
691.471	40.12
691.656	40.72
691.841	40.29
692.026	39.74
692.211	39.07
692.396	38.96
692.582	38.17
692.767	38.18
692.952	38.01
693.137	38.37
693.322	38.53
693.507	38.11
693.692	37.5
693.877	38.14
694.062	38.07
694.247	38.65
694.432	38.97
694.617	39.62
694.802	39.58
694.987	40.15
695.172	40.13
695.357	40.03
695.541	39.99
695.726	40.55
695.911	40.39
696.096	40.88
696.281	40.8
696.466	40.74
696.65	40.97
696.835	41.44
697.02	41.54
697.204	41.52
697.389	41.39
697.574	41.44
697.759	40.87
697.943	40.86
698.128	40.41
698.312	40.33
698.497	40.21
698.682	40.15
698.866	40.09
699.051	39.9
699.235	39.83
699.42	39.78
699.604	39.82
699.789	40.13
699.973	40.19
700.158	40.56
700.342	40.98
700.527	41.43
700.711	41.51
700.895	41.4
701.08	41.62
701.264	41.88
701.448	42.44
701.633	42.56
701.817	42.8
702.001	42.28
702.186	42.46
702.37	42.48
702.554	42.23
702.738	42.17
702.923	42.18
703.107	42.06
703.291	41.99
703.475	42.21
703.659	42.85
703.843	42.84
704.027	43.79
704.212	43.85
704.396	44.28
704.58	43.85
704.764	43.72
704.948	43.36
705.132	43.96
705.316	43.57
705.5	43.19
705.684	42.58
705.868	42.42
706.052	42.41
706.235	42.22
706.419	41.48
706.603	42.1
706.787	41.79
706.971	42.07
707.155	41.67
707.339	41.99
707.522	41.89
707.706	41.45
707.89	41.43
708.074	41.46
708.257	41.46
708.441	41.76
708.625	41.54
708.808	41.8
708.992	42.35
709.176	41.8
709.359	41.86
709.543	42.16
709.727	42.61
709.91	42.42
710.094	42.28
710.277	42.35
710.461	41.88
710.644	41.67
710.828	41.46
711.011	41.6
711.195	42.14
711.378	42
711.562	42
711.745	41.77
711.928	41.79
712.112	41.25
712.295	41.51
712.478	41.46
712.662	42.27
712.845	42.58
713.028	42.17
713.212	41.87
713.395	42.26
713.578	42.01
713.761	42.23
713.945	42.16
714.128	42.6
714.311	42.66
714.494	43.01
714.677	42.5
714.86	42.68
715.043	42.72
715.227	43.2
715.41	43.21
715.593	42.91
715.776	43.44
715.959	43.81
716.142	44.12
716.325	43.89
716.508	43.74
716.691	44.48
716.874	44.58
717.057	44.56
717.239	44.49
717.422	44.35
717.605	45.1
717.788	44.59
717.971	44.92
718.154	45.34
718.337	45.35
718.519	45.13
718.702	44.85
718.885	44.83
719.068	45.58
719.25	46
719.433	46.4
719.616	45.65
719.798	45.69
719.981	45.5
720.164	44.42
720.346	44.32
720.529	45.39
720.712	44.9
720.894	45.13
721.077	44.2
721.259	44.15
721.442	43.46
721.624	43.65
721.807	43.58
721.989	43.16
722.172	43.4
722.354	43.87
722.537	43.33
722.719	43.71
722.901	44.47
723.084	44.76
723.266	43.86
723.448	44.28
723.631	45.37
723.813	45.47
723.995	45.67
724.178	45.5
724.36	45.3
724.542	45.16
724.724	44.92
724.907	43.78
725.089	43.62
725.271	43.78
725.453	43.8
725.635	42.68
725.817	43.31
725.999	43.36
726.181	44.12
726.364	43.97
726.546	43.62
726.728	44.53
726.91	44.77
727.092	44.8
727.274	44.75
727.456	44.93
727.638	45.11
727.819	44.75
728.001	44.88
728.183	44.42
728.365	45.21
728.547	46.36
728.729	45.95
728.911	45.85
729.093	45.86
729.274	46.32
729.456	46.2
729.638	45.69
729.82	45.85
730.001	46
730.183	46.76
730.365	45.87
730.546	45.52
730.728	45.21
730.91	45.21
731.091	45.25
731.273	45.28
731.455	45.08
731.636	45.78
731.818	45.26
731.999	44.87
732.181	44.05
732.362	44.07
732.544	43.28
732.725	42.79
732.907	43.06
733.088	43.14
733.27	42.99
733.451	42.98
733.633	43.47
733.814	43.88
733.995	43.82
734.177	44.24
734.358	44.85
734.539	45.87
734.721	45.89
734.902	45.81
735.083	45.87
735.264	46.2
735.446	46.38
735.627	45.68
735.808	45.75
735.989	45.84
736.17	45.74
736.351	45.49
736.533	44.88
736.714	45.27
736.895	45.47
737.076	46.02
737.257	45.47
737.438	45.37
737.619	45.8
737.8	45.87
737.981	46.55
738.162	46.21
738.343	45.87
738.524	46.66
738.705	47.16
738.886	47.03
739.067	47.23
739.247	47.4
739.428	47.05
739.609	46.56
739.79	46.88
739.971	46.62
740.151	46.88
740.332	47.56
740.513	46.84
740.694	45.8
740.874	44.98
741.055	44.72
741.236	44.95
741.417	45.35
741.597	45.52
741.778	44.37
741.958	44.17
742.139	43.83
742.32	42.66
742.5	43.14
742.681	44.05
742.861	44.88
743.042	44.63
743.222	44.07
743.403	43.8
743.583	44.02
743.764	45.04
743.944	44.93
744.124	44.61
744.305	45.5
744.485	45.54
744.666	44.61
744.846	44.18
745.026	44.02
745.207	44.96
745.387	45.79
745.567	45.81
745.747	45.5
745.928	46.53
746.108	47.37
746.288	47.49
746.468	47.4
746.648	48.4
746.829	49.51
747.009	50.29
747.189	50.16
747.369	50.07
747.549	49.54
747.729	48.7
747.909	48.61
748.089	48.75
748.269	48.42
748.449	47.87
748.629	48.01
748.809	47.36
748.989	45.9
749.169	45.18
749.349	44.84
749.529	45.37
749.709	46.62
749.889	46.25
750.068	46.01
750.248	46.06
750.428	46.28
750.608	45.93
750.788	45.92
750.967	46.43
751.147	46.54
751.327	46.24
751.507	45.61
751.686	44.46
751.866	44.66
752.046	45
752.225	45.48
752.405	45.58
752.585	45.04
752.764	44.91
752.944	45.24
753.123	45.93
753.303	46.71
753.482	47.24
753.662	48.16
753.841	47.96
754.021	48.04
754.2	47.26
754.38	46.9
754.559	48.17
754.739	47.65
754.918	47.51
755.097	47.32
755.277	47.1
755.456	47
755.635	46.8
755.815	46.59
755.994	46.71
756.173	46.94
756.352	47.34
756.532	47.59
756.711	49
756.89	49.42
757.069	49.08
757.248	48.71
757.427	48.17
757.607	48
757.786	48.67
757.965	48.61
758.144	49.01
758.323	49.05
758.502	47.86
758.681	46.94
758.86	46.75
759.039	46.89
759.218	47.64
759.397	48.25
759.576	48.74
759.755	47.55
759.934	46.41
760.113	46.37
760.291	46.72
760.47	47.47
760.649	48.02
760.828	47.62
761.007	48.03
761.186	47.31
761.364	46.92
761.543	46.9
761.722	48.05
761.901	48.69
762.079	48.47
762.258	48.23
762.437	48.11
762.615	47.73
762.794	48.66
762.972	48.4
763.151	48.39
763.33	48.67
763.508	48.43
763.687	48.18
763.865	48.29
764.044	48.26
764.222	48.13
764.401	48.17
764.579	48.03
764.758	47.11
764.936	46.72
765.114	46.77
765.293	46.28
765.471	46.29
765.65	45.7
765.828	46.2
766.006	46.19
766.184	46.12
766.363	45.84
766.541	46.41
766.719	46.78
766.898	46.49
767.076	46.4
767.254	47.28
767.432	47.44
767.61	48.15
767.788	47.02
767.967	47.34
768.145	48.05
768.323	48.26
768.501	47.99
768.679	47.97
768.857	49.17
769.035	49.63
769.213	49.75
769.391	50.62
769.569	50.27
769.747	50.45
769.925	50.25
770.103	49.66
770.281	48.89
770.459	48.62
770.636	49.57
770.814	49.76
770.992	48.92
771.17	47.82
771.348	45.94
771.525	45.18
771.703	46.38
771.881	46.74
772.059	47.69
772.236	46.75
772.414	47.01
772.592	46.92
772.769	45.79
772.947	46.17
773.125	47.7
773.302	49.15
773.48	49.55
773.657	48.99
773.835	49
774.013	49.42
774.19	50.71
774.368	51.59
774.545	50.73
774.723	50.07
774.9	51.83
775.077	51.7
775.255	50.83
775.432	51.62
775.61	51.66
775.787	51.11
775.964	49.16
776.142	49.87
776.319	50.79
776.496	51.17
776.674	52.94
776.851	52.26
777.028	52.56
777.205	53.14
777.382	54.04
777.56	53.42
777.737	52.85
777.914	53.37
778.091	53.52
778.268	51.59
778.445	51.63
778.622	51.52
778.8	50.79
778.977	49.39
779.154	50.09
779.331	50.38
779.508	50.53
779.685	51.29
779.862	51.67
780.038	51.01
780.215	50.75
780.392	51.96
780.569	51.94
780.746	50.86
780.923	50.93
781.1	50.26
781.277	48.9
781.453	47.38
781.63	46.93
781.807	47.23
781.984	47.7
782.16	49.01
782.337	46.96
782.514	46.71
782.691	49.13
782.867	48.49
783.044	47.44
783.221	47.45
783.397	49.83
783.574	50.12
783.75	49.79
783.927	51.48
784.103	52.08
784.28	51.55
784.456	51.44
784.633	49.18
784.809	50.4
784.986	51.88
785.162	52.11
785.339	52.1
785.515	53.69
785.692	53.56
785.868	50.51
786.044	48.27
786.221	51.99
786.397	52.43
786.573	52.86
786.749	51.54
786.926	50.41
787.102	50.23
787.278	48.72
787.454	46.74
787.631	47.22
787.807	49.34
787.983	49.45
788.159	47.3
788.335	47.6
788.511	48.94
788.687	51.89
788.863	53.42
789.039	54.32
789.216	53.74
789.392	54.73
789.568	54.63
789.744	56.02
789.919	58.02
790.095	58.61
790.271	58.59
790.447	57.15
790.623	56.02
790.799	55.04
790.975	53.51
791.151	55.38
791.327	54.22
791.502	53.28
791.678	49.41
791.854	49.08
792.03	49.75
792.205	50.09
792.381	52.44
792.557	52.63
792.733	51.4
792.908	54.04
793.084	53.96
793.259	54.82
793.435	55.72
793.611	58.19
793.786	56.69
793.962	55.59
794.137	55.39
794.313	53.01
794.488	52.96
794.664	55.22
794.839	54.08
795.015	53.96
795.19	54.4
795.366	54.95
795.541	54.33
795.716	54.69
795.892	53.6
796.067	52.77
796.242	52.75
796.418	51.37
796.593	50.12
796.768	49.99
796.944	50.55
797.119	49.9
797.294	50.7
797.469	49.93
797.644	50.6
797.82	50.92
797.995	49.42
798.17	50.16
798.345	50.93
798.52	49.75
798.695	48.42
798.87	49.39
799.045	50.26
799.22	48.39
799.395	48.56
799.57	48.6
799.745	50.42
799.92	50.5
800.095	51.33
800.27	50.09
800.445	51.99
800.62	53.15
800.795	50.28
800.97	51.52
801.145	51.45
801.319	49.37
801.494	49.2
801.669	47.97
801.844	50.49
802.018	50.19
802.193	51.8
802.368	51.83
802.543	51.64
802.717	52.19
802.892	50.21
803.067	51.7
803.241	52.37
803.416	54.46
803.59	54.05
803.765	51.89
803.94	51.49
804.114	51.11
804.289	49.8
804.463	50.34
804.638	51.21
804.812	51.94
804.986	52.95
805.161	55.1
805.335	52.19
805.51	52.57
805.684	53.68
805.858	53.07
806.033	53.06
806.207	52.12
806.381	52.17
806.556	51.68
806.73	53.71
806.904	53.8
807.078	54.7
807.253	54.55
807.427	54.24
807.601	55.15
807.775	55.03
807.949	54.51
808.123	58.17
808.298	57.53
808.472	57.94
808.646	54.3
808.82	54.14
808.994	54.28
809.168	54.17
809.342	53.89
809.516	50.37
809.69	50.5
809.864	51.01
810.038	51.02
810.212	50.2
810.385	49.43
810.559	50.57
810.733	46.18
810.907	44.04
811.081	44.76
811.255	46.1
811.428	49.65
811.602	50.47
811.776	50.71
811.95	48.08
812.123	46.99
812.297	47.65
812.471	48.57
812.644	50.58
812.818	54.26
812.992	56.26
813.165	56.95
813.339	54.59
813.512	53.76
813.686	52.56
813.86	55.34
814.033	58.12
814.207	61.88
814.38	60.69
814.554	63.25
814.727	60.91
814.9	62.28
815.074	62.79
815.247	65.85
815.421	64.33
815.594	63.3
815.767	63.58
815.941	64.34
816.114	59.25
816.287	59.24
816.46	59.73
816.634	60.11
816.807	56.03
816.98	54.84
817.153	53.78
817.327	57.83
817.5	62.21
817.673	63.23
817.846	60.82
818.019	61.64
818.192	64.21
818.365	56.38
818.538	53.68
818.711	55.91
818.884	54.38
819.057	52.78
819.23	51.84
819.403	49.82
819.576	47.78
819.749	48.64
819.922	49.05
820.095	47.87
820.268	52.38
820.441	53.55
820.614	51.83
820.786	52.43
820.959	52.54
821.132	52.57
821.305	52.17
821.477	50.94
821.65	51.79
821.823	51.33
821.996	50.17
822.168	49.26
822.341	48.51
822.514	48.75
822.686	48.69
822.859	48.6
823.031	48
823.204	48.6
823.376	48.45
823.549	47.54
823.722	47.42
823.894	47.3
824.067	47.8
824.239	48.27
824.411	48.11
824.584	47.97
824.756	47.85
824.929	47.38
825.101	46.67
825.273	47.36
825.446	47.69
825.618	47.89
825.79	48.76
825.963	48.64
826.135	48.18
826.307	48.33
826.479	48.71
826.652	48.47
826.824	49.13
826.996	49.45
827.168	49.77
827.34	49.73
827.512	49.87
827.684	49.82
827.856	50.13
828.029	51.59
828.201	50.76
828.373	50.73
828.545	51.32
828.717	51.51
828.889	50.98
829.061	51.54
829.232	52.56
829.404	52.93
829.576	52.19
829.748	52.2
829.92	51.19
830.092	52.66
830.264	52.13
830.436	52.14
830.607	51.69
830.779	53.11
830.951	50.73
831.123	48.98
831.294	47.88
831.466	50.22
831.638	48.56
831.809	49.82
831.981	48.8
832.153	48.75
832.324	50.97
832.496	53.64
832.667	54.85
832.839	55.08
833.011	55.72
833.182	55.17
833.354	54.91
833.525	55.1
833.697	53.21
833.868	54.16
834.039	55.73
834.211	54.5
834.382	52.54
834.554	51.95
834.725	51.49
834.896	51.47
835.068	51.62
835.239	49.26
835.41	48.77
835.581	50.56
835.753	50.19
835.924	50.26
836.095	48.92
836.266	49.19
836.438	48.07
836.609	49.49
836.78	50.35
836.951	50.61
837.122	52.11
837.293	52.31
837.464	49.22
837.635	50
837.806	48.56
837.977	49.97
838.148	50.03
838.319	50.71
838.49	52.01
838.661	53.43
838.832	54.21
839.003	55.6
839.174	59.91
839.345	63.7
839.516	62.22
839.687	62.78
839.857	61.57
840.028	61.31
840.199	59.24
840.37	57.34
840.54	55.67
840.711	57.84
840.882	59.2
841.053	60.38
841.223	59.92
841.394	59.99
841.564	63.36
841.735	64.31
841.906	67.71
842.076	66.63
842.247	68.08
842.417	66.45
842.588	65.27
842.758	60.02
842.929	55.67
843.099	54.02
843.27	58.8
843.44	58.69
843.611	59.62
843.781	55.57
843.951	59.15
844.122	55.89
844.292	53.96
844.462	48
844.633	51.13
844.803	52.4
844.973	47.38
845.144	43.63
845.314	38.68
845.484	43.01
845.654	48.6
845.824	46.65
845.995	47.76
846.165	48.84
846.335	59.13
846.505	60.13
846.675	60.13
846.845	65.85
847.015	61.19
847.185	58.84
847.355	57.94
847.525	58.75
847.695	62.28
847.865	67.41
848.035	64.28
848.205	58.81
848.375	62.37
848.545	66.46
848.715	67.93
848.884	72.61
849.054	78.15
849.224	78.77
849.394	84.24
849.564	80.93
849.733	78.49
849.903	82.83
850.073	83.83
850.243	77.16
850.412	78.23
850.582	77.66
850.752	74.09
850.921	70.21
851.091	67.4
851.26	63.79
851.43	67.28
851.599	64.22
851.769	67.73
851.939	70.95
852.108	76.08
852.278	70.2
852.447	71.6
852.616	76.66
852.786	85.56
852.955	81.35
853.125	78.77
853.294	75.24
853.463	73.84
853.633	67.21
853.802	62.84
853.971	65.12
854.141	71.62
854.31	73.26
854.479	70.42
854.648	61.78
854.818	56.73
854.987	54.77
855.156	50.55
855.325	60.66
855.494	61.47
855.663	65.07
855.832	58.22
856.001	51.03
856.171	50.19
856.34	49.22
856.509	44.23
856.678	55.81
856.847	60.26
857.016	73.04
857.185	67.99
857.353	67.79
857.522	59.31
857.691	68.14
857.86	66.57
858.029	66.91
858.198	67.51
858.367	67.16
858.535	65.76
858.704	67.2
858.873	60.24
859.042	56.58
859.21	67.51
859.379	69.6
859.548	60.32
859.717	61.63
859.885	60.65
860.054	63.38
860.222	59.78
860.391	66.9
860.56	65.35
860.728	68.36
860.897	72.54
861.065	63.24
861.234	63.24
861.402	73.97
861.571	74.86
861.739	73.7
861.908	67.69
862.076	68.35
862.244	61.93
862.413	65.74
862.581	61.29
862.749	59.79
862.918	61.27
863.086	71.26
863.254	62.65
863.423	55.3
863.591	53.77
863.759	54.67
863.927	60.74
864.096	54.39
864.264	50.52
864.432	56.17
864.6	57.48
864.768	59.02
864.936	55.03
865.104	45.97
865.272	48.63
865.44	55.34
865.608	55.14
865.776	50.48
865.944	50.76
866.112	51.34
866.28	50.48
866.448	46.19
866.616	53.06
866.784	44.91
866.952	54.62
867.12	58.88
867.288	64.3
867.455	67.48
867.623	68.85
867.791	66.93
867.959	63.16
868.127	63.04
868.294	71.47
868.462	60.68
868.63	66.38
868.797	65.85
868.965	75.91
869.133	65.74
869.3	67.13
869.468	69.25
869.636	81.99
869.803	78.99
869.971	76.65
870.138	60.96
870.306	70.55
870.473	57.76
870.641	54.95
870.808	47.11
870.975	54.09
871.143	49.84
871.31	48.3
871.478	44.35
871.645	57.72
871.812	62.78
871.98	65.68
872.147	68.57
872.314	99.3
872.482	89.52
872.649	92.75
872.816	90.25
872.983	97.18
873.15	87.97
873.318	74.01
873.485	73.88
873.652	76.33
873.819	80.49
873.986	79.48
874.153	67.72
874.32	80.66
874.487	79.28
874.654	80.3
874.821	77.95
874.988	76.93
875.155	94.25
875.322	85.75
875.489	90.59
875.656	95.21
875.823	77.29
875.99	73.37
876.157	68.97
876.324	70.07
876.49	58.05
876.657	57.28
876.824	76.11
876.991	71.21
877.157	74.8
877.324	73.46
877.491	69.53
877.658	79.61
877.824	86.25
877.991	86.9
878.157	80.29
878.324	91.85
878.491	94.53
878.657	75.95
878.824	74.04
878.99	75.07
879.157	71.21
879.323	70.69
879.49	65.06
879.656	61.5
879.823	57.59
879.989	59.84
880.156	59.97
880.322	54.15
880.488	46.85
880.655	46.3
880.821	37.61
880.987	33.95
881.154	37.68
881.32	49.13
881.486	51.3
881.652	52.27
881.819	52.9
881.985	50.96
882.151	51.02
882.317	54.68
882.483	57.27
882.649	57.22
882.816	56.04
882.982	55.46
883.148	51.75
883.314	50.94
883.48	51.15
883.646	50.88
883.812	51.54
883.978	51.41
884.144	50.82
884.31	49.71
884.476	50.56
884.642	50.61
884.807	50.44
884.973	50.42
885.139	51.24
885.305	50.32
885.471	51.78
885.637	50.77
885.802	51.75
885.968	50.84
886.134	51.26
886.3	51.19
886.465	53.62
886.631	53.18
886.797	54.49
886.962	53.95
887.128	58.4
887.293	58.86
887.459	62.35
887.625	62.88
887.79	70.38
887.956	70.41
888.121	71.28
888.287	70.56
888.452	75.9
888.618	76.88
888.783	79.31
