Data from LC_213__Reflection_3.txt Node
Date: Thu Nov 19 12:45:09 EST 2015
User: robert
Spectrometer: USB4E03001
Autoset integration time: false
Trigger mode: 4
Integration Time (sec): 1.000000E-1
Scans to average: 15
Electric dark correction enabled: true
Nonlinearity correction enabled: false
Boxcar width: 5
Stray light correction enabled: false
XAxis mode: Wavelengths
Stop averaging: false
Number of Pixels in Spectrum: 3648
>>>>>Begin Spectral Data<<<<<
177.566	219.06
177.785	-471.66
178.005	373.41
178.225	176.03
178.445	150.17
178.665	75.34
178.885	53.85
179.105	169.78
179.324	114.1
179.544	659.85
179.764	-32.43
179.984	-268.05
180.204	-29.16
180.423	36.49
180.643	34.04
180.863	4.46
181.083	-9.23
181.302	-83.15
181.522	-135.24
181.742	-40.14
181.961	-80.91
182.181	-65.77
182.401	-27.64
182.621	-54.8
182.84	-20.4
183.06	11.25
183.279	34.76
183.499	33.95
183.719	51.59
183.938	37.96
184.158	85.04
184.377	124.29
184.597	313.39
184.816	-214.17
185.036	-99.15
185.256	-9.48
185.475	17.92
185.695	54.38
185.914	47.02
186.134	57.6
186.353	49.75
186.572	89.76
186.792	174.86
187.011	-530.93
187.231	-289.34
187.45	-283.01
187.67	-126.42
187.889	-89.91
188.108	-675.82
188.328	-55.16
188.547	48.16
188.766	-68.29
188.986	123.81
189.205	92.21
189.424	90.79
189.644	137.07
189.863	146.93
190.082	43.14
190.302	45.78
190.521	45.05
190.74	86.19
190.959	446.82
191.178	671.36
191.398	118.3
191.617	157.55
191.836	40.45
192.055	-36.58
192.274	99.28
192.494	73.8
192.713	92.71
192.932	52.76
193.151	123.16
193.37	88.13
193.589	121.5
193.808	-29.9
194.027	660.28
194.246	278.73
194.465	-123.19
194.685	-689.01
194.904	1.16
195.123	-70.33
195.342	-9.8
195.561	-32.46
195.78	-859.76
195.999	-356.21
196.218	793.16
196.436	-3226.92
196.655	215.13
196.874	87.18
197.093	149.59
197.312	94.06
197.531	259.64
197.75	436.35
197.969	131.99
198.188	-505.38
198.407	59.49
198.625	54.07
198.844	2.54
199.063	44.05
199.282	31.72
199.501	33.65
199.719	37.62
199.938	37.24
200.157	17.01
200.376	-1.69
200.594	28.55
200.813	6.55
201.032	52.71
201.251	154.68
201.469	-2.35
201.688	65.58
201.907	49.67
202.125	47.11
202.344	55.89
202.563	48.73
202.781	59.62
203	35.94
203.218	20.15
203.437	-70.64
203.656	-202.44
203.874	-454.52
204.093	-305.1
204.311	263.3
204.53	86.8
204.748	70.69
204.967	55.46
205.185	61.43
205.404	60.63
205.622	35.21
205.841	5.84
206.059	-116.64
206.278	-2318.93
206.496	-15.45
206.715	1232.69
206.933	-31.38
207.151	7.73
207.37	-6.81
207.588	-7.77
207.806	-34.94
208.025	-46.6
208.243	-183.35
208.461	-954.42
208.68	-1723.95
208.898	-299.71
209.116	8313.46
209.335	-191.57
209.553	232.2
209.771	220.57
209.989	652.46
210.208	169.47
210.426	286.22
210.644	-21.54
210.862	23.57
211.081	-95.08
211.299	6.73
211.517	-17.58
211.735	-2094.23
211.953	-136.52
212.171	44.37
212.39	44.5
212.608	39.75
212.826	34.12
213.044	22.99
213.262	-33.41
213.48	16.14
213.698	-93.05
213.916	-30.54
214.134	-12.01
214.352	14.04
214.57	-37.33
214.788	-271.01
215.006	2922.12
215.224	462.83
215.442	375.72
215.66	155.36
215.878	127.88
216.096	49.38
216.314	10.91
216.532	47.9
216.75	45.01
216.968	33.62
217.185	18.3
217.403	27.68
217.621	-16.66
217.839	-10.67
218.057	1.11
218.275	41.91
218.492	62.54
218.71	69.21
218.928	53.18
219.146	63.42
219.363	56.25
219.581	56.35
219.799	52.99
220.017	62.65
220.234	73.3
220.452	106.94
220.67	91.46
220.887	37.88
221.105	23.18
221.323	87.91
221.54	75.59
221.758	76.66
221.976	45.4
222.193	42.14
222.411	44.62
222.629	40.42
222.846	35.65
223.064	35.25
223.281	40.03
223.499	51.93
223.716	49.93
223.934	23.57
224.151	37.12
224.369	81
224.586	92.25
224.804	112.77
225.021	109.37
225.239	121.88
225.456	113.6
225.674	70.47
225.891	37.47
226.108	34.83
226.326	37.53
226.543	12.82
226.76	-6.91
226.978	-27.88
227.195	10.42
227.413	-5.06
227.63	-9.23
227.847	-6.18
228.064	-7.11
228.282	-3.48
228.499	-7.92
228.716	-3.68
228.934	-0.11
229.151	3.3
229.368	3.52
229.585	3.72
229.802	4.03
230.02	6.56
230.237	8.18
230.454	11.28
230.671	9.46
230.888	8.22
231.105	11.09
231.323	8.94
231.54	10.04
231.757	11.44
231.974	7.73
232.191	13.53
232.408	17.98
232.625	19.91
232.842	31.71
233.059	32.86
233.276	39.07
233.493	26.85
233.71	34.67
233.927	21.66
234.144	23.63
234.361	22.98
234.578	19.21
234.795	10.97
235.012	12.54
235.229	3.52
235.446	4.43
235.663	-1.13
235.879	6.11
236.096	2.95
236.313	6.35
236.53	4.5
236.747	7.61
236.964	4.63
237.181	11.89
237.397	8.55
237.614	7.84
237.831	8.07
238.048	17.47
238.264	22.38
238.481	23.6
238.698	24.7
238.915	30.79
239.131	22.67
239.348	25.11
239.565	22.64
239.781	21.13
239.998	25.33
240.215	24.02
240.431	21.52
240.648	17.82
240.865	20.86
241.081	21.81
241.298	17.45
241.514	18.48
241.731	18.1
241.947	18.47
242.164	17.32
242.38	14.97
242.597	12.81
242.814	12
243.03	11.95
243.246	9.27
243.463	8.35
243.679	11.44
243.896	12.86
244.112	11.76
244.329	9.86
244.545	11.8
244.762	12.47
244.978	14.24
245.194	15.56
245.411	13.61
245.627	13.42
245.843	14.64
246.06	11.44
246.276	10.11
246.492	10.65
246.709	11.48
246.925	11.21
247.141	10.13
247.357	10.67
247.574	10.96
247.79	11.95
248.006	11.97
248.222	11.14
248.439	10.3
248.655	9.78
248.871	9.7
249.087	8.93
249.303	9.26
249.519	10.05
249.736	8.16
249.952	7.38
250.168	7.54
250.384	7.27
250.6	9.36
250.816	12.92
251.032	13.97
251.248	11.94
251.464	12.73
251.68	12.3
251.896	13.23
252.112	15.24
252.328	14.66
252.544	13.37
252.76	14.07
252.976	14.78
253.192	12.51
253.408	11.9
253.624	14.02
253.84	13.43
254.056	13.65
254.272	12.62
254.487	10.21
254.703	11.37
254.919	12.46
255.135	12.69
255.351	7.82
255.567	8.31
255.782	9.14
255.998	4.47
256.214	3.07
256.43	4.05
256.646	4.72
256.861	5.02
257.077	3.05
257.293	3.27
257.508	4.99
257.724	7.69
257.94	10.25
258.155	9.76
258.371	10.81
258.587	10.2
258.802	9.65
259.018	8.78
259.234	9.72
259.449	9.63
259.665	9.2
259.88	8.44
260.096	7.87
260.312	7.34
260.527	7.05
260.743	7.99
260.958	8.48
261.174	7.85
261.389	7.7
261.605	7.39
261.82	7.62
262.036	6.82
262.251	7.24
262.466	7.5
262.682	7.23
262.897	8.52
263.113	6.58
263.328	7.09
263.543	7.02
263.759	9.82
263.974	9.54
264.189	9.25
264.405	9.7
264.62	9.43
264.835	9.23
265.051	8.19
265.266	6.91
265.481	7.32
265.696	7.25
265.912	8.56
266.127	8.21
266.342	8.28
266.557	6.44
266.773	8.13
266.988	8.11
267.203	7.72
267.418	8.47
267.633	9.73
267.848	10.6
268.064	9.15
268.279	8.13
268.494	6.63
268.709	7.33
268.924	9.27
269.139	6.68
269.354	6.38
269.569	5.47
269.784	4.49
269.999	4.76
270.214	5.01
270.429	8.52
270.644	8.83
270.859	9.95
271.074	9.3
271.289	9.98
271.504	11.04
271.719	10.84
271.934	11.34
272.149	12.04
272.363	12.02
272.578	11.19
272.793	9.22
273.008	9.88
273.223	9.03
273.438	9.82
273.653	8.92
273.867	9.92
274.082	10.68
274.297	11.22
274.512	10.51
274.726	9.62
274.941	10.14
275.156	10.39
275.371	11.09
275.585	11.33
275.8	9.44
276.015	9.17
276.229	9.93
276.444	10.15
276.659	9.99
276.873	9.58
277.088	9.84
277.302	9.66
277.517	10.24
277.732	9.63
277.946	8.81
278.161	9.32
278.375	8.47
278.59	7.83
278.804	8.18
279.019	7.91
279.233	9.92
279.448	9.72
279.662	11.26
279.877	10.38
280.091	10.49
280.306	11.52
280.52	12.08
280.735	13.27
280.949	13.84
281.163	13.16
281.378	13.1
281.592	12.07
281.806	12.69
282.021	11.74
282.235	11.09
282.449	10.24
282.664	10.03
282.878	10
283.092	10.81
283.307	10.17
283.521	8.53
283.735	8.11
283.949	8.67
284.164	7.22
284.378	6.25
284.592	8.1
284.806	9.56
285.02	9.1
285.234	9.12
285.449	8.03
285.663	7.35
285.877	8.44
286.091	9.25
286.305	9.61
286.519	10.7
286.733	10.98
286.947	10.23
287.161	8.87
287.375	9.03
287.589	8.74
287.803	8.82
288.017	9.71
288.231	9.43
288.445	8.77
288.659	7.3
288.873	6.34
289.087	8.08
289.301	7.16
289.515	7.76
289.729	7.28
289.943	6.62
290.157	7.53
290.371	7.52
290.584	7.87
290.798	8.12
291.012	9.96
291.226	9.44
291.44	7.1
291.654	7.16
291.867	7.02
292.081	8.55
292.295	9.17
292.509	9.41
292.722	8.66
292.936	8.86
293.15	10.39
293.364	8.47
293.577	10.15
293.791	11.11
294.005	12.26
294.218	12.81
294.432	12.78
294.645	13.48
294.859	12.43
295.073	11.9
295.286	12.32
295.5	10.79
295.713	12.2
295.927	11.41
296.14	11.87
296.354	11.56
296.568	11.44
296.781	11.25
296.994	10.9
297.208	9.37
297.421	10.57
297.635	11.09
297.848	12.2
298.062	12.02
298.275	12.24
298.489	12.44
298.702	12.33
298.915	12.24
299.129	12.16
299.342	11.82
299.555	14.49
299.769	14.39
299.982	14
300.195	13.67
300.409	12.64
300.622	13
300.835	12.41
301.048	13.66
301.262	13.79
301.475	13.83
301.688	14.58
301.901	13.25
302.115	13.92
302.328	13.11
302.541	13.73
302.754	14.41
302.967	14.01
303.18	14.57
303.393	13.42
303.607	13.8
303.82	15.67
304.033	14.61
304.246	16.74
304.459	16.51
304.672	17.6
304.885	16.74
305.098	16.8
305.311	18.09
305.524	18.68
305.737	19.17
305.95	19.12
306.163	16.6
306.376	18.03
306.589	16.17
306.802	15.36
307.015	14.53
307.228	14.78
307.44	13.7
307.653	12.19
307.866	11.56
308.079	12.33
308.292	12.25
308.505	13.04
308.718	12.67
308.93	13.75
309.143	14.01
309.356	14.02
309.569	14.47
309.781	15.29
309.994	15.95
310.207	16.25
310.42	15.21
310.632	15.73
310.845	15.78
311.058	14.77
311.27	14.83
311.483	14.91
311.696	14.88
311.908	14.08
312.121	13.48
312.333	13.47
312.546	13.04
312.759	12.84
312.971	12.4
313.184	12.3
313.396	13.34
313.609	12.89
313.821	13.12
314.034	12.72
314.246	13.47
314.459	15.09
314.671	15.17
314.884	14.22
315.096	15.71
315.309	15.24
315.521	15.43
315.733	15.93
315.946	16.25
316.158	16.8
316.371	17.33
316.583	17.13
316.795	16.8
317.008	15.7
317.22	16.67
317.432	15.67
317.644	15.08
317.857	15.96
318.069	16.84
318.281	17.13
318.494	15.88
318.706	15.68
318.918	15.57
319.13	14.99
319.342	16.29
319.555	18.16
319.767	17.96
319.979	17.89
320.191	17.21
320.403	17.65
320.615	16.18
320.827	15.78
321.039	16.35
321.252	16.66
321.464	15.77
321.676	15.19
321.888	12.98
322.1	13.35
322.312	13.82
322.524	13.64
322.736	12.46
322.948	13.52
323.16	14.69
323.372	14.99
323.584	13.61
323.796	14.09
324.007	14.05
324.219	14.63
324.431	14.95
324.643	16.05
324.855	15.95
325.067	16.89
325.279	15.98
325.491	15.76
325.702	15.38
325.914	15.96
326.126	16.74
326.338	16.95
326.55	17.7
326.761	19.37
326.973	18.88
327.185	19.58
327.396	19.65
327.608	20.85
327.82	22.24
328.032	23.25
328.243	25.24
328.455	25.54
328.666	26.39
328.878	26.71
329.09	25.56
329.301	26.08
329.513	26.13
329.725	26.37
329.936	26.7
330.148	26.92
330.359	27.41
330.571	28.16
330.782	27.76
330.994	29.79
331.205	29.49
331.417	29.86
331.628	30.65
331.84	30.82
332.051	31.5
332.262	31.2
332.474	30.49
332.685	31.26
332.897	30.32
333.108	31.32
333.319	30.93
333.531	31.58
333.742	32.45
333.953	32.81
334.165	33.95
334.376	33.03
334.587	33.75
334.799	34.16
335.01	32.89
335.221	33.21
335.432	33.2
335.644	32.28
335.855	32.2
336.066	31.29
336.277	30.68
336.488	31.15
336.7	31.25
336.911	31.17
337.122	30.75
337.333	31.26
337.544	31.32
337.755	32.37
337.966	33.03
338.177	32.86
338.388	33.68
338.599	34.44
338.811	33.68
339.022	33.77
339.233	34.53
339.444	35.79
339.655	35.35
339.866	35.46
340.076	35.03
340.287	34.97
340.498	35.57
340.709	35.84
340.92	35.03
341.131	34.9
341.342	34.9
341.553	34.61
341.764	34.72
341.975	34.8
342.185	34.22
342.396	33.67
342.607	33.31
342.818	33.07
343.029	32.51
343.239	32.85
343.45	33.12
343.661	32.68
343.872	32.07
344.082	31.13
344.293	31.17
344.504	33.43
344.714	33.61
344.925	33.41
345.136	33.35
345.346	32.88
345.557	33.62
345.768	33.39
345.978	34.42
346.189	34.76
346.399	34.93
346.61	35.33
346.821	34.09
347.031	34.4
347.242	34.83
347.452	34.59
347.663	35.27
347.873	35.11
348.084	35.01
348.294	34.38
348.504	34.08
348.715	34.28
348.925	33.57
349.136	32.77
349.346	32.55
349.557	31.89
349.767	32.27
349.977	32.55
350.188	32.81
350.398	33.06
350.608	32.54
350.819	32.44
351.029	31.89
351.239	31.83
351.449	32.39
351.66	33.05
351.87	33.4
352.08	34.17
352.29	34.53
352.501	33.47
352.711	33.27
352.921	33.05
353.131	34.06
353.341	34.63
353.552	34.95
353.762	35.22
353.972	34.73
354.182	35.15
354.392	34.74
354.602	34.6
354.812	34.76
355.022	35.5
355.232	36.47
355.442	36.61
355.652	36.51
355.862	36.33
356.072	35.64
356.282	34.87
356.492	33.33
356.702	33.4
356.912	33.06
357.122	33.07
357.332	32.75
357.542	32.71
357.752	31.82
357.962	31.61
358.171	32.02
358.381	31.98
358.591	32.3
358.801	33.85
359.011	33.09
359.221	32.86
359.43	32.8
359.64	32.58
359.85	33.09
360.06	33.43
360.269	33.43
360.479	33.4
360.689	33.23
360.899	33.37
361.108	33.43
361.318	33.89
361.528	33.71
361.737	33.35
361.947	33.57
362.156	32.69
362.366	32.4
362.576	32.25
362.785	31.77
362.995	32.02
363.204	32.18
363.414	31.88
363.623	31.26
363.833	31.14
364.042	31.25
364.252	30.97
364.461	31.37
364.671	31.13
364.88	31.32
365.09	31.81
365.299	31.62
365.509	30.8
365.718	30.37
365.927	30.38
366.137	30.48
366.346	30.51
366.555	29.68
366.765	29.05
366.974	29.33
367.183	29.36
367.393	28.8
367.602	28.74
367.811	29.45
368.021	28.95
368.23	28.91
368.439	28.65
368.648	28.35
368.857	29.12
369.067	29.26
369.276	29.78
369.485	29.62
369.694	29.74
369.903	29.81
370.112	29.93
370.321	30.25
370.531	30.4
370.74	30.42
370.949	30.61
371.158	30.31
371.367	30.33
371.576	29.13
371.785	28.79
371.994	28.59
372.203	28.2
372.412	28.2
372.621	28.45
372.83	28.47
373.039	28.7
373.248	28.81
373.457	28.95
373.666	28.82
373.874	28.36
374.083	28.21
374.292	29.02
374.501	29.02
374.71	28.7
374.919	27.9
375.128	27.74
375.336	27.85
375.545	27.65
375.754	27.4
375.963	27.52
376.171	28.1
376.38	28.5
376.589	27.96
376.798	27.78
377.006	27.52
377.215	27.95
377.424	28.1
377.632	27.62
377.841	27.84
378.05	27.75
378.258	27.57
378.467	27.5
378.675	26.85
378.884	26.89
379.093	26.8
379.301	26.72
379.51	26.22
379.718	25.78
379.927	25.92
380.135	25.63
380.344	25.58
380.552	25.46
380.761	25.45
380.969	25.79
381.177	25.82
381.386	25.64
381.594	25.63
381.803	25.75
382.011	25.84
382.219	25.83
382.428	25.65
382.636	25.32
382.845	25.39
383.053	25.25
383.261	25.23
383.469	24.69
383.678	24.49
383.886	24.11
384.094	24.25
384.302	23.93
384.511	23.63
384.719	23.36
384.927	23.35
385.135	23.03
385.343	23.26
385.552	22.95
385.76	22.8
385.968	23.06
386.176	23.23
386.384	23.09
386.592	23.21
386.8	23.07
387.008	23.14
387.216	23.48
387.424	23.57
387.633	23.31
387.841	23.13
388.049	23.24
388.257	23.11
388.465	22.94
388.672	22.92
388.88	22.9
389.088	22.9
389.296	22.84
389.504	22.76
389.712	22.7
389.92	22.87
390.128	22.95
390.336	22.96
390.544	22.88
390.751	22.73
390.959	22.66
391.167	22.77
391.375	22.91
391.583	23.15
391.79	22.92
391.998	22.61
392.206	22.33
392.414	22.12
392.621	22.18
392.829	22
393.037	22.18
393.244	22.12
393.452	22
393.66	21.82
393.867	21.5
394.075	21.26
394.283	21.89
394.49	21.71
394.698	22.27
394.905	21.93
395.113	22.12
395.32	21.89
395.528	21.77
395.735	21.65
395.943	21.59
396.15	21.75
396.358	21.9
396.565	21.27
396.773	21.33
396.98	20.98
397.188	21.33
397.395	21.15
397.602	21.27
397.81	21.48
398.017	21.64
398.225	21.69
398.432	21.78
398.639	21.73
398.847	21.88
399.054	21.74
399.261	21.66
399.468	21.27
399.676	21.19
399.883	21.18
400.09	21.12
400.297	20.98
400.505	20.75
400.712	20.36
400.919	20.2
401.126	20.21
401.333	20.8
401.54	20.63
401.748	20.69
401.955	21.05
402.162	21.12
402.369	20.87
402.576	20.89
402.783	20.92
402.99	21.02
403.197	20.99
403.404	20.67
403.611	20.16
403.818	20.18
404.025	20.24
404.232	20.17
404.439	20.04
404.646	20.06
404.853	19.94
405.06	19.89
405.267	19.88
405.474	19.98
405.681	20.11
405.887	20.08
406.094	20.36
406.301	20.25
406.508	20.05
406.715	20.12
406.922	20.21
407.128	19.95
407.335	19.83
407.542	19.9
407.749	19.84
407.955	19.9
408.162	20.02
408.369	19.68
408.575	19.76
408.782	19.63
408.989	19.18
409.195	18.8
409.402	18.98
409.609	19.14
409.815	18.85
410.022	18.81
410.228	18.82
410.435	18.76
410.642	18.91
410.848	19.03
411.055	19.07
411.261	19.23
411.468	19.75
411.674	19.95
411.881	19.94
412.087	20.18
412.294	20.41
412.5	20.64
412.706	20.47
412.913	20.2
413.119	20.14
413.326	20.5
413.532	20.51
413.738	20.03
413.945	19.63
414.151	19.57
414.357	19.35
414.564	18.85
414.77	18.53
414.976	18.69
415.182	18.81
415.389	18.55
415.595	18.02
415.801	18.15
416.007	18.23
416.214	18.31
416.42	18.37
416.626	18.37
416.832	18.44
417.038	18.31
417.244	18.44
417.45	18.45
417.657	18.47
417.863	18.68
418.069	18.74
418.275	18.94
418.481	18.87
418.687	18.92
418.893	18.79
419.099	18.88
419.305	19.02
419.511	18.76
419.717	18.57
419.923	18.59
420.129	18.55
420.335	18.34
420.541	18.23
420.746	18.32
420.952	18.25
421.158	18.16
421.364	18.14
421.57	17.98
421.776	18.09
421.982	18.1
422.187	17.93
422.393	17.82
422.599	17.75
422.805	17.67
423.01	17.47
423.216	17.31
423.422	17.33
423.628	17.18
423.833	17.29
424.039	17.33
424.245	17.35
424.45	17.42
424.656	17.51
424.862	17.69
425.067	17.64
425.273	17.77
425.478	17.73
425.684	17.9
425.889	18.14
426.095	18.06
426.301	17.96
426.506	18.08
426.712	17.98
426.917	17.86
427.123	17.78
427.328	17.8
427.533	17.66
427.739	17.89
427.944	17.78
428.15	17.56
428.355	17.64
428.561	17.67
428.766	17.37
428.971	17.51
429.177	17.48
429.382	17.34
429.587	17.38
429.793	17.46
429.998	17.45
430.203	17.32
430.408	17.24
430.614	17.07
430.819	17
431.024	17.09
431.229	17.15
431.434	17.32
431.64	17.15
431.845	17.25
432.05	17.32
432.255	17.16
432.46	17.24
432.665	17.36
432.87	17.68
433.076	17.74
433.281	17.79
433.486	17.92
433.691	17.81
433.896	18.04
434.101	17.98
434.306	17.95
434.511	17.85
434.716	17.88
434.921	17.83
435.126	17.64
435.331	17.65
435.535	17.59
435.74	17.51
435.945	17.61
436.15	17.63
436.355	17.67
436.56	17.55
436.765	17.8
436.97	17.88
437.174	17.96
437.379	17.71
437.584	17.83
437.789	17.84
437.993	17.8
438.198	17.66
438.403	17.76
438.608	17.65
438.812	17.69
439.017	17.6
439.222	17.55
439.426	17.38
439.631	17.48
439.836	17.3
440.04	17.34
440.245	17.33
440.45	17.39
440.654	17.4
440.859	17.37
441.063	17.4
441.268	17.39
441.472	17.53
441.677	17.56
441.881	17.74
442.086	17.74
442.29	17.69
442.495	17.69
442.699	17.77
442.904	17.49
443.108	17.68
443.312	17.73
443.517	17.69
443.721	17.5
443.925	17.56
444.13	17.45
444.334	17.5
444.538	17.55
444.743	17.55
444.947	17.42
445.151	17.35
445.356	17.2
445.56	17.14
445.764	17.26
445.968	17.29
446.173	17.27
446.377	17.24
446.581	17.15
446.785	17.12
446.989	17.07
447.193	17.04
447.398	17.13
447.602	17.04
447.806	17.15
448.01	17.09
448.214	17.12
448.418	17.12
448.622	17.05
448.826	16.93
449.03	16.98
449.234	17.02
449.438	17.06
449.642	17.05
449.846	17.23
450.05	17.11
450.254	16.88
450.458	16.65
450.662	16.68
450.866	16.9
451.069	17.24
451.273	17.21
451.477	17.22
451.681	17.4
451.885	17.39
452.089	17.3
452.292	17.38
452.496	17.68
452.7	17.72
452.904	17.59
453.107	17.55
453.311	17.31
453.515	17.25
453.719	17.15
453.922	17.15
454.126	17.12
454.33	17.08
454.533	16.88
454.737	16.7
454.94	16.85
455.144	16.95
455.348	16.84
455.551	16.82
455.755	16.77
455.958	16.67
456.162	16.5
456.365	16.43
456.569	16.58
456.772	16.93
456.976	16.85
457.179	16.7
457.383	16.79
457.586	16.65
457.79	16.72
457.993	16.68
458.196	16.68
458.4	16.65
458.603	16.83
458.807	16.62
459.01	16.41
459.213	16.37
459.417	16.47
459.62	16.4
459.823	16.55
460.026	16.62
460.23	16.72
460.433	16.8
460.636	16.81
460.839	16.69
461.042	16.78
461.246	16.7
461.449	16.76
461.652	16.73
461.855	16.59
462.058	16.43
462.261	16.41
462.464	16.34
462.668	16.23
462.871	16.16
463.074	16.12
463.277	16.07
463.48	16.04
463.683	16.05
463.886	15.98
464.089	16.15
464.292	16.18
464.495	16.17
464.698	16.13
464.901	16.28
465.104	16.43
465.306	16.69
465.509	16.79
465.712	16.87
465.915	16.83
466.118	16.88
466.321	16.89
466.524	16.87
466.726	16.87
466.929	16.95
467.132	16.86
467.335	16.73
467.538	16.6
467.74	16.51
467.943	16.61
468.146	16.74
468.348	16.69
468.551	16.66
468.754	16.59
468.956	16.49
469.159	16.43
469.362	16.46
469.564	16.47
469.767	16.32
469.969	16.38
470.172	16.28
470.375	16.24
470.577	16.1
470.78	16.2
470.982	16.46
471.185	16.55
471.387	16.56
471.59	16.47
471.792	16.47
471.995	16.65
472.197	16.75
472.399	16.73
472.602	16.84
472.804	17.1
473.007	17.16
473.209	17.14
473.411	17.2
473.614	17.31
473.816	17.36
474.018	17.47
474.22	17.43
474.423	17.44
474.625	17.49
474.827	17.56
475.03	17.45
475.232	17.27
475.434	17.08
475.636	17.07
475.838	17.04
476.04	17.08
476.243	17.12
476.445	17.17
476.647	17.13
476.849	17.24
477.051	17.15
477.253	17.03
477.455	16.99
477.657	17.03
477.859	17
478.061	16.96
478.263	17.04
478.465	17.03
478.667	17.01
478.869	16.97
479.071	16.88
479.273	16.89
479.475	16.82
479.677	16.99
479.879	17.09
480.081	17.02
480.283	17.02
480.485	16.99
480.686	16.9
480.888	16.83
481.09	16.68
481.292	16.66
481.494	16.71
481.695	16.85
481.897	16.7
482.099	16.63
482.301	16.73
482.502	16.65
482.704	16.67
482.906	16.6
483.107	16.65
483.309	16.67
483.511	16.7
483.712	16.62
483.914	16.58
484.115	16.62
484.317	16.57
484.519	16.45
484.72	16.44
484.922	16.37
485.123	16.38
485.325	16.28
485.526	16.31
485.728	16.24
485.929	16.21
486.131	16.17
486.332	16.07
486.534	16.09
486.735	16.18
486.936	16.22
487.138	16.25
487.339	16.26
487.541	16.36
487.742	16.29
487.943	16.29
488.144	16.34
488.346	16.36
488.547	16.38
488.748	16.34
488.95	16.34
489.151	16.31
489.352	16.27
489.553	16.23
489.755	16.15
489.956	16.18
490.157	16.19
490.358	16.13
490.559	16.15
490.76	16.23
490.961	16.27
491.163	16.23
491.364	16.27
491.565	16.33
491.766	16.37
491.967	16.42
492.168	16.43
492.369	16.46
492.57	16.51
492.771	16.59
492.972	16.51
493.173	16.61
493.374	16.72
493.575	16.74
493.776	16.75
493.976	16.78
494.177	16.79
494.378	16.86
494.579	16.86
494.78	16.84
494.981	16.7
495.182	16.94
495.382	16.83
495.583	16.88
495.784	16.88
495.985	16.96
496.185	16.93
496.386	17.04
496.587	17.12
496.788	17.1
496.988	17.17
497.189	17.32
497.39	17.28
497.59	17.37
497.791	17.33
497.992	17.36
498.192	17.32
498.393	17.48
498.593	17.47
498.794	17.39
498.994	17.55
499.195	17.48
499.395	17.51
499.596	17.51
499.796	17.6
499.997	17.63
500.197	17.77
500.398	17.84
500.598	17.81
500.799	17.9
500.999	17.98
501.199	17.98
501.4	18.12
501.6	18.09
501.801	18.07
502.001	18.02
502.201	18.09
502.402	18.05
502.602	18.2
502.802	18.29
503.002	18.36
503.203	18.45
503.403	18.45
503.603	18.32
503.803	18.39
504.003	18.49
504.204	18.52
504.404	18.7
504.604	18.71
504.804	18.71
505.004	18.72
505.204	18.61
505.404	18.64
505.604	18.8
505.804	18.97
506.005	19.08
506.205	19.08
506.405	19.15
506.605	18.96
506.805	19
507.005	18.98
507.204	19.03
507.404	19.18
507.604	19.2
507.804	19.06
508.004	19.06
508.204	19.04
508.404	19.1
508.604	19.06
508.804	19.26
509.003	19.32
509.203	19.28
509.403	19.27
509.603	19.33
509.803	19.31
510.002	19.41
510.202	19.48
510.402	19.58
510.602	19.67
510.801	19.78
511.001	19.8
511.201	19.87
511.4	20.03
511.6	20.14
511.8	20.05
511.999	20.21
512.199	20.32
512.398	20.39
512.598	20.4
512.797	20.54
512.997	20.6
513.197	20.67
513.396	20.77
513.596	20.7
513.795	20.66
513.994	20.86
514.194	20.86
514.393	20.8
514.593	20.92
514.792	21.01
514.992	20.95
515.191	21.03
515.39	21.03
515.59	21.03
515.789	21.25
515.988	21.39
516.188	21.41
516.387	21.62
516.586	21.78
516.786	21.84
516.985	21.97
517.184	22.17
517.383	22.33
517.582	22.43
517.782	22.45
517.981	22.4
518.18	22.46
518.379	22.6
518.578	22.51
518.777	22.62
518.976	22.74
519.176	22.76
519.375	22.65
519.574	22.6
519.773	22.69
519.972	22.86
520.171	23.05
520.37	23.14
520.569	23.12
520.768	23.18
520.967	23.26
521.166	23.15
521.365	23.19
521.564	23.48
521.762	23.61
521.961	23.62
522.16	23.71
522.359	23.67
522.558	23.76
522.757	23.76
522.956	23.96
523.154	24.06
523.353	24.26
523.552	24.33
523.751	24.2
523.949	24.38
524.148	24.44
524.347	24.39
524.546	24.5
524.744	24.54
524.943	24.62
525.142	24.63
525.34	24.61
525.539	24.56
525.737	24.69
525.936	24.77
526.135	24.72
526.333	24.72
526.532	24.81
526.73	24.91
526.929	24.88
527.127	25.04
527.326	25.1
527.524	25.16
527.723	25.28
527.921	25.27
528.12	25.32
528.318	25.33
528.516	25.41
528.715	25.41
528.913	25.38
529.112	25.4
529.31	25.35
529.508	25.38
529.707	25.38
529.905	25.4
530.103	25.41
530.301	25.48
530.5	25.54
530.698	25.56
530.896	25.64
531.094	25.71
531.293	25.91
531.491	26.14
531.689	26.24
531.887	26.36
532.085	26.41
532.283	26.58
532.481	26.6
532.68	26.65
532.878	26.68
533.076	26.75
533.274	26.82
533.472	26.79
533.67	26.72
533.868	26.78
534.066	26.83
534.264	26.98
534.462	26.94
534.66	26.99
534.858	27
535.056	27.06
535.253	27.07
535.451	27.19
535.649	27.32
535.847	27.47
536.045	27.49
536.243	27.48
536.441	27.48
536.638	27.62
536.836	27.61
537.034	27.83
537.232	27.96
537.43	27.99
537.627	28.03
537.825	28.07
538.023	28.1
538.22	28.17
538.418	28.42
538.616	28.37
538.813	28.42
539.011	28.59
539.209	28.49
539.406	28.57
539.604	28.72
539.801	28.8
539.999	28.8
540.196	28.78
540.394	28.83
540.591	28.81
540.789	28.9
540.986	28.93
541.184	28.99
541.381	29.03
541.579	29.02
541.776	28.94
541.974	28.91
542.171	29.03
542.368	29.12
542.566	29.16
542.763	29.2
542.96	29.26
543.158	29.27
543.355	29.31
543.552	29.43
543.75	29.49
543.947	29.68
544.144	29.83
544.341	29.82
544.539	29.9
544.736	30.03
544.933	30.16
545.13	30.26
545.327	30.31
545.524	30.27
545.722	30.35
545.919	30.42
546.116	30.56
546.313	30.75
546.51	30.79
546.707	30.88
546.904	30.98
547.101	31.04
547.298	31.1
547.495	31.21
547.692	31.32
547.889	31.35
548.086	31.41
548.283	31.42
548.48	31.35
548.677	31.53
548.874	31.56
549.07	31.47
549.267	31.42
549.464	31.49
549.661	31.49
549.858	31.59
550.055	31.73
550.251	31.88
550.448	31.84
550.645	32.05
550.842	32.12
551.038	32.32
551.235	32.45
551.432	32.53
551.628	32.71
551.825	32.9
552.022	33
552.218	33.14
552.415	33.05
552.612	33.19
552.808	33.16
553.005	33
553.201	32.89
553.398	33.06
553.594	33.25
553.791	33.11
553.987	33.22
554.184	33.25
554.38	33.27
554.577	33.55
554.773	33.6
554.97	33.62
555.166	33.83
555.362	33.93
555.559	34.06
555.755	34.08
555.952	34.32
556.148	34.31
556.344	34.43
556.541	34.5
556.737	34.74
556.933	34.92
557.129	34.96
557.326	35.15
557.522	35.43
557.718	35.44
557.914	35.57
558.11	35.51
558.307	35.52
558.503	35.6
558.699	35.6
558.895	35.43
559.091	35.49
559.287	35.66
559.483	35.73
559.679	35.75
559.876	35.75
560.072	35.72
560.268	35.94
560.464	36
560.66	36.09
560.856	36.2
561.052	36.38
561.247	36.29
561.443	36.43
561.639	36.39
561.835	36.33
562.031	36.34
562.227	36.55
562.423	36.69
562.619	36.85
562.815	36.84
563.01	36.84
563.206	36.87
563.402	37.05
563.598	37.11
563.793	37.16
563.989	37.18
564.185	37.15
564.381	37.03
564.576	36.88
564.772	36.95
564.968	37.01
565.163	37.1
565.359	37.01
565.555	37.1
565.75	37.29
565.946	37.46
566.141	37.55
566.337	37.79
566.532	37.88
566.728	38.01
566.923	38.13
567.119	38.34
567.314	38.34
567.51	38.36
567.705	38.44
567.901	38.23
568.096	38.21
568.292	38.31
568.487	38.4
568.682	38.52
568.878	38.53
569.073	38.55
569.268	38.48
569.464	38.57
569.659	38.9
569.854	39
570.05	39.1
570.245	39.31
570.44	39.27
570.635	39.14
570.831	39.14
571.026	39.29
571.221	39.33
571.416	39.29
571.611	39.47
571.806	39.4
572.002	39.43
572.197	39.5
572.392	39.46
572.587	39.56
572.782	39.77
572.977	39.7
573.172	39.61
573.367	39.58
573.562	39.78
573.757	39.51
573.952	39.58
574.147	39.56
574.342	39.56
574.537	39.5
574.732	39.48
574.927	39.62
575.121	39.85
575.316	40.06
575.511	40.15
575.706	40.14
575.901	40.18
576.096	40.16
576.29	40.35
576.485	40.37
576.68	40.52
576.875	40.63
577.069	40.58
577.264	40.72
577.459	40.72
577.654	41
577.848	41.06
578.043	41.57
578.238	41.7
578.432	41.84
578.627	41.73
578.821	41.88
579.016	42.11
579.21	42.26
579.405	42.2
579.6	42.42
579.794	42.35
579.989	42.53
580.183	42.27
580.378	42.26
580.572	41.95
580.766	42.23
580.961	42.05
581.155	42.05
581.35	41.88
581.544	42.06
581.738	41.96
581.933	42.12
582.127	42.14
582.321	42.27
582.516	42.37
582.71	42.3
582.904	42.47
583.099	42.62
583.293	42.41
583.487	42.51
583.681	42.33
583.875	42.08
584.07	41.99
584.264	42.02
584.458	42.05
584.652	42.16
584.846	42.68
585.04	43.03
585.234	43.07
585.428	43.13
585.623	43.18
585.817	43.29
586.011	43.61
586.205	43.63
586.399	43.76
586.593	43.91
586.787	44.03
586.981	43.99
587.174	43.8
587.368	43.99
587.562	44.2
587.756	44.14
587.95	44.17
588.144	44
588.338	44.1
588.532	43.86
588.725	43.82
588.919	43.61
589.113	43.53
589.307	43.49
589.501	43.44
589.694	43.31
589.888	43.65
590.082	43.75
590.275	44
590.469	44.08
590.663	44.39
590.856	44.4
591.05	44.75
591.244	44.82
591.437	44.99
591.631	44.97
591.824	45.15
592.018	44.99
592.212	44.88
592.405	44.93
592.599	44.96
592.792	44.87
592.986	45.13
593.179	45.04
593.372	45.08
593.566	45.22
593.759	45.39
593.953	45.62
594.146	45.83
594.339	46.11
594.533	45.96
594.726	46.13
594.92	46.25
595.113	46.44
595.306	46.5
595.499	46.64
595.693	46.59
595.886	46.65
596.079	46.6
596.272	46.45
596.466	46.21
596.659	46.25
596.852	46.02
597.045	45.96
597.238	45.73
597.431	45.78
597.624	45.77
597.818	45.78
598.011	45.7
598.204	45.71
598.397	45.75
598.59	45.98
598.783	46.04
598.976	46.11
599.169	46.25
599.362	46.33
599.555	46.34
599.748	46.44
599.941	46.42
600.134	46.58
600.326	46.72
600.519	46.83
600.712	46.77
600.905	46.76
601.098	46.66
601.291	46.73
601.483	46.77
601.676	46.51
601.869	46.38
602.062	46.26
602.255	46.41
602.447	46.27
602.64	46.46
602.833	46.72
603.025	47.15
603.218	47.27
603.411	47.28
603.603	47.14
603.796	47.31
603.989	47.27
604.181	47.62
604.374	47.48
604.566	47.64
604.759	47.38
604.951	47.18
605.144	46.99
605.336	46.98
605.529	46.88
605.721	47.01
605.914	46.96
606.106	47.03
606.299	46.95
606.491	46.89
606.683	46.82
606.876	47.09
607.068	47.18
607.26	47.16
607.453	47.29
607.645	47.51
607.837	47.5
608.03	47.49
608.222	47.72
608.414	47.56
608.606	47.41
608.799	47.54
608.991	47.51
609.183	47.58
609.375	47.55
609.567	47.24
609.759	47.24
609.952	47.43
610.144	47.83
610.336	47.51
610.528	47.5
610.72	47.72
610.912	47.66
611.104	47.76
611.296	47.81
611.488	48.2
611.68	48.48
611.872	48.38
612.064	48.55
612.256	48.28
612.448	48.62
612.64	48.81
612.832	48.93
613.023	49.02
613.215	48.97
613.407	49.11
613.599	49.01
613.791	49.2
613.983	49.03
614.174	48.75
614.366	49.19
614.558	49.41
614.75	49
614.941	49.17
615.133	49.21
615.325	49.11
615.516	48.93
615.708	48.8
615.9	49
616.091	49.15
616.283	49.09
616.475	48.65
616.666	48.32
616.858	48.66
617.049	48.36
617.241	48.32
617.432	48.32
617.624	48.42
617.815	48.38
618.007	48.25
618.198	48.26
618.39	48.59
618.581	48.47
618.773	48.83
618.964	48.94
619.155	48.98
619.347	49.27
619.538	49.65
619.729	49.59
619.921	49.56
620.112	49.65
620.303	49.83
620.494	49.74
620.686	50.19
620.877	50.16
621.068	50.24
621.259	50.52
621.451	50.57
621.642	49.97
621.833	50.04
622.024	50.15
622.215	50.18
622.406	50.28
622.597	50.37
622.788	50
622.98	49.95
623.171	50.01
623.362	49.69
623.553	49.55
623.744	50.02
623.935	49.96
624.126	50.02
624.317	49.92
624.508	49.86
624.698	49.39
624.889	49.67
625.08	49.68
625.271	49.59
625.462	49.57
625.653	49.27
625.844	49.19
626.034	49.13
626.225	49.08
626.416	49.24
626.607	49.33
626.798	49.45
626.988	49.27
627.179	49.34
627.37	49.44
627.56	49.67
627.751	50
627.942	49.97
628.132	49.94
628.323	50.1
628.514	49.86
628.704	49.79
628.895	49.72
629.085	49.74
629.276	49.71
629.466	49.8
629.657	49.51
629.847	49.19
630.038	49.37
630.228	49.7
630.419	49.78
630.609	49.66
630.8	49.98
630.99	50.43
631.181	50.57
631.371	50.39
631.561	50.26
631.752	50.42
631.942	50.55
632.132	50.29
632.323	50.26
632.513	50.29
632.703	50.37
632.893	50.08
633.084	50.1
633.274	50
633.464	50.05
633.654	50.18
633.844	50.22
634.034	50.26
634.225	50.27
634.415	50.05
634.605	49.6
634.795	49.74
634.985	49.65
635.175	49.53
635.365	49.5
635.555	49.68
635.745	49.56
635.935	49.89
636.125	50.06
636.315	50.15
636.505	50.3
636.695	50.54
636.885	50.54
637.075	50.84
637.265	51.16
637.455	51.32
637.644	51.47
637.834	51.59
638.024	51.35
638.214	51.16
638.404	51.35
638.593	51.5
638.783	51.41
638.973	51.36
639.163	51.13
639.352	50.78
639.542	50.87
639.732	50.55
639.921	50.37
640.111	50.55
640.301	50.57
640.49	50.45
640.68	50.62
640.87	50.84
641.059	51.08
641.249	51.31
641.438	51.52
641.628	51.89
641.817	51.9
642.007	52.19
642.196	52.06
642.386	52.05
642.575	52.07
642.764	51.95
642.954	52.05
643.143	52.28
643.333	52.71
643.522	52.43
643.711	51.96
643.901	52.05
644.09	51.84
644.279	52.09
644.469	52.26
644.658	52.58
644.847	52.32
645.036	52.08
645.226	52.13
645.415	51.26
645.604	51.57
645.793	51.39
645.982	51.62
646.171	51.57
646.361	51.38
646.55	51.6
646.739	51.36
646.928	51.87
647.117	52.02
647.306	51.71
647.495	51.94
647.684	51.45
647.873	51.91
648.062	51.92
648.251	51.92
648.44	51.91
648.629	51.67
648.818	51.68
649.007	51.43
649.196	51.76
649.384	51.96
649.573	52.01
649.762	52.27
649.951	52.06
650.14	51.93
650.328	51.76
650.517	51.47
650.706	51.56
650.895	51.64
651.083	51.56
651.272	51.35
651.461	51.23
651.65	51.63
651.838	51.69
652.027	51.71
652.216	51.73
652.404	51.76
652.593	52.32
652.781	52.42
652.97	52.3
653.158	52.36
653.347	52.4
653.535	52.13
653.724	52.11
653.912	52.38
654.101	52.28
654.289	52.17
654.478	52.45
654.666	52.23
654.855	52.37
655.043	52.32
655.231	52.15
655.42	52.27
655.608	52.47
655.796	52.41
655.985	52.32
656.173	52.64
656.361	52.72
656.55	52.48
656.738	52.49
656.926	52.34
657.114	52.3
657.302	52.27
657.491	52.38
657.679	52.31
657.867	52.14
658.055	52.13
658.243	52.09
658.431	52.27
658.619	52.75
658.807	52.46
658.996	52.43
659.184	52.6
659.372	52.75
659.56	52.39
659.748	52.94
659.936	53
660.124	52.94
660.311	52.71
660.499	52.29
660.687	52.29
660.875	52.39
661.063	52.41
661.251	52.44
661.439	52.44
661.627	52.91
661.814	52.23
662.002	52.44
662.19	52.56
662.378	53.08
662.565	53.24
662.753	52.99
662.941	53.04
663.129	53.06
663.316	53.24
663.504	53.13
663.692	52.78
663.879	53.18
664.067	52.65
664.254	52.63
664.442	52.26
664.63	52.32
664.817	52.54
665.005	52.87
665.192	53.28
665.38	53.2
665.567	53.16
665.755	53.21
665.942	53.03
666.13	53.34
666.317	53
666.504	53.15
666.692	53.35
666.879	53.19
667.067	53.14
667.254	52.52
667.441	52.18
667.629	52.03
667.816	51.9
668.003	52.18
668.19	51.79
668.378	52.31
668.565	52.57
668.752	52.51
668.939	52.37
669.127	52.61
669.314	52.98
669.501	53.24
669.688	53.81
669.875	54.09
670.062	54.28
670.249	54.82
670.436	54.76
670.623	54.16
670.81	54.21
670.997	54.61
671.184	54.1
671.371	54.21
671.558	54.26
671.745	53.99
671.932	53.64
672.119	53.71
672.306	53.79
672.493	54.04
672.68	54.84
672.867	55.15
673.054	55.09
673.24	55.37
673.427	54.97
673.614	54.87
673.801	55.11
673.988	55.81
674.174	55.25
674.361	54.74
674.548	54.34
674.734	53.83
674.921	53.28
675.108	53.36
675.294	53.22
675.481	53.39
675.668	53.55
675.854	53.22
676.041	52.85
676.227	52.98
676.414	52.95
676.601	53.41
676.787	54.06
676.974	54.22
677.16	54
677.347	54.16
677.533	54.39
677.719	54.3
677.906	54.37
678.092	54.34
678.279	54.33
678.465	54.72
678.651	54.68
678.838	54.53
679.024	55
679.21	55.13
679.397	55.47
679.583	55.13
679.769	55.01
679.955	55.05
680.142	54.83
680.328	54.76
680.514	54.87
680.7	54.72
680.886	54.14
681.073	53.93
681.259	53.8
681.445	53.61
681.631	53.45
681.817	53.38
682.003	53.29
682.189	53.35
682.375	53.6
682.561	53.29
682.747	53.37
682.933	53.74
683.119	53.97
683.305	54.06
683.491	53.81
683.677	54.53
683.863	54.8
684.049	55.35
684.235	55.46
684.42	55.41
684.606	55.55
684.792	55.69
684.978	55.92
685.164	55.63
685.349	55.23
685.535	55.8
685.721	55.06
685.907	54.91
686.092	54.5
686.278	54.55
686.464	54.24
686.649	54.62
686.835	54.2
687.021	54.2
687.206	53.81
687.392	54.32
687.577	53.73
687.763	54.28
687.948	54.56
688.134	54.52
688.319	54.56
688.505	55.09
688.69	54.39
688.876	54.77
689.061	54.8
689.247	55.03
689.432	55.09
689.618	55.18
689.803	54.75
689.988	54.81
690.174	54.93
690.359	54.79
690.544	54.76
690.73	55.03
690.915	54.48
691.1	53.97
691.285	54.09
691.471	53.77
691.656	53.78
691.841	54.27
692.026	53.8
692.211	54.16
692.396	54.38
692.582	54.38
692.767	54.59
692.952	54.62
693.137	54.96
693.322	55.35
693.507	55.74
693.692	55.94
693.877	55.43
694.062	55.41
694.247	54.66
694.432	54.38
694.617	54.35
694.802	54.52
694.987	54.67
695.172	54.39
695.357	53.93
695.541	53.67
695.726	53.56
695.911	54.14
696.096	54.43
696.281	54.81
696.466	54.94
696.65	54.23
696.835	54.33
697.02	54.24
697.204	54.69
697.389	55.08
697.574	55.08
697.759	54.81
697.943	54.2
698.128	54.45
698.312	54.41
698.497	54.53
698.682	55.04
698.866	54.67
699.051	54.71
699.235	54.55
699.42	54.21
699.604	54.19
699.789	54.59
699.973	54.93
700.158	54.42
700.342	54.36
700.527	54.43
700.711	54.29
700.895	54.6
701.08	54.23
701.264	53.89
701.448	53.92
701.633	53.66
701.817	53.08
702.001	53.11
702.186	53.5
702.37	53.88
702.554	53.83
702.738	53.51
702.923	53.36
703.107	53.69
703.291	54.18
703.475	54.39
703.659	54.59
703.843	55.12
704.027	55.43
704.212	55.63
704.396	55.35
704.58	55.76
704.764	56.55
704.948	56.67
705.132	56.96
705.316	56.84
705.5	57.36
705.684	57.66
705.868	57.94
706.052	57.83
706.235	57.82
706.419	57.74
706.603	57.44
706.787	56.96
706.971	56.87
707.155	56.77
707.339	56.44
707.522	55.71
707.706	55.62
707.89	55.23
708.074	54.75
708.257	54.82
708.441	54.93
708.625	54.56
708.808	54.67
708.992	54.56
709.176	54.7
709.359	55.25
709.543	55.62
709.727	55.73
709.91	56.12
710.094	56.36
710.277	56.41
710.461	56.43
710.644	56.43
710.828	56.37
711.011	56.71
711.195	57.04
711.378	57.04
711.562	56.63
711.745	56.47
711.928	55.6
712.112	55.62
712.295	55.35
712.478	54.81
712.662	54.79
712.845	55.32
713.028	54.69
713.212	54.52
713.395	54.46
713.578	54.72
713.761	54.86
713.945	55.3
714.128	55.33
714.311	55.89
714.494	55.73
714.677	56.1
714.86	55.51
715.043	55.5
715.227	55.15
715.41	55.03
715.593	54.82
715.776	54.87
715.959	54.88
716.142	55.66
716.325	55.05
716.508	55.76
716.691	55.83
716.874	56.1
717.057	56.88
717.239	57.47
717.422	56.66
717.605	56.91
717.788	56.74
717.971	56.85
718.154	55.83
718.337	56.05
718.519	55.73
718.702	55.33
718.885	55.17
719.068	55.28
719.25	54.67
719.433	56.21
719.616	55.57
719.798	55.92
719.981	55.83
720.164	55.92
720.346	55.15
720.529	55.01
720.712	55.56
720.894	55.63
721.077	55.35
721.259	56.29
721.442	55.94
721.624	56.78
721.807	56.9
721.989	56.93
722.172	57.38
722.354	58.4
722.537	58.38
722.719	58.13
722.901	57.88
723.084	57.27
723.266	56.72
723.448	55.83
723.631	55.96
723.813	55.35
723.995	54.63
724.178	53.9
724.36	53.88
724.542	53.8
724.724	53.79
724.907	53.27
725.089	53.07
725.271	53.33
725.453	54.07
725.635	53.88
725.817	54.92
725.999	56.02
726.181	55.79
726.364	55.7
726.546	56.43
726.728	56.35
726.91	56.96
727.092	57.18
727.274	57.2
727.456	57.5
727.638	57.33
727.819	56.63
728.001	56.72
728.183	56.89
728.365	55.91
728.547	56.28
728.729	56.67
728.911	57.21
729.093	57.66
729.274	56.8
729.456	56.74
729.638	57.3
729.82	57.02
730.001	56.52
730.183	57.53
730.365	58.07
730.546	58.03
730.728	57.73
730.91	57.15
731.091	56.74
731.273	57.06
731.455	56.8
731.636	56
731.818	55.99
731.999	56.39
732.181	56.09
732.362	56.2
732.544	55.9
732.725	55.63
732.907	55.59
733.088	56.44
733.27	57.09
733.451	57.13
733.633	58.34
733.814	58.74
733.995	58.87
734.177	58.78
734.358	58.45
734.539	58.21
734.721	58.75
734.902	59.55
735.083	59.34
735.264	58.96
735.446	58.39
735.627	57.46
735.808	56.84
735.989	57.19
736.17	57.19
736.351	57.57
736.533	57.81
736.714	57.38
736.895	57.96
737.076	58.11
737.257	57.88
737.438	58.26
737.619	57.77
737.8	57.83
737.981	56.97
738.162	57.24
738.343	57.28
738.524	56.71
738.705	56.69
738.886	55.72
739.067	55.82
739.247	55.71
739.428	55.81
739.609	57.04
739.79	57.59
739.971	57.98
740.151	57.43
740.332	57.76
740.513	58.55
740.694	58.53
740.874	57.92
741.055	57.21
741.236	57.38
741.417	57.52
741.597	56.54
741.778	56.09
741.958	55.51
742.139	55.51
742.32	55.64
742.5	55.22
742.681	55.19
742.861	55.81
743.042	55.15
743.222	55.42
743.403	54.72
743.583	55.1
743.764	54.91
743.944	56
744.124	55.89
744.305	56.45
744.485	56.56
744.666	56.7
744.846	57.02
745.026	57.07
745.207	56.77
745.387	57.42
745.567	57.45
745.747	58.58
745.928	58.1
746.108	59.04
746.288	58.42
746.468	58.5
746.648	58.64
746.829	57.61
747.009	58.45
747.189	58.1
747.369	58.58
747.549	58.4
747.729	57.97
747.909	57
748.089	55.91
748.269	55.41
748.449	55.42
748.629	56.22
748.809	56.28
748.989	56.22
749.169	57.01
749.349	56.43
749.529	56.73
749.709	57.84
749.889	58.81
750.068	59.53
750.248	60.79
750.428	61.7
750.608	60.6
750.788	61.23
750.967	61.21
751.147	60.95
751.327	61.68
751.507	61.91
751.686	60.97
751.866	60.71
752.046	60.84
752.225	60.1
752.405	59.32
752.585	59.32
752.764	59.12
752.944	58.55
753.123	59.08
753.303	58.2
753.482	57.62
753.662	57.17
753.841	56.73
754.021	56.71
754.2	57.27
754.38	56.59
754.559	57.1
754.739	57.31
754.918	58.83
755.097	59.03
755.277	58.01
755.456	58.18
755.635	57.92
755.815	58.5
755.994	57.6
756.173	56.63
756.352	57.92
756.532	57.23
756.711	57.16
756.89	57.05
757.069	56.33
757.248	57.33
757.427	56.82
757.607	57.46
757.786	57.01
757.965	56.65
758.144	56.02
758.323	55.22
758.502	56.61
758.681	56.87
758.86	55.63
759.039	56.1
759.218	56.6
759.397	56.85
759.576	57.4
759.755	57.71
759.934	58.71
760.113	59.47
760.291	60.24
760.47	59.06
760.649	57.61
760.828	57.72
761.007	57.03
761.186	56.78
761.364	56.03
761.543	55.04
761.722	54.91
761.901	54.85
762.079	54.71
762.258	54.89
762.437	55.14
762.615	56.42
762.794	56.85
762.972	56.64
763.151	56.45
763.33	57.19
763.508	57.56
763.687	57.83
763.865	57.47
764.044	57.71
764.222	56.5
764.401	56.41
764.579	55.89
764.758	55.71
764.936	55.8
765.114	56.5
765.293	56.59
765.471	56.32
765.65	56.25
765.828	56.59
766.006	55.36
766.184	55.38
766.363	55.27
766.541	55.89
766.719	55.96
766.898	56.04
767.076	56.31
767.254	56.63
767.432	56.46
767.61	57.09
767.788	57.27
767.967	59.5
768.145	61.05
768.323	61.16
768.501	61.65
768.679	63.17
768.857	63.48
769.035	63.2
769.213	62.94
769.391	63.09
769.569	62.64
769.747	63.08
769.925	62.18
770.103	62.33
770.281	61.26
770.459	61.44
770.636	60.56
770.814	61.15
770.992	60.14
771.17	59.85
771.348	60.83
771.525	60.9
771.703	60.88
771.881	62.35
772.059	60.57
772.236	60.89
772.414	59.75
772.592	58.94
772.769	58.78
772.947	58.32
773.125	60.61
773.302	60.02
773.48	59.25
773.657	58.3
773.835	58.55
774.013	59.31
774.19	60.7
774.368	60.01
774.545	60.19
774.723	58.48
774.9	59.26
775.077	57.28
775.255	56.53
775.432	58.28
775.61	58.07
775.787	57.05
775.964	57.87
776.142	58.21
776.319	61.17
776.496	61.71
776.674	64.95
776.851	65.14
777.028	64.98
777.205	67.24
777.382	64.23
777.56	64.64
777.737	65.16
777.914	64.08
778.091	64.34
778.268	62.45
778.445	61.36
778.622	59.13
778.8	58.61
778.977	58.59
779.154	65.89
779.331	67.24
779.508	68.15
779.685	67.99
779.862	69.24
780.038	68.33
780.215	67.66
780.392	69.24
780.569	71.26
780.746	71.63
780.923	71.82
781.1	64.03
781.277	64.2
781.453	62.58
781.63	61.23
781.807	61.29
781.984	60.68
782.16	60.46
782.337	60.67
782.514	59.98
782.691	60.82
782.867	60.62
783.044	59.85
783.221	60.54
783.397	61.49
783.574	61.64
783.75	62.66
783.927	63.95
784.103	65.12
784.28	63.36
784.456	62.64
784.633	60.88
784.809	60.77
784.986	60.37
785.162	59.47
785.339	58.84
785.515	59.72
785.692	58.94
785.868	59
786.044	56.89
786.221	57.59
786.397	58.27
786.573	58.93
786.749	58.7
786.926	58.45
787.102	58.34
787.278	59.19
787.454	59.8
787.631	59.97
787.807	58.13
787.983	58.58
788.159	58.1
788.335	57.73
788.511	57.16
788.687	57.85
788.863	57.27
789.039	56.99
789.216	55.72
789.392	54.79
789.568	54.04
789.744	55.16
789.919	55.12
790.095	56.64
790.271	55.73
790.447	56.7
790.623	54.67
790.799	55.57
790.975	55.46
791.151	54.59
791.327	54.06
791.502	54.39
791.678	54.85
791.854	55.67
792.03	53.2
792.205	54.71
792.381	54.66
792.557	56.25
792.733	55.7
792.908	56.11
793.084	59.38
793.259	59.35
793.435	57.16
793.611	58.32
793.786	58.15
793.962	59.88
794.137	57.61
794.313	56.52
794.488	58.99
794.664	59.09
794.839	61.35
795.015	59.45
795.19	60.15
795.366	63.14
795.541	59.79
795.716	56.87
795.892	54.78
796.067	55.42
796.242	54.74
796.418	52.76
796.593	53.85
796.768	52.64
796.944	52.54
797.119	51.69
797.294	50.12
797.469	52.72
797.644	54.62
797.82	56.59
797.995	58.28
798.17	59.55
798.345	59.12
798.52	58.02
798.695	57.72
798.87	58.64
799.045	59.44
799.22	60.77
799.395	60
799.57	61.28
799.745	60.13
799.92	57.89
800.095	57.21
800.27	58.48
800.445	58.3
800.62	56.12
800.795	55.74
800.97	56.11
801.145	54.52
801.319	55.94
801.494	55.83
801.669	57.48
801.844	58.97
802.018	60.64
802.193	61.27
802.368	62.35
802.543	64.54
802.717	63.22
802.892	60.76
803.067	60.71
803.241	58.92
803.416	58.45
803.59	59.42
803.765	60.87
803.94	61.02
804.114	57.91
804.289	58.52
804.463	59.04
804.638	59.34
804.812	61.05
804.986	61.64
805.161	62.72
805.335	61.95
805.51	60.56
805.684	58.24
805.858	57.62
806.033	57.86
806.207	54.66
806.381	52.85
806.556	54.19
806.73	52.99
806.904	52.12
807.078	51.02
807.253	54.26
807.427	52.16
807.601	51.37
807.775	51.41
807.949	51.79
808.123	54.57
808.298	54.86
808.472	54.57
808.646	56.32
808.82	58.56
808.994	59.77
809.168	58.14
809.342	57.57
809.516	60.25
809.69	60.8
809.864	61.4
810.038	60.5
810.212	61.1
810.385	59.07
810.559	58.58
810.733	56.31
810.907	58.87
811.081	56.56
811.255	60.01
811.428	61.65
811.602	58.83
811.776	59.4
811.95	57
812.123	56.41
812.297	57.37
812.471	57.32
812.644	58.56
812.818	55.18
812.992	57.2
813.165	56.82
813.339	53.47
813.512	51.75
813.686	51.85
813.86	56.77
814.033	57.99
814.207	58.35
814.38	58.7
814.554	58.91
814.727	59.38
814.9	57.07
815.074	54.94
815.247	54.81
815.421	59.26
815.594	59.78
815.767	58.71
815.941	58.79
816.114	57.9
816.287	56.78
816.46	54.24
816.634	51.72
816.807	53.22
816.98	53.69
817.153	52.86
817.327	52.33
817.5	52.23
817.673	51.49
817.846	51.83
818.019	54.18
818.192	53.7
818.365	55.89
818.538	60
818.711	57.89
818.884	57.23
819.057	59.29
819.23	58.76
819.403	55.37
819.576	57.36
819.749	55.35
819.922	54.57
820.095	55.53
820.268	55.88
820.441	53.59
820.614	54.83
820.786	56.41
820.959	55.57
821.132	55.28
821.305	57.84
821.477	56.47
821.65	58.02
821.823	57.24
821.996	57.04
822.168	57.23
822.341	57.94
822.514	57.46
822.686	57.58
822.859	57.09
823.031	56.39
823.204	56.2
823.376	55.88
823.549	55.2
823.722	55.21
823.894	55.42
824.067	55.09
824.239	54.43
824.411	54.67
824.584	53.75
824.756	54.06
824.929	55.03
825.101	54.91
825.273	55.12
825.446	55.05
825.618	55.39
825.79	55.37
825.963	54.72
826.135	54.97
826.307	55.28
826.479	56.38
826.652	55.59
826.824	54.89
826.996	53.98
827.168	54.79
827.34	55.22
827.512	55.13
827.684	55.33
827.856	55.61
828.029	55.34
828.201	55
828.373	54.78
828.545	55.82
828.717	55.43
828.889	57
829.061	56.98
829.232	57.59
829.404	57.75
829.576	58.39
829.748	59.4
829.92	60.99
830.092	61.26
830.264	61.1
830.436	61.63
830.607	63.02
830.779	62.13
830.951	63.03
831.123	62.31
831.294	63.59
831.466	62.12
831.638	61.24
831.809	59.84
831.981	62.4
832.153	62.26
832.324	62.24
832.496	62.26
832.667	63.02
832.839	61.27
833.011	61.26
833.182	59.37
833.354	60.12
833.525	62.61
833.697	61.49
833.868	59.17
834.039	58.49
834.211	57.2
834.382	56.96
834.554	56.35
834.725	56.9
834.896	56.67
835.068	55.66
835.239	55.89
835.41	54.37
835.581	56.13
835.753	55.63
835.924	55.36
836.095	55.92
836.266	55.35
836.438	54.71
836.609	55.46
836.78	54.51
836.951	55.1
837.122	53.46
837.293	51.97
837.464	53.23
837.635	53.39
837.806	54.37
837.977	52.65
838.148	55.15
838.319	55.76
838.49	53.96
838.661	55.24
838.832	56.84
839.003	56.44
839.174	60.58
839.345	57.3
839.516	56.43
839.687	57.3
839.857	56.4
840.028	56.16
840.199	54.07
840.37	51.44
840.54	50.64
840.711	49.91
840.882	50.91
841.053	48.66
841.223	47.24
841.394	50.64
841.564	50.78
841.735	57.82
841.906	55.42
842.076	61.14
842.247	63.76
842.417	62.92
842.588	65.61
842.758	65.63
842.929	69.78
843.099	73.34
843.27	69.93
843.44	67.13
843.611	65.56
843.781	62.17
843.951	60.53
844.122	59.27
844.292	64.94
844.462	62.53
844.633	68.17
844.803	65.13
844.973	59.79
845.144	58.63
845.314	58.1
845.484	56.72
845.654	60.36
845.824	58.13
845.995	56.37
846.165	48.66
846.335	50.92
846.505	46.47
846.675	47.71
846.845	47.13
847.015	50.37
847.185	52.95
847.355	52.95
847.525	58.57
847.695	59.24
847.865	62.9
848.035	65.15
848.205	59.78
848.375	67.48
848.545	61.15
848.715	67.3
848.884	64.88
849.054	74.9
849.224	71.14
849.394	62.81
849.564	59.41
849.733	59.01
849.903	66.36
850.073	64.02
850.243	59.6
850.412	56.28
850.582	56.27
850.752	57.41
850.921	41.6
851.091	46.63
851.26	57.02
851.43	62.75
851.599	63.23
851.769	61.17
851.939	67.75
852.108	68.99
852.278	66.34
852.447	57.7
852.616	58.13
852.786	73.36
852.955	63.69
853.125	48.32
853.294	49.75
853.463	50.92
853.633	55.2
853.802	60.09
853.971	68.59
854.141	81.35
854.31	94.94
854.479	82.93
854.648	69.87
854.818	82.3
854.987	85.24
855.156	84.92
855.325	84.37
855.494	74.13
855.663	70.81
855.832	62.43
856.001	64.39
856.171	64.51
856.34	68.28
856.509	71.84
856.678	73.42
856.847	77.93
857.016	68.69
857.185	68.68
857.353	67.82
857.522	71.5
857.691	62.19
857.86	70.68
858.029	71.79
858.198	71.29
858.367	68.63
858.535	67.51
858.704	69.09
858.873	73.08
859.042	72.77
859.21	82.85
859.379	70.51
859.548	80.77
859.717	81.47
859.885	74.59
860.054	82.72
860.222	80.06
860.391	80.46
860.56	74.85
860.728	74.73
860.897	70.06
861.065	66.26
861.234	68.05
861.402	60.49
861.571	54.31
861.739	58.16
861.908	63.31
862.076	58.94
862.244	64.36
862.413	65.81
862.581	63.89
862.749	66.2
862.918	72.99
863.086	84.4
863.254	90.77
863.423	100.09
863.591	101.98
863.759	92.17
863.927	93.3
864.096	77.97
864.264	80.45
864.432	85.77
864.6	83.26
864.768	79.22
864.936	65.76
865.104	60.6
865.272	51.27
865.44	46.37
865.608	40.8
865.776	50.24
865.944	50.96
866.112	51.24
866.28	41.78
866.448	46.92
866.616	39.35
866.784	48.48
866.952	51.01
867.12	57.98
867.288	55.32
867.455	56.97
867.623	57.45
867.791	63.12
867.959	57.9
868.127	58.43
868.294	60.68
868.462	64.3
868.63	62.88
868.797	63.66
868.965	59.66
869.133	56.66
869.3	58.93
869.468	54.59
869.636	52.69
869.803	50.19
869.971	50.47
870.138	43.84
870.306	43.8
870.473	42.28
870.641	44.43
870.808	44.7
870.975	46.79
871.143	45.91
871.31	54.18
871.478	54.97
871.645	58.97
871.812	62.02
871.98	65.99
872.147	63.72
872.314	64.69
872.482	68.26
872.649	72.8
872.816	72.88
872.983	68.95
873.15	47.35
873.318	44.35
873.485	44.17
873.652	34.08
873.819	36.21
873.986	36.83
874.153	36.57
874.32	37.1
874.487	29.21
874.654	37.91
874.821	40.57
874.988	55.77
875.155	54.52
875.322	51.48
875.489	58.23
875.656	48.79
875.823	50.88
875.99	49.22
876.157	40.24
876.324	39.24
876.49	37
876.657	38.88
876.824	31.16
876.991	29.98
877.157	32.63
877.324	23.43
877.491	37.36
877.658	39.78
877.824	53.93
877.991	64.82
878.157	64.53
878.324	63.79
878.491	59.1
878.657	64.49
878.824	69.8
878.99	77.88
879.157	77.58
879.323	79.42
879.49	80.61
879.656	77.72
879.823	79.67
879.989	91.95
880.156	93.13
880.322	88.59
880.488	86.18
880.655	84.56
880.821	72.84
880.987	74.73
881.154	73.96
881.32	67.86
881.486	64.53
881.652	63.73
881.819	61.42
881.985	59.62
882.151	62.25
882.317	59.89
882.483	58.76
882.649	60.97
882.816	58
882.982	56.05
883.148	56.35
883.314	54.17
883.48	54.21
883.646	53.38
883.812	53.35
883.978	52.88
884.144	52.42
884.31	51.96
884.476	52.21
884.642	52.8
884.807	51.02
884.973	49.53
885.139	50.45
885.305	50.42
885.471	50.24
885.637	49.73
885.802	48.44
885.968	49.21
886.134	49.67
886.3	48.08
886.465	48.69
886.631	51.07
886.797	53.73
886.962	52.15
887.128	49.92
887.293	51.92
887.459	51.3
887.625	51.94
887.79	46.11
887.956	38.96
888.121	37.11
888.287	33.81
888.452	32.96
888.618	23.13
888.783	25.26
