Data from LC_239_Reflection_4.txt Node
Date: Thu Nov 19 22:26:03 EST 2015
User: robert
Spectrometer: USB4E03001
Autoset integration time: false
Trigger mode: 4
Integration Time (sec): 1.000000E-1
Scans to average: 15
Electric dark correction enabled: true
Nonlinearity correction enabled: false
Boxcar width: 5
Stray light correction enabled: false
XAxis mode: Wavelengths
Stop averaging: false
Number of Pixels in Spectrum: 3648
>>>>>Begin Spectral Data<<<<<
177.566	-81.18
177.785	-41.42
178.005	-0.14
178.225	12.55
178.445	30.12
178.665	18.22
178.885	92.94
179.105	620.83
179.324	207.13
179.544	238.24
179.764	123.73
179.984	92.36
180.204	241.97
180.423	200.33
180.643	166.33
180.863	83.63
181.083	96.15
181.302	54.26
181.522	73.86
181.742	101.95
181.961	104.88
182.181	161.01
182.401	249.17
182.621	240.45
182.84	437.93
183.06	299.51
183.279	350.73
183.499	239.59
183.719	749
183.938	2186.2
184.158	-777.6
184.377	-724.64
184.597	238.54
184.816	-716.98
185.036	49.68
185.256	-769.44
185.475	40.14
185.695	75.54
185.914	124.29
186.134	231.03
186.353	234.62
186.572	251.23
186.792	587.86
187.011	-4090.36
187.231	-1343.1
187.45	-1694.77
187.67	-150.66
187.889	-125.73
188.108	-68.09
188.328	-94.43
188.547	-364.27
188.766	-363.01
188.986	-458.69
189.205	3778.43
189.424	140.46
189.644	202.18
189.863	128.02
190.082	90.51
190.302	111.97
190.521	109.9
190.74	90.76
190.959	79.53
191.178	85.57
191.398	85.61
191.617	84.69
191.836	239
192.055	57.09
192.274	48.68
192.494	79.58
192.713	62.51
192.932	50.48
193.151	79.7
193.37	104.66
193.589	141.6
193.808	129.52
194.027	147.38
194.246	141.68
194.465	164.56
194.685	167.37
194.904	155.82
195.123	168.54
195.342	227.93
195.561	176.31
195.78	133.11
195.999	114.64
196.218	107.06
196.436	95.12
196.655	72.99
196.874	66.36
197.093	76.35
197.312	83.03
197.531	73.06
197.75	126.59
197.969	124.8
198.188	-264.17
198.407	-55.36
198.625	-141.36
198.844	-33.79
199.063	-1004.67
199.282	-105.9
199.501	-147.89
199.719	-230.68
199.938	-100.1
200.157	-324.36
200.376	-446.03
200.594	1909.23
200.813	1450.55
201.032	1124.91
201.251	1234.51
201.469	715.24
201.688	304.72
201.907	454.13
202.125	1609.73
202.344	372.61
202.563	416.9
202.781	353.96
203	278.42
203.218	257.36
203.437	267.62
203.656	311.67
203.874	368.01
204.093	309.11
204.311	98.79
204.53	118.82
204.748	120.29
204.967	147.17
205.185	174.03
205.404	202.38
205.622	231.02
205.841	186.11
206.059	212.59
206.278	263.24
206.496	307.03
206.715	442.72
206.933	423.96
207.151	294.13
207.37	348.53
207.588	359.3
207.806	328.07
208.025	314.17
208.243	426.53
208.461	531.4
208.68	254.83
208.898	243.36
209.116	82.87
209.335	96.6
209.553	22.72
209.771	-627.73
209.989	-137.5
210.208	356.24
210.426	337.13
210.644	45.74
210.862	67.42
211.081	130.02
211.299	99.63
211.517	157.35
211.735	121.96
211.953	108.88
212.171	95.6
212.39	111.8
212.608	114.4
212.826	110.61
213.044	119.19
213.262	119.47
213.48	123.15
213.698	138.99
213.916	182.67
214.134	158.36
214.352	220.08
214.57	325.37
214.788	618.9
215.006	468.75
215.224	355.71
215.442	702.03
215.66	288.34
215.878	483.91
216.096	468.02
216.314	463.28
216.532	749.03
216.75	1730.7
216.968	-237.6
217.185	-783.96
217.403	-1232.22
217.621	-3354.22
217.839	304.83
218.057	187.82
218.275	121.92
218.492	153.79
218.71	138.83
218.928	124.88
219.146	111.4
219.363	90.63
219.581	109.08
219.799	106.56
220.017	116.88
220.234	120.58
220.452	142.46
220.67	160.2
220.887	122.85
221.105	109.83
221.323	112.65
221.54	100.05
221.758	106.13
221.976	90.33
222.193	91.9
222.411	69.46
222.629	78.89
222.846	59.95
223.064	77.36
223.281	77.86
223.499	74.07
223.716	57.32
223.934	50.32
224.151	35.22
224.369	33
224.586	28.98
224.804	46.71
225.021	45.78
225.239	43.9
225.456	20.18
225.674	15.29
225.891	17.29
226.108	25.38
226.326	20.83
226.543	27.07
226.76	19.54
226.978	22.67
227.195	14.05
227.413	1.82
227.63	4.76
227.847	8.06
228.064	8.99
228.282	10.33
228.499	9.32
228.716	10.04
228.934	10.46
229.151	13.17
229.368	9.29
229.585	9.27
229.802	8.09
230.02	7.57
230.237	6.88
230.454	6.06
230.671	3.68
230.888	3.48
231.105	1.65
231.323	0.87
231.54	-3.52
231.757	-1.85
231.974	-1.68
232.191	1.84
232.408	0.63
232.625	2.65
232.842	5.35
233.059	10.36
233.276	14.28
233.493	13.82
233.71	13.19
233.927	15.04
234.144	16.01
234.361	9.19
234.578	9.86
234.795	12.18
235.012	14
235.229	7.8
235.446	10.08
235.663	4.91
235.879	8.94
236.096	6.29
236.313	4.33
236.53	3.04
236.747	8.07
236.964	9.97
237.181	10.37
237.397	12.4
237.614	17.56
237.831	16.9
238.048	18.89
238.264	16.52
238.481	17.39
238.698	20.01
238.915	28.56
239.131	23.91
239.348	21.72
239.565	19.25
239.781	19.14
239.998	16.27
240.215	11.76
240.431	11.16
240.648	10.84
240.865	9.99
241.081	6.55
241.298	4.02
241.514	6.3
241.731	6.65
241.947	6.6
242.164	4.24
242.38	4.56
242.597	5.2
242.814	4.3
243.03	4.09
243.246	5.8
243.463	6.37
243.679	4.92
243.896	3.89
244.112	3.27
244.329	1.93
244.545	3.03
244.762	3.77
244.978	3.43
245.194	3.36
245.411	4.4
245.627	1.72
245.843	1.54
246.06	3.83
246.276	3.96
246.492	3.73
246.709	4.8
246.925	4.27
247.141	4.2
247.357	4.21
247.574	3.95
247.79	3.87
248.006	4.96
248.222	5.61
248.439	5.58
248.655	6.08
248.871	7.19
249.087	6.53
249.303	6.81
249.519	6.89
249.736	7.91
249.952	8.86
250.168	8.26
250.384	8.34
250.6	7.8
250.816	6.71
251.032	5.92
251.248	5.94
251.464	7.31
251.68	6.89
251.896	7.68
252.112	6.99
252.328	6.41
252.544	5.77
252.76	5.04
252.976	5.97
253.192	6.19
253.408	6.93
253.624	6.46
253.84	5.68
254.056	6.94
254.272	5.38
254.487	6
254.703	10.19
254.919	12.32
255.135	12.58
255.351	13.22
255.567	15.6
255.782	13.71
255.998	14.08
256.214	13.26
256.43	11.42
256.646	14.37
256.861	12.78
257.077	10.41
257.293	9.04
257.508	9.42
257.724	9.18
257.94	6.89
258.155	7.48
258.371	6.35
258.587	5.97
258.802	4.91
259.018	3.49
259.234	4.02
259.449	3.75
259.665	3.65
259.88	3.6
260.096	3.09
260.312	1.94
260.527	1.66
260.743	1.41
260.958	1.21
261.174	1.91
261.389	2.57
261.605	2.34
261.82	2.06
262.036	1.88
262.251	1.07
262.466	1.44
262.682	2.94
262.897	4.1
263.113	3.81
263.328	6.26
263.543	5.51
263.759	4
263.974	4.62
264.189	5.94
264.405	5.8
264.62	5.49
264.835	5.1
265.051	4.46
265.266	3.45
265.481	5.24
265.696	4.38
265.912	3.1
266.127	4.13
266.342	4.17
266.557	4.11
266.773	4.77
266.988	5.82
267.203	5.75
267.418	6.14
267.633	6.09
267.848	5.07
268.064	4.34
268.279	4.67
268.494	4.88
268.709	3.7
268.924	2.82
269.139	3.52
269.354	3.11
269.569	2.32
269.784	2.87
269.999	2.17
270.214	3.08
270.429	2.79
270.644	3.73
270.859	2.56
271.074	2.4
271.289	2.48
271.504	2.45
271.719	2.39
271.934	3.02
272.149	2.38
272.363	2.63
272.578	2.86
272.793	3.37
273.008	3.12
273.223	3.9
273.438	4.85
273.653	4.98
273.867	4
274.082	4.05
274.297	3.61
274.512	4.24
274.726	5.03
274.941	4.36
275.156	2.24
275.371	2.39
275.585	1.68
275.8	1.27
276.015	1.51
276.229	2.52
276.444	2.56
276.659	3.22
276.873	1.99
277.088	1.87
277.302	1.67
277.517	3.61
277.732	4.37
277.946	5.2
278.161	4.76
278.375	4.63
278.59	4.17
278.804	4.27
279.019	3.09
279.233	3.55
279.448	4.41
279.662	4.77
279.877	3.77
280.091	3.75
280.306	2.73
280.52	3.1
280.735	3.52
280.949	3.14
281.163	3.3
281.378	3.92
281.592	6.51
281.806	6
282.021	6.05
282.235	6.79
282.449	6.17
282.664	6.86
282.878	6.82
283.092	5.96
283.307	7.47
283.521	6.95
283.735	6.93
283.949	4.85
284.164	4.46
284.378	4.02
284.592	3.78
284.806	4.1
285.02	3.01
285.234	2.79
285.449	2.71
285.663	1.89
285.877	2.22
286.091	2.25
286.305	2.18
286.519	2.57
286.733	3.03
286.947	2.88
287.161	2.06
287.375	3.13
287.589	2.46
287.803	3.08
288.017	3.42
288.231	4.25
288.445	3.66
288.659	4.11
288.873	2.72
289.087	1.8
289.301	2.24
289.515	1.76
289.729	0.88
289.943	1.68
290.157	2.22
290.371	1.7
290.584	0.67
290.798	1.33
291.012	1.05
291.226	1.78
291.44	4.13
291.654	3.75
291.867	4.61
292.081	4.17
292.295	4.45
292.509	3.92
292.722	4.61
292.936	4.02
293.15	3.38
293.364	5.18
293.577	5.54
293.791	3.67
294.005	3.63
294.218	3.91
294.432	4.27
294.645	4.06
294.859	3.89
295.073	2.77
295.286	3.5
295.5	2.7
295.713	1.04
295.927	1.26
296.14	0.61
296.354	0.16
296.568	0.22
296.781	0.43
296.994	0.63
297.208	0.23
297.421	1.36
297.635	2.18
297.848	3.28
298.062	3.93
298.275	3.74
298.489	4.5
298.702	5.18
298.915	5.26
299.129	5.82
299.342	6.12
299.555	6.46
299.769	5.5
299.982	4.47
300.195	4.18
300.409	3.73
300.622	3.35
300.835	3.61
301.048	3.46
301.262	3.08
301.475	1.73
301.688	0.61
301.901	1.11
302.115	0.86
302.328	0.81
302.541	0.34
302.754	0.13
302.967	0.39
303.18	-0.06
303.393	-0.22
303.607	0.02
303.82	0.47
304.033	1.53
304.246	1.45
304.459	2.41
304.672	3.28
304.885	4.16
305.098	4.41
305.311	4.43
305.524	4.6
305.737	4.8
305.95	5.09
306.163	4.24
306.376	3.88
306.589	3.14
306.802	1.82
307.015	1.47
307.228	1.44
307.44	1.79
307.653	2.08
307.866	2.12
308.079	2.2
308.292	2.01
308.505	3.74
308.718	2.75
308.93	2.37
309.143	3.16
309.356	2.68
309.569	2.29
309.781	1.88
309.994	1.58
310.207	0.79
310.42	1.95
310.632	1.77
310.845	0.66
311.058	2.51
311.27	2.82
311.483	2.77
311.696	2.99
311.908	3.18
312.121	3.04
312.333	2.64
312.546	3.16
312.759	2.67
312.971	3.26
313.184	4.6
313.396	3.94
313.609	4.91
313.821	5.18
314.034	5.27
314.246	3.98
314.459	4.48
314.671	6.14
314.884	6.69
315.096	5.79
315.309	5.48
315.521	4.89
315.733	4.82
315.946	5.35
316.158	5.95
316.371	6.03
316.583	7.62
316.795	6.73
317.008	5.94
317.22	5.36
317.432	5.55
317.644	5.52
317.857	4.42
318.069	3.28
318.281	2.57
318.494	3.7
318.706	2.91
318.918	2.7
319.13	3.16
319.342	1.88
319.555	1.62
319.767	2.88
319.979	2.3
320.191	3.44
320.403	5.2
320.615	4.85
320.827	3.06
321.039	3.02
321.252	3.16
321.464	4.2
321.676	5.29
321.888	5.16
322.1	4.78
322.312	5.52
322.524	6.38
322.736	5.32
322.948	6.74
323.16	6.71
323.372	7.21
323.584	6.58
323.796	6.03
324.007	6.17
324.219	6.3
324.431	5.19
324.643	4.95
324.855	4.56
325.067	5.32
325.279	5.42
325.491	5.96
325.702	6.26
325.914	6.46
326.126	7.16
326.338	7.62
326.55	7.99
326.761	8.47
326.973	8.34
327.185	7.94
327.396	8.4
327.608	7.23
327.82	6.41
328.032	5.76
328.243	6.15
328.455	5.87
328.666	6.4
328.878	6.09
329.09	6.61
329.301	7.26
329.513	7.43
329.725	5.82
329.936	6.2
330.148	6.34
330.359	7.58
330.571	7.55
330.782	6.62
330.994	6.33
331.205	6.12
331.417	6.12
331.628	5.63
331.84	5.85
332.051	6.1
332.262	6.17
332.474	7.32
332.685	7.04
332.897	8.02
333.108	8.14
333.319	8.04
333.531	8.57
333.742	8.09
333.953	7.94
334.165	8.58
334.376	9.54
334.587	9.67
334.799	8.98
335.01	8.41
335.221	7.03
335.432	8.06
335.644	7.02
335.855	6.94
336.066	8.55
336.277	8.49
336.488	7.8
336.7	6.52
336.911	6.22
337.122	7.23
337.333	8.98
337.544	8.99
337.755	7.97
337.966	7.61
338.177	8
338.388	6.76
338.599	6.8
338.811	6.97
339.022	6.97
339.233	6.9
339.444	6.42
339.655	5.11
339.866	5.87
340.076	6.8
340.287	7.58
340.498	7.03
340.709	7.49
340.92	7.39
341.131	7.03
341.342	8.01
341.553	8.52
341.764	7.79
341.975	7.61
342.185	7.58
342.396	6.96
342.607	7.2
342.818	7.38
343.029	7.54
343.239	7.52
343.45	7.93
343.661	7.8
343.872	7.18
344.082	7.54
344.293	8.6
344.504	8.32
344.714	8.89
344.925	9.04
345.136	8.47
345.346	8.33
345.557	8.9
345.768	8.44
345.978	8.12
346.189	8.07
346.399	8.03
346.61	6.61
346.821	6.87
347.031	6.6
347.242	6.51
347.452	7.51
347.663	6.99
347.873	8.05
348.084	8.51
348.294	8.76
348.504	9.93
348.715	10.49
348.925	11.33
349.136	11.02
349.346	10.71
349.557	11.11
349.767	10.94
349.977	11.18
350.188	10.29
350.398	9.65
350.608	9.9
350.819	9.96
351.029	9.66
351.239	9.34
351.449	8.79
351.66	8.77
351.87	8.08
352.08	7.58
352.29	7.94
352.501	7.77
352.711	7.75
352.921	7.84
353.131	6.52
353.341	5.95
353.552	6.32
353.762	6.66
353.972	6.91
354.182	7.08
354.392	7.37
354.602	6.81
354.812	6.77
355.022	7.28
355.232	6.98
355.442	7.23
355.652	8.17
355.862	7.57
356.072	7.87
356.282	8.68
356.492	8.63
356.702	8.43
356.912	8.69
357.122	8.48
357.332	8.76
357.542	8.36
357.752	8.64
357.962	8.25
358.171	8.93
358.381	9.4
358.591	8.37
358.801	8.49
359.011	8.55
359.221	8.79
359.43	9.15
359.64	8.88
359.85	9.12
360.06	9.28
360.269	9.31
360.479	8.63
360.689	8.14
360.899	8.65
361.108	8.68
361.318	8.68
361.528	8
361.737	8.05
361.947	7.88
362.156	7.97
362.366	8.02
362.576	7.85
362.785	7.8
362.995	7.41
363.204	7.61
363.414	7.86
363.623	8.22
363.833	8.74
364.042	8.55
364.252	9.23
364.461	8.73
364.671	8.7
364.88	9.31
365.09	9.79
365.299	10.28
365.509	9.77
365.718	9.32
365.927	9.66
366.137	9.7
366.346	10.02
366.555	9.56
366.765	10.32
366.974	10.11
367.183	9.53
367.393	9.08
367.602	9.95
367.811	10.37
368.021	10.8
368.23	9.6
368.439	9.38
368.648	9.24
368.857	9.64
369.067	9.6
369.276	10.25
369.485	9.73
369.694	9.64
369.903	8.95
370.112	8.49
370.321	8.1
370.531	8.8
370.74	8.83
370.949	8.81
371.158	8.35
371.367	8.28
371.576	7.35
371.785	8.11
371.994	8.61
372.203	8.29
372.412	8.72
372.621	8.63
372.83	8.39
373.039	8.71
373.248	8.87
373.457	9.21
373.666	8.98
373.874	9.6
374.083	9.42
374.292	9.23
374.501	9.75
374.71	9.4
374.919	9.24
375.128	9.3
375.336	8.55
375.545	8.63
375.754	8.57
375.963	8.76
376.171	8.57
376.38	8.52
376.589	8.23
376.798	7.61
377.006	7.94
377.215	8.3
377.424	7.81
377.632	8.15
377.841	7.96
378.05	8.17
378.258	7.93
378.467	7.62
378.675	7.68
378.884	7.98
379.093	8.53
379.301	8.49
379.51	8.36
379.718	9.11
379.927	8.93
380.135	9
380.344	8.82
380.552	9.17
380.761	9.37
380.969	9.46
381.177	9.3
381.386	8.85
381.594	8.9
381.803	8.76
382.011	8.36
382.219	8.69
382.428	8.7
382.636	8.52
382.845	8
383.053	7.78
383.261	7.61
383.469	8.09
383.678	8.01
383.886	7.7
384.094	8.07
384.302	8.23
384.511	7.79
384.719	7.54
384.927	7.81
385.135	8.38
385.343	8.66
385.552	8.6
385.76	8.4
385.968	8.47
386.176	8.59
386.384	8.52
386.592	8.58
386.8	9.27
387.008	9.3
387.216	9.21
387.424	8.84
387.633	8.9
387.841	8.85
388.049	8.76
388.257	8.68
388.465	8.44
388.672	8.41
388.88	8.02
389.088	7.89
389.296	8.02
389.504	7.66
389.712	7.93
389.92	7.8
390.128	7.94
390.336	7.94
390.544	8.16
390.751	8.17
390.959	7.98
391.167	8.37
391.375	8.17
391.583	7.87
391.79	7.78
391.998	7.76
392.206	7.64
392.414	7.85
392.621	7.77
392.829	7.9
393.037	8.29
393.244	8.27
393.452	8.11
393.66	7.92
393.867	8.18
394.075	8.46
394.283	8.17
394.49	8.06
394.698	7.93
394.905	8.1
395.113	8.1
395.32	7.86
395.528	7.99
395.735	8.05
395.943	8.21
396.15	7.99
396.358	7.84
396.565	8.09
396.773	8.05
396.98	7.95
397.188	7.98
397.395	7.75
397.602	7.73
397.81	7.4
398.017	7.16
398.225	6.99
398.432	6.93
398.639	6.85
398.847	6.89
399.054	7
399.261	6.89
399.468	6.59
399.676	6.35
399.883	5.93
400.09	6.25
400.297	6.44
400.505	6.81
400.712	7.07
400.919	7.38
401.126	7.3
401.333	7.48
401.54	7.39
401.748	7.71
401.955	7.95
402.162	8.31
402.369	8.38
402.576	8.43
402.783	8.14
402.99	8.05
403.197	7.81
403.404	7.65
403.611	7.79
403.818	7.93
404.025	7.91
404.232	7.76
404.439	7.96
404.646	8.01
404.853	8.12
405.06	8.12
405.267	8.52
405.474	8.59
405.681	8.95
405.887	8.95
406.094	8.81
406.301	8.73
406.508	9.03
406.715	8.86
406.922	8.4
407.128	8.09
407.335	8.12
407.542	7.82
407.749	7.74
407.955	7.7
408.162	7.69
408.369	8.05
408.575	8.16
408.782	8.11
408.989	7.93
409.195	8.11
409.402	8.25
409.609	8.31
409.815	8.22
410.022	8.22
410.228	8.15
410.435	8.14
410.642	8.02
410.848	7.79
411.055	7.59
411.261	8.06
411.468	8.1
411.674	8.12
411.881	8.38
412.087	8.26
412.294	8.39
412.5	8.07
412.706	7.98
412.913	8.08
413.119	8.14
413.326	8.42
413.532	8.06
413.738	7.93
413.945	7.81
414.151	7.66
414.357	8.07
414.564	8.01
414.77	8.12
414.976	8.13
415.182	7.81
415.389	7.88
415.595	7.47
415.801	7.58
416.007	7.73
416.214	7.88
416.42	7.68
416.626	7.47
416.832	7.73
417.038	7.77
417.244	7.68
417.45	7.85
417.657	7.88
417.863	8.26
418.069	8.08
418.275	8.15
418.481	8.07
418.687	8.15
418.893	8.15
419.099	7.96
419.305	8.11
419.511	8.1
419.717	8.02
419.923	8
420.129	7.71
420.335	7.87
420.541	7.88
420.746	7.79
420.952	7.86
421.158	7.84
421.364	7.81
421.57	7.67
421.776	7.75
421.982	7.78
422.187	7.78
422.393	7.86
422.599	7.78
422.805	7.7
423.01	7.7
423.216	7.59
423.422	7.51
423.628	7.51
423.833	7.5
424.039	7.26
424.245	7.22
424.45	7.27
424.656	7.38
424.862	7.39
425.067	7.37
425.273	7.55
425.478	7.64
425.684	7.82
425.889	7.92
426.095	7.98
426.301	8.28
426.506	8.46
426.712	8.41
426.917	8.49
427.123	8.6
427.328	8.63
427.533	8.64
427.739	8.59
427.944	8.53
428.15	8.4
428.355	8.41
428.561	8.3
428.766	8.23
428.971	8.19
429.177	8.03
429.382	8.14
429.587	8.21
429.793	8.27
429.998	8.24
430.203	8.18
430.408	8.39
430.614	8.41
430.819	8.54
431.024	8.62
431.229	8.73
431.434	8.73
431.64	8.6
431.845	8.76
432.05	8.87
432.255	8.95
432.46	9.03
432.665	9.06
432.87	9.01
433.076	9.04
433.281	8.92
433.486	9.09
433.691	9.17
433.896	9.11
434.101	8.98
434.306	8.84
434.511	8.95
434.716	9.11
434.921	9.14
435.126	9.44
435.331	9.36
435.535	9.56
435.74	9.39
435.945	9.42
436.15	9.58
436.355	9.75
436.56	9.76
436.765	9.74
436.97	9.6
437.174	9.65
437.379	9.44
437.584	9.58
437.789	9.5
437.993	9.44
438.198	9.35
438.403	9.16
438.608	9.2
438.812	9.28
439.017	9.3
439.222	9.32
439.426	9.24
439.631	9.31
439.836	9.44
440.04	9.5
440.245	9.76
440.45	9.82
440.654	10.02
440.859	9.94
441.063	10.04
441.268	10.09
441.472	10.18
441.677	10.25
441.881	10.28
442.086	10.1
442.29	10.18
442.495	10.12
442.699	10.22
442.904	10.27
443.108	10.41
443.312	10.38
443.517	10.31
443.721	10.5
443.925	10.5
444.13	10.7
444.334	10.94
444.538	10.8
444.743	10.87
444.947	10.89
445.151	10.85
445.356	10.86
445.56	10.87
445.764	10.96
445.968	10.93
446.173	11.03
446.377	10.9
446.581	10.88
446.785	10.95
446.989	10.92
447.193	10.96
447.398	10.94
447.602	10.88
447.806	10.98
448.01	11.05
448.214	11.07
448.418	11.06
448.622	11.03
448.826	11.07
449.03	11.17
449.234	11.09
449.438	11.11
449.642	11.18
449.846	11.41
450.05	11.38
450.254	11.38
450.458	11.3
450.662	11.33
450.866	11.52
451.069	11.61
451.273	11.57
451.477	11.77
451.681	11.88
451.885	11.99
452.089	12.02
452.292	12.03
452.496	12.09
452.7	12.19
452.904	12.17
453.107	12.22
453.311	12.37
453.515	12.44
453.719	12.55
453.922	12.52
454.126	12.53
454.33	12.47
454.533	12.32
454.737	12.31
454.94	12.31
455.144	12.37
455.348	12.37
455.551	12.34
455.755	12.34
455.958	12.26
456.162	12.31
456.365	12.46
456.569	12.36
456.772	12.55
456.976	12.67
457.179	12.7
457.383	12.8
457.586	12.85
457.79	12.65
457.993	12.72
458.196	12.69
458.4	12.77
458.603	12.67
458.807	12.74
459.01	12.72
459.213	12.8
459.417	12.83
459.62	12.73
459.823	12.66
460.026	12.66
460.23	12.68
460.433	12.68
460.636	12.61
460.839	12.66
461.042	12.68
461.246	12.81
461.449	12.69
461.652	12.7
461.855	12.75
462.058	12.86
462.261	13.03
462.464	13.06
462.668	13.11
462.871	13.31
463.074	13.3
463.277	13.36
463.48	13.34
463.683	13.54
463.886	13.62
464.089	13.86
464.292	13.84
464.495	13.94
464.698	14.01
464.901	14.21
465.104	14.24
465.306	14.3
465.509	14.38
465.712	14.38
465.915	14.23
466.118	14.24
466.321	14.08
466.524	14.17
466.726	14.01
466.929	14.04
467.132	13.9
467.335	13.82
467.538	13.72
467.74	13.58
467.943	13.54
468.146	13.68
468.348	13.73
468.551	13.79
468.754	13.82
468.956	14.07
469.159	14.07
469.362	14.22
469.564	14.35
469.767	14.69
469.969	14.88
470.172	15.04
470.375	14.84
470.577	14.89
470.78	15.02
470.982	15.17
471.185	15.18
471.387	15.1
471.59	15.15
471.792	14.89
471.995	14.93
472.197	14.95
472.399	15.04
472.602	15.23
472.804	15.18
473.007	15.04
473.209	14.77
473.411	14.74
473.614	14.89
473.816	14.99
474.018	15.19
474.22	15.04
474.423	15.07
474.625	14.9
474.827	14.93
475.03	14.94
475.232	15.05
475.434	15.36
475.636	15.33
475.838	15.48
476.04	15.35
476.243	15.3
476.445	15.31
476.647	15.35
476.849	15.52
477.051	15.55
477.253	15.58
477.455	15.68
477.657	15.48
477.859	15.46
478.061	15.31
478.263	15.38
478.465	15.41
478.667	15.49
478.869	15.63
479.071	15.42
479.273	15.4
479.475	15.33
479.677	15.23
479.879	15.42
480.081	15.4
480.283	15.34
480.485	15.27
480.686	15.35
480.888	15.23
481.09	15.07
481.292	15.18
481.494	15.15
481.695	15.25
481.897	15.17
482.099	14.99
482.301	14.92
482.502	14.78
482.704	14.63
482.906	14.53
483.107	14.48
483.309	14.39
483.511	14.3
483.712	14.19
483.914	14.16
484.115	14.11
484.317	14.12
484.519	14.11
484.72	14.17
484.922	14.24
485.123	14.28
485.325	14.34
485.526	14.42
485.728	14.49
485.929	14.58
486.131	14.56
486.332	14.73
486.534	14.77
486.735	14.79
486.936	14.74
487.138	14.71
487.339	14.64
487.541	14.65
487.742	14.62
487.943	14.66
488.144	14.69
488.346	14.79
488.547	14.75
488.748	14.81
488.95	14.94
489.151	14.99
489.352	15.04
489.553	15.26
489.755	15.29
489.956	15.4
490.157	15.43
490.358	15.45
490.559	15.42
490.76	15.41
490.961	15.36
491.163	15.29
491.364	15.3
491.565	15.36
491.766	15.29
491.967	15.4
492.168	15.42
492.369	15.42
492.57	15.45
492.771	15.55
492.972	15.65
493.173	15.86
493.374	16.05
493.575	16.22
493.776	16.27
493.976	16.42
494.177	16.52
494.378	16.76
494.579	17
494.78	17.15
494.981	17.25
495.182	17.36
495.382	17.24
495.583	17.18
495.784	17.16
495.985	17.44
496.185	17.46
496.386	17.45
496.587	17.48
496.788	17.42
496.988	17.52
497.189	17.51
497.39	17.65
497.59	17.75
497.791	17.84
497.992	17.89
498.192	17.78
498.393	17.77
498.593	17.8
498.794	17.71
498.994	17.76
499.195	17.79
499.395	17.8
499.596	17.71
499.796	17.58
499.997	17.57
500.197	17.68
500.398	17.92
500.598	17.93
500.799	18.01
500.999	18.04
501.199	18.27
501.4	18.2
501.6	18.13
501.801	18.21
502.001	18.3
502.201	18.31
502.402	18.29
502.602	18.21
502.802	18.26
503.002	18.34
503.203	18.35
503.403	18.18
503.603	18.25
503.803	18.52
504.003	18.54
504.204	18.74
504.404	18.79
504.604	18.94
504.804	18.93
505.004	18.93
505.204	18.81
505.404	18.95
505.604	19.01
505.804	19.11
506.005	19.06
506.205	19.12
506.405	18.87
506.605	18.94
506.805	18.79
507.005	18.83
507.204	18.89
507.404	18.98
507.604	18.87
507.804	18.87
508.004	18.87
508.204	18.87
508.404	18.68
508.604	18.81
508.804	18.75
509.003	18.82
509.203	18.68
509.403	18.53
509.603	18.47
509.803	18.58
510.002	18.52
510.202	18.33
510.402	18.28
510.602	18.33
510.801	18.4
511.001	18.43
511.201	18.37
511.4	18.44
511.6	18.67
511.8	18.69
511.999	18.56
512.199	18.78
512.398	18.9
512.598	19.04
512.797	19.13
512.997	19.08
513.197	19.19
513.396	19.35
513.596	19.38
513.795	19.22
513.994	19.36
514.194	19.65
514.393	19.55
514.593	19.65
514.792	19.73
514.992	19.74
515.191	19.86
515.39	19.8
515.59	19.86
515.789	19.85
515.988	19.97
516.188	19.85
516.387	19.69
516.586	19.64
516.786	19.47
516.985	19.22
517.184	19.15
517.383	18.95
517.582	18.75
517.782	18.47
517.981	18.43
518.18	18.22
518.379	18.1
518.578	18.03
518.777	17.9
518.976	17.9
519.176	17.93
519.375	17.93
519.574	17.96
519.773	18.08
519.972	18.29
520.171	18.26
520.37	18.46
520.569	18.68
520.768	18.77
520.967	18.84
521.166	19.02
521.365	19.21
521.564	19.31
521.762	19.33
521.961	19.47
522.16	19.41
522.359	19.64
522.558	19.62
522.757	19.46
522.956	19.5
523.154	19.49
523.353	19.44
523.552	19.25
523.751	19.1
523.949	19.11
524.148	18.88
524.347	18.71
524.546	18.53
524.744	18.36
524.943	18.33
525.142	18.1
525.34	18
525.539	17.86
525.737	17.72
525.936	17.73
526.135	17.55
526.333	17.42
526.532	17.29
526.73	17.1
526.929	16.97
527.127	16.66
527.326	16.44
527.524	16.24
527.723	15.97
527.921	15.75
528.12	15.53
528.318	15.41
528.516	15.3
528.715	15.18
528.913	15.15
529.112	15.08
529.31	15.11
529.508	15.13
529.707	15.14
529.905	15.29
530.103	15.49
530.301	15.54
530.5	15.65
530.698	15.79
530.896	16.02
531.094	16.11
531.293	16.2
531.491	16.33
531.689	16.47
531.887	16.6
532.085	16.51
532.283	16.29
532.481	16.19
532.68	16.14
532.878	16.05
533.076	15.96
533.274	15.85
533.472	15.83
533.67	15.73
533.868	15.66
534.066	15.63
534.264	15.67
534.462	15.87
534.66	16.01
534.858	16
535.056	16.17
535.253	16.24
535.451	16.43
535.649	16.66
535.847	16.8
536.045	16.88
536.243	17.02
536.441	17.09
536.638	17.05
536.836	17.09
537.034	17.27
537.232	17.32
537.43	17.45
537.627	17.46
537.825	17.49
538.023	17.64
538.22	17.74
538.418	17.86
538.616	17.98
538.813	18.15
539.011	18.32
539.209	18.36
539.406	18.34
539.604	18.14
539.801	18.13
539.999	17.9
540.196	17.66
540.394	17.55
540.591	17.19
540.789	16.96
540.986	16.68
541.184	16.48
541.381	16.37
541.579	16.23
541.776	16.21
541.974	16.18
542.171	16.15
542.368	16.2
542.566	16.19
542.763	16.38
542.96	16.52
543.158	16.75
543.355	17
543.552	17.17
543.75	17.51
543.947	17.82
544.144	18.08
544.341	18.51
544.539	18.81
544.736	19.16
544.933	19.35
545.13	19.63
545.327	19.92
545.524	19.99
545.722	20.18
545.919	20.2
546.116	20.22
546.313	20.31
546.51	20.19
546.707	20.13
546.904	20.11
547.101	20.19
547.298	20.14
547.495	20.08
547.692	20.21
547.889	20.24
548.086	20.33
548.283	20.54
548.48	20.64
548.677	20.85
548.874	21.19
549.07	21.46
549.267	21.55
549.464	21.94
549.661	22.18
549.858	22.41
550.055	22.5
550.251	22.67
550.448	22.62
550.645	22.79
550.842	22.92
551.038	22.79
551.235	22.8
551.432	22.9
551.628	22.76
551.825	22.65
552.022	22.44
552.218	22.56
552.415	22.44
552.612	22.36
552.808	22.22
553.005	22.18
553.201	22.22
553.398	22.23
553.594	21.93
553.791	21.87
553.987	22.06
554.184	21.99
554.38	21.93
554.577	22.09
554.773	22.33
554.97	22.57
555.166	22.74
555.362	22.79
555.559	22.8
555.755	23.25
555.952	23.52
556.148	23.36
556.344	23.84
556.541	23.96
556.737	23.94
556.933	23.95
557.129	23.84
557.326	23.92
557.522	24.12
557.718	24.27
557.914	24.44
558.11	24.28
558.307	24.4
558.503	24.2
558.699	24.41
558.895	24.52
559.091	24.49
559.287	24.5
559.483	24.5
559.679	24.52
559.876	24.42
560.072	24.24
560.268	24.39
560.464	24.36
560.66	24.49
560.856	24.37
561.052	24.31
561.247	24.49
561.443	24.63
561.639	24.3
561.835	24.35
562.031	24.39
562.227	24.33
562.423	24.39
562.619	24.62
562.815	24.7
563.01	24.67
563.206	24.68
563.402	24.57
563.598	24.63
563.793	25.07
563.989	25.04
564.185	24.9
564.381	24.97
564.576	24.97
564.772	24.81
564.968	24.42
565.163	24.37
565.359	24.22
565.555	24.06
565.75	23.68
565.946	23.37
566.141	23.12
566.337	23.08
566.532	23.14
566.728	22.94
566.923	22.81
567.119	22.95
567.314	22.89
567.51	22.99
567.705	23.02
567.901	23.31
568.096	23.54
568.292	23.65
568.487	23.56
568.682	23.46
568.878	23.55
569.073	23.68
569.268	23.74
569.464	23.92
569.659	23.97
569.854	23.96
570.05	23.81
570.245	23.5
570.44	23.37
570.635	23.5
570.831	23.4
571.026	23.27
571.221	23.07
571.416	22.8
571.611	22.57
571.806	22.19
572.002	22.04
572.197	21.72
572.392	21.8
572.587	21.85
572.782	21.68
572.977	21.73
573.172	21.85
573.367	21.75
573.562	21.97
573.757	22
573.952	22.19
574.147	22.24
574.342	22.46
574.537	22.42
574.732	22.47
574.927	22.54
575.121	22.5
575.316	22.51
575.511	22.7
575.706	22.74
575.901	22.75
576.096	22.9
576.29	23.2
576.485	23.36
576.68	23.47
576.875	23.56
577.069	23.83
577.264	24.04
577.459	24.12
577.654	24.4
577.848	24.61
578.043	25.06
578.238	25.34
578.432	25.25
578.627	25.51
578.821	25.96
579.016	26.19
579.21	26.46
579.405	26.59
579.6	26.74
579.794	27.06
579.989	27.38
580.183	27.27
580.378	27.41
580.572	27.65
580.766	27.98
580.961	27.9
581.155	28.15
581.35	28.3
581.544	28.54
581.738	28.7
581.933	28.98
582.127	28.88
582.321	29.25
582.516	29.71
582.71	29.91
582.904	29.97
583.099	30.22
583.293	30.24
583.487	30.31
583.681	30.72
583.875	30.99
584.07	30.96
584.264	31.25
584.458	31.44
584.652	31.33
584.846	31.62
585.04	31.74
585.234	32.27
585.428	32.44
585.623	32.75
585.817	32.63
586.011	33
586.205	33.16
586.399	33.39
586.593	33.42
586.787	33.44
586.981	33.75
587.174	33.78
587.368	33.73
587.562	34.01
587.756	33.99
587.95	34.14
588.144	33.81
588.338	33.73
588.532	33.6
588.725	33.84
588.919	33.91
589.113	33.87
589.307	33.83
589.501	33.75
589.694	33.72
589.888	33.82
590.082	34.06
590.275	34.41
590.469	34.73
590.663	35.02
590.856	35.17
591.05	35.48
591.244	35.78
591.437	36.34
591.631	36.75
591.824	36.98
592.018	37.12
592.212	37.34
592.405	37.68
592.599	37.94
592.792	38.49
592.986	38.75
593.179	39.02
593.372	39.19
593.566	39.25
593.759	39.29
593.953	39.25
594.146	39.55
594.339	39.52
594.533	39.46
594.726	39.37
594.92	38.76
595.113	38.67
595.306	38.42
595.499	38.13
595.693	37.74
595.886	37.55
596.079	37.39
596.272	36.94
596.466	36.91
596.659	36.59
596.852	36.28
597.045	36.28
597.238	36.01
597.431	35.98
597.624	36.15
597.818	36.54
598.011	36.82
598.204	37.35
598.397	38.08
598.59	38.51
598.783	39.28
598.976	40.15
599.169	41.02
599.362	41.86
599.555	42.65
599.748	43.43
599.941	44.12
600.134	44.69
600.326	45.13
600.519	45.41
600.712	45.64
600.905	45.74
601.098	46.06
601.291	46
601.483	46.07
601.676	46
601.869	45.65
602.062	45.15
602.255	44.93
602.447	44.53
602.64	43.97
602.833	43.59
603.025	43.2
603.218	42.2
603.411	41.57
603.603	41.01
603.796	40.46
603.989	39.83
604.181	39.5
604.374	39.15
604.566	38.98
604.759	38.74
604.951	38.6
605.144	38.63
605.336	39.2
605.529	39.55
605.721	40.08
605.914	40.7
606.106	41.26
606.299	42.11
606.491	42.77
606.683	43.44
606.876	44.62
607.068	45.56
607.26	46.18
607.453	46.65
607.645	47.13
607.837	47.33
608.03	47.43
608.222	47.86
608.414	47.52
608.606	47.56
608.799	47.64
608.991	47.53
609.183	47.6
609.375	47.82
609.567	48.15
609.759	48.49
609.952	49.28
610.144	50.25
610.336	51.5
610.528	52.86
610.72	54.11
610.912	55.42
611.104	56.69
611.296	57.84
611.488	59.04
611.68	60.13
611.872	61.44
612.064	62.16
612.256	62.48
612.448	62.62
612.64	62.85
612.832	63.14
613.023	63.28
613.215	63.3
613.407	63.11
613.599	63.38
613.791	63.48
613.983	63.45
614.174	63.42
614.366	63.77
614.558	63.41
614.75	63.39
614.941	63.37
615.133	63.44
615.325	63.39
615.516	63.59
615.708	63.31
615.9	62.94
616.091	62.78
616.283	62.68
616.475	62.41
616.666	62.63
616.858	62.79
617.049	62.49
617.241	62.16
617.432	62.01
617.624	61.92
617.815	61.76
618.007	61.85
618.198	61.71
618.39	61.6
618.581	61.53
618.773	61.66
618.964	61.41
619.155	61.45
619.347	61.24
619.538	61.54
619.729	61.66
619.921	62.02
620.112	62.17
620.303	62.29
620.494	62.76
620.686	63.11
620.877	63.02
621.068	63.23
621.259	63.38
621.451	64.05
621.642	64.21
621.833	64.44
622.024	64.64
622.215	64.82
622.406	64.98
622.597	64.73
622.788	64.7
622.98	64.82
623.171	65.07
623.362	65.19
623.553	65.38
623.744	65.51
623.935	65.65
624.126	65.88
624.317	65.73
624.508	65.53
624.698	65.49
624.889	65.15
625.08	65.03
625.271	64.4
625.462	63.96
625.653	62.83
625.844	61.89
626.034	61.07
626.225	60.07
626.416	59.39
626.607	58.92
626.798	58.44
626.988	57.95
627.179	57.33
627.37	57.19
627.56	56.98
627.751	57.31
627.942	57.76
628.132	58.21
628.323	58.62
628.514	59.14
628.704	59.89
628.895	60.4
629.085	61.54
629.276	62.66
629.466	63.28
629.657	64.23
629.847	64.95
630.038	65.42
630.228	65.89
630.419	66.61
630.609	67.39
630.8	67.67
630.99	68.5
631.181	68.69
631.371	68.93
631.561	69.1
631.752	69.17
631.942	69.18
632.132	69.18
632.323	69.08
632.513	68.61
632.703	67.9
632.893	67.44
633.084	66.69
633.274	66.24
633.464	65.95
633.654	66
633.844	65.6
634.034	65.36
634.225	65.14
634.415	65.34
634.605	65.26
634.795	65.8
634.985	66.03
635.175	66.34
635.365	66.86
635.555	67.14
635.745	67.05
635.935	67.53
636.125	67.93
636.315	68.67
636.505	68.86
636.695	69.75
636.885	70.17
637.075	70.98
637.265	71.42
637.455	71.66
637.644	71.96
637.834	72.6
638.024	72.69
638.214	73.35
638.404	73.79
638.593	74.17
638.783	74.39
638.973	74.57
639.163	74.72
639.352	75.42
639.542	75.57
639.732	75.97
639.921	76.37
640.111	76.8
640.301	76.79
640.49	77.16
640.68	77.1
640.87	77.52
641.059	77.93
641.249	78.4
641.438	78.5
641.628	79.18
641.817	79.37
642.007	79.87
642.196	80.48
642.386	80.97
642.575	81.23
642.764	82.34
642.954	82.42
643.143	82.62
643.333	82.4
643.522	82.47
643.711	82.1
643.901	82.39
644.09	82.83
644.279	83.22
644.469	83.01
644.658	82.89
644.847	82.2
645.036	82.19
645.226	82.17
645.415	82.16
645.604	82.24
645.793	82.54
645.982	82.41
646.171	81.96
646.361	81.78
646.55	82.1
646.739	81.74
646.928	82.07
647.117	82.45
647.306	82.4
647.495	82.36
647.684	82.69
647.873	83.15
648.062	83.5
648.251	83.54
648.44	83.22
648.629	83.23
648.818	83.91
649.007	83.9
649.196	83.81
649.384	83.54
649.573	83.57
649.762	83.27
649.951	82.95
650.14	82.79
650.328	82.6
650.517	82.57
650.706	82.65
650.895	82.06
651.083	81.69
651.272	80.74
651.461	80.98
651.65	81.33
651.838	81
652.027	80.55
652.216	80.39
652.404	80.67
652.593	80.81
652.781	80.41
652.97	80.49
653.158	80.89
653.347	81.98
653.535	82.12
653.724	81.95
653.912	82.6
654.101	83.64
654.289	84.3
654.478	84.64
654.666	85.17
654.855	85.43
655.043	86.05
655.231	86.52
655.42	86.47
655.608	86.72
655.796	87.14
655.985	87.22
656.173	86.91
656.361	86.28
656.55	86.1
656.738	85.7
656.926	85.96
657.114	85.44
657.302	84.14
657.491	83.18
657.679	81.96
657.867	80.81
658.055	79.77
658.243	78.45
658.431	77.13
658.619	75.55
658.807	73.95
658.996	72.84
659.184	71.76
659.372	71.42
659.56	70.86
659.748	70.77
659.936	70.81
660.124	70.54
660.311	70.99
660.499	71.47
660.687	72.5
660.875	73.8
661.063	74.51
661.251	75.74
661.439	77.22
661.627	78.83
661.814	80.05
662.002	81.23
662.19	82.98
662.378	83.86
662.565	85.09
662.753	86.11
662.941	87.37
663.129	88.17
663.316	89
663.504	89.14
663.692	89.72
663.879	90.51
664.067	90.74
664.254	90.66
664.442	91.19
664.63	91.65
664.817	91.98
665.005	91.83
665.192	92.35
665.38	92.43
665.567	93.13
665.755	93.3
665.942	93.87
666.13	94.29
666.317	94.71
666.504	95.15
666.692	95.17
666.879	95.43
667.067	96.02
667.254	95.93
667.441	95.58
667.629	94.98
667.816	94.54
668.003	93.86
668.19	93.72
668.378	93.59
668.565	92.89
668.752	92.85
668.939	92.25
669.127	92.02
669.314	92.34
669.501	92.3
669.688	92.25
669.875	92.51
670.062	92.94
670.249	93.1
670.436	93.08
670.623	94.21
670.81	94.67
670.997	95.41
671.184	95.81
671.371	96.12
671.558	96.74
671.745	97.67
671.932	97.95
672.119	97.74
672.306	98.24
672.493	98.6
672.68	98.58
672.867	98.59
673.054	98.78
673.24	99.08
673.427	99.41
673.614	99.49
673.801	99.58
673.988	99.92
674.174	100.2
674.361	100.11
674.548	100.58
674.734	100.37
674.921	100.92
675.108	100.88
675.294	100.86
675.481	100.47
675.668	100.63
675.854	100.48
676.041	100.59
676.227	100.69
676.414	101.01
676.601	100.54
676.787	100.86
676.974	100.23
677.16	99.59
677.347	99.01
677.533	98.65
677.719	98.11
677.906	97.22
678.092	96.24
678.279	95.16
678.465	93.73
678.651	92.75
678.838	90.73
679.024	89.41
679.21	88.39
679.397	86.96
679.583	85.97
679.769	85.11
679.955	84.43
680.142	83.72
680.328	83.32
680.514	82.65
680.7	82.08
680.886	82.73
681.073	83.07
681.259	83.53
681.445	84.17
681.631	84.6
681.817	85.09
682.003	85.68
682.189	86.49
682.375	87.18
682.561	88.57
682.747	89.83
682.933	90.34
683.119	91.19
683.305	92.07
683.491	93.23
683.677	94.08
683.863	95.03
684.049	96.23
684.235	97.17
684.42	98.09
684.606	99.05
684.792	100.1
684.978	100.42
685.164	101.13
685.349	101.53
685.535	101.52
685.721	101.87
685.907	102
686.092	102.02
686.278	102.01
686.464	101.8
686.649	100.92
686.835	100.6
687.021	100.86
687.206	100.68
687.392	99.86
687.577	99.72
687.763	100.24
687.948	100.37
688.134	100.41
688.319	100.52
688.505	101.3
688.69	101.5
688.876	101.35
689.061	101.41
689.247	101.02
689.432	101.65
689.618	101.91
689.803	101.32
689.988	101.87
690.174	102.42
690.359	102.94
690.544	103
690.73	103.92
690.915	104.76
691.1	105.16
691.285	106.82
691.471	107.73
691.656	108.69
691.841	109.95
692.026	110.01
692.211	110.08
692.396	110.44
692.582	110.83
692.767	111.43
692.952	111.57
693.137	112.38
693.322	112.44
693.507	112.41
693.692	113.1
693.877	112.8
694.062	113.52
694.247	113.77
694.432	114.25
694.617	114.87
694.802	114.93
694.987	114.88
695.172	114.53
695.357	113.75
695.541	113.62
695.726	112.78
695.911	112.48
696.096	111.08
696.281	109.56
696.466	108.23
696.65	106.54
696.835	103.9
697.02	101.53
697.204	98.66
697.389	96.12
697.574	93.25
697.759	90.06
697.943	87.41
698.128	84.8
698.312	82.99
698.497	81.08
698.682	79.19
698.866	78.47
699.051	77.95
699.235	77.98
699.42	77.96
699.604	78.71
699.789	79.44
699.973	80.39
700.158	81.85
700.342	83.38
700.527	85.13
700.711	87.25
700.895	89.3
701.08	91.47
701.264	93.75
701.448	96.6
701.633	98.58
701.817	101.58
702.001	104.31
702.186	107.12
702.37	109.85
702.554	111.91
702.738	114.2
702.923	115.78
703.107	118.31
703.291	119.97
703.475	120.89
703.659	122.02
703.843	123.71
704.027	124.4
704.212	125.26
704.396	125.61
704.58	126.09
704.764	125.95
704.948	127.12
705.132	127.37
705.316	127.79
705.5	128.13
705.684	128.85
705.868	128
706.052	127.68
706.235	127.43
706.419	127.04
706.603	126.3
706.787	127.17
706.971	127.01
707.155	126.24
707.339	125.01
707.522	124.73
707.706	124.49
707.89	123.68
708.074	123.07
708.257	122.51
708.441	122.75
708.625	122.35
708.808	121.56
708.992	121
709.176	121.1
709.359	121.14
709.543	120.74
709.727	119.85
709.91	119.89
710.094	119.44
710.277	119.06
710.461	117.49
710.644	117.24
710.828	116.48
711.011	115.66
711.195	114.92
711.378	115.78
711.562	115.35
711.745	115.57
711.928	115
712.112	115.1
712.295	114.65
712.478	115.45
712.662	115.71
712.845	116.1
713.028	116.12
713.212	115.52
713.395	114.79
713.578	114.74
713.761	114.69
713.945	114.43
714.128	114.55
714.311	115.02
714.494	114.22
714.677	113.64
714.86	112.89
715.043	112.77
715.227	112.32
715.41	111.49
715.593	110.91
715.776	110.38
715.959	110.61
716.142	110.83
716.325	110.29
716.508	111.22
716.691	112.01
716.874	113.09
717.057	114.22
717.239	114.96
717.422	115.71
717.605	117.52
717.788	118.59
717.971	120.23
718.154	120.16
718.337	122.5
718.519	123.09
718.702	124
718.885	124.99
719.068	126.15
719.25	128.16
719.433	129.68
719.616	130.53
719.798	131.99
719.981	133.71
720.164	136.77
720.346	137.06
720.529	138.63
720.712	138.35
720.894	138.22
721.077	137.56
721.259	139.14
721.442	139.87
721.624	140.18
721.807	140.59
721.989	139.78
722.172	138.97
722.354	138.67
722.537	138.71
722.719	141.27
722.901	141.47
723.084	142.31
723.266	142.63
723.448	142.98
723.631	143.51
723.813	143.63
723.995	145.08
724.178	144.53
724.36	143.74
724.542	143.01
724.724	141.3
724.907	143.23
725.089	143.63
725.271	142.61
725.453	142.58
725.635	141.21
725.817	140.47
725.999	138.53
726.181	138.88
726.364	139.58
726.546	140.4
726.728	140.4
726.91	138.21
727.092	137.05
727.274	135.19
727.456	132.33
727.638	130.98
727.819	129.93
728.001	129.9
728.183	128.53
728.365	127.39
728.547	127.32
728.729	126.37
728.911	126.55
729.093	125.13
729.274	125.81
729.456	126.4
729.638	126.34
729.82	126.09
730.001	125.28
730.183	124.71
730.365	124.82
730.546	123.18
730.728	121.93
730.91	120.46
731.091	120.47
731.273	119.51
731.455	119.01
731.636	119.1
731.818	118.73
731.999	117.85
732.181	117.74
732.362	117.04
732.544	116.77
732.725	117.02
732.907	117.57
733.088	118.64
733.27	119.29
733.451	119.63
733.633	120.53
733.814	120.83
733.995	122.79
734.177	123.62
734.358	125.48
734.539	126.87
734.721	128.43
734.902	128.55
735.083	128.69
735.264	129
735.446	129.85
735.627	131.17
735.808	132.25
735.989	132.35
736.17	135.53
736.351	135.3
736.533	135.92
736.714	136.25
736.895	138.12
737.076	137.67
737.257	137.8
737.438	138.93
737.619	137.48
737.8	137.15
737.981	135.8
738.162	133.57
738.343	133.33
738.524	132.77
738.705	131.93
738.886	130.85
739.067	132.02
739.247	132.95
739.428	132.35
739.609	133.22
739.79	134.21
739.971	135.45
740.151	135.53
740.332	136.58
740.513	137.57
740.694	137.48
740.874	137.92
741.055	138.76
741.236	139.05
741.417	140.39
741.597	140.82
741.778	140.45
741.958	140.1
742.139	140.66
742.32	141.49
742.5	141.32
742.681	142.55
742.861	144.47
743.042	142.76
743.222	142.08
743.403	141.63
743.583	141.38
743.764	143.15
743.944	144.24
744.124	144.52
744.305	144.61
744.485	145.02
744.666	146.06
744.846	145.98
745.026	147.97
745.207	148.71
745.387	150.05
745.567	150.71
745.747	148.37
745.928	148.43
746.108	149.69
746.288	149.75
746.468	150.2
746.648	150.56
746.829	151.16
747.009	150.54
747.189	150.2
747.369	149.44
747.549	149.34
747.729	150.99
747.909	152.47
748.089	150.71
748.269	150.95
748.449	152.5
748.629	152.41
748.809	151.45
748.989	151.23
749.169	151.21
749.349	150.74
749.529	151.39
749.709	150.97
749.889	150.07
750.068	149.08
750.248	148.97
750.428	147.4
750.608	147.9
750.788	148.47
750.967	147.97
751.147	148.83
751.327	149.21
751.507	147.6
751.686	148.46
751.866	148.51
752.046	148.51
752.225	148.39
752.405	147.89
752.585	147.58
752.764	145.63
752.944	146.04
753.123	146.77
753.303	147.69
753.482	148.74
753.662	148.61
753.841	147.96
754.021	148.54
754.2	147.28
754.38	147.99
754.559	147.58
754.739	149.15
754.918	149.95
755.097	150.23
755.277	149.9
755.456	149.31
755.635	148.65
755.815	150.18
755.994	152.12
756.173	153.4
756.352	153.8
756.532	154.87
756.711	155.82
756.89	155.4
757.069	155.02
757.248	152.93
757.427	152.98
757.607	151.85
757.786	150.94
757.965	149.84
758.144	150.2
758.323	149.58
758.502	146.38
758.681	145.87
758.86	145.69
759.039	144.5
759.218	145.39
759.397	146.28
759.576	148.2
759.755	147.86
759.934	146.63
760.113	144.62
760.291	143.8
760.47	146.14
760.649	146.48
760.828	146.12
761.007	145.61
761.186	145.39
761.364	142.78
761.543	140.72
761.722	139.27
761.901	137.3
762.079	134.54
762.258	131.4
762.437	127.04
762.615	122.72
762.794	119.65
762.972	116.39
763.151	112.22
763.33	109.51
763.508	106.29
763.687	104.05
763.865	103.53
764.044	103.14
764.222	102.71
764.401	103.14
764.579	102.43
764.758	102.92
764.936	104.07
765.114	105.55
765.293	107
765.471	109.49
765.65	110.79
765.828	112.09
766.006	113.67
766.184	116.2
766.363	117.01
766.541	119.3
766.719	120.82
766.898	123.33
767.076	125.9
767.254	128.82
767.432	130.05
767.61	132.97
767.788	135.02
767.967	138.14
768.145	140.25
768.323	143.53
768.501	146.2
768.679	148.04
768.857	148.65
769.035	151.46
769.213	154.55
769.391	156.34
769.569	159.26
769.747	161.5
769.925	163.98
770.103	164.89
770.281	166.13
770.459	169.14
770.636	171.33
770.814	173.63
770.992	172.99
771.17	171.96
771.348	174.84
771.525	175.32
771.703	176.83
771.881	176.94
772.059	178.63
772.236	180.41
772.414	178.97
772.592	181.88
772.769	182.78
772.947	184.54
773.125	187.45
773.302	187.84
773.48	186.41
773.657	190.11
773.835	191.48
774.013	195.06
774.19	193.42
774.368	196.26
774.545	195.31
774.723	194.57
774.9	195.01
775.077	194.06
775.255	194.62
775.432	199.45
775.61	198.75
775.787	195.47
775.964	195.25
776.142	195.91
776.319	194.03
776.496	194.85
776.674	195.64
776.851	194.56
777.028	193.12
777.205	193.38
777.382	192.77
777.56	191.38
777.737	190.46
777.914	187.39
778.091	186.54
778.268	185.72
778.445	186.09
778.622	185.47
778.8	187.29
778.977	188.77
779.154	188.82
779.331	185.51
779.508	185.21
779.685	188.65
779.862	190.12
780.038	192.51
780.215	194.49
780.392	191.25
780.569	196.12
780.746	193.6
780.923	191.32
781.1	189.92
781.277	189.9
781.453	188.92
781.63	185.68
781.807	182.28
781.984	182.66
782.16	181.33
782.337	183.81
782.514	181.29
782.691	183.03
782.867	183.71
783.044	180.13
783.221	182.76
783.397	184.1
783.574	188.06
783.75	190.3
783.927	186.7
784.103	190.26
784.28	190.5
784.456	189.16
784.633	190.03
784.809	192.03
784.986	199.45
785.162	198.24
785.339	195.56
785.515	193.65
785.692	193.39
785.868	199.48
786.044	195.96
786.221	192.25
786.397	195.41
786.573	193.12
786.749	193.86
786.926	189.53
787.102	190.51
787.278	187.34
787.454	184.02
787.631	185.36
787.807	181.88
787.983	179.31
788.159	177.58
788.335	172.61
788.511	174.25
788.687	171.13
788.863	170.66
789.039	169.75
789.216	170.76
789.392	171.11
789.568	169.53
789.744	169.09
789.919	171.67
790.095	175.78
790.271	175.81
790.447	173.33
790.623	174.46
790.799	176.09
790.975	175.38
791.151	176.04
791.327	174.59
791.502	173.12
791.678	173.82
791.854	176.57
792.03	176.72
792.205	180.11
792.381	181.93
792.557	184.62
792.733	182.29
792.908	184.27
793.084	186.06
793.259	191.09
793.435	192.95
793.611	195.35
793.786	192.43
793.962	190.33
794.137	188.05
794.313	189.26
794.488	187.93
794.664	190.05
794.839	187.08
795.015	183.61
795.19	179.79
795.366	177.9
795.541	172.51
795.716	169.08
795.892	167.47
796.067	164.98
796.242	162.03
796.418	161.8
796.593	158.99
796.768	158.14
796.944	157.32
797.119	157.89
797.294	159.08
797.469	160.48
797.644	162.63
797.82	160.72
797.995	160.47
798.17	159.81
798.345	156.54
798.52	157.22
798.695	156.43
798.87	158.43
799.045	159.54
799.22	158.41
799.395	162.64
799.57	163.82
799.745	168.32
799.92	168.56
800.095	171.78
800.27	173.42
800.445	174.48
800.62	175.8
800.795	175.62
800.97	176.39
801.145	174.08
801.319	168.36
801.494	165.88
801.669	164.34
801.844	167.06
802.018	167.36
802.193	167.77
802.368	167.89
802.543	171.57
802.717	172.89
802.892	170.13
803.067	176.06
803.241	177.24
803.416	178.98
803.59	181.71
803.765	182.63
803.94	178.56
804.114	182.16
804.289	184.89
804.463	181.81
804.638	180.83
804.812	182.14
804.986	180.54
805.161	180.16
805.335	177.87
805.51	175.24
805.684	173.83
805.858	173.61
806.033	169.77
806.207	165.36
806.381	162.78
806.556	164.2
806.73	164.13
806.904	161.25
807.078	161.17
807.253	163.74
807.427	161.63
807.601	164.98
807.775	167.82
807.949	170.87
808.123	170.9
808.298	171.91
808.472	170.08
808.646	168.23
808.82	169.54
808.994	171.49
809.168	173.53
809.342	175.29
809.516	171.2
809.69	167.27
809.864	169.88
810.038	171.15
810.212	171.09
810.385	173.81
810.559	174.38
810.733	176.4
810.907	176.59
811.081	175.94
811.255	173.58
811.428	176
811.602	183.03
811.776	178.89
811.95	181.23
812.123	180.03
812.297	175.23
812.471	181.23
812.644	178.81
812.818	183.37
812.992	179.73
813.165	182.74
813.339	182.1
813.512	179.26
813.686	176.26
813.86	177.62
814.033	180.16
814.207	184.46
814.38	179.24
814.554	183.88
814.727	178.27
814.9	179.64
815.074	181.35
815.247	178.53
815.421	175.67
815.594	180.3
815.767	177.18
815.941	180.85
816.114	178.58
816.287	177.99
816.46	172.58
816.634	172.09
816.807	165.68
816.98	167.5
817.153	167.05
817.327	173.74
817.5	168.63
817.673	173.3
817.846	168.25
818.019	163.71
818.192	165.32
818.365	162.83
818.538	159.75
818.711	164.37
818.884	155.75
819.057	154.51
819.23	146.9
819.403	146.64
819.576	141.31
819.749	136.02
819.922	133.1
820.095	128.07
820.268	123.15
820.441	118.75
820.614	111.12
820.786	104.46
820.959	95.56
821.132	88.94
821.305	80.95
821.477	73.43
821.65	68.96
821.823	63.71
821.996	58.85
822.168	54.64
822.341	50.16
822.514	47.28
822.686	45.25
822.859	43.82
823.031	42.11
823.204	40.96
823.376	40.28
823.549	39.71
823.722	39.43
823.894	39.83
824.067	39.85
824.239	40.53
824.411	41.37
824.584	42.36
824.756	42.73
824.929	42.88
825.101	44.35
825.273	46.24
825.446	46.58
825.618	47.28
825.79	47.66
825.963	48.94
826.135	49.73
826.307	49.65
826.479	50.21
826.652	51.68
826.824	52.93
826.996	52.64
827.168	51.78
827.34	52.09
827.512	52.77
827.684	53.65
827.856	53.09
828.029	54.49
828.201	55.08
828.373	55.65
828.545	55.37
828.717	56.91
828.889	58.6
829.061	60.71
829.232	62.73
829.404	65.15
829.576	66.01
829.748	69.2
829.92	70.46
830.092	74.09
830.264	76.58
830.436	78.52
830.607	79.9
830.779	82.99
830.951	85.91
831.123	88.73
831.294	88.92
831.466	93.54
831.638	94.55
831.809	97.49
831.981	99.32
832.153	101.2
832.324	107.68
832.496	113.5
832.667	113.29
832.839	112.81
833.011	111.08
833.182	110.84
833.354	106.67
833.525	105.41
833.697	100.23
833.868	95.82
834.039	93.34
834.211	87.46
834.382	81.62
834.554	77.59
834.725	76.76
834.896	75.76
835.068	73.54
835.239	72.85
835.41	73.34
835.581	74.8
835.753	75.51
835.924	77.32
836.095	78.8
836.266	80.37
836.438	84.51
836.609	85.74
836.78	87.26
836.951	89.6
837.122	90.86
837.293	92.22
837.464	91.52
837.635	94.05
837.806	95.56
837.977	97.86
838.148	103.38
838.319	102.7
838.49	107.35
838.661	113.81
838.832	118.8
839.003	123.21
839.174	128.55
839.345	138.88
839.516	141.86
839.687	145.3
839.857	147.98
840.028	146.81
840.199	151.62
840.37	149.26
840.54	149.12
840.711	154.22
840.882	157.64
841.053	154.91
841.223	145.87
841.394	147.21
841.564	145.12
841.735	149.22
841.906	154.02
842.076	159.24
842.247	155.86
842.417	156.04
842.588	157.59
842.758	156.07
842.929	152.47
843.099	156.56
843.27	159.84
843.44	162.75
843.611	163.71
843.781	157.17
843.951	157.97
844.122	164.19
844.292	169.34
844.462	163.88
844.633	165.56
844.803	178.25
844.973	184.11
845.144	186.66
845.314	199.3
845.484	209.49
845.654	218.2
845.824	210.13
845.995	214.48
846.165	211.41
846.335	227.2
846.505	233.46
846.675	224.2
846.845	239.62
847.015	240.84
847.185	236.11
847.355	233.08
847.525	245.51
847.695	253.39
847.865	282.2
848.035	285.39
848.205	264.83
848.375	285.54
848.545	298.79
848.715	268.83
848.884	275.5
849.054	272.74
849.224	271.94
849.394	282.39
849.564	275.75
849.733	242.98
849.903	243.84
850.073	247.61
850.243	236.68
850.412	227.66
850.582	237.33
850.752	232.38
850.921	225.1
851.091	235.72
851.26	218.31
851.43	222.62
851.599	226.71
851.769	234.95
851.939	232.8
852.108	242.94
852.278	247.16
852.447	246.52
852.616	243.63
852.786	258.32
852.955	245.25
853.125	253.36
853.294	272.96
853.463	265.86
853.633	261.62
853.802	300.1
853.971	308.12
854.141	337.99
854.31	331.38
854.479	348.15
854.648	293.22
854.818	299.66
854.987	297.15
855.156	277.97
855.325	310.53
855.494	296.61
855.663	260.19
855.832	249.14
856.001	243.48
856.171	233.6
856.34	245.31
856.509	285.94
856.678	284.75
856.847	272.66
857.016	276.74
857.185	266.37
857.353	271.17
857.522	261.55
857.691	236.96
857.86	227.65
858.029	234.09
858.198	221.73
858.367	205.79
858.535	207.31
858.704	214.92
858.873	224.78
859.042	222.63
859.21	231.08
859.379	232.07
859.548	249.97
859.717	260.26
859.885	240.66
860.054	237.12
860.222	243.71
860.391	222.88
860.56	217.33
860.728	197.47
860.897	205.75
861.065	192.72
861.234	199.83
861.402	204.09
861.571	191.05
861.739	205.26
861.908	212.08
862.076	211.5
862.244	216.76
862.413	228.48
862.581	239.61
862.749	232.56
862.918	220.05
863.086	234.48
863.254	218.54
863.423	228.81
863.591	230.24
863.759	221.46
863.927	237.37
864.096	242.22
864.264	253.9
864.432	225.49
864.6	211.07
864.768	224.15
864.936	206.31
865.104	222.2
865.272	228
865.44	222.36
865.608	222.65
865.776	207.24
865.944	217.47
866.112	197.31
866.28	215.14
866.448	242.64
866.616	246.34
866.784	247.3
866.952	242.93
867.12	220
867.288	214.91
867.455	215.32
867.623	210.42
867.791	190.96
867.959	185.76
868.127	181.63
868.294	183.94
868.462	184.94
868.63	190.8
868.797	191.62
868.965	220.85
869.133	216.34
869.3	218.01
869.468	220.65
869.636	234.26
869.803	242.75
869.971	231.84
870.138	205.7
870.306	231.75
870.473	220.07
870.641	235.77
870.808	210.75
870.975	219.03
871.143	222.32
871.31	232.79
871.478	239.22
871.645	259.95
871.812	269.38
871.98	278.78
872.147	222.4
872.314	260.85
872.482	221.9
872.649	223.56
872.816	214.7
872.983	214.35
873.15	194.82
873.318	173.61
873.485	160.56
873.652	154.2
873.819	154.52
873.986	154.87
874.153	145.51
874.32	159.02
874.487	163.68
874.654	169.03
874.821	166.85
874.988	175.01
875.155	192.24
875.322	186.21
875.489	217.78
875.656	237.75
875.823	211.65
875.99	199.41
876.157	183.9
876.324	185.79
876.49	177.6
876.657	168.62
876.824	189.5
876.991	178.63
877.157	187.01
877.324	175.15
877.491	169.12
877.658	186.29
877.824	190.13
877.991	191.54
878.157	183.49
878.324	211.96
878.491	224.56
878.657	212.26
878.824	222.91
878.99	224.77
879.157	222.87
879.323	217.56
879.49	202.72
879.656	191.97
879.823	188.65
879.989	183.62
880.156	164.5
880.322	167.89
880.488	148.39
880.655	146.57
880.821	145.05
880.987	134.27
881.154	127.18
881.32	127.27
881.486	121.86
881.652	102.94
881.819	90.1
881.985	83.57
882.151	75.08
882.317	68.84
882.483	65.14
882.649	59.66
882.816	53.67
882.982	49.09
883.148	43.36
883.314	39.35
883.48	38.86
883.646	37.71
883.812	36.8
883.978	36.34
884.144	37.17
884.31	36.14
884.476	34.47
884.642	35.61
884.807	34.71
884.973	35.67
885.139	36.42
885.305	36.54
885.471	38.31
885.637	39.77
885.802	40.47
885.968	41.61
886.134	42.9
886.3	47.14
886.465	48.62
886.631	51.59
886.797	55.16
886.962	58.41
887.128	61
887.293	62.76
887.459	63.92
887.625	70.6
887.79	75.33
887.956	76.5
888.121	76.05
888.287	79.43
888.452	82.27
888.618	78.78
888.783	81.84
