Data from LC_270_Reflection_3.txt Node
Date: Sat Nov 21 12:08:42 EST 2015
User: robert
Spectrometer: USB4E03001
Autoset integration time: false
Trigger mode: 4
Integration Time (sec): 1.000000E-1
Scans to average: 15
Electric dark correction enabled: true
Nonlinearity correction enabled: false
Boxcar width: 5
Stray light correction enabled: false
XAxis mode: Wavelengths
Stop averaging: false
Number of Pixels in Spectrum: 3648
>>>>>Begin Spectral Data<<<<<
177.566	54.81
177.785	86.42
178.005	503.9
178.225	-48.3
178.445	204.09
178.665	534.12
178.885	-535.05
179.105	33.08
179.324	66.49
179.544	25.64
179.764	405.98
179.984	80.74
180.204	89.52
180.423	47.84
180.643	87.7
180.863	173.22
181.083	210.03
181.302	235.8
181.522	239.19
181.742	256.32
181.961	242.04
182.181	220.36
182.401	421.76
182.621	356.09
182.84	399.46
183.06	316.16
183.279	241.9
183.499	208.22
183.719	175.03
183.938	156.49
184.158	169.03
184.377	179.21
184.597	168.87
184.816	152.52
185.036	145.32
185.256	144.64
185.475	128.59
185.695	122.08
185.914	121.16
186.134	128.38
186.353	132.35
186.572	141.49
186.792	123.77
187.011	126.34
187.231	126.98
187.45	124.33
187.67	129.05
187.889	135.56
188.108	206.66
188.328	246.24
188.547	235.02
188.766	198.8
188.986	203.43
189.205	306.04
189.424	577
189.644	346.25
189.863	-110.71
190.082	-137.86
190.302	546.07
190.521	18.97
190.74	46.06
190.959	108.3
191.178	138.87
191.398	84.51
191.617	82.02
191.836	92.88
192.055	113.26
192.274	89.43
192.494	108.34
192.713	103.06
192.932	138.36
193.151	133.61
193.37	116.69
193.589	117.79
193.808	153.18
194.027	160.5
194.246	145.9
194.465	135.44
194.685	130.98
194.904	107.78
195.123	122.31
195.342	140.97
195.561	150.2
195.78	129.17
195.999	157.06
196.218	166.5
196.436	169.71
196.655	152.69
196.874	156.5
197.093	204.27
197.312	256.4
197.531	234.56
197.75	174.27
197.969	149.18
198.188	183.05
198.407	186.97
198.625	170.61
198.844	166.9
199.063	170.44
199.282	177.2
199.501	191.7
199.719	153.84
199.938	157.68
200.157	152.3
200.376	163.22
200.594	159.57
200.813	136.8
201.032	147.97
201.251	131.29
201.469	129.67
201.688	139.94
201.907	137.27
202.125	159.81
202.344	152.96
202.563	198.07
202.781	240.94
203	251.03
203.218	228.42
203.437	417.39
203.656	772.1
203.874	798.62
204.093	431.77
204.311	340.47
204.53	501.58
204.748	488.84
204.967	521.21
205.185	344.96
205.404	340.99
205.622	806.92
205.841	469.45
206.059	363.91
206.278	383.41
206.496	398.13
206.715	807.14
206.933	519.15
207.151	401.63
207.37	267.57
207.588	332.72
207.806	278.16
208.025	149.18
208.243	179.35
208.461	192.79
208.68	186.67
208.898	242.67
209.116	161.53
209.335	170.65
209.553	212.95
209.771	238.39
209.989	241.68
210.208	311.83
210.426	371.84
210.644	359.18
210.862	475.75
211.081	384.2
211.299	188.6
211.517	255.53
211.735	224.65
211.953	176.96
212.171	152.19
212.39	169.41
212.608	116.29
212.826	138.45
213.044	136.12
213.262	128.93
213.48	132.95
213.698	141.64
213.916	160.94
214.134	135.34
214.352	150.41
214.57	138.37
214.788	137.85
215.006	161.03
215.224	159.15
215.442	161.6
215.66	172.04
215.878	169.28
216.096	201.86
216.314	185.27
216.532	206.65
216.75	182.58
216.968	210.96
217.185	177.35
217.403	194
217.621	193
217.839	173.55
218.057	186.54
218.275	188.01
218.492	154.61
218.71	162.42
218.928	165.4
219.146	164.96
219.363	170.89
219.581	306.7
219.799	206.97
220.017	165.78
220.234	181.83
220.452	154.78
220.67	143.48
220.887	160.35
221.105	131.05
221.323	128.91
221.54	114.55
221.758	88.61
221.976	75.49
222.193	74.35
222.411	76.05
222.629	75.95
222.846	75.35
223.064	70.46
223.281	65.36
223.499	74.13
223.716	91.58
223.934	97.14
224.151	107.58
224.369	97.2
224.586	95.26
224.804	84.68
225.021	82.27
225.239	80.07
225.456	82.96
225.674	81.47
225.891	70.35
226.108	58.3
226.326	57.81
226.543	52.17
226.76	55.05
226.978	55.12
227.195	49.19
227.413	43.15
227.63	45.77
227.847	41.91
228.064	41.41
228.282	37.77
228.499	35.12
228.716	33.99
228.934	33.01
229.151	31.36
229.368	27.76
229.585	28.44
229.802	29.21
230.02	24.62
230.237	23.93
230.454	24.16
230.671	25
230.888	25.56
231.105	22.49
231.323	21.42
231.54	25.49
231.757	29.48
231.974	31.45
232.191	33.2
232.408	39.24
232.625	39.08
232.842	35.87
233.059	39.74
233.276	39.21
233.493	42.79
233.71	46.25
233.927	39.79
234.144	36.09
234.361	31.98
234.578	32.36
234.795	28.57
235.012	28.67
235.229	30.74
235.446	27.93
235.663	27.37
235.879	21.67
236.096	21.56
236.313	27.16
236.53	29.22
236.747	33.37
236.964	33.32
237.181	38.48
237.397	36.34
237.614	35.45
237.831	39.92
238.048	38.71
238.264	41.63
238.481	37.61
238.698	39.46
238.915	38.17
239.131	33.75
239.348	32.52
239.565	29.82
239.781	32.3
239.998	30.01
240.215	23.88
240.431	25.14
240.648	24.48
240.865	21.36
241.081	13.28
241.298	12.56
241.514	16.05
241.731	12.12
241.947	12.51
242.164	11.44
242.38	10.37
242.597	11.08
242.814	10.56
243.03	11.71
243.246	12.59
243.463	13.74
243.679	14.15
243.896	12.86
244.112	17.45
244.329	17.41
244.545	17.74
244.762	20.85
244.978	21.26
245.194	21.12
245.411	19.25
245.627	19.55
245.843	18.79
246.06	18.04
246.276	16.41
246.492	13.78
246.709	12.66
246.925	12.65
247.141	11.82
247.357	10.87
247.574	10.92
247.79	10.76
248.006	10.81
248.222	10.43
248.439	10.18
248.655	10.82
248.871	11.22
249.087	11.84
249.303	12.24
249.519	12.13
249.736	13.99
249.952	14.17
250.168	15.14
250.384	15.9
250.6	16.88
250.816	18.18
251.032	19.94
251.248	19.98
251.464	19.8
251.68	18.64
251.896	18.74
252.112	18.54
252.328	18.31
252.544	19.12
252.76	18.06
252.976	18.79
253.192	18.24
253.408	17.85
253.624	19.39
253.84	19.79
254.056	21.7
254.272	20.04
254.487	18.64
254.703	20.03
254.919	19.77
255.135	18.74
255.351	18.67
255.567	21.2
255.782	18.73
255.998	17.6
256.214	17.53
256.43	16.12
256.646	19.12
256.861	19.13
257.077	18.41
257.293	19.49
257.508	19.32
257.724	18.7
257.94	17.29
258.155	17.41
258.371	15.84
258.587	14.33
258.802	13.68
259.018	12.28
259.234	11.5
259.449	10.75
259.665	9.44
259.88	9.96
260.096	9.84
260.312	10.15
260.527	9.62
260.743	9.69
260.958	9.45
261.174	9.01
261.389	9.63
261.605	10.07
261.82	10.72
262.036	11.13
262.251	10.63
262.466	10.92
262.682	9.62
262.897	9.55
263.113	9.51
263.328	11.41
263.543	11.94
263.759	12.06
263.974	12.97
264.189	13.98
264.405	15.58
264.62	17.52
264.835	17.57
265.051	18.3
265.266	20.12
265.481	19
265.696	18.88
265.912	19.08
266.127	17.34
266.342	17.68
266.557	16.5
266.773	14.96
266.988	12.85
267.203	10.89
267.418	11.06
267.633	10.94
267.848	10.93
268.064	8.28
268.279	8.47
268.494	9.14
268.709	8.81
268.924	7.88
269.139	7.28
269.354	8.39
269.569	9.5
269.784	9.11
269.999	8.27
270.214	9.63
270.429	12.26
270.644	11.22
270.859	10.26
271.074	8.59
271.289	8.96
271.504	9.59
271.719	9.82
271.934	10.04
272.149	9.77
272.363	9.32
272.578	7.95
272.793	7.31
273.008	8.66
273.223	9.1
273.438	10.24
273.653	11.69
273.867	12.3
274.082	12.52
274.297	11.81
274.512	11.96
274.726	12.89
274.941	13.88
275.156	15.15
275.371	13.88
275.585	14.37
275.8	13.8
276.015	12.6
276.229	11.95
276.444	11.45
276.659	12.15
276.873	13.18
277.088	12.88
277.302	13.97
277.517	12.58
277.732	13.31
277.946	13.81
278.161	14.18
278.375	13.6
278.59	14.12
278.804	13.8
279.019	12.83
279.233	12.29
279.448	11.24
279.662	9.7
279.877	9.22
280.091	9.01
280.306	8.36
280.52	8.52
280.735	9.48
280.949	8.4
281.163	7.82
281.378	8.25
281.592	7.87
281.806	8.63
282.021	9.2
282.235	9.47
282.449	9.14
282.664	8.73
282.878	8.79
283.092	8.31
283.307	8.37
283.521	9.04
283.735	9.09
283.949	9.72
284.164	8.76
284.378	8.54
284.592	8.45
284.806	8.99
285.02	8.88
285.234	8.61
285.449	7.86
285.663	8.82
285.877	8.48
286.091	9.76
286.305	9.56
286.519	10.51
286.733	10.3
286.947	10.26
287.161	10.25
287.375	11.38
287.589	11.67
287.803	12.24
288.017	11.79
288.231	12.26
288.445	11
288.659	11.11
288.873	11.2
289.087	11.14
289.301	11.69
289.515	12.39
289.729	12.1
289.943	12.18
290.157	11.74
290.371	12.17
290.584	12.24
290.798	12.92
291.012	12.98
291.226	12.74
291.44	13.14
291.654	13.3
291.867	12.82
292.081	13.38
292.295	13.28
292.509	14.36
292.722	13.86
292.936	13.88
293.15	13.13
293.364	12.84
293.577	12.14
293.791	12.41
294.005	12.72
294.218	11.98
294.432	11.3
294.645	11.86
294.859	10.91
295.073	9.76
295.286	10.14
295.5	10.32
295.713	9.86
295.927	10.79
296.14	11.14
296.354	10.61
296.568	10.68
296.781	10.54
296.994	10.74
297.208	11.05
297.421	12.08
297.635	11.6
297.848	11.16
298.062	11.69
298.275	12.03
298.489	11.41
298.702	11.72
298.915	11.65
299.129	11.82
299.342	10.96
299.555	12.18
299.769	12.27
299.982	12.27
300.195	12.17
300.409	12.02
300.622	12.23
300.835	12.97
301.048	13.84
301.262	13.99
301.475	13.77
301.688	14.88
301.901	13.67
302.115	14.02
302.328	14.69
302.541	16.13
302.754	16.82
302.967	16.59
303.18	16.81
303.393	16.71
303.607	16.69
303.82	16.76
304.033	16.05
304.246	17.1
304.459	17.48
304.672	17.64
304.885	17.38
305.098	17
305.311	16.03
305.524	15.19
305.737	14.73
305.95	14.62
306.163	13.52
306.376	12.79
306.589	12.03
306.802	10.04
307.015	9.08
307.228	9
307.44	8.14
307.653	9.99
307.866	11.35
308.079	10.41
308.292	9.67
308.505	11.73
308.718	12.52
308.93	13.52
309.143	13.07
309.356	12.36
309.569	11.29
309.781	11.82
309.994	10.93
310.207	10.16
310.42	10.29
310.632	10.84
310.845	9.94
311.058	9.92
311.27	9.2
311.483	9.52
311.696	9.63
311.908	10.3
312.121	9.74
312.333	10.42
312.546	10.92
312.759	11.53
312.971	12.26
313.184	13.27
313.396	13.07
313.609	13.31
313.821	14.16
314.034	15.26
314.246	15
314.459	16.12
314.671	14.98
314.884	14.57
315.096	14.37
315.309	13.5
315.521	13.1
315.733	13.92
315.946	14.02
316.158	13.86
316.371	14.13
316.583	15.35
316.795	15.56
317.008	15.96
317.22	14.83
317.432	15.51
317.644	16.23
317.857	15.54
318.069	14.95
318.281	15.27
318.494	15.3
318.706	15.56
318.918	14.92
319.13	13.13
319.342	13.01
319.555	13.96
319.767	13.62
319.979	12.95
320.191	13.94
320.403	13.98
320.615	12.52
320.827	12.88
321.039	11.65
321.252	11.19
321.464	12.52
321.676	10.87
321.888	11.78
322.1	11.12
322.312	11.1
322.524	10.16
322.736	9.93
322.948	11.99
323.16	11.05
323.372	11.09
323.584	11.55
323.796	11.72
324.007	13.7
324.219	13.41
324.431	13.61
324.643	14.29
324.855	14.25
325.067	14.55
325.279	13.5
325.491	13.5
325.702	13.31
325.914	13.37
326.126	12.64
326.338	11.83
326.55	12.26
326.761	11.86
326.973	11.39
327.185	11.9
327.396	11.64
327.608	10.95
327.82	11.34
328.032	11.88
328.243	11.28
328.455	11.34
328.666	11.84
328.878	11.62
329.09	11.51
329.301	12.32
329.513	12.73
329.725	13.47
329.936	14.96
330.148	14.84
330.359	15.15
330.571	15.59
330.782	16.85
330.994	17.3
331.205	18.26
331.417	19.25
331.628	19.54
331.84	18.9
332.051	18.93
332.262	18.25
332.474	18.68
332.685	18.45
332.897	18.59
333.108	18.16
333.319	18.6
333.531	17.6
333.742	17.46
333.953	17.43
334.165	18.25
334.376	17.63
334.587	18.32
334.799	18.36
335.01	18.67
335.221	19.74
335.432	19.57
335.644	19.05
335.855	18.98
336.066	19.8
336.277	19.8
336.488	18.83
336.7	19.5
336.911	19.49
337.122	20.25
337.333	20.74
337.544	20.32
337.755	20.5
337.966	20.46
338.177	20.52
338.388	19.87
338.599	19.12
338.811	19.89
339.022	19.67
339.233	18.72
339.444	17.59
339.655	17.8
339.866	18.13
340.076	18.33
340.287	17.78
340.498	18.29
340.709	17.96
340.92	18.24
341.131	18.29
341.342	18.22
341.553	18.94
341.764	19.36
341.975	18.75
342.185	16.97
342.396	17.01
342.607	17.96
342.818	16.81
343.029	16.9
343.239	17.16
343.45	15.97
343.661	15.34
343.872	14.89
344.082	15.77
344.293	15.51
344.504	16.76
344.714	16.63
344.925	16.24
345.136	16.87
345.346	17
345.557	17.08
345.768	17.31
345.978	17.63
346.189	17.28
346.399	16.62
346.61	16.74
346.821	16.75
347.031	16.45
347.242	16.43
347.452	16.15
347.663	16.15
347.873	16.42
348.084	16.59
348.294	16.56
348.504	16.97
348.715	17.11
348.925	16.87
349.136	17.06
349.346	17.33
349.557	17.23
349.767	17.17
349.977	16.99
350.188	16.74
350.398	17.09
350.608	17.03
350.819	17.39
351.029	17.16
351.239	17
351.449	16.88
351.66	16.83
351.87	16.72
352.08	16.9
352.29	17.51
352.501	16.85
352.711	17.02
352.921	16.79
353.131	16.94
353.341	16.45
353.552	15.86
353.762	15.39
353.972	15.6
354.182	15.61
354.392	15.8
354.602	15.22
354.812	15.76
355.022	15.35
355.232	15.51
355.442	14.96
355.652	15.32
355.862	16.04
356.072	15.75
356.282	15.11
356.492	14.96
356.702	14.15
356.912	14.42
357.122	14.23
357.332	14.13
357.542	14.05
357.752	14.21
357.962	13.96
358.171	13.42
358.381	13.71
358.591	13.73
358.801	14
359.011	14.91
359.221	14.66
359.43	14.96
359.64	14.93
359.85	15.12
360.06	14.92
360.269	15.24
360.479	15.5
360.689	14.97
360.899	15.26
361.108	14.84
361.318	14.2
361.528	13.96
361.737	13.62
361.947	13.68
362.156	13.48
362.366	13.52
362.576	12.83
362.785	13.03
362.995	13.56
363.204	13.29
363.414	13.21
363.623	14.05
363.833	14.34
364.042	14.38
364.252	14.31
364.461	14.53
364.671	14.56
364.88	15.15
365.09	14.9
365.299	14.78
365.509	14.87
365.718	15.17
365.927	14.85
366.137	14.17
366.346	14.23
366.555	14.33
366.765	14.72
366.974	14.52
367.183	14.41
367.393	14.67
367.602	14.53
367.811	14.5
368.021	14.24
368.23	13.8
368.439	14.07
368.648	13.84
368.857	13.86
369.067	13.13
369.276	13.53
369.485	13.69
369.694	13.53
369.903	13.53
370.112	13.49
370.321	13.95
370.531	13.61
370.74	13.58
370.949	13.11
371.158	13.08
371.367	13.21
371.576	12.88
371.785	12.83
371.994	12.64
372.203	12.53
372.412	12.83
372.621	12.76
372.83	12.61
373.039	12.8
373.248	12.97
373.457	12.73
373.666	12.63
373.874	11.85
374.083	11.73
374.292	12.05
374.501	12.18
374.71	11.37
374.919	11.23
375.128	12
375.336	12.22
375.545	12.84
375.754	13.24
375.963	13.07
376.171	13.37
376.38	13.25
376.589	12.72
376.798	12.3
377.006	12.64
377.215	12.48
377.424	11.95
377.632	11.74
377.841	11.19
378.05	10.73
378.258	10.84
378.467	10.88
378.675	10.82
378.884	10.99
379.093	10.99
379.301	11.05
379.51	10.97
379.718	11.47
379.927	11.46
380.135	11.53
380.344	11.8
380.552	11.63
380.761	11.57
380.969	11.52
381.177	11.77
381.386	11.67
381.594	11.41
381.803	11.12
382.011	10.69
382.219	10.56
382.428	10.74
382.636	10.57
382.845	11
383.053	10.97
383.261	11.06
383.469	10.74
383.678	11.09
383.886	11.22
384.094	11.63
384.302	11.28
384.511	11.22
384.719	10.97
384.927	11.27
385.135	11.02
385.343	11.24
385.552	11.1
385.76	11.24
385.968	11.28
386.176	11.13
386.384	10.97
386.592	11.09
386.8	11.09
387.008	11.17
387.216	11.2
387.424	11.17
387.633	10.89
387.841	10.83
388.049	10.79
388.257	10.59
388.465	10.53
388.672	10.31
388.88	10
389.088	10.09
389.296	10.13
389.504	9.49
389.712	9.09
389.92	9.05
390.128	9.11
390.336	8.84
390.544	8.65
390.751	8.82
390.959	9.14
391.167	9.52
391.375	9.3
391.583	9.04
391.79	9.11
391.998	9.31
392.206	9.55
392.414	9.3
392.621	9.36
392.829	9.12
393.037	9.17
393.244	8.89
393.452	8.69
393.66	8.71
393.867	8.97
394.075	9.28
394.283	8.85
394.49	8.66
394.698	8.81
394.905	8.86
395.113	9.19
395.32	9.09
395.528	9.14
395.735	9
395.943	8.89
396.15	8.9
396.358	8.39
396.565	8.65
396.773	8.96
396.98	9.05
397.188	8.78
397.395	8.77
397.602	8.85
397.81	8.72
398.017	8.83
398.225	9.01
398.432	8.95
398.639	9.1
398.847	9.06
399.054	8.58
399.261	8.68
399.468	9.13
399.676	9.4
399.883	9.16
400.09	9.35
400.297	9.49
400.505	9.38
400.712	9.12
400.919	8.92
401.126	9.3
401.333	9.51
401.54	9.61
401.748	9.23
401.955	8.9
402.162	8.93
402.369	8.69
402.576	8.27
402.783	8.17
402.99	8.12
403.197	8.6
403.404	8.42
403.611	8.52
403.818	8.3
404.025	8.24
404.232	8.23
404.439	8.18
404.646	8.16
404.853	8.55
405.06	8.68
405.267	8.9
405.474	8.68
405.681	8.72
405.887	8.43
406.094	8.48
406.301	8.54
406.508	8.51
406.715	8.43
406.922	8.42
407.128	8.53
407.335	8.36
407.542	8.19
407.749	8.04
407.955	7.91
408.162	7.79
408.369	7.93
408.575	8.02
408.782	8.01
408.989	8.11
409.195	8
409.402	7.79
409.609	7.73
409.815	7.44
410.022	7.64
410.228	7.72
410.435	8.02
410.642	7.65
410.848	7.75
411.055	7.73
411.261	7.64
411.468	7.96
411.674	7.96
411.881	8.15
412.087	8.52
412.294	8.6
412.5	8.51
412.706	8.46
412.913	8.79
413.119	8.61
413.326	8.71
413.532	8.86
413.738	8.86
413.945	8.71
414.151	8.66
414.357	8.4
414.564	8.66
414.77	8.96
414.976	8.96
415.182	8.73
415.389	8.72
415.595	8.73
415.801	8.47
416.007	8.32
416.214	8.44
416.42	8.39
416.626	8.55
416.832	8.15
417.038	7.95
417.244	7.86
417.45	7.93
417.657	7.91
417.863	7.85
418.069	7.99
418.275	7.84
418.481	7.68
418.687	7.61
418.893	7.38
419.099	7.31
419.305	7.24
419.511	7.34
419.717	7.21
419.923	7.21
420.129	7.31
420.335	7.22
420.541	7.22
420.746	7.19
420.952	7.27
421.158	7.42
421.364	7.57
421.57	7.5
421.776	7.41
421.982	7.43
422.187	7.38
422.393	7.24
422.599	7.11
422.805	7.17
423.01	7.26
423.216	7.33
423.422	7.17
423.628	7.17
423.833	7.21
424.039	7.14
424.245	7.13
424.45	7.16
424.656	7.13
424.862	7.27
425.067	7.17
425.273	7.09
425.478	7.03
425.684	7.26
425.889	7.24
426.095	7.31
426.301	7.47
426.506	7.48
426.712	7.33
426.917	7.33
427.123	7.31
427.328	7.36
427.533	7.52
427.739	7.53
427.944	7.34
428.15	7.26
428.355	7.28
428.561	7.18
428.766	7.25
428.971	7.52
429.177	7.79
429.382	7.96
429.587	8.09
429.793	8.13
429.998	8.07
430.203	8.13
430.408	8.28
430.614	8.15
430.819	8.17
431.024	8.06
431.229	7.96
431.434	7.77
431.64	7.52
431.845	7.51
432.05	7.43
432.255	7.47
432.46	7.42
432.665	7.14
432.87	7.12
433.076	7.13
433.281	7.17
433.486	7.17
433.691	7.3
433.896	7.3
434.101	7.15
434.306	7
434.511	6.86
434.716	6.78
434.921	6.77
435.126	6.85
435.331	6.8
435.535	6.83
435.74	6.78
435.945	6.53
436.15	6.62
436.355	6.9
436.56	6.95
436.765	7.05
436.97	7.12
437.174	7.31
437.379	7.35
437.584	7.49
437.789	7.4
437.993	7.45
438.198	7.61
438.403	7.53
438.608	7.45
438.812	7.47
439.017	7.44
439.222	7.48
439.426	7.36
439.631	7.35
439.836	7.19
440.04	7.26
440.245	7.21
440.45	7.05
440.654	6.9
440.859	6.83
441.063	6.8
441.268	6.84
441.472	6.77
441.677	6.86
441.881	6.89
442.086	6.95
442.29	6.97
442.495	7.02
442.699	7.12
442.904	7.35
443.108	7.26
443.312	7.35
443.517	7.3
443.721	7.33
443.925	7.15
444.13	7
444.334	6.99
444.538	6.89
444.743	6.78
444.947	6.74
445.151	6.63
445.356	6.63
445.56	6.67
445.764	6.76
445.968	6.73
446.173	6.74
446.377	6.75
446.581	6.75
446.785	6.77
446.989	6.83
447.193	6.98
447.398	6.99
447.602	7.02
447.806	6.95
448.01	6.82
448.214	6.84
448.418	6.8
448.622	6.79
448.826	6.69
449.03	6.6
449.234	6.52
449.438	6.37
449.642	6.28
449.846	6.51
450.05	6.64
450.254	6.66
450.458	6.6
450.662	6.82
450.866	6.83
451.069	7.01
451.273	7.09
451.477	7.21
451.681	7.05
451.885	7.15
452.089	6.89
452.292	6.78
452.496	6.79
452.7	6.82
452.904	6.53
453.107	6.54
453.311	6.46
453.515	6.4
453.719	6.38
453.922	6.73
454.126	6.78
454.33	6.89
454.533	6.78
454.737	6.75
454.94	7.06
455.144	7.39
455.348	7.35
455.551	7.4
455.755	7.61
455.958	7.89
456.162	7.7
456.365	7.69
456.569	7.68
456.772	7.67
456.976	7.62
457.179	7.39
457.383	7.27
457.586	7.22
457.79	7
457.993	7.05
458.196	6.82
458.4	6.68
458.603	6.64
458.807	6.52
459.01	6.6
459.213	6.56
459.417	6.48
459.62	6.5
459.823	6.5
460.026	6.58
460.23	6.42
460.433	6.32
460.636	6.37
460.839	6.42
461.042	6.54
461.246	6.44
461.449	6.59
461.652	6.63
461.855	6.6
462.058	6.71
462.261	6.63
462.464	6.72
462.668	6.71
462.871	6.83
463.074	6.62
463.277	6.7
463.48	6.78
463.683	6.62
463.886	6.66
464.089	6.82
464.292	6.81
464.495	6.75
464.698	6.76
464.901	6.96
465.104	7.05
465.306	7.4
465.509	7.33
465.712	7.44
465.915	7.57
466.118	7.49
466.321	7.35
466.524	7.25
466.726	7.5
466.929	7.55
467.132	7.42
467.335	7.31
467.538	7.13
467.74	7.01
467.943	6.9
468.146	6.86
468.348	6.9
468.551	6.77
468.754	6.92
468.956	6.93
469.159	6.83
469.362	6.87
469.564	6.75
469.767	6.88
469.969	6.91
470.172	6.89
470.375	6.82
470.577	6.96
470.78	7.03
470.982	7
471.185	6.79
471.387	6.9
471.59	6.91
471.792	7.06
471.995	6.91
472.197	6.91
472.399	6.96
472.602	6.91
472.804	6.67
473.007	6.72
473.209	6.74
473.411	6.91
473.614	6.79
473.816	6.74
474.018	6.61
474.22	6.76
474.423	6.84
474.625	6.76
474.827	7
475.03	7.21
475.232	7.27
475.434	7.1
475.636	6.98
475.838	7.06
476.04	7.09
476.243	7.09
476.445	7.01
476.647	6.99
476.849	7.07
477.051	7.04
477.253	7.11
477.455	7.06
477.657	6.92
477.859	7.04
478.061	7.08
478.263	7
478.465	7.06
478.667	6.88
478.869	6.81
479.071	6.82
479.273	6.66
479.475	6.55
479.677	6.51
479.879	6.87
480.081	6.83
480.283	6.75
480.485	6.76
480.686	6.72
480.888	6.86
481.09	6.87
481.292	6.8
481.494	6.79
481.695	6.69
481.897	6.65
482.099	6.45
482.301	6.36
482.502	6.31
482.704	6.29
482.906	6.27
483.107	6.2
483.309	6.2
483.511	6.14
483.712	6.05
483.914	6.09
484.115	6.05
484.317	6.03
484.519	6.04
484.72	6.01
484.922	6.01
485.123	6.02
485.325	6.03
485.526	6
485.728	6.1
485.929	6.19
486.131	6.13
486.332	6.17
486.534	6.19
486.735	6.16
486.936	6.21
487.138	6.23
487.339	6.18
487.541	6.18
487.742	6.18
487.943	6.18
488.144	6.17
488.346	6.2
488.547	6.14
488.748	6.13
488.95	6.19
489.151	6.18
489.352	6.14
489.553	6.19
489.755	6.23
489.956	6.22
490.157	6.17
490.358	6.21
490.559	6.25
490.76	6.31
490.961	6.29
491.163	6.27
491.364	6.28
491.565	6.34
491.766	6.33
491.967	6.32
492.168	6.35
492.369	6.32
492.57	6.29
492.771	6.23
492.972	6.24
493.173	6.31
493.374	6.3
493.575	6.32
493.776	6.29
493.976	6.35
494.177	6.45
494.378	6.51
494.579	6.67
494.78	6.62
494.981	6.89
495.182	7
495.382	7.04
495.583	7.13
495.784	7.1
495.985	7.12
496.185	7.08
496.386	6.94
496.587	6.86
496.788	6.77
496.988	6.75
497.189	6.57
497.39	6.4
497.59	6.3
497.791	6.31
497.992	6.35
498.192	6.36
498.393	6.37
498.593	6.49
498.794	6.55
498.994	6.67
499.195	6.76
499.395	6.84
499.596	6.96
499.796	7.16
499.997	7.17
500.197	7.21
500.398	7.06
500.598	7.14
500.799	7.12
500.999	7.17
501.199	7.21
501.4	7.31
501.6	7.39
501.801	7.53
502.001	7.6
502.201	7.56
502.402	7.51
502.602	7.52
502.802	7.46
503.002	7.56
503.203	7.73
503.403	7.64
503.603	7.66
503.803	7.63
504.003	7.47
504.204	7.31
504.404	7.53
504.604	7.42
504.804	7.75
505.004	7.82
505.204	7.75
505.404	7.57
505.604	7.55
505.804	7.55
506.005	7.53
506.205	7.64
506.405	7.79
506.605	7.72
506.805	7.89
507.005	7.78
507.204	7.7
507.404	7.6
507.604	7.68
507.804	7.71
508.004	7.72
508.204	7.81
508.404	7.68
508.604	7.56
508.804	7.59
509.003	7.61
509.203	7.62
509.403	7.62
509.603	7.69
509.803	7.64
510.002	7.64
510.202	7.64
510.402	7.53
510.602	7.56
510.801	7.66
511.001	7.76
511.201	7.72
511.4	7.69
511.6	7.62
511.8	7.69
511.999	7.69
512.199	7.8
512.398	7.76
512.598	7.92
512.797	8.07
512.997	7.96
513.197	7.87
513.396	8
513.596	8.06
513.795	8.25
513.994	8.3
514.194	8.43
514.393	8.35
514.593	8.54
514.792	8.43
514.992	8.53
515.191	8.56
515.39	8.66
515.59	8.66
515.789	8.62
515.988	8.58
516.188	8.5
516.387	8.53
516.586	8.55
516.786	8.56
516.985	8.55
517.184	8.5
517.383	8.71
517.582	8.53
517.782	8.52
517.981	8.62
518.18	8.62
518.379	8.69
518.578	8.62
518.777	8.61
518.976	8.59
519.176	8.72
519.375	8.72
519.574	8.63
519.773	8.79
519.972	8.72
520.171	8.72
520.37	8.78
520.569	8.86
520.768	8.98
520.967	9.05
521.166	9.1
521.365	9.06
521.564	9.08
521.762	9.05
521.961	9.05
522.16	9.09
522.359	9.21
522.558	9.23
522.757	9.16
522.956	9.17
523.154	9.17
523.353	9.2
523.552	9.29
523.751	9.32
523.949	9.45
524.148	9.41
524.347	9.44
524.546	9.41
524.744	9.34
524.943	9.38
525.142	9.38
525.34	9.4
525.539	9.34
525.737	9.28
525.936	9.35
526.135	9.42
526.333	9.43
526.532	9.53
526.73	9.5
526.929	9.55
527.127	9.56
527.326	9.48
527.524	9.46
527.723	9.51
527.921	9.53
528.12	9.44
528.318	9.32
528.516	9.32
528.715	9.23
528.913	9.25
529.112	9.25
529.31	9.21
529.508	9.26
529.707	9.3
529.905	9.27
530.103	9.25
530.301	9.35
530.5	9.44
530.698	9.46
530.896	9.63
531.094	9.65
531.293	9.74
531.491	9.85
531.689	9.77
531.887	9.83
532.085	9.91
532.283	9.99
532.481	9.93
532.68	10.04
532.878	10.12
533.076	10.07
533.274	10.1
533.472	10.09
533.67	9.99
533.868	10.11
534.066	10.09
534.264	10.04
534.462	10.08
534.66	10.15
534.858	10.01
535.056	10.07
535.253	10.09
535.451	10.09
535.649	10.21
535.847	10.45
536.045	10.62
536.243	10.8
536.441	10.9
536.638	11.01
536.836	11.06
537.034	11.15
537.232	11.15
537.43	11.21
537.627	11.23
537.825	11.2
538.023	11.19
538.22	11.06
538.418	10.95
538.616	11.02
538.813	11.08
539.011	11.19
539.209	11.29
539.406	11.33
539.604	11.48
539.801	11.55
539.999	11.61
540.196	11.47
540.394	11.58
540.591	11.63
540.789	11.56
540.986	11.51
541.184	11.45
541.381	11.44
541.579	11.44
541.776	11.37
541.974	11.43
542.171	11.43
542.368	11.53
542.566	11.53
542.763	11.58
542.96	11.72
543.158	11.75
543.355	11.83
543.552	11.98
543.75	12.08
543.947	12.24
544.144	12.32
544.341	12.47
544.539	12.64
544.736	12.76
544.933	12.82
545.13	12.87
545.327	12.86
545.524	12.93
545.722	12.93
545.919	13.01
546.116	12.92
546.313	12.97
546.51	12.95
546.707	12.98
546.904	13.03
547.101	13.18
547.298	13.26
547.495	13.41
547.692	13.33
547.889	13.41
548.086	13.37
548.283	13.58
548.48	13.61
548.677	13.63
548.874	13.74
549.07	13.86
549.267	13.77
549.464	13.8
549.661	13.85
549.858	14.02
550.055	14.06
550.251	14.26
550.448	14.16
550.645	14.34
550.842	14.43
551.038	14.53
551.235	14.5
551.432	14.5
551.628	14.58
551.825	14.9
552.022	15.07
552.218	15.11
552.415	15.15
552.612	15.24
552.808	15.05
553.005	14.99
553.201	14.96
553.398	15.05
553.594	15.23
553.791	15.42
553.987	15.25
554.184	15.27
554.38	15.51
554.577	15.59
554.773	15.58
554.97	16.01
555.166	16.39
555.362	16.47
555.559	16.46
555.755	16.61
555.952	16.62
556.148	16.79
556.344	17.06
556.541	16.97
556.737	16.97
556.933	17.19
557.129	16.98
557.326	16.93
557.522	17.32
557.718	17.63
557.914	17.67
558.11	17.74
558.307	17.78
558.503	17.63
558.699	18.01
558.895	17.85
559.091	17.94
559.287	18.1
559.483	18.05
559.679	17.92
559.876	17.94
560.072	17.98
560.268	17.93
560.464	18.13
560.66	18.3
560.856	18.28
561.052	18.57
561.247	19.03
561.443	19.12
561.639	19.43
561.835	19.49
562.031	19.5
562.227	19.41
562.423	19.45
562.619	19.55
562.815	19.68
563.01	19.57
563.206	19.79
563.402	19.51
563.598	19.56
563.793	19.57
563.989	19.45
564.185	19.44
564.381	19.72
564.576	19.88
564.772	20.01
564.968	20.08
565.163	20.2
565.359	20.24
565.555	20.34
565.75	20.37
565.946	20.4
566.141	20.66
566.337	20.84
566.532	20.86
566.728	20.86
566.923	20.68
567.119	20.66
567.314	20.68
567.51	20.63
567.705	20.69
567.901	20.7
568.096	20.95
568.292	21.04
568.487	20.99
568.682	21.04
568.878	21.26
569.073	21.33
569.268	21.42
569.464	21.35
569.659	21.61
569.854	21.6
570.05	21.73
570.245	21.62
570.44	21.48
570.635	21.64
570.831	21.7
571.026	21.62
571.221	21.8
571.416	21.8
571.611	21.99
571.806	21.88
572.002	21.96
572.197	22.08
572.392	22
572.587	22.08
572.782	22.15
572.977	22.25
573.172	22.38
573.367	22.39
573.562	22.42
573.757	22.43
573.952	22.61
574.147	22.76
574.342	22.85
574.537	22.94
574.732	23.05
574.927	23.21
575.121	23.17
575.316	23.24
575.511	23.39
575.706	23.44
575.901	23.46
576.096	23.37
576.29	23.53
576.485	23.51
576.68	23.81
576.875	23.7
577.069	23.48
577.264	23.63
577.459	23.6
577.654	23.71
577.848	23.88
578.043	24.14
578.238	24.19
578.432	23.97
578.627	24.03
578.821	24.09
579.016	24.27
579.21	24.32
579.405	24.33
579.6	24.47
579.794	24.42
579.989	24.3
580.183	24.65
580.378	24.87
580.572	25.17
580.766	25.27
580.961	25.14
581.155	25.17
581.35	25.59
581.544	25.7
581.738	25.63
581.933	25.48
582.127	25.65
582.321	25.33
582.516	25.61
582.71	25.43
582.904	25.52
583.099	25.62
583.293	25.78
583.487	25.87
583.681	25.76
583.875	26.09
584.07	26.26
584.264	26.39
584.458	26.29
584.652	26.05
584.846	26.14
585.04	26.06
585.234	26.1
585.428	26.08
585.623	25.96
585.817	26.13
586.011	26.04
586.205	26.1
586.399	26.17
586.593	26.18
586.787	26.37
586.981	26.31
587.174	26.34
587.368	26.55
587.562	26.5
587.756	26.42
587.95	26.43
588.144	26.52
588.338	26.48
588.532	26.47
588.725	26.62
588.919	26.63
589.113	26.68
589.307	26.68
589.501	26.35
589.694	26.65
589.888	26.65
590.082	26.69
590.275	26.57
590.469	26.59
590.663	26.55
590.856	26.51
591.05	26.43
591.244	26.52
591.437	26.91
591.631	27.14
591.824	27.02
592.018	27.26
592.212	27.25
592.405	27.25
592.599	27.23
592.792	27.36
592.986	27.53
593.179	27.44
593.372	27.11
593.566	26.75
593.759	26.79
593.953	26.64
594.146	26.66
594.339	26.67
594.533	26.89
594.726	26.97
594.92	26.76
595.113	26.75
595.306	26.97
595.499	27.17
595.693	27.16
595.886	27.1
596.079	27.12
596.272	27.1
596.466	27.1
596.659	26.92
596.852	27
597.045	27.04
597.238	26.88
597.431	26.92
597.624	27.21
597.818	27.34
598.011	27.4
598.204	27.54
598.397	27.5
598.59	27.58
598.783	27.65
598.976	27.54
599.169	27.76
599.362	28.1
599.555	28
599.748	27.86
599.941	27.99
600.134	28.11
600.326	28.05
600.519	28.19
600.712	28.24
600.905	28.36
601.098	28.59
601.291	28.7
601.483	28.47
601.676	28.52
601.869	28.73
602.062	28.66
602.255	28.36
602.447	28.34
602.64	28.15
602.833	28.03
603.025	27.95
603.218	28.01
603.411	27.82
603.603	27.81
603.796	27.6
603.989	27.46
604.181	27.44
604.374	27.53
604.566	27.75
604.759	27.67
604.951	27.59
605.144	27.54
605.336	27.52
605.529	27.54
605.721	27.69
605.914	27.99
606.106	28.01
606.299	28.05
606.491	28.1
606.683	28.05
606.876	28.32
607.068	28.59
607.26	28.78
607.453	28.73
607.645	28.84
607.837	28.79
608.03	28.54
608.222	28.63
608.414	28.83
608.606	29.11
608.799	29
608.991	28.93
609.183	28.87
609.375	29
609.567	29.09
609.759	29.05
609.952	29.15
610.144	29.29
610.336	29.28
610.528	29.3
610.72	29.06
610.912	28.95
611.104	29.18
611.296	29.19
611.488	29.12
611.68	28.97
611.872	28.96
612.064	28.87
612.256	28.97
612.448	28.99
612.64	28.84
612.832	29.04
613.023	29.6
613.215	29.45
613.407	29.71
613.599	29.74
613.791	30.04
613.983	30.05
614.174	30.11
614.366	30.19
614.558	30.36
614.75	30.3
614.941	30.12
615.133	29.71
615.325	29.88
615.516	29.56
615.708	29.35
615.9	29.26
616.091	29.29
616.283	29.35
616.475	29.5
616.666	29.37
616.858	29.4
617.049	29.39
617.241	29.51
617.432	29.55
617.624	29.88
617.815	30.02
618.007	29.81
618.198	30.01
618.39	30.08
618.581	30.11
618.773	30.1
618.964	30.43
619.155	30.66
619.347	30.37
619.538	30.27
619.729	30.06
619.921	30.2
620.112	30.46
620.303	30.3
620.494	30.3
620.686	30.26
620.877	30.28
621.068	30.12
621.259	30.06
621.451	30.4
621.642	30.35
621.833	30.44
622.024	30.75
622.215	30.62
622.406	30.76
622.597	30.66
622.788	30.48
622.98	30.62
623.171	30.58
623.362	30.73
623.553	30.67
623.744	30.96
623.935	30.78
624.126	30.36
624.317	30.31
624.508	30.3
624.698	30.49
624.889	30.45
625.08	30.32
625.271	30.46
625.462	30.35
625.653	30.45
625.844	30.23
626.034	30.3
626.225	30.52
626.416	30.72
626.607	30.75
626.798	30.65
626.988	31.07
627.179	31.15
627.37	30.98
627.56	30.96
627.751	30.94
627.942	31.01
628.132	31.02
628.323	30.9
628.514	30.94
628.704	30.87
628.895	30.99
629.085	30.7
629.276	30.55
629.466	30.46
629.657	30.51
629.847	30.22
630.038	29.93
630.228	30.11
630.419	30.37
630.609	30.27
630.8	30.33
630.99	30.41
631.181	30.13
631.371	30.08
631.561	30.48
631.752	30.33
631.942	30.47
632.132	31.07
632.323	31.12
632.513	31.01
632.703	31.13
632.893	31.27
633.084	31.17
633.274	31.52
633.464	31.73
633.654	31.3
633.844	31.65
634.034	31.76
634.225	31.44
634.415	31.56
634.605	31.43
634.795	31.32
634.985	31.23
635.175	31.08
635.365	31.04
635.555	30.97
635.745	31.42
635.935	31.18
636.125	31.02
636.315	31.12
636.505	30.9
636.695	31.07
636.885	31.12
637.075	31.16
637.265	31.57
637.455	31.84
637.644	32.04
637.834	31.81
638.024	31.97
638.214	32.32
638.404	32.19
638.593	32.22
638.783	32.18
638.973	32.3
639.163	32.5
639.352	32.1
639.542	31.96
639.732	31.75
639.921	31.81
640.111	31.98
640.301	32.04
640.49	32.35
640.68	32.6
640.87	32.6
641.059	32.53
641.249	32.77
641.438	32.84
641.628	32.39
641.817	32.75
642.007	32.63
642.196	32.45
642.386	32.22
642.575	31.96
642.764	31.95
642.954	31.94
643.143	32.23
643.333	31.84
643.522	31.96
643.711	32.56
643.901	32.68
644.09	33.3
644.279	33.5
644.469	33.39
644.658	33.55
644.847	33.45
645.036	33.26
645.226	32.84
645.415	33.1
645.604	33.05
645.793	32.84
645.982	32.47
646.171	32.11
646.361	31.82
646.55	32.38
646.739	32.29
646.928	32.39
647.117	32.68
647.306	32.83
647.495	32.46
647.684	32.71
647.873	32.64
648.062	32.81
648.251	32.62
648.44	32.61
648.629	32.04
648.818	31.75
649.007	31.67
649.196	31.43
649.384	31.43
649.573	31.72
649.762	31.44
649.951	31.38
650.14	31.15
650.328	31.04
650.517	31.41
650.706	31.67
650.895	31.91
651.083	31.99
651.272	32.44
651.461	32.49
651.65	32.8
651.838	32.82
652.027	32.92
652.216	32.99
652.404	33.07
652.593	32.86
652.781	32.86
652.97	32.81
653.158	32.78
653.347	32.31
653.535	32.26
653.724	31.91
653.912	32.13
654.101	31.84
654.289	31.63
654.478	31.77
654.666	32.03
654.855	32.24
655.043	32.4
655.231	32.42
655.42	32.88
655.608	33.08
655.796	33.26
655.985	33.22
656.173	33.64
656.361	34.14
656.55	34.21
656.738	33.93
656.926	33.94
657.114	33.85
657.302	33.77
657.491	33.54
657.679	33.6
657.867	33.58
658.055	33.33
658.243	32.97
658.431	32.78
658.619	32.8
658.807	32.82
658.996	32.65
659.184	32.74
659.372	32.75
659.56	32.62
659.748	32.35
659.936	32.22
660.124	32.42
660.311	32.6
660.499	32.65
660.687	32.4
660.875	32.51
661.063	32.3
661.251	32.08
661.439	32.37
661.627	32.49
661.814	32.45
662.002	32.5
662.19	32.35
662.378	32.16
662.565	32.01
662.753	32.21
662.941	32.08
663.129	32.24
663.316	32.17
663.504	31.75
663.692	31.49
663.879	31.68
664.067	31.76
664.254	31.8
664.442	32.37
664.63	32.69
664.817	32.86
665.005	32.64
665.192	32.75
665.38	33.36
665.567	33.2
665.755	33.9
665.942	34.01
666.13	33.46
666.317	33.71
666.504	33.52
666.692	33.49
666.879	33.31
667.067	33.55
667.254	33.22
667.441	33.26
667.629	33.27
667.816	32.79
668.003	33.07
668.19	33.32
668.378	33.39
668.565	33.23
668.752	33.03
668.939	33.03
669.127	33.12
669.314	33.56
669.501	33.38
669.688	33.61
669.875	33.38
670.062	33.29
670.249	33.41
670.436	33.5
670.623	33.42
670.81	33.47
670.997	33.22
671.184	32.69
671.371	33.15
671.558	33.06
671.745	33.08
671.932	33.57
672.119	33.79
672.306	34.28
672.493	34.16
672.68	34.76
672.867	34.95
673.054	35.13
673.24	35.7
673.427	35.25
673.614	35.51
673.801	35.84
673.988	35.73
674.174	35.33
674.361	34.85
674.548	34.78
674.734	34.83
674.921	34.87
675.108	35.08
675.294	35.46
675.481	34.93
675.668	35.12
675.854	35.03
676.041	34.87
676.227	34.76
676.414	34.96
676.601	35.01
676.787	34.91
676.974	34.68
677.16	34.87
677.347	34.5
677.533	35.11
677.719	34.76
677.906	34.55
678.092	34.23
678.279	34.05
678.465	33.79
678.651	33.54
678.838	33.06
679.024	33.16
679.21	32.76
679.397	33.04
679.583	32.6
679.769	32.79
679.955	32.75
680.142	32.83
680.328	33.1
680.514	33.03
680.7	32.75
680.886	33.14
681.073	33.04
681.259	33.46
681.445	32.78
681.631	33.08
681.817	33.02
682.003	33.25
682.189	33.43
682.375	33.53
682.561	33.3
682.747	33.82
682.933	33.56
683.119	33.48
683.305	32.99
683.491	33.63
683.677	33.55
683.863	33.2
684.049	33.04
684.235	33.12
684.42	32.99
684.606	32.95
684.792	32.86
684.978	33.16
685.164	33.44
685.349	33.53
685.535	33.52
685.721	33.63
685.907	33.43
686.092	33.33
686.278	33.27
686.464	33.17
686.649	33.67
686.835	33.67
687.021	33.37
687.206	33.38
687.392	33.23
687.577	32.97
687.763	32.91
687.948	33.28
688.134	33.08
688.319	33.43
688.505	33.96
688.69	33.77
688.876	33.81
689.061	33.82
689.247	33.71
689.432	33.78
689.618	33.63
689.803	33.34
689.988	33.62
690.174	33.53
690.359	33.2
690.544	32.52
690.73	32.14
690.915	32
691.1	31.91
691.285	31.98
691.471	32.32
691.656	32.34
691.841	32.77
692.026	32.94
692.211	32.98
692.396	32.95
692.582	33.52
692.767	34.27
692.952	34.39
693.137	34.5
693.322	34.41
693.507	34.69
693.692	35.24
693.877	34.95
694.062	34.47
694.247	35.03
694.432	35.23
694.617	35.05
694.802	35.06
694.987	35.35
695.172	35.38
695.357	35.66
695.541	35.47
695.726	34.94
695.911	35.54
696.096	35.74
696.281	35.57
696.466	35.99
696.65	35.58
696.835	35.2
697.02	34.95
697.204	34.85
697.389	34.87
697.574	34.64
697.759	34.3
697.943	33.42
698.128	33.08
698.312	33.06
698.497	32.62
698.682	32.83
698.866	33.19
699.051	33.06
699.235	32.86
699.42	32.65
699.604	32.84
699.789	33.37
699.973	33.86
700.158	34.09
700.342	34.44
700.527	34.69
700.711	34.66
700.895	34.46
701.08	34.51
701.264	34.72
701.448	34.69
701.633	34.39
701.817	34.32
702.001	34.35
702.186	34.64
702.37	33.65
702.554	33.31
702.738	33.38
702.923	33.07
703.107	33.11
703.291	33.45
703.475	33.22
703.659	33.25
703.843	33.63
704.027	33.62
704.212	33.24
704.396	33.79
704.58	33.95
704.764	33.75
704.948	34.17
705.132	34.15
705.316	34.47
705.5	35.54
705.684	35.83
705.868	35.36
706.052	35.35
706.235	35.48
706.419	35.73
706.603	36.01
706.787	35.95
706.971	35.87
707.155	36.33
707.339	36.17
707.522	35.42
707.706	35.82
707.89	36.34
708.074	35.84
708.257	36.01
708.441	35.68
708.625	36
708.808	36.37
708.992	36.36
709.176	35.8
709.359	35.26
709.543	35.28
709.727	34.77
709.91	34.7
710.094	35.73
710.277	35.81
710.461	36.04
710.644	35.83
710.828	35.65
711.011	35.41
711.195	35.56
711.378	36.01
711.562	36.38
711.745	37.17
711.928	36.78
712.112	36.46
712.295	36.03
712.478	36.08
712.662	35.79
712.845	36.05
713.028	35.97
713.212	36.51
713.395	36.5
713.578	36.57
713.761	35.91
713.945	36.02
714.128	36.15
714.311	36.43
714.494	36.65
714.677	36.64
714.86	36.51
715.043	37.17
715.227	37
715.41	36.84
715.593	36.64
715.776	36.78
715.959	36.66
716.142	36.43
716.325	36.62
716.508	36.4
716.691	36.42
716.874	36.53
717.057	36.51
717.239	36.42
717.422	36.16
717.605	35.77
717.788	35.12
717.971	35.44
718.154	35.65
718.337	35.78
718.519	35.61
718.702	35.33
718.885	35.35
719.068	34.81
719.25	35.07
719.433	36.06
719.616	36.2
719.798	36.99
719.981	37.14
720.164	37.03
720.346	36.3
720.529	36.56
720.712	37.15
720.894	36.93
721.077	37.88
721.259	37.43
721.442	36.73
721.624	37.46
721.807	37.58
721.989	37.34
722.172	38.03
722.354	39.15
722.537	39.03
722.719	39.53
722.901	39.7
723.084	38.88
723.266	38.61
723.448	39.1
723.631	38.48
723.813	38.67
723.995	38.4
724.178	37.44
724.36	36.7
724.542	37.38
724.724	36.89
724.907	37.36
725.089	37.8
725.271	38.07
725.453	37.66
725.635	38.14
725.817	38.03
725.999	38.16
726.181	38.41
726.364	38.6
726.546	38.71
726.728	38.58
726.91	38.73
727.092	38.33
727.274	38.36
727.456	38.75
727.638	38.78
727.819	39.32
728.001	38.26
728.183	37.97
728.365	37.82
728.547	37.02
728.729	37
728.911	37.1
729.093	37.35
729.274	38.03
729.456	37.95
729.638	37.2
729.82	36.63
730.001	37.55
730.183	38.16
730.365	38.62
730.546	38.72
730.728	39.3
730.91	37.92
731.091	38.17
731.273	38.18
731.455	37.78
731.636	38.84
731.818	38.91
731.999	38.96
732.181	38.7
732.362	38.03
732.544	38.45
732.725	37.55
732.907	38.66
733.088	38.81
733.27	37.98
733.451	37.72
733.633	37.74
733.814	37.32
733.995	36.99
734.177	37.53
734.358	37.92
734.539	37.93
734.721	38.31
734.902	38.83
735.083	38.94
735.264	40.48
735.446	41.74
735.627	41.87
735.808	41.77
735.989	41.95
736.17	41.12
736.351	41.12
736.533	40.43
736.714	40.34
736.895	39.62
737.076	38.94
737.257	37.47
737.438	36.91
737.619	36.76
737.8	37.06
737.981	38.49
738.162	38.89
738.343	39.22
738.524	39.33
738.705	40.77
738.886	40.76
739.067	41.24
739.247	41.79
739.428	41.24
739.609	40.83
739.79	40.71
739.971	39.89
740.151	40.22
740.332	39.91
740.513	40.19
740.694	38.77
740.874	39.12
741.055	39.37
741.236	38.73
741.417	39.1
741.597	38.62
741.778	39.48
741.958	39.38
742.139	39.4
742.32	38.66
742.5	39.37
742.681	39.26
742.861	38.44
743.042	38.15
743.222	39.04
743.403	39.35
743.583	40.56
743.764	39.23
743.944	39.12
744.124	39.43
744.305	40.98
744.485	41.32
744.666	42.64
744.846	43.2
745.026	42.84
745.207	42.45
745.387	42.27
745.567	42.08
745.747	43.47
745.928	43.36
746.108	43.25
746.288	42.94
746.468	42.5
746.648	41.99
746.829	42.25
747.009	43.54
747.189	44.01
747.369	44.32
747.549	44.5
747.729	43.54
747.909	42.85
748.089	42.52
748.269	42.21
748.449	42.11
748.629	42.07
748.809	42.18
748.989	41.94
749.169	41.72
749.349	41.49
749.529	40.58
749.709	40.96
749.889	42.28
750.068	42.85
750.248	43.58
750.428	44.28
750.608	43.57
750.788	44.8
750.967	44.47
751.147	44.54
751.327	44.68
751.507	44.73
751.686	45.03
751.866	44.89
752.046	44.19
752.225	43.9
752.405	43.87
752.585	44.52
752.764	43.5
752.944	43.63
753.123	43.73
753.303	43.83
753.482	43.9
753.662	44.58
753.841	44.45
754.021	44.56
754.2	44.1
754.38	44.06
754.559	44.3
754.739	43.83
754.918	43.08
755.097	42.11
755.277	41.78
755.456	41.91
755.635	40.91
755.815	41.92
755.994	41.62
756.173	41.3
756.352	41.74
756.532	40.88
756.711	41.43
756.89	42.24
757.069	43.46
757.248	43.45
757.427	43.82
757.607	44.48
757.786	43.64
757.965	44
758.144	44.04
758.323	42.32
758.502	42.49
758.681	41.41
758.86	40.77
759.039	40.16
759.218	40.28
759.397	39.33
759.576	38.25
759.755	37.39
759.934	36.65
760.113	37.67
760.291	37.11
760.47	37.1
760.649	37.61
760.828	36.57
761.007	37.21
761.186	36.3
761.364	36.91
761.543	37.79
761.722	38.67
761.901	38.67
762.079	38.24
762.258	38.28
762.437	37.35
762.615	36.97
762.794	37.17
762.972	35.87
763.151	36.67
763.33	36.57
763.508	36.21
763.687	35.75
763.865	35.91
764.044	35.74
764.222	35.74
764.401	36.94
764.579	36.77
764.758	36.59
764.936	37.38
765.114	37.27
765.293	36.94
765.471	36.61
765.65	36.95
765.828	36.63
766.006	36.24
766.184	37.02
766.363	36.45
766.541	36.74
766.719	37.48
766.898	37.59
767.076	37.63
767.254	38.16
767.432	38.73
767.61	38.67
767.788	38.41
767.967	38.46
768.145	38.6
768.323	39.39
768.501	39.42
768.679	39.99
768.857	40.89
769.035	41.08
769.213	41.5
769.391	42.26
769.569	42.29
769.747	43.52
769.925	44.58
770.103	44.57
770.281	43.17
770.459	43.96
770.636	43.52
770.814	42.33
770.992	42.03
771.17	41.58
771.348	41.91
771.525	41.77
771.703	41.99
771.881	41.39
772.059	41.8
772.236	43.34
772.414	42.98
772.592	44.8
772.769	45.84
772.947	46.43
773.125	46.9
773.302	45.57
773.48	46.03
773.657	47.07
773.835	47.24
774.013	46.65
774.19	46.78
774.368	47.43
774.545	45.78
774.723	44.45
774.9	43.13
775.077	44.29
775.255	43.58
775.432	43.87
775.61	44
775.787	44.39
775.964	44.41
776.142	44.18
776.319	43.02
776.496	43.64
776.674	44.05
776.851	45.23
777.028	44.71
777.205	45.99
777.382	44.96
777.56	43.72
777.737	44.13
777.914	45.16
778.091	45.44
778.268	46.31
778.445	45.5
778.622	45.15
778.8	45.62
778.977	44.32
779.154	48.72
779.331	48.49
779.508	50.27
779.685	50.97
779.862	50.35
780.038	50.39
780.215	50.44
780.392	50.15
780.569	49.95
780.746	49.74
780.923	50.76
781.1	47.64
781.277	50.76
781.453	48.15
781.63	46.46
781.807	46.24
781.984	45.52
782.16	44.39
782.337	45.81
782.514	46.54
782.691	46.34
782.867	47.55
783.044	46.37
783.221	44.72
783.397	46.15
783.574	46.34
783.75	48.2
783.927	49.5
784.103	50.2
784.28	50.36
784.456	49.88
784.633	49.75
784.809	47.38
784.986	46.02
785.162	46.57
785.339	46.19
785.515	46.51
785.692	45.53
785.868	45.03
786.044	45.25
786.221	44.95
786.397	45.42
786.573	46.49
786.749	46.49
786.926	46.72
787.102	48.54
787.278	48.3
787.454	47.83
787.631	46.83
787.807	45.87
787.983	46.55
788.159	45.73
788.335	47.13
788.511	46.02
788.687	45.9
788.863	46.4
789.039	43.9
789.216	42.98
789.392	44.36
789.568	46.02
789.744	46.15
789.919	45.65
790.095	46.55
790.271	44.35
790.447	43.91
790.623	43.86
790.799	44.13
790.975	44.18
791.151	43.55
791.327	43.53
791.502	42.48
791.678	41.57
791.854	44.6
792.03	44.2
792.205	46.27
792.381	46.7
792.557	48.18
792.733	48.95
792.908	48.24
793.084	50.26
793.259	48.73
793.435	50.22
793.611	51.67
793.786	48.57
793.962	48.74
794.137	47.52
794.313	47.98
794.488	47.09
794.664	46.4
794.839	46.57
795.015	47.18
795.19	48.33
795.366	47.89
795.541	49.18
795.716	47.6
795.892	47.38
796.067	47.95
796.242	47.87
796.418	49.18
796.593	50.92
796.768	49.36
796.944	47.6
797.119	47.31
797.294	46.88
797.469	44.95
797.644	45.8
797.82	44.96
797.995	43.89
798.17	43.63
798.345	42.55
798.52	41.88
798.695	44.22
798.87	44.59
799.045	43.05
799.22	41.98
799.395	42.55
799.57	43.13
799.745	44.88
799.92	45.68
800.095	45.16
800.27	45.28
800.445	43.93
800.62	45.07
800.795	45.05
800.97	44.25
801.145	44.45
801.319	44.82
801.494	45.02
801.669	45.08
801.844	43.28
802.018	43.27
802.193	41.4
802.368	40.76
802.543	39.67
802.717	42.48
802.892	44
803.067	46.04
803.241	45.27
803.416	44.43
803.59	44.97
803.765	49.45
803.94	50.94
804.114	54.48
804.289	58.58
804.463	57.94
804.638	55.83
804.812	55.98
804.986	54.64
805.161	55.51
805.335	55.07
805.51	53.48
805.684	51.37
805.858	49.79
806.033	48.26
806.207	44.71
806.381	43.88
806.556	42.68
806.73	43.72
806.904	44.8
807.078	44.45
807.253	44.05
807.427	43.68
807.601	43.63
807.775	46.48
807.949	46.73
808.123	46.49
808.298	48.7
808.472	48.58
808.646	48.7
808.82	48.53
808.994	47.33
809.168	47.84
809.342	50.02
809.516	49.7
809.69	47.36
809.864	48.45
810.038	49.61
810.212	47.04
810.385	49.28
810.559	48.38
810.733	48.61
810.907	50.32
811.081	49
811.255	47.51
811.428	48.18
811.602	49.02
811.776	47.77
811.95	49.12
812.123	50.54
812.297	49.68
812.471	48.83
812.644	46.2
812.818	45.28
812.992	46.4
813.165	44.75
813.339	43.49
813.512	44.94
813.686	44.05
813.86	43.27
814.033	42.8
814.207	42.3
814.38	46
814.554	45.19
814.727	44.49
814.9	44.41
815.074	47.88
815.247	50.71
815.421	47.99
815.594	48.79
815.767	49.44
815.941	49.26
816.114	48.94
816.287	45.72
816.46	47.22
816.634	48.81
816.807	47.52
816.98	46.64
817.153	46.74
817.327	47.64
817.5	49.03
817.673	46.13
817.846	46.55
818.019	47.27
818.192	48.76
818.365	46.34
818.538	45.67
818.711	45.19
818.884	43.77
819.057	43.14
819.23	42.31
819.403	37.97
819.576	39.28
819.749	40.15
819.922	39.14
820.095	40.44
820.268	43.31
820.441	42.84
820.614	41.84
820.786	43.3
820.959	42.08
821.132	40.7
821.305	41.07
821.477	39.96
821.65	38.64
821.823	37.59
821.996	35.53
822.168	34.6
822.341	33.81
822.514	33.92
822.686	32.61
822.859	31.91
823.031	32.03
823.204	32.03
823.376	31.55
823.549	31.21
823.722	31.39
823.894	32.22
824.067	32.15
824.239	32.8
824.411	33.01
824.584	33.2
824.756	33.61
824.929	33.26
825.101	33.86
825.273	34.26
825.446	34.65
825.618	34.35
825.79	33.27
825.963	33.81
826.135	33.26
826.307	33.31
826.479	34.41
826.652	34.42
826.824	34.58
826.996	33.92
827.168	34.36
827.34	34.4
827.512	35.06
827.684	36.37
827.856	35.71
828.029	36.23
828.201	36
828.373	34.81
828.545	34.84
828.717	35.6
828.889	36
829.061	36.56
829.232	36.89
829.404	37.19
829.576	36.85
829.748	37.25
829.92	36.72
830.092	37.55
830.264	39.54
830.436	40.4
830.607	39.39
830.779	39.84
830.951	40.01
831.123	39.09
831.294	38.54
831.466	40.03
831.638	40.64
831.809	39.13
831.981	40.77
832.153	39.89
832.324	40.31
832.496	43.14
832.667	43.76
832.839	43.79
833.011	44.41
833.182	46.58
833.354	44.63
833.525	44.75
833.697	45.6
833.868	44.86
834.039	43.94
834.211	41.91
834.382	39.93
834.554	38.77
834.725	37.14
834.896	37.77
835.068	36.94
835.239	36.55
835.41	35.52
835.581	37.5
835.753	36.25
835.924	36.5
836.095	38.91
836.266	40.61
836.438	40.36
836.609	41.89
836.78	41.25
836.951	40.39
837.122	40.37
837.293	43.06
837.464	41.9
837.635	42.13
837.806	43.22
837.977	42.2
838.148	40.79
838.319	42.56
838.49	41.99
838.661	43.91
838.832	46.55
839.003	49.56
839.174	48.68
839.345	49.64
839.516	50.94
839.687	49.19
839.857	46.58
840.028	48.9
840.199	48.35
840.37	50.27
840.54	51.6
840.711	50.39
840.882	48.54
841.053	49.68
841.223	45.96
841.394	45.11
841.564	45.2
841.735	47.49
841.906	45.27
842.076	45.71
842.247	48.15
842.417	49.09
842.588	52.98
842.758	55.14
842.929	56.32
843.099	62.28
843.27	64.87
843.44	67.33
843.611	66.96
843.781	70.28
843.951	72.71
844.122	70.86
844.292	71.39
844.462	64.62
844.633	63.66
844.803	62.57
844.973	60.38
845.144	63.37
845.314	67.98
845.484	73.86
845.654	72.67
845.824	73.95
845.995	74.65
846.165	74.44
846.335	76.14
846.505	74.3
846.675	73.63
846.845	74.05
847.015	70.05
847.185	68.24
847.355	60.61
847.525	67.03
847.695	65.29
847.865	67.41
848.035	65.45
848.205	67.77
848.375	72.98
848.545	69.1
848.715	67.59
848.884	67.94
849.054	66.11
849.224	74.23
849.394	69.06
849.564	71.8
849.733	67.9
849.903	71.37
850.073	73.75
850.243	67.78
850.412	82.02
850.582	88.36
850.752	90.3
850.921	85.07
851.091	82.7
851.26	81.24
851.43	78.83
851.599	76.42
851.769	77.4
851.939	72.67
852.108	75
852.278	63.64
852.447	60.61
852.616	62.34
852.786	63.19
852.955	59.81
853.125	64.75
853.294	57.54
853.463	63.69
853.633	64.91
853.802	62.7
853.971	61.85
854.141	64.8
854.31	71.8
854.479	68.66
854.648	73.63
854.818	75.06
854.987	73.37
855.156	74.84
855.325	65.19
855.494	62.19
855.663	76.46
855.832	76.65
856.001	75.59
856.171	77.21
856.34	78.55
856.509	70.4
856.678	73.26
856.847	68.71
857.016	68.48
857.185	75.19
857.353	79.3
857.522	68.87
857.691	66.49
857.86	77.34
858.029	69.08
858.198	64.59
858.367	63.81
858.535	64.67
858.704	64.12
858.873	69.65
859.042	66.11
859.21	60.22
859.379	62.34
859.548	61.38
859.717	54.3
859.885	54.18
860.054	58.18
860.222	57.96
860.391	59.66
860.56	63.09
860.728	63.13
860.897	65.17
861.065	67.6
861.234	62.36
861.402	74.41
861.571	75.33
861.739	70.2
861.908	74.13
862.076	85.72
862.244	81.88
862.413	78.65
862.581	80.68
862.749	83.63
862.918	81.48
863.086	86.36
863.254	78.98
863.423	83.31
863.591	95.32
863.759	89.27
863.927	87.93
864.096	83.16
864.264	85.21
864.432	85.6
864.6	83.79
864.768	90.63
864.936	80.87
865.104	86.03
865.272	83.88
865.44	77.48
865.608	82.47
865.776	76.62
865.944	81.48
866.112	79.87
866.28	74.47
866.448	72.85
866.616	73.68
866.784	83.72
866.952	83.82
867.12	84.63
867.288	89.22
867.455	89.3
867.623	92.13
867.791	94.02
867.959	100.24
868.127	102.11
868.294	105.88
868.462	93.12
868.63	89.07
868.797	81.27
868.965	77.94
869.133	76.93
869.3	76.39
869.468	74.61
869.636	71.51
869.803	69.75
869.971	68.66
870.138	66.43
870.306	65.63
870.473	69.77
870.641	74.05
870.808	80.98
870.975	86.02
871.143	80.15
871.31	83.76
871.478	78.78
871.645	80.13
871.812	85.3
871.98	80.81
872.147	86.1
872.314	73.22
872.482	77.62
872.649	69.81
872.816	61.69
872.983	66.79
873.15	65.63
873.318	69.86
873.485	64.94
873.652	63.14
873.819	63.36
873.986	63.63
874.153	69.92
874.32	60.05
874.487	63.75
874.654	66.28
874.821	64.5
874.988	58.64
875.155	58.92
875.322	62.97
875.489	58.24
875.656	53.35
875.823	56.61
875.99	59.55
876.157	67.96
876.324	62.07
876.49	57.04
876.657	55.22
876.824	52.32
876.991	48.69
877.157	54.61
877.324	59.54
877.491	64.78
877.658	70.45
877.824	71.73
877.991	71.52
878.157	73.09
878.324	75.57
878.491	78.13
878.657	92.12
878.824	96.99
878.99	97.01
879.157	103.36
879.323	103.08
879.49	93.05
879.656	87.56
879.823	87.78
879.989	86.72
880.156	84.34
880.322	83.5
880.488	76.65
880.655	72.25
880.821	63.47
880.987	55.38
881.154	54
881.32	51.5
881.486	49.75
881.652	48.45
881.819	46.14
881.985	45.44
882.151	43.65
882.317	41.44
882.483	39.08
882.649	39.39
882.816	37.26
882.982	36.35
883.148	37.77
883.314	35.31
883.48	34.16
883.646	34.77
883.812	32.98
883.978	33.6
884.144	35.25
884.31	35.65
884.476	35.49
884.642	38.39
884.807	37.2
884.973	36.22
885.139	37.35
885.305	38.95
885.471	38.52
885.637	39.77
885.802	40.91
885.968	40.08
886.134	40.14
886.3	40.52
886.465	39.51
886.631	41.51
886.797	42.48
886.962	45.32
887.128	46.25
887.293	49.29
887.459	53.57
887.625	54.51
887.79	58.83
887.956	63.1
888.121	65.28
888.287	67.97
888.452	71.78
888.618	77.31
888.783	78
