Data from LC_273_Reflection_3.txt Node
Date: Sat Nov 21 12:16:27 EST 2015
User: robert
Spectrometer: USB4E03001
Autoset integration time: false
Trigger mode: 4
Integration Time (sec): 1.000000E-1
Scans to average: 15
Electric dark correction enabled: true
Nonlinearity correction enabled: false
Boxcar width: 5
Stray light correction enabled: false
XAxis mode: Wavelengths
Stop averaging: false
Number of Pixels in Spectrum: 3648
>>>>>Begin Spectral Data<<<<<
177.566	-129.09
177.785	-81.56
178.005	-320.81
178.225	89.83
178.445	243.15
178.665	-66.47
178.885	373.2
179.105	324.49
179.324	132.76
179.544	248.85
179.764	1306.37
179.984	136.38
180.204	140.39
180.423	104.72
180.643	92.51
180.863	127.39
181.083	101.31
181.302	141.48
181.522	158.51
181.742	175.54
181.961	125.67
182.181	100.35
182.401	196.26
182.621	203.17
182.84	238.06
183.06	192.53
183.279	159.73
183.499	159.41
183.719	125.63
183.938	105.67
184.158	111.49
184.377	119.5
184.597	126.8
184.816	121.05
185.036	100.5
185.256	108.25
185.475	102.91
185.695	105.72
185.914	95.96
186.134	114.2
186.353	123.42
186.572	124.18
186.792	116.23
187.011	113.93
187.231	113.1
187.45	108.06
187.67	110.6
187.889	122
188.108	148.32
188.328	180.09
188.547	154.44
188.766	128.41
188.986	139.78
189.205	140
189.424	90.95
189.644	123.6
189.863	6.2
190.082	30.83
190.302	-178.46
190.521	-42.74
190.74	-16.84
190.959	-1.05
191.178	18.67
191.398	19.14
191.617	40.42
191.836	34.81
192.055	8.05
192.274	35.51
192.494	44
192.713	55.58
192.932	64.31
193.151	65.91
193.37	67.92
193.589	75.44
193.808	105.27
194.027	107.24
194.246	121.42
194.465	129.76
194.685	123.49
194.904	121.67
195.123	121.3
195.342	153.17
195.561	178.7
195.78	133.75
195.999	157.54
196.218	150.37
196.436	176.3
196.655	154.34
196.874	152.47
197.093	165.72
197.312	176.34
197.531	185.64
197.75	135.2
197.969	108.6
198.188	127.21
198.407	141.4
198.625	128.48
198.844	119.88
199.063	132.13
199.282	121.51
199.501	128.48
199.719	115.71
199.938	101.99
200.157	101.81
200.376	132.06
200.594	157.61
200.813	113.14
201.032	122.98
201.251	107.13
201.469	105.6
201.688	166.76
201.907	151.79
202.125	130.59
202.344	129.61
202.563	178.19
202.781	154.34
203	151.7
203.218	140.11
203.437	219.73
203.656	441.31
203.874	407.41
204.093	127.35
204.311	108.4
204.53	125.36
204.748	106.72
204.967	118.23
205.185	90.55
205.404	72.54
205.622	274.32
205.841	158.76
206.059	106.02
206.278	120.16
206.496	164.52
206.715	282.98
206.933	215.1
207.151	219.96
207.37	161.63
207.588	244.9
207.806	227.46
208.025	116.11
208.243	115.45
208.461	96.34
208.68	92
208.898	121.2
209.116	94.73
209.335	104.66
209.553	107.96
209.771	98.63
209.989	101.79
210.208	104.9
210.426	122.2
210.644	102.6
210.862	187.67
211.081	123.02
211.299	56.59
211.517	104.21
211.735	89.87
211.953	68.36
212.171	87.9
212.39	91.45
212.608	83.16
212.826	88.91
213.044	98.3
213.262	87.32
213.48	95.89
213.698	105.33
213.916	113.28
214.134	112.76
214.352	123
214.57	111.68
214.788	115.52
215.006	119.15
215.224	104.86
215.442	112.71
215.66	140.07
215.878	131.65
216.096	156.06
216.314	150.31
216.532	146.85
216.75	132.94
216.968	151.34
217.185	126.25
217.403	147.77
217.621	150.72
217.839	136.26
218.057	121.81
218.275	122.94
218.492	102.68
218.71	95.45
218.928	103.16
219.146	121.12
219.363	118.93
219.581	204.78
219.799	128.56
220.017	111.48
220.234	129.98
220.452	129.81
220.67	110.13
220.887	114.19
221.105	113.61
221.323	112.98
221.54	94.54
221.758	61.65
221.976	60.54
222.193	70.49
222.411	70.83
222.629	52.78
222.846	53.46
223.064	66.98
223.281	65.33
223.499	59.6
223.716	65.64
223.934	60.34
224.151	72.93
224.369	64.02
224.586	74.98
224.804	67.53
225.021	81.45
225.239	65.37
225.456	60.79
225.674	65.52
225.891	63.69
226.108	58.14
226.326	57.56
226.543	51.23
226.76	48.9
226.978	40.63
227.195	35.43
227.413	28.91
227.63	31.53
227.847	29.1
228.064	23.62
228.282	21.27
228.499	23.08
228.716	23.02
228.934	20.49
229.151	20.03
229.368	17.74
229.585	19.43
229.802	21.61
230.02	20.23
230.237	20.18
230.454	22.36
230.671	21.01
230.888	18.78
231.105	18.83
231.323	20.75
231.54	22.62
231.757	24.83
231.974	26.02
232.191	21.03
232.408	24.63
232.625	25.22
232.842	25.76
233.059	27.78
233.276	32.51
233.493	37.44
233.71	41.13
233.927	37.4
234.144	38.47
234.361	36.45
234.578	37.95
234.795	34.82
235.012	33.28
235.229	30.4
235.446	29.18
235.663	27.88
235.879	21.41
236.096	16.06
236.313	19.59
236.53	18.59
236.747	20.23
236.964	20.46
237.181	24.38
237.397	24.58
237.614	24.42
237.831	26.65
238.048	22.16
238.264	21.28
238.481	17.97
238.698	18.17
238.915	17.19
239.131	11.06
239.348	15.29
239.565	13.2
239.781	15.2
239.998	16.8
240.215	13.86
240.431	9.52
240.648	12.38
240.865	16.72
241.081	12.51
241.298	12.43
241.514	15.71
241.731	13.57
241.947	14.51
242.164	14.54
242.38	13.53
242.597	14.25
242.814	16.19
243.03	16.5
243.246	16.38
243.463	16.91
243.679	18.05
243.896	19.45
244.112	20.35
244.329	20.45
244.545	19.63
244.762	20.85
244.978	20.87
245.194	19.87
245.411	18.74
245.627	16.18
245.843	14.1
246.06	11.65
246.276	9.42
246.492	9.47
246.709	8.43
246.925	9.12
247.141	9.14
247.357	8.69
247.574	8.4
247.79	7.43
248.006	8.23
248.222	9.16
248.439	10.23
248.655	10.97
248.871	11.38
249.087	12.98
249.303	13.12
249.519	13.09
249.736	14.47
249.952	15.98
250.168	19.05
250.384	19.39
250.6	19.63
250.816	19.83
251.032	20.34
251.248	20.25
251.464	19.8
251.68	18.47
251.896	18.35
252.112	18.06
252.328	16.49
252.544	16.87
252.76	16.52
252.976	17.13
253.192	16.45
253.408	16.31
253.624	16.05
253.84	16.3
254.056	17.23
254.272	15.74
254.487	14.73
254.703	14.79
254.919	13.18
255.135	13.46
255.351	13.65
255.567	12.91
255.782	10.51
255.998	10.77
256.214	7.97
256.43	9.36
256.646	10.6
256.861	10.79
257.077	13.45
257.293	15.18
257.508	14.93
257.724	14.02
257.94	15.18
258.155	14.95
258.371	14.48
258.587	14.15
258.802	13.12
259.018	12.71
259.234	12.14
259.449	10.59
259.665	9.47
259.88	9.91
260.096	9.59
260.312	9.78
260.527	9.63
260.743	9.62
260.958	9.74
261.174	9.11
261.389	9.75
261.605	10.17
261.82	11.63
262.036	12.83
262.251	12.05
262.466	13.04
262.682	12.28
262.897	11.04
263.113	10.15
263.328	11
263.543	12.57
263.759	12.58
263.974	13.38
264.189	13.9
264.405	13.78
264.62	16.56
264.835	16.79
265.051	17.13
265.266	20.16
265.481	20.32
265.696	20.5
265.912	19.71
266.127	18.61
266.342	16.99
266.557	15.51
266.773	13.82
266.988	13
267.203	11.66
267.418	10.39
267.633	10.1
267.848	9.77
268.064	8.06
268.279	8.64
268.494	8.86
268.709	9.86
268.924	10.27
269.139	10.08
269.354	9.45
269.569	9.62
269.784	11.45
269.999	10.46
270.214	11.22
270.429	12.39
270.644	11.08
270.859	10.81
271.074	9.7
271.289	8.56
271.504	9.61
271.719	8.42
271.934	9.58
272.149	8.68
272.363	8.71
272.578	7.41
272.793	6.95
273.008	8.07
273.223	8.77
273.438	9.34
273.653	11.87
273.867	12.26
274.082	13.47
274.297	12.21
274.512	12.2
274.726	13.48
274.941	14.82
275.156	16.02
275.371	15.89
275.585	15.38
275.8	14.71
276.015	11.88
276.229	9.99
276.444	10.63
276.659	11.27
276.873	12.29
277.088	13.09
277.302	12.45
277.517	12.09
277.732	11.32
277.946	11.42
278.161	11.55
278.375	11.98
278.59	13.08
278.804	12.09
279.019	12.62
279.233	12.56
279.448	10.49
279.662	10.58
279.877	8.71
280.091	9.63
280.306	8.33
280.52	8.62
280.735	9.44
280.949	8.53
281.163	8.05
281.378	7.21
281.592	5.83
281.806	6.22
282.021	6.11
282.235	6.87
282.449	6.34
282.664	6.05
282.878	5.47
283.092	6.15
283.307	7
283.521	7.12
283.735	7.08
283.949	8.29
284.164	7.27
284.378	7.99
284.592	7.1
284.806	7.85
285.02	8.99
285.234	8.95
285.449	7.42
285.663	8.09
285.877	8.25
286.091	9.45
286.305	9.39
286.519	10.11
286.733	10.26
286.947	11.76
287.161	11.82
287.375	11.88
287.589	12.81
287.803	13.3
288.017	12.7
288.231	12.82
288.445	11.8
288.659	11.59
288.873	11.62
289.087	11.25
289.301	10.7
289.515	10.3
289.729	10.53
289.943	9.7
290.157	9.65
290.371	10.28
290.584	10.71
290.798	10.9
291.012	10.19
291.226	10.94
291.44	10.53
291.654	10.88
291.867	10.49
292.081	10.39
292.295	11.65
292.509	12.47
292.722	11.98
292.936	11.96
293.15	11.08
293.364	11.63
293.577	9.97
293.791	10.69
294.005	10.24
294.218	10.16
294.432	10.2
294.645	10.04
294.859	9.17
295.073	8.91
295.286	8.73
295.5	10.05
295.713	10.2
295.927	10.22
296.14	10.02
296.354	9.98
296.568	10.57
296.781	10.4
296.994	10.31
297.208	10.22
297.421	10.25
297.635	10.09
297.848	9.08
298.062	9.74
298.275	10.49
298.489	10.31
298.702	11.08
298.915	10.52
299.129	10.38
299.342	9.15
299.555	9.87
299.769	10.62
299.982	10.75
300.195	11.88
300.409	10.81
300.622	10.74
300.835	11.62
301.048	11.48
301.262	11.64
301.475	11.72
301.688	12.41
301.901	12.08
302.115	11.35
302.328	11.75
302.541	11.56
302.754	11.9
302.967	12.03
303.18	11.47
303.393	11.17
303.607	10.9
303.82	11.43
304.033	10.66
304.246	12.04
304.459	12.4
304.672	12.86
304.885	13.32
305.098	13.38
305.311	13.32
305.524	13.23
305.737	12.84
305.95	13.03
306.163	12.07
306.376	13.4
306.589	11.71
306.802	12.29
307.015	10.51
307.228	10.58
307.44	11.03
307.653	11.45
307.866	12.86
308.079	12.85
308.292	12.7
308.505	13.44
308.718	14.23
308.93	15.15
309.143	13.31
309.356	14.21
309.569	13.29
309.781	13.85
309.994	13.27
310.207	12.84
310.42	12.7
310.632	13.22
310.845	12.98
311.058	12.25
311.27	12.18
311.483	13.23
311.696	13.48
311.908	14.71
312.121	12.99
312.333	13.81
312.546	13.71
312.759	14.13
312.971	15
313.184	15.83
313.396	16.07
313.609	14.76
313.821	14.99
314.034	15.49
314.246	14.46
314.459	16.83
314.671	16.1
314.884	16.03
315.096	16.82
315.309	15.07
315.521	14.13
315.733	15.27
315.946	16.01
316.158	15.07
316.371	15.65
316.583	16.23
316.795	15.65
317.008	16.47
317.22	16.37
317.432	15.89
317.644	17.13
317.857	17.12
318.069	14.93
318.281	15.15
318.494	16.46
318.706	15.32
318.918	15.53
319.13	14.36
319.342	14.05
319.555	13.76
319.767	13.56
319.979	13.34
320.191	14.18
320.403	15.73
320.615	15.6
320.827	15.44
321.039	15.82
321.252	15.06
321.464	15.47
321.676	14.63
321.888	15.99
322.1	15.82
322.312	16.66
322.524	16.21
322.736	15.87
322.948	18.02
323.16	17.79
323.372	17.94
323.584	18.97
323.796	20.54
324.007	21.26
324.219	20.74
324.431	21.12
324.643	20.19
324.855	20.2
325.067	21.26
325.279	20.83
325.491	20.84
325.702	20.74
325.914	20.47
326.126	19.07
326.338	18.26
326.55	19.28
326.761	19.63
326.973	20.97
327.185	22.27
327.396	21.66
327.608	21.07
327.82	21.49
328.032	22.3
328.243	22.44
328.455	24.44
328.666	25.98
328.878	26.25
329.09	26.43
329.301	27.17
329.513	27.45
329.725	29.27
329.936	30.75
330.148	31.48
330.359	31.66
330.571	32.57
330.782	32.14
330.994	33.6
331.205	33.52
331.417	34.17
331.628	35.02
331.84	35.35
332.051	34.93
332.262	34.84
332.474	35.77
332.685	35.94
332.897	35.87
333.108	36.16
333.319	35.84
333.531	36.38
333.742	36.13
333.953	35.94
334.165	35.69
334.376	35.33
334.587	35.21
334.799	35.27
335.01	35.62
335.221	35.83
335.432	36.75
335.644	36.52
335.855	37.08
336.066	38.65
336.277	38.4
336.488	38.38
336.7	38.28
336.911	39.03
337.122	38.7
337.333	39.06
337.544	39.26
337.755	38.77
337.966	39.12
338.177	38.93
338.388	38.12
338.599	38.06
338.811	38.32
339.022	38.76
339.233	37.71
339.444	37.98
339.655	37.68
339.866	37.06
340.076	36.94
340.287	36.81
340.498	37.47
340.709	37.21
340.92	37.4
341.131	37.29
341.342	37.24
341.553	37.59
341.764	36.89
341.975	36.54
342.185	36.68
342.396	37.18
342.607	37.21
342.818	36.44
343.029	36.75
343.239	36.68
343.45	35.29
343.661	35.54
343.872	35.19
344.082	35.69
344.293	36.08
344.504	36.33
344.714	35.97
344.925	35.58
345.136	35.27
345.346	35.16
345.557	34.8
345.768	35.85
345.978	35.43
346.189	35.95
346.399	35.59
346.61	35.61
346.821	35.32
347.031	34.88
347.242	35.29
347.452	35.02
347.663	35.31
347.873	35.34
348.084	35.44
348.294	35.43
348.504	34.59
348.715	34.74
348.925	33.84
349.136	34.04
349.346	34.48
349.557	33.2
349.767	34.07
349.977	33.49
350.188	33.59
350.398	33.82
350.608	33.42
350.819	34.49
351.029	34.49
351.239	34.8
351.449	34.99
351.66	34.84
351.87	36.15
352.08	36.35
352.29	36.15
352.501	35.62
352.711	35.46
352.921	36.16
353.131	36.15
353.341	36.7
353.552	36.49
353.762	35.83
353.972	35.66
354.182	35.72
354.392	34.97
354.602	35.22
354.812	36.4
355.022	35.82
355.232	35.43
355.442	34.92
355.652	34.31
355.862	34.56
356.072	35.21
356.282	34.85
356.492	34.4
356.702	34.11
356.912	34.2
357.122	34.04
357.332	34.03
357.542	33.64
357.752	34.06
357.962	34.23
358.171	34.49
358.381	34.34
358.591	34.5
358.801	34.75
359.011	35.24
359.221	34.63
359.43	34.17
359.64	34.46
359.85	34.85
360.06	34.22
360.269	34.05
360.479	33.58
360.689	33.52
360.899	33.31
361.108	33.05
361.318	32.58
361.528	32.68
361.737	32.52
361.947	32.52
362.156	32.32
362.366	32.45
362.576	32.18
362.785	31.86
362.995	32.07
363.204	32.05
363.414	32.22
363.623	32.21
363.833	32.35
364.042	32.51
364.252	32.64
364.461	32.7
364.671	32.53
364.88	32.68
365.09	33.48
365.299	33.17
365.509	33.04
365.718	32.98
365.927	33.35
366.137	33.02
366.346	32.81
366.555	32.29
366.765	32.68
366.974	32.28
367.183	31.86
367.393	31.78
367.602	31.63
367.811	32.11
368.021	31.85
368.23	31.54
368.439	31.31
368.648	31.19
368.857	31.42
369.067	30.26
369.276	30.64
369.485	31.21
369.694	30.73
369.903	30.49
370.112	30.38
370.321	30.17
370.531	29.77
370.74	29.85
370.949	29.61
371.158	29.73
371.367	30.15
371.576	29.96
371.785	29.92
371.994	29.73
372.203	29.78
372.412	29.61
372.621	29.45
372.83	29.45
373.039	29.2
373.248	29.31
373.457	29.23
373.666	28.61
373.874	27.75
374.083	27.76
374.292	27.74
374.501	27.56
374.71	26.96
374.919	26.34
375.128	26.59
375.336	26.71
375.545	27.01
375.754	26.54
375.963	26.89
376.171	27.36
376.38	26.76
376.589	26.45
376.798	26.03
377.006	26.59
377.215	26.84
377.424	26.97
377.632	27.13
377.841	26.64
378.05	26.75
378.258	26.92
378.467	26.94
378.675	27.06
378.884	27.2
379.093	27.34
379.301	27.09
379.51	27.27
379.718	26.6
379.927	26.26
380.135	26.36
380.344	26.07
380.552	25.58
380.761	25.45
380.969	25.53
381.177	25.29
381.386	25.19
381.594	24.5
381.803	23.95
382.011	24.3
382.219	24.15
382.428	23.93
382.636	23.72
382.845	23.93
383.053	23.89
383.261	23.34
383.469	23.24
383.678	23.03
383.886	23.17
384.094	23.11
384.302	22.48
384.511	22.52
384.719	22.27
384.927	22.5
385.135	22.62
385.343	22.54
385.552	22.86
385.76	23.13
385.968	23.5
386.176	23.73
386.384	24.01
386.592	24.07
386.8	24.03
387.008	24.14
387.216	24.09
387.424	23.88
387.633	23.77
387.841	23.51
388.049	22.97
388.257	22.68
388.465	22.43
388.672	22.48
388.88	22.64
389.088	22.53
389.296	21.94
389.504	21.64
389.712	21.35
389.92	21.04
390.128	20.95
390.336	21.15
390.544	21.02
390.751	20.85
390.959	20.52
391.167	20.37
391.375	20
391.583	20.1
391.79	19.98
391.998	20.07
392.206	20.28
392.414	20.15
392.621	19.99
392.829	19.82
393.037	19.92
393.244	20
393.452	19.74
393.66	19.97
393.867	19.83
394.075	20.06
394.283	19.77
394.49	19.61
394.698	19.65
394.905	19.55
395.113	19.48
395.32	19.27
395.528	18.97
395.735	19
395.943	19.04
396.15	19.23
396.358	18.76
396.565	18.77
396.773	18.57
396.98	18.48
397.188	18.6
397.395	18.38
397.602	18.43
397.81	18.42
398.017	18.15
398.225	17.96
398.432	17.92
398.639	17.83
398.847	17.44
399.054	17.47
399.261	17.64
399.468	17.6
399.676	17.82
399.883	17.93
400.09	18.24
400.297	18.48
400.505	18.31
400.712	18.15
400.919	18.21
401.126	18.75
401.333	18.68
401.54	18.56
401.748	18.47
401.955	18.29
402.162	18.44
402.369	18.32
402.576	18.25
402.783	18.12
402.99	17.83
403.197	18.01
403.404	18
403.611	18.3
403.818	17.99
404.025	17.88
404.232	17.9
404.439	17.43
404.646	17.34
404.853	17.67
405.06	17.75
405.267	18.11
405.474	18.03
405.681	18
405.887	17.74
406.094	17.73
406.301	17.82
406.508	17.85
406.715	17.75
406.922	17.54
407.128	17.57
407.335	17.53
407.542	17.45
407.749	17.66
407.955	17.42
408.162	17.28
408.369	17.59
408.575	17.56
408.782	17.6
408.989	17.97
409.195	18.05
409.402	17.76
409.609	17.88
409.815	17.7
410.022	17.45
410.228	17.49
410.435	17.51
410.642	17.12
410.848	17.26
411.055	17.15
411.261	16.76
411.468	16.74
411.674	16.5
411.881	16.55
412.087	16.58
412.294	16.78
412.5	16.62
412.706	16.69
412.913	16.77
413.119	16.59
413.326	16.92
413.532	17.38
413.738	17.55
413.945	17.92
414.151	17.63
414.357	17.51
414.564	17.46
414.77	17.7
414.976	17.71
415.182	17.67
415.389	17.78
415.595	17.61
415.801	17.3
416.007	17.3
416.214	17.08
416.42	17.31
416.626	17.67
416.832	17.5
417.038	17.38
417.244	17.47
417.45	17.59
417.657	17.46
417.863	17.44
418.069	17.6
418.275	17.5
418.481	17.55
418.687	17.37
418.893	17.07
419.099	17.02
419.305	17.09
419.511	16.94
419.717	16.79
419.923	16.74
420.129	16.72
420.335	16.57
420.541	16.44
420.746	16.25
420.952	16.3
421.158	16.38
421.364	16.37
421.57	16.29
421.776	16.37
421.982	16.44
422.187	16.39
422.393	16.3
422.599	16.22
422.805	16.3
423.01	16.48
423.216	16.41
423.422	16.35
423.628	16.36
423.833	16.27
424.039	16.28
424.245	16.19
424.45	16.3
424.656	16.23
424.862	16.29
425.067	16.15
425.273	16.06
425.478	16.06
425.684	16.08
425.889	16.04
426.095	16.12
426.301	16.14
426.506	16.26
426.712	15.96
426.917	15.95
427.123	15.87
427.328	16
427.533	16.12
427.739	16.15
427.944	16.21
428.15	16.16
428.355	16.21
428.561	16.11
428.766	15.94
428.971	16.3
429.177	16.53
429.382	16.71
429.587	16.49
429.793	16.42
429.998	16.53
430.203	16.4
430.408	16.33
430.614	16.17
430.819	16.17
431.024	16.25
431.229	16.11
431.434	16.04
431.64	15.92
431.845	16.11
432.05	16.18
432.255	16.13
432.46	16.07
432.665	16.2
432.87	16.13
433.076	16.07
433.281	16.09
433.486	16.09
433.691	16.26
433.896	16.21
434.101	16.11
434.306	15.92
434.511	15.72
434.716	15.69
434.921	15.61
435.126	15.71
435.331	15.78
435.535	15.69
435.74	15.7
435.945	15.48
436.15	15.65
436.355	15.9
436.56	16.02
436.765	16.21
436.97	16.33
437.174	16.49
437.379	16.5
437.584	16.58
437.789	16.48
437.993	16.46
438.198	16.45
438.403	16.38
438.608	16.29
438.812	16.19
439.017	16.18
439.222	16.13
439.426	16.06
439.631	16.21
439.836	16.07
440.04	16.17
440.245	16.16
440.45	16.13
440.654	15.94
440.859	15.86
441.063	15.85
441.268	15.82
441.472	15.84
441.677	15.81
441.881	15.67
442.086	15.63
442.29	15.81
442.495	15.68
442.699	15.75
442.904	15.8
443.108	15.76
443.312	15.8
443.517	15.78
443.721	15.8
443.925	15.59
444.13	15.46
444.334	15.49
444.538	15.21
444.743	15.25
444.947	15.05
445.151	15.12
445.356	15.05
445.56	15.13
445.764	15.08
445.968	15.01
446.173	15.13
446.377	15.14
446.581	15.03
446.785	15.05
446.989	15.01
447.193	15.15
447.398	15.2
447.602	15.19
447.806	15.03
448.01	14.98
448.214	14.95
448.418	14.8
448.622	14.67
448.826	14.71
449.03	14.72
449.234	14.82
449.438	14.64
449.642	14.34
449.846	14.52
450.05	14.5
450.254	14.49
450.458	14.24
450.662	14.46
450.866	14.4
451.069	14.34
451.273	14.15
451.477	13.98
451.681	13.92
451.885	13.95
452.089	13.84
452.292	13.98
452.496	14.09
452.7	14.16
452.904	14.02
453.107	14.15
453.311	14.07
453.515	14.01
453.719	14.08
453.922	14.33
454.126	14.34
454.33	14.29
454.533	14.18
454.737	14.01
454.94	14.23
455.144	14.32
455.348	14.27
455.551	14.48
455.755	14.72
455.958	14.83
456.162	14.8
456.365	14.94
456.569	14.82
456.772	14.79
456.976	14.83
457.179	14.75
457.383	14.69
457.586	14.72
457.79	14.72
457.993	14.65
458.196	14.6
458.4	14.46
458.603	14.39
458.807	14.42
459.01	14.56
459.213	14.7
459.417	14.69
459.62	14.64
459.823	14.55
460.026	14.49
460.23	14.37
460.433	14.26
460.636	14.34
460.839	14.47
461.042	14.57
461.246	14.42
461.449	14.44
461.652	14.45
461.855	14.53
462.058	14.74
462.261	14.78
462.464	14.94
462.668	15.18
462.871	15.37
463.074	15.15
463.277	15.15
463.48	15.23
463.683	15.19
463.886	15.24
464.089	15.38
464.292	15.42
464.495	15.5
464.698	15.7
464.901	15.78
465.104	15.81
465.306	16.2
465.509	16.1
465.712	16.21
465.915	16.19
466.118	16.28
466.321	16.14
466.524	16.06
466.726	16.17
466.929	16.1
467.132	16.07
467.335	15.92
467.538	15.68
467.74	16.02
467.943	16.06
468.146	16.12
468.348	16.23
468.551	16.31
468.754	16.39
468.956	16.37
469.159	16.35
469.362	16.41
469.564	16.55
469.767	16.88
469.969	16.81
470.172	16.81
470.375	16.88
470.577	16.72
470.78	16.72
470.982	16.7
471.185	16.74
471.387	16.69
471.59	16.51
471.792	16.48
471.995	16.48
472.197	16.51
472.399	16.6
472.602	16.44
472.804	16.41
473.007	16.5
473.209	16.58
473.411	16.69
473.614	16.78
473.816	16.88
474.018	16.77
474.22	16.59
474.423	16.48
474.625	16.47
474.827	16.51
475.03	16.75
475.232	16.79
475.434	16.78
475.636	16.54
475.838	16.64
476.04	16.64
476.243	16.86
476.445	16.96
476.647	16.98
476.849	16.81
477.051	16.88
477.253	16.82
477.455	16.71
477.657	16.52
477.859	16.53
478.061	16.35
478.263	16.4
478.465	16.27
478.667	16.14
478.869	16.03
479.071	16.15
479.273	16.16
479.475	16.08
479.677	16.13
479.879	16.34
480.081	16.36
480.283	16.47
480.485	16.4
480.686	16.37
480.888	16.38
481.09	16.36
481.292	16.35
481.494	16.35
481.695	16.28
481.897	16.2
482.099	16.08
482.301	16.04
482.502	15.9
482.704	15.83
482.906	15.76
483.107	15.74
483.309	15.73
483.511	15.63
483.712	15.57
483.914	15.56
484.115	15.5
484.317	15.5
484.519	15.45
484.72	15.47
484.922	15.48
485.123	15.5
485.325	15.47
485.526	15.46
485.728	15.51
485.929	15.52
486.131	15.54
486.332	15.65
486.534	15.64
486.735	15.71
486.936	15.79
487.138	15.74
487.339	15.76
487.541	15.87
487.742	15.9
487.943	15.94
488.144	15.94
488.346	15.95
488.547	15.94
488.748	15.96
488.95	15.95
489.151	15.93
489.352	16.03
489.553	16.1
489.755	16.03
489.956	16.11
490.157	16.08
490.358	16.18
490.559	16.31
490.76	16.37
490.961	16.44
491.163	16.56
491.364	16.62
491.565	16.63
491.766	16.64
491.967	16.73
492.168	16.73
492.369	16.86
492.57	16.97
492.771	16.98
492.972	17.06
493.173	17.15
493.374	17.22
493.575	17.25
493.776	17.4
493.976	17.51
494.177	17.64
494.378	17.82
494.579	18.07
494.78	18.05
494.981	18.3
495.182	18.36
495.382	18.56
495.583	18.68
495.784	18.82
495.985	18.91
496.185	19.08
496.386	19.18
496.587	19.16
496.788	19.11
496.988	19.25
497.189	19.26
497.39	19.41
497.59	19.43
497.791	19.44
497.992	19.58
498.192	19.74
498.393	19.74
498.593	19.94
498.794	20.18
498.994	20.37
499.195	20.45
499.395	20.58
499.596	20.75
499.796	20.95
499.997	21.21
500.197	21.43
500.398	21.45
500.598	21.74
500.799	21.9
500.999	22.08
501.199	22.18
501.4	22.32
501.6	22.57
501.801	22.8
502.001	23.02
502.201	23.31
502.402	23.49
502.602	23.72
502.802	23.83
503.002	23.99
503.203	24.24
503.403	24.43
503.603	24.73
503.803	24.75
504.003	24.95
504.204	25.05
504.404	25.24
504.604	25.21
504.804	25.51
505.004	25.79
505.204	26
505.404	26.08
505.604	26.15
505.804	26.21
506.005	26.39
506.205	26.66
506.405	26.85
506.605	26.85
506.805	27.26
507.005	27.33
507.204	27.36
507.404	27.47
507.604	27.92
507.804	28.09
508.004	28.4
508.204	28.79
508.404	28.84
508.604	28.93
508.804	29.25
509.003	29.37
509.203	29.65
509.403	30.02
509.603	30.14
509.803	30.18
510.002	30.36
510.202	30.52
510.402	30.61
510.602	30.77
510.801	31.01
511.001	31.23
511.201	31.38
511.4	31.65
511.6	31.7
511.8	32.02
511.999	32.09
512.199	32.54
512.398	32.76
512.598	32.95
512.797	33.33
512.997	33.52
513.197	33.56
513.396	33.85
513.596	34
513.795	34.23
513.994	34.31
514.194	34.74
514.393	34.82
514.593	34.93
514.792	35.14
514.992	35.21
515.191	35.51
515.39	35.8
515.59	36.01
515.789	36.22
515.988	36.42
516.188	36.83
516.387	37.04
516.586	37.2
516.786	37.55
516.985	37.78
517.184	37.95
517.383	38.06
517.582	38.2
517.782	38.42
517.981	38.62
518.18	38.74
518.379	38.81
518.578	38.77
518.777	38.9
518.976	39.05
519.176	39.08
519.375	39.18
519.574	39.41
519.773	39.56
519.972	39.54
520.171	39.6
520.37	39.83
520.569	40.05
520.768	40.28
520.967	40.45
521.166	40.57
521.365	40.86
521.564	41.14
521.762	41.2
521.961	41.49
522.16	41.71
522.359	41.83
522.558	41.91
522.757	41.91
522.956	42.03
523.154	42.19
523.353	42.25
523.552	42.34
523.751	42.45
523.949	42.63
524.148	42.6
524.347	42.85
524.546	43
524.744	43.15
524.943	43.28
525.142	43.52
525.34	43.59
525.539	43.74
525.737	43.9
525.936	44.01
526.135	44.13
526.333	44.17
526.532	44.37
526.73	44.46
526.929	44.67
527.127	44.87
527.326	44.83
527.524	45.02
527.723	45.08
527.921	45.09
528.12	45.11
528.318	45.04
528.516	45.16
528.715	45.14
528.913	45.19
529.112	45.16
529.31	45.13
529.508	45.22
529.707	45.18
529.905	45.23
530.103	45.33
530.301	45.42
530.5	45.61
530.698	45.68
530.896	45.81
531.094	45.86
531.293	45.91
531.491	46.13
531.689	46.27
531.887	46.48
532.085	46.52
532.283	46.61
532.481	46.76
532.68	46.9
532.878	46.98
533.076	46.95
533.274	46.97
533.472	47.07
533.67	46.95
533.868	46.97
534.066	46.96
534.264	47.09
534.462	47.08
534.66	47.02
534.858	46.87
535.056	46.91
535.253	47.02
535.451	47.16
535.649	47.13
535.847	47.28
536.045	47.39
536.243	47.4
536.441	47.42
536.638	47.52
536.836	47.49
537.034	47.63
537.232	47.6
537.43	47.56
537.627	47.72
537.825	47.81
538.023	47.93
538.22	47.79
538.418	47.81
538.616	47.86
538.813	47.89
539.011	48.01
539.209	48.03
539.406	48.24
539.604	48.38
539.801	48.33
539.999	48.49
540.196	48.51
540.394	48.69
540.591	48.81
540.789	48.77
540.986	48.74
541.184	48.79
541.381	48.78
541.579	48.67
541.776	48.57
541.974	48.5
542.171	48.44
542.368	48.36
542.566	48.32
542.763	48.26
542.96	48.27
543.158	48.22
543.355	48.14
543.552	48.25
543.75	48.37
543.947	48.49
544.144	48.63
544.341	48.75
544.539	48.85
544.736	48.99
544.933	49.08
545.13	49.18
545.327	49.24
545.524	49.25
545.722	49.21
545.919	49.15
546.116	49.04
546.313	49.04
546.51	49.04
546.707	49.11
546.904	48.98
547.101	48.96
547.298	48.92
547.495	48.98
547.692	49.1
547.889	49.09
548.086	49.17
548.283	49.28
548.48	49.35
548.677	49.22
548.874	49.16
549.07	49.35
549.267	49.32
549.464	49.34
549.661	49.37
549.858	49.33
550.055	49.46
550.251	49.44
550.448	49.45
550.645	49.5
550.842	49.5
551.038	49.53
551.235	49.42
551.432	49.53
551.628	49.55
551.825	49.61
552.022	49.71
552.218	49.68
552.415	49.75
552.612	49.79
552.808	49.64
553.005	49.62
553.201	49.72
553.398	49.74
553.594	49.78
553.791	49.84
553.987	49.84
554.184	49.8
554.38	49.61
554.577	49.54
554.773	49.67
554.97	49.89
555.166	50.01
555.362	49.93
555.559	49.95
555.755	49.87
555.952	49.97
556.148	49.97
556.344	50.1
556.541	50.18
556.737	50.25
556.933	50.18
557.129	50.02
557.326	50.12
557.522	50.16
557.718	50.24
557.914	50.46
558.11	50.44
558.307	50.44
558.503	50.45
558.699	50.78
558.895	50.76
559.091	50.81
559.287	50.95
559.483	50.7
559.679	50.59
559.876	50.64
560.072	50.64
560.268	50.61
560.464	50.72
560.66	50.7
560.856	50.51
561.052	50.63
561.247	50.62
561.443	50.59
561.639	50.86
561.835	50.88
562.031	50.7
562.227	50.51
562.423	50.47
562.619	50.47
562.815	50.63
563.01	50.65
563.206	50.59
563.402	50.47
563.598	50.36
563.793	50.38
563.989	50.49
564.185	50.58
564.381	50.63
564.576	50.75
564.772	50.85
564.968	50.92
565.163	50.88
565.359	50.84
565.555	50.71
565.75	50.81
565.946	50.74
566.141	50.7
566.337	50.84
566.532	50.82
566.728	50.73
566.923	50.52
567.119	50.27
567.314	50.28
567.51	50.17
567.705	50.37
567.901	50.25
568.096	50.27
568.292	50.43
568.487	50.3
568.682	50.5
568.878	50.6
569.073	50.74
569.268	50.69
569.464	50.63
569.659	50.74
569.854	50.67
570.05	50.94
570.245	50.97
570.44	50.77
570.635	50.77
570.831	50.47
571.026	50.36
571.221	50.25
571.416	50.45
571.611	50.35
571.806	50.48
572.002	50.49
572.197	50.3
572.392	50.26
572.587	50.38
572.782	50.27
572.977	50.41
573.172	50.52
573.367	50.53
573.562	50.62
573.757	50.78
573.952	50.66
574.147	50.71
574.342	50.82
574.537	50.85
574.732	50.76
574.927	50.98
575.121	50.91
575.316	50.81
575.511	50.87
575.706	50.69
575.901	50.58
576.096	50.63
576.29	50.6
576.485	50.43
576.68	50.53
576.875	50.51
577.069	50.39
577.264	50.37
577.459	50.42
577.654	50.4
577.848	50.54
578.043	50.85
578.238	50.69
578.432	50.53
578.627	50.72
578.821	50.64
579.016	50.63
579.21	50.56
579.405	50.68
579.6	50.66
579.794	50.9
579.989	50.67
580.183	50.91
580.378	51.15
580.572	51.51
580.766	51.33
580.961	51.18
581.155	51.11
581.35	51.32
581.544	51.48
581.738	51.47
581.933	51.22
582.127	51.2
582.321	50.82
582.516	50.8
582.71	50.49
582.904	50.78
583.099	50.93
583.293	51.17
583.487	51.13
583.681	50.99
583.875	51.01
584.07	51.24
584.264	51.31
584.458	51.42
584.652	51.35
584.846	51.52
585.04	51.4
585.234	51.43
585.428	51.22
585.623	51.22
585.817	51.46
586.011	51.48
586.205	51.51
586.399	51.56
586.593	51.55
586.787	51.67
586.981	51.52
587.174	51.81
587.368	51.77
587.562	51.86
587.756	51.81
587.95	51.65
588.144	51.66
588.338	51.27
588.532	51.22
588.725	51
588.919	50.83
589.113	51.17
589.307	50.98
589.501	50.98
589.694	51.04
589.888	50.96
590.082	51.02
590.275	51.13
590.469	51.35
590.663	51.34
590.856	51.56
591.05	51.95
591.244	51.94
591.437	52.04
591.631	51.98
591.824	51.88
592.018	52.03
592.212	51.84
592.405	51.7
592.599	51.5
592.792	51.5
592.986	51.47
593.179	51.41
593.372	51.17
593.566	51.01
593.759	51.28
593.953	51.32
594.146	51.37
594.339	51.56
594.533	51.74
594.726	51.95
594.92	51.89
595.113	51.92
595.306	51.89
595.499	52.01
595.693	51.89
595.886	51.6
596.079	51.59
596.272	51.47
596.466	51.34
596.659	51.19
596.852	51.11
597.045	51.28
597.238	51.11
597.431	50.94
597.624	50.94
597.818	51.03
598.011	51.15
598.204	51.03
598.397	51.25
598.59	51.44
598.783	51.46
598.976	51.5
599.169	51.54
599.362	51.69
599.555	51.73
599.748	51.74
599.941	51.96
600.134	51.98
600.326	52
600.519	51.79
600.712	51.59
600.905	51.77
601.098	51.79
601.291	51.75
601.483	51.64
601.676	51.56
601.869	51.3
602.062	51.1
602.255	51.18
602.447	51.29
602.64	51.29
602.833	51.15
603.025	51.11
603.218	51.21
603.411	51.13
603.603	51.19
603.796	51.25
603.989	51.31
604.181	51.37
604.374	51.23
604.566	51.28
604.759	51.16
604.951	51.15
605.144	50.91
605.336	50.96
605.529	50.91
605.721	50.82
605.914	50.78
606.106	50.76
606.299	50.67
606.491	50.66
606.683	50.67
606.876	50.73
607.068	50.88
607.26	50.97
607.453	50.75
607.645	50.65
607.837	50.76
608.03	50.54
608.222	50.54
608.414	50.45
608.606	50.58
608.799	50.56
608.991	50.32
609.183	50.28
609.375	50.33
609.567	50.11
609.759	50.19
609.952	50
610.144	50.13
610.336	50.12
610.528	50.11
610.72	50.02
610.912	49.98
611.104	50.26
611.296	50.18
611.488	50.19
611.68	50.38
611.872	50.37
612.064	50.38
612.256	50.33
612.448	50.29
612.64	50.22
612.832	50.23
613.023	50.21
613.215	50.15
613.407	50.29
613.599	50.19
613.791	50.32
613.983	50.35
614.174	50.47
614.366	50.58
614.558	50.54
614.75	50.49
614.941	50.5
615.133	50.25
615.325	50.25
615.516	49.77
615.708	49.76
615.9	49.55
616.091	49.38
616.283	49.26
616.475	49.07
616.666	48.78
616.858	48.76
617.049	48.52
617.241	48.7
617.432	48.66
617.624	49.2
617.815	49.16
618.007	49.24
618.198	49.28
618.39	49.35
618.581	49.37
618.773	49.67
618.964	49.78
619.155	49.57
619.347	49.38
619.538	49.12
619.729	48.77
619.921	48.79
620.112	48.96
620.303	48.77
620.494	48.76
620.686	48.88
620.877	48.64
621.068	48.52
621.259	48.76
621.451	48.76
621.642	48.73
621.833	48.74
622.024	48.9
622.215	48.59
622.406	48.61
622.597	48.62
622.788	48.58
622.98	48.71
623.171	48.68
623.362	48.5
623.553	48.43
623.744	48.55
623.935	48.41
624.126	48.26
624.317	48.25
624.508	48.22
624.698	48.14
624.889	47.79
625.08	47.82
625.271	48.07
625.462	48.11
625.653	48.24
625.844	47.98
626.034	47.98
626.225	47.84
626.416	47.74
626.607	47.71
626.798	47.57
626.988	47.81
627.179	47.55
627.37	47.36
627.56	47.29
627.751	47.23
627.942	47.13
628.132	47.09
628.323	46.93
628.514	47.04
628.704	47.14
628.895	47.19
629.085	47.01
629.276	47.15
629.466	46.86
629.657	46.89
629.847	46.68
630.038	46.89
630.228	46.99
630.419	47.18
630.609	46.78
630.8	46.83
630.99	46.52
631.181	46.51
631.371	46.34
631.561	46.75
631.752	46.72
631.942	46.63
632.132	46.74
632.323	46.49
632.513	46.31
632.703	46.51
632.893	46.5
633.084	46.59
633.274	46.34
633.464	46.06
633.654	45.59
633.844	45.69
634.034	45.71
634.225	45.45
634.415	45.57
634.605	45.44
634.795	45.06
634.985	44.87
635.175	45.12
635.365	45.25
635.555	45.25
635.745	45.36
635.935	45.35
636.125	44.95
636.315	45.05
636.505	44.77
636.695	44.8
636.885	44.81
637.075	44.45
637.265	44.37
637.455	44.34
637.644	44.58
637.834	44.59
638.024	44.32
638.214	44.81
638.404	44.39
638.593	44.59
638.783	44.96
638.973	45.3
639.163	45.27
639.352	44.96
639.542	44.63
639.732	44.81
639.921	44.74
640.111	44.85
640.301	44.45
640.49	44.85
640.68	44.8
640.87	44.53
641.059	44.44
641.249	44.86
641.438	44.8
641.628	44.78
641.817	44.61
642.007	44.43
642.196	44.07
642.386	44.29
642.575	44.16
642.764	44.05
642.954	43.82
643.143	43.92
643.333	43.43
643.522	43.41
643.711	43.44
643.901	43.45
644.09	43.88
644.279	43.96
644.469	43.87
644.658	43.82
644.847	44.26
645.036	44.32
645.226	43.95
645.415	44.09
645.604	43.88
645.793	44.2
645.982	44.17
646.171	43.78
646.361	43.48
646.55	43.77
646.739	43.78
646.928	43.46
647.117	43.28
647.306	43.57
647.495	43.41
647.684	43.74
647.873	43.76
648.062	43.89
648.251	43.89
648.44	44.03
648.629	43.63
648.818	43.26
649.007	43.38
649.196	43.44
649.384	43.13
649.573	43.3
649.762	43.24
649.951	43.21
650.14	42.65
650.328	42.67
650.517	42.96
650.706	43.26
650.895	43.16
651.083	42.96
651.272	43.09
651.461	43.65
651.65	43.92
651.838	43.7
652.027	43.46
652.216	43.51
652.404	43.16
652.593	43.09
652.781	42.67
652.97	43.15
653.158	43.08
653.347	42.52
653.535	42.01
653.724	41.42
653.912	41.65
654.101	41.54
654.289	41.77
654.478	42.14
654.666	42.1
654.855	42.44
655.043	42.24
655.231	42.25
655.42	42.53
655.608	42.63
655.796	43.04
655.985	42.81
656.173	43.07
656.361	42.91
656.55	42.64
656.738	42.8
656.926	42.65
657.114	42.63
657.302	42.59
657.491	42.74
657.679	42.59
657.867	42.6
658.055	42.61
658.243	42.27
658.431	42.28
658.619	42.36
658.807	41.96
658.996	41.76
659.184	41.63
659.372	41.63
659.56	41.53
659.748	41.43
659.936	41.32
660.124	41.31
660.311	41.35
660.499	41.32
660.687	41.09
660.875	41.48
661.063	41.56
661.251	41.67
661.439	41.55
661.627	41.34
661.814	41.31
662.002	40.99
662.19	40.76
662.378	40.76
662.565	40.64
662.753	40.78
662.941	40.06
663.129	39.72
663.316	39.51
663.504	38.9
663.692	38.92
663.879	38.92
664.067	39.32
664.254	39.77
664.442	39.74
664.63	40.1
664.817	40.01
665.005	40.25
665.192	40.24
665.38	40.46
665.567	40.88
665.755	41.17
665.942	41.17
666.13	40.61
666.317	40.29
666.504	40.3
666.692	40.01
666.879	39.82
667.067	39.79
667.254	39.99
667.441	40.22
667.629	39.98
667.816	39.7
668.003	39.72
668.19	40.04
668.378	40.2
668.565	39.98
668.752	39.73
668.939	40.18
669.127	40.1
669.314	40.18
669.501	39.91
669.688	40.45
669.875	40.45
670.062	40.8
670.249	40.51
670.436	40.55
670.623	40.77
670.81	40.99
670.997	40.59
671.184	40.3
671.371	40.35
671.558	40.17
671.745	39.95
671.932	40.24
672.119	40.07
672.306	40.63
672.493	40.31
672.68	40.14
672.867	40.25
673.054	40.22
673.24	40.19
673.427	40.01
673.614	40.2
673.801	40.29
673.988	39.87
674.174	39.56
674.361	39.01
674.548	38.83
674.734	38.82
674.921	38.64
675.108	38.57
675.294	39
675.481	39.02
675.668	38.57
675.854	38.31
676.041	38.43
676.227	38.4
676.414	38.28
676.601	38.69
676.787	39.31
676.974	39.22
677.16	39.85
677.347	39.91
677.533	39.6
677.719	39.77
677.906	39.47
678.092	39.2
678.279	39.15
678.465	39.28
678.651	38.85
678.838	38.44
679.024	38.33
679.21	37.57
679.397	37.45
679.583	37.22
679.769	37.25
679.955	37.63
680.142	37.53
680.328	37.84
680.514	38.06
680.7	37.95
680.886	37.65
681.073	37.82
681.259	38.17
681.445	38.08
681.631	38.45
681.817	38.26
682.003	38.07
682.189	38.21
682.375	37.69
682.561	37.56
682.747	37.56
682.933	37.11
683.119	36.92
683.305	36.39
683.491	36.45
683.677	36.36
683.863	36.23
684.049	36.26
684.235	36.68
684.42	36.91
684.606	36.82
684.792	37.24
684.978	38.07
685.164	38.09
685.349	38.4
685.535	38.51
685.721	38.45
685.907	38.58
686.092	38.45
686.278	37.65
686.464	37.66
686.649	37.38
686.835	37.34
687.021	37.36
687.206	37.38
687.392	37.13
687.577	36.58
687.763	36.41
687.948	36.27
688.134	36.24
688.319	36.46
688.505	36.78
688.69	37.14
688.876	36.74
689.061	36.26
689.247	36.2
689.432	36.49
689.618	36.84
689.803	37
689.988	37.53
690.174	37.29
690.359	36.91
690.544	36.44
690.73	36.17
690.915	36.28
691.1	36.3
691.285	36.14
691.471	35.96
691.656	35.82
691.841	35.79
692.026	35.58
692.211	35.76
692.396	36.47
692.582	36.57
692.767	36.9
692.952	36.88
693.137	36.8
693.322	36.93
693.507	37.09
693.692	37.08
693.877	37.65
694.062	37.31
694.247	37.58
694.432	37.18
694.617	37.34
694.802	37.04
694.987	37.2
695.172	37.61
695.357	37.52
695.541	37.31
695.726	37.37
695.911	37.06
696.096	37.11
696.281	36.74
696.466	37.09
696.65	36.3
696.835	36.24
697.02	36.23
697.204	36.06
697.389	36.08
697.574	35.95
697.759	35.85
697.943	35.57
698.128	35.59
698.312	35.61
698.497	35.25
698.682	35.43
698.866	35.66
699.051	35.48
699.235	35.39
699.42	35.49
699.604	35.94
699.789	36.11
699.973	35.92
700.158	35.99
700.342	36.18
700.527	36.49
700.711	36.69
700.895	36.66
701.08	36.57
701.264	36.75
701.448	36.91
701.633	36.43
701.817	36.81
702.001	37.15
702.186	37.45
702.37	36.79
702.554	36.36
702.738	36.55
702.923	36.27
703.107	36.23
703.291	36.66
703.475	36.31
703.659	35.98
703.843	35.3
704.027	35.48
704.212	35.02
704.396	35.83
704.58	36.32
704.764	35.94
704.948	35.84
705.132	35.34
705.316	35.58
705.5	36.18
705.684	37.24
705.868	37.53
706.052	37.76
706.235	38.05
706.419	37.91
706.603	37.98
706.787	37.94
706.971	38.09
707.155	39.22
707.339	38.27
707.522	37.61
707.706	37.19
707.89	37.26
708.074	36.9
708.257	36.5
708.441	36.7
708.625	36.44
708.808	36.62
708.992	36.58
709.176	35.99
709.359	35.74
709.543	35.94
709.727	36.11
709.91	35.84
710.094	36.07
710.277	36.8
710.461	36.92
710.644	37.44
710.828	37.69
711.011	37.62
711.195	37.41
711.378	37.73
711.562	37.48
711.745	37.11
711.928	36.83
712.112	36.32
712.295	35.72
712.478	35.48
712.662	34.91
712.845	34.51
713.028	34.44
713.212	34.67
713.395	34.3
713.578	34.37
713.761	34.78
713.945	35.16
714.128	35.59
714.311	36.19
714.494	36.24
714.677	36.4
714.86	36.28
715.043	36.55
715.227	37.03
715.41	37.2
715.593	37.4
715.776	37.14
715.959	37.3
716.142	37
716.325	35.85
716.508	35.6
716.691	36.04
716.874	36.3
717.057	36.68
717.239	36.44
717.422	36.64
717.605	36.4
717.788	35.63
717.971	35.48
718.154	35.43
718.337	36.43
718.519	36.22
718.702	35.86
718.885	35.47
719.068	35.08
719.25	34.79
719.433	35.39
719.616	35
719.798	35.7
719.981	35.13
720.164	34.76
720.346	34.76
720.529	33.84
720.712	33.19
720.894	33.84
721.077	34.16
721.259	34.16
721.442	33.47
721.624	34.51
721.807	34.66
721.989	35.16
722.172	35.77
722.354	35.57
722.537	35.97
722.719	36.12
722.901	35.06
723.084	33.41
723.266	33.79
723.448	34.3
723.631	33.55
723.813	33.72
723.995	33.75
724.178	34.28
724.36	33.99
724.542	34.74
724.724	34.9
724.907	35.49
725.089	36.48
725.271	36.46
725.453	36.08
725.635	37.2
725.817	37.76
725.999	37.58
726.181	36.96
726.364	37.11
726.546	36.83
726.728	36.71
726.91	38.01
727.092	38.26
727.274	38.04
727.456	37.33
727.638	36.96
727.819	35.97
728.001	35.59
728.183	36.15
728.365	36.43
728.547	36.94
728.729	37.35
728.911	36.44
729.093	36.11
729.274	36.42
729.456	36.68
729.638	36.11
729.82	36.05
730.001	35.43
730.183	35.05
730.365	34.91
730.546	34.21
730.728	34.23
730.91	34.5
731.091	34.56
731.273	34.35
731.455	34.84
731.636	34.83
731.818	35.02
731.999	35.81
732.181	35.92
732.362	35.61
732.544	36.56
732.725	36.02
732.907	35.95
733.088	35.91
733.27	35.01
733.451	34.17
733.633	34.31
733.814	34.23
733.995	34.37
734.177	33.94
734.358	33.96
734.539	33.76
734.721	33.38
734.902	33.43
735.083	33.68
735.264	35.12
735.446	35.91
735.627	35.44
735.808	35.91
735.989	35.9
736.17	35.92
736.351	36
736.533	35.02
736.714	35.73
736.895	35.34
737.076	34.74
737.257	33.61
737.438	33.48
737.619	33.35
737.8	32.71
737.981	33.27
738.162	33.53
738.343	33.89
738.524	33.82
738.705	34.26
738.886	34.26
739.067	34.44
739.247	35.03
739.428	35.16
739.609	35.57
739.79	35.19
739.971	35.01
740.151	34.83
740.332	34.2
740.513	35.08
740.694	34.74
740.874	34.6
741.055	35.26
741.236	35.9
741.417	35.21
741.597	35.35
741.778	35.73
741.958	35.05
742.139	35.62
742.32	35.49
742.5	34.87
742.681	34.26
742.861	34.16
743.042	32.95
743.222	33.03
743.403	33.21
743.583	33.21
743.764	32.99
743.944	33.86
744.124	34.39
744.305	35.51
744.485	36.92
744.666	37.25
744.846	37.72
745.026	38.56
745.207	38.41
745.387	38.94
745.567	38.58
745.747	38.79
745.928	38.14
746.108	37.43
746.288	36.75
746.468	35.26
746.648	35.62
746.829	34.97
747.009	35.04
747.189	34.92
747.369	34.29
747.549	34.44
747.729	35.05
747.909	35.27
748.089	35.92
748.269	35.71
748.449	36.13
748.629	35.84
748.809	36.09
748.989	36.31
749.169	35.56
749.349	36.16
749.529	36.2
749.709	35.65
749.889	35.19
750.068	34.25
750.248	35.02
750.428	36.09
750.608	35.63
750.788	36.77
750.967	36.45
751.147	37.58
751.327	37.67
751.507	38.11
751.686	38.7
751.866	39.08
752.046	39.12
752.225	38.77
752.405	37.46
752.585	37.45
752.764	36.12
752.944	36.24
753.123	35.81
753.303	35.92
753.482	36.08
753.662	36.46
753.841	35.8
754.021	35.97
754.2	36.49
754.38	37.63
754.559	38.57
754.739	39.3
754.918	38.98
755.097	38.13
755.277	38.05
755.456	37.4
755.635	36.55
755.815	38.04
755.994	38.45
756.173	37.53
756.352	38.24
756.532	37.45
756.711	36.28
756.89	36.72
757.069	37.32
757.248	37.69
757.427	38.29
757.607	38.73
757.786	37.4
757.965	36.37
758.144	35.65
758.323	33.39
758.502	33.39
758.681	33.56
758.86	32.88
759.039	32.76
759.218	32.22
759.397	31.43
759.576	30.94
759.755	30.18
759.934	31.03
760.113	32.64
760.291	32.12
760.47	32.38
760.649	32.41
760.828	31.91
761.007	31.9
761.186	31.52
761.364	31.53
761.543	32.09
761.722	32.63
761.901	31.85
762.079	31.72
762.258	32.2
762.437	31.49
762.615	32.47
762.794	32.66
762.972	32.71
763.151	32.62
763.33	32.22
763.508	31.73
763.687	32.14
763.865	32.56
764.044	32.25
764.222	32.76
764.401	33.57
764.579	32.96
764.758	32.23
764.936	32.24
765.114	32.07
765.293	31.9
765.471	32.09
765.65	31.55
765.828	31.53
766.006	31.38
766.184	31.58
766.363	31.73
766.541	31.37
766.719	32.58
766.898	33.08
767.076	33.57
767.254	35.1
767.432	34.92
767.61	36.08
767.788	35.52
767.967	35.98
768.145	35.86
768.323	35.69
768.501	37.12
768.679	37.06
768.857	37.2
769.035	38.86
769.213	38.81
769.391	39.75
769.569	39.62
769.747	41.15
769.925	41.59
770.103	41.1
770.281	39.47
770.459	39.91
770.636	39.13
770.814	37.14
770.992	35.68
771.17	34.82
771.348	34.08
771.525	33.52
771.703	33.07
771.881	32.37
772.059	33.59
772.236	35.32
772.414	34.58
772.592	36.54
772.769	37.35
772.947	36.88
773.125	36.73
773.302	36.7
773.48	36.45
773.657	35.57
773.835	35.4
774.013	34.06
774.19	35.49
774.368	34.6
774.545	33.25
774.723	32.82
774.9	34.15
775.077	35.82
775.255	36.25
775.432	37.02
775.61	36.79
775.787	37.76
775.964	38.83
776.142	37.51
776.319	38.76
776.496	39.09
776.674	38.75
776.851	38.41
777.028	38.58
777.205	38.46
777.382	37.82
777.56	38.31
777.737	40.2
777.914	38.62
778.091	39.32
778.268	38.43
778.445	39.76
778.622	40.31
778.8	41.2
778.977	39.14
779.154	40.87
779.331	40.69
779.508	41.28
779.685	38.52
779.862	40.06
780.038	38.81
780.215	38.73
780.392	38.28
780.569	39.33
780.746	37.3
780.923	37.04
781.1	35.02
781.277	36.4
781.453	36.56
781.63	35.46
781.807	34.53
781.984	32.79
782.16	32.96
782.337	32.01
782.514	31.47
782.691	32.97
782.867	33.81
783.044	35.05
783.221	35.02
783.397	34.8
783.574	35.14
783.75	35.85
783.927	37.79
784.103	38.28
784.28	40.17
784.456	40.09
784.633	37.1
784.809	35.87
784.986	34.76
785.162	35.42
785.339	33.38
785.515	33.9
785.692	33.93
785.868	36.97
786.044	35.78
786.221	35.17
786.397	35.52
786.573	37.95
786.749	37.34
786.926	37.11
787.102	37.4
787.278	39.74
787.454	40.99
787.631	41.05
787.807	38.52
787.983	40.07
788.159	38.9
788.335	39.37
788.511	40.19
788.687	42
788.863	42.5
789.039	42.18
789.216	41.92
789.392	41.11
789.568	41.01
789.744	41.53
789.919	41.61
790.095	41.82
790.271	40.35
790.447	38.27
790.623	37.3
790.799	37.79
790.975	35.76
791.151	36.36
791.327	36.62
791.502	36.27
791.678	35.97
791.854	35.13
792.03	36.47
792.205	37.52
792.381	37.98
792.557	38
792.733	37.06
792.908	38.44
793.084	36.69
793.259	34.29
793.435	33.8
793.611	34.59
793.786	35.26
793.962	33.91
794.137	34.63
794.313	36.06
794.488	36.1
794.664	37.03
794.839	36.86
795.015	37.68
795.19	40.26
795.366	40.56
795.541	40.17
795.716	40.36
795.892	41.24
796.067	41.01
796.242	41.33
796.418	42.76
796.593	41.51
796.768	40.4
796.944	41.27
797.119	40.01
797.294	40.92
797.469	41.1
797.644	39.97
797.82	39.07
797.995	38.09
798.17	36.37
798.345	34.37
798.52	35.51
798.695	36.42
798.87	34.34
799.045	33.73
799.22	32.82
799.395	31.93
799.57	32.21
799.745	33.52
799.92	33.81
800.095	34.55
800.27	35.79
800.445	34.3
800.62	32.95
800.795	34.38
800.97	36.17
801.145	35.75
801.319	35.88
801.494	35.75
801.669	35.21
801.844	35.92
802.018	35.38
802.193	34.31
802.368	33.83
802.543	33.6
802.717	34.93
802.892	35.23
803.067	37.89
803.241	36.39
803.416	36.41
803.59	35.93
803.765	34.96
803.94	36.34
804.114	37.28
804.289	40.67
804.463	41.17
804.638	39.73
804.812	37.17
804.986	37.81
805.161	39.72
805.335	38.87
805.51	39.52
805.684	39.8
805.858	39.84
806.033	40.27
806.207	37.67
806.381	38.45
806.556	36.67
806.73	37.29
806.904	35.82
807.078	35.11
807.253	35.26
807.427	34.07
807.601	31.7
807.775	32.97
807.949	31.25
808.123	32.59
808.298	32.77
808.472	32.96
808.646	34.43
808.82	33.67
808.994	34.25
809.168	35.11
809.342	35.9
809.516	37.15
809.69	35.04
809.864	37.99
810.038	37.15
810.212	36.67
810.385	37.36
810.559	35.45
810.733	35.4
810.907	34.53
811.081	32.53
811.255	32.07
811.428	34.89
811.602	33.64
811.776	32.03
811.95	33.75
812.123	34.73
812.297	37.03
812.471	36.91
812.644	36.47
812.818	36.05
812.992	37.63
813.165	36.55
813.339	33.38
813.512	36.34
813.686	36.84
813.86	37.86
814.033	38.53
814.207	38.43
814.38	40.14
814.554	39.37
814.727	38.09
814.9	38.07
815.074	39.78
815.247	41.27
815.421	37.24
815.594	35.82
815.767	35.78
815.941	34.99
816.114	34.17
816.287	34.2
816.46	35.03
816.634	37.74
816.807	37.81
816.98	39.11
817.153	40.71
817.327	41.85
817.5	44.23
817.673	41.78
817.846	38.11
818.019	38.1
818.192	37.97
818.365	35.23
818.538	35.03
818.711	32.44
818.884	30.82
819.057	31.44
819.23	33.62
819.403	31.57
819.576	33.34
819.749	35.76
819.922	34.82
820.095	34.73
820.268	36.75
820.441	36.14
820.614	37.53
820.786	36.82
820.959	35.47
821.132	33.47
821.305	32.83
821.477	31.38
821.65	30.71
821.823	30.67
821.996	30.26
822.168	29.7
822.341	29.56
822.514	29.53
822.686	29.41
822.859	28.84
823.031	28.64
823.204	29.12
823.376	28.75
823.549	28.29
823.722	28.28
823.894	28.47
824.067	28.4
824.239	28.04
824.411	28.24
824.584	27.59
824.756	27.84
824.929	27.8
825.101	27.95
825.273	28.88
825.446	29.67
825.618	29.78
825.79	29.61
825.963	30.55
826.135	30.93
826.307	30.82
826.479	32.3
826.652	32.68
826.824	33.16
826.996	32.09
827.168	31.99
827.34	31.82
827.512	31.77
827.684	31.97
827.856	30.76
828.029	31.95
828.201	31.04
828.373	30.28
828.545	29.27
828.717	29.44
828.889	30.55
829.061	30.48
829.232	30.77
829.404	30.59
829.576	30.26
829.748	30.82
829.92	29.55
830.092	31.47
830.264	33.29
830.436	34.69
830.607	34.81
830.779	34.83
830.951	34.28
831.123	34.11
831.294	34.09
831.466	35.68
831.638	36.68
831.809	36.71
831.981	35.31
832.153	33.2
832.324	34.06
832.496	34.78
832.667	34.9
832.839	36.31
833.011	35.68
833.182	38.02
833.354	36.49
833.525	34.91
833.697	35.57
833.868	36.79
834.039	34.73
834.211	34.06
834.382	32.71
834.554	31.72
834.725	30.42
834.896	31.08
835.068	30.09
835.239	30.51
835.41	32.4
835.581	32.28
835.753	30.88
835.924	33.07
836.095	34.67
836.266	34.76
836.438	34.53
836.609	36.07
836.78	36.08
836.951	33.9
837.122	33.57
837.293	32.56
837.464	33.38
837.635	33.83
837.806	34.99
837.977	32.5
838.148	33.98
838.319	35.02
838.49	34.31
838.661	34.59
838.832	38.49
839.003	38.03
839.174	37.18
839.345	35.07
839.516	32.98
839.687	29.06
839.857	28.74
840.028	28.5
840.199	26.25
840.37	25.49
840.54	32.28
840.711	33.07
840.882	37.13
841.053	37.82
841.223	35.77
841.394	40.12
841.564	42.99
841.735	42.95
841.906	43.46
842.076	45.92
842.247	47.88
842.417	42.63
842.588	44.35
842.758	44.82
842.929	46.51
843.099	50.4
843.27	52.1
843.44	55.06
843.611	56.08
843.781	55.28
843.951	58.9
844.122	57.72
844.292	59.77
844.462	55.63
844.633	51.79
844.803	43.32
844.973	42.7
845.144	40.09
845.314	38.35
845.484	40.07
845.654	43.83
845.824	46.61
845.995	49.33
846.165	54.58
846.335	54.67
846.505	60.21
846.675	69.54
846.845	68.99
847.015	73.66
847.185	73
847.355	74.8
847.525	69.65
847.695	69.46
847.865	66.22
848.035	62.72
848.205	66
848.375	61.83
848.545	58.39
848.715	58.92
848.884	54.5
849.054	52.65
849.224	50.44
849.394	56.71
849.564	50.22
849.733	50.88
849.903	49.04
850.073	45.52
850.243	55.02
850.412	57.17
850.582	54.21
850.752	48.83
850.921	49.3
851.091	48.83
851.26	45.67
851.43	52.72
851.599	55.47
851.769	52.96
851.939	46.49
852.108	39.71
852.278	35.07
852.447	34.79
852.616	42.53
852.786	40.87
852.955	40.6
853.125	44.98
853.294	37.67
853.463	35.89
853.633	36.2
853.802	44.97
853.971	43.34
854.141	51.66
854.31	57.37
854.479	48.49
854.648	53.85
854.818	51.86
854.987	53.16
855.156	63.43
855.325	58.68
855.494	57.73
855.663	58.17
855.832	59.08
856.001	52.67
856.171	49.49
856.34	57.36
856.509	55.16
856.678	55.42
856.847	49.1
857.016	40
857.185	41.93
857.353	39.32
857.522	34.93
857.691	37.3
857.86	46.89
858.029	45.92
858.198	43.52
858.367	40.65
858.535	40.53
858.704	35.5
858.873	43.68
859.042	42.89
859.21	46.6
859.379	51.7
859.548	52.12
859.717	50.41
859.885	55.77
860.054	58
860.222	54.34
860.391	56.05
860.56	76.02
860.728	71.53
860.897	69.11
861.065	68.63
861.234	69.49
861.402	66.91
861.571	61.74
861.739	57.77
861.908	54.91
862.076	60.31
862.244	60.61
862.413	52.86
862.581	46.87
862.749	51.72
862.918	50.39
863.086	51.51
863.254	51.85
863.423	63.74
863.591	63.98
863.759	59.44
863.927	60.08
864.096	55.53
864.264	55.94
864.432	58.52
864.6	60.16
864.768	58.9
864.936	48.4
865.104	48.7
865.272	45.2
865.44	48.3
865.608	47.29
865.776	49.62
865.944	43.79
866.112	40.85
866.28	36.7
866.448	35.92
866.616	39.93
866.784	50.94
866.952	53.61
867.12	52.59
867.288	52.68
867.455	60.03
867.623	63.67
867.791	66.2
867.959	73.51
868.127	84.93
868.294	81.61
868.462	77.81
868.63	75.03
868.797	64.48
868.965	59.22
869.133	62.02
869.3	58.71
869.468	55.28
869.636	56.22
869.803	58.69
869.971	52.79
870.138	57.16
870.306	56.89
870.473	54.49
870.641	55.13
870.808	59.06
870.975	57.62
871.143	59.34
871.31	63.48
871.478	68.56
871.645	62.53
871.812	69.35
871.98	62.11
872.147	59.28
872.314	56.36
872.482	59.63
872.649	58.61
872.816	55.8
872.983	53.53
873.15	44.4
873.318	45.26
873.485	46.16
873.652	43.82
873.819	47.69
873.986	56.14
874.153	54.83
874.32	51.83
874.487	56.17
874.654	56.59
874.821	56.72
874.988	59.77
875.155	59.58
875.322	56.36
875.489	58.17
875.656	52.26
875.823	47.37
875.99	54.11
876.157	54.12
876.324	47.11
876.49	46.28
876.657	51.79
876.824	54.67
876.991	51.62
877.157	61.38
877.324	56.02
877.491	53.29
877.658	56.86
877.824	52.94
877.991	56.78
878.157	57.45
878.324	60.93
878.491	61.08
878.657	62.53
878.824	66.2
878.99	65.24
879.157	67.88
879.323	72.03
879.49	59.51
879.656	66.15
879.823	67.96
879.989	68.73
880.156	68.59
880.322	63.11
880.488	58.79
880.655	54.52
880.821	52.63
880.987	49.79
881.154	44.55
881.32	44.6
881.486	39.17
881.652	32.63
881.819	31.77
881.985	27.12
882.151	28.83
882.317	30.09
882.483	30.69
882.649	29.9
882.816	28.36
882.982	28.36
883.148	27.61
883.314	27.37
883.48	27.7
883.646	27.52
883.812	27.76
883.978	28.01
884.144	28.34
884.31	27.64
884.476	27.58
884.642	31.43
884.807	33.17
884.973	34.45
885.139	35.64
885.305	37.84
885.471	38.43
885.637	38.94
885.802	38.47
885.968	39.52
886.134	39.77
886.3	38.65
886.465	36.42
886.631	35.08
886.797	35.25
886.962	35.67
887.128	33.8
887.293	31.09
887.459	32.48
887.625	36.26
887.79	33.33
887.956	35.5
888.121	39.03
888.287	38.04
888.452	39.34
888.618	40.37
888.783	36.38
