Data from LC_212__Reflection_1.txt Node
Date: Thu Nov 19 12:36:39 EST 2015
User: robert
Spectrometer: USB4E03001
Autoset integration time: false
Trigger mode: 4
Integration Time (sec): 1.000000E-1
Scans to average: 15
Electric dark correction enabled: true
Nonlinearity correction enabled: false
Boxcar width: 5
Stray light correction enabled: false
XAxis mode: Wavelengths
Stop averaging: false
Number of Pixels in Spectrum: 3648
>>>>>Begin Spectral Data<<<<<
177.566	951.51
177.785	-690.28
178.005	204.32
178.225	100.34
178.445	151.73
178.665	55.24
178.885	68.46
179.105	-159.34
179.324	-195.43
179.544	-560.04
179.764	184.95
179.984	657.99
180.204	424.8
180.423	97.03
180.643	66.66
180.863	56.99
181.083	31.49
181.302	65.02
181.522	-25.81
181.742	1.21
181.961	-1.31
182.181	50.38
182.401	50.46
182.621	39.24
182.84	67.24
183.06	76.07
183.279	131.46
183.499	108.9
183.719	106.07
183.938	117.9
184.158	277.93
184.377	228.5
184.597	480.2
184.816	-305.91
185.036	-120.12
185.256	10.17
185.475	44.61
185.695	74.71
185.914	61.81
186.134	84.43
186.353	85.14
186.572	155.47
186.792	202.21
187.011	-405.07
187.231	-229.12
187.45	-36.69
187.67	115.29
187.889	245.15
188.108	1156.04
188.328	218.91
188.547	292.47
188.766	-546.15
188.986	37.01
189.205	21.24
189.424	-11.97
189.644	-87.23
189.863	-170.01
190.082	-147.34
190.302	-76.32
190.521	-74.85
190.74	-120.69
190.959	-1025.25
191.178	-1137.48
191.398	-783.26
191.617	-1983.76
191.836	-927.79
192.055	-157.18
192.274	-121.38
192.494	-7.47
192.713	-16.71
192.932	-11.55
193.151	-16.35
193.37	9.5
193.589	-101.68
193.808	365.51
194.027	180.38
194.246	109.03
194.465	17.34
194.685	852.75
194.904	-46.41
195.123	-605.68
195.342	-158.89
195.561	-263.92
195.78	-2247.63
195.999	-1046.75
196.218	1492.74
196.436	-16319.23
196.655	1257.95
196.874	200.37
197.093	286.55
197.312	246.35
197.531	526.45
197.75	1750.96
197.969	316.7
198.188	-2473.85
198.407	-9.89
198.625	-11.56
198.844	-18.54
199.063	39.07
199.282	43.54
199.501	68.86
199.719	81.62
199.938	105.08
200.157	145.55
200.376	123.18
200.594	73.17
200.813	30.06
201.032	85.06
201.251	82.45
201.469	-67.4
201.688	-112.13
201.907	-113.31
202.125	-109.62
202.344	-62.08
202.563	-34.83
202.781	15.9
203	5.02
203.218	3.22
203.437	-90.99
203.656	-31.99
203.874	437.1
204.093	397.32
204.311	-530.86
204.53	-56.94
204.748	-10.79
204.967	-2.8
205.185	14.54
205.404	-18.98
205.622	-31.38
205.841	-94.42
206.059	-223.17
206.278	-4750.89
206.496	-490.96
206.715	-2178.08
206.933	207.84
207.151	102.43
207.37	119.77
207.588	170.55
207.806	62
208.025	101.41
208.243	44.54
208.461	197.02
208.68	219.58
208.898	28.33
209.116	-1640.38
209.335	165.89
209.553	-39.16
209.771	-15.94
209.989	-40.5
210.208	-68.6
210.426	-104.94
210.644	217.95
210.862	136.08
211.081	132.09
211.299	110.52
211.517	20.31
211.735	-929.81
211.953	32.99
212.171	-1.54
212.39	31.86
212.608	48.1
212.826	23.5
213.044	84.64
213.262	106.58
213.48	118.88
213.698	164.86
213.916	159.92
214.134	157.33
214.352	166.51
214.57	205.46
214.788	417.91
215.006	-3110.1
215.224	-362.89
215.442	-162.91
215.66	-42.43
215.878	-47.9
216.096	-44.12
216.314	-31.73
216.532	-15.06
216.75	-52.1
216.968	-9.87
217.185	2.32
217.403	21.48
217.621	37.05
217.839	55.25
218.057	58.28
218.275	85.81
218.492	59.12
218.71	58.06
218.928	45.55
219.146	51.3
219.363	43.96
219.581	51.16
219.799	54.42
220.017	41.67
220.234	26.69
220.452	43.18
220.67	-1.79
220.887	53.04
221.105	52.79
221.323	38.25
221.54	80.47
221.758	123.32
221.976	52.14
222.193	45.91
222.411	42.23
222.629	36.27
222.846	34.69
223.064	32
223.281	26.28
223.499	13.73
223.716	32.99
223.934	29.63
224.151	-22.63
224.369	-4.84
224.586	-27.12
224.804	-158.31
225.021	-90.99
225.239	-117.62
225.456	-205.66
225.674	-159.66
225.891	-40.93
226.108	-40.03
226.326	-30.77
226.543	-22.78
226.76	-38.46
226.978	-49.75
227.195	-30.76
227.413	-29.79
227.63	-24.61
227.847	-8.74
228.064	-5.68
228.282	-1.32
228.499	-0.58
228.716	-2.7
228.934	0.44
229.151	6.63
229.368	8.21
229.585	8.98
229.802	11.07
230.02	12.09
230.237	14
230.454	17.24
230.671	12.99
230.888	10.98
231.105	11.86
231.323	10.8
231.54	9.27
231.757	10.73
231.974	16.7
232.191	20.49
232.408	24.43
232.625	23.91
232.842	21.22
233.059	22.72
233.276	26.29
233.493	28.68
233.71	33.54
233.927	35.52
234.144	31.05
234.361	23.2
234.578	16.94
234.795	14.03
235.012	13.61
235.229	10.74
235.446	16.64
235.663	16.12
235.879	20.49
236.096	22.19
236.313	15.7
236.53	17.08
236.747	23.04
236.964	26.35
237.181	25.09
237.397	19.01
237.614	23.83
237.831	20.55
238.048	20.19
238.264	11.67
238.481	11.21
238.698	19.83
238.915	21.9
239.131	15.97
239.348	19.29
239.565	22.1
239.781	26.58
239.998	28.04
240.215	27.54
240.431	29.76
240.648	28.66
240.865	27.08
241.081	23.38
241.298	22.14
241.514	20.97
241.731	21.42
241.947	20.87
242.164	20.16
242.38	18.95
242.597	16.82
242.814	16.67
243.03	16.28
243.246	14.1
243.463	15.06
243.679	16.4
243.896	17.63
244.112	15.44
244.329	13.35
244.545	13.66
244.762	11.14
244.978	14.2
245.194	12.01
245.411	11.59
245.627	14.5
245.843	14.42
246.06	13.51
246.276	12.26
246.492	12.91
246.709	14.8
246.925	14.84
247.141	14.74
247.357	13.63
247.574	14.21
247.79	14.92
248.006	13.77
248.222	13.37
248.439	13.16
248.655	13.62
248.871	14.2
249.087	12.86
249.303	12.28
249.519	12.39
249.736	12.4
249.952	10.86
250.168	9.66
250.384	10.21
250.6	11.31
250.816	13.06
251.032	11.14
251.248	8.54
251.464	9.84
251.68	11.26
251.896	11.82
252.112	12.45
252.328	10.53
252.544	11.07
252.76	12.47
252.976	12.9
253.192	9.61
253.408	11.8
253.624	12.32
253.84	12.44
254.056	12.11
254.272	11.91
254.487	11.17
254.703	13.72
254.919	13.88
255.135	14.29
255.351	11.88
255.567	13.5
255.782	10.98
255.998	8.94
256.214	5.99
256.43	6.46
256.646	8.27
256.861	7.94
257.077	7.79
257.293	6.78
257.508	6.29
257.724	8.64
257.94	8.92
258.155	9.52
258.371	10.54
258.587	10.32
258.802	10.75
259.018	10
259.234	10.15
259.449	11.33
259.665	11.96
259.88	11.57
260.096	10.25
260.312	10.07
260.527	9.68
260.743	9.84
260.958	10.49
261.174	9.21
261.389	9.04
261.605	8.99
261.82	8.95
262.036	6.84
262.251	6.7
262.466	7.54
262.682	7.18
262.897	8.32
263.113	7.67
263.328	6.53
263.543	6.84
263.759	6.77
263.974	5.1
264.189	3.37
264.405	5.92
264.62	5.54
264.835	4.8
265.051	4.26
265.266	4.09
265.481	4.17
265.696	5.02
265.912	6.15
266.127	6.85
266.342	9.42
266.557	9.98
266.773	10.63
266.988	11.48
267.203	12.31
267.418	12
267.633	12.85
267.848	13.39
268.064	13.49
268.279	12.72
268.494	11.36
268.709	11.4
268.924	10.51
269.139	10.1
269.354	9.11
269.569	8
269.784	7.31
269.999	7.25
270.214	7.35
270.429	9.27
270.644	10.09
270.859	11.03
271.074	10.97
271.289	11.73
271.504	11.58
271.719	11.96
271.934	11.17
272.149	11.98
272.363	12.1
272.578	11.66
272.793	9.48
273.008	9.66
273.223	9.48
273.438	9.91
273.653	8.5
273.867	8.8
274.082	8.7
274.297	10.24
274.512	10.54
274.726	9.8
274.941	9.74
275.156	10.49
275.371	10.84
275.585	11.42
275.8	9.35
276.015	10.24
276.229	9.72
276.444	10.27
276.659	8.93
276.873	7.71
277.088	6.38
277.302	7.05
277.517	6.71
277.732	5.8
277.946	3.55
278.161	3.84
278.375	3.64
278.59	3.06
278.804	2.24
279.019	3.82
279.233	5.68
279.448	7.18
279.662	7.02
279.877	7.71
280.091	7.75
280.306	10.3
280.52	10.25
280.735	11.67
280.949	13.6
281.163	13.12
281.378	11.59
281.592	11.35
281.806	10.92
282.021	10.7
282.235	9.86
282.449	9.54
282.664	8.12
282.878	8.72
283.092	8.52
283.307	7.63
283.521	6.56
283.735	6.19
283.949	6.2
284.164	5.39
284.378	4.5
284.592	5.51
284.806	6.12
285.02	5.98
285.234	6.36
285.449	7.19
285.663	7.17
285.877	8.05
286.091	8.41
286.305	8.76
286.519	9.83
286.733	9.79
286.947	9.85
287.161	8.78
287.375	9.19
287.589	8.14
287.803	6.33
288.017	7.11
288.231	7.72
288.445	9.17
288.659	9
288.873	9.68
289.087	11.47
289.301	11.33
289.515	12.71
289.729	12.55
289.943	13.69
290.157	15.17
290.371	15.18
290.584	15.72
290.798	15.59
291.012	15.93
291.226	14.81
291.44	14.46
291.654	13.66
291.867	13.65
292.081	14.43
292.295	14.62
292.509	14.9
292.722	14.77
292.936	13.73
293.15	14.98
293.364	13.71
293.577	13.95
293.791	14.73
294.005	15.59
294.218	15.8
294.432	17.04
294.645	16.58
294.859	14.32
295.073	13.16
295.286	13.94
295.5	11.88
295.713	13.27
295.927	12.93
296.14	12.42
296.354	11.7
296.568	10.38
296.781	9.11
296.994	8.71
297.208	9.36
297.421	9.43
297.635	9.33
297.848	9.81
298.062	8.96
298.275	8.89
298.489	8.27
298.702	7.73
298.915	8.39
299.129	9.01
299.342	9.49
299.555	9.85
299.769	9.91
299.982	9.64
300.195	9.31
300.409	9.95
300.622	10.35
300.835	9.87
301.048	11.21
301.262	12.46
301.475	12.52
301.688	11.17
301.901	10.69
302.115	10.77
302.328	11.61
302.541	12.4
302.754	12.02
302.967	12.06
303.18	13.33
303.393	12.47
303.607	11.12
303.82	10.3
304.033	10.69
304.246	12.42
304.459	12.67
304.672	12.73
304.885	12.24
305.098	12.78
305.311	13.38
305.524	13.28
305.737	14.81
305.95	15.91
306.163	15.78
306.376	16.66
306.589	14.98
306.802	14.17
307.015	12.73
307.228	11.75
307.44	10.64
307.653	9.93
307.866	8.85
308.079	8.24
308.292	8.75
308.505	9.05
308.718	9.89
308.93	10.02
309.143	11.06
309.356	11.19
309.569	12.12
309.781	12.75
309.994	13.41
310.207	14.46
310.42	14.08
310.632	13.19
310.845	13.53
311.058	12.73
311.27	13.04
311.483	12.6
311.696	12.32
311.908	12.62
312.121	12.37
312.333	11.94
312.546	11.24
312.759	11.38
312.971	11.61
313.184	11
313.396	11.54
313.609	11.73
313.821	11.94
314.034	12.86
314.246	11.76
314.459	11.49
314.671	11.5
314.884	11.34
315.096	9.76
315.309	9.7
315.521	10.31
315.733	9.98
315.946	9.38
316.158	9.39
316.371	9.2
316.583	9.41
316.795	9.68
317.008	10.05
317.22	9.86
317.432	10.64
317.644	9.46
317.857	9.19
318.069	9.24
318.281	10.83
318.494	9.87
318.706	10.09
318.918	10.26
319.13	10.88
319.342	10.48
319.555	10.81
319.767	11.39
319.979	11.81
320.191	13.01
320.403	12.84
320.615	10.07
320.827	9.79
321.039	9.14
321.252	8.82
321.464	7.91
321.676	7.81
321.888	7.15
322.1	6.53
322.312	7.16
322.524	6.59
322.736	6.61
322.948	7.49
323.16	8.16
323.372	9.06
323.584	8.71
323.796	9.03
324.007	8.64
324.219	9.36
324.431	9.8
324.643	9.35
324.855	8.81
325.067	9.13
325.279	9.43
325.491	9.66
325.702	8.92
325.914	8.69
326.126	9.6
326.338	9.97
326.55	9.7
326.761	9.79
326.973	10.59
327.185	10.32
327.396	9.45
327.608	9.44
327.82	10.31
328.032	11.25
328.243	13.09
328.455	12.21
328.666	13.38
328.878	14.4
329.09	14.06
329.301	14.86
329.513	15.7
329.725	16.22
329.936	16.29
330.148	16.09
330.359	15.64
330.571	15.35
330.782	16.08
330.994	14.24
331.205	14.29
331.417	14.94
331.628	13.71
331.84	13.76
332.051	14.72
332.262	15.16
332.474	14.7
332.685	14.74
332.897	14.22
333.108	13.78
333.319	14.98
333.531	14.54
333.742	15.04
333.953	15.47
334.165	15.61
334.376	14.51
334.587	15.18
334.799	15.85
335.01	16.19
335.221	16.18
335.432	15.8
335.644	14.89
335.855	15.03
336.066	15.77
336.277	14.4
336.488	13.99
336.7	14.1
336.911	13.96
337.122	12.9
337.333	11.97
337.544	11.2
337.755	11.94
337.966	12.45
338.177	12.33
338.388	11.51
338.599	12.88
338.811	13.4
339.022	13.27
339.233	13.4
339.444	13.96
339.655	14.01
339.866	15.12
340.076	15.2
340.287	16.02
340.498	15.06
340.709	16.21
340.92	16.22
341.131	15.5
341.342	15.77
341.553	14.75
341.764	15.54
341.975	15.87
342.185	15.99
342.396	15.4
342.607	15.25
342.818	15.78
343.029	14.01
343.239	13.69
343.45	14.13
343.661	13.93
343.872	13.32
344.082	12.25
344.293	12.31
344.504	13.72
344.714	13.92
344.925	13.42
345.136	13.57
345.346	13.52
345.557	13.7
345.768	13.74
345.978	14.39
346.189	14.21
346.399	13.73
346.61	13.82
346.821	12.56
347.031	12.04
347.242	11.49
347.452	10.87
347.663	10.72
347.873	10.86
348.084	10.66
348.294	10.57
348.504	11.54
348.715	12.84
348.925	12.45
349.136	11.67
349.346	11.75
349.557	11.55
349.767	12.13
349.977	13.05
350.188	13.14
350.398	12.29
350.608	11.4
350.819	10.49
351.029	9.37
351.239	9.3
351.449	9.97
351.66	10.88
351.87	11.44
352.08	11.12
352.29	10.48
352.501	9.71
352.711	10.5
352.921	10.79
353.131	11.29
353.341	11.95
353.552	12.78
353.762	12.8
353.972	11.53
354.182	11.59
354.392	11.42
354.602	12.09
354.812	11.78
355.022	11.78
355.232	11.91
355.442	13.03
355.652	12.51
355.862	12.4
356.072	11.88
356.282	11.53
356.492	10.63
356.702	11.41
356.912	11.14
357.122	11.36
357.332	10.99
357.542	10.87
357.752	10.36
357.962	10.5
358.171	9.64
358.381	9.25
358.591	9.72
358.801	10.83
359.011	10.66
359.221	10.56
359.43	11.04
359.64	11.7
359.85	11.6
360.06	11.54
360.269	11.57
360.479	11.88
360.689	12.09
360.899	11.85
361.108	11.76
361.318	11.97
361.528	11.55
361.737	11.57
361.947	11.4
362.156	11.02
362.366	10.6
362.576	11.05
362.785	10.98
362.995	11.47
363.204	12.09
363.414	11.66
363.623	11.19
363.833	11.51
364.042	10.75
364.252	11.18
364.461	11.59
364.671	11.93
364.88	11.63
365.09	11.8
365.299	11.02
365.509	10.04
365.718	9.87
365.927	10
366.137	9.73
366.346	9.48
366.555	8.31
366.765	8.01
366.974	8.11
367.183	7.56
367.393	7.19
367.602	7.27
367.811	7.2
368.021	6.64
368.23	6.15
368.439	6.29
368.648	6.89
368.857	7.51
369.067	8.06
369.276	7.38
369.485	7.68
369.694	8.02
369.903	8.27
370.112	9.2
370.321	9.79
370.531	10.55
370.74	10.66
370.949	10.76
371.158	10.73
371.367	10.39
371.576	10.54
371.785	9.54
371.994	9.48
372.203	9.39
372.412	9.56
372.621	9.48
372.83	9.17
373.039	9.07
373.248	8.7
373.457	8.57
373.666	8.68
373.874	8.88
374.083	9.95
374.292	10.33
374.501	9.83
374.71	9.35
374.919	9.52
375.128	9.16
375.336	9.09
375.545	9.44
375.754	9.63
375.963	9.82
376.171	10.02
376.38	9.77
376.589	9.14
376.798	9.12
377.006	9.54
377.215	9.69
377.424	9.63
377.632	9.68
377.841	9.63
378.05	9.53
378.258	9.39
378.467	9.33
378.675	9.23
378.884	9.54
379.093	10.04
379.301	9.36
379.51	8.95
379.718	9.32
379.927	9.36
380.135	9.25
380.344	8.94
380.552	9.05
380.761	8.7
380.969	8.85
381.177	8.35
381.386	7.98
381.594	8
381.803	8.63
382.011	8.5
382.219	8.3
382.428	8.49
382.636	8.38
382.845	8.14
383.053	8.33
383.261	8.07
383.469	8.34
383.678	8.8
383.886	8.85
384.094	8.56
384.302	8.35
384.511	8.44
384.719	8.14
384.927	7.96
385.135	7.76
385.343	8.02
385.552	8.19
385.76	8.07
385.968	7.8
386.176	7.85
386.384	7.83
386.592	7.95
386.8	7.52
387.008	7.54
387.216	7.8
387.424	8.18
387.633	8.15
387.841	8.1
388.049	8.32
388.257	8.24
388.465	8.11
388.672	7.94
388.88	7.81
389.088	8.23
389.296	8.49
389.504	8.74
389.712	8.36
389.92	8.16
390.128	7.95
390.336	7.66
390.544	7.69
390.751	7.85
390.959	7.81
391.167	8.11
391.375	7.98
391.583	7.75
391.79	7.56
391.998	7.48
392.206	7.57
392.414	7.71
392.621	7.75
392.829	7.68
393.037	7.85
393.244	7.96
393.452	7.73
393.66	7.44
393.867	7.43
394.075	7.46
394.283	7.84
394.49	7.71
394.698	7.97
394.905	7.7
395.113	7.73
395.32	7.34
395.528	7.28
395.735	7.04
395.943	7.36
396.15	7.27
396.358	7.06
396.565	6.76
396.773	6.63
396.98	6.4
397.188	6.84
397.395	6.7
397.602	6.84
397.81	6.66
398.017	6.9
398.225	6.79
398.432	7.07
398.639	7.19
398.847	7.29
399.054	7.19
399.261	7.3
399.468	7.18
399.676	7.31
399.883	7.08
400.09	7.22
400.297	7.19
400.505	7.31
400.712	7.13
400.919	6.91
401.126	6.64
401.333	6.88
401.54	6.64
401.748	6.71
401.955	6.63
402.162	6.76
402.369	6.73
402.576	6.66
402.783	6.62
402.99	6.57
403.197	6.8
403.404	6.9
403.611	6.78
403.818	6.94
404.025	6.84
404.232	6.75
404.439	6.78
404.646	6.88
404.853	6.93
405.06	6.72
405.267	6.84
405.474	6.98
405.681	6.97
405.887	6.89
406.094	6.89
406.301	6.9
406.508	6.78
406.715	6.88
406.922	6.82
407.128	6.76
407.335	6.76
407.542	6.73
407.749	6.66
407.955	6.76
408.162	6.82
408.369	6.68
408.575	6.39
408.782	6.58
408.989	6.26
409.195	6.3
409.402	6.31
409.609	6.58
409.815	6.32
410.022	6.19
410.228	6.44
410.435	6.41
410.642	6.45
410.848	6.77
411.055	6.74
411.261	7.13
411.468	7.25
411.674	7.54
411.881	7.55
412.087	7.83
412.294	7.7
412.5	7.4
412.706	7.41
412.913	7.2
413.119	7.05
413.326	7.23
413.532	7.06
413.738	6.69
413.945	6
414.151	5.9
414.357	5.69
414.564	5.7
414.77	5.95
414.976	5.75
415.182	6.18
415.389	6.3
415.595	6.01
415.801	6.07
416.007	6.27
416.214	6.55
416.42	6.48
416.626	6.3
416.832	6.39
417.038	6.07
417.244	6.45
417.45	6.19
417.657	6.21
417.863	6.42
418.069	6.47
418.275	6.41
418.481	6.44
418.687	6.72
418.893	6.93
419.099	6.95
419.305	7.06
419.511	6.86
419.717	6.89
419.923	6.99
420.129	6.89
420.335	6.79
420.541	6.79
420.746	6.83
420.952	6.71
421.158	6.59
421.364	6.62
421.57	6.56
421.776	6.67
421.982	6.63
422.187	6.43
422.393	6.36
422.599	6.3
422.805	6.34
423.01	6.35
423.216	6.23
423.422	6.26
423.628	6.18
423.833	6.23
424.039	6.24
424.245	6.29
424.45	6.37
424.656	6.5
424.862	6.58
425.067	6.61
425.273	6.53
425.478	6.54
425.684	6.72
425.889	6.81
426.095	6.72
426.301	6.66
426.506	6.61
426.712	6.58
426.917	6.44
427.123	6.48
427.328	6.33
427.533	6.34
427.739	6.38
427.944	6.19
428.15	6
428.355	6.14
428.561	6.11
428.766	6.03
428.971	5.97
429.177	6
429.382	5.79
429.587	5.82
429.793	5.72
429.998	5.85
430.203	5.75
430.408	5.68
430.614	5.67
430.819	5.48
431.024	5.48
431.229	5.75
431.434	5.89
431.64	5.82
431.845	5.92
432.05	5.92
432.255	5.83
432.46	6.04
432.665	6.06
432.87	6.19
433.076	6.29
433.281	6.35
433.486	6.3
433.691	6.25
433.896	6.27
434.101	6.17
434.306	6.23
434.511	5.99
434.716	5.73
434.921	5.76
435.126	5.64
435.331	5.74
435.535	5.63
435.74	5.55
435.945	5.5
436.15	5.64
436.355	5.83
436.56	5.75
436.765	6.18
436.97	6.44
437.174	6.45
437.379	6.29
437.584	6.42
437.789	6.47
437.993	6.55
438.198	6.46
438.403	6.39
438.608	6.39
438.812	6.37
439.017	6.26
439.222	6.18
439.426	6.1
439.631	6.13
439.836	5.99
440.04	6.03
440.245	6.06
440.45	6.12
440.654	6.18
440.859	6.03
441.063	6.12
441.268	6.13
441.472	6.13
441.677	6.21
441.881	6.36
442.086	6.36
442.29	6.33
442.495	6.23
442.699	6.34
442.904	6.32
443.108	6.31
443.312	6.22
443.517	6.06
443.721	6.06
443.925	6.05
444.13	5.92
444.334	5.83
444.538	5.82
444.743	5.81
444.947	5.7
445.151	5.61
445.356	5.68
445.56	5.79
445.764	5.89
445.968	5.88
446.173	5.98
446.377	6.01
446.581	6.08
446.785	6.12
446.989	6.09
447.193	6.07
447.398	6.12
447.602	6.08
447.806	6.14
448.01	6.06
448.214	6.1
448.418	6.09
448.622	5.9
448.826	5.84
449.03	5.9
449.234	5.75
449.438	5.72
449.642	5.63
449.846	5.75
450.05	5.51
450.254	5.53
450.458	5.46
450.662	5.2
450.866	5.41
451.069	5.53
451.273	5.41
451.477	5.57
451.681	5.64
451.885	5.7
452.089	5.6
452.292	5.67
452.496	5.83
452.7	5.67
452.904	5.71
453.107	5.72
453.311	5.69
453.515	5.79
453.719	5.8
453.922	5.72
454.126	5.8
454.33	5.68
454.533	5.63
454.737	5.24
454.94	5.38
455.144	5.51
455.348	5.56
455.551	5.34
455.755	5.12
455.958	5.14
456.162	5.15
456.365	4.87
456.569	5.02
456.772	5.17
456.976	5.41
457.179	5.42
457.383	5.51
457.586	5.33
457.79	5.48
457.993	5.64
458.196	5.59
458.4	5.57
458.603	5.77
458.807	5.6
459.01	5.7
459.213	5.64
459.417	5.59
459.62	5.45
459.823	5.56
460.026	5.7
460.23	5.63
460.433	5.71
460.636	5.76
460.839	5.74
461.042	5.9
461.246	5.72
461.449	5.74
461.652	5.81
461.855	5.87
462.058	5.81
462.261	5.63
462.464	5.66
462.668	5.67
462.871	5.75
463.074	5.84
463.277	5.7
463.48	5.75
463.683	5.82
463.886	5.94
464.089	5.88
464.292	5.76
464.495	5.66
464.698	5.76
464.901	5.81
465.104	5.66
465.306	5.61
465.509	5.72
465.712	5.8
465.915	5.89
466.118	5.78
466.321	5.93
466.524	6
466.726	6.13
466.929	5.96
467.132	5.96
467.335	6.1
467.538	6.05
467.74	6.09
467.943	6.02
468.146	5.86
468.348	5.87
468.551	5.75
468.754	5.7
468.956	5.6
469.159	5.68
469.362	5.62
469.564	5.58
469.767	5.5
469.969	5.5
470.172	5.46
470.375	5.56
470.577	5.46
470.78	5.57
470.982	5.8
471.185	5.79
471.387	5.78
471.59	5.8
471.792	5.66
471.995	5.8
472.197	5.84
472.399	5.86
472.602	5.88
472.804	5.9
473.007	5.93
473.209	5.78
473.411	5.86
473.614	5.9
473.816	5.84
474.018	5.98
474.22	5.93
474.423	5.76
474.625	5.88
474.827	5.75
475.03	5.71
475.232	5.49
475.434	5.46
475.636	5.44
475.838	5.37
476.04	5.28
476.243	5.36
476.445	5.5
476.647	5.55
476.849	5.39
477.051	5.6
477.253	5.71
477.455	5.69
477.657	5.76
477.859	5.77
478.061	5.77
478.263	5.86
478.465	5.82
478.667	5.62
478.869	5.7
479.071	5.81
479.273	5.73
479.475	5.6
479.677	5.81
479.879	5.68
480.081	5.59
480.283	5.63
480.485	5.57
480.686	5.63
480.888	5.6
481.09	5.46
481.292	5.39
481.494	5.4
481.695	5.45
481.897	5.33
482.099	5.38
482.301	5.51
482.502	5.47
482.704	5.5
482.906	5.41
483.107	5.5
483.309	5.5
483.511	5.57
483.712	5.56
483.914	5.56
484.115	5.61
484.317	5.63
484.519	5.58
484.72	5.6
484.922	5.6
485.123	5.6
485.325	5.56
485.526	5.6
485.728	5.56
485.929	5.54
486.131	5.52
486.332	5.46
486.534	5.44
486.735	5.49
486.936	5.48
487.138	5.47
487.339	5.54
487.541	5.61
487.742	5.61
487.943	5.62
488.144	5.65
488.346	5.64
488.547	5.68
488.748	5.7
488.95	5.63
489.151	5.58
489.352	5.6
489.553	5.55
489.755	5.42
489.956	5.39
490.157	5.33
490.358	5.27
490.559	5.27
490.76	5.32
490.961	5.39
491.163	5.44
491.364	5.55
491.565	5.46
491.766	5.48
491.967	5.59
492.168	5.58
492.369	5.58
492.57	5.58
492.771	5.72
492.972	5.66
493.173	5.68
493.374	5.72
493.575	5.67
493.776	5.78
493.976	5.81
494.177	5.75
494.378	5.73
494.579	5.74
494.78	5.82
494.981	5.59
495.182	5.65
495.382	5.57
495.583	5.68
495.784	5.66
495.985	5.72
496.185	5.64
496.386	5.73
496.587	5.84
496.788	5.83
496.988	5.93
497.189	6.04
497.39	6.13
497.59	6.06
497.791	5.92
497.992	6.04
498.192	6.02
498.393	6.14
498.593	6.08
498.794	6.09
498.994	6.09
499.195	5.96
499.395	6.01
499.596	5.86
499.796	5.91
499.997	5.94
500.197	5.94
500.398	5.81
500.598	5.78
500.799	5.83
500.999	5.83
501.199	5.93
501.4	5.91
501.6	5.77
501.801	5.88
502.001	5.86
502.201	5.98
502.402	5.97
502.602	6.19
502.802	6.24
503.002	6.27
503.203	6.12
503.403	6.11
503.603	6.14
503.803	6.34
504.003	6.25
504.204	6.22
504.404	6.26
504.604	6.14
504.804	6.09
505.004	5.95
505.204	5.98
505.404	6.09
505.604	6.13
505.804	6.21
506.005	6.22
506.205	6.3
506.405	6.34
506.605	6.17
506.805	6.26
507.005	6.22
507.204	6.33
507.404	6.32
507.604	6.48
507.804	6.49
508.004	6.54
508.204	6.68
508.404	6.65
508.604	6.78
508.804	6.86
509.003	6.87
509.203	6.89
509.403	6.87
509.603	6.9
509.803	6.75
510.002	6.71
510.202	6.78
510.402	6.62
510.602	6.66
510.801	6.65
511.001	6.66
511.201	6.7
511.4	6.81
511.6	6.79
511.8	6.82
511.999	6.92
512.199	7.03
512.398	6.97
512.598	6.96
512.797	7.15
512.997	7.15
513.197	7.2
513.396	7.27
513.596	7.23
513.795	7.31
513.994	7.25
514.194	7.29
514.393	7.12
514.593	7.11
514.792	7.12
514.992	6.99
515.191	6.99
515.39	7.03
515.59	7.03
515.789	7.07
515.988	7.24
516.188	7.37
516.387	7.43
516.586	7.57
516.786	7.68
516.985	7.83
517.184	7.89
517.383	7.95
517.582	8.1
517.782	8.08
517.981	8.03
518.18	8.01
518.379	8.04
518.578	8.02
518.777	8.14
518.976	8.26
519.176	8.22
519.375	8.2
519.574	8.24
519.773	8.16
519.972	8.23
520.171	8.3
520.37	8.35
520.569	8.33
520.768	8.36
520.967	8.34
521.166	8.2
521.365	8.2
521.564	8.25
521.762	8.25
521.961	8.2
522.16	8.18
522.359	8.2
522.558	8.14
522.757	8.12
522.956	8.18
523.154	8.33
523.353	8.49
523.552	8.53
523.751	8.49
523.949	8.49
524.148	8.58
524.347	8.62
524.546	8.66
524.744	8.75
524.943	8.81
525.142	8.87
525.34	8.78
525.539	8.71
525.737	8.82
525.936	8.82
526.135	8.89
526.333	8.88
526.532	8.88
526.73	8.94
526.929	8.91
527.127	8.87
527.326	8.83
527.524	8.9
527.723	9
527.921	8.98
528.12	9.02
528.318	9
528.516	9.01
528.715	9.06
528.913	9.05
529.112	9.11
529.31	9.16
529.508	9.21
529.707	9.18
529.905	9.14
530.103	9.16
530.301	9.18
530.5	9.23
530.698	9.27
530.896	9.3
531.094	9.27
531.293	9.3
531.491	9.49
531.689	9.5
531.887	9.62
532.085	9.62
532.283	9.72
532.481	9.79
532.68	9.74
532.878	9.81
533.076	9.86
533.274	9.96
533.472	10
533.67	9.85
533.868	9.92
534.066	9.93
534.264	10.03
534.462	9.96
534.66	9.95
534.858	9.98
535.056	9.99
535.253	10.02
535.451	10.16
535.649	10.19
535.847	10.35
536.045	10.31
536.243	10.32
536.441	10.3
536.638	10.41
536.836	10.45
537.034	10.62
537.232	10.67
537.43	10.72
537.627	10.65
537.825	10.6
538.023	10.58
538.22	10.64
538.418	10.7
538.616	10.69
538.813	10.71
539.011	10.85
539.209	10.88
539.406	10.94
539.604	10.9
539.801	10.93
539.999	10.98
540.196	10.98
540.394	11.01
540.591	11.08
540.789	11.15
540.986	11.23
541.184	11.26
541.381	11.33
541.579	11.31
541.776	11.32
541.974	11.37
542.171	11.44
542.368	11.46
542.566	11.51
542.763	11.54
542.96	11.58
543.158	11.59
543.355	11.57
543.552	11.54
543.75	11.66
543.947	11.78
544.144	11.94
544.341	11.97
544.539	12.11
544.736	12.28
544.933	12.32
545.13	12.42
545.327	12.5
545.524	12.57
545.722	12.64
545.919	12.69
546.116	12.68
546.313	12.65
546.51	12.75
546.707	12.71
546.904	12.67
547.101	12.79
547.298	12.91
547.495	12.94
547.692	13.07
547.889	13.2
548.086	13.12
548.283	13.25
548.48	13.21
548.677	13.24
548.874	13.23
549.07	13.2
549.267	13.22
549.464	13.2
549.661	13.18
549.858	13.03
550.055	13.07
550.251	13.24
550.448	13.08
550.645	13.19
550.842	13.37
551.038	13.71
551.235	13.84
551.432	13.8
551.628	13.8
551.825	13.85
552.022	14.08
552.218	14.23
552.415	14.24
552.612	14.57
552.808	14.65
553.005	14.46
553.201	14.34
553.398	14.44
553.594	14.55
553.791	14.67
553.987	14.85
554.184	14.88
554.38	14.77
554.577	14.9
554.773	14.71
554.97	14.69
555.166	14.81
555.362	15.18
555.559	15.21
555.755	15.3
555.952	15.39
556.148	15.28
556.344	15.06
556.541	15.19
556.737	15.19
556.933	15.49
557.129	15.6
557.326	15.74
557.522	15.45
557.718	15.48
557.914	15.41
558.11	15.36
558.307	15.42
558.503	15.91
558.699	15.89
558.895	15.88
559.091	15.95
559.287	16.02
559.483	16.15
559.679	16.43
559.876	16.64
560.072	16.77
560.268	16.97
560.464	17.17
560.66	17.25
560.856	17.39
561.052	17.54
561.247	17.48
561.443	17.69
561.639	17.76
561.835	17.56
562.031	17.47
562.227	17.6
562.423	17.62
562.619	17.49
562.815	17.31
563.01	17.55
563.206	17.65
563.402	17.7
563.598	17.72
563.793	17.74
563.989	17.87
564.185	17.95
564.381	18.04
564.576	18.2
564.772	18.21
564.968	18.31
565.163	18.33
565.359	18.32
565.555	18.39
565.75	18.61
565.946	18.73
566.141	18.74
566.337	19
566.532	19
566.728	18.94
566.923	19.27
567.119	19.32
567.314	19.31
567.51	19.49
567.705	19.61
567.901	19.54
568.096	19.72
568.292	19.93
568.487	19.91
568.682	20.03
568.878	20.11
569.073	20.18
569.268	20.35
569.464	20.44
569.659	20.42
569.854	20.45
570.05	20.27
570.245	20.19
570.44	20.38
570.635	20.17
570.831	20.24
571.026	20.46
571.221	20.32
571.416	20.34
571.611	20.24
571.806	20.23
572.002	20.36
572.197	20.44
572.392	20.51
572.587	20.49
572.782	20.85
572.977	20.69
573.172	20.67
573.367	20.84
573.562	21.15
573.757	21.29
573.952	21.44
574.147	21.48
574.342	21.54
574.537	21.55
574.732	21.51
574.927	21.49
575.121	21.86
575.316	21.86
575.511	21.89
575.706	21.79
575.901	21.87
576.096	21.93
576.29	22.01
576.485	22.08
576.68	22.24
576.875	22.34
577.069	22.3
577.264	22.34
577.459	22.56
577.654	22.79
577.848	22.72
578.043	22.94
578.238	23.03
578.432	23.3
578.627	23.34
578.821	23.58
579.016	23.8
579.21	23.87
579.405	23.9
579.6	24
579.794	23.87
579.989	23.88
580.183	23.9
580.378	23.82
580.572	23.44
580.766	23.6
580.961	23.58
581.155	23.33
581.35	23.61
581.544	23.84
581.738	23.72
581.933	23.81
582.127	23.98
582.321	23.78
582.516	24.05
582.71	24.25
582.904	24.42
583.099	24.32
583.293	24.68
583.487	24.52
583.681	24.41
583.875	24.49
584.07	24.38
584.264	24.19
584.458	24.1
584.652	23.99
584.846	24.15
585.04	24.23
585.234	24.32
585.428	24.34
585.623	24.49
585.817	24.25
586.011	24.29
586.205	24.6
586.399	25.08
586.593	25.58
586.787	25.67
586.981	25.64
587.174	25.59
587.368	25.51
587.562	25.57
587.756	25.5
587.95	25.5
588.144	25.6
588.338	25.78
588.532	25.53
588.725	25.33
588.919	25.35
589.113	25.64
589.307	25.82
589.501	25.92
589.694	25.85
589.888	26.1
590.082	26.31
590.275	26.36
590.469	26.18
590.663	26.4
590.856	26.36
591.05	26.66
591.244	26.59
591.437	26.63
591.631	26.51
591.824	26.51
592.018	26.33
592.212	26.35
592.405	26.45
592.599	26.57
592.792	26.68
592.986	26.85
593.179	26.68
593.372	26.6
593.566	26.55
593.759	26.93
593.953	27.36
594.146	27.49
594.339	27.68
594.533	27.63
594.726	27.81
594.92	28.02
595.113	28.13
595.306	28.17
595.499	28.29
595.693	28.39
595.886	28.49
596.079	28.2
596.272	28.28
596.466	28.07
596.659	28.09
596.852	27.96
597.045	27.75
597.238	27.79
597.431	27.9
597.624	27.93
597.818	27.91
598.011	27.82
598.204	28.13
598.397	28.05
598.59	28.36
598.783	28.47
598.976	28.57
599.169	28.81
599.362	28.83
599.555	28.63
599.748	28.74
599.941	28.97
600.134	29.09
600.326	28.84
600.519	29.01
600.712	28.77
600.905	28.73
601.098	28.85
601.291	28.86
601.483	28.92
601.676	29.1
601.869	29.02
602.062	28.89
602.255	28.88
602.447	28.84
602.64	28.97
602.833	29.43
603.025	29.73
603.218	29.93
603.411	29.84
603.603	29.8
603.796	29.88
603.989	29.9
604.181	30.03
604.374	29.99
604.566	30.29
604.759	30.23
604.951	30.04
605.144	29.88
605.336	29.77
605.529	29.81
605.721	29.84
605.914	29.82
606.106	29.69
606.299	29.63
606.491	29.67
606.683	29.54
606.876	29.63
607.068	29.68
607.26	29.83
607.453	29.8
607.645	29.94
607.837	29.98
608.03	29.92
608.222	30.1
608.414	30.2
608.606	30.25
608.799	30.53
608.991	30.31
609.183	30.24
609.375	30.14
609.567	30.04
609.759	29.96
609.952	30.07
610.144	30.47
610.336	30.55
610.528	30.55
610.72	30.56
610.912	30.37
611.104	30.61
611.296	30.69
611.488	30.92
611.68	31.05
611.872	31.14
612.064	31.36
612.256	31.34
612.448	31.37
612.64	31.17
612.832	31.27
613.023	31.32
613.215	31.22
613.407	31.5
613.599	31.49
613.791	31.65
613.983	31.54
614.174	31.45
614.366	31.53
614.558	31.65
614.75	31.9
614.941	31.99
615.133	32.27
615.325	32.54
615.516	32.3
615.708	32.25
615.9	32.33
616.091	32.58
616.283	32.67
616.475	32.42
616.666	32.38
616.858	32.33
617.049	32.25
617.241	32.12
617.432	32.19
617.624	32.27
617.815	32.46
618.007	32.29
618.198	32.3
618.39	32.3
618.581	32.09
618.773	32.32
618.964	32.26
619.155	32.32
619.347	32.43
619.538	32.71
619.729	32.91
619.921	32.61
620.112	32.9
620.303	33
620.494	33.03
620.686	33.39
620.877	33.38
621.068	33.86
621.259	34.02
621.451	33.93
621.642	33.78
621.833	33.62
622.024	33.89
622.215	33.79
622.406	33.71
622.597	33.79
622.788	33.51
622.98	33.55
623.171	33.34
623.362	33.23
623.553	33.47
623.744	33.51
623.935	33.8
624.126	33.79
624.317	33.77
624.508	34.06
624.698	33.81
624.889	34.13
625.08	34.13
625.271	34.28
625.462	34.3
625.653	33.98
625.844	33.78
626.034	33.8
626.225	33.85
626.416	33.82
626.607	33.76
626.798	34.06
626.988	34.14
627.179	34.29
627.37	34.27
627.56	34.44
627.751	34.7
627.942	34.63
628.132	34.44
628.323	34.43
628.514	34.66
628.704	34.47
628.895	34.25
629.085	34
629.276	33.71
629.466	33.82
629.657	33.58
629.847	33.35
630.038	33.69
630.228	33.99
630.419	33.99
630.609	33.98
630.8	34.45
630.99	34.59
631.181	34.57
631.371	34.72
631.561	34.27
631.752	34.57
631.942	34.8
632.132	34.53
632.323	34.28
632.513	34.43
632.703	34.37
632.893	34.2
633.084	34.32
633.274	34.6
633.464	34.6
633.654	35.06
633.844	34.96
634.034	34.75
634.225	35.01
634.415	35.19
634.605	34.95
634.795	34.95
634.985	34.87
635.175	34.81
635.365	34.9
635.555	35.01
635.745	34.94
635.935	35.05
636.125	35.29
636.315	35.15
636.505	35.1
636.695	35.48
636.885	35.27
637.075	35.31
637.265	35.55
637.455	35.26
637.644	35.25
637.834	35.11
638.024	35.2
638.214	34.86
638.404	35.05
638.593	35.22
638.783	35.1
638.973	35.4
639.163	35.11
639.352	34.79
639.542	35.08
639.732	34.99
639.921	35.28
640.111	35.16
640.301	35.55
640.49	35.42
640.68	35.5
640.87	35.35
641.059	34.96
641.249	35.35
641.438	35.46
641.628	35.38
641.817	35.46
642.007	35.4
642.196	35.71
642.386	35.36
642.575	35.33
642.764	35.41
642.954	35.56
643.143	36.01
643.333	36.1
643.522	36.3
643.711	36.26
643.901	36.52
644.09	36.28
644.279	35.98
644.469	36.68
644.658	37.02
644.847	36.7
645.036	36.73
645.226	37.04
645.415	37.04
645.604	36.86
645.793	36.8
645.982	36.63
646.171	36.94
646.361	37.1
646.55	36.94
646.739	36.62
646.928	36.84
647.117	36.8
647.306	36.6
647.495	36.41
647.684	36.45
647.873	36.56
648.062	36.81
648.251	36.87
648.44	36.63
648.629	36.37
648.818	36.48
649.007	36.7
649.196	36.75
649.384	37.11
649.573	37.31
649.762	37.69
649.951	37.89
650.14	37.96
650.328	37.9
650.517	38.11
650.706	38.59
650.895	38.8
651.083	38.93
651.272	39.31
651.461	39.08
651.65	39.34
651.838	39.25
652.027	39.45
652.216	39.21
652.404	39.32
652.593	39.56
652.781	39.44
652.97	39.56
653.158	39.39
653.347	39.18
653.535	39.14
653.724	39.19
653.912	39.34
654.101	39.08
654.289	39.03
654.478	38.76
654.666	38.53
654.855	38.71
655.043	38.59
655.231	38.5
655.42	38.45
655.608	38.56
655.796	37.99
655.985	37.97
656.173	37.92
656.361	38.44
656.55	38.73
656.738	39.02
656.926	38.8
657.114	38.89
657.302	38.81
657.491	39.07
657.679	38.98
657.867	39.61
658.055	39.65
658.243	39.92
658.431	39.74
658.619	39.96
658.807	39.94
658.996	40.12
659.184	40.15
659.372	40.4
659.56	40.38
659.748	40.62
659.936	40.56
660.124	40.55
660.311	40.3
660.499	40.18
660.687	40.23
660.875	40.07
661.063	40.11
661.251	39.82
661.439	39.89
661.627	39.87
661.814	39.3
662.002	39.09
662.19	39.2
662.378	39.39
662.565	39.42
662.753	39.19
662.941	39.1
663.129	38.78
663.316	39.08
663.504	38.73
663.692	38.76
663.879	39.16
664.067	39.21
664.254	38.97
664.442	38.93
664.63	39.31
664.817	39.65
665.005	39.98
665.192	40.48
665.38	40.73
665.567	40.89
665.755	40.96
665.942	41.57
666.13	41.7
666.317	41.74
666.504	41.62
666.692	41.61
666.879	41.23
667.067	41.46
667.254	41.06
667.441	40.73
667.629	40.61
667.816	40.58
668.003	40.37
668.19	40.37
668.378	40.62
668.565	40.97
668.752	40.7
668.939	40.85
669.127	40.47
669.314	40.54
669.501	40.67
669.688	41.29
669.875	41.45
670.062	41.45
670.249	41.65
670.436	41.56
670.623	41.54
670.81	41.76
670.997	41.97
671.184	42.05
671.371	42.16
671.558	42.04
671.745	41.58
671.932	41.24
672.119	41.39
672.306	41.23
672.493	41.51
672.68	41.68
672.867	41.88
673.054	41.59
673.24	41.5
673.427	41.5
673.614	41.81
673.801	42.14
673.988	42.55
674.174	42.31
674.361	42.15
674.548	42.05
674.734	41.93
674.921	41.85
675.108	42.39
675.294	42.83
675.481	42.79
675.668	43.07
675.854	42.81
676.041	42.49
676.227	42.98
676.414	43.22
676.601	42.99
676.787	43.46
676.974	43.35
677.16	42.88
677.347	42.46
677.533	42.85
677.719	42.71
677.906	42.69
678.092	43.01
678.279	42.49
678.465	42.05
678.651	42.33
678.838	41.97
679.024	42.31
679.21	42.62
679.397	42.97
679.583	42.87
679.769	42.73
679.955	42.53
680.142	42.3
680.328	42.59
680.514	43.37
680.7	43.08
680.886	42.97
681.073	42.81
681.259	42.72
681.445	42.62
681.631	42.38
681.817	42.12
682.003	42.29
682.189	42.55
682.375	42.37
682.561	41.9
682.747	42.2
682.933	42.52
683.119	42.36
683.305	42.74
683.491	42.8
683.677	43.55
683.863	44.13
684.049	44.33
684.235	44.14
684.42	43.89
684.606	43.6
684.792	43.62
684.978	43.53
685.164	43.88
685.349	43.45
685.535	43.42
685.721	43.09
685.907	42.88
686.092	42.87
686.278	43.34
686.464	43.47
686.649	43.85
686.835	43.79
687.021	43.94
687.206	43.57
687.392	43.69
687.577	43.96
687.763	43.87
687.948	44.24
688.134	44.19
688.319	43.88
688.505	44.21
688.69	44.21
688.876	44.16
689.061	44.1
689.247	44.57
689.432	44.43
689.618	44.18
689.803	44.11
689.988	44.02
690.174	44.59
690.359	44.24
690.544	44.56
690.73	44.33
690.915	44.41
691.1	43.92
691.285	43.88
691.471	43.57
691.656	44.07
691.841	44.35
692.026	44.05
692.211	43.56
692.396	43.86
692.582	43.72
692.767	43.71
692.952	43.83
693.137	44.49
693.322	44.11
693.507	45.17
693.692	45.03
693.877	44.56
694.062	44.48
694.247	44.88
694.432	44.84
694.617	44.52
694.802	44.91
694.987	44.33
695.172	44.37
695.357	44.5
695.541	43.73
695.726	43.65
695.911	44.15
696.096	44.49
696.281	44.4
696.466	44.82
696.65	45.02
696.835	45.5
697.02	45.68
697.204	46.04
697.389	46.3
697.574	46.32
697.759	46.36
697.943	45.97
698.128	46.16
698.312	46.33
698.497	46.34
698.682	46.54
698.866	46.01
699.051	46.34
699.235	46.03
699.42	45.82
699.604	45.89
699.789	45.91
699.973	45.88
700.158	45.6
700.342	45.36
700.527	45.27
700.711	45.12
700.895	45.38
701.08	44.92
701.264	44.25
701.448	44.19
701.633	44.29
701.817	44.12
702.001	44.35
702.186	44.31
702.37	44.12
702.554	43.97
702.738	43.31
702.923	42.98
703.107	43.32
703.291	43.92
703.475	44.16
703.659	44.09
703.843	44.16
704.027	44.07
704.212	44.32
704.396	44.3
704.58	44.65
704.764	45.43
704.948	46.24
705.132	46.67
705.316	47.03
705.5	46.76
705.684	46.78
705.868	46.87
706.052	47.33
706.235	47.42
706.419	47.66
706.603	47.58
706.787	47
706.971	46.93
707.155	46.25
707.339	46.24
707.522	46.22
707.706	46.38
707.89	46.07
708.074	45.42
708.257	45.48
708.441	45.26
708.625	44.78
708.808	45.18
708.992	45.03
709.176	45.05
709.359	44.34
709.543	44.42
709.727	44.17
709.91	44.49
710.094	45.09
710.277	44.92
710.461	45.07
710.644	45.37
710.828	45.27
711.011	45.46
711.195	45.82
711.378	46.51
711.562	46.91
711.745	46.85
711.928	46.69
712.112	46.86
712.295	46.74
712.478	46.98
712.662	46.66
712.845	46.95
713.028	46.7
713.212	46.49
713.395	46.43
713.578	45.83
713.761	45.93
713.945	46.26
714.128	45.99
714.311	46.43
714.494	45.87
714.677	46.37
714.86	45.85
715.043	45.67
715.227	45.64
715.41	45.61
715.593	46.32
715.776	46.69
715.959	46.79
716.142	46.52
716.325	46.14
716.508	46.41
716.691	46.46
716.874	46.6
717.057	46.81
717.239	47.28
717.422	46.96
717.605	46.96
717.788	46.35
717.971	46.25
718.154	46.07
718.337	46.15
718.519	46.33
718.702	45.63
718.885	45.4
719.068	46.04
719.25	45.67
719.433	46.24
719.616	45.78
719.798	46.06
719.981	46.13
720.164	46.64
720.346	46.63
720.529	46.49
720.712	46.49
720.894	47.1
721.077	46
721.259	46.36
721.442	46.18
721.624	46.44
721.807	46.5
721.989	46.06
722.172	46.56
722.354	46.82
722.537	46.39
722.719	47.83
722.901	47.64
723.084	47.36
723.266	47.23
723.448	46.44
723.631	46.06
723.813	46.55
723.995	46.66
724.178	46.23
724.36	46.17
724.542	46.73
724.724	45.74
724.907	45.78
725.089	46.76
725.271	46.8
725.453	47.57
725.635	48.24
725.817	47.65
725.999	47.85
726.181	47.77
726.364	47.36
726.546	47.03
726.728	47.64
726.91	47.91
727.092	47.32
727.274	47.35
727.456	47.17
727.638	46.85
727.819	46.66
728.001	46.05
728.183	46.2
728.365	46.39
728.547	47.36
728.729	47.57
728.911	47.58
729.093	47.83
729.274	47.39
729.456	48.15
729.638	47.88
729.82	48.88
730.001	49.59
730.183	49.66
730.365	49.39
730.546	49.12
730.728	48.85
730.91	48.98
731.091	48.8
731.273	49.13
731.455	48.36
731.636	48.67
731.818	48.28
731.999	48.2
732.181	48.14
732.362	48.71
732.544	48.48
732.725	48.85
732.907	48.04
733.088	47.97
733.27	48.77
733.451	48.76
733.633	48.61
733.814	48.18
733.995	47.72
734.177	48.19
734.358	48.05
734.539	47.59
734.721	47.36
734.902	47.89
735.083	48.24
735.264	47.48
735.446	47.88
735.627	48.09
735.808	48.2
735.989	49.7
736.17	48.53
736.351	49.13
736.533	50.01
736.714	50.02
736.895	50.13
737.076	50.93
737.257	50.52
737.438	49.65
737.619	49.21
737.8	49.57
737.981	48.03
738.162	48.96
738.343	47.8
738.524	47.51
738.705	46.85
738.886	46.32
739.067	46.1
739.247	46.42
739.428	47.06
739.609	46.84
739.79	45.52
739.971	46.18
740.151	45.68
740.332	46.92
740.513	46.85
740.694	46.55
740.874	47.53
741.055	47.26
741.236	47.13
741.417	47.5
741.597	47.38
741.778	49.3
741.958	48.66
742.139	49.01
742.32	48.84
742.5	48.05
742.681	48.2
742.861	47.65
743.042	46.44
743.222	45.94
743.403	45.25
743.583	46.07
743.764	45.87
743.944	46.71
744.124	46.76
744.305	46.75
744.485	47.87
744.666	47.99
744.846	48.12
745.026	48.51
745.207	48.5
745.387	48.15
745.567	48.99
745.747	49.66
745.928	48.78
746.108	48.47
746.288	47.41
746.468	47.82
746.648	48.05
746.829	47.05
747.009	47.01
747.189	47.5
747.369	49.38
747.549	47.89
747.729	46.21
747.909	45.98
748.089	46.02
748.269	47.28
748.449	46.38
748.629	47.1
748.809	47.81
748.989	48.38
749.169	47.92
749.349	46.37
749.529	47.05
749.709	47.12
749.889	47.72
750.068	47.71
750.248	46.77
750.428	47.49
750.608	47.15
750.788	46.5
750.967	45.67
751.147	46.63
751.327	47.06
751.507	47.23
751.686	47.86
751.866	48.98
752.046	49.43
752.225	49.58
752.405	49.39
752.585	48.32
752.764	49.97
752.944	50.44
753.123	50.76
753.303	50.49
753.482	50.62
753.662	50.34
753.841	49.01
754.021	48.72
754.2	49.39
754.38	49.28
754.559	50.2
754.739	49.48
754.918	50.1
755.097	49.36
755.277	49.41
755.456	49.35
755.635	49.66
755.815	49.4
755.994	48.59
756.173	46.81
756.352	47.25
756.532	46.71
756.711	46.96
756.89	46.79
757.069	47.63
757.248	47.46
757.427	47.25
757.607	47.68
757.786	48.62
757.965	49.27
758.144	50.11
758.323	49.14
758.502	49.43
758.681	48.95
758.86	48.16
759.039	47.57
759.218	48.03
759.397	48
759.576	47.73
759.755	47.96
759.934	48.28
760.113	48.45
760.291	48.42
760.47	48.93
760.649	48.64
760.828	49.64
761.007	49.89
761.186	49.48
761.364	49.29
761.543	49.01
761.722	48.24
761.901	48.95
762.079	49.71
762.258	50.47
762.437	50.43
762.615	51.63
762.794	50.94
762.972	51.25
763.151	50.99
763.33	51.3
763.508	51.59
763.687	51.75
763.865	51.3
764.044	51.45
764.222	50.66
764.401	50.22
764.579	49.53
764.758	49.97
764.936	49.43
765.114	49.7
765.293	49.66
765.471	49.09
765.65	48.71
765.828	48.65
766.006	47.09
766.184	47.08
766.363	47.07
766.541	47.53
766.719	47.2
766.898	47.6
767.076	48.58
767.254	47.82
767.432	47.79
767.61	49.01
767.788	48.92
767.967	50.31
768.145	50.49
768.323	50.91
768.501	50.68
768.679	51.61
768.857	51.65
769.035	50.62
769.213	52.41
769.391	52.89
769.569	52.52
769.747	52.73
769.925	52.9
770.103	53.51
770.281	52.51
770.459	53.37
770.636	52.6
770.814	52.46
770.992	51.31
771.17	49.93
771.348	50.84
771.525	51.07
771.703	51.96
771.881	50.98
772.059	50.55
772.236	51.52
772.414	49.82
772.592	50.03
772.769	50.15
772.947	52.01
773.125	53.32
773.302	50.94
773.48	49.88
773.657	48.61
773.835	49.61
774.013	48.97
774.19	49.97
774.368	50.79
774.545	49.64
774.723	48.18
774.9	46.85
775.077	45.62
775.255	47.28
775.432	46.49
775.61	46.03
775.787	45.54
775.964	45.63
776.142	46.53
776.319	46.91
776.496	47.62
776.674	49.39
776.851	50.73
777.028	50.65
777.205	51.16
777.382	52.01
777.56	53.49
777.737	55.13
777.914	55.04
778.091	51.86
778.268	50.68
778.445	50.06
778.622	49.29
778.8	47.13
778.977	48.29
779.154	55.35
779.331	54.82
779.508	52.56
779.685	50.4
779.862	51.71
780.038	52.3
780.215	52.45
780.392	53.84
780.569	53.79
780.746	55.34
780.923	54.34
781.1	45.79
781.277	46.48
781.453	47.45
781.63	48.59
781.807	48.81
781.984	48.58
782.16	48.53
782.337	48.37
782.514	46.94
782.691	46.62
782.867	45.91
783.044	46.81
783.221	47.82
783.397	49.64
783.574	48.88
783.75	48.5
783.927	48.37
784.103	48.32
784.28	46.91
784.456	48.01
784.633	50.43
784.809	50.76
784.986	49.78
785.162	49.11
785.339	47.02
785.515	46.96
785.692	48.44
785.868	48.95
786.044	47.89
786.221	48.67
786.397	49.37
786.573	46.27
786.749	47.47
786.926	48.83
787.102	49.88
787.278	49.76
787.454	50.16
787.631	49.06
787.807	48.02
787.983	47.2
788.159	45.81
788.335	46.42
788.511	46.48
788.687	46.22
788.863	44.75
789.039	43.31
789.216	43.65
789.392	44.88
789.568	44.2
789.744	43.84
789.919	46.1
790.095	46.81
790.271	45.29
790.447	45.1
790.623	45.26
790.799	47
790.975	46.55
791.151	45.22
791.327	43.66
791.502	45.74
791.678	47.63
791.854	48.29
792.03	48.81
792.205	50.45
792.381	50.98
792.557	50.75
792.733	49.71
792.908	49.46
793.084	50.41
793.259	49.61
793.435	47.51
793.611	48.49
793.786	46.59
793.962	45.19
794.137	43.77
794.313	42.53
794.488	42.92
794.664	42.16
794.839	43.33
795.015	44.62
795.19	45.29
795.366	48.76
795.541	48.21
795.716	47.32
795.892	49.18
796.067	47.96
796.242	49.27
796.418	48.63
796.593	51.4
796.768	51.05
796.944	49.68
797.119	49.92
797.294	47.97
797.469	47.28
797.644	49.95
797.82	49.61
797.995	52.13
798.17	51.51
798.345	51.64
798.52	49.63
798.695	48.02
798.87	49.63
799.045	50.77
799.22	51.12
799.395	51.72
799.57	48.83
799.745	48.17
799.92	47.35
800.095	49.46
800.27	49.66
800.445	47.28
800.62	48.07
800.795	46.95
800.97	46.43
801.145	44.26
801.319	43.53
801.494	46.88
801.669	47.99
801.844	48.72
802.018	47.13
802.193	46.9
802.368	50.29
802.543	51.18
802.717	51.15
802.892	51.45
803.067	51.98
803.241	50.34
803.416	48.46
803.59	49.28
803.765	50.22
803.94	49.82
804.114	48.93
804.289	48.51
804.463	48.5
804.638	48.18
804.812	46.95
804.986	47.3
805.161	50.95
805.335	51.87
805.51	51.65
805.684	50.14
805.858	49.31
806.033	50.42
806.207	49.1
806.381	48.48
806.556	49.72
806.73	48.12
806.904	47.46
807.078	44.56
807.253	45.5
807.427	43.22
807.601	41.79
807.775	41.86
807.949	39.8
808.123	40.85
808.298	40.51
808.472	38.31
808.646	41.03
808.82	42.29
808.994	43.38
809.168	40.04
809.342	37.8
809.516	37.92
809.69	39.75
809.864	39.81
810.038	40.13
810.212	40.63
810.385	39.63
810.559	38.77
810.733	39.1
810.907	41.29
811.081	43.36
811.255	49.06
811.428	48.86
811.602	49.68
811.776	52.24
811.95	49.06
812.123	49.36
812.297	51.1
812.471	48.55
812.644	47.73
812.818	46.72
812.992	47.06
813.165	46.87
813.339	45.51
813.512	40.86
813.686	39.64
813.86	40.86
814.033	41.39
814.207	41.87
814.38	43.96
814.554	45.88
814.727	43.59
814.9	42.6
815.074	40.46
815.247	41.01
815.421	42.51
815.594	45.15
815.767	48.85
815.941	47.48
816.114	47.87
816.287	45.49
816.46	44.66
816.634	46.36
816.807	46.01
816.98	48.84
817.153	50.26
817.327	51.52
817.5	48.3
817.673	44.54
817.846	48.26
818.019	48.43
818.192	50.16
818.365	50.14
818.538	52.11
818.711	52.55
818.884	51.16
819.057	51.93
819.23	51.23
819.403	51.43
819.576	53.28
819.749	49.97
819.922	50.14
820.095	52.21
820.268	49.78
820.441	48.65
820.614	49.7
820.786	51.68
820.959	52.83
821.132	52.71
821.305	52.89
821.477	53.09
821.65	52.75
821.823	52.42
821.996	51.81
822.168	53.07
822.341	52.85
822.514	53.22
822.686	52.34
822.859	51.56
823.031	51.33
823.204	51.47
823.376	51.1
823.549	50.62
823.722	50.18
823.894	50.97
824.067	50.57
824.239	50.78
824.411	49.75
824.584	49.57
824.756	49.94
824.929	49.97
825.101	50
825.273	50.44
825.446	51.08
825.618	51.76
825.79	50.6
825.963	50.11
826.135	50.56
826.307	51.02
826.479	51.46
826.652	50.8
826.824	51.35
826.996	50.41
827.168	50.1
827.34	50.82
827.512	50.34
827.684	50.41
827.856	50.33
828.029	49.38
828.201	49.42
828.373	48.89
828.545	50.22
828.717	49.55
828.889	49.82
829.061	49.27
829.232	48.55
829.404	48.2
829.576	49.37
829.748	49.8
829.92	50.03
830.092	50.8
830.264	51.26
830.436	50.69
830.607	51.86
830.779	52.61
830.951	53.85
831.123	54.69
831.294	55.06
831.466	53.62
831.638	53.06
831.809	53.11
831.981	55.54
832.153	56.22
832.324	55.28
832.496	54.93
832.667	55.61
832.839	56.25
833.011	54.69
833.182	55.74
833.354	55.58
833.525	56.81
833.697	53.92
833.868	50.79
834.039	49.25
834.211	49.85
834.382	48.07
834.554	46.71
834.725	46.24
834.896	46.38
835.068	44.79
835.239	44.83
835.41	44.51
835.581	46.26
835.753	45.29
835.924	46.07
836.095	44.89
836.266	46.18
836.438	46.45
836.609	46.42
836.78	46.08
836.951	49.1
837.122	48.7
837.293	48.78
837.464	48.37
837.635	50.88
837.806	51.87
837.977	52.39
838.148	52.96
838.319	53.45
838.49	50.63
838.661	51.41
838.832	50.56
839.003	50.46
839.174	50.25
839.345	46.9
839.516	46.6
839.687	48.29
839.857	48.37
840.028	49.31
840.199	47.97
840.37	46.79
840.54	46.61
840.711	43.45
840.882	42.37
841.053	40.75
841.223	42.95
841.394	41.32
841.564	38.88
841.735	40.06
841.906	40.32
842.076	43.65
842.247	46.37
842.417	41.72
842.588	45.85
842.758	49.05
842.929	49.12
843.099	51.4
843.27	48.39
843.44	46.04
843.611	40.28
843.781	33.03
843.951	30.96
844.122	28.94
844.292	33.94
844.462	32.01
844.633	29.12
844.803	32.71
844.973	29.19
845.144	28.61
845.314	30.59
845.484	31.6
845.654	34.91
845.824	33.53
845.995	36.01
846.165	37.26
846.335	36.99
846.505	38.55
846.675	33.91
846.845	37.25
847.015	40.58
847.185	41.38
847.355	45.42
847.525	49.9
847.695	52.86
847.865	51.16
848.035	48.06
848.205	50.07
848.375	42.24
848.545	44.16
848.715	42.67
848.884	45.01
849.054	43.61
849.224	47.68
849.394	47.53
849.564	42.84
849.733	47.32
849.903	53.46
850.073	44.99
850.243	50.24
850.412	53.38
850.582	49.51
850.752	48.76
850.921	44.37
851.091	36.59
851.26	34.6
851.43	34.84
851.599	34.88
851.769	33.44
851.939	36.22
852.108	37.69
852.278	32.23
852.447	36
852.616	34.15
852.786	45.88
852.955	44.93
853.125	34.85
853.294	30.89
853.463	21.03
853.633	14.27
853.802	24.47
853.971	18.14
854.141	26.45
854.31	27.88
854.479	29.96
854.648	21.97
854.818	31.95
854.987	50.53
855.156	55.89
855.325	61.32
855.494	58.95
855.663	53.63
855.832	55.83
856.001	43.32
856.171	45.28
856.34	44.1
856.509	48.3
856.678	48.62
856.847	43.08
857.016	42.21
857.185	44.2
857.353	44.5
857.522	45.97
857.691	33.27
857.86	41.7
858.029	42.84
858.198	43.39
858.367	35.24
858.535	37.78
858.704	30.3
858.873	30.52
859.042	28.08
859.21	31.78
859.379	32.25
859.548	42.52
859.717	42.18
859.885	42.53
860.054	41.65
860.222	44.94
860.391	36.68
860.56	36.96
860.728	41.04
860.897	36.91
861.065	39.76
861.234	40.73
861.402	43.74
861.571	43.51
861.739	41.79
861.908	40.07
862.076	38.33
862.244	42.2
862.413	47.95
862.581	51.4
862.749	54.86
862.918	59.3
863.086	58.93
863.254	63.03
863.423	59.68
863.591	60.13
863.759	60.16
863.927	62.74
864.096	58.05
864.264	64.57
864.432	62.63
864.6	64.84
864.768	50.61
864.936	44.84
865.104	39.59
865.272	36.28
865.44	39.84
865.608	51.62
865.776	53.84
865.944	48.15
866.112	42.44
866.28	32.9
866.448	35.1
866.616	45.33
866.784	58.07
866.952	56.9
867.12	60.91
867.288	49.84
867.455	38.1
867.623	34.98
867.791	39.5
867.959	38.48
868.127	39.13
868.294	39.36
868.462	32.88
868.63	21.05
868.797	26.8
868.965	35.47
869.133	38.84
869.3	38.74
869.468	40.38
869.636	37.22
869.803	35.89
869.971	32.34
870.138	33.18
870.306	36.84
870.473	42.36
870.641	42.88
870.808	33.83
870.975	33.5
871.143	40.53
871.31	40.82
871.478	45.95
871.645	49.92
871.812	56.76
871.98	51.96
872.147	47.07
872.314	39.54
872.482	39.18
872.649	38.11
872.816	33.99
872.983	23.36
873.15	20.16
873.318	11.96
873.485	1.13
873.652	-8.52
873.819	-15.03
873.986	-14.8
874.153	-7.69
874.32	-0.68
874.487	-4.09
874.654	8.34
874.821	14.77
874.988	27.54
875.155	32.24
875.322	39.73
875.489	48
875.656	53.67
875.823	52.85
875.99	49.3
876.157	41.75
876.324	51.62
876.49	48.6
876.657	41.97
876.824	20.67
876.991	19.02
877.157	16.69
877.324	0.8
877.491	6.09
877.658	2.52
877.824	11.62
877.991	19.96
878.157	22.08
878.324	18.63
878.491	17.86
878.657	32.78
878.824	38.37
878.99	40.25
879.157	43.43
879.323	53.22
879.49	54.83
879.656	52.02
879.823	51.33
879.989	55.85
880.156	61.59
880.322	66.33
880.488	65.35
880.655	59.6
880.821	51.95
880.987	56.73
881.154	47.96
881.32	46.81
881.486	49.08
881.652	51.11
881.819	48.58
881.985	44.82
882.151	43.77
882.317	45.56
882.483	47.22
882.649	50.76
882.816	48.83
882.982	51.78
883.148	52.44
883.314	51.11
883.48	49.34
883.646	48.6
883.812	50.76
883.978	51.33
884.144	50.27
884.31	50.64
884.476	50.48
884.642	50.95
884.807	49.26
884.973	47.79
885.139	46.39
885.305	47.07
885.471	47.66
885.637	45.22
885.802	43.26
885.968	42.45
886.134	41.63
886.3	42.09
886.465	43.13
886.631	41.89
886.797	42.65
886.962	44.23
887.128	43.06
887.293	42.27
887.459	43.09
887.625	43.48
887.79	45.89
887.956	44.82
888.121	40.84
888.287	35.97
888.452	38.29
888.618	35.71
888.783	37.78
