Data from LC_247_Reflection_3.txt Node
Date: Thu Nov 19 22:52:31 EST 2015
User: robert
Spectrometer: USB4E03001
Autoset integration time: false
Trigger mode: 4
Integration Time (sec): 1.000000E-1
Scans to average: 15
Electric dark correction enabled: true
Nonlinearity correction enabled: false
Boxcar width: 5
Stray light correction enabled: false
XAxis mode: Wavelengths
Stop averaging: false
Number of Pixels in Spectrum: 3648
>>>>>Begin Spectral Data<<<<<
177.566	-82.56
177.785	10.15
178.005	28.27
178.225	-14.18
178.445	-0.58
178.665	-11.65
178.885	61.93
179.105	252.38
179.324	61.68
179.544	-87.41
179.764	10.39
179.984	20.45
180.204	-31.6
180.423	-11.21
180.643	55.11
180.863	30.96
181.083	20.36
181.302	-19.07
181.522	35.42
181.742	59.14
181.961	96.14
182.181	122.93
182.401	172.24
182.621	208.42
182.84	319.62
183.06	242.02
183.279	234.43
183.499	217.89
183.719	585.54
183.938	780.13
184.158	-396.46
184.377	-534.31
184.597	254.53
184.816	-1143.4
185.036	176.76
185.256	-1363.33
185.475	-1.24
185.695	7.96
185.914	-46.12
186.134	5.97
186.353	54.82
186.572	-27.4
186.792	-129.17
187.011	1345.78
187.231	471.21
187.45	407.66
187.67	87.26
187.889	75.5
188.108	66.37
188.328	77.79
188.547	220.13
188.766	300.3
188.986	300.32
189.205	-2864.71
189.424	-22.76
189.644	-40.12
189.863	-6.56
190.082	15.53
190.302	3.2
190.521	3.4
190.74	8.17
190.959	21.53
191.178	5.22
191.398	-7.8
191.617	-35.97
191.836	-369.42
192.055	-75.62
192.274	-87.96
192.494	-28.85
192.713	0.8
192.932	28.86
193.151	32.57
193.37	22.89
193.589	16.25
193.808	32.99
194.027	51.45
194.246	59.78
194.465	71.29
194.685	67.98
194.904	52.88
195.123	47.66
195.342	15.82
195.561	1.64
195.78	24.32
195.999	31.88
196.218	30.08
196.436	22.74
196.655	-1.99
196.874	11
197.093	9.31
197.312	-15.13
197.531	36.17
197.75	78.11
197.969	99.13
198.188	-41.24
198.407	-30.19
198.625	-67.35
198.844	4.52
199.063	-608.04
199.282	13.91
199.501	52.89
199.719	128.28
199.938	118.14
200.157	236.91
200.376	256.62
200.594	-1043.75
200.813	-1196.03
201.032	-366.12
201.251	-104.97
201.469	-384.68
201.688	-38.87
201.907	15.88
202.125	172.95
202.344	16.11
202.563	41.73
202.781	13.49
203	18.56
203.218	57.2
203.437	-71.38
203.656	-56.12
203.874	-50.6
204.093	-107.7
204.311	-29.94
204.53	-6.95
204.748	-7.08
204.967	3.85
205.185	-6.15
205.404	-76.33
205.622	-144.93
205.841	-5.19
206.059	-83.51
206.278	-32.45
206.496	-55.63
206.715	-63.92
206.933	-105.82
207.151	-6.37
207.37	-93.58
207.588	-148.24
207.806	-40.64
208.025	-22.38
208.243	-229.76
208.461	-298.33
208.68	-400.98
208.898	-232.18
209.116	-224.03
209.335	-352.29
209.553	-1598.6
209.771	10069.75
209.989	-1389.25
210.208	1157.49
210.426	1360.77
210.644	-316.71
210.862	-163.13
211.081	-114.6
211.299	-68.49
211.517	-28.91
211.735	-3.93
211.953	3.26
212.171	15.58
212.39	25.43
212.608	27
212.826	25.61
213.044	3.49
213.262	8.29
213.48	-46.04
213.698	-43.29
213.916	-81.27
214.134	-99
214.352	-145.56
214.57	-159.07
214.788	-10.91
215.006	-21.44
215.224	-85.84
215.442	-193.51
215.66	-68.41
215.878	23.79
216.096	-124.97
216.314	-100.9
216.532	105.93
216.75	362.58
216.968	44.46
217.185	357.04
217.403	433.6
217.621	614.86
217.839	-49.33
218.057	1.32
218.275	33.69
218.492	28.26
218.71	-10.2
218.928	-60.98
219.146	-100.3
219.363	-29.42
219.581	-42.44
219.799	-44.4
220.017	-43.09
220.234	-28.28
220.452	-28.07
220.67	-38.96
220.887	-19.97
221.105	21.98
221.323	28.88
221.54	49.94
221.758	45.93
221.976	42.36
222.193	33.69
222.411	34.25
222.629	27.81
222.846	22.97
223.064	10.28
223.281	7.46
223.499	-21.95
223.716	-15.13
223.934	-30.32
224.151	-29.15
224.369	-24.14
224.586	-26.03
224.804	-23.67
225.021	-22.93
225.239	-18.09
225.456	-28.28
225.674	-29.68
225.891	-19.14
226.108	-3.87
226.326	-5.8
226.543	-1.02
226.76	-19.07
226.978	-10.58
227.195	-11.13
227.413	-8.93
227.63	-9.35
227.847	-1.31
228.064	0.39
228.282	3.06
228.499	-1.34
228.716	1.42
228.934	1.48
229.151	3.64
229.368	3.57
229.585	3.72
229.802	2.65
230.02	3.19
230.237	2.25
230.454	2.25
230.671	0.58
230.888	1.13
231.105	-0.3
231.323	1.06
231.54	2.57
231.757	1.94
231.974	6.85
232.191	6.71
232.408	6.3
232.625	11.57
232.842	12.59
233.059	16.19
233.276	19.51
233.493	22.29
233.71	18.63
233.927	16.57
234.144	19.33
234.361	10.69
234.578	12.49
234.795	13.19
235.012	7.27
235.229	3.57
235.446	5.88
235.663	3.34
235.879	0.59
236.096	-2.62
236.313	-9.37
236.53	-9.43
236.747	-8.91
236.964	-7.66
237.181	-10.32
237.397	-3.52
237.614	-1.72
237.831	-4.47
238.048	-1.64
238.264	-9.9
238.481	-3.68
238.698	1.06
238.915	1.74
239.131	-1.61
239.348	-1.7
239.565	1.43
239.781	-1.77
239.998	-2.06
240.215	-1.76
240.431	-2.79
240.648	2.88
240.865	0.56
241.081	2.3
241.298	3.09
241.514	6.44
241.731	6.95
241.947	7.84
242.164	7.69
242.38	10.13
242.597	9.61
242.814	9.96
243.03	10.15
243.246	11.97
243.463	10.75
243.679	10.06
243.896	9.14
244.112	8.63
244.329	8.7
244.545	10.87
244.762	9.58
244.978	10.61
245.194	9.78
245.411	10.23
245.627	10.26
245.843	9.79
246.06	11.15
246.276	10.91
246.492	11.88
246.709	11.08
246.925	9.35
247.141	8.68
247.357	8.73
247.574	9.29
247.79	9.07
248.006	9.24
248.222	9.86
248.439	9.36
248.655	8.98
248.871	7.9
249.087	6.89
249.303	7.59
249.519	7.63
249.736	7.62
249.952	6.97
250.168	6.14
250.384	4.57
250.6	5.2
250.816	5.02
251.032	6.19
251.248	8.68
251.464	10.02
251.68	9.71
251.896	9.15
252.112	7.73
252.328	8.16
252.544	8.2
252.76	10.16
252.976	9.79
253.192	8.38
253.408	8.06
253.624	6.8
253.84	6.99
254.056	7.72
254.272	8.57
254.487	10.07
254.703	10.6
254.919	10.6
255.135	8.55
255.351	8.68
255.567	11.04
255.782	10.08
255.998	11.21
256.214	9.91
256.43	8.94
256.646	10.1
256.861	9.84
257.077	9.03
257.293	9.69
257.508	11.35
257.724	10.75
257.94	11.5
258.155	12.41
258.371	10.59
258.587	10.7
258.802	10.42
259.018	9.71
259.234	9.63
259.449	9.46
259.665	8.69
259.88	8.47
260.096	8.08
260.312	7.02
260.527	6.62
260.743	7.37
260.958	7.32
261.174	7.51
261.389	7.81
261.605	7.75
261.82	7.24
262.036	7.74
262.251	6.72
262.466	7.1
262.682	7.57
262.897	8.18
263.113	5.69
263.328	7.61
263.543	7.77
263.759	6.8
263.974	7.19
264.189	9.02
264.405	7.94
264.62	9.65
264.835	9.44
265.051	9.67
265.266	9.03
265.481	11.53
265.696	10.21
265.912	9.09
266.127	9.99
266.342	8.54
266.557	7.24
266.773	7.37
266.988	5.97
267.203	6.09
267.418	6.42
267.633	5.44
267.848	4.71
268.064	4.69
268.279	4.67
268.494	3.8
268.709	4.35
268.924	3.84
269.139	4.58
269.354	4.12
269.569	3.34
269.784	2.25
269.999	2.52
270.214	4.79
270.429	5.34
270.644	5.54
270.859	5.55
271.074	4.67
271.289	5.69
271.504	5.43
271.719	6.31
271.934	6.94
272.149	8.24
272.363	9.38
272.578	8.51
272.793	7.54
273.008	7.43
273.223	8.44
273.438	9.94
273.653	9.85
273.867	10.34
274.082	9.34
274.297	9.11
274.512	8.46
274.726	8.9
274.941	8.66
275.156	7.97
275.371	8.93
275.585	7.44
275.8	6.22
276.015	6.42
276.229	7.01
276.444	7.92
276.659	8.45
276.873	8.98
277.088	8.43
277.302	7.22
277.517	8.4
277.732	8.32
277.946	8.92
278.161	9.03
278.375	8.98
278.59	7.25
278.804	6.32
279.019	6.62
279.233	6.04
279.448	6.38
279.662	8.84
279.877	8.65
280.091	7.94
280.306	8.19
280.52	8.44
280.735	8.8
280.949	8.94
281.163	9.51
281.378	9.3
281.592	9.75
281.806	9.55
282.021	8.04
282.235	7.74
282.449	7.99
282.664	7.82
282.878	7.08
283.092	6.42
283.307	7.78
283.521	8.11
283.735	8.35
283.949	8.08
284.164	7.74
284.378	7.36
284.592	6.94
284.806	6.92
285.02	7.11
285.234	7.95
285.449	7.66
285.663	7.28
285.877	7.69
286.091	7.51
286.305	7.67
286.519	7.87
286.733	8.34
286.947	9
287.161	8.81
287.375	8.42
287.589	7.57
287.803	8.43
288.017	8.53
288.231	8.53
288.445	8.12
288.659	7.88
288.873	7.29
289.087	7.52
289.301	7.16
289.515	6.72
289.729	6.69
289.943	7.29
290.157	7.18
290.371	7.28
290.584	6.61
290.798	6.4
291.012	6.11
291.226	6.04
291.44	6.44
291.654	6.64
291.867	7.42
292.081	7.5
292.295	7.58
292.509	7.03
292.722	7.01
292.936	7.47
293.15	6.39
293.364	7.68
293.577	8.36
293.791	7.28
294.005	7.54
294.218	7.16
294.432	7.29
294.645	7.54
294.859	7.92
295.073	7.62
295.286	7.65
295.5	9.31
295.713	8.74
295.927	8.52
296.14	8.69
296.354	7.6
296.568	8.24
296.781	8.27
296.994	8.28
297.208	8.03
297.421	8.73
297.635	8.81
297.848	8.56
298.062	9.09
298.275	9.24
298.489	9.41
298.702	10.34
298.915	10.39
299.129	10.78
299.342	10.95
299.555	11.77
299.769	10.56
299.982	10.32
300.195	10.1
300.409	9.97
300.622	9.62
300.835	9.66
301.048	10.4
301.262	10.08
301.475	9.29
301.688	8.98
301.901	9.4
302.115	10.23
302.328	11.06
302.541	11.2
302.754	10.93
302.967	12.15
303.18	11.86
303.393	10.93
303.607	11.26
303.82	11.33
304.033	11.35
304.246	10.86
304.459	10.75
304.672	10.74
304.885	10.75
305.098	10.96
305.311	10.23
305.524	10.06
305.737	10.18
305.95	9.69
306.163	9.97
306.376	10.05
306.589	9.51
306.802	8.06
307.015	7.44
307.228	7.37
307.44	7.24
307.653	7.36
307.866	8.11
308.079	8.65
308.292	8.68
308.505	8.95
308.718	8.75
308.93	8.66
309.143	9.41
309.356	9.09
309.569	9.49
309.781	9.38
309.994	9.38
310.207	8.73
310.42	8.84
310.632	8.56
310.845	8.45
311.058	9.36
311.27	9.37
311.483	9.66
311.696	10.07
311.908	9.99
312.121	9.27
312.333	9.54
312.546	9.88
312.759	9.71
312.971	10.29
313.184	9.82
313.396	9.3
313.609	8.86
313.821	8.95
314.034	9.14
314.246	8.73
314.459	9.09
314.671	8.73
314.884	9
315.096	8.35
315.309	8.71
315.521	9.66
315.733	9.75
315.946	11.28
316.158	11.39
316.371	10.88
316.583	10.87
316.795	10.39
317.008	9.69
317.22	9.27
317.432	9.54
317.644	9.42
317.857	8.07
318.069	6.74
318.281	5.08
318.494	5.6
318.706	5.15
318.918	5.7
319.13	5.58
319.342	4.93
319.555	5.06
319.767	5.21
319.979	4.76
320.191	5.31
320.403	6.43
320.615	7.3
320.827	6.54
321.039	5.75
321.252	5.84
321.464	6.96
321.676	8.72
321.888	7.93
322.1	8.23
322.312	8.34
322.524	9.75
322.736	9.11
322.948	9.5
323.16	9.34
323.372	10.19
323.584	9.73
323.796	9.26
324.007	8.63
324.219	9.72
324.431	9.93
324.643	9.9
324.855	9.61
325.067	10.54
325.279	9.41
325.491	10.57
325.702	11.33
325.914	10.77
326.126	11.73
326.338	13.49
326.55	13.46
326.761	12.31
326.973	12
327.185	12.21
327.396	12.18
327.608	12.98
327.82	12.43
328.032	12
328.243	12.35
328.455	11.42
328.666	10.04
328.878	10.02
329.09	11.84
329.301	12.14
329.513	12.05
329.725	11.41
329.936	11
330.148	11.49
330.359	12.45
330.571	13.67
330.782	13.76
330.994	14.59
331.205	15.25
331.417	14.75
331.628	14.25
331.84	14.95
332.051	14.81
332.262	15.72
332.474	15.99
332.685	15.14
332.897	15.37
333.108	15.57
333.319	15.69
333.531	15.87
333.742	15.28
333.953	16.07
334.165	15.85
334.376	16.15
334.587	16.26
334.799	15.26
335.01	14.8
335.221	14.15
335.432	14.69
335.644	13.16
335.855	12.14
336.066	13.31
336.277	12.87
336.488	11.79
336.7	11.75
336.911	11.01
337.122	11.7
337.333	12.7
337.544	12.41
337.755	11.83
337.966	11.49
338.177	11.56
338.388	11.18
338.599	11.55
338.811	12.34
339.022	12.49
339.233	12.23
339.444	12.44
339.655	11.69
339.866	12.2
340.076	12.25
340.287	13.48
340.498	13.61
340.709	13.73
340.92	13.27
341.131	12.74
341.342	13.02
341.553	13.02
341.764	12.49
341.975	13.18
342.185	12.89
342.396	12.67
342.607	12.68
342.818	12.95
343.029	13.29
343.239	13.37
343.45	13.33
343.661	13.09
343.872	13.29
344.082	13.05
344.293	12.98
344.504	13.83
344.714	14.55
344.925	14.4
345.136	13.69
345.346	11.08
345.557	11.3
345.768	11.32
345.978	11.19
346.189	11.25
346.399	11.3
346.61	10.77
346.821	10.11
347.031	9.91
347.242	10.74
347.452	11.68
347.663	13.77
347.873	13.93
348.084	14.52
348.294	13.82
348.504	13.81
348.715	14.33
348.925	14.8
349.136	15.61
349.346	15.54
349.557	15.03
349.767	15.06
349.977	14.87
350.188	14.03
350.398	13.69
350.608	14.51
350.819	14.61
351.029	14.26
351.239	14.2
351.449	12.89
351.66	12.8
351.87	12.85
352.08	11.76
352.29	12.14
352.501	12.62
352.711	12.89
352.921	12.77
353.131	12.03
353.341	11.41
353.552	10.75
353.762	10.89
353.972	11.15
354.182	10.76
354.392	11.41
354.602	10.24
354.812	10.24
355.022	10
355.232	9.94
355.442	11
355.652	11.19
355.862	11.67
356.072	11.72
356.282	11.88
356.492	12.32
356.702	12.34
356.912	13.33
357.122	13.55
357.332	13.33
357.542	12.83
357.752	12.25
357.962	12.42
358.171	12.21
358.381	12.88
358.591	12.17
358.801	11.85
359.011	11.64
359.221	11.18
359.43	11.24
359.64	11.59
359.85	12.07
360.06	12.44
360.269	13.03
360.479	13.07
360.689	12.48
360.899	12.98
361.108	12.97
361.318	12.97
361.528	13.17
361.737	13.23
361.947	12.94
362.156	12.74
362.366	12.84
362.576	12.4
362.785	12.32
362.995	12.26
363.204	11.91
363.414	11.67
363.623	11.49
363.833	11.24
364.042	11.33
364.252	11.36
364.461	10.91
364.671	10.63
364.88	10.8
365.09	11.16
365.299	11.52
365.509	12.09
365.718	11.98
365.927	12.27
366.137	12.84
366.346	12.47
366.555	12.13
366.765	12.7
366.974	12.24
367.183	11.75
367.393	10.82
367.602	10.99
367.811	11.4
368.021	11.71
368.23	11.19
368.439	10.44
368.648	10.55
368.857	11.16
369.067	10.95
369.276	11.77
369.485	12.07
369.694	12.42
369.903	11.69
370.112	10.81
370.321	10.37
370.531	10.69
370.74	10.61
370.949	10.35
371.158	10.49
371.367	10.9
371.576	10.11
371.785	10.07
371.994	10.12
372.203	10.31
372.412	10.29
372.621	10.19
372.83	10.54
373.039	10.77
373.248	11.09
373.457	10.96
373.666	10.86
373.874	11.12
374.083	10.96
374.292	11.33
374.501	11.21
374.71	11.36
374.919	11.79
375.128	11.6
375.336	11.74
375.545	11.1
375.754	10.93
375.963	10.81
376.171	10.78
376.38	10.94
376.589	10.93
376.798	10.48
377.006	10.54
377.215	10.57
377.424	9.87
377.632	9.73
377.841	9.9
378.05	10.12
378.258	9.96
378.467	10.16
378.675	9.82
378.884	9.63
379.093	10.05
379.301	9.72
379.51	9.7
379.718	10.33
379.927	10.27
380.135	10.61
380.344	9.94
380.552	10.34
380.761	9.89
380.969	9.98
381.177	9.9
381.386	9.64
381.594	9.91
381.803	9.57
382.011	9.3
382.219	9.74
382.428	9.64
382.636	10.21
382.845	10.67
383.053	10.91
383.261	10.88
383.469	10.86
383.678	11.23
383.886	11.13
384.094	11.49
384.302	11.55
384.511	11.2
384.719	11.31
384.927	11.16
385.135	10.75
385.343	10.55
385.552	10.74
385.76	10.9
385.968	10.64
386.176	10.51
386.384	10.1
386.592	10.34
386.8	10.16
387.008	9.89
387.216	9.87
387.424	9.66
387.633	9.88
387.841	9.59
388.049	9.25
388.257	9.18
388.465	9.11
388.672	9.46
388.88	9.04
389.088	9.14
389.296	9.39
389.504	9.04
389.712	8.94
389.92	8.95
390.128	8.94
390.336	9.1
390.544	9.21
390.751	9.23
390.959	9.14
391.167	9.38
391.375	9.17
391.583	8.55
391.79	8.8
391.998	8.93
392.206	8.9
392.414	9.18
392.621	9.04
392.829	9.19
393.037	9.37
393.244	9.19
393.452	8.95
393.66	8.78
393.867	9.26
394.075	9.09
394.283	8.64
394.49	8.47
394.698	8.37
394.905	8.49
395.113	8.35
395.32	8.34
395.528	8.55
395.735	8.82
395.943	9.26
396.15	8.72
396.358	9.03
396.565	9.44
396.773	9.53
396.98	9.58
397.188	9.61
397.395	9.56
397.602	9.17
397.81	8.87
398.017	8.51
398.225	8.23
398.432	8.26
398.639	7.71
398.847	7.68
399.054	7.7
399.261	7.48
399.468	7.42
399.676	7.6
399.883	7.63
400.09	7.65
400.297	8.16
400.505	8.33
400.712	8.93
400.919	9.08
401.126	9.22
401.333	9.25
401.54	9.22
401.748	9.28
401.955	9.39
402.162	9.53
402.369	9.64
402.576	9.5
402.783	9.19
402.99	8.84
403.197	8.99
403.404	8.65
403.611	8.68
403.818	8.64
404.025	8.6
404.232	8.14
404.439	8.34
404.646	8.32
404.853	8.16
405.06	8.37
405.267	8.56
405.474	8.56
405.681	8.82
405.887	8.83
406.094	8.86
406.301	8.96
406.508	9.29
406.715	9.09
406.922	8.91
407.128	8.6
407.335	8.63
407.542	8.62
407.749	8.42
407.955	8.44
408.162	8.34
408.369	8.26
408.575	8.26
408.782	8.04
408.989	8.08
409.195	8
409.402	8.28
409.609	8.11
409.815	7.81
410.022	8.1
410.228	7.93
410.435	7.98
410.642	7.96
410.848	7.7
411.055	7.85
411.261	7.89
411.468	7.99
411.674	7.93
411.881	8.18
412.087	8.35
412.294	8.18
412.5	7.92
412.706	7.58
412.913	7.84
413.119	7.87
413.326	7.71
413.532	7.75
413.738	7.63
413.945	7.68
414.151	7.54
414.357	7.81
414.564	7.65
414.77	8.02
414.976	8.03
415.182	7.81
415.389	7.92
415.595	7.82
415.801	7.56
416.007	7.72
416.214	7.6
416.42	7.43
416.626	7.24
416.832	7.46
417.038	7.24
417.244	7.34
417.45	7.55
417.657	7.53
417.863	7.7
418.069	7.9
418.275	8.03
418.481	7.98
418.687	8.02
418.893	8.09
419.099	7.95
419.305	8.15
419.511	8.18
419.717	7.95
419.923	7.92
420.129	7.71
420.335	7.55
420.541	7.45
420.746	7.4
420.952	7.54
421.158	7.48
421.364	7.46
421.57	7.33
421.776	7.37
421.982	7.41
422.187	7.37
422.393	7.4
422.599	7.35
422.805	7.29
423.01	7.37
423.216	7.26
423.422	7.1
423.628	7.04
423.833	6.99
424.039	6.99
424.245	7
424.45	7.08
424.656	7.13
424.862	7.27
425.067	7.16
425.273	7.11
425.478	7.13
425.684	7.32
425.889	7.53
426.095	7.53
426.301	7.44
426.506	7.5
426.712	7.5
426.917	7.55
427.123	7.5
427.328	7.53
427.533	7.63
427.739	7.74
427.944	7.55
428.15	7.34
428.355	7.09
428.561	7
428.766	6.81
428.971	6.61
429.177	6.51
429.382	6.45
429.587	6.73
429.793	6.58
429.998	6.41
430.203	6.25
430.408	6.11
430.614	6.4
430.819	6.24
431.024	6.33
431.229	6.28
431.434	6.29
431.64	6.31
431.845	6.31
432.05	6.42
432.255	6.33
432.46	6.55
432.665	6.74
432.87	6.79
433.076	6.95
433.281	6.89
433.486	7.1
433.691	7.06
433.896	6.94
434.101	6.77
434.306	6.63
434.511	6.67
434.716	6.64
434.921	6.62
435.126	6.55
435.331	6.56
435.535	6.67
435.74	6.47
435.945	6.47
436.15	6.42
436.355	6.74
436.56	6.84
436.765	6.88
436.97	6.8
437.174	6.69
437.379	6.59
437.584	6.65
437.789	6.52
437.993	6.51
438.198	6.43
438.403	6.5
438.608	6.32
438.812	6.21
439.017	6.14
439.222	6.29
439.426	6.33
439.631	6.41
439.836	6.41
440.04	6.47
440.245	6.52
440.45	6.58
440.654	6.67
440.859	6.69
441.063	6.93
441.268	7.08
441.472	6.84
441.677	6.79
441.881	6.84
442.086	6.59
442.29	6.52
442.495	6.51
442.699	6.58
442.904	6.52
443.108	6.42
443.312	6.31
443.517	6.04
443.721	6.35
443.925	6.46
444.13	6.36
444.334	6.67
444.538	6.83
444.743	6.83
444.947	6.81
445.151	6.78
445.356	6.78
445.56	6.79
445.764	6.86
445.968	6.64
446.173	6.7
446.377	6.68
446.581	6.57
446.785	6.48
446.989	6.49
447.193	6.37
447.398	6.2
447.602	6.12
447.806	6.03
448.01	5.97
448.214	6.04
448.418	5.82
448.622	5.79
448.826	5.78
449.03	5.84
449.234	5.66
449.438	5.73
449.642	5.86
449.846	5.9
450.05	5.87
450.254	5.99
450.458	6.06
450.662	6.26
450.866	6.18
451.069	6.17
451.273	5.98
451.477	6.02
451.681	5.93
451.885	5.82
452.089	5.93
452.292	5.92
452.496	5.73
452.7	5.59
452.904	5.39
453.107	5.46
453.311	5.7
453.515	5.76
453.719	5.92
453.922	5.96
454.126	5.92
454.33	5.81
454.533	5.75
454.737	5.73
454.94	5.77
455.144	5.85
455.348	5.91
455.551	5.69
455.755	5.6
455.958	5.56
456.162	5.54
456.365	5.66
456.569	5.72
456.772	5.81
456.976	6.05
457.179	6.17
457.383	6.24
457.586	6.24
457.79	6.29
457.993	6.23
458.196	6.14
458.4	6.28
458.603	6.38
458.807	6.3
459.01	6.33
459.213	6.33
459.417	6.26
459.62	6.19
459.823	6.2
460.026	6.1
460.23	6.2
460.433	6.26
460.636	6.18
460.839	6.13
461.042	6.16
461.246	6.19
461.449	6.11
461.652	6.06
461.855	6.13
462.058	6.08
462.261	6.32
462.464	6.28
462.668	6.25
462.871	6.32
463.074	6.28
463.277	6.15
463.48	6.11
463.683	6.27
463.886	6.3
464.089	6.23
464.292	6.21
464.495	6.14
464.698	6.1
464.901	6.05
465.104	6.08
465.306	6.17
465.509	6.36
465.712	6.37
465.915	6.08
466.118	6.17
466.321	6.09
466.524	6.08
466.726	5.91
466.929	6.01
467.132	5.95
467.335	5.75
467.538	5.51
467.74	5.4
467.943	5.31
468.146	5.4
468.348	5.34
468.551	5.38
468.754	5.38
468.956	5.57
469.159	5.44
469.362	5.48
469.564	5.54
469.767	5.86
469.969	5.8
470.172	5.9
470.375	5.83
470.577	5.84
470.78	5.88
470.982	5.93
471.185	5.88
471.387	5.8
471.59	5.96
471.792	6.07
471.995	6.05
472.197	6.15
472.399	6.23
472.602	6.32
472.804	6.09
473.007	6.05
473.209	5.74
473.411	5.71
473.614	5.8
473.816	5.82
474.018	5.86
474.22	5.84
474.423	5.79
474.625	5.56
474.827	5.64
475.03	5.84
475.232	5.88
475.434	6.29
475.636	6.3
475.838	6.39
476.04	6.29
476.243	6.1
476.445	6.09
476.647	6.11
476.849	6.14
477.051	6.15
477.253	6.21
477.455	6.24
477.657	6.17
477.859	6.05
478.061	5.95
478.263	5.92
478.465	5.9
478.667	5.81
478.869	5.88
479.071	5.86
479.273	5.7
479.475	5.65
479.677	5.66
479.879	5.67
480.081	5.71
480.283	5.69
480.485	5.64
480.686	5.77
480.888	5.84
481.09	5.8
481.292	5.88
481.494	5.97
481.695	6.03
481.897	6
482.099	5.9
482.301	5.97
482.502	6.02
482.704	6.01
482.906	5.98
483.107	6.05
483.309	6.05
483.511	6.01
483.712	5.93
483.914	5.93
484.115	5.89
484.317	5.92
484.519	5.93
484.72	5.95
484.922	5.95
485.123	5.98
485.325	5.9
485.526	5.85
485.728	5.89
485.929	5.95
486.131	5.88
486.332	6.01
486.534	6.03
486.735	5.93
486.936	5.89
487.138	5.91
487.339	5.87
487.541	5.96
487.742	5.97
487.943	5.98
488.144	5.94
488.346	5.97
488.547	5.95
488.748	5.99
488.95	6.06
489.151	6.06
489.352	6.06
489.553	6.15
489.755	6.05
489.956	6.15
490.157	6.09
490.358	6.15
490.559	6.23
490.76	6.2
490.961	6.14
491.163	6.13
491.364	6.17
491.565	6.15
491.766	6.04
491.967	6.08
492.168	6.01
492.369	6.05
492.57	6.04
492.771	5.98
492.972	5.92
493.173	5.9
493.374	5.89
493.575	5.85
493.776	5.87
493.976	5.91
494.177	5.83
494.378	5.92
494.579	5.76
494.78	5.72
494.981	5.63
495.182	5.66
495.382	5.6
495.583	5.61
495.784	5.56
495.985	5.68
496.185	5.63
496.386	5.79
496.587	5.76
496.788	5.81
496.988	5.98
497.189	6.04
497.39	6.22
497.59	6.31
497.791	6.37
497.992	6.36
498.192	6.34
498.393	6.44
498.593	6.42
498.794	6.4
498.994	6.46
499.195	6.4
499.395	6.4
499.596	6.23
499.796	6.13
499.997	6.07
500.197	6.09
500.398	6.12
500.598	6.01
500.799	6.12
500.999	6.09
501.199	6.14
501.4	6.09
501.6	6.09
501.801	6.08
502.001	6.07
502.201	6.05
502.402	6.14
502.602	6.03
502.802	6.13
503.002	6.08
503.203	6.06
503.403	6
503.603	6.11
503.803	6.07
504.003	6.2
504.204	6.39
504.404	6.2
504.604	6.2
504.804	6.32
505.004	6.33
505.204	6.37
505.404	6.38
505.604	6.49
505.804	6.52
506.005	6.67
506.205	6.64
506.405	6.62
506.605	6.89
506.805	6.9
507.005	7.02
507.204	7.09
507.404	7.05
507.604	7.15
507.804	7.2
508.004	7.19
508.204	7.26
508.404	7.29
508.604	7.34
508.804	7.37
509.003	7.52
509.203	7.43
509.403	7.45
509.603	7.41
509.803	7.5
510.002	7.39
510.202	7.32
510.402	7.3
510.602	7.32
510.801	7.33
511.001	7.34
511.201	7.19
511.4	7.21
511.6	7.23
511.8	7.32
511.999	7.26
512.199	7.53
512.398	7.64
512.598	7.73
512.797	7.87
512.997	7.89
513.197	7.96
513.396	8.13
513.596	8.19
513.795	8.04
513.994	8.28
514.194	8.34
514.393	8.34
514.593	8.44
514.792	8.31
514.992	8.19
515.191	8.38
515.39	8.33
515.59	8.41
515.789	8.42
515.988	8.69
516.188	8.45
516.387	8.44
516.586	8.44
516.786	8.29
516.985	8.38
517.184	8.34
517.383	8.26
517.582	8.32
517.782	8.33
517.981	8.44
518.18	8.36
518.379	8.52
518.578	8.53
518.777	8.51
518.976	8.67
519.176	8.84
519.375	8.85
519.574	8.83
519.773	8.94
519.972	9.01
520.171	8.97
520.37	9.05
520.569	9
520.768	9.14
520.967	9.12
521.166	9.18
521.365	9.2
521.564	9.34
521.762	9.37
521.961	9.47
522.16	9.38
522.359	9.53
522.558	9.76
522.757	9.86
522.956	9.8
523.154	9.81
523.353	9.94
523.552	9.89
523.751	9.94
523.949	10.02
524.148	9.93
524.347	10.16
524.546	10.15
524.744	10.07
524.943	10.1
525.142	10.19
525.34	10.34
525.539	10.23
525.737	10.27
525.936	10.35
526.135	10.49
526.333	10.53
526.532	10.53
526.73	10.58
526.929	10.57
527.127	10.6
527.326	10.63
527.524	10.69
527.723	10.71
527.921	10.8
528.12	10.86
528.318	10.87
528.516	10.87
528.715	10.88
528.913	10.93
529.112	11.02
529.31	11.08
529.508	11.13
529.707	11.14
529.905	11.25
530.103	11.26
530.301	11.25
530.5	11.24
530.698	11.3
530.896	11.39
531.094	11.36
531.293	11.36
531.491	11.45
531.689	11.56
531.887	11.64
532.085	11.64
532.283	11.62
532.481	11.67
532.68	11.75
532.878	11.86
533.076	11.88
533.274	11.98
533.472	11.98
533.67	11.99
533.868	11.92
534.066	11.99
534.264	12.01
534.462	12.12
534.66	12.26
534.858	12.29
535.056	12.25
535.253	12.29
535.451	12.37
535.649	12.55
535.847	12.63
536.045	12.79
536.243	12.84
536.441	12.96
536.638	13.01
536.836	13.03
537.034	13.11
537.232	13.29
537.43	13.42
537.627	13.34
537.825	13.29
538.023	13.18
538.22	13.25
538.418	13.31
538.616	13.29
538.813	13.4
539.011	13.46
539.209	13.53
539.406	13.61
539.604	13.67
539.801	13.94
539.999	14.09
540.196	14.27
540.394	14.39
540.591	14.39
540.789	14.45
540.986	14.44
541.184	14.43
541.381	14.46
541.579	14.54
541.776	14.56
541.974	14.54
542.171	14.55
542.368	14.61
542.566	14.65
542.763	14.59
542.96	14.65
543.158	14.71
543.355	14.8
543.552	14.88
543.75	14.89
543.947	14.95
544.144	14.9
544.341	15.04
544.539	15.04
544.736	15.09
544.933	15.25
545.13	15.36
545.327	15.4
545.524	15.45
545.722	15.53
545.919	15.56
546.116	15.6
546.313	15.8
546.51	15.84
546.707	15.87
546.904	15.81
547.101	16.04
547.298	16.07
547.495	16.19
547.692	16.29
547.889	16.31
548.086	16.48
548.283	16.6
548.48	16.76
548.677	16.75
548.874	16.93
549.07	17.18
549.267	17.14
549.464	17.39
549.661	17.35
549.858	17.7
550.055	17.64
550.251	17.64
550.448	17.63
550.645	17.72
550.842	17.87
551.038	17.88
551.235	17.97
551.432	18.07
551.628	18.02
551.825	18.16
552.022	17.84
552.218	18.13
552.415	18.27
552.612	18.33
552.808	18.32
553.005	18.38
553.201	18.47
553.398	18.46
553.594	18.37
553.791	18.5
553.987	18.75
554.184	18.79
554.38	18.79
554.577	18.79
554.773	18.89
554.97	18.95
555.166	19.01
555.362	19.07
555.559	19.19
555.755	19.35
555.952	19.35
556.148	19.32
556.344	19.65
556.541	19.73
556.737	19.72
556.933	19.81
557.129	19.74
557.326	19.76
557.522	19.69
557.718	19.55
557.914	19.68
558.11	19.61
558.307	19.68
558.503	19.61
558.699	19.75
558.895	19.82
559.091	19.76
559.287	20.06
559.483	20.19
559.679	20.44
559.876	20.67
560.072	20.74
560.268	21.05
560.464	20.93
560.66	21.12
560.856	21.15
561.052	21.15
561.247	21.36
561.443	21.31
561.639	21.39
561.835	21.51
562.031	21.57
562.227	21.61
562.423	21.76
562.619	22.2
562.815	22.3
563.01	22.55
563.206	22.8
563.402	22.88
563.598	23.03
563.793	23.11
563.989	23.18
564.185	23.29
564.381	23.53
564.576	23.53
564.772	23.55
564.968	23.51
565.163	23.52
565.359	23.6
565.555	23.72
565.75	23.8
565.946	23.95
566.141	23.88
566.337	23.94
566.532	23.93
566.728	23.96
566.923	23.86
567.119	24.04
567.314	24.08
567.51	24.21
567.705	24.11
567.901	24.11
568.096	24.21
568.292	24.27
568.487	24.23
568.682	24.3
568.878	24.43
569.073	24.64
569.268	24.59
569.464	24.6
569.659	24.63
569.854	24.86
570.05	24.88
570.245	24.84
570.44	24.95
570.635	25.19
570.831	25.21
571.026	25.22
571.221	25.16
571.416	25.24
571.611	25.38
571.806	25.41
572.002	25.48
572.197	25.58
572.392	25.74
572.587	25.91
572.782	25.83
572.977	25.91
573.172	25.96
573.367	25.99
573.562	26.18
573.757	26.19
573.952	26.23
574.147	26.22
574.342	26.33
574.537	26.39
574.732	26.37
574.927	26.33
575.121	26.35
575.316	26.52
575.511	26.62
575.706	26.47
575.901	26.59
576.096	26.66
576.29	26.74
576.485	26.69
576.68	26.45
576.875	26.59
577.069	26.82
577.264	26.82
577.459	26.78
577.654	26.85
577.848	27.02
578.043	27.2
578.238	27.21
578.432	27.01
578.627	27.12
578.821	27.4
579.016	27.17
579.21	27.24
579.405	27.43
579.6	27.39
579.794	27.37
579.989	27.23
580.183	27.19
580.378	27.29
580.572	27.54
580.766	27.69
580.961	27.52
581.155	27.62
581.35	27.62
581.544	27.74
581.738	27.58
581.933	27.75
582.127	28.09
582.321	28.06
582.516	28.19
582.71	28.39
582.904	28.45
583.099	28.7
583.293	28.92
583.487	28.93
583.681	29.19
583.875	29.58
584.07	29.5
584.264	29.37
584.458	29.46
584.652	29.38
584.846	29.34
585.04	29.37
585.234	29.48
585.428	29.51
585.623	29.6
585.817	29.25
586.011	29.11
586.205	29.14
586.399	29.27
586.593	29.03
586.787	29.16
586.981	29.15
587.174	29
587.368	29.08
587.562	29.11
587.756	28.97
587.95	28.96
588.144	29.1
588.338	29.24
588.532	29.11
588.725	29.19
588.919	29.15
589.113	29.45
589.307	29.59
589.501	29.54
589.694	29.59
589.888	29.84
590.082	30.05
590.275	29.97
590.469	29.91
590.663	30.14
590.856	30.27
591.05	30.26
591.244	30.25
591.437	30.31
591.631	30.48
591.824	30.44
592.018	30.05
592.212	30.07
592.405	30.31
592.599	30.59
592.792	30.77
592.986	30.9
593.179	30.82
593.372	30.88
593.566	30.8
593.759	30.7
593.953	30.88
594.146	31.16
594.339	31.29
594.533	31.29
594.726	31.02
594.92	30.63
595.113	30.68
595.306	30.89
595.499	30.75
595.693	30.98
595.886	31.13
596.079	31.21
596.272	31.44
596.466	31.45
596.659	31.37
596.852	31.52
597.045	31.83
597.238	31.72
597.431	31.73
597.624	31.87
597.818	31.87
598.011	31.81
598.204	31.78
598.397	31.77
598.59	31.74
598.783	31.85
598.976	31.71
599.169	31.77
599.362	31.85
599.555	31.8
599.748	31.89
599.941	31.74
600.134	31.76
600.326	31.63
600.519	31.69
600.712	31.61
600.905	31.74
601.098	31.93
601.291	31.96
601.483	31.91
601.676	32.23
601.869	32.12
602.062	32.31
602.255	32.44
602.447	32.64
602.64	32.6
602.833	32.67
603.025	32.74
603.218	32.66
603.411	32.5
603.603	32.55
603.796	32.49
603.989	32.5
604.181	32.64
604.374	32.61
604.566	32.62
604.759	32.45
604.951	32.54
605.144	32.48
605.336	32.54
605.529	32.6
605.721	32.64
605.914	32.65
606.106	32.57
606.299	32.41
606.491	32.4
606.683	32.15
606.876	32.41
607.068	32.43
607.26	32.3
607.453	32.31
607.645	32.45
607.837	32.52
608.03	32.51
608.222	32.67
608.414	32.83
608.606	32.88
608.799	33.28
608.991	33.37
609.183	33.42
609.375	33.53
609.567	33.74
609.759	33.64
609.952	33.81
610.144	33.83
610.336	33.95
610.528	33.99
610.72	34.04
610.912	34.02
611.104	34.09
611.296	33.94
611.488	34.02
611.68	33.92
611.872	34.02
612.064	33.94
612.256	33.87
612.448	33.86
612.64	33.76
612.832	33.9
613.023	33.79
613.215	33.58
613.407	33.61
613.599	33.57
613.791	33.63
613.983	33.73
614.174	33.49
614.366	33.57
614.558	33.26
614.75	33.19
614.941	33.07
615.133	33.12
615.325	33.06
615.516	33.1
615.708	33.19
615.9	33.16
616.091	33.08
616.283	33.36
616.475	33.63
616.666	34.05
616.858	34.27
617.049	34.01
617.241	34.09
617.432	34.07
617.624	34.38
617.815	34.22
618.007	34.04
618.198	34.06
618.39	33.89
618.581	33.99
618.773	33.91
618.964	33.68
619.155	33.81
619.347	33.47
619.538	33.69
619.729	33.62
619.921	33.73
620.112	34.07
620.303	34.1
620.494	34.21
620.686	33.78
620.877	33.57
621.068	33.61
621.259	33.74
621.451	34.34
621.642	34.21
621.833	34.24
622.024	34.4
622.215	33.95
622.406	33.94
622.597	34.02
622.788	34.04
622.98	33.76
623.171	34
623.362	34.2
623.553	34.03
623.744	34.2
623.935	33.93
624.126	34.06
624.317	34.45
624.508	34.3
624.698	34.19
624.889	34.17
625.08	34.76
625.271	34.82
625.462	34.79
625.653	34.56
625.844	34.54
626.034	34.78
626.225	34.4
626.416	34.48
626.607	34.87
626.798	34.97
626.988	35.06
627.179	34.93
627.37	34.9
627.56	34.74
627.751	34.79
627.942	35.03
628.132	34.99
628.323	35.1
628.514	35.19
628.704	35
628.895	34.95
629.085	35.09
629.276	35.21
629.466	35.2
629.657	35.38
629.847	35.62
630.038	35.5
630.228	35.74
630.419	35.84
630.609	35.78
630.8	35.81
630.99	36.12
631.181	35.83
631.371	35.6
631.561	35.62
631.752	35.35
631.942	35.26
632.132	35.16
632.323	34.89
632.513	34.84
632.703	34.84
632.893	34.62
633.084	34.62
633.274	35.07
633.464	35.38
633.654	35.24
633.844	35.47
634.034	35.66
634.225	35.6
634.415	35.85
634.605	35.53
634.795	35.58
634.985	35.59
635.175	35.31
635.365	35.21
635.555	35.15
635.745	35.21
635.935	35.23
636.125	35.17
636.315	35.37
636.505	35.07
636.695	35.5
636.885	35.35
637.075	35.56
637.265	35.8
637.455	35.76
637.644	35.68
637.834	35.62
638.024	35.7
638.214	35.73
638.404	35.82
638.593	35.9
638.783	36.02
638.973	36.26
639.163	36.45
639.352	36.51
639.542	36.18
639.732	36.34
639.921	36.47
640.111	36.47
640.301	36.54
640.49	36.56
640.68	36.26
640.87	36.27
641.059	36.23
641.249	36.03
641.438	35.88
641.628	36.15
641.817	35.98
642.007	36.07
642.196	36.44
642.386	36.34
642.575	36.3
642.764	36.7
642.954	36.4
643.143	36.44
643.333	36.66
643.522	36.88
643.711	37.21
643.901	37.29
644.09	37.45
644.279	37.2
644.469	37.21
644.658	37.09
644.847	37.1
645.036	37.2
645.226	37.17
645.415	36.69
645.604	36.79
645.793	36.78
645.982	36.7
646.171	36.52
646.361	36.78
646.55	36.65
646.739	36.95
646.928	37.28
647.117	37.61
647.306	37.42
647.495	37.45
647.684	37.27
647.873	37.29
648.062	37.56
648.251	37.55
648.44	36.98
648.629	37.04
648.818	36.99
649.007	36.76
649.196	36.5
649.384	36.51
649.573	36.97
649.762	37.23
649.951	37.29
650.14	37.4
650.328	37.41
650.517	37.14
650.706	37
650.895	36.64
651.083	36.41
651.272	36.33
651.461	36.55
651.65	36.45
651.838	36.25
652.027	35.95
652.216	35.59
652.404	35.57
652.593	36.17
652.781	36.23
652.97	36.28
653.158	36.21
653.347	36.66
653.535	36.66
653.724	36.79
653.912	36.68
654.101	37.12
654.289	37.05
654.478	37.11
654.666	36.59
654.855	36.78
655.043	36.84
655.231	37.06
655.42	36.66
655.608	36.72
655.796	36.63
655.985	36.96
656.173	36.85
656.361	37.32
656.55	37.57
656.738	38.04
656.926	37.68
657.114	37.96
657.302	37.78
657.491	37.7
657.679	37.67
657.867	37.55
658.055	37.48
658.243	37.55
658.431	37.38
658.619	37.16
658.807	37
658.996	37.53
659.184	37.37
659.372	37.53
659.56	37.54
659.748	37.62
659.936	37.73
660.124	37.57
660.311	37.44
660.499	37.31
660.687	37.46
660.875	38
661.063	37.76
661.251	37.59
661.439	37.45
661.627	37.82
661.814	37.59
662.002	37.44
662.19	37.81
662.378	37.94
662.565	38.04
662.753	38.07
662.941	37.73
663.129	37.44
663.316	37.82
663.504	37.78
663.692	37.85
663.879	38.01
664.067	38.4
664.254	38.25
664.442	38.24
664.63	38.3
664.817	38.17
665.005	38.22
665.192	38.45
665.38	38.08
665.567	39
665.755	38.93
665.942	39.05
666.13	38.85
666.317	38.74
666.504	38.51
666.692	38.2
666.879	38.35
667.067	38.09
667.254	38.21
667.441	38.36
667.629	37.81
667.816	37.7
668.003	37.34
668.19	37.67
668.378	37.67
668.565	37.68
668.752	38.22
668.939	38.02
669.127	38.83
669.314	39.06
669.501	38.93
669.688	38.61
669.875	38.79
670.062	38.93
670.249	38.42
670.436	38.36
670.623	38.42
670.81	38.08
670.997	38.19
671.184	37.43
671.371	37.76
671.558	38.27
671.745	38.63
671.932	38.44
672.119	38.24
672.306	38.6
672.493	38.89
672.68	39.28
672.867	39.94
673.054	39.74
673.24	40.1
673.427	39.83
673.614	39.53
673.801	39.43
673.988	39.52
674.174	39.74
674.361	39.55
674.548	39.35
674.734	39.12
674.921	38.72
675.108	39.07
675.294	38.92
675.481	38.84
675.668	39.08
675.854	39.43
676.041	39.54
676.227	39.57
676.414	39.68
676.601	39.53
676.787	39.59
676.974	39.33
677.16	39.49
677.347	39.27
677.533	39.33
677.719	38.72
677.906	38.62
678.092	38.73
678.279	38.87
678.465	38.7
678.651	38.88
678.838	38.39
679.024	38.58
679.21	38.44
679.397	38.54
679.583	38.74
679.769	38.85
679.955	38.75
680.142	38.69
680.328	38.92
680.514	38.85
680.7	38.39
680.886	39.01
681.073	38.68
681.259	38.59
681.445	38.58
681.631	38.24
681.817	38.26
682.003	38.29
682.189	38.04
682.375	37.59
682.561	37.75
682.747	38.26
682.933	37.56
683.119	38.13
683.305	38.31
683.491	38.14
683.677	38.32
683.863	38.75
684.049	38.47
684.235	38.46
684.42	38.46
684.606	38.62
684.792	38.77
684.978	39.55
685.164	39.36
685.349	39.59
685.535	39.91
685.721	39.73
685.907	39.67
686.092	39.78
686.278	40.23
686.464	40.46
686.649	40.42
686.835	40.3
687.021	39.92
687.206	39.85
687.392	39.57
687.577	39.48
687.763	39.38
687.948	39.27
688.134	39.47
688.319	39.23
688.505	39.33
688.69	39.32
688.876	39.22
689.061	39.2
689.247	39.18
689.432	38.86
689.618	38.49
689.803	38.94
689.988	39.04
690.174	39.15
690.359	38.84
690.544	38.34
690.73	38.15
690.915	38.35
691.1	38.34
691.285	38.26
691.471	38.41
691.656	38.82
691.841	38.68
692.026	38.29
692.211	38.57
692.396	38.79
692.582	38.83
692.767	39.08
692.952	38.7
693.137	38.96
693.322	39.31
693.507	39.49
693.692	39.25
693.877	39.17
694.062	39.46
694.247	38.97
694.432	39.16
694.617	39.78
694.802	39.87
694.987	39.86
695.172	39.6
695.357	39.64
695.541	39.68
695.726	40.38
695.911	40.22
696.096	39.95
696.281	39.67
696.466	39.74
696.65	39.57
696.835	39.11
697.02	39.32
697.204	39.87
697.389	39.99
697.574	40.06
697.759	39.18
697.943	39.44
698.128	39.52
698.312	39.73
698.497	39.48
698.682	39.35
698.866	39.89
699.051	40.12
699.235	39.71
699.42	39.54
699.604	39.52
699.789	39.88
699.973	39.66
700.158	39.73
700.342	39.47
700.527	39.59
700.711	39.39
700.895	39.06
701.08	38.85
701.264	39.04
701.448	39.34
701.633	39
701.817	39.13
702.001	39.23
702.186	39.8
702.37	40.07
702.554	39.94
702.738	40.12
702.923	40.09
703.107	40.15
703.291	40.17
703.475	39.55
703.659	40.15
703.843	39.86
704.027	40.03
704.212	39.12
704.396	39.93
704.58	40.14
704.764	40.03
704.948	39.76
705.132	39.89
705.316	39.08
705.5	39.4
705.684	38.94
705.868	39.05
706.052	39.11
706.235	39.24
706.419	38.09
706.603	38.82
706.787	38.99
706.971	39.45
707.155	38.94
707.339	39.59
707.522	39.65
707.706	39.87
707.89	39.71
708.074	39.58
708.257	39.43
708.441	40.27
708.625	39.71
708.808	39.79
708.992	39.59
709.176	39.51
709.359	39.8
709.543	39.34
709.727	39.61
709.91	40.1
710.094	40.14
710.277	40.48
710.461	40.1
710.644	39.79
710.828	39.67
711.011	39.86
711.195	40.08
711.378	40.08
711.562	40.52
711.745	39.77
711.928	39.41
712.112	38.95
712.295	39.01
712.478	38.81
712.662	39.45
712.845	39.34
713.028	39.24
713.212	39.06
713.395	38.96
713.578	38.58
713.761	39.45
713.945	39.28
714.128	39.87
714.311	39.94
714.494	40.15
714.677	39.27
714.86	39.75
715.043	39.77
715.227	40.17
715.41	40
715.593	40.56
715.776	40.29
715.959	40.29
716.142	40.06
716.325	40.09
716.508	40.59
716.691	41.58
716.874	41.29
717.057	41.09
717.239	41.23
717.422	41.24
717.605	41.88
717.788	41.72
717.971	42.29
718.154	42.71
718.337	42.09
718.519	41.29
718.702	41.21
718.885	41.36
719.068	41.49
719.25	41.79
719.433	43.01
719.616	42.16
719.798	41.61
719.981	42.4
720.164	42.14
720.346	43.6
720.529	42.92
720.712	41.07
720.894	41.19
721.077	40.88
721.259	40.78
721.442	39.63
721.624	39.36
721.807	40.02
721.989	38.89
722.172	38.65
722.354	37.53
722.537	38.37
722.719	39.86
722.901	40.42
723.084	41.13
723.266	40.46
723.448	40.57
723.631	41.69
723.813	41.1
723.995	41.86
724.178	42.24
724.36	42.41
724.542	42.13
724.724	41.54
724.907	40.92
725.089	40.85
725.271	40.93
725.453	40.41
725.635	38.9
725.817	40.12
725.999	39.42
726.181	38.89
726.364	39.54
726.546	40.15
726.728	41.37
726.91	41.74
727.092	42.23
727.274	42.15
727.456	42.03
727.638	42.47
727.819	41.6
728.001	41.67
728.183	41.86
728.365	41.89
728.547	41.99
728.729	41.83
728.911	42
729.093	40.82
729.274	41.1
729.456	41.53
729.638	41.09
729.82	41.3
730.001	41.12
730.183	40.83
730.365	40.63
730.546	39.67
730.728	38.66
730.91	38.72
731.091	39.24
731.273	38.99
731.455	38.27
731.636	38.01
731.818	37.58
731.999	37.45
732.181	37.51
732.362	37.04
732.544	37.43
732.725	37.83
732.907	38.01
733.088	38.13
733.27	38.93
733.451	39.37
733.633	40.43
733.814	41.35
733.995	41.63
734.177	42.01
734.358	43.08
734.539	42.93
734.721	43.29
734.902	42.94
735.083	42.85
735.264	41.87
735.446	42.13
735.627	42.26
735.808	41.51
735.989	41.41
736.17	41.7
736.351	40.69
736.533	41.45
736.714	40.81
736.895	40.1
737.076	40.16
737.257	40.23
737.438	39.74
737.619	38.95
737.8	39.04
737.981	39.18
738.162	38.98
738.343	39.27
738.524	39.76
738.705	40.72
738.886	41.43
739.067	41.23
739.247	41.17
739.428	41.25
739.609	40.75
739.79	40.72
739.971	40.48
740.151	39.94
740.332	40.01
740.513	39.86
740.694	38.48
740.874	38.41
741.055	39.17
741.236	39.95
741.417	39.9
741.597	40.42
741.778	39.57
741.958	39.32
742.139	39.57
742.32	39.14
742.5	38.47
742.681	40.16
742.861	39.84
743.042	39.19
743.222	38.42
743.403	39.25
743.583	39.69
743.764	41.36
743.944	42.34
744.124	42.29
744.305	42.82
744.485	43.47
744.666	42.41
744.846	41.65
745.026	42.01
745.207	42.15
745.387	41.48
745.567	41.64
745.747	40.87
745.928	39.96
746.108	39.79
746.288	39.85
746.468	39.98
746.648	39.87
746.829	40.71
747.009	39.94
747.189	40.45
747.369	41.4
747.549	41.06
747.729	41.6
747.909	42.42
748.089	43.08
748.269	42.05
748.449	42.27
748.629	43.03
748.809	43.74
748.989	44.16
749.169	43.4
749.349	42.13
749.529	42.46
749.709	42.72
749.889	42.45
750.068	42.33
750.248	42.83
750.428	42.17
750.608	42.1
750.788	41.48
750.967	42.06
751.147	42.69
751.327	42.98
751.507	42.26
751.686	41.08
751.866	40.8
752.046	40.47
752.225	41.62
752.405	42.28
752.585	41.1
752.764	40.45
752.944	39.79
753.123	40.43
753.303	41.56
753.482	41.43
753.662	42.4
753.841	42.41
754.021	42.54
754.2	41.46
754.38	40.9
754.559	41.96
754.739	41.6
754.918	41.07
755.097	40.2
755.277	39.27
755.456	39.05
755.635	38.28
755.815	38.23
755.994	38.72
756.173	38.46
756.352	38.48
756.532	38.63
756.711	39.85
756.89	40.87
757.069	40.48
757.248	39.68
757.427	39.46
757.607	39.65
757.786	40.55
757.965	39.66
758.144	39.21
758.323	38.9
758.502	37.3
758.681	37.24
758.86	36.5
759.039	37.07
759.218	37.89
759.397	38.55
759.576	38.4
759.755	36.66
759.934	36.51
760.113	36.47
760.291	37.23
760.47	37.9
760.649	37.96
760.828	37.57
761.007	37.64
761.186	37.68
761.364	37.53
761.543	38.29
761.722	39.46
761.901	39.45
762.079	40.31
762.258	39.91
762.437	40.59
762.615	40.46
762.794	41.81
762.972	42.07
763.151	41.48
763.33	41.4
763.508	41.33
763.687	41.33
763.865	42.36
764.044	42
764.222	41.7
764.401	41.8
764.579	41.89
764.758	40.71
764.936	40.96
765.114	41.64
765.293	41.57
765.471	41.09
765.65	40.84
765.828	40.23
766.006	40.84
766.184	41.18
766.363	41.08
766.541	41.35
766.719	42.47
766.898	41.84
767.076	41.49
767.254	41.62
767.432	42.06
767.61	42.24
767.788	42.6
767.967	42.62
768.145	42.13
768.323	41.12
768.501	40.68
768.679	39.58
768.857	40.11
769.035	39.96
769.213	40.61
769.391	41.27
769.569	41.12
769.747	40.65
769.925	39.61
770.103	39.15
770.281	39.91
770.459	39.05
770.636	39.47
770.814	38.97
770.992	38.52
771.17	38.76
771.348	37.61
771.525	37.44
771.703	38.38
771.881	39.06
772.059	40.14
772.236	38.83
772.414	39.69
772.592	40.47
772.769	38.97
772.947	39.5
773.125	40.34
773.302	41.16
773.48	41.45
773.657	40.22
773.835	39.78
774.013	40.76
774.19	42.26
774.368	41.98
774.545	40.25
774.723	40.71
774.9	41.46
775.077	39.52
775.255	37.86
775.432	37.76
775.61	37.76
775.787	36.55
775.964	34.33
776.142	35.96
776.319	36.25
776.496	36.81
776.674	38.1
776.851	38.16
777.028	38.91
777.205	40.98
777.382	40.77
777.56	41.23
777.737	42.23
777.914	43.1
778.091	42.82
778.268	43.42
778.445	44.59
778.622	42.94
778.8	44.34
778.977	42.95
779.154	47.58
779.331	49
779.508	49.3
779.685	50.21
779.862	50
780.038	49.49
780.215	48.55
780.392	47.57
780.569	49.29
780.746	46.46
780.923	46.09
781.1	39.78
781.277	38.61
781.453	37.2
781.63	35.96
781.807	37.51
781.984	36.69
782.16	37.8
782.337	39.24
782.514	38.35
782.691	40.8
782.867	41.4
783.044	41.41
783.221	40.56
783.397	41.1
783.574	41.55
783.75	40.16
783.927	41.6
784.103	40.51
784.28	38.96
784.456	38.88
784.633	37.14
784.809	37.18
784.986	37.68
785.162	39.26
785.339	39.8
785.515	40.39
785.692	40.39
785.868	38.67
786.044	37.04
786.221	37.17
786.397	37.14
786.573	37.63
786.749	39.1
786.926	38.26
787.102	38.55
787.278	39.42
787.454	40.51
787.631	40.97
787.807	41.86
787.983	43.26
788.159	42.82
788.335	43.35
788.511	43.78
788.687	44.56
788.863	45.03
789.039	45.7
789.216	43.2
789.392	43.26
789.568	42.9
789.744	43.49
789.919	44.33
790.095	44.43
790.271	43.88
790.447	42.22
790.623	40.04
790.799	40.99
790.975	38.64
791.151	40.29
791.327	40.28
791.502	39.71
791.678	39.5
791.854	39.67
792.03	41.27
792.205	42.04
792.381	44.2
792.557	44.76
792.733	43.34
792.908	44.18
793.084	43.43
793.259	41.78
793.435	42.54
793.611	41.79
793.786	39.83
793.962	36.54
794.137	37.08
794.313	35.06
794.488	36.34
794.664	36.68
794.839	37.64
795.015	38.21
795.19	39.64
795.366	40.95
795.541	42.19
795.716	42.69
795.892	43.66
796.067	42.44
796.242	42.73
796.418	43.39
796.593	43.03
796.768	41.99
796.944	41.71
797.119	39.86
797.294	39.34
797.469	39.79
797.644	40.81
797.82	42.09
797.995	42.33
798.17	43.31
798.345	41.52
798.52	42.64
798.695	42.07
798.87	43.87
799.045	45.15
799.22	45.65
799.395	42.73
799.57	42.83
799.745	42.49
799.92	41.53
800.095	40.52
800.27	40.4
800.445	39.78
800.62	39.45
800.795	37.28
800.97	36.28
801.145	33.62
801.319	33.64
801.494	32.21
801.669	33.35
801.844	33.84
802.018	32.46
802.193	32.73
802.368	32.44
802.543	31.41
802.717	32.22
802.892	34.52
803.067	36.25
803.241	38.29
803.416	38.89
803.59	36.86
803.765	38.6
803.94	40.16
804.114	41.31
804.289	39.38
804.463	38.91
804.638	38.68
804.812	38.01
804.986	37.48
805.161	36.05
805.335	35.41
805.51	37.05
805.684	37.66
805.858	38.33
806.033	39.07
806.207	39.79
806.381	41.83
806.556	41.92
806.73	42.92
806.904	43.73
807.078	43.47
807.253	46.61
807.427	46.48
807.601	46.25
807.775	45.88
807.949	44.41
808.123	44.61
808.298	45.84
808.472	44.31
808.646	40.57
808.82	41.1
808.994	41.44
809.168	38.62
809.342	35.36
809.516	34.11
809.69	35.03
809.864	34.7
810.038	37.44
810.212	35.75
810.385	38.32
810.559	40.14
810.733	37.28
810.907	38.68
811.081	39.4
811.255	41.15
811.428	43.07
811.602	42.94
811.776	44.75
811.95	43.96
812.123	45.06
812.297	42.54
812.471	41.48
812.644	42.61
812.818	42.53
812.992	41.44
813.165	42.82
813.339	40.86
813.512	40.58
813.686	39.28
813.86	37.4
814.033	36.38
814.207	38.2
814.38	37.65
814.554	40.31
814.727	42.05
814.9	44.78
815.074	44.85
815.247	46.16
815.421	42.16
815.594	41.81
815.767	42.05
815.941	38.5
816.114	38.52
816.287	39.61
816.46	39.05
816.634	38.14
816.807	32.72
816.98	33.79
817.153	30.32
817.327	34.03
817.5	34.66
817.673	35.81
817.846	39.35
818.019	40.18
818.192	42.75
818.365	43.04
818.538	41.5
818.711	44.41
818.884	42.05
819.057	43.7
819.23	43.04
819.403	41.86
819.576	43.52
819.749	42.53
819.922	43.98
820.095	43.02
820.268	41.28
820.441	42.01
820.614	41.36
820.786	39.95
820.959	40.42
821.132	41.26
821.305	42.38
821.477	40.62
821.65	40.87
821.823	40
821.996	40.19
822.168	40.07
822.341	38.8
822.514	38.88
822.686	39.39
822.859	38.82
823.031	38.92
823.204	38.74
823.376	38.68
823.549	37.96
823.722	37.83
823.894	37.76
824.067	37.97
824.239	38.4
824.411	38.5
824.584	38.78
824.756	39.24
824.929	38.66
825.101	38.67
825.273	39.05
825.446	39.6
825.618	39.32
825.79	38.64
825.963	39.06
826.135	38.51
826.307	38.63
826.479	38.79
826.652	39.7
826.824	40.1
826.996	39.1
827.168	38.94
827.34	38.64
827.512	39
827.684	39.87
827.856	39.28
828.029	41.06
828.201	40.94
828.373	40.61
828.545	39.62
828.717	40.03
828.889	40.02
829.061	40.25
829.232	42.12
829.404	42.77
829.576	41.99
829.748	42.27
829.92	42.05
830.092	42.08
830.264	42.12
830.436	41.93
830.607	41.46
830.779	42.12
830.951	42.42
831.123	40.5
831.294	38.75
831.466	41.17
831.638	41.09
831.809	39.44
831.981	39.32
832.153	38.63
832.324	39.65
832.496	39.12
832.667	42.15
832.839	40.34
833.011	39.82
833.182	40.34
833.354	39.07
833.525	36.89
833.697	37.66
833.868	37.83
834.039	40
834.211	39.18
834.382	39.68
834.554	39.51
834.725	38.97
834.896	39.93
835.068	38.61
835.239	37.17
835.41	37.51
835.581	38.39
835.753	38.04
835.924	37.2
836.095	37.1
836.266	36.9
836.438	35.1
836.609	37.16
836.78	36.56
836.951	38.16
837.122	36.92
837.293	37.41
837.464	36.11
837.635	37.3
837.806	36.04
837.977	36.66
838.148	35.94
838.319	36.24
838.49	35.03
838.661	35.6
838.832	36.22
839.003	41.26
839.174	44.77
839.345	46.48
839.516	48.11
839.687	50.24
839.857	47.97
840.028	43.1
840.199	41.5
840.37	39.25
840.54	37.9
840.711	35.99
840.882	33.71
841.053	30.45
841.223	26.98
841.394	18.65
841.564	18.06
841.735	18.55
841.906	25.77
842.076	27.67
842.247	31.48
842.417	33.32
842.588	34.87
842.758	31.59
842.929	30.37
843.099	31.28
843.27	37.3
843.44	35.09
843.611	37.19
843.781	35.74
843.951	36.91
844.122	33.72
844.292	31.22
844.462	26.46
844.633	28.51
844.803	28.31
844.973	23.33
845.144	25.29
845.314	26.73
845.484	27.7
845.654	26.81
845.824	28.83
845.995	25.82
846.165	26.74
846.335	31.4
846.505	32.81
846.675	30.52
846.845	37.88
847.015	27.5
847.185	27.6
847.355	26.22
847.525	30
847.695	28.22
847.865	37.69
848.035	34.9
848.205	31.05
848.375	30.89
848.545	32.79
848.715	36.3
848.884	38.62
849.054	38.83
849.224	36.45
849.394	33.91
849.564	30.23
849.733	27.35
849.903	33.93
850.073	39.85
850.243	38.31
850.412	42.2
850.582	36.86
850.752	38.82
850.921	36.49
851.091	39.63
851.26	40.06
851.43	37.57
851.599	37.3
851.769	41.94
851.939	42.47
852.108	45.24
852.278	44.25
852.447	47.26
852.616	48.67
852.786	56.42
852.955	52.79
853.125	50.33
853.294	63.03
853.463	65.47
853.633	62.26
853.802	64.57
853.971	58.89
854.141	51.39
854.31	53.1
854.479	55.95
854.648	47.55
854.818	34.98
854.987	32.52
855.156	19.14
855.325	7.81
855.494	2.35
855.663	3.17
855.832	6.13
856.001	2.11
856.171	4.86
856.34	-1.33
856.509	-8.46
856.678	7.45
856.847	20.12
857.016	24.04
857.185	27.32
857.353	11.43
857.522	14.37
857.691	18.48
857.86	26.41
858.029	22.67
858.198	28.86
858.367	24.2
858.535	16.26
858.704	8.85
858.873	5.01
859.042	6.82
859.21	22.32
859.379	15.29
859.548	15.23
859.717	13.5
859.885	22.48
860.054	22.61
860.222	23.8
860.391	38.9
860.56	37.73
860.728	36.45
860.897	37.3
861.065	34.42
861.234	45.75
861.402	42.31
861.571	42.6
861.739	39.63
861.908	38.36
862.076	45.96
862.244	47.19
862.413	49.92
862.581	53.43
862.749	52.81
862.918	54.82
863.086	42.62
863.254	40.22
863.423	37.6
863.591	33.59
863.759	35.25
863.927	36.73
864.096	22.1
864.264	16.48
864.432	21.92
864.6	31.24
864.768	26.15
864.936	36.47
865.104	29.52
865.272	31.83
865.44	38.17
865.608	26.87
865.776	23.56
865.944	22.44
866.112	22.06
866.28	28.47
866.448	19.85
866.616	26.32
866.784	16.11
866.952	22.86
867.12	30.54
867.288	32.95
867.455	45.27
867.623	40.71
867.791	46.99
867.959	48.41
868.127	45.45
868.294	51.67
868.462	40.84
868.63	42.8
868.797	51.96
868.965	48.66
869.133	36.94
869.3	36.27
869.468	37.98
869.636	31.04
869.803	29.76
869.971	27.3
870.138	25.05
870.306	32.3
870.473	26.22
870.641	23.57
870.808	27.42
870.975	34.93
871.143	41.71
871.31	45.76
871.478	46.49
871.645	59.08
871.812	59.11
871.98	54.64
872.147	49.08
872.314	63.81
872.482	47.79
872.649	34.71
872.816	31.54
872.983	19.88
873.15	16.16
873.318	16.32
873.485	15.65
873.652	19.84
873.819	14.44
873.986	17.13
874.153	8.23
874.32	15.04
874.487	24.92
874.654	27.74
874.821	19.37
874.988	13.58
875.155	14.79
875.322	8.15
875.489	3.17
875.656	0.81
875.823	-3.91
875.99	14.77
876.157	14.23
876.324	11.04
876.49	15.72
876.657	25.49
876.824	32.06
876.991	33.01
877.157	37.98
877.324	27
877.491	29.76
877.658	34.37
877.824	33.02
877.991	32.33
878.157	34.76
878.324	31
878.491	25.41
878.657	28.04
878.824	22.45
878.99	21.69
879.157	30.14
879.323	24.99
879.49	23.58
879.656	26.94
879.823	23
879.989	20.54
880.156	14.54
880.322	12.32
880.488	11.47
880.655	6.67
880.821	5.1
880.987	12.43
881.154	23.18
881.32	25.7
881.486	22.66
881.652	23.63
881.819	28.62
881.985	32.07
882.151	35.06
882.317	35.97
882.483	39.11
882.649	38.86
882.816	38.39
882.982	38.76
883.148	38.79
883.314	38.84
883.48	39.66
883.646	40.74
883.812	41.8
883.978	41.53
884.144	41.9
884.31	42.26
884.476	42.76
884.642	43.59
884.807	41.59
884.973	42.34
885.139	42.46
885.305	42.8
885.471	42.84
885.637	41.71
885.802	42.13
885.968	41.89
886.134	42.13
886.3	42.53
886.465	41.84
886.631	43.71
886.797	44.08
886.962	44.14
887.128	45.06
887.293	41.77
887.459	43.87
887.625	43.54
887.79	43.87
887.956	37.74
888.121	38.22
888.287	36.03
888.452	35.67
888.618	29.99
888.783	30.64
