Data from 2938741__Reflection_02.txt Node
Date: Sun Mar 15 12:13:33 EDT 2015
User: robert
Spectrometer: USB4E03002
Autoset integration time: false
Trigger mode: 4
Integration Time (sec): 1.000000E-1
Scans to average: 10
Electric dark correction enabled: false
Nonlinearity correction enabled: false
Boxcar width: 5
Stray light correction enabled: false
XAxis mode: Wavelengths
Stop averaging: false
Number of Pixels in Spectrum: 3648
>>>>>Begin Spectral Data<<<<<
177.575	-154.55
177.794	-203.81
178.014	-142.16
178.233	-115.56
178.452	-205.71
178.672	-237.89
178.891	-281
179.11	-795.65
179.33	2555.17
179.549	-661.62
179.768	-661.54
179.987	14840
180.207	-1463.27
180.426	-1028.85
180.645	1471.43
180.864	453.04
181.084	-673.13
181.303	-453.42
181.522	-181.75
181.741	-138.43
181.96	-54.21
182.179	-125.86
182.398	-199.52
182.618	-318.84
182.837	-1492.68
183.056	-956.67
183.275	-404.38
183.494	-3813.64
183.713	598.8
183.932	408.17
184.151	348.25
184.37	221.96
184.589	223.66
184.808	430.72
185.027	-1606.98
185.246	3321.74
185.465	2110.26
185.684	1332.08
185.903	356.28
186.122	-482.4
186.341	-126.93
186.56	-210.94
186.779	-154.31
186.998	-162.5
187.216	-382.99
187.435	-4163.16
187.654	1461.9
187.873	744.26
188.092	515.29
188.311	2933.33
188.53	271.43
188.748	164.11
188.967	180.75
189.186	96.06
189.405	115.45
189.623	123.82
189.842	125.32
190.061	238.81
190.28	391.33
190.498	413.48
190.717	790
190.936	234.77
191.154	247.83
191.373	239.92
191.592	460.76
191.81	408.5
192.029	1164.71
192.248	1273.17
192.466	320.66
192.685	402.52
192.904	305.71
193.122	301.26
193.341	4825
193.559	1204.92
193.778	1471.43
193.996	225.1
194.215	230.99
194.433	183.88
194.652	240.27
194.87	122.78
195.089	133.33
195.307	133.06
195.526	135.57
195.744	130.9
195.963	118.77
196.181	119.94
196.399	185.14
196.618	147.99
196.836	217.12
197.055	208.25
197.273	593.2
197.491	1011.63
197.71	-102.37
197.928	-157.14
198.146	-33.45
198.365	1.04
198.583	-153.7
198.801	-1194.74
199.019	-142.86
199.238	-584
199.456	629.58
199.674	421.36
199.892	231.5
200.111	186.71
200.329	225.6
200.547	183.72
200.765	158.44
200.983	137.81
201.202	118.96
201.42	99.56
201.638	100.92
201.856	82.24
202.074	91.75
202.292	79.88
202.51	82.03
202.728	74.08
202.946	69.81
203.165	95.05
203.383	101.99
203.601	123.56
203.819	140.75
204.037	198.22
204.255	179.21
204.473	182.23
204.691	200.91
204.909	182.18
205.127	206.44
205.345	229.98
205.562	228.16
205.78	176.25
205.998	186.96
206.216	187.88
206.434	164.26
206.652	181.55
206.87	170.92
207.088	211.86
207.306	220.77
207.523	225.79
207.741	216.31
207.959	220.7
208.177	296.44
208.395	295.27
208.612	243.58
208.83	177.92
209.048	157.49
209.266	137.86
209.483	106.04
209.701	87.09
209.919	60.86
210.136	57.96
210.354	49.69
210.572	40.08
210.79	25.59
211.007	10.72
211.225	0
211.442	2.67
211.66	-4.09
211.878	17.91
212.095	40.3
212.313	53.22
212.53	57.35
212.748	35.59
212.966	32.05
213.183	41.39
213.401	63.1
213.618	75.06
213.836	76.02
214.053	74.37
214.271	73.99
214.488	82.58
214.705	61.18
214.923	56.26
215.14	85.51
215.358	76.63
215.575	70.44
215.793	75.89
216.01	74.93
216.227	76.11
216.445	76.55
216.662	66.76
216.879	54.03
217.097	71.52
217.314	63.74
217.531	51.36
217.749	62.88
217.966	66.3
218.183	48.19
218.4	52.43
218.618	44.6
218.835	30.32
219.052	24.5
219.269	14.51
219.487	13.74
219.704	18.31
219.921	15.91
220.138	16.36
220.355	17.45
220.572	27.49
220.79	18.97
221.007	18.1
221.224	22.91
221.441	15.35
221.658	20.54
221.875	17.62
222.092	17.1
222.309	15.14
222.526	12.85
222.743	0.88
222.96	-15.58
223.177	-8.61
223.394	-0
223.611	0.85
223.828	7.45
224.045	14.05
224.262	16.77
224.479	10.87
224.696	14.84
224.913	14.69
225.13	18.91
225.347	21.34
225.564	20.3
225.781	17.92
225.997	18.41
226.214	18.81
226.431	16.32
226.648	14.16
226.865	14.33
227.082	15.06
227.298	12.53
227.515	12.25
227.732	11.71
227.949	8.93
228.165	7.98
228.382	8.21
228.599	7.43
228.816	6.88
229.032	7.64
229.249	7.52
229.466	6.74
229.682	7.04
229.899	7.5
230.116	7.72
230.332	8.18
230.549	8.92
230.765	8.54
230.982	8.62
231.199	7.59
231.415	6.48
231.632	5.89
231.848	5.5
232.065	5.57
232.281	2.7
232.498	0.37
232.714	1.76
232.931	0.86
233.147	0.98
233.364	-0.95
233.58	1.08
233.797	2.3
234.013	2.86
234.23	3.57
234.446	2.74
234.662	3.24
234.879	2.81
235.095	2.53
235.312	3.57
235.528	2.97
235.744	4.68
235.961	6.71
236.177	7.17
236.393	8.86
236.61	7.75
236.826	8.31
237.042	7.61
237.258	8.13
237.475	8.23
237.691	7.2
237.907	8.64
238.123	6.64
238.339	6.74
238.556	6.18
238.772	4.74
238.988	5.8
239.204	5.96
239.42	6.96
239.636	6.89
239.853	5.6
240.069	5.36
240.285	4.33
240.501	5.68
240.717	4.44
240.933	3.91
241.149	4.08
241.365	3.84
241.581	4.53
241.797	3.6
242.013	4.08
242.229	4.83
242.445	4.97
242.661	5.15
242.877	5.22
243.093	4.89
243.309	4.56
243.525	3.98
243.741	3.67
243.957	2.76
244.173	2.79
244.388	1.93
244.604	1.07
244.82	1.95
245.036	2.21
245.252	1.59
245.468	2.07
245.683	2.73
245.899	3.68
246.115	4.11
246.331	4.39
246.547	4.86
246.762	4.89
246.978	4.74
247.194	4.32
247.409	3.65
247.625	3.85
247.841	3.72
248.057	3.67
248.272	3.33
248.488	2.92
248.703	2.79
248.919	2.62
249.135	2.41
249.35	2.55
249.566	3.12
249.782	4.33
249.997	3.89
250.213	3.77
250.428	3.36
250.644	3.27
250.859	3.86
251.075	3.93
251.29	3.32
251.506	4.23
251.721	4.14
251.937	3.53
252.152	2.77
252.368	2.73
252.583	2.42
252.798	2.32
253.014	2.41
253.229	2.75
253.445	2.16
253.66	2.72
253.875	1.7
254.091	1.41
254.306	1.07
254.521	1.79
254.737	2.86
254.952	3.98
255.167	4.11
255.383	4.37
255.598	3.85
255.813	3.85
256.028	3.88
256.244	3.71
256.459	3.84
256.674	3.42
256.889	2.04
257.104	1.2
257.32	0.5
257.535	1.28
257.75	1.21
257.965	2.03
258.18	2.59
258.395	2.33
258.61	2.61
258.826	2.73
259.041	2.6
259.256	2.97
259.471	3.07
259.686	3.01
259.901	2.61
260.116	2.84
260.331	2.54
260.546	2.35
260.761	2.33
260.976	2.52
261.191	2.4
261.406	2.59
261.621	2.5
261.836	2.04
262.05	2.35
262.265	2.54
262.48	2.12
262.695	1.95
262.91	1.89
263.125	2.64
263.34	1.54
263.555	2.14
263.769	2.34
263.984	1.83
264.199	2.58
264.414	2.48
264.629	3.54
264.843	3.88
265.058	4.34
265.273	4.3
265.488	3.14
265.702	3.91
265.917	3.01
266.132	3.63
266.346	4.31
266.561	4.74
266.776	4.76
266.99	4.39
267.205	4.39
267.42	4.06
267.634	4.06
267.849	3.82
268.063	3.89
268.278	4.55
268.492	3.89
268.707	3.82
268.922	3.29
269.136	3.09
269.351	3.05
269.565	2.7
269.78	2.84
269.994	2.64
270.209	2.6
270.423	2.29
270.637	1.65
270.852	1.79
271.066	1.5
271.281	1.21
271.495	1.6
271.709	1.31
271.924	1.37
272.138	1.08
272.353	1.09
272.567	1.82
272.781	1.81
272.996	1.91
273.21	1.85
273.424	2.38
273.638	2.64
273.853	2.38
274.067	2.24
274.281	2.02
274.495	2.24
274.71	3.05
274.924	2.71
275.138	3
275.352	3.14
275.566	3.03
275.781	2.56
275.995	2.83
276.209	2.58
276.423	2.46
276.637	2.71
276.851	3.21
277.065	2.07
277.279	2.79
277.493	2.54
277.707	2.37
277.921	2.21
278.135	1.99
278.349	2.09
278.563	2.56
278.777	2.64
278.991	2.77
279.205	3.09
279.419	3.55
279.633	3.09
279.847	2.85
280.061	2.75
280.275	2.88
280.489	3.27
280.703	3.11
280.917	3.06
281.131	3.36
281.344	3.48
281.558	2.76
281.772	2.89
281.986	2.73
282.2	2.72
282.414	2.29
282.627	1.97
282.841	1.43
283.055	1.51
283.269	1.63
283.482	1.48
283.696	1.13
283.91	1.21
284.123	0.68
284.337	0.75
284.551	1.02
284.764	1.87
284.978	2.38
285.192	2.47
285.405	2.49
285.619	2.53
285.833	2.64
286.046	2.66
286.26	2.5
286.473	2.91
286.687	2.47
286.9	2.58
287.114	2.2
287.327	2.28
287.541	2.57
287.754	2.46
287.968	2.35
288.181	2.48
288.395	2.63
288.608	2.72
288.822	2.49
289.035	2.74
289.248	2.75
289.462	2.89
289.675	2.34
289.889	2.42
290.102	2.64
290.315	2.84
290.529	3.01
290.742	2.89
290.955	2.92
291.169	3.11
291.382	3.38
291.595	2.93
291.808	2.89
292.022	2.94
292.235	2.82
292.448	2.22
292.661	1.86
292.875	1.31
293.088	1.44
293.301	1.13
293.514	1.39
293.727	1.19
293.94	1.77
294.153	1.69
294.367	1.93
294.58	1.81
294.793	2.56
295.006	2.46
295.219	2.13
295.432	2.01
295.645	2.28
295.858	2.18
296.071	2.16
296.284	1.93
296.497	1.71
296.71	1.59
296.923	1.45
297.136	1.34
297.349	1.18
297.562	1.8
297.775	2.01
297.988	2.16
298.201	2.19
298.414	2.26
298.626	2.23
298.839	2.35
299.052	2.4
299.265	2.76
299.478	2.41
299.691	2.64
299.903	2.49
300.116	2.26
300.329	1.97
300.542	1.81
300.755	1.72
300.967	1.48
301.18	1.65
301.393	1.7
301.605	1.38
301.818	1.57
302.031	1.73
302.243	1.22
302.456	1.24
302.669	1.51
302.881	1.47
303.094	1.65
303.307	2.03
303.519	2.27
303.732	2.11
303.944	2.19
304.157	2.28
304.37	2.06
304.582	2.47
304.795	2.56
305.007	2.55
305.22	2.82
305.432	3.15
305.645	3.14
305.857	3.1
306.069	3.91
306.282	3.87
306.494	3.83
306.707	3.69
306.919	3.7
307.132	3.25
307.344	3.34
307.556	3.16
307.769	2.84
307.981	2.6
308.193	2.47
308.406	1.91
308.618	2.07
308.83	2.04
309.043	2.16
309.255	2.15
309.467	2.61
309.679	2.35
309.892	2.3
310.104	2.24
310.316	2.07
310.528	2.18
310.74	2.18
310.953	2.16
311.165	1.71
311.377	1.95
311.589	2.1
311.801	2.06
312.013	2.13
312.225	2.13
312.437	2.21
312.649	2.88
312.862	2.9
313.074	2.83
313.286	3.19
313.498	3.8
313.71	3.89
313.922	3.61
314.134	3.11
314.346	3.5
314.558	3.76
314.77	3.46
314.982	3.38
315.193	2.91
315.405	3.19
315.617	2.87
315.829	3.17
316.041	3.25
316.253	3.78
316.465	4.29
316.677	3.9
316.888	3.72
317.1	3.76
317.312	3.45
317.524	3.75
317.736	3.58
317.947	3.98
318.159	3.51
318.371	3.65
318.583	3.6
318.794	3.8
319.006	4.21
319.218	4.49
319.43	4.59
319.641	4.91
319.853	5.32
320.064	5.35
320.276	5.23
320.488	6
320.699	5.76
320.911	5.32
321.123	5.23
321.334	5.32
321.546	5.47
321.757	6.06
321.969	6.43
322.18	6.68
322.392	6.78
322.603	6.83
322.815	6.48
323.026	6.87
323.238	7.53
323.449	7.95
323.661	7.89
323.872	8.36
324.083	8.46
324.295	8.18
324.506	7.99
324.718	8.67
324.929	8.58
325.14	9.2
325.352	9.18
325.563	8.93
325.774	8.36
325.986	8.37
326.197	8.3
326.408	8.38
326.62	9.27
326.831	9.56
327.042	9.59
327.253	10.27
327.464	10.73
327.676	11.49
327.887	12.16
328.098	12.83
328.309	13.73
328.52	13.82
328.732	14.37
328.943	14.07
329.154	14.65
329.365	14.73
329.576	14.67
329.787	14.27
329.998	14.2
330.209	14.56
330.42	15.01
330.631	14.74
330.842	15.23
331.053	15.35
331.264	15.4
331.475	15.46
331.686	15.44
331.897	16.27
332.108	16.67
332.319	16.73
332.53	16.73
332.741	16.76
332.952	16.75
333.163	16.91
333.374	17.25
333.585	17.29
333.795	17.55
334.006	18.29
334.217	18.28
334.428	18.06
334.639	18.42
334.849	18.7
335.06	19.28
335.271	19.64
335.482	19.34
335.692	19.48
335.903	19.96
336.114	20.01
336.325	19.42
336.535	19.59
336.746	19.96
336.957	19.91
337.167	19.74
337.378	19.69
337.589	19.67
337.799	19.74
338.01	19.43
338.22	19.3
338.431	19.78
338.642	20.25
338.852	19.93
339.063	19.78
339.273	19.57
339.484	19.53
339.694	19.27
339.905	19.92
340.115	19.91
340.326	19.82
340.536	20.32
340.746	19.29
340.957	19.3
341.167	19.31
341.378	19.58
341.588	19.83
341.799	20.35
342.009	20.35
342.219	19.84
342.43	20.25
342.64	20.65
342.85	20.32
343.061	20.85
343.271	20.75
343.481	20.98
343.691	20.82
343.902	20.8
344.112	20.38
344.322	20.54
344.532	20.44
344.743	20.21
344.953	20.03
345.163	19.79
345.373	19.68
345.583	19.5
345.793	19.25
346.004	19.38
346.214	19.69
346.424	19.93
346.634	19.82
346.844	20.03
347.054	19.87
347.264	19.86
347.474	20.16
347.684	20.41
347.894	20.56
348.104	20.69
348.314	20.56
348.524	20.21
348.734	19.72
348.944	19.81
349.154	19.64
349.364	19.89
349.574	19.72
349.784	19.65
349.994	19.92
350.204	19.72
350.413	19.26
350.623	19.35
350.833	19.08
351.043	19.21
351.253	19.14
351.463	18.91
351.672	19.02
351.882	18.89
352.092	18.85
352.302	18.3
352.511	18.63
352.721	19.01
352.931	18.76
353.141	19.02
353.35	19.25
353.56	18.94
353.77	19.37
353.979	19.17
354.189	19.57
354.399	19.55
354.608	19.5
354.818	19.64
355.027	19.7
355.237	19.71
355.447	19.67
355.656	19.28
355.866	19.35
356.075	19.27
356.285	19.04
356.494	18.92
356.704	19.1
356.913	19.1
357.123	18.79
357.332	18.7
357.542	18.68
357.751	18.69
357.96	19.04
358.17	19.26
358.379	19.14
358.589	19.22
358.798	19.02
359.007	18.73
359.217	19.11
359.426	19.29
359.635	19.25
359.845	19.06
360.054	18.88
360.263	18.87
360.472	18.67
360.682	18.62
360.891	18.5
361.1	18.53
361.309	18.52
361.519	18.09
361.728	17.96
361.937	17.89
362.146	18.07
362.355	18.08
362.564	17.78
362.774	17.83
362.983	17.54
363.192	17.81
363.401	18.03
363.61	17.97
363.819	18.1
364.028	18.14
364.237	18.46
364.446	18.45
364.655	18.39
364.864	18.54
365.073	18.47
365.282	18.71
365.491	18.58
365.7	18.1
365.909	18.35
366.118	18.27
366.327	18.04
366.536	17.77
366.745	17.79
366.954	17.51
367.162	17.4
367.371	17.33
367.58	17.39
367.789	17.21
367.998	17.58
368.207	17.44
368.415	17.49
368.624	17.39
368.833	17.5
369.042	17.42
369.25	17.91
369.459	18.18
369.668	18.34
369.877	18.35
370.085	18.41
370.294	18.52
370.503	18.36
370.711	18.5
370.92	18.71
371.129	18.55
371.337	18.74
371.546	18.49
371.754	18.36
371.963	18.1
372.171	18.01
372.38	18.02
372.589	17.77
372.797	17.74
373.006	17.21
373.214	17.33
373.423	17.33
373.631	17.19
373.84	17.22
374.048	17.15
374.256	17.15
374.465	17.34
374.673	17.49
374.882	17.45
375.09	17.44
375.298	17.72
375.507	17.58
375.715	17.34
375.923	17.43
376.132	17.55
376.34	17.25
376.548	17.25
376.757	17.22
376.965	17.18
377.173	17.16
377.381	17.4
377.59	17.44
377.798	17.54
378.006	17.49
378.214	17.28
378.423	17.11
378.631	17.4
378.839	17.59
379.047	17.36
379.255	17.08
379.463	17.1
379.671	17.01
379.879	16.99
380.088	17
380.296	17.16
380.504	17.05
380.712	16.87
380.92	16.67
381.128	16.72
381.336	16.54
381.544	16.56
381.752	16.6
381.96	16.32
382.168	16.21
382.376	16.3
382.584	16.41
382.791	16.59
382.999	16.79
383.207	17.02
383.415	16.99
383.623	17.28
383.831	17.52
384.039	17.62
384.247	17.74
384.454	17.87
384.662	17.74
384.87	17.47
385.078	17.31
385.285	17.32
385.493	17.18
385.701	17.08
385.909	17.01
386.116	16.85
386.324	16.96
386.532	17.13
386.739	17.12
386.947	17.19
387.155	17.32
387.362	17.41
387.57	17.32
387.778	17.31
387.985	17.14
388.193	17.05
388.4	17.07
388.608	17.1
388.816	16.91
389.023	16.9
389.231	16.71
389.438	16.75
389.646	16.8
389.853	16.83
390.061	16.84
390.268	17.09
390.475	17.24
390.683	17.19
390.89	16.82
391.098	16.71
391.305	16.46
391.512	16.4
391.72	16.39
391.927	16.24
392.135	16.38
392.342	16.4
392.549	16.37
392.756	16.14
392.964	15.98
393.171	16.21
393.378	16.41
393.586	16.59
393.793	16.7
394	16.63
394.207	16.63
394.414	16.62
394.622	16.57
394.829	16.61
395.036	16.65
395.243	16.72
395.45	16.49
395.657	16.49
395.864	16.52
396.072	16.37
396.279	16.51
396.486	16.64
396.693	16.68
396.9	16.81
397.107	16.83
397.314	17.08
397.521	17.1
397.728	17.25
397.935	17.2
398.142	16.99
398.349	17.13
398.556	17.15
398.763	17.23
398.97	17.2
399.177	16.98
399.383	16.87
399.59	16.81
399.797	17.01
400.004	17.1
400.211	17.02
400.418	17.09
400.625	17.14
400.831	17.16
401.038	17.07
401.245	17.05
401.452	17.06
401.658	16.92
401.865	16.68
402.072	16.78
402.279	16.78
402.485	16.75
402.692	16.73
402.899	16.68
403.105	16.53
403.312	16.58
403.519	16.62
403.725	16.73
403.932	16.97
404.138	17.27
404.345	17.07
404.552	16.93
404.758	17.16
404.965	17.29
405.171	17.34
405.378	17.44
405.584	17.31
405.791	17.23
405.997	17.4
406.204	17.45
406.41	17.35
406.617	17.28
406.823	17.55
407.029	17.42
407.236	17.55
407.442	17.49
407.649	17.69
407.855	17.67
408.061	17.7
408.268	17.61
408.474	17.43
408.68	17.34
408.887	17.4
409.093	17.28
409.299	17.09
409.505	16.96
409.712	16.87
409.918	16.6
410.124	16.75
410.33	16.85
410.537	16.8
410.743	17.02
410.949	17.08
411.155	17.19
411.361	17.03
411.567	17.25
411.773	17.16
411.98	17.44
412.186	17.71
412.392	17.93
412.598	17.83
412.804	17.86
413.01	17.8
413.216	17.91
413.422	17.96
413.628	18.1
413.834	18.13
414.04	18.26
414.246	18.21
414.452	18.15
414.658	17.91
414.864	18.04
415.07	18.07
415.275	18.19
415.481	18.23
415.687	18.15
415.893	18.05
416.099	18.22
416.305	18.27
416.511	18.16
416.716	18.23
416.922	18.25
417.128	18.23
417.334	18
417.539	17.73
417.745	17.74
417.951	17.7
418.157	17.69
418.362	17.51
418.568	17.44
418.774	17.5
418.979	17.34
419.185	17.34
419.391	17.34
419.596	17.47
419.802	17.56
420.008	17.48
420.213	17.5
420.419	17.51
420.624	17.59
420.83	17.59
421.035	17.52
421.241	17.61
421.446	17.57
421.652	17.46
421.857	17.53
422.063	17.53
422.268	17.55
422.474	17.52
422.679	17.49
422.885	17.44
423.09	17.5
423.295	17.61
423.501	17.52
423.706	17.57
423.911	17.69
424.117	17.58
424.322	17.57
424.527	17.52
424.733	17.6
424.938	17.66
425.143	17.77
425.349	17.66
425.554	17.57
425.759	17.62
425.964	17.6
426.169	17.6
426.375	17.6
426.58	17.67
426.785	17.79
426.99	17.75
427.195	17.71
427.4	17.62
427.605	17.73
427.811	17.82
428.016	17.73
428.221	17.66
428.426	17.65
428.631	17.73
428.836	17.65
429.041	17.68
429.246	17.58
429.451	17.69
429.656	17.69
429.861	17.72
430.066	17.73
430.271	17.83
430.476	17.96
430.681	17.9
430.886	17.94
431.09	18.16
431.295	18.18
431.5	18.15
431.705	18.15
431.91	18.16
432.115	18.22
432.32	18.27
432.524	18.19
432.729	18.22
432.934	18.16
433.139	18.16
433.343	18.06
433.548	18.04
433.753	18.11
433.958	18.11
434.162	18.19
434.367	18.16
434.572	18.1
434.776	18.19
434.981	18.27
435.186	18.38
435.39	18.36
435.595	18.32
435.799	18.35
436.004	18.38
436.209	18.45
436.413	18.37
436.618	18.41
436.822	18.45
437.027	18.35
437.231	18.23
437.436	18.21
437.64	18.26
437.845	18.38
438.049	18.24
438.253	18.29
438.458	18.16
438.662	18.21
438.867	18.02
439.071	18
439.275	18.23
439.48	18.25
439.684	18.12
439.888	18.07
440.093	18.03
440.297	18.16
440.501	18.24
440.706	18.25
440.91	18.23
441.114	18.34
441.318	18.32
441.523	18.17
441.727	18.18
441.931	18.34
442.135	18.44
442.339	18.46
442.543	18.36
442.748	18.25
442.952	18.25
443.156	18.19
443.36	18.16
443.564	18.22
443.768	18.3
443.972	18.34
444.176	18.33
444.38	18.4
444.584	18.37
444.788	18.38
444.992	18.41
445.196	18.41
445.4	18.46
445.604	18.46
445.808	18.5
446.012	18.5
446.216	18.47
446.42	18.45
446.624	18.36
446.828	18.29
447.032	18.29
447.235	18.31
447.439	18.35
447.643	18.41
447.847	18.44
448.051	18.31
448.254	18.3
448.458	18.32
448.662	18.28
448.866	18.32
449.069	18.4
449.273	18.47
449.477	18.46
449.681	18.46
449.884	18.37
450.088	18.38
450.292	18.55
450.495	18.45
450.699	18.37
450.902	18.39
451.106	18.31
451.31	18.34
451.513	18.32
451.717	18.31
451.92	18.32
452.124	18.41
452.327	18.46
452.531	18.45
452.734	18.56
452.938	18.64
453.141	18.71
453.345	18.79
453.548	18.67
453.752	18.7
453.955	18.73
454.158	18.78
454.362	18.76
454.565	18.79
454.769	18.76
454.972	18.83
455.175	18.84
455.379	18.79
455.582	18.86
455.785	18.9
455.988	18.8
456.192	18.74
456.395	18.72
456.598	18.59
456.801	18.59
457.005	18.57
457.208	18.4
457.411	18.41
457.614	18.42
457.817	18.21
458.021	18.3
458.224	18.51
458.427	18.57
458.63	18.63
458.833	18.66
459.036	18.58
459.239	18.54
459.442	18.55
459.645	18.5
459.848	18.54
460.051	18.56
460.254	18.45
460.457	18.37
460.66	18.35
460.863	18.23
461.066	18.2
461.269	18.25
461.472	18.21
461.675	18.22
461.878	18.28
462.081	18.27
462.284	18.39
462.486	18.58
462.689	18.45
462.892	18.43
463.095	18.52
463.298	18.57
463.5	18.53
463.703	18.67
463.906	18.59
464.109	18.6
464.311	18.66
464.514	18.58
464.717	18.58
464.92	18.58
465.122	18.51
465.325	18.56
465.528	18.55
465.73	18.72
465.933	18.57
466.135	18.68
466.338	18.67
466.541	18.61
466.743	18.63
466.946	18.61
467.148	18.65
467.351	18.68
467.553	18.55
467.756	18.52
467.958	18.33
468.161	18.49
468.363	18.51
468.566	18.38
468.768	18.38
468.971	18.42
469.173	18.41
469.375	18.45
469.578	18.64
469.78	18.6
469.983	18.64
470.185	18.63
470.387	18.46
470.59	18.36
470.792	18.38
470.994	18.39
471.196	18.41
471.399	18.24
471.601	18.28
471.803	18.19
472.005	18.29
472.208	18.22
472.41	18.3
472.612	18.45
472.814	18.42
473.016	18.5
473.218	18.47
473.421	18.44
473.623	18.49
473.825	18.52
474.027	18.39
474.229	18.4
474.431	18.52
474.633	18.4
474.835	18.34
475.037	18.37
475.239	18.34
475.441	18.39
475.643	18.41
475.845	18.51
476.047	18.5
476.249	18.52
476.451	18.57
476.653	18.51
476.855	18.66
477.057	18.67
477.258	18.72
477.46	18.81
477.662	18.87
477.864	18.85
478.066	18.88
478.268	18.9
478.469	18.91
478.671	18.86
478.873	18.98
479.075	18.89
479.276	18.98
479.478	18.97
479.68	18.92
479.882	18.89
480.083	18.92
480.285	18.87
480.487	18.8
480.688	18.87
480.89	18.97
481.091	18.84
481.293	18.89
481.495	18.82
481.696	18.82
481.898	18.78
482.099	18.65
482.301	18.62
482.502	18.52
482.704	18.52
482.905	18.46
483.107	18.39
483.308	18.39
483.51	18.34
483.711	18.34
483.913	18.31
484.114	18.34
484.315	18.34
484.517	18.32
484.718	18.35
484.92	18.32
485.121	18.32
485.322	18.31
485.524	18.33
485.725	18.37
485.926	18.39
486.127	18.41
486.329	18.35
486.53	18.39
486.731	18.46
486.932	18.48
487.134	18.49
487.335	18.53
487.536	18.56
487.737	18.59
487.938	18.56
488.139	18.56
488.341	18.52
488.542	18.55
488.743	18.55
488.944	18.57
489.145	18.64
489.346	18.7
489.547	18.69
489.748	18.72
489.949	18.65
490.15	18.72
490.351	18.7
490.552	18.78
490.753	18.83
490.954	18.86
491.155	18.75
491.356	18.73
491.557	18.71
491.758	18.77
491.959	18.78
492.159	18.84
492.36	18.84
492.561	18.88
492.762	18.86
492.963	18.85
493.164	18.91
493.364	18.97
493.565	18.92
493.766	19
493.967	18.98
494.167	18.98
494.368	18.98
494.569	19.06
494.769	19.02
494.97	19.12
495.171	19.15
495.371	19.09
495.572	19.13
495.773	19.21
495.973	19.14
496.174	19.08
496.375	19.08
496.575	19.07
496.776	19
496.976	19.05
497.177	19.04
497.377	19.14
497.578	19.16
497.778	19.17
497.979	19.21
498.179	19.29
498.38	19.29
498.58	19.27
498.78	19.25
498.981	19.24
499.181	19.22
499.382	19.31
499.582	19.26
499.782	19.34
499.983	19.42
500.183	19.32
500.383	19.36
500.584	19.46
500.784	19.6
500.984	19.75
501.184	19.76
501.385	19.83
501.585	19.74
501.785	19.64
501.985	19.55
502.185	19.45
502.386	19.58
502.586	19.47
502.786	19.44
502.986	19.36
503.186	19.32
503.386	19.39
503.586	19.34
503.786	19.33
503.987	19.46
504.187	19.51
504.387	19.56
504.587	19.51
504.787	19.58
504.987	19.66
505.187	19.65
505.387	19.71
505.587	19.68
505.786	19.8
505.986	19.82
506.186	19.78
506.386	19.81
506.586	19.82
506.786	19.8
506.986	19.9
507.186	19.9
507.386	19.89
507.585	19.89
507.785	19.95
507.985	19.92
508.185	19.96
508.384	20.04
508.584	20
508.784	20.04
508.984	20.03
509.183	20
509.383	19.94
509.583	20.02
509.782	20.02
509.982	20
510.182	20.03
510.381	19.97
510.581	19.93
510.781	19.96
510.98	19.97
511.18	19.95
511.379	20
511.579	19.97
511.778	19.98
511.978	19.91
512.177	19.92
512.377	19.86
512.576	19.86
512.776	19.92
512.975	19.95
513.175	19.89
513.374	20.01
513.573	20
513.773	20.11
513.972	20.04
514.172	20.13
514.371	20.22
514.57	20.34
514.77	20.41
514.969	20.31
515.168	20.34
515.367	20.39
515.567	20.4
515.766	20.34
515.965	20.38
516.164	20.43
516.364	20.44
516.563	20.53
516.762	20.5
516.961	20.54
517.16	20.6
517.359	20.5
517.559	20.48
517.758	20.44
517.957	20.44
518.156	20.45
518.355	20.48
518.554	20.43
518.753	20.34
518.952	20.33
519.151	20.28
519.35	20.24
519.549	20.29
519.748	20.32
519.947	20.39
520.146	20.41
520.345	20.42
520.544	20.48
520.743	20.53
520.942	20.52
521.141	20.55
521.339	20.63
521.538	20.67
521.737	20.74
521.936	20.85
522.135	20.89
522.333	20.91
522.532	20.84
522.731	20.72
522.93	20.77
523.129	20.8
523.327	20.8
523.526	20.83
523.725	20.82
523.923	20.78
524.122	20.7
524.321	20.73
524.519	20.76
524.718	20.79
524.917	20.83
525.115	20.86
525.314	20.79
525.512	20.81
525.711	20.83
525.909	20.85
526.108	20.8
526.306	20.81
526.505	20.73
526.703	20.71
526.902	20.68
527.1	20.67
527.299	20.59
527.497	20.61
527.696	20.53
527.894	20.47
528.092	20.45
528.291	20.5
528.489	20.48
528.688	20.45
528.886	20.43
529.084	20.49
529.283	20.48
529.481	20.51
529.679	20.52
529.877	20.56
530.076	20.57
530.274	20.65
530.472	20.7
530.67	20.72
530.869	20.79
531.067	20.85
531.265	20.83
531.463	20.83
531.661	20.87
531.859	20.87
532.057	20.91
532.255	20.95
532.454	20.86
532.652	20.81
532.85	20.79
533.048	20.78
533.246	20.74
533.444	20.79
533.642	20.76
533.84	20.75
534.038	20.78
534.236	20.83
534.434	20.86
534.632	20.96
534.83	20.96
535.027	21.08
535.225	21.17
535.423	21.24
535.621	21.16
535.819	21.33
536.017	21.39
536.215	21.5
536.412	21.52
536.61	21.53
536.808	21.51
537.006	21.6
537.203	21.6
537.401	21.67
537.599	21.76
537.797	21.92
537.994	21.93
538.192	21.96
538.39	21.93
538.587	22.03
538.785	22.09
538.983	22.26
539.18	22.44
539.378	22.47
539.575	22.52
539.773	22.61
539.97	22.68
540.168	22.7
540.366	22.81
540.563	22.9
540.761	22.9
540.958	22.97
541.155	22.98
541.353	22.91
541.55	22.95
541.748	22.96
541.945	22.98
542.143	23.02
542.34	23.06
542.537	23.05
542.735	23.13
542.932	23.18
543.129	23.23
543.327	23.37
543.524	23.61
543.721	23.9
543.919	24.13
544.116	24.42
544.313	24.72
544.51	25.1
544.708	25.49
544.905	25.77
545.102	26.19
545.299	26.46
545.496	26.61
545.693	26.66
545.891	26.59
546.088	26.49
546.285	26.43
546.482	26.24
546.679	26.05
546.876	25.81
547.073	25.58
547.27	25.35
547.467	25.23
547.664	24.96
547.861	24.78
548.058	24.63
548.255	24.6
548.452	24.44
548.649	24.35
548.846	24.4
549.043	24.36
549.24	24.39
549.437	24.32
549.633	24.16
549.83	24.18
550.027	24.23
550.224	24.2
550.421	24.23
550.618	24.11
550.814	24.02
551.011	23.73
551.208	23.7
551.405	23.62
551.601	23.45
551.798	23.43
551.995	23.36
552.191	23.19
552.388	23.32
552.585	23.15
552.781	22.95
552.978	22.98
553.175	23.02
553.371	22.94
553.568	22.87
553.764	22.95
553.961	22.85
554.157	22.86
554.354	22.87
554.55	22.63
554.747	22.74
554.943	22.92
555.14	22.98
555.336	22.89
555.533	22.94
555.729	22.88
555.926	22.74
556.122	22.87
556.318	22.92
556.515	23.02
556.711	23.12
556.907	23.06
557.104	23.12
557.3	23.05
557.496	23.14
557.693	22.9
557.889	23.01
558.085	23.05
558.281	22.98
558.478	23
558.674	22.93
558.87	22.82
559.066	22.9
559.262	22.68
559.459	22.73
559.655	22.72
559.851	22.9
560.047	22.94
560.243	22.99
560.439	23.05
560.635	22.92
560.831	22.93
561.027	22.98
561.223	23.02
561.419	23.19
561.615	23.23
561.811	23.03
562.007	22.99
562.203	22.96
562.399	22.97
562.595	22.86
562.791	22.92
562.987	22.88
563.183	22.88
563.379	22.73
563.575	22.72
563.771	22.62
563.966	22.8
564.162	22.84
564.358	22.84
564.554	22.86
564.75	22.97
564.945	22.86
565.141	22.92
565.337	22.87
565.533	22.91
565.728	22.93
565.924	22.86
566.12	22.78
566.315	22.82
566.511	22.73
566.707	22.6
566.902	22.64
567.098	22.77
567.293	22.67
567.489	22.76
567.684	22.69
567.88	22.65
568.076	22.75
568.271	22.88
568.467	22.85
568.662	22.92
568.858	23.07
569.053	23.05
569.248	23.04
569.444	23.19
569.639	23.03
569.835	23.05
570.03	23.05
570.225	23.13
570.421	23.14
570.616	23.1
570.812	23.11
571.007	23.05
571.202	22.99
571.397	22.94
571.593	22.84
571.788	22.95
571.983	23.02
572.178	23.1
572.374	23
572.569	23
572.764	23.05
572.959	23.03
573.154	23.01
573.35	22.98
573.545	23.07
573.74	23.1
573.935	23.03
574.13	23.1
574.325	23.04
574.52	23.17
574.715	23.19
574.91	23.3
575.105	23.39
575.3	23.47
575.495	23.56
575.69	23.58
575.885	23.71
576.08	23.95
576.275	23.94
576.47	24.03
576.665	24.12
576.86	24.27
577.055	24.28
577.25	24.35
577.444	24.48
577.639	24.56
577.834	24.69
578.029	24.84
578.224	24.82
578.418	24.98
578.613	25.13
578.808	25.16
579.003	25.23
579.197	25.27
579.392	25.39
579.587	25.36
579.781	25.33
579.976	25.25
580.171	25.16
580.365	25.19
580.56	25.19
580.755	25.08
580.949	25.08
581.144	24.93
581.338	24.98
581.533	24.8
581.727	24.77
581.922	24.76
582.116	24.86
582.311	24.99
582.505	25.19
582.7	25.24
582.894	25.13
583.089	25.15
583.283	25.3
583.478	25.5
583.672	25.6
583.866	25.73
584.061	25.84
584.255	25.86
584.449	25.86
584.644	25.81
584.838	25.93
585.032	26.26
585.226	26.35
585.421	26.34
585.615	26.25
585.809	26.43
586.003	26.36
586.198	26.53
586.392	26.61
586.586	26.68
586.78	26.68
586.974	26.66
587.168	26.64
587.363	26.63
587.557	26.63
587.751	26.67
587.945	26.47
588.139	26.53
588.333	26.29
588.527	26.25
588.721	26
588.915	25.93
589.109	25.74
589.303	25.72
589.497	25.69
589.691	25.71
589.885	25.52
590.079	25.54
590.273	25.44
590.466	25.58
590.66	25.61
590.854	25.71
591.048	25.72
591.242	25.94
591.436	26.02
591.629	26.08
591.823	26.11
592.017	26.52
592.211	26.67
592.404	26.93
592.598	26.99
592.792	26.93
592.986	27.02
593.179	27.09
593.373	26.9
593.567	26.81
593.76	26.74
593.954	26.65
594.147	26.48
594.341	26.28
594.535	26.16
594.728	25.97
594.922	25.93
595.115	25.7
595.309	25.41
595.502	25.39
595.696	25.28
595.889	25.08
596.083	24.98
596.276	24.79
596.47	24.78
596.663	24.65
596.856	24.59
597.05	24.51
597.243	24.66
597.437	24.88
597.63	24.98
597.823	25.05
598.017	25.33
598.21	25.49
598.403	25.76
598.596	25.91
598.79	26.15
598.983	26.37
599.176	26.61
599.369	26.69
599.563	26.75
599.756	26.9
599.949	27.11
600.142	27.1
600.335	27.03
600.528	26.88
600.722	26.94
600.915	26.82
601.108	26.84
601.301	26.74
601.494	26.62
601.687	26.53
601.88	26.33
602.073	26.09
602.266	26.04
602.459	26.1
602.652	26
602.845	25.91
603.038	25.88
603.231	25.67
603.424	25.62
603.617	25.52
603.809	25.44
604.002	25.42
604.195	25.4
604.388	25.36
604.581	25.27
604.774	25.26
604.966	25.24
605.159	25.26
605.352	25.42
605.545	25.5
605.737	25.7
605.93	25.89
606.123	25.9
606.316	26.06
606.508	26.23
606.701	26.51
606.894	26.78
607.086	27.22
607.279	27.49
607.471	27.73
607.664	28.29
607.857	28.73
608.049	29.18
608.242	29.79
608.434	30.62
608.627	31.65
608.819	32.72
609.012	34.04
609.204	35.47
609.397	37.08
609.589	38.85
609.782	40.55
609.974	42.35
610.166	44.34
610.359	46.35
610.551	47.97
610.743	49.3
610.936	50.52
611.128	51.49
611.32	51.98
611.513	52.16
611.705	52.09
611.897	51.81
612.09	51.37
612.282	50.56
612.474	49.55
612.666	48.67
612.858	47.72
613.051	46.64
613.243	45.63
613.435	44.75
613.627	44.16
613.819	43.5
614.011	42.69
614.203	41.64
614.395	40.97
614.588	40.23
614.78	39.22
614.972	38.6
615.164	37.99
615.356	37.21
615.548	36.78
615.74	35.99
615.932	35.42
616.124	34.92
616.315	34.43
616.507	33.7
616.699	33.23
616.891	33.13
617.083	32.56
617.275	32.18
617.467	31.8
617.659	31.25
617.85	30.9
618.042	30.43
618.234	30.24
618.426	30.1
618.618	30.06
618.809	30.01
619.001	29.94
619.193	30
619.384	29.92
619.576	30.04
619.768	30.04
619.959	30.24
620.151	30.58
620.343	30.53
620.534	30.7
620.726	30.8
620.917	30.91
621.109	30.63
621.301	31.01
621.492	31.27
621.684	31.32
621.875	31.31
622.067	31.27
622.258	30.95
622.45	31.12
622.641	31.35
622.832	31.61
623.024	31.61
623.215	31.76
623.407	31.41
623.598	31.27
623.789	31.25
623.981	31.3
624.172	31.4
624.363	31.64
624.555	31.64
624.746	31.31
624.937	31.05
625.129	31
625.32	30.98
625.511	31.03
625.702	31.09
625.893	31.04
626.085	30.95
626.276	30.79
626.467	30.68
626.658	30.43
626.849	30.41
627.04	30.44
627.231	30.47
627.422	30.48
627.614	30.39
627.805	30.31
627.996	30.33
628.187	30.55
628.378	30.87
628.569	31.04
628.76	31.27
628.951	31.43
629.142	31.7
629.332	31.85
629.523	32.16
629.714	32.73
629.905	33.05
630.096	33.33
630.287	33.59
630.478	33.62
630.669	33.68
630.859	33.61
631.05	33.77
631.241	33.66
631.432	33.6
631.623	33.2
631.813	32.79
632.004	32.45
632.195	32.26
632.385	31.73
632.576	31.46
632.767	31.09
632.957	31.05
633.148	30.6
633.339	30.08
633.529	29.73
633.72	29.72
633.91	29.58
634.101	29.37
634.292	29.28
634.482	29.33
634.673	29.2
634.863	29.29
635.054	29.05
635.244	29.2
635.435	29.35
635.625	29.44
635.815	29.52
636.006	29.5
636.196	29.56
636.387	29.35
636.577	29.21
636.767	29.32
636.958	29.3
637.148	29.4
637.338	29.37
637.529	29.67
637.719	29.68
637.909	29.56
638.099	29.53
638.29	29.5
638.48	29.41
638.67	29.56
638.86	29.47
639.05	29.42
639.241	29.65
639.431	29.63
639.621	29.4
639.811	29.74
640.001	29.7
640.191	29.71
640.381	29.81
640.571	30.07
640.761	30.17
640.951	30.27
641.141	30.39
641.331	30.22
641.521	30.41
641.711	30.65
641.901	30.4
642.091	30.66
642.281	30.75
642.471	30.81
642.661	30.88
642.851	30.95
643.041	30.89
643.231	30.76
643.42	30.96
643.61	30.85
643.8	30.65
643.99	30.62
644.18	30.6
644.369	30.5
644.559	30.79
644.749	31.05
644.939	31.12
645.128	31.18
645.318	31.4
645.508	31.38
645.697	31.5
645.887	31.57
646.076	31.68
646.266	31.41
646.456	31.29
646.645	30.92
646.835	30.63
647.024	30.55
647.214	30.45
647.403	30.46
647.593	30.51
647.782	30.35
647.972	30.23
648.161	30.38
648.351	30.62
648.54	30.88
648.73	31.27
648.919	31.33
649.108	31.3
649.298	31.44
649.487	31.31
649.677	31.48
649.866	31.72
650.055	31.96
650.244	31.87
650.434	32.16
650.623	32.04
650.812	31.93
651.002	31.84
651.191	32
651.38	32.06
651.569	32.28
651.758	32.04
651.947	31.91
652.137	31.82
652.326	31.75
652.515	31.45
652.704	31.48
652.893	31.6
653.082	31.92
653.271	31.74
653.46	31.94
653.649	32.05
653.838	32.18
654.027	32.16
654.216	32.08
654.405	32.33
654.594	32.6
654.783	32.77
654.972	32.61
655.161	32.47
655.35	32.39
655.539	32.1
655.728	31.75
655.916	31.69
656.105	31.67
656.294	31.61
656.483	31.25
656.672	31.34
656.86	31.17
657.049	30.99
657.238	30.94
657.427	30.93
657.615	30.95
657.804	31.08
657.993	30.98
658.181	30.93
658.37	31.1
658.559	31.26
658.747	31.18
658.936	31.27
659.125	30.77
659.313	30.66
659.502	30.83
659.69	30.75
659.879	30.83
660.067	31.01
660.256	31.14
660.444	31.07
660.633	31.14
660.821	31.03
661.01	31.14
661.198	32.14
661.387	32.43
661.575	32.69
661.763	33.19
661.952	33.16
662.14	33.21
662.328	33.15
662.517	33.53
662.705	33.39
662.893	33.75
663.082	33.69
663.27	33.4
663.458	33.25
663.646	33.18
663.834	32.84
664.023	32.86
664.211	33.06
664.399	33.09
664.587	32.97
664.775	33.62
664.963	33.54
665.152	33.78
665.34	34.09
665.528	34.59
665.716	34.71
665.904	34.91
666.092	35.19
666.28	35.03
666.468	35.31
666.656	35.4
666.844	34.89
667.032	34.72
667.22	34.65
667.408	34.17
667.596	33.96
667.784	33.65
667.971	33.55
668.159	33.43
668.347	33.54
668.535	33.23
668.723	33.16
668.911	33.45
669.098	33.46
669.286	33.39
669.474	33.74
669.662	33.71
669.849	33.86
670.037	33.68
670.225	33.88
670.413	33.85
670.6	34.13
670.788	34.29
670.976	34.33
671.163	34.27
671.351	34.36
671.538	34.27
671.726	34.26
671.913	34.03
672.101	34.08
672.289	34.07
672.476	34.02
672.664	34.07
672.851	34.17
673.039	33.58
673.226	33.72
673.413	33.68
673.601	33.78
673.788	33.96
673.976	34.6
674.163	34.62
674.35	34.71
674.538	34.67
674.725	34.94
674.912	34.65
675.1	35.01
675.287	35.21
675.474	35.43
675.662	35.45
675.849	35.29
676.036	34.8
676.223	35.09
676.411	34.9
676.598	34.95
676.785	34.5
676.972	34.43
677.159	34.32
677.346	34.35
677.533	34.09
677.721	34.18
677.908	34.45
678.095	34.33
678.282	34.23
678.469	34.3
678.656	34.29
678.843	34.35
679.03	34.46
679.217	34.64
679.404	34.46
679.591	34.36
679.778	34.23
679.964	34.13
680.151	34.47
680.338	34.5
680.525	34.47
680.712	34.25
680.899	34.57
681.086	34.72
681.272	34.59
681.459	34.37
681.646	34.55
681.833	34.77
682.02	34.79
682.206	34.53
682.393	34.49
682.58	34.32
682.766	34.63
682.953	34.41
683.14	34.28
683.326	34.31
683.513	34.71
683.7	34.95
683.886	35
684.073	34.71
684.259	34.89
684.446	34.98
684.632	35.46
684.819	35.65
685.005	35.47
685.192	35.63
685.378	35.88
685.565	35.99
685.751	36.02
685.938	36.08
686.124	36.57
686.31	36.68
686.497	36.96
686.683	36.71
686.87	36.48
687.056	36.78
687.242	36.73
687.429	36.89
687.615	36.86
687.801	36.51
687.987	36.26
688.174	36.14
688.36	36.05
688.546	35.92
688.732	35.91
688.918	35.86
689.105	35.88
689.291	35.54
689.477	35.59
689.663	35.31
689.849	35.43
690.035	35.61
690.221	35.51
690.407	35.7
690.593	35.71
690.779	35.66
690.965	35.61
691.151	35.64
691.337	36.31
691.523	36.4
691.709	36.61
691.895	36.78
692.081	36.85
692.267	36.9
692.453	37.24
692.639	37.25
692.825	37.82
693.011	38.43
693.196	38.65
693.382	38.35
693.568	38.06
693.754	38.23
693.94	38.68
694.125	38.45
694.311	38.56
694.497	38.34
694.682	38.44
694.868	38.41
695.054	38.08
695.239	38.16
695.425	38.03
695.611	37.85
695.796	37.75
695.982	37.52
696.168	37.63
696.353	37.82
696.539	37.52
696.724	37.29
696.91	36.76
697.095	36.97
697.281	36.76
697.466	36.73
697.652	36.52
697.837	36.26
698.023	35.87
698.208	35.74
698.393	35.38
698.579	35.27
698.764	35.13
698.949	35.05
699.135	34.88
699.32	34.6
699.505	34.76
699.691	35.19
699.876	35.58
700.061	35.59
700.246	35.65
700.432	35.94
700.617	36.28
700.802	36.77
700.987	37.02
701.172	37.87
701.358	38.36
701.543	38.28
701.728	38.76
701.913	38.65
702.098	39.16
702.283	39.6
702.468	39.52
702.653	39.46
702.838	39.84
703.023	40.19
703.208	39.56
703.393	39.55
703.578	40.39
703.763	40.36
703.948	41.13
704.133	41.72
704.318	42.04
704.503	42.51
704.688	43.23
704.873	43.09
705.057	43.62
705.242	43.87
705.427	44.51
705.612	44.83
705.797	45.07
705.981	44.96
706.166	45.27
706.351	45.45
706.536	45.96
706.72	46.28
706.905	46.75
707.09	46.62
707.274	47.29
707.459	47.32
707.644	46.97
707.828	47.09
708.013	47.46
708.197	47.42
708.382	47.45
708.567	47.43
708.751	47.38
708.936	46.91
709.12	46.83
709.305	46.59
709.489	46.26
709.673	46.34
709.858	46.15
710.042	46.01
710.227	45.93
710.411	45.52
710.596	45.34
710.78	45.13
710.964	45.28
711.149	45.17
711.333	45.01
711.517	45.4
711.702	45.42
711.886	45.17
712.07	44.65
712.254	43.76
712.438	43.96
712.623	43.65
712.807	43.1
712.991	43.04
713.175	43.18
713.359	42.68
713.544	42.12
713.728	41.39
713.912	40.79
714.096	40.42
714.28	41.13
714.464	40.85
714.648	40.61
714.832	40.41
715.016	40.03
715.2	39.68
715.384	39.56
715.568	39.4
715.752	38.99
715.936	39.35
716.12	39.42
716.304	38.57
716.488	38.34
716.671	38.43
716.855	38.59
717.039	38.62
717.223	38.5
717.407	38.49
717.59	38.6
717.774	39.3
717.958	39.13
718.142	38.77
718.325	39.05
718.509	39.19
718.693	39.51
718.877	39.77
719.06	39.71
719.244	39.61
719.428	39.75
719.611	39.59
719.795	39.53
719.978	39.77
720.162	40.63
720.345	40.77
720.529	40.88
720.713	40.51
720.896	40.11
721.08	40.63
721.263	40.64
721.446	41.11
721.63	41.4
721.813	41.36
721.997	41.4
722.18	41.08
722.364	41.62
722.547	41.31
722.73	41.17
722.914	42.04
723.097	41.68
723.28	41.66
723.464	41.57
723.647	41.27
723.83	40.97
724.013	40.75
724.197	41.04
724.38	40.77
724.563	41.12
724.746	41.52
724.929	40.74
725.112	40.69
725.296	41.26
725.479	40.55
725.662	40.75
725.845	41.41
726.028	40.92
726.211	40.71
726.394	40.73
726.577	40.19
726.76	39.86
726.943	40.15
727.126	40.13
727.309	40.08
727.492	40.35
727.675	40.49
727.858	39.98
728.041	40.12
728.224	39.95
728.407	39.76
728.589	40.5
728.772	40.37
728.955	40.13
729.138	40.29
729.321	40.08
729.503	39.83
729.686	39.81
729.869	39.85
730.052	40.21
730.234	40.54
730.417	40.63
730.6	39.85
730.782	39.93
730.965	39.63
731.148	39.39
731.33	39.55
731.513	40.32
731.695	40.14
731.878	40.67
732.061	41.05
732.243	40.96
732.426	40.96
732.608	41.78
732.791	42.11
732.973	42.78
733.156	43.31
733.338	43.27
733.52	43.15
733.703	43.35
733.885	43.24
734.068	42.87
734.25	42.86
734.432	42.8
734.615	43.18
734.797	43.08
734.979	42.7
735.162	42.39
735.344	42.39
735.526	42.04
735.708	41.88
735.891	41.81
736.073	42.54
736.255	43.35
736.437	43.89
736.619	43.29
736.802	43.11
736.984	43.74
737.166	43.87
737.348	43.76
737.53	43.94
737.712	44.26
737.894	44.04
738.076	43.5
738.258	42.79
738.44	42.17
738.622	42.26
738.804	42.65
738.986	41.53
739.168	41.52
739.35	41.83
739.532	41.67
739.714	41.85
739.896	42.36
740.078	41.88
740.259	42.28
740.441	42.99
740.623	42.85
740.805	42.85
740.987	44.36
741.168	44.51
741.35	44.74
741.532	45.22
741.714	46.01
741.895	45.58
742.077	46.49
742.259	46.49
742.44	46.77
742.622	47.24
742.804	46.84
742.985	46.55
743.167	46.97
743.348	46.82
743.53	46.49
743.711	45.77
743.893	46.21
744.075	46.07
744.256	46.05
744.438	45.88
744.619	46.04
744.8	46.71
744.982	47.06
745.163	46.76
745.345	47.32
745.526	47.88
745.707	47.77
745.889	47.81
746.07	47.1
746.252	46.68
746.433	46.54
746.614	46.68
746.795	46.65
746.977	46.29
747.158	46.56
747.339	45.97
747.52	46.01
747.702	46.23
747.883	46.35
748.064	47.12
748.245	47.73
748.426	47.24
748.607	47.11
748.788	46.77
748.97	46.7
749.151	46.4
749.332	46.1
749.513	45.72
749.694	45.25
749.875	45.26
750.056	45.69
750.237	45.23
750.418	45.83
750.599	45.33
750.78	45.85
750.96	46.25
751.141	46.31
751.322	46.62
751.503	46.44
751.684	47.06
751.865	46.45
752.046	45.87
752.226	45.9
752.407	46.33
752.588	45.78
752.769	45.7
752.949	45.65
753.13	46.25
753.311	47.14
753.492	47.63
753.672	47.65
753.853	48.58
754.034	48.77
754.214	49.17
754.395	49.1
754.575	50.74
754.756	51
754.937	50.8
755.117	50.2
755.298	50.52
755.478	50.21
755.659	50.66
755.839	49.92
756.02	49.27
756.2	49.1
756.381	48.18
756.561	46.9
756.741	47.44
756.922	47.13
757.102	46.9
757.283	45.08
757.463	45.22
757.643	44.77
757.823	44.75
758.004	44.58
758.184	44.5
758.364	43.82
758.545	43.36
758.725	42.34
758.905	42.19
759.085	40.88
759.265	40.86
759.446	40.13
759.626	39.2
759.806	39.39
759.986	40.4
760.166	40.03
760.346	40.34
760.526	40.36
760.706	40.36
760.886	39.86
761.066	41.06
761.246	41.46
761.426	41.89
761.606	42.34
761.786	42.22
761.966	40.9
762.146	40.8
762.326	41.2
762.506	41.4
762.686	40.77
762.866	40.93
763.046	40.49
763.225	40.1
763.405	39.47
763.585	39.09
763.765	38.88
763.945	38.86
764.124	38.88
764.304	39.2
764.484	39.48
764.664	39.92
764.843	40.43
765.023	41.41
765.203	41.75
765.382	42.1
765.562	42.85
765.741	43.24
765.921	44.44
766.101	44.96
766.28	44.53
766.46	44.43
766.639	44.45
766.819	44.9
766.998	44.41
767.178	44.93
767.357	46.35
767.537	46.56
767.716	46.9
767.896	46.5
768.075	47.04
768.254	47.1
768.434	48.38
768.613	48.54
768.792	48.24
768.972	48.82
769.151	49.36
769.33	49.03
769.51	49.02
769.689	49.58
769.868	49.87
770.047	49.9
770.226	50.21
770.406	50.15
770.585	50.78
770.764	51.06
770.943	50.92
771.122	51.58
771.301	51.39
771.48	50.99
771.66	49.63
771.839	49
772.018	48.56
772.197	49.33
772.376	48.83
772.555	48.69
772.734	49.14
772.913	48.44
773.092	47.95
773.271	48.23
773.449	47.5
773.628	48.69
773.807	49.67
773.986	50.35
774.165	50.13
774.344	50.65
774.523	51.03
774.701	49.9
774.88	50.57
775.059	49.21
775.238	48.66
775.417	50.2
775.595	50.27
775.774	49.85
775.953	48.95
776.131	48.79
776.31	47.7
776.489	46.37
776.667	47.68
776.846	47.8
777.025	48.25
777.203	48.25
777.382	48.39
777.56	47.9
777.739	47.87
777.917	48.62
778.096	48.47
778.274	48.47
778.453	49.13
778.631	47.39
778.81	47.2
778.988	47.07
779.166	47.88
779.345	47.24
779.523	47.38
779.702	48.34
779.88	48.63
780.058	49.67
780.237	49.99
780.415	50.39
780.593	50.86
780.771	50.98
780.95	52.22
781.128	51.68
781.306	51.37
781.484	52.07
781.662	50.98
781.841	50.85
782.019	50.28
782.197	51.82
782.375	51.3
782.553	51.44
782.731	51.53
782.909	50.93
783.087	51.01
783.265	51.12
783.443	49.99
783.621	50.54
783.799	49.52
783.977	49.2
784.155	47.71
784.333	48.4
784.511	48.74
784.689	47.35
784.867	46.95
785.045	47.73
785.223	48.75
785.4	49.04
785.578	48.96
785.756	49.23
785.934	49.33
786.112	49.25
786.289	48.73
786.467	49.18
786.645	50.86
786.823	50.94
787	49.47
787.178	48.71
787.356	48.11
787.533	48.25
787.711	47.96
787.889	48.17
788.066	47.13
788.244	48.47
788.421	48.35
788.599	47.35
788.776	47.14
788.954	48.41
789.131	47.71
789.309	48.23
789.486	48.8
789.664	48.77
789.841	48.15
790.019	49.16
790.196	47.63
790.373	47.6
790.551	47.55
790.728	48.31
790.906	47.3
791.083	48.48
791.26	48.33
791.437	47.46
791.615	48.15
791.792	48.41
791.969	48.93
792.146	49.44
792.324	49.3
792.501	50.87
792.678	49.83
792.855	51.43
793.032	50.77
793.209	51.16
793.387	51.58
793.564	51.27
793.741	50.39
793.918	49.84
794.095	49.94
794.272	50.68
794.449	49.92
794.626	50.49
794.803	50.03
794.98	50.79
795.157	50.61
795.334	50.34
795.511	50.33
795.688	50.67
795.864	51.83
796.041	51.36
796.218	50.26
796.395	49.87
796.572	49.77
796.749	48.93
796.925	48.83
797.102	49.42
797.279	49.28
797.456	49.59
797.632	49.12
797.809	48.46
797.986	48.08
798.162	47.34
798.339	47.01
798.516	46.75
798.692	48.06
798.869	47.54
799.046	47.74
799.222	48.04
799.399	47.17
799.575	47.53
799.752	46.22
799.928	47.89
800.105	47.25
800.281	47.73
800.458	46.45
800.634	45.26
800.811	46.86
800.987	46.2
801.163	46.05
801.34	46.91
801.516	48.49
801.692	50.77
801.869	49.84
802.045	50.74
802.221	51.15
802.398	53.03
802.574	52.58
802.75	50.81
802.926	51.12
803.103	50.84
803.279	50.46
803.455	48.47
803.631	48.18
803.807	47.61
803.983	48.52
804.16	48.73
804.336	47.05
804.512	47.79
804.688	47.76
804.864	47.17
805.04	47.6
805.216	46.61
805.392	47.16
805.568	45.62
805.744	44.55
805.92	44.71
806.096	44.25
806.272	46.41
806.448	45.88
806.623	47.14
806.799	47.26
806.975	46.71
807.151	46.79
807.327	47.16
807.503	47.18
807.678	49.24
807.854	49.87
808.03	50.01
808.206	48.96
808.381	49.58
808.557	49.12
808.733	47.87
808.908	49.14
809.084	50.09
809.26	50.56
809.435	51.35
809.611	51.03
809.787	49.72
809.962	49.92
810.138	51.18
810.313	51.37
810.489	49.97
810.664	51.26
810.84	50.86
811.015	51.91
811.191	51.11
811.366	50.03
811.542	49.57
811.717	50.49
811.892	48.18
812.068	46.56
812.243	45.09
812.419	45.83
812.594	46.8
812.769	47.32
812.944	46.86
813.12	45.81
813.295	46.78
813.47	46.95
813.645	49.02
813.821	50.24
813.996	51.78
814.171	51.57
814.346	51.52
814.521	50.79
814.697	49.76
814.872	49.54
815.047	52.58
815.222	49.9
815.397	50.44
815.572	48.44
815.747	48.54
815.922	47.77
816.097	48.62
816.272	48.52
816.447	47.31
816.622	46.76
816.797	46.35
816.972	43.7
817.147	45.38
817.322	46.31
817.496	46.37
817.671	46.49
817.846	45.45
818.021	44.96
818.196	45.55
818.371	45.77
818.545	44.28
818.72	44.37
818.895	45.36
819.069	45.16
819.244	43.79
819.419	42.38
819.594	42.86
819.768	42.5
819.943	42.66
820.117	41.08
820.292	40.24
820.467	39.85
820.641	38.19
820.816	35.65
820.99	35.39
821.165	34.76
821.339	34.38
821.514	33.85
821.688	34.02
821.863	33.4
822.037	33.26
822.212	33.26
822.386	33.3
822.56	33.41
822.735	33.74
822.909	33.45
823.084	33.28
823.258	33.47
823.432	33.11
823.606	32.75
823.781	33.08
823.955	33.24
824.129	33.03
824.303	33.18
824.478	32.99
824.652	33.24
824.826	33.53
825	33.93
825.174	33.9
825.348	34.75
825.523	35.06
825.697	34.8
825.871	35.41
826.045	35.62
826.219	35.64
826.393	35.82
826.567	35.99
826.741	36.11
826.915	36.05
827.089	35.97
827.263	36.03
827.437	35.9
827.611	36.29
827.784	36.03
827.958	36.2
828.132	36.38
828.306	36.54
828.48	36.99
828.654	37.31
828.827	37.25
829.001	37.6
829.175	37.92
829.349	38.71
829.522	39.16
829.696	39.13
829.87	40.22
830.044	39.82
830.217	40.76
830.391	40.72
830.565	39.41
830.738	40.16
830.912	40.8
831.085	40.27
831.259	40.59
831.432	39.67
831.606	41.01
831.779	40.7
831.953	41.95
832.126	41.93
832.3	40.64
832.473	41.1
832.647	40.7
832.82	40.16
832.994	39.75
833.167	39.44
833.34	39.67
833.514	39.56
833.687	38.49
833.86	37.4
834.034	37.12
834.207	37.94
834.38	37.71
834.553	38.09
834.727	37.71
834.9	37.19
835.073	36.83
835.246	36.25
835.419	35.53
835.593	36.41
835.766	36.14
835.939	37.31
836.112	36.77
836.285	37.32
836.458	36.1
836.631	35.38
836.804	37.99
836.977	39.92
837.15	41.7
837.323	42.77
837.496	42.23
837.669	44.92
837.842	43.28
838.015	46.58
838.188	48.39
838.361	51.4
838.533	53.1
838.706	51.61
838.879	51.64
839.052	49.8
839.225	47.96
839.398	49.62
839.57	48.84
839.743	48.65
839.916	45.31
840.088	43.07
840.261	43.41
840.434	43.45
840.607	44.24
840.779	42.9
840.952	43.4
841.124	46.68
841.297	45.81
841.47	46.3
841.642	47.33
841.815	49.87
841.987	50.05
842.16	49.12
842.332	50.7
842.505	49.93
842.677	51
842.85	51.54
843.022	50.4
843.194	52.44
843.367	52.99
843.539	51
843.712	50.52
843.884	53.42
844.056	55.7
844.229	57.28
844.401	56.7
844.573	56.37
844.745	58.72
844.918	58.58
845.09	55.97
845.262	56.55
845.434	59.21
845.606	60.21
845.779	63.33
845.951	63.18
846.123	60.69
846.295	68.55
846.467	65.62
846.639	67.03
846.811	66.59
846.983	73.29
847.155	74.17
847.327	69.68
847.499	68.92
847.671	67.46
847.843	64.17
848.015	66.31
848.187	60.48
848.359	66.22
848.531	63.87
848.703	65.06
848.875	60.9
849.047	59.73
849.218	59.8
849.39	59.21
849.562	58.37
849.734	60.21
849.905	57.85
850.077	59.16
850.249	58.87
850.421	58.85
850.592	56.75
850.764	57.56
850.936	64.06
851.107	65.83
851.279	64.45
851.451	64.89
851.622	63.85
851.794	65.24
851.965	69.66
852.137	64.48
852.308	66.08
852.48	67.06
852.651	71.05
852.823	65.57
852.994	68.96
853.166	70.01
853.337	71.89
853.509	72.83
853.68	75.53
853.851	72.77
854.023	78.97
854.194	76.07
854.365	78.76
854.537	76.46
854.708	79.51
854.879	77.94
855.05	80.18
855.222	74.13
855.393	73.24
855.564	70.92
855.735	66.07
855.906	62.09
856.078	61.08
856.249	59.59
856.42	61.12
856.591	57.05
856.762	58.44
856.933	59.32
857.104	57.49
857.275	57.44
857.446	58.85
857.617	63.46
857.788	68.19
857.959	70.32
858.13	70.58
858.301	65.24
858.472	61.27
858.643	56.8
858.814	55.66
858.985	60.63
859.155	62.34
859.326	56.78
859.497	55.76
859.668	55.63
859.839	58.66
860.009	57.49
860.18	58.9
860.351	66.41
860.522	67.43
860.692	61.2
860.863	63.75
861.034	66.38
861.204	66.69
861.375	66.87
861.546	64.09
861.716	59.5
861.887	56.82
862.057	58.74
862.228	52.95
862.398	53.14
862.569	58.06
862.739	55.49
862.91	53.1
863.08	56.91
863.251	55.53
863.421	56.63
863.592	58.44
863.762	61.89
863.932	62.01
864.103	65.2
864.273	66.71
864.443	65.89
864.614	63.53
864.784	64.86
864.954	61.48
865.125	66.37
865.295	68.51
865.465	65.59
865.635	64.4
865.805	69.08
865.976	68.59
866.146	67.13
866.316	66.05
866.486	65.76
866.656	63.73
866.826	65.42
866.996	61.18
867.166	60.19
867.336	61.12
867.506	57.9
867.676	53.25
867.846	50.37
868.016	55.09
868.186	59.82
868.356	56.88
868.526	58.32
868.696	60.94
868.866	58.63
869.036	59.7
869.206	57.62
869.376	62.02
869.545	65.34
869.715	67.51
869.885	63.53
870.055	63.17
870.224	69.79
870.394	64.62
870.564	63.28
870.734	63.15
870.903	58.34
871.073	58.9
871.243	56.02
871.412	51.69
871.582	55.02
871.751	59.55
871.921	59
872.091	57
872.26	60.97
872.43	58.91
872.599	62.01
872.769	66.37
872.938	75.15
873.108	73.43
873.277	69.4
873.446	65.43
873.616	59.64
873.785	56.59
873.955	54.15
874.124	55.9
874.293	56.75
874.463	62.2
874.632	63.44
874.801	59.72
874.971	57.51
875.14	56.57
875.309	56.61
875.478	60.72
875.647	61.58
875.817	62.09
875.986	61.55
876.155	62.78
876.324	61.52
876.493	54.19
876.662	49.06
876.831	49.7
877	51.1
877.17	50.17
877.339	49.01
877.508	47.5
877.677	45.06
877.846	36.75
878.015	37.53
878.184	28.62
878.352	31.47
878.521	33.12
878.69	39.06
878.859	40.55
879.028	42.15
879.197	38.72
879.366	36.95
879.534	38.36
879.703	38.13
879.872	36.5
880.041	36.93
880.21	34.92
880.378	33.54
880.547	30.89
880.716	31.63
880.884	29.02
881.053	28.58
881.222	28.48
881.39	28.86
881.559	29.44
881.727	29.19
881.896	28.65
882.065	29.04
882.233	29.68
882.402	29.49
882.57	29.03
882.739	29.74
882.907	29.98
883.076	30
883.244	29.83
883.412	30.76
883.581	30.96
883.749	30.89
883.918	30.13
884.086	30.57
884.254	31.21
884.423	30.94
884.591	31.04
884.759	32.3
884.927	32.89
885.096	32.23
885.264	30.77
885.432	30.24
885.6	31.84
885.769	33.01
885.937	32.92
886.105	32.28
886.273	31.77
886.441	30.14
886.609	30.5
886.777	31.02
886.945	31.68
887.113	36.59
887.281	37.77
887.449	39.17
887.617	43.95
887.785	42.49
887.953	42.28
888.121	44.58
888.289	48.5
888.457	51.51
888.625	53.01
888.793	53.03
888.961	44.67
889.129	48.52
889.296	48.89
889.464	45.3
889.632	45.33
889.8	48.78
889.967	50.28
890.135	53.38
