Data from 2938726__Reflection_01.txt Node
Date: Sun Mar 15 19:45:04 EDT 2015
User: robert
Spectrometer: USB4E03002
Autoset integration time: false
Trigger mode: 4
Integration Time (sec): 1.000000E-1
Scans to average: 10
Electric dark correction enabled: false
Nonlinearity correction enabled: false
Boxcar width: 5
Stray light correction enabled: false
XAxis mode: Wavelengths
Stop averaging: false
Number of Pixels in Spectrum: 3648
>>>>>Begin Spectral Data<<<<<
177.575	610
177.794	16400
178.014	-143.75
178.233	712.5
178.452	42
178.672	11.67
178.891	33.85
179.11	13.95
179.33	-26.06
179.549	-86.75
179.768	-98
179.987	-760.71
180.207	-636.36
180.426	-888.57
180.645	-867.86
180.864	3666.67
181.084	238.89
181.303	158.77
181.522	138.29
181.741	127.06
181.96	218.26
182.179	220.83
182.398	-204.24
182.618	-282.88
182.837	-98.47
183.056	-207.29
183.275	-311.59
183.494	-126.42
183.713	-25.28
183.932	20.27
184.151	-157.3
184.37	118.52
184.589	117.95
184.808	113.64
185.027	193.33
185.246	226.53
185.465	133.33
185.684	87.38
185.903	50.27
186.122	-17.43
186.341	10.06
186.56	-12.89
186.779	-23.37
186.998	-33.33
187.216	-30.99
187.435	-14.45
187.654	-101.45
187.873	-276.06
188.092	445.71
188.311	83.16
188.53	150.81
188.748	600
188.967	144.57
189.186	106.78
189.405	128.87
189.623	227.88
189.842	17.57
190.061	12.73
190.28	16.48
190.498	25.49
190.717	-53.17
190.936	-129.45
191.154	-44.25
191.373	-67.66
191.592	-423.9
191.81	-171.1
192.029	-304.98
192.248	-263.56
192.466	-276.1
192.685	-256.07
192.904	-244.26
193.122	-251.19
193.341	-202.47
193.559	-228.3
193.778	-282.28
193.996	-82.86
194.215	-72.11
194.433	-51.58
194.652	-82.13
194.87	-140.6
195.089	-129.59
195.307	-125.57
195.526	-185.41
195.744	-206.31
195.963	-462.96
196.181	-1788.89
196.399	-866.27
196.618	4195
196.836	2587.5
197.055	-871.21
197.273	-435.79
197.491	-619.48
197.71	1173.08
197.928	-838.1
198.146	326.25
198.365	-4344.44
198.583	-264.13
198.801	-1277.78
199.019	-34.39
199.238	-70.75
199.456	-97.5
199.674	-44.94
199.892	-86.73
200.111	-402.22
200.329	-67.27
200.547	-5.23
200.765	4.96
200.983	32.08
201.202	26.64
201.42	39.24
201.638	27.63
201.856	21.88
202.074	12.61
202.292	44.39
202.51	60.6
202.728	68.96
202.946	63.98
203.165	72.97
203.383	5.37
203.601	-9.87
203.819	-30.88
204.037	-19.65
204.255	0.61
204.473	6.43
204.691	-53.17
204.909	-39.93
205.127	-66.33
205.345	-68.58
205.562	-31.44
205.78	0.15
205.998	1.16
206.216	-0
206.434	-18.77
206.652	-26.61
206.87	-34.96
207.088	-13.3
207.306	-27.48
207.523	-13.87
207.741	-36.39
207.959	-108.28
208.177	-182.23
208.395	-233.5
208.612	-307.01
208.83	-352.14
209.048	-234.58
209.266	-222.4
209.483	-358.6
209.701	-170.08
209.919	-224.22
210.136	-66.6
210.354	-71.84
210.572	-120.98
210.79	-135.2
211.007	-211.79
211.225	-148.38
211.442	-124.71
211.66	-83.08
211.878	-63.48
212.095	-198.79
212.313	-233.33
212.53	-270.66
212.748	-301.98
212.966	-179.64
213.183	-159.88
213.401	-119.44
213.618	-128.17
213.836	-136.05
214.053	-180.06
214.271	-188.43
214.488	-39.46
214.705	-27.84
214.923	-16.9
215.14	-15.24
215.358	-25.61
215.575	-42.44
215.793	-60.51
216.01	-69.85
216.227	-52.52
216.445	-89.59
216.662	-68.02
216.879	-80.3
217.097	-57.54
217.314	-88.03
217.531	-61.8
217.749	-43.96
217.966	-69.5
218.183	-69.38
218.4	-17.75
218.618	-52.21
218.835	-35.49
219.052	-13.27
219.269	-16.23
219.487	-17.34
219.704	-9.28
219.921	-21.71
220.138	-21.89
220.355	4.37
220.572	-2.66
220.79	-13.16
221.007	5.84
221.224	1.37
221.441	-17.65
221.658	-27.95
221.875	-30.65
222.092	-34.79
222.309	-24.1
222.526	-24.42
222.743	-34.82
222.96	-29.62
223.177	-34.89
223.394	-24.27
223.611	-22.4
223.828	-21.43
224.045	-15.36
224.262	-10.58
224.479	-16.86
224.696	-15.38
224.913	-2.28
225.13	-2.26
225.347	-3.88
225.564	-3.72
225.781	-17.31
225.997	-16.33
226.214	-10.34
226.431	-6.08
226.648	-5.09
226.865	-2.62
227.082	-0.51
227.298	-4.53
227.515	-2.76
227.732	-0.62
227.949	0.27
228.165	1.31
228.382	1.37
228.599	0.41
228.816	0.1
229.032	0.26
229.249	0.1
229.466	-0.75
229.682	-0.29
229.899	-1.06
230.116	-2.1
230.332	-2.97
230.549	-3.88
230.765	-4.07
230.982	-2.96
231.199	-2.32
231.415	-4.16
231.632	-4.26
231.848	-5.77
232.065	-6.35
232.281	-5.77
232.498	-6.43
232.714	-5.65
232.931	-3.19
233.147	-2.88
233.364	-5.67
233.58	-7.87
233.797	-7.33
234.013	-6.73
234.23	-5.98
234.446	-6.61
234.662	-6.64
234.879	-5.77
235.095	-7.17
235.312	-6.75
235.528	-8.15
235.744	-9.28
235.961	-8.8
236.177	-9.17
236.393	-10.53
236.61	-10.13
236.826	-10.6
237.042	-11.26
237.258	-10.78
237.475	-7.64
237.691	-9.32
237.907	-8.89
238.123	-5.38
238.339	-6.39
238.556	-3.76
238.772	-2.48
238.988	-2.82
239.204	-0.68
239.42	-1.98
239.636	-1.82
239.853	-3.37
240.069	-3.63
240.285	-3.57
240.501	-4.65
240.717	-2.2
240.933	-1.05
241.149	-0.71
241.365	0.17
241.581	-0.79
241.797	1.04
242.013	0.41
242.229	0.92
242.445	1.5
242.661	1.86
242.877	2.17
243.093	1.42
243.309	0.48
243.525	0.64
243.741	-0.06
243.957	0.36
244.173	0.04
244.388	0.47
244.604	-0.18
244.82	-0.72
245.036	-0.59
245.252	-0.28
245.468	-0.3
245.683	0.32
245.899	0.17
246.115	0.24
246.331	0.37
246.547	0.4
246.762	0.83
246.978	0.77
247.194	1.11
247.409	1.72
247.625	1.94
247.841	1.97
248.057	1.54
248.272	1.63
248.488	1.72
248.703	1.47
248.919	1.29
249.135	1.27
249.35	1.35
249.566	1.08
249.782	-0.17
249.997	-1.67
250.213	-1.37
250.428	-0.82
250.644	-0.78
250.859	-0.85
251.075	-0.97
251.29	-1.1
251.506	-1.88
251.721	-1
251.937	-0.96
252.152	-0.19
252.368	0.15
252.583	0.18
252.798	-0.22
253.014	-0.43
253.229	-0.31
253.445	-0.37
253.66	0.84
253.875	0.5
254.091	0.54
254.306	-0.69
254.521	-1.8
254.737	-2.71
254.952	-4.02
255.167	-4.27
255.383	-3.42
255.598	-3.05
255.813	-2.05
256.028	-3.5
256.244	-3.28
256.459	-4.12
256.674	-3.56
256.889	-3.99
257.104	-3.25
257.32	-1.42
257.535	-1.34
257.75	-1.52
257.965	-1.52
258.18	-1.52
258.395	-0.98
258.61	-0.2
258.826	0.33
259.041	0.26
259.256	0.73
259.471	1.1
259.686	0.94
259.901	0.99
260.116	0.82
260.331	0.75
260.546	0.77
260.761	0.95
260.976	0.71
261.191	-0.15
261.406	0.25
261.621	0.45
261.836	0.12
262.05	-0.12
262.265	-0.12
262.48	0.13
262.695	0.09
262.91	0.57
263.125	0.25
263.34	0.12
263.555	1.17
263.769	0.26
263.984	-1.08
264.199	-1.18
264.414	-1.19
264.629	-1.42
264.843	-1.81
265.058	-1.33
265.273	-1.35
265.488	-1.96
265.702	-1.58
265.917	-1.57
266.132	-0.59
266.346	-0.09
266.561	0.8
266.776	0.92
266.99	0.85
267.205	1.27
267.42	1.05
267.634	0.38
267.849	0.15
268.063	0.08
268.278	0.22
268.492	0.23
268.707	0.3
268.922	-0.46
269.136	-0.98
269.351	-0.22
269.565	-0.25
269.78	0.22
269.994	0.6
270.209	1.06
270.423	1.07
270.637	1.33
270.852	0.96
271.066	0.98
271.281	1.18
271.495	1.31
271.709	0.97
271.924	0.82
272.138	0.14
272.353	0.37
272.567	0.77
272.781	0.55
272.996	0.09
273.21	0.12
273.424	0.19
273.638	-0.29
273.853	-0.69
274.067	-0.54
274.281	-0.8
274.495	-0.33
274.71	-0.6
274.924	-1.59
275.138	-1.79
275.352	-1.46
275.566	-1.28
275.781	-1.41
275.995	-0.49
276.209	-0.18
276.423	-0.66
276.637	-0.68
276.851	-1.8
277.065	-1.5
277.279	-1.34
277.493	-0.81
277.707	-1.44
277.921	-1.55
278.135	-1.93
278.349	-2.95
278.563	-2.97
278.777	-3
278.991	-3.2
279.205	-1.79
279.419	-2.41
279.633	-1.95
279.847	-2
280.061	-1.44
280.275	-1.34
280.489	-0.8
280.703	-0.27
280.917	-0.22
281.131	-0.19
281.344	0.02
281.558	-0.69
281.772	-0.93
281.986	-1.25
282.2	-1.5
282.414	-1.41
282.627	-1.34
282.841	-1.28
283.055	-1.31
283.269	-1.31
283.482	-1.38
283.696	-1.44
283.91	-1.08
284.123	-0.42
284.337	-0.33
284.551	-0.27
284.764	-0.2
284.978	-0.6
285.192	-0.83
285.405	-0.75
285.619	-0.87
285.833	-0.87
286.046	-0.81
286.26	-1.18
286.473	-1.64
286.687	-1.59
286.9	-1.61
287.114	-1.75
287.327	-1.67
287.541	-1.76
287.754	-2.35
287.968	-2.16
288.181	-2.32
288.395	-1.99
288.608	-1.28
288.822	-0.94
289.035	-0.92
289.248	-0.88
289.462	-0.7
289.675	-0.23
289.889	0.27
290.102	0.78
290.315	1
290.529	1.02
290.742	0.73
290.955	0.69
291.169	0.56
291.382	0.73
291.595	0.68
291.808	0.8
292.022	0.32
292.235	-0.08
292.448	-0.13
292.661	-0.45
292.875	-0.35
293.088	0.16
293.301	0.32
293.514	0.22
293.727	-0.15
293.94	0.01
294.153	-0.36
294.367	-0.03
294.58	0.08
294.793	0.2
295.006	0.29
295.219	0.36
295.432	0.23
295.645	-0.28
295.858	0.22
296.071	0.38
296.284	0.59
296.497	0.58
296.71	0.4
296.923	0.4
297.136	0.35
297.349	0.33
297.562	0.51
297.775	0.13
297.988	0.22
298.201	-0.05
298.414	-0.22
298.626	-0.2
298.839	-0.09
299.052	-0.03
299.265	-0.18
299.478	-0.45
299.691	-0.44
299.903	-0.61
300.116	-0.37
300.329	-0.26
300.542	-0.13
300.755	0.09
300.967	0.07
301.18	-0.02
301.393	0.18
301.605	-0.12
301.818	0.2
302.031	0.02
302.243	0.29
302.456	0.6
302.669	0.55
302.881	0.24
303.094	0.29
303.307	-0.1
303.519	0.06
303.732	0.1
303.944	0.47
304.157	0.41
304.37	0.6
304.582	0.15
304.795	-0.24
305.007	-0.21
305.22	0.1
305.432	0.24
305.645	0.51
305.857	0.16
306.069	-0.01
306.282	-0.1
306.494	0.28
306.707	0.22
306.919	0.62
307.132	1.02
307.344	1.37
307.556	1.47
307.769	1.53
307.981	1.48
308.193	1.5
308.406	1.59
308.618	1.66
308.83	1.38
309.043	1.39
309.255	1.52
309.467	1.12
309.679	1.13
309.892	0.94
310.104	0.6
310.316	0.48
310.528	0.69
310.74	0.63
310.953	0.84
311.165	0.73
311.377	0.77
311.589	0.55
311.801	0.7
312.013	0.64
312.225	0.66
312.437	0.95
312.649	1.03
312.862	0.96
313.074	1.33
313.286	1.36
313.498	1.55
313.71	1.64
313.922	1.85
314.134	1.87
314.346	1.34
314.558	1.26
314.77	1.22
314.982	1.37
315.193	1.32
315.405	1.08
315.617	1.13
315.829	0.96
316.041	1.16
316.253	1.27
316.465	1.3
316.677	2.17
316.888	1.86
317.1	1.43
317.312	1.16
317.524	1.24
317.736	1.55
317.947	1.32
318.159	1.32
318.371	0.79
318.583	0.83
318.794	0.46
319.006	0.17
319.218	0.91
319.43	1.55
319.641	2.11
319.853	2.38
320.064	2.44
320.276	2.08
320.488	2.44
320.699	3.38
320.911	3.66
321.123	4.7
321.334	4.48
321.546	4.68
321.757	4.49
321.969	4.19
322.18	3.68
322.392	3.55
322.603	4.29
322.815	4.9
323.026	4.32
323.238	3.98
323.449	3.34
323.661	4.14
323.872	4.41
324.083	4.59
324.295	5.3
324.506	6.07
324.718	6.1
324.929	6.76
325.14	6.56
325.352	7.24
325.563	7.63
325.774	8.05
325.986	8.27
326.197	8.53
326.408	8.88
326.62	8.74
326.831	8.98
327.042	9.33
327.253	9.6
327.464	10.04
327.676	9.72
327.887	10.39
328.098	10.73
328.309	10.85
328.52	10.88
328.732	11.31
328.943	11.58
329.154	11.5
329.365	11.42
329.576	11.21
329.787	10.81
329.998	11.58
330.209	10.97
330.42	11.9
330.631	12.46
330.842	12.81
331.053	12.54
331.264	13.34
331.475	13.84
331.686	14.4
331.897	15.18
332.108	15.8
332.319	16.06
332.53	16.65
332.741	16.48
332.952	16.73
333.163	16.95
333.374	17.26
333.585	17.53
333.795	17.77
334.006	17.89
334.217	17.62
334.428	17.79
334.639	17.9
334.849	17.72
335.06	17.9
335.271	17.61
335.482	17.32
335.692	17.93
335.903	17.47
336.114	17.56
336.325	17.76
336.535	17.47
336.746	17.64
336.957	17.84
337.167	18.53
337.378	18.58
337.589	19.12
337.799	19.51
338.01	19.38
338.22	19.78
338.431	20.05
338.642	20.09
338.852	20.12
339.063	19.87
339.273	19.32
339.484	18.85
339.694	19.04
339.905	18.19
340.115	18.16
340.326	18.1
340.536	17.98
340.746	17.5
340.957	17.61
341.167	17.97
341.378	18.47
341.588	19.16
341.799	19.06
342.009	18.63
342.219	18.87
342.43	19.08
342.64	18.88
342.85	18.61
343.061	19.05
343.271	18.9
343.481	18.87
343.691	18.63
343.902	18.39
344.112	18.72
344.322	19.08
344.532	19.1
344.743	18.75
344.953	18.99
345.163	19.28
345.373	19.11
345.583	19.2
345.793	19.05
346.004	18.94
346.214	18.75
346.424	18.78
346.634	18.67
346.844	18.84
347.054	19.04
347.264	19.41
347.474	19.35
347.684	19.1
347.894	18.86
348.104	18.94
348.314	18.62
348.524	18.8
348.734	18.9
348.944	18.85
349.154	18.74
349.364	18.56
349.574	18.09
349.784	17.94
349.994	18.12
350.204	18.04
350.413	17.97
350.623	18.67
350.833	18.51
351.043	18.36
351.253	18.29
351.463	18.03
351.672	17.58
351.882	17.61
352.092	17.7
352.302	17.76
352.511	17.82
352.721	17.68
352.931	17.19
353.141	17.42
353.35	17.23
353.56	17.29
353.77	17.43
353.979	18.12
354.189	18.07
354.399	18.12
354.608	17.96
354.818	18.07
355.027	18.2
355.237	18.36
355.447	18.22
355.656	18.3
355.866	18.23
356.075	18.18
356.285	18.08
356.494	18.02
356.704	17.92
356.913	18.03
357.123	17.99
357.332	18.05
357.542	17.63
357.751	17.53
357.96	17.6
358.17	17.84
358.379	17.8
358.589	17.56
358.798	17.56
359.007	17.81
359.217	17.78
359.426	17.89
359.635	17.96
359.845	18.34
360.054	18.3
360.263	18.16
360.472	17.7
360.682	17.73
360.891	17.72
361.1	17.72
361.309	17.32
361.519	17.29
361.728	17.23
361.937	17.03
362.146	16.92
362.355	17.04
362.564	17.07
362.774	17.14
362.983	17.05
363.192	17.27
363.401	17.17
363.61	17.5
363.819	17.52
364.028	17.55
364.237	17.7
364.446	17.79
364.655	17.76
364.864	17.78
365.073	18.03
365.282	18.24
365.491	17.85
365.7	17.98
365.909	17.89
366.118	17.83
366.327	17.67
366.536	17.79
366.745	17.9
366.954	17.6
367.162	17.51
367.371	17.08
367.58	16.85
367.789	16.93
367.998	16.85
368.207	16.98
368.415	17.02
368.624	16.75
368.833	16.52
369.042	16.17
369.25	15.94
369.459	15.78
369.668	16.01
369.877	16.16
370.085	16.2
370.294	16.27
370.503	16.07
370.711	15.84
370.92	16.28
371.129	16.14
371.337	16.28
371.546	16.49
371.754	16.59
371.963	16.32
372.171	16.03
372.38	15.96
372.589	15.73
372.797	15.86
373.006	15.87
373.214	15.91
373.423	15.86
373.631	15.66
373.84	15.85
374.048	16.24
374.256	16.26
374.465	16.42
374.673	16.53
374.882	16.7
375.09	16.49
375.298	16.66
375.507	16.35
375.715	16.43
375.923	16.4
376.132	16.25
376.34	15.76
376.548	15.67
376.757	15.85
376.965	15.9
377.173	15.93
377.381	15.87
377.59	15.87
377.798	15.94
378.006	16.09
378.214	16.16
378.423	16.15
378.631	16.17
378.839	16.54
379.047	16.32
379.255	16.24
379.463	16.14
379.671	16.27
379.879	16.21
380.088	16.13
380.296	15.94
380.504	15.89
380.712	16.15
380.92	16.05
381.128	15.75
381.336	15.93
381.544	15.84
381.752	16.05
381.96	16.13
382.168	16
382.376	16.05
382.584	16.13
382.791	16.36
382.999	16.07
383.207	16.45
383.415	16.37
383.623	16.57
383.831	16.67
384.039	16.59
384.247	16.51
384.454	16.5
384.662	16.6
384.87	16.72
385.078	16.78
385.285	16.94
385.493	16.76
385.701	16.72
385.909	16.56
386.116	16.46
386.324	16.53
386.532	16.52
386.739	16.57
386.947	16.4
387.155	16.25
387.362	16.08
387.57	15.94
387.778	15.73
387.985	16.14
388.193	16.23
388.4	16.27
388.608	15.95
388.816	15.82
389.023	15.96
389.231	15.92
389.438	15.72
389.646	15.73
389.853	15.68
390.061	16.01
390.268	15.74
390.475	15.72
390.683	15.51
390.89	15.81
391.098	16.01
391.305	15.95
391.512	16.15
391.72	16.45
391.927	16.46
392.135	16.57
392.342	16.53
392.549	16.55
392.756	16.37
392.964	16.57
393.171	16.4
393.378	16.45
393.586	16.42
393.793	16.42
394	16.41
394.207	16.31
394.414	16.36
394.622	16.54
394.829	16.68
395.036	16.64
395.243	16.82
395.45	16.9
395.657	16.62
395.864	16.54
396.072	16.5
396.279	16.59
396.486	16.94
396.693	16.89
396.9	16.55
397.107	16.7
397.314	16.86
397.521	16.74
397.728	16.9
397.935	17.12
398.142	17.14
398.349	17.16
398.556	17.02
398.763	16.74
398.97	16.78
399.177	16.74
399.383	16.51
399.59	16.52
399.797	16.55
400.004	16.49
400.211	16.59
400.418	16.79
400.625	16.91
400.831	16.96
401.038	17.09
401.245	17.13
401.452	17.37
401.658	17.69
401.865	17.68
402.072	17.72
402.279	17.62
402.485	17.56
402.692	17.6
402.899	17.58
403.105	17.52
403.312	17.42
403.519	17.55
403.725	17.75
403.932	17.72
404.138	17.82
404.345	17.88
404.552	18
404.758	18.03
404.965	17.95
405.171	18.01
405.378	18.15
405.584	18.27
405.791	18.23
405.997	18.04
406.204	18.18
406.41	18.29
406.617	18.12
406.823	18.25
407.029	18.19
407.236	18.34
407.442	18.35
407.649	18.42
407.855	18.5
408.061	18.44
408.268	18.55
408.474	18.18
408.68	18.04
408.887	18.28
409.093	18.3
409.299	18.41
409.505	18.4
409.712	18.28
409.918	18.22
410.124	18.01
410.33	18.07
410.537	18.09
410.743	18.15
410.949	18.37
411.155	18.27
411.361	18.1
411.567	18.21
411.773	18.25
411.98	18.41
412.186	18.42
412.392	18.66
412.598	18.83
412.804	18.74
413.01	18.93
413.216	18.67
413.422	18.63
413.628	18.76
413.834	18.75
414.04	18.65
414.246	18.64
414.452	18.73
414.658	18.87
414.864	18.76
415.07	18.73
415.275	18.71
415.481	18.69
415.687	18.87
415.893	18.84
416.099	18.57
416.305	18.73
416.511	18.77
416.716	18.88
416.922	18.96
417.128	19
417.334	19.27
417.539	19.31
417.745	19.49
417.951	19.59
418.157	19.62
418.362	19.83
418.568	19.79
418.774	19.92
418.979	19.85
419.185	19.83
419.391	19.85
419.596	19.78
419.802	19.88
420.008	19.95
420.213	19.88
420.419	19.88
420.624	19.97
420.83	20.02
421.035	19.95
421.241	20.02
421.446	20.03
421.652	20.13
421.857	20.08
422.063	20.08
422.268	20.06
422.474	20.09
422.679	20.15
422.885	20.06
423.09	20.02
423.295	20.05
423.501	20
423.706	20.04
423.911	19.92
424.117	20.08
424.322	20.1
424.527	20.11
424.733	20.05
424.938	20
425.143	20.18
425.349	20.14
425.554	20.19
425.759	20.27
425.964	20.19
426.169	20.33
426.375	20.2
426.58	20.21
426.785	20.11
426.99	20.22
427.195	20.33
427.4	20.19
427.605	20.32
427.811	20.15
428.016	20.09
428.221	20.05
428.426	20.04
428.631	20.16
428.836	19.91
429.041	19.96
429.246	20.1
429.451	20.07
429.656	19.97
429.861	20.1
430.066	20.33
430.271	20.37
430.476	20.45
430.681	20.29
430.886	20.36
431.09	20.55
431.295	20.57
431.5	20.48
431.705	20.4
431.91	20.48
432.115	20.31
432.32	20.34
432.524	20.32
432.729	20.37
432.934	20.46
433.139	20.44
433.343	20.48
433.548	20.63
433.753	20.6
433.958	20.8
434.162	21.08
434.367	21.29
434.572	21.34
434.776	21.56
434.981	21.68
435.186	21.91
435.39	22.03
435.595	22.15
435.799	22.17
436.004	22.42
436.209	22.39
436.413	22.25
436.618	22.16
436.822	22.16
437.027	22.05
437.231	21.88
437.436	21.77
437.64	21.68
437.845	21.52
438.049	21.38
438.253	21.19
438.458	21.2
438.662	21.13
438.867	21.21
439.071	21.09
439.275	21.05
439.48	21.06
439.684	20.97
439.888	20.88
440.093	20.9
440.297	21.04
440.501	21.01
440.706	20.98
440.91	21.05
441.114	20.92
441.318	20.98
441.523	20.98
441.727	20.98
441.931	21.04
442.135	21.11
442.339	21.1
442.543	21.1
442.748	21.06
442.952	20.96
443.156	20.95
443.36	21.04
443.564	21.03
443.768	21.09
443.972	21.19
444.176	21.3
444.38	21.36
444.584	21.44
444.788	21.43
444.992	21.54
445.196	21.62
445.4	21.55
445.604	21.57
445.808	21.57
446.012	21.56
446.216	21.54
446.42	21.49
446.624	21.4
446.828	21.3
447.032	21.3
447.235	21.3
447.439	21.29
447.643	21.28
447.847	21.26
448.051	21.29
448.254	21.18
448.458	21.09
448.662	21.09
448.866	21.1
449.069	21.22
449.273	21.19
449.477	21.19
449.681	21.21
449.884	21.25
450.088	21.22
450.292	21.16
450.495	21.24
450.699	21.34
450.902	21.19
451.106	21.21
451.31	21.3
451.513	21.27
451.717	21.31
451.92	21.3
452.124	21.29
452.327	21.31
452.531	21.17
452.734	21.28
452.938	21.28
453.141	21.3
453.345	21.34
453.548	21.14
453.752	21.07
453.955	20.92
454.158	21.01
454.362	21.01
454.565	20.94
454.769	21.08
454.972	21.04
455.175	20.91
455.379	21
455.582	20.9
455.785	20.93
455.988	20.91
456.192	21.01
456.395	20.87
456.598	20.78
456.801	20.92
457.005	20.79
457.208	20.68
457.411	20.92
457.614	20.96
457.817	21.04
458.021	21.14
458.224	21.2
458.427	21.23
458.63	21.24
458.833	21.32
459.036	21.3
459.239	21.35
459.442	21.43
459.645	21.36
459.848	21.32
460.051	21.34
460.254	21.46
460.457	21.45
460.66	21.43
460.863	21.4
461.066	21.4
461.269	21.38
461.472	21.45
461.675	21.47
461.878	21.47
462.081	21.51
462.284	21.45
462.486	21.21
462.689	21.23
462.892	21.23
463.095	21.4
463.298	21.39
463.5	21.36
463.703	21.28
463.906	21.3
464.109	21.29
464.311	21.26
464.514	21.28
464.717	21.31
464.92	21.23
465.122	21.34
465.325	21.23
465.528	21.22
465.73	21.26
465.933	21.35
466.135	21.42
466.338	21.53
466.541	21.48
466.743	21.53
466.946	21.57
467.148	21.64
467.351	21.56
467.553	21.56
467.756	21.69
467.958	21.83
468.161	21.8
468.363	21.67
468.566	21.56
468.768	21.67
468.971	21.68
469.173	21.58
469.375	21.64
469.578	21.49
469.78	21.62
469.983	21.51
470.185	21.4
470.387	21.43
470.59	21.54
470.792	21.48
470.994	21.41
471.196	21.46
471.399	21.58
471.601	21.6
471.803	21.75
472.005	21.68
472.208	21.6
472.41	21.54
472.612	21.47
472.814	21.41
473.016	21.55
473.218	21.57
473.421	21.57
473.623	21.45
473.825	21.47
474.027	21.52
474.229	21.55
474.431	21.52
474.633	21.7
474.835	21.75
475.037	21.9
475.239	21.78
475.441	21.94
475.643	21.79
475.845	21.95
476.047	21.94
476.249	21.95
476.451	22.05
476.653	22.2
476.855	22.09
477.057	22.21
477.258	22.01
477.46	22.04
477.662	21.96
477.864	22.05
478.066	22.01
478.268	22.05
478.469	22.04
478.671	21.95
478.873	21.94
479.075	21.94
479.276	21.92
479.478	22.04
479.68	22.01
479.882	22.04
480.083	22.07
480.285	22.1
480.487	22.12
480.688	22.09
480.89	22.17
481.091	22.21
481.293	22.22
481.495	22.3
481.696	22.33
481.898	22.43
482.099	22.45
482.301	22.49
482.502	22.5
482.704	22.48
482.905	22.53
483.107	22.55
483.308	22.59
483.51	22.64
483.711	22.58
483.913	22.6
484.114	22.58
484.315	22.6
484.517	22.63
484.718	22.66
484.92	22.64
485.121	22.61
485.322	22.64
485.524	22.66
485.725	22.66
485.926	22.68
486.127	22.65
486.329	22.74
486.53	22.74
486.731	22.7
486.932	22.66
487.134	22.77
487.335	22.82
487.536	22.76
487.737	22.75
487.938	22.71
488.139	22.72
488.341	22.78
488.542	22.7
488.743	22.74
488.944	22.8
489.145	22.88
489.346	22.84
489.547	22.82
489.748	22.91
489.949	22.89
490.15	22.97
490.351	23
490.552	22.99
490.753	23.03
490.954	23
491.155	22.92
491.356	22.87
491.557	22.87
491.758	22.91
491.959	22.87
492.159	22.94
492.36	22.9
492.561	22.86
492.762	22.87
492.963	22.89
493.164	22.91
493.364	22.99
493.565	23.01
493.766	22.98
493.967	22.99
494.167	22.97
494.368	22.82
494.569	22.86
494.769	22.93
494.97	22.88
495.171	22.93
495.371	22.91
495.572	22.91
495.773	23
495.973	23.09
496.174	23.01
496.375	23.16
496.575	23.32
496.776	23.4
496.976	23.45
497.177	23.49
497.377	23.48
497.578	23.5
497.778	23.48
497.979	23.53
498.179	23.52
498.38	23.59
498.58	23.63
498.78	23.6
498.981	23.56
499.181	23.52
499.382	23.54
499.582	23.55
499.782	23.64
499.983	23.58
500.183	23.53
500.383	23.49
500.584	23.45
500.784	23.3
500.984	23.26
501.184	23.26
501.385	23.24
501.585	23.26
501.785	23.24
501.985	23.22
502.185	23.24
502.386	23.28
502.586	23.31
502.786	23.38
502.986	23.4
503.186	23.38
503.386	23.37
503.586	23.38
503.786	23.38
503.987	23.26
504.187	23.28
504.387	23.45
504.587	23.37
504.787	23.45
504.987	23.46
505.187	23.59
505.387	23.66
505.587	23.73
505.786	23.73
505.986	23.7
506.186	23.86
506.386	23.86
506.586	23.93
506.786	23.99
506.986	24.09
507.186	24.18
507.386	24.16
507.585	24.19
507.785	24.26
507.985	24.32
508.185	24.38
508.384	24.41
508.584	24.46
508.784	24.36
508.984	24.41
509.183	24.41
509.383	24.35
509.583	24.36
509.782	24.26
509.982	24.28
510.182	24.37
510.381	24.4
510.581	24.42
510.781	24.37
510.98	24.5
511.18	24.49
511.379	24.38
511.579	24.43
511.778	24.53
511.978	24.64
512.177	24.63
512.377	24.61
512.576	24.59
512.776	24.61
512.975	24.59
513.175	24.59
513.374	24.67
513.573	24.76
513.773	24.83
513.972	24.77
514.172	24.82
514.371	24.89
514.57	24.87
514.77	25
514.969	25.1
515.168	25.24
515.367	25.15
515.567	25.2
515.766	25.27
515.965	25.33
516.164	25.37
516.364	25.44
516.563	25.41
516.762	25.51
516.961	25.51
517.16	25.5
517.359	25.41
517.559	25.46
517.758	25.51
517.957	25.52
518.156	25.52
518.355	25.47
518.554	25.47
518.753	25.47
518.952	25.45
519.151	25.54
519.35	25.51
519.549	25.53
519.748	25.47
519.947	25.45
520.146	25.37
520.345	25.4
520.544	25.41
520.743	25.39
520.942	25.45
521.141	25.45
521.339	25.32
521.538	25.46
521.737	25.59
521.936	25.65
522.135	25.59
522.333	25.77
522.532	25.79
522.731	25.88
522.93	25.94
523.129	25.95
523.327	26.02
523.526	26.1
523.725	26.08
523.923	26.14
524.122	26.11
524.321	26.23
524.519	26.22
524.718	26.22
524.917	26.26
525.115	26.25
525.314	26.26
525.512	26.33
525.711	26.32
525.909	26.32
526.108	26.27
526.306	26.39
526.505	26.37
526.703	26.4
526.902	26.41
527.1	26.47
527.299	26.5
527.497	26.55
527.696	26.55
527.894	26.55
528.092	26.6
528.291	26.65
528.489	26.65
528.688	26.66
528.886	26.67
529.084	26.65
529.283	26.63
529.481	26.65
529.679	26.66
529.877	26.63
530.076	26.64
530.274	26.64
530.472	26.56
530.67	26.6
530.869	26.64
531.067	26.66
531.265	26.76
531.463	26.82
531.661	26.87
531.859	26.93
532.057	26.99
532.255	27.06
532.454	27.11
532.652	27.2
532.85	27.19
533.048	27.2
533.246	27.21
533.444	27.22
533.642	27.21
533.84	27.14
534.038	27.05
534.236	27.04
534.434	27.07
534.632	27.1
534.83	27.08
535.027	27.15
535.225	27.18
535.423	27.18
535.621	27.21
535.819	27.26
536.017	27.42
536.215	27.55
536.412	27.73
536.61	27.77
536.808	27.8
537.006	27.87
537.203	27.92
537.401	28.07
537.599	28.25
537.797	28.28
537.994	28.37
538.192	28.54
538.39	28.7
538.587	28.83
538.785	29.03
538.983	29.14
539.18	29.49
539.378	29.74
539.575	29.98
539.773	30.14
539.97	30.42
540.168	30.62
540.366	30.69
540.563	30.79
540.761	30.87
540.958	30.98
541.155	31.12
541.353	31.1
541.55	31.11
541.748	31.05
541.945	31.08
542.143	31.03
542.34	31.05
542.537	31.13
542.735	31.24
542.932	31.29
543.129	31.44
543.327	31.58
543.524	31.87
543.721	32.23
543.919	32.6
544.116	32.95
544.313	33.48
544.51	33.97
544.708	34.45
544.905	34.87
545.102	35.33
545.299	35.6
545.496	35.85
545.693	35.94
545.891	35.91
546.088	35.81
546.285	35.7
546.482	35.42
546.679	35.15
546.876	34.73
547.073	34.35
547.27	34.01
547.467	33.62
547.664	33.34
547.861	32.97
548.058	32.77
548.255	32.64
548.452	32.46
548.649	32.26
548.846	32.03
549.043	31.89
549.24	31.7
549.437	31.56
549.633	31.54
549.83	31.33
550.027	31.25
550.224	31.12
550.421	30.81
550.618	30.6
550.814	30.4
551.011	30.25
551.208	30.14
551.405	30
551.601	29.84
551.798	29.71
551.995	29.61
552.191	29.58
552.388	29.43
552.585	29.51
552.781	29.47
552.978	29.47
553.175	29.43
553.371	29.4
553.568	29.39
553.764	29.4
553.961	29.26
554.157	29.22
554.354	29.28
554.55	29.16
554.747	29.02
554.943	29.03
555.14	29.03
555.336	29.09
555.533	29.04
555.729	28.96
555.926	28.85
556.122	28.75
556.318	28.79
556.515	28.47
556.711	28.39
556.907	28.46
557.104	28.39
557.3	28.34
557.496	28.3
557.693	28.19
557.889	28.27
558.085	28.3
558.281	28.39
558.478	28.24
558.674	28.43
558.87	28.62
559.066	28.71
559.262	28.72
559.459	28.71
559.655	28.73
559.851	28.88
560.047	28.8
560.243	28.87
560.439	28.92
560.635	28.92
560.831	28.85
561.027	28.89
561.223	28.7
561.419	28.76
561.615	28.85
561.811	28.89
562.007	28.91
562.203	29.03
562.399	28.91
562.595	28.96
562.791	29.04
562.987	29.03
563.183	29.03
563.379	29.26
563.575	29.16
563.771	29.18
563.966	29.09
564.162	29.17
564.358	29.2
564.554	29.4
564.75	29.4
564.945	29.51
565.141	29.58
565.337	29.58
565.533	29.4
565.728	29.34
565.924	29.43
566.12	29.51
566.315	29.41
566.511	29.47
566.707	29.42
566.902	29.34
567.098	29.31
567.293	29.22
567.489	29.15
567.684	29.31
567.88	29.39
568.076	29.34
568.271	29.32
568.467	29.39
568.662	29.26
568.858	29.24
569.053	29.18
569.248	29.2
569.444	29.25
569.639	29.28
569.835	29.26
570.03	29.4
570.225	29.49
570.421	29.6
570.616	29.73
570.812	29.86
571.007	29.92
571.202	30.12
571.397	30.08
571.593	30.16
571.788	30.24
571.983	30.31
572.178	30.33
572.374	30.2
572.569	30.12
572.764	30.01
572.959	29.94
573.154	29.93
573.35	29.93
573.545	30
573.74	30.06
573.935	30.05
574.13	30.05
574.325	30.13
574.52	30.27
574.715	30.4
574.91	30.57
575.105	30.7
575.3	30.88
575.495	30.94
575.69	31.14
575.885	31.29
576.08	31.47
576.275	31.58
576.47	31.68
576.665	32.06
576.86	32.21
577.055	32.38
577.25	32.49
577.444	32.45
577.639	32.54
577.834	32.65
578.029	32.75
578.224	32.82
578.418	32.9
578.613	33.02
578.808	32.85
579.003	32.94
579.197	32.84
579.392	32.87
579.587	33.04
579.781	33.15
579.976	33.02
580.171	33.02
580.365	33.07
580.56	33.08
580.755	32.92
580.949	32.92
581.144	32.78
581.338	32.89
581.533	32.91
581.727	32.81
581.922	32.64
582.116	32.69
582.311	32.62
582.505	32.73
582.7	32.81
582.894	32.82
583.089	32.77
583.283	32.79
583.478	32.7
583.672	32.66
583.866	32.78
584.061	33.16
584.255	33.35
584.449	33.49
584.644	33.36
584.838	33.65
585.032	33.89
585.226	34.2
585.421	34.31
585.615	34.63
585.809	34.97
586.003	35.13
586.198	35.16
586.392	35.31
586.586	35.41
586.78	35.51
586.974	35.36
587.168	35.33
587.363	35.14
587.557	35.14
587.751	34.94
587.945	34.72
588.139	34.66
588.333	34.55
588.527	34.36
588.721	34.19
588.915	34.11
589.109	33.75
589.303	33.63
589.497	33.55
589.691	33.62
589.885	33.58
590.079	33.66
590.273	33.49
590.466	33.48
590.66	33.5
590.854	33.83
591.048	33.97
591.242	34.42
591.436	34.67
591.629	34.85
591.823	34.97
592.017	35.33
592.211	35.39
592.404	35.64
592.598	35.75
592.792	35.8
592.986	35.6
593.179	35.64
593.373	35.56
593.567	35.43
593.76	35.48
593.954	35.43
594.147	35.22
594.341	35.2
594.535	35.33
594.728	35.25
594.922	35.17
595.115	35.04
595.309	35.01
595.502	34.98
595.696	34.95
595.889	34.76
596.083	34.81
596.276	34.64
596.47	34.77
596.663	34.55
596.856	34.64
597.05	34.71
597.243	34.77
597.437	34.79
597.63	34.91
597.823	35.05
598.017	35.26
598.21	35.21
598.403	35.46
598.596	35.38
598.79	35.53
598.983	35.56
599.176	35.49
599.369	35.59
599.563	35.59
599.756	35.57
599.949	35.6
600.142	35.41
600.335	35.32
600.528	35.43
600.722	35.34
600.915	35.4
601.108	35.2
601.301	35.31
601.494	35.45
601.687	35.41
601.88	35.4
602.073	35.53
602.266	35.59
602.459	35.66
602.652	35.42
602.845	35.56
603.038	35.39
603.231	35.49
603.424	35.41
603.617	35.2
603.809	35.34
604.002	35.22
604.195	34.97
604.388	34.89
604.581	34.93
604.774	35.01
604.966	35.04
605.159	35.09
605.352	35.15
605.545	35.23
605.737	35.39
605.93	35.35
606.123	35.58
606.316	35.84
606.508	36.1
606.701	36.29
606.894	36.45
607.086	36.59
607.279	37.04
607.471	37.33
607.664	37.75
607.857	38.24
608.049	38.95
608.242	39.59
608.434	40.6
608.627	41.71
608.819	43.1
609.012	44.86
609.204	46.81
609.397	48.73
609.589	50.77
609.782	53.08
609.974	55.34
610.166	57.47
610.359	59.78
610.551	61.68
610.743	63.58
610.936	64.84
611.128	65.8
611.32	66.45
611.513	66.65
611.705	66.73
611.897	66.24
612.09	65.62
612.282	64.79
612.474	63.33
612.666	62.1
612.858	60.58
613.051	59.45
613.243	58.28
613.435	57
613.627	55.94
613.819	54.9
614.011	54
614.203	53.06
614.395	52.33
614.588	51.61
614.78	50.61
614.972	49.84
615.164	48.93
615.356	48.05
615.548	47.17
615.74	46.27
615.932	45.36
616.124	44.67
616.315	43.95
616.507	43.39
616.699	42.74
616.891	42.48
617.083	42.15
617.275	41.9
617.467	41.48
617.659	41.32
617.85	41.05
618.042	40.61
618.234	40.34
618.426	40.05
618.618	39.62
618.809	39.64
619.001	39.42
619.193	39.21
619.384	39.08
619.576	39.21
619.768	39.16
619.959	39.2
620.151	39.65
620.343	39.54
620.534	39.49
620.726	39.51
620.917	39.55
621.109	39.66
621.301	39.98
621.492	39.97
621.684	39.74
621.875	39.69
622.067	39.72
622.258	39.73
622.45	39.62
622.641	39.85
622.832	39.81
623.024	39.71
623.215	39.62
623.407	39.26
623.598	39.43
623.789	39.67
623.981	39.71
624.172	39.88
624.363	39.89
624.555	40.16
624.746	40.12
624.937	40.1
625.129	40.13
625.32	40.19
625.511	40.32
625.702	40.11
625.893	40.01
626.085	39.93
626.276	39.78
626.467	39.71
626.658	39.44
626.849	39.46
627.04	39.43
627.231	39.57
627.422	39.58
627.614	39.7
627.805	39.84
627.996	40.01
628.187	40.13
628.378	40.24
628.569	40.59
628.76	41.02
628.951	41.26
629.142	41.61
629.332	42.06
629.523	42.32
629.714	42.6
629.905	42.81
630.096	42.89
630.287	43.06
630.478	43.11
630.669	43.03
630.859	42.84
631.05	42.59
631.241	42.44
631.432	41.95
631.623	41.63
631.813	41.3
632.004	40.96
632.195	40.45
632.385	39.99
632.576	39.76
632.767	39.16
632.957	38.97
633.148	38.6
633.339	38.34
633.529	38.04
633.72	37.97
633.91	37.69
634.101	37.7
634.292	37.86
634.482	37.84
634.673	37.79
634.863	37.81
635.054	37.78
635.244	37.98
635.435	37.97
635.625	37.96
635.815	37.85
636.006	37.88
636.196	37.53
636.387	37.45
636.577	37.45
636.767	37.48
636.958	37.69
637.148	37.72
637.338	37.57
637.529	37.53
637.719	37.53
637.909	37.48
638.099	37.53
638.29	37.73
638.48	37.61
638.67	37.58
638.86	37.53
639.05	37.21
639.241	37.32
639.431	37.35
639.621	37.22
639.811	37.37
640.001	37.29
640.191	37.33
640.381	37.34
640.571	37.51
640.761	37.62
640.951	37.55
641.141	37.83
641.331	37.72
641.521	37.78
641.711	37.81
641.901	37.7
642.091	37.64
642.281	37.49
642.471	37.52
642.661	37.49
642.851	37.21
643.041	37.19
643.231	37.19
643.42	37.15
643.61	37.14
643.8	37.18
643.99	37.36
644.18	37.72
644.369	37.94
644.559	37.94
644.749	38.08
644.939	38.67
645.128	38.51
645.318	38.33
645.508	38.36
645.697	38.25
645.887	38.46
646.076	38.32
646.266	38.3
646.456	38.17
646.645	38.16
646.835	38.12
647.024	38
647.214	38.2
647.403	38.42
647.593	38.39
647.782	38.69
647.972	38.76
648.161	38.77
648.351	38.72
648.54	38.97
648.73	39.27
648.919	39.45
649.108	39.48
649.298	39.81
649.487	39.58
649.677	39.72
649.866	39.7
650.055	39.66
650.244	39.73
650.434	39.95
650.623	39.96
650.812	39.83
651.002	39.82
651.191	39.79
651.38	39.66
651.569	39.83
651.758	39.77
651.947	39.78
652.137	39.73
652.326	39.71
652.515	39.7
652.704	39.4
652.893	39.22
653.082	39.01
653.271	38.99
653.46	39.03
653.649	39.09
653.838	39.27
654.027	39.12
654.216	39.01
654.405	39.22
654.594	38.87
654.783	38.71
654.972	38.96
655.161	39.24
655.35	39.21
655.539	39.28
655.728	39.25
655.916	38.96
656.105	39
656.294	39.02
656.483	38.92
656.672	38.87
656.86	38.95
657.049	39.01
657.238	38.88
657.427	38.88
657.615	38.67
657.804	38.63
657.993	38.88
658.181	38.78
658.37	38.77
658.559	38.55
658.747	38.87
658.936	38.89
659.125	38.85
659.313	38.77
659.502	38.82
659.69	38.76
659.879	38.78
660.067	38.76
660.256	38.82
660.444	38.96
660.633	39.23
660.821	39.18
661.01	39.41
661.198	39.33
661.387	39.28
661.575	39.27
661.763	39.69
661.952	39.52
662.14	39.29
662.328	39.35
662.517	39.1
662.705	38.92
662.893	39.06
663.082	38.74
663.27	38.66
663.458	38.86
663.646	38.77
663.834	38.51
664.023	38.5
664.211	38.49
664.399	38.37
664.587	38.54
664.775	38.62
664.963	38.36
665.152	38.23
665.34	37.89
665.528	37.82
665.716	38.04
665.904	37.79
666.092	37.62
666.28	38.06
666.468	38.2
666.656	38.28
666.844	38.12
667.032	37.94
667.22	38.3
667.408	38.69
667.596	38.37
667.784	37.94
667.971	38.22
668.159	38.68
668.347	38.25
668.535	38.07
668.723	37.87
668.911	38.13
669.098	38.22
669.286	38.11
669.474	37.92
669.662	38.15
669.849	38.45
670.037	38.35
670.225	38.48
670.413	38.67
670.6	38.79
670.788	39.02
670.976	39.05
671.163	39.15
671.351	39.19
671.538	39.32
671.726	39.21
671.913	39.01
672.101	39.02
672.289	38.61
672.476	38.44
672.664	38.31
672.851	38.55
673.039	38.46
673.226	38.3
673.413	38.44
673.601	38.45
673.788	38.68
673.976	38.8
674.163	38.41
674.35	38.5
674.538	38.67
674.725	38.82
674.912	38.29
675.1	38.14
675.287	38.47
675.474	38.18
675.662	38.02
675.849	37.85
676.036	38.13
676.223	38.7
676.411	38.84
676.598	38.72
676.785	38.68
676.972	38.67
677.159	38.54
677.346	38.41
677.533	38.65
677.721	38.73
677.908	38.89
678.095	38.79
678.282	38.57
678.469	38.38
678.656	38.51
678.843	38.61
679.03	38.7
679.217	38.91
679.404	39.22
679.591	39.29
679.778	39.42
679.964	39.17
680.151	38.98
680.338	39.16
680.525	39.31
680.712	39.13
680.899	39.14
681.086	39.34
681.272	39.22
681.459	39
681.646	38.96
681.833	38.87
682.02	39.08
682.206	39.07
682.393	38.9
682.58	39.06
682.766	39.1
682.953	38.89
683.14	38.91
683.326	38.84
683.513	38.67
683.7	38.43
683.886	38.57
684.073	38.62
684.259	38.7
684.446	38.59
684.632	38.5
684.819	38.93
685.005	39.21
685.192	39.02
685.378	39.24
685.565	39.47
685.751	40
685.938	39.91
686.124	40.13
686.31	40
686.497	40.39
686.683	40.11
686.87	39.77
687.056	39.65
687.242	39.89
687.429	39.99
687.615	39.73
687.801	39.33
687.987	39.48
688.174	39.31
688.36	39.53
688.546	39.63
688.732	39.75
688.918	39.79
689.105	39.76
689.291	39.82
689.477	39.54
689.663	39.31
689.849	39.46
690.035	39.58
690.221	39.78
690.407	39.74
690.593	39.25
690.779	39.24
690.965	39.42
691.151	39.43
691.337	39.15
691.523	39.21
691.709	39.85
691.895	39.62
692.081	39.44
692.267	39.2
692.453	39.2
692.639	39.52
692.825	39.74
693.011	39.49
693.196	39.39
693.382	39
693.568	38.79
693.754	38.52
693.94	38.6
694.125	38.44
694.311	38.19
694.497	38.08
694.682	37.63
694.868	37.44
695.054	37.1
695.239	37.27
695.425	37.83
695.611	38.14
695.796	38.1
695.982	37.92
696.168	38.02
696.353	38.22
696.539	38.26
696.724	38.47
696.91	38.49
697.095	39.01
697.281	38.91
697.466	38.46
697.652	38.58
697.837	38.66
698.023	38.94
698.208	38.9
698.393	38.86
698.579	39
698.764	38.83
698.949	38.6
699.135	38.4
699.32	38.47
699.505	38.49
699.691	38.5
699.876	38.25
700.061	38.15
700.246	38.18
700.432	38.12
700.617	37.9
700.802	38.09
700.987	38.31
701.172	38.58
701.358	38.69
701.543	38.82
701.728	38.81
701.913	38.91
702.098	38.77
702.283	39.04
702.468	39.18
702.653	39.22
702.838	39.35
703.023	39.44
703.208	38.61
703.393	38.58
703.578	38.86
703.763	38.83
703.948	39.11
704.133	39.73
704.318	39.71
704.503	39.76
704.688	40.16
704.873	40.41
705.057	40.8
705.242	41.67
705.427	42.08
705.612	42.68
705.797	43.34
705.981	43.81
706.166	43.78
706.351	43.87
706.536	44.1
706.72	44.57
706.905	44.73
707.09	45.36
707.274	45.51
707.459	44.98
707.644	44.98
707.828	44.92
708.013	44.98
708.197	44.77
708.382	44.81
708.567	44.91
708.751	44.79
708.936	44.44
709.12	43.83
709.305	44.08
709.489	44.06
709.673	44.12
709.858	43.53
710.042	43.18
710.227	42.83
710.411	42.83
710.596	42.93
710.78	42.72
710.964	42.81
711.149	42.83
711.333	42.28
711.517	42.56
711.702	42.25
711.886	42.45
712.07	42.52
712.254	42.45
712.438	41.8
712.623	40.96
712.807	40.56
712.991	40.09
713.175	40.06
713.359	40.07
713.544	39.68
713.728	39.51
713.912	39.1
714.096	38.85
714.28	38.61
714.464	38.78
714.648	38.81
714.832	38.61
715.016	38.78
715.2	38.31
715.384	38.07
715.568	38.2
715.752	37.78
715.936	37.79
716.12	37.42
716.304	37.57
716.488	37.36
716.671	37.61
716.855	37.4
717.039	37.6
717.223	37.45
717.407	37.42
717.59	36.91
717.774	36.98
717.958	36.64
718.142	36.55
718.325	36.92
718.509	37.3
718.693	36.85
718.877	37.27
719.06	37.49
719.244	37.7
719.428	37.48
719.611	37.65
719.795	37.73
719.978	37.99
720.162	37.9
720.345	37.52
720.529	37.2
720.713	37.72
720.896	37.59
721.08	36.91
721.263	36.53
721.446	36.84
721.63	36.9
721.813	36.68
721.997	37
722.18	37.07
722.364	36.2
722.547	35.99
722.73	35.65
722.914	35.35
723.097	35.09
723.28	35.37
723.464	35.35
723.647	35.36
723.83	35.44
724.013	35.08
724.197	35.42
724.38	36.39
724.563	36.41
724.746	36.26
724.929	36.28
725.112	36.46
725.296	36.22
725.479	35.66
725.662	35.39
725.845	35.03
726.028	34.96
726.211	35.03
726.394	34.67
726.577	34.82
726.76	34.99
726.943	35.19
727.126	35.5
727.309	35.29
727.492	35.61
727.675	35.79
727.858	35.91
728.041	36.08
728.224	36.15
728.407	35.95
728.589	35.96
728.772	36.03
728.955	35.85
729.138	35.7
729.321	36.4
729.503	36.38
729.686	36.06
729.869	36.31
730.052	36.07
730.234	36.09
730.417	36.67
730.6	36.21
730.782	35.85
730.965	35.58
731.148	35.68
731.33	35.3
731.513	35.5
731.695	35.75
731.878	35.41
732.061	35.67
732.243	35.4
732.426	34.89
732.608	35.27
732.791	35.66
732.973	36.43
733.156	36.16
733.338	36.18
733.52	35.66
733.703	35.58
733.885	35.81
734.068	36.15
734.25	35.9
734.432	35.89
734.615	36.36
734.797	36.14
734.979	35.09
735.162	35.2
735.344	35.64
735.526	36.16
735.708	36.82
735.891	36.57
736.073	35.93
736.255	36.23
736.437	36.13
736.619	35.73
736.802	35.57
736.984	36.29
737.166	36.68
737.348	36.11
737.53	35.66
737.712	35.11
737.894	35.35
738.076	35.52
738.258	35.34
738.44	35.39
738.622	35.29
738.804	35.99
738.986	35.93
739.168	35.54
739.35	35.69
739.532	35.75
739.714	35.37
739.896	34.96
740.078	35.04
740.259	35.8
740.441	35.88
740.623	36.36
740.805	35.27
740.987	34.87
741.168	34.39
741.35	34.16
741.532	34.41
741.714	34.9
741.895	34.88
742.077	34.63
742.259	33.98
742.44	34.03
742.622	33.47
742.804	34.05
742.985	34.46
743.167	34.63
743.348	34.51
743.53	34.79
743.711	35.09
743.893	35.66
744.075	35.48
744.256	35.25
744.438	35.08
744.619	35.55
744.8	35.41
744.982	35.52
745.163	36.25
745.345	36.79
745.526	36.86
745.707	36.53
745.889	36.09
746.07	35.53
746.252	36.23
746.433	36.61
746.614	35.66
746.795	35.6
746.977	34.87
747.158	34.6
747.339	33.26
747.52	32.74
747.702	32.78
747.883	32.83
748.064	33.04
748.245	32.42
748.426	31.8
748.607	31.74
748.788	31.99
748.97	32.34
749.151	31.77
749.332	32.92
749.513	32.71
749.694	32.21
749.875	32.28
750.056	32.14
750.237	32.4
750.418	32.57
750.599	32.44
750.78	32
750.96	31.74
751.141	32.56
751.322	31.94
751.503	31.8
751.684	31.93
751.865	31.8
752.046	32.26
752.226	31.73
752.407	32.03
752.588	32.24
752.769	32.17
752.949	31.94
753.13	31.27
753.311	31.91
753.492	32.21
753.672	32.27
753.853	33.03
754.034	33.11
754.214	33.02
754.395	33.1
754.575	33.99
754.756	34.67
754.937	34.57
755.117	34.4
755.298	33.91
755.478	34.41
755.659	34.59
755.839	34.23
756.02	34.2
756.2	34.06
756.381	35.08
756.561	34.07
756.741	33.85
756.922	34.31
757.102	34.11
757.283	34.33
757.463	34.04
757.643	33.51
757.823	33.85
758.004	33.57
758.184	34.21
758.364	32.5
758.545	32.52
758.725	32.33
758.905	32.75
759.085	33.38
759.265	33.63
759.446	33.5
759.626	34
759.806	33.05
759.986	33.67
760.166	33.82
760.346	34.55
760.526	35.11
760.706	35.55
760.886	34.75
761.066	34.55
761.246	34.13
761.426	33.84
761.606	33.34
761.786	34.04
761.966	33.91
762.146	33.43
762.326	33.68
762.506	32.96
762.686	32.69
762.866	32.84
763.046	32.65
763.225	32.91
763.405	32.89
763.585	33.26
763.765	32.8
763.945	32.43
764.124	32.9
764.304	32.4
764.484	32.79
764.664	32.6
764.843	33.13
765.023	33.01
765.203	33
765.382	33.13
765.562	32.25
765.741	32.32
765.921	32.45
766.101	32.15
766.28	31.84
766.46	31.4
766.639	31.14
766.819	30.84
766.998	30.74
767.178	30.55
767.357	30.37
767.537	30.57
767.716	30.93
767.896	30.95
768.075	30.45
768.254	30.49
768.434	30.79
768.613	31.2
768.792	30.9
768.972	31.48
769.151	30.95
769.33	30.66
769.51	32.17
769.689	31.61
769.868	31.95
770.047	32.59
770.226	32.96
770.406	32.54
770.585	32.29
770.764	32.27
770.943	32.34
771.122	32.01
771.301	31.99
771.48	30.92
771.66	31.11
771.839	31.31
772.018	29.82
772.197	30.15
772.376	30.28
772.555	31.31
772.734	31.7
772.913	30.74
773.092	31.62
773.271	32.05
773.449	31.65
773.628	31.65
773.807	30.35
773.986	31.47
774.165	31.24
774.344	30.91
774.523	29.36
774.701	28.35
774.88	29.46
775.059	28.74
775.238	28.27
775.417	27.97
775.595	28.08
775.774	28.12
775.953	27.79
776.131	27.63
776.31	27.54
776.489	28.24
776.667	29.18
776.846	29.45
777.025	29.9
777.203	29.8
777.382	30.51
777.56	29.69
777.739	30.31
777.917	30.01
778.096	29.44
778.274	31.05
778.453	30.89
778.631	30.56
778.81	29.45
778.988	29.94
779.166	30.41
779.345	30.81
779.523	31.33
779.702	30.75
779.88	31.67
780.058	32.22
780.237	31.75
780.415	32.27
780.593	31.68
780.771	31.85
780.95	30.84
781.128	31.02
781.306	31.02
781.484	31.2
781.662	31.38
781.841	30.78
782.019	30.1
782.197	30.39
782.375	30.08
782.553	29.49
782.731	29.45
782.909	30.11
783.087	29.68
783.265	29.41
783.443	28.45
783.621	29.07
783.799	30.11
783.977	30.92
784.155	30.14
784.333	31.14
784.511	32.18
784.689	31.6
784.867	29.78
785.045	29.64
785.223	28.88
785.4	29.92
785.578	30.16
785.756	30.5
785.934	30.54
786.112	31.06
786.289	30.55
786.467	29.76
786.645	30.66
786.823	32.78
787	32.68
787.178	33.36
787.356	32.57
787.533	32.87
787.711	31.42
787.889	30.68
788.066	29.96
788.244	29.73
788.421	30.51
788.599	29.52
788.776	28.5
788.954	28.21
789.131	27.86
789.309	28.4
789.486	27.92
789.664	27.57
789.841	28.2
790.019	28.19
790.196	27.03
790.373	26.89
790.551	27.12
790.728	27.04
790.906	27.16
791.083	26.69
791.26	27.22
791.437	26.38
791.615	26.14
791.792	25.48
791.969	25.61
792.146	26.46
792.324	27.16
792.501	28.16
792.678	29.54
792.855	29.82
793.032	30.83
793.209	30.38
793.387	31.03
793.564	30.94
793.741	30.99
793.918	30.52
794.095	29.67
794.272	29.13
794.449	28.92
794.626	29.44
794.803	29.59
794.98	28.02
795.157	28.63
795.334	28.9
795.511	29.17
795.688	29.95
795.864	30.82
796.041	30.65
796.218	30.9
796.395	29.91
796.572	29.25
796.749	29.77
796.925	30.84
797.102	30.09
797.279	28.12
797.456	29.21
797.632	27.91
797.809	26.24
797.986	26.16
798.162	25.74
798.339	26.12
798.516	25.23
798.692	24.45
798.869	24.62
799.046	24.82
799.222	26.7
799.399	25.93
799.575	27.32
799.752	28.88
799.928	29.57
800.105	29.45
800.281	29.76
800.458	29.36
800.634	29.5
800.811	29.18
800.987	27.72
801.163	26.6
801.34	26
801.516	25.73
801.692	24.19
801.869	24
802.045	24.34
802.221	23.75
802.398	22.28
802.574	22.73
802.75	22.39
802.926	22.89
803.103	23.14
803.279	23.35
803.455	23.1
803.631	24.56
803.807	24.81
803.983	24.09
804.16	25.02
804.336	27.22
804.512	26.51
804.688	25.74
804.864	26.16
805.04	25.57
805.216	25.88
805.392	25.18
805.568	25.07
805.744	25.91
805.92	25.45
806.096	26.45
806.272	25.65
806.448	24.99
806.623	26.71
806.799	25.75
806.975	26.41
807.151	27.08
807.327	25.86
807.503	26.72
807.678	25.92
807.854	28.03
808.03	25.82
808.206	25.65
808.381	26.26
808.557	25.48
808.733	26.85
808.908	27.01
809.084	26.3
809.26	27.54
809.435	27.21
809.611	27.22
809.787	25.19
809.962	24.8
810.138	24.43
810.313	25.43
810.489	27.34
810.664	26.22
810.84	26.69
811.015	26.15
811.191	25.07
811.366	24.05
811.542	24.99
811.717	26.12
811.892	27.3
812.068	28.94
812.243	27.6
812.419	25.45
812.594	26.57
812.769	25.56
812.944	25.62
813.12	26.93
813.295	25.66
813.47	25.29
813.645	24.79
813.821	24.06
813.996	23.87
814.171	25.08
814.346	25.43
814.521	24.99
814.697	25.52
814.872	25.59
815.047	26.12
815.222	27.63
815.397	25.62
815.572	24.11
815.747	24.24
815.922	23.4
816.097	22.81
816.272	23.31
816.447	24.45
816.622	24.87
816.797	25.63
816.972	26.4
817.147	25.77
817.322	27.35
817.496	28.54
817.671	29
817.846	29.49
818.021	30.36
818.196	29.53
818.371	29.45
818.545	28.77
818.72	27.28
818.895	26.01
819.069	26.65
819.244	26.75
819.419	27.33
819.594	27.72
819.768	27.64
819.943	26.88
820.117	27.88
820.292	28.13
820.467	27.95
820.641	27.94
820.816	28.66
820.99	28.55
821.165	28.46
821.339	28.12
821.514	28.12
821.688	28.35
821.863	28.46
822.037	28.46
822.212	28.44
822.386	28.59
822.56	28.71
822.735	28.62
822.909	28.72
823.084	28.49
823.258	28.55
823.432	28.45
823.606	28.34
823.781	28.16
823.955	27.54
824.129	27.35
824.303	27.41
824.478	27.34
824.652	27.2
824.826	26.59
825	26.42
825.174	26.44
825.348	26.21
825.523	25.87
825.697	26.55
825.871	26.83
826.045	26.49
826.219	26.34
826.393	26.83
826.567	26.34
826.741	27.12
826.915	27.32
827.089	27.74
827.263	27.7
827.437	27.33
827.611	26.65
827.784	27.27
827.958	27.28
828.132	27.19
828.306	26.91
828.48	26.93
828.654	26.74
828.827	26.74
829.001	25.68
829.175	24.75
829.349	25.51
829.522	25.4
829.696	24.51
829.87	24.31
830.044	23.99
830.217	23.04
830.391	24.5
830.565	24.29
830.738	24.06
830.912	24.24
831.085	25.9
831.259	25.02
831.432	25.02
831.606	25.9
831.779	27.22
831.953	28.07
832.126	28.57
832.3	26.27
832.473	24.53
832.647	25.03
832.82	24.21
832.994	23.53
833.167	24.25
833.34	25
833.514	24.77
833.687	23.84
833.86	23.44
834.034	23.55
834.207	24.81
834.38	25.71
834.553	26.15
834.727	27.35
834.9	27.53
835.073	26.5
835.246	26.06
835.419	25.3
835.593	25.39
835.766	25.01
835.939	25.21
836.112	24.47
836.285	23.85
836.458	22.54
836.631	21.87
836.804	21.99
836.977	22.27
837.15	22.21
837.323	21.09
837.496	22.63
837.669	21.3
837.842	19.83
838.015	17.68
838.188	17.63
838.361	17.22
838.533	17.53
838.706	18.37
838.879	18.73
839.052	18.19
839.225	21.24
839.398	18.93
839.57	19.45
839.743	19.32
839.916	23.49
840.088	24.95
840.261	25.91
840.434	24.11
840.607	22
840.779	24.64
840.952	23.4
841.124	20.98
841.297	19.84
841.47	22.74
841.642	23.54
841.815	20.24
841.987	18.85
842.16	18.47
842.332	16.79
842.505	17.16
842.677	16.02
842.85	17.04
843.022	18.41
843.194	20.89
843.367	16.89
843.539	13.36
843.712	13.85
843.884	16.8
844.056	14.06
844.229	16.73
844.401	18.09
844.573	16.37
844.745	13.85
844.918	7.97
845.09	11.12
845.262	10.69
845.434	12.01
845.606	14.7
845.779	9.76
845.951	11.96
846.123	12.38
846.295	13.56
846.467	13.32
846.639	14.08
846.811	17.23
846.983	15.68
847.155	15.15
847.327	16.83
847.499	19
847.671	17.92
847.843	16.98
848.015	16.84
848.187	15.88
848.359	16.45
848.531	18.5
848.703	22.43
848.875	23.08
849.047	28.55
849.218	30.22
849.39	25.25
849.562	28.38
849.734	29.3
849.905	32.4
850.077	35.82
850.249	34.04
850.421	35.5
850.592	30.65
850.764	27.63
850.936	24.21
851.107	24.75
851.279	25.71
851.451	24.28
851.622	26.5
851.794	24.73
851.965	23.17
852.137	28.5
852.308	25.42
852.48	26.64
852.651	28.4
852.823	25.57
852.994	22.89
853.166	18.17
853.337	14.12
853.509	14.26
853.68	10.42
853.851	13.06
854.023	8.85
854.194	8.17
854.365	7.67
854.537	6.79
854.708	9.42
854.879	12.09
855.05	15.93
855.222	17.34
855.393	19.83
855.564	20
855.735	14.93
855.906	16.27
856.078	19.43
856.249	19.71
856.42	16.41
856.591	14.61
856.762	12.64
856.933	17.53
857.104	21.62
857.275	16.66
857.446	15.64
857.617	16.62
857.788	18.53
857.959	15.56
858.13	18.58
858.301	20.75
858.472	24.92
858.643	24.06
858.814	19.79
858.985	19.85
859.155	19.29
859.326	17.81
859.497	18.5
859.668	15.62
859.839	20.65
860.009	13.52
860.18	8.58
860.351	7.41
860.522	5.35
860.692	7.39
860.863	-0.11
861.034	1.95
861.204	6.98
861.375	5.22
861.546	2.09
861.716	2.55
861.887	11.07
862.057	14.83
862.228	13.72
862.398	16.97
862.569	15.73
862.739	21.75
862.91	22.63
863.08	24.69
863.251	22.99
863.421	25.1
863.592	19.14
863.762	23.45
863.932	24.2
864.103	25.7
864.273	26.8
864.443	24.27
864.614	27.3
864.784	21.76
864.954	16.46
865.125	21.19
865.295	19.62
865.465	23.34
865.635	16.95
865.805	14.42
865.976	15.15
866.146	11.61
866.316	13.94
866.486	10.08
866.656	12.28
866.826	13.23
866.996	6.37
867.166	8.24
867.336	6.78
867.506	7.84
867.676	4.58
867.846	1.06
868.016	2.38
868.186	5.03
868.356	2.65
868.526	0.17
868.696	1.75
868.866	8.02
869.036	10.42
869.206	14.53
869.376	14.83
869.545	24.6
869.715	30.15
869.885	26.61
870.055	26.25
870.224	28.73
870.394	35.34
870.564	37.74
870.734	31.66
870.903	31.16
871.073	28.92
871.243	29.1
871.412	28.28
871.582	23.78
871.751	26.97
871.921	27.06
872.091	26.96
872.26	22.22
872.43	21.44
872.599	25.54
872.769	24.64
872.938	25.05
873.108	28.24
873.277	22.67
873.446	19.27
873.616	17.01
873.785	12.22
873.955	11.9
874.124	13.62
874.293	9.86
874.463	8.82
874.632	10.66
874.801	7.13
874.971	5.34
875.14	11.05
875.309	13.98
875.478	17.89
875.647	17.46
875.817	20.96
875.986	20.68
876.155	24.43
876.324	20.55
876.493	18.83
876.662	22.02
876.831	17.81
877	8.29
877.17	3.21
877.339	-0.83
877.508	2.81
877.677	2.22
877.846	-1.75
878.015	3.1
878.184	8.23
878.352	2.82
878.521	1.92
878.69	4.05
878.859	8.41
879.028	14.21
879.197	8.98
879.366	9.87
879.534	6.28
879.703	9.45
879.872	11
880.041	12.98
880.21	15.53
880.378	15.2
880.547	14.87
880.716	15.6
880.884	16.22
881.053	18.65
881.222	20.33
881.39	21.44
881.559	20.92
881.727	20.5
881.896	20.26
882.065	20.3
882.233	20.82
882.402	22.14
882.57	21.88
882.739	21.96
882.907	22.25
883.076	21.39
883.244	20.43
883.412	20.93
883.581	20.69
883.749	20.26
883.918	20.58
884.086	20.92
884.254	20.02
884.423	20.59
884.591	21.35
884.759	21.34
884.927	21.06
885.096	22.46
885.264	22.43
885.432	21.99
885.6	22.42
885.769	21.24
885.937	19.22
886.105	18.8
886.273	15.12
886.441	11.01
886.609	12.87
886.777	11.33
886.945	9.11
887.113	6.75
887.281	6.57
887.449	7.57
887.617	8.26
887.785	10.01
887.953	10.59
888.121	10.66
888.289	11.02
888.457	6.14
888.625	7.37
888.793	12.3
888.961	13.08
889.129	15.99
889.296	16.6
889.464	17.07
889.632	17.68
889.8	16.11
889.967	23.61
890.135	23.84
