Data from 2938804__Reflection_02.txt Node
Date: Thu Mar 12 22:23:08 EDT 2015
User: robert
Spectrometer: USB4E03002
Autoset integration time: false
Trigger mode: 4
Integration Time (sec): 1.000000E-1
Scans to average: 10
Electric dark correction enabled: false
Nonlinearity correction enabled: false
Boxcar width: 5
Stray light correction enabled: false
XAxis mode: Wavelengths
Stop averaging: false
Number of Pixels in Spectrum: 3648
>>>>>Begin Spectral Data<<<<<
177.575	-860.87
177.794	-2506.06
178.014	-1039.53
178.233	-1659.09
178.452	-1112.82
178.672	-1245.67
178.891	18200
179.11	1232.3
179.33	1050.72
179.549	697.16
179.768	1621.67
179.987	792.58
180.207	1290.26
180.426	1328.66
180.645	913.52
180.864	452.88
181.084	417.21
181.303	408.56
181.522	532.28
181.741	442.16
181.96	574.16
182.179	622.64
182.398	976.82
182.618	1770.87
182.837	2246.87
183.056	-8225
183.275	-499.72
183.494	-522.49
183.713	-554.11
183.932	-615.71
184.151	-432.86
184.37	-695.97
184.589	-1080.31
184.808	-1066.67
185.027	1664.71
185.246	950.62
185.465	716.03
185.684	506.29
185.903	569.91
186.122	782.02
186.341	1976.86
186.56	1014.16
186.779	509.79
186.998	591.69
187.216	545.61
187.435	1150.31
187.654	870.48
187.873	724.21
188.092	797.35
188.311	511.41
188.53	651.14
188.748	465.92
188.967	418.37
189.186	667.8
189.405	642.82
189.623	625.74
189.842	670.05
190.061	1123.08
190.28	-4471.74
190.498	-11711.76
190.717	-2605.56
190.936	1946.88
191.154	1565.87
191.373	1004.19
191.592	602.57
191.81	678.75
192.029	595.27
192.248	609.22
192.466	445.83
192.685	455.26
192.904	622.86
193.122	873.4
193.341	880.23
193.559	572.73
193.778	13190.91
193.996	-541.77
194.215	-924.34
194.433	-1157.72
194.652	-1591.18
194.87	-659.16
195.089	-1262.75
195.307	-2402.27
195.526	-39350
195.744	-1865.91
195.963	-1475.72
196.181	-1940
196.399	-3013.33
196.618	-986.97
196.836	-575.24
197.055	-816.88
197.273	-5997.56
197.491	3845.16
197.71	1212.44
197.928	1868.6
198.146	634.38
198.365	493.81
198.583	397.16
198.801	343.42
199.019	261.01
199.238	247.57
199.456	266.05
199.674	310.94
199.892	332.56
200.111	552.37
200.329	504.84
200.547	602.78
200.765	708.2
200.983	1324.79
201.202	4545.71
201.42	2135.29
201.638	2431.08
201.856	458.4
202.074	380.93
202.292	450.59
202.51	370.33
202.728	383.33
202.946	423.45
203.165	362.46
203.383	396.67
203.601	339.46
203.819	407.95
204.037	357.07
204.255	829.69
204.473	1269.03
204.691	592.6
204.909	358.38
205.127	313.01
205.345	258.44
205.562	325.29
205.78	274.29
205.998	290.22
206.216	315.11
206.434	352.95
206.652	303.02
206.87	341.64
207.088	389.77
207.306	318.07
207.523	387.3
207.741	404.95
207.959	322.93
208.177	293.11
208.395	224.62
208.612	192.71
208.83	188.08
209.048	165.81
209.266	150
209.483	152.74
209.701	203.79
209.919	193.08
210.136	224.03
210.354	243.31
210.572	217.43
210.79	229.75
211.007	216.78
211.225	189.65
211.442	213.53
211.66	223.93
211.878	201.56
212.095	197.47
212.313	195.84
212.53	207.36
212.748	167.94
212.966	173.38
213.183	176.75
213.401	174.6
213.618	192.19
213.836	186.44
214.053	190.26
214.271	202.09
214.488	178.99
214.705	186.2
214.923	168.2
215.14	219.77
215.358	226.66
215.575	267.76
215.793	244.75
216.01	223.15
216.227	226.43
216.445	200.71
216.662	213.78
216.879	249.19
217.097	214.43
217.314	176.92
217.531	178.82
217.749	185.15
217.966	176.56
218.183	188.56
218.4	173.71
218.618	170.66
218.835	181.92
219.052	161.03
219.269	159.67
219.487	159.21
219.704	177.21
219.921	164.89
220.138	144.73
220.355	125.59
220.572	122.34
220.79	128.96
221.007	121.41
221.224	114.29
221.441	109.48
221.658	95.64
221.875	92.38
222.092	86.97
222.309	79.94
222.526	78.17
222.743	81.47
222.96	75.38
223.177	71.84
223.394	69.6
223.611	64.16
223.828	64.39
224.045	68.76
224.262	66.56
224.479	65.91
224.696	60.8
224.913	61.52
225.13	58.69
225.347	57.47
225.564	50.32
225.781	48.53
225.997	50.55
226.214	46.55
226.431	40.59
226.648	36.34
226.865	33.74
227.082	32.46
227.298	26.98
227.515	24.16
227.732	21.47
227.949	20.31
228.165	18
228.382	16.18
228.599	15.11
228.816	14.26
229.032	13.56
229.249	13.26
229.466	12.43
229.682	12.38
229.899	12.1
230.116	12.82
230.332	12.96
230.549	13.32
230.765	14.57
230.982	14.64
231.199	15.57
231.415	15.88
231.632	16.61
231.848	16.86
232.065	19.61
232.281	21.86
232.498	20.82
232.714	20.27
232.931	21.25
233.147	20.24
233.364	20.92
233.58	19.89
233.797	20
234.013	19.52
234.23	19.39
234.446	19.19
234.662	19.41
234.879	20.23
235.095	20.16
235.312	21.49
235.528	21.96
235.744	21.87
235.961	21.75
236.177	21.07
236.393	21.31
236.61	21.77
236.826	20.58
237.042	20.3
237.258	19.19
237.475	19.45
237.691	18.83
237.907	19.67
238.123	20.75
238.339	21.71
238.556	22.6
238.772	21.46
238.988	21.82
239.204	21.06
239.42	21.55
239.636	21.13
239.853	20.17
240.069	18.61
240.285	17.08
240.501	15.44
240.717	14.48
240.933	13.55
241.149	13.4
241.365	12.08
241.581	11.42
241.797	10.51
242.013	10.53
242.229	10.6
242.445	10.19
242.661	9.78
242.877	9.42
243.093	9.57
243.309	9.87
243.525	10.03
243.741	10.79
243.957	11.44
244.173	11.52
244.388	11.43
244.604	11.94
244.82	12.6
245.036	12.82
245.252	12.26
245.468	11.19
245.683	10.33
245.899	9.65
246.115	8.88
246.331	8.24
246.547	7.68
246.762	7.44
246.978	6.86
247.194	6.41
247.409	6.22
247.625	6.44
247.841	6.52
248.057	6.72
248.272	6.78
248.488	6.85
248.703	7.04
248.919	7.18
249.135	7.61
249.35	8.57
249.566	9.19
249.782	9.44
249.997	9.92
250.213	10.96
250.428	10.67
250.644	10.92
250.859	11.35
251.075	11.33
251.29	12.51
251.506	12.21
251.721	12.28
251.937	12.11
252.152	12.48
252.368	12.1
252.583	12
252.798	12.05
253.014	12.08
253.229	12.3
253.445	13.17
253.66	12.39
253.875	12.72
254.091	11.84
254.306	12.55
254.521	12.55
254.737	12.57
254.952	11.52
255.167	12.63
255.383	13.24
255.598	13.57
255.813	12.11
256.028	12.58
256.244	11.89
256.459	12.12
256.674	11.4
256.889	10.66
257.104	10.64
257.32	10.78
257.535	10.34
257.75	9.23
257.965	7.79
258.18	7.6
258.395	7.14
258.61	6.69
258.826	6.45
259.041	6.14
259.256	6.17
259.471	5.94
259.686	5.66
259.901	5.49
260.116	5.66
260.331	6.11
260.546	6.17
260.761	6.33
260.976	6.71
261.191	6.76
261.406	6.67
261.621	6.9
261.836	7.01
262.05	7.36
262.265	7.31
262.48	7.58
262.695	7.15
262.91	7.43
263.125	7.12
263.34	6.79
263.555	7.7
263.769	8.61
263.984	8.83
264.199	9.05
264.414	9.5
264.629	9.9
264.843	9.86
265.058	10.59
265.273	10.53
265.488	10.75
265.702	10.43
265.917	10.14
266.132	9.87
266.346	9.44
266.561	9.3
266.776	9.29
266.99	9.07
267.205	8.65
267.42	8.47
267.634	8.73
267.849	8.37
268.063	8.44
268.278	7.84
268.492	7.6
268.707	7.64
268.922	7.76
269.136	7.34
269.351	7.57
269.565	7.14
269.78	6.81
269.994	6.4
270.209	6.5
270.423	6.45
270.637	6.41
270.852	6.29
271.066	6.15
271.281	6.08
271.495	5.87
271.709	5.85
271.924	6.25
272.138	6.15
272.353	5.78
272.567	5.77
272.781	5.67
272.996	5.7
273.21	6.01
273.424	6.07
273.638	6.47
273.853	6.67
274.067	6.31
274.281	6.41
274.495	6.61
274.71	7.07
274.924	6.72
275.138	7.11
275.352	7.07
275.566	6.41
275.781	6.22
275.995	5.94
276.209	6.15
276.423	6.33
276.637	6.41
276.851	6.43
277.065	6.13
277.279	6.46
277.493	6.36
277.707	6.99
277.921	7.48
278.135	7.59
278.349	7.77
278.563	7.77
278.777	8.24
278.991	8.05
279.205	8.19
279.419	8.33
279.633	8.58
279.847	8.35
280.061	7.67
280.275	7.69
280.489	7.93
280.703	7.24
280.917	6.78
281.131	6.56
281.344	6.58
281.558	6.16
281.772	6.54
281.986	6.24
282.2	6.36
282.414	6.47
282.627	6.09
282.841	6.13
283.055	6.28
283.269	6.07
283.482	5.95
283.696	5.45
283.91	5.73
284.123	5.27
284.337	5.18
284.551	5.2
284.764	5.14
284.978	5.27
285.192	4.93
285.405	4.99
285.619	5.4
285.833	5.37
286.046	5.59
286.26	5.56
286.473	5.47
286.687	5.66
286.9	5.48
287.114	5.4
287.327	5.61
287.541	5.85
287.754	5.98
287.968	5.96
288.181	6.15
288.395	6.05
288.608	6.2
288.822	6.19
289.035	5.98
289.248	5.9
289.462	6.05
289.675	6.13
289.889	5.94
290.102	5.63
290.315	5.74
290.529	5.64
290.742	6
290.955	5.57
291.169	5.8
291.382	5.93
291.595	6.04
291.808	6.12
292.022	5.47
292.235	5.73
292.448	5.94
292.661	5.87
292.875	5.73
293.088	5.75
293.301	6
293.514	6.11
293.727	6.33
293.94	6.3
294.153	6
294.367	6.57
294.58	6.57
294.793	6.57
295.006	6.75
295.219	6.78
295.432	6.7
295.645	6.67
295.858	6.53
296.071	6.25
296.284	6.23
296.497	6.34
296.71	6.39
296.923	6.1
297.136	6.18
297.349	5.79
297.562	5.82
297.775	5.73
297.988	5.96
298.201	5.95
298.414	6.17
298.626	6.42
298.839	6.52
299.052	6.33
299.265	6.84
299.478	6.53
299.691	7.11
299.903	7.13
300.116	7.17
300.329	7.06
300.542	7.18
300.755	6.99
300.967	7.25
301.18	7.3
301.393	7.44
301.605	7.06
301.818	7.45
302.031	7.22
302.243	7.56
302.456	7.91
302.669	7.94
302.881	8.15
303.094	8.26
303.307	8.03
303.519	7.86
303.732	7.87
303.944	8.16
304.157	7.95
304.37	8.09
304.582	7.72
304.795	7.59
305.007	7.97
305.22	7.81
305.432	7.84
305.645	7.9
305.857	8.18
306.069	8.32
306.282	8.17
306.494	8.55
306.707	8.99
306.919	9.12
307.132	9.04
307.344	8.77
307.556	9.04
307.769	9.24
307.981	9.04
308.193	9.18
308.406	8.87
308.618	8.89
308.83	8.68
309.043	8.07
309.255	7.95
309.467	7.81
309.679	7.68
309.892	7.44
310.104	7.22
310.316	7.37
310.528	7.54
310.74	7.76
310.953	7.82
311.165	7.84
311.377	8.31
311.589	8.33
311.801	8.33
312.013	8.57
312.225	8.66
312.437	9.02
312.649	9.14
312.862	8.74
313.074	8.7
313.286	8.71
313.498	9.03
313.71	8.49
313.922	8.79
314.134	9.02
314.346	9
314.558	8.97
314.77	9.04
314.982	8.92
315.193	9.03
315.405	9.39
315.617	9.22
315.829	9.4
316.041	9.89
316.253	10.34
316.465	10.65
316.677	10.68
316.888	10.87
317.1	10.64
317.312	10.59
317.524	10.64
317.736	10.86
317.947	11.48
318.159	11.42
318.371	11.41
318.583	10.99
318.794	10.95
319.006	11.04
319.218	11.37
319.43	11.51
319.641	12.01
319.853	12.44
320.064	12.38
320.276	12.52
320.488	12.2
320.699	12.73
320.911	13.19
321.123	13.25
321.334	13.4
321.546	13.32
321.757	13.51
321.969	13.6
322.18	13.58
322.392	14.02
322.603	13.88
322.815	14.34
323.026	13.87
323.238	13.86
323.449	14.19
323.661	14.18
323.872	14.38
324.083	14.56
324.295	14.6
324.506	14.78
324.718	14.41
324.929	14.73
325.14	14.79
325.352	15
325.563	14.7
325.774	14.98
325.986	15.11
326.197	15.27
326.408	15.25
326.62	15.55
326.831	15.79
327.042	16.31
327.253	16.72
327.464	17.02
327.676	17.82
327.887	18.84
328.098	19.08
328.309	19.52
328.52	20.1
328.732	20.66
328.943	21.16
329.154	21.62
329.365	22.08
329.576	21.93
329.787	22.71
329.998	22.62
330.209	22.95
330.42	23.28
330.631	23.84
330.842	24.11
331.053	24.72
331.264	24.97
331.475	25.4
331.686	25.26
331.897	26.08
332.108	26.09
332.319	26.72
332.53	26.75
332.741	27.08
332.952	27.11
333.163	27.32
333.374	27.26
333.585	27.38
333.795	27.27
334.006	27.55
334.217	27.41
334.428	27.6
334.639	27.6
334.849	27.7
335.06	27.66
335.271	27.96
335.482	27.8
335.692	28.05
335.903	28.28
336.114	28.38
336.325	28.38
336.535	28.59
336.746	28.63
336.957	28.67
337.167	28.62
337.378	28.91
337.589	28.83
337.799	28.91
338.01	28.83
338.22	28.49
338.431	28.44
338.642	28.95
338.852	28.51
339.063	28.36
339.273	28.06
339.484	28.16
339.694	27.55
339.905	27.37
340.115	27.16
340.326	27.29
340.536	27.59
340.746	27.8
340.957	27.77
341.167	27.93
341.378	28.02
341.588	28.12
341.799	27.86
342.009	28.18
342.219	28.3
342.43	28.69
342.64	28.44
342.85	28.31
343.061	28.2
343.271	27.95
343.481	27.98
343.691	28.07
343.902	27.97
344.112	28.34
344.322	28.39
344.532	28.55
344.743	28.2
344.953	28.59
345.163	28.57
345.373	28.33
345.583	27.93
345.793	28.01
346.004	27.65
346.214	27.79
346.424	27.33
346.634	27.4
346.844	27.23
347.054	27.44
347.264	27.19
347.474	27.17
347.684	27.26
347.894	27.79
348.104	27.81
348.314	27.89
348.524	27.48
348.734	27.8
348.944	27.75
349.154	27.59
349.364	27.45
349.574	27.3
349.784	27.33
349.994	27.22
350.204	27.05
350.413	27.09
350.623	27.18
350.833	27.49
351.043	27.42
351.253	27.18
351.463	27.04
351.672	26.91
351.882	26.77
352.092	26.62
352.302	26.67
352.511	26.52
352.721	26.12
352.931	26.13
353.141	26.17
353.35	26.12
353.56	25.99
353.77	25.99
353.979	25.75
354.189	25.98
354.399	25.89
354.608	25.89
354.818	26.02
355.027	26.28
355.237	26.08
355.447	25.75
355.656	25.54
355.866	25.46
356.075	25.36
356.285	25.77
356.494	25.49
356.704	25.38
356.913	25.39
357.123	24.88
357.332	24.71
357.542	24.66
357.751	24.79
357.96	24.9
358.17	24.8
358.379	25.13
358.589	25.04
358.798	25
359.007	25.11
359.217	25.05
359.426	25.27
359.635	25.31
359.845	25.33
360.054	25.12
360.263	24.83
360.472	24.96
360.682	24.74
360.891	24.51
361.1	24.64
361.309	24.52
361.519	24.43
361.728	24.5
361.937	24.29
362.146	24.24
362.355	24.19
362.564	24.34
362.774	24.2
362.983	24.19
363.192	24.22
363.401	24.06
363.61	23.95
363.819	23.92
364.028	23.93
364.237	24.18
364.446	24.08
364.655	24.15
364.864	24
365.073	24.1
365.282	24.02
365.491	24.04
365.7	24.08
365.909	24.22
366.118	24.27
366.327	24.25
366.536	24.06
366.745	24.18
366.954	24.18
367.162	24.29
367.371	24.29
367.58	24.39
367.789	24.29
367.998	24.21
368.207	24.29
368.415	24.28
368.624	24.22
368.833	24.17
369.042	24.11
369.25	24.08
369.459	23.85
369.668	23.61
369.877	23.37
370.085	23.45
370.294	23.46
370.503	23.51
370.711	23.58
370.92	23.84
371.129	23.8
371.337	23.82
371.546	23.92
371.754	24.06
371.963	24.21
372.171	24.53
372.38	24.63
372.589	24.63
372.797	24.3
373.006	24.24
373.214	23.96
373.423	24.06
373.631	23.99
373.84	24.06
374.048	24.2
374.256	24.14
374.465	23.88
374.673	23.77
374.882	23.87
375.09	23.87
375.298	23.72
375.507	23.51
375.715	23.69
375.923	23.7
376.132	23.48
376.34	23.23
376.548	23.3
376.757	23.41
376.965	23.4
377.173	23.41
377.381	23.7
377.59	23.75
377.798	23.83
378.006	23.61
378.214	23.38
378.423	23.45
378.631	23.54
378.839	23.47
379.047	23.34
379.255	23.55
379.463	23.3
379.671	23.09
379.879	23.16
380.088	23.45
380.296	23.51
380.504	23.67
380.712	23.71
380.92	23.71
381.128	23.76
381.336	23.85
381.544	23.48
381.752	23.67
381.96	23.67
382.168	23.77
382.376	23.45
382.584	23.35
382.791	23.32
382.999	23.34
383.207	23.28
383.415	23.17
383.623	23.11
383.831	23.16
384.039	23.07
384.247	23.13
384.454	22.96
384.662	23.03
384.87	22.99
385.078	22.87
385.285	22.77
385.493	22.91
385.701	22.89
385.909	23.1
386.116	23.04
386.324	22.8
386.532	22.65
386.739	22.62
386.947	22.67
387.155	22.58
387.362	22.57
387.57	22.63
387.778	22.64
387.985	22.82
388.193	22.69
388.4	22.82
388.608	23.11
388.816	23.21
389.023	23.24
389.231	23.07
389.438	23.07
389.646	23.17
389.853	23.17
390.061	23.01
390.268	22.84
390.475	22.65
390.683	22.55
390.89	22.44
391.098	22.21
391.305	22.14
391.512	22.24
391.72	22.35
391.927	22.38
392.135	22.38
392.342	22.25
392.549	22.37
392.756	22.42
392.964	22.41
393.171	22.48
393.378	22.59
393.586	22.58
393.793	22.46
394	22.3
394.207	22.34
394.414	22.22
394.622	22.51
394.829	22.29
395.036	22.33
395.243	22.32
395.45	22.35
395.657	22.31
395.864	22.32
396.072	22.37
396.279	22.54
396.486	22.42
396.693	22.46
396.9	22.28
397.107	22.4
397.314	22.45
397.521	22.31
397.728	22.18
397.935	22.21
398.142	22.14
398.349	22.16
398.556	22.22
398.763	22.21
398.97	22.08
399.177	22.14
399.383	22.13
399.59	21.9
399.797	22.01
400.004	21.97
400.211	21.91
400.418	22.1
400.625	21.99
400.831	21.78
401.038	21.82
401.245	21.99
401.452	21.9
401.658	21.9
401.865	21.99
402.072	22.18
402.279	22.4
402.485	22.47
402.692	22.38
402.899	22.51
403.105	22.63
403.312	22.71
403.519	22.62
403.725	22.57
403.932	22.55
404.138	22.6
404.345	22.58
404.552	22.39
404.758	22.36
404.965	22.39
405.171	22.25
405.378	22.39
405.584	22.29
405.791	22.33
405.997	22.38
406.204	22.33
406.41	22.41
406.617	22.24
406.823	22.25
407.029	22.28
407.236	22.25
407.442	22.25
407.649	22.07
407.855	21.96
408.061	22.05
408.268	21.99
408.474	22.05
408.68	21.8
408.887	22
409.093	22.11
409.299	22.16
409.505	22.09
409.712	22.18
409.918	22.24
410.124	22.35
410.33	22.4
410.537	22.41
410.743	22.51
410.949	22.81
411.155	22.76
411.361	22.71
411.567	22.69
411.773	22.78
411.98	22.77
412.186	22.63
412.392	22.67
412.598	22.59
412.804	22.73
413.01	22.56
413.216	22.42
413.422	22.5
413.628	22.42
413.834	22.4
414.04	22.44
414.246	22.38
414.452	22.5
414.658	22.39
414.864	22.39
415.07	22.26
415.275	22.36
415.481	22.31
415.687	22.13
415.893	22.24
416.099	22.22
416.305	22.13
416.511	22.31
416.716	22.28
416.922	22.32
417.128	22.16
417.334	22.23
417.539	22.13
417.745	22.07
417.951	22.06
418.157	21.9
418.362	21.86
418.568	21.74
418.774	21.61
418.979	21.52
419.185	21.49
419.391	21.58
419.596	21.55
419.802	21.5
420.008	21.51
420.213	22.01
420.419	22.09
420.624	22.06
420.83	22.17
421.035	22.19
421.241	22.28
421.446	22.35
421.652	22.29
421.857	22.26
422.063	22.25
422.268	22.27
422.474	21.73
422.679	21.68
422.885	21.67
423.09	21.7
423.295	21.54
423.501	21.45
423.706	21.36
423.911	21.4
424.117	21.37
424.322	21.52
424.527	21.52
424.733	21.55
424.938	21.56
425.143	21.62
425.349	21.65
425.554	21.84
425.759	21.92
425.964	22.02
426.169	22.08
426.375	22.2
426.58	22.11
426.785	22.16
426.99	22.39
427.195	22.39
427.4	22.41
427.605	22.36
427.811	22.4
428.016	22.47
428.221	22.41
428.426	22.3
428.631	22.35
428.836	22.33
429.041	22.22
429.246	22.11
429.451	22.18
429.656	22.17
429.861	22.29
430.066	22.27
430.271	22.16
430.476	22.22
430.681	22.35
430.886	22.21
431.09	22.44
431.295	22.55
431.5	22.55
431.705	22.58
431.91	22.5
432.115	22.42
432.32	22.48
432.524	22.46
432.729	22.46
432.934	22.39
433.139	22.37
433.343	22.26
433.548	22.33
433.753	22.25
433.958	22.21
434.162	22.34
434.367	22.37
434.572	22.34
434.776	22.38
434.981	22.41
435.186	22.28
435.39	22.39
435.595	22.44
435.799	22.38
436.004	22.44
436.209	22.45
436.413	22.44
436.618	22.39
436.822	22.19
437.027	22.13
437.231	22.09
437.436	22.13
437.64	22.1
437.845	22.08
438.049	22.06
438.253	22.06
438.458	22.01
438.662	21.99
438.867	21.94
439.071	22.13
439.275	22.2
439.48	22.2
439.684	22.29
439.888	22.26
440.093	22.27
440.297	22.21
440.501	22.25
440.706	22.31
440.91	22.24
441.114	22.24
441.318	22.22
441.523	22.19
441.727	22.14
441.931	22.14
442.135	22.16
442.339	22.15
442.543	22.18
442.748	22.17
442.952	22.14
443.156	22.24
443.36	22.29
443.564	22.35
443.768	22.4
443.972	22.48
444.176	22.46
444.38	22.46
444.584	22.47
444.788	22.48
444.992	22.4
445.196	22.4
445.4	22.36
445.604	22.31
445.808	22.32
446.012	22.23
446.216	22.16
446.42	22.1
446.624	22.07
446.828	22.02
447.032	22.02
447.235	22.08
447.439	22.04
447.643	22.03
447.847	22.05
448.051	21.95
448.254	22.05
448.458	22.11
448.662	22.1
448.866	22.11
449.069	22.22
449.273	22.2
449.477	22.26
449.681	22.36
449.884	22.38
450.088	22.47
450.292	22.49
450.495	22.56
450.699	22.54
450.902	22.62
451.106	22.73
451.31	22.63
451.513	22.61
451.717	22.54
451.92	22.49
452.124	22.53
452.327	22.48
452.531	22.42
452.734	22.31
452.938	22.32
453.141	22.37
453.345	22.31
453.548	22.29
453.752	22.4
453.955	22.46
454.158	22.38
454.362	22.4
454.565	22.36
454.769	22.44
454.972	22.48
455.175	22.49
455.379	22.36
455.582	22.3
455.785	22.4
455.988	22.41
456.192	22.44
456.395	22.53
456.598	22.6
456.801	22.54
457.005	22.57
457.208	22.59
457.411	22.52
457.614	22.57
457.817	22.66
458.021	22.55
458.224	22.48
458.427	22.35
458.63	22.32
458.833	22.21
459.036	22.32
459.239	22.21
459.442	22.2
459.645	22.22
459.848	22.24
460.051	22.24
460.254	22.25
460.457	22.28
460.66	22.3
460.863	22.32
461.066	22.33
461.269	22.38
461.472	22.53
461.675	22.52
461.878	22.63
462.081	22.55
462.284	22.53
462.486	22.63
462.689	22.58
462.892	22.61
463.095	22.56
463.298	22.6
463.5	22.56
463.703	22.52
463.906	22.6
464.109	22.51
464.311	22.58
464.514	22.7
464.717	22.65
464.92	22.69
465.122	22.76
465.325	22.77
465.528	22.79
465.73	22.74
465.933	22.67
466.135	22.62
466.338	22.68
466.541	22.66
466.743	22.57
466.946	22.5
467.148	22.46
467.351	22.45
467.553	22.51
467.756	22.55
467.958	22.48
468.161	22.46
468.363	22.39
468.566	22.44
468.768	22.49
468.971	22.51
469.173	22.48
469.375	22.53
469.578	22.38
469.78	22.3
469.983	22.28
470.185	22.32
470.387	22.43
470.59	22.48
470.792	22.41
470.994	22.4
471.196	22.36
471.399	22.42
471.601	22.36
471.803	22.44
472.005	22.46
472.208	22.38
472.41	22.44
472.612	22.3
472.814	22.39
473.016	22.39
473.218	22.24
473.421	22.2
473.623	22.1
473.825	22.07
474.027	22.16
474.229	22.18
474.431	22.32
474.633	22.32
474.835	22.19
475.037	22.19
475.239	22.13
475.441	22.25
475.643	22.31
475.845	22.31
476.047	22.34
476.249	22.34
476.451	22.26
476.653	22.09
476.855	22
477.057	22.15
477.258	22.06
477.46	22.1
477.662	22.07
477.864	22.04
478.066	22.04
478.268	22.02
478.469	21.95
478.671	22.08
478.873	22.15
479.075	22.24
479.276	22.21
479.478	22.24
479.68	22.22
479.882	22.18
480.083	22.18
480.285	22.24
480.487	22.22
480.688	22.15
480.89	22.06
481.091	21.99
481.293	21.94
481.495	21.87
481.696	21.84
481.898	21.79
482.099	21.83
482.301	21.77
482.502	21.68
482.704	21.64
482.905	21.6
483.107	21.53
483.308	21.5
483.51	21.47
483.711	21.44
483.913	21.41
484.114	21.4
484.315	21.37
484.517	21.37
484.718	21.39
484.92	21.39
485.121	21.41
485.322	21.45
485.524	21.46
485.725	21.44
485.926	21.5
486.127	21.5
486.329	21.5
486.53	21.49
486.731	21.45
486.932	21.44
487.134	21.41
487.335	21.4
487.536	21.42
487.737	21.46
487.938	21.47
488.139	21.49
488.341	21.47
488.542	21.46
488.743	21.47
488.944	21.52
489.145	21.56
489.346	21.63
489.547	21.69
489.748	21.71
489.949	21.75
490.15	21.77
490.351	21.76
490.552	21.8
490.753	21.81
490.954	21.78
491.155	21.81
491.356	21.79
491.557	21.75
491.758	21.76
491.959	21.72
492.159	21.66
492.36	21.64
492.561	21.63
492.762	21.62
492.963	21.66
493.164	21.69
493.364	21.71
493.565	21.76
493.766	21.8
493.967	21.71
494.167	21.7
494.368	21.72
494.569	21.77
494.769	21.82
494.97	21.89
495.171	21.92
495.371	22
495.572	21.99
495.773	21.91
495.973	21.92
496.174	21.99
496.375	22.08
496.575	22.07
496.776	22.08
496.976	22.08
497.177	21.97
497.377	21.94
497.578	21.88
497.778	21.8
497.979	21.81
498.179	21.91
498.38	21.89
498.58	21.82
498.78	21.88
498.981	21.82
499.181	21.85
499.382	21.97
499.582	22.01
499.782	22.08
499.983	22.19
500.183	22.25
500.383	22.12
500.584	22.14
500.784	22.27
500.984	22.23
501.184	22.26
501.385	22.2
501.585	22.16
501.785	22.19
501.985	22.2
502.185	22.18
502.386	22.16
502.586	22.32
502.786	22.37
502.986	22.29
503.186	22.4
503.386	22.4
503.586	22.47
503.786	22.54
503.987	22.45
504.187	22.5
504.387	22.41
504.587	22.45
504.787	22.39
504.987	22.37
505.187	22.42
505.387	22.39
505.587	22.44
505.786	22.5
505.986	22.43
506.186	22.56
506.386	22.5
506.586	22.67
506.786	22.66
506.986	22.68
507.186	22.73
507.386	22.66
507.585	22.59
507.785	22.61
507.985	22.55
508.185	22.54
508.384	22.55
508.584	22.54
508.784	22.52
508.984	22.5
509.183	22.49
509.383	22.5
509.583	22.59
509.782	22.6
509.982	22.61
510.182	22.56
510.381	22.58
510.581	22.55
510.781	22.57
510.98	22.62
511.18	22.59
511.379	22.57
511.579	22.5
511.778	22.42
511.978	22.39
512.177	22.41
512.377	22.48
512.576	22.49
512.776	22.47
512.975	22.56
513.175	22.61
513.374	22.66
513.573	22.72
513.773	22.77
513.972	22.91
514.172	22.98
514.371	23
514.57	23.03
514.77	23.03
514.969	23.02
515.168	22.94
515.367	22.86
515.567	22.86
515.766	22.76
515.965	22.77
516.164	22.72
516.364	22.9
516.563	22.86
516.762	22.86
516.961	22.9
517.16	22.96
517.359	23.01
517.559	23.01
517.758	23.06
517.957	23.13
518.156	23.16
518.355	23.19
518.554	23.1
518.753	23.15
518.952	23.11
519.151	23.17
519.35	23.11
519.549	23.21
519.748	23.2
519.947	23.13
520.146	23.12
520.345	23.15
520.544	23.09
520.743	23.12
520.942	23.12
521.141	23.17
521.339	23.22
521.538	23.32
521.737	23.18
521.936	23.2
522.135	23.25
522.333	23.3
522.532	23.32
522.731	23.35
522.93	23.37
523.129	23.39
523.327	23.38
523.526	23.28
523.725	23.24
523.923	23.21
524.122	23.25
524.321	23.29
524.519	23.23
524.718	23.19
524.917	23.19
525.115	23.14
525.314	23.15
525.512	23.19
525.711	23.13
525.909	23.13
526.108	23.12
526.306	23.07
526.505	23.04
526.703	23.11
526.902	23.09
527.1	23.07
527.299	23.09
527.497	23.05
527.696	23.01
527.894	23.05
528.092	23.04
528.291	23.02
528.489	23.03
528.688	23.04
528.886	23
529.084	22.99
529.283	22.97
529.481	22.96
529.679	22.92
529.877	22.94
530.076	22.93
530.274	22.91
530.472	22.98
530.67	22.99
530.869	22.99
531.067	23.03
531.265	23.06
531.463	23.13
531.661	23.15
531.859	23.25
532.057	23.23
532.255	23.25
532.454	23.28
532.652	23.35
532.85	23.38
533.048	23.43
533.246	23.42
533.444	23.39
533.642	23.39
533.84	23.42
534.038	23.45
534.236	23.48
534.434	23.52
534.632	23.61
534.83	23.56
535.027	23.61
535.225	23.63
535.423	23.66
535.621	23.68
535.819	23.69
536.017	23.65
536.215	23.67
536.412	23.71
536.61	23.68
536.808	23.6
537.006	23.62
537.203	23.63
537.401	23.64
537.599	23.71
537.797	23.8
537.994	23.85
538.192	23.88
538.39	23.85
538.587	23.81
538.785	23.85
538.983	23.93
539.18	23.94
539.378	23.99
539.575	24.01
539.773	24
539.97	23.97
540.168	23.99
540.366	23.98
540.563	24.02
540.761	24.04
540.958	24.05
541.155	23.99
541.353	24.02
541.55	23.98
541.748	23.93
541.945	23.91
542.143	23.98
542.34	23.99
542.537	24.02
542.735	24.05
542.932	24.08
543.129	24.04
543.327	24.13
543.524	24.12
543.721	24.13
543.919	24.23
544.116	24.32
544.313	24.36
544.51	24.41
544.708	24.47
544.905	24.48
545.102	24.59
545.299	24.75
545.496	24.79
545.693	24.83
545.891	24.96
546.088	24.92
546.285	24.89
546.482	24.85
546.679	24.89
546.876	24.86
547.073	24.82
547.27	24.78
547.467	24.76
547.664	24.77
547.861	24.85
548.058	24.76
548.255	24.87
548.452	24.9
548.649	24.96
548.846	25
549.043	25.08
549.24	25.12
549.437	25.2
549.633	25.18
549.83	25.16
550.027	25.06
550.224	25.07
550.421	25.01
550.618	24.97
550.814	24.95
551.011	24.84
551.208	24.73
551.405	24.83
551.601	24.73
551.798	24.73
551.995	24.77
552.191	24.8
552.388	24.85
552.585	24.79
552.781	24.71
552.978	24.74
553.175	24.72
553.371	24.75
553.568	24.74
553.764	24.82
553.961	24.9
554.157	24.87
554.354	24.87
554.55	24.85
554.747	24.85
554.943	24.95
555.14	25.04
555.336	25.14
555.533	25.22
555.729	25.18
555.926	25.19
556.122	25.18
556.318	25.18
556.515	25.13
556.711	25.1
556.907	25.21
557.104	25.33
557.3	25.2
557.496	25.18
557.693	25.2
557.889	25.24
558.085	25.18
558.281	25.25
558.478	25.27
558.674	25.31
558.87	25.39
559.066	25.45
559.262	25.45
559.459	25.48
559.655	25.55
559.851	25.47
560.047	25.54
560.243	25.61
560.439	25.54
560.635	25.55
560.831	25.49
561.027	25.37
561.223	25.34
561.419	25.32
561.615	25.24
561.811	25.18
562.007	25.33
562.203	25.19
562.399	25.09
562.595	25.12
562.791	25.11
562.987	25.21
563.183	25.23
563.379	25.15
563.575	25.06
563.771	25.24
563.966	25.27
564.162	25.22
564.358	25.36
564.554	25.47
564.75	25.4
564.945	25.36
565.141	25.4
565.337	25.51
565.533	25.53
565.728	25.47
565.924	25.4
566.12	25.38
566.315	25.39
566.511	25.2
566.707	25.14
566.902	25.12
567.098	25.22
567.293	25.17
567.489	25.1
567.684	25.17
567.88	25.27
568.076	25.26
568.271	25.22
568.467	25.18
568.662	25.32
568.858	25.44
569.053	25.52
569.248	25.46
569.444	25.55
569.639	25.51
569.835	25.45
570.03	25.5
570.225	25.43
570.421	25.54
570.616	25.54
570.812	25.7
571.007	25.59
571.202	25.64
571.397	25.63
571.593	25.6
571.788	25.65
571.983	25.58
572.178	25.52
572.374	25.57
572.569	25.58
572.764	25.64
572.959	25.48
573.154	25.49
573.35	25.54
573.545	25.63
573.74	25.54
573.935	25.52
574.13	25.61
574.325	25.56
574.52	25.53
574.715	25.36
574.91	25.39
575.105	25.38
575.3	25.36
575.495	25.32
575.69	25.31
575.885	25.44
576.08	25.51
576.275	25.56
576.47	25.69
576.665	25.76
576.86	25.94
577.055	25.99
577.25	26.14
577.444	26.22
577.639	26.11
577.834	26.12
578.029	26.26
578.224	26.31
578.418	26.25
578.613	26.37
578.808	26.36
579.003	26.4
579.197	26.36
579.392	26.17
579.587	26.22
579.781	26.42
579.976	26.33
580.171	26.12
580.365	26.12
580.56	26.32
580.755	26.32
580.949	26.37
581.144	26.35
581.338	26.39
581.533	26.64
581.727	26.56
581.922	26.52
582.116	26.66
582.311	26.7
582.505	26.68
582.7	26.69
582.894	26.65
583.089	26.78
583.283	26.9
583.478	26.99
583.672	26.84
583.866	26.97
584.061	26.93
584.255	26.93
584.449	27.23
584.644	27.17
584.838	27.14
585.032	27.11
585.226	27.01
585.421	26.9
585.615	26.8
585.809	26.79
586.003	26.77
586.198	26.8
586.392	26.81
586.586	26.52
586.78	26.62
586.974	26.56
587.168	26.46
587.363	26.45
587.557	26.49
587.751	26.5
587.945	26.52
588.139	26.66
588.333	26.7
588.527	26.75
588.721	26.82
588.915	26.81
589.109	26.9
589.303	27.03
589.497	27.07
589.691	27.03
589.885	27.02
590.079	27.11
590.273	26.96
590.466	26.87
590.66	26.83
590.854	26.87
591.048	26.93
591.242	26.95
591.436	26.99
591.629	26.99
591.823	27.04
592.017	27.2
592.211	27.18
592.404	27.31
592.598	27.41
592.792	27.43
592.986	27.33
593.179	27.19
593.373	27.01
593.567	27.02
593.76	27.01
593.954	26.89
594.147	26.77
594.341	26.8
594.535	26.62
594.728	26.62
594.922	26.61
595.115	26.75
595.309	26.82
595.502	26.86
595.696	26.86
595.889	26.84
596.083	26.94
596.276	27.02
596.47	27.09
596.663	27.19
596.856	27.14
597.05	27.12
597.243	27.08
597.437	27.2
597.63	27.28
597.823	27.32
598.017	27.42
598.21	27.41
598.403	27.47
598.596	27.34
598.79	27.41
598.983	27.67
599.176	27.69
599.369	27.72
599.563	27.64
599.756	27.78
599.949	27.72
600.142	27.82
600.335	27.83
600.528	27.76
600.722	27.91
600.915	27.9
601.108	27.77
601.301	27.92
601.494	27.88
601.687	27.9
601.88	27.86
602.073	28.05
602.266	27.92
602.459	27.89
602.652	27.82
602.845	27.76
603.038	27.64
603.231	27.74
603.424	27.7
603.617	27.72
603.809	27.74
604.002	27.66
604.195	27.57
604.388	27.63
604.581	27.71
604.774	27.78
604.966	27.73
605.159	27.68
605.352	27.57
605.545	27.53
605.737	27.66
605.93	27.56
606.123	27.64
606.316	27.67
606.508	27.64
606.701	27.71
606.894	27.73
607.086	27.88
607.279	28.14
607.471	28.22
607.664	28.32
607.857	28.31
608.049	28.54
608.242	28.83
608.434	29
608.627	29.2
608.819	29.38
609.012	29.62
609.204	29.9
609.397	30.12
609.589	30.51
609.782	30.86
609.974	31.19
610.166	31.47
610.359	31.75
610.551	31.97
610.743	32.34
610.936	32.6
611.128	32.89
611.32	32.95
611.513	33.05
611.705	33.21
611.897	33.2
612.09	33.2
612.282	32.99
612.474	32.75
612.666	32.64
612.858	32.46
613.051	32.17
613.243	31.88
613.435	31.83
613.627	31.83
613.819	31.34
614.011	31.34
614.203	31.32
614.395	31.52
614.588	31.33
614.78	31.34
614.972	31.19
615.164	31.29
615.356	31.03
615.548	30.88
615.74	30.67
615.932	30.61
616.124	30.16
616.315	29.85
616.507	29.5
616.699	29.58
616.891	29.33
617.083	29.15
617.275	28.88
617.467	29.06
617.659	29.18
617.85	29.28
618.042	29.37
618.234	29.54
618.426	29.58
618.618	29.7
618.809	29.51
619.001	29.46
619.193	29.51
619.384	29.58
619.576	29.59
619.768	29.59
619.959	29.45
620.151	29.45
620.343	29.39
620.534	29.42
620.726	29.38
620.917	29.33
621.109	29.46
621.301	29.46
621.492	29.51
621.684	29.42
621.875	29.27
622.067	29.28
622.258	29.29
622.45	29.5
622.641	29.35
622.832	29.54
623.024	29.73
623.215	29.94
623.407	29.92
623.598	30.01
623.789	29.93
623.981	30.14
624.172	30.1
624.363	30.04
624.555	29.91
624.746	30.1
624.937	29.83
625.129	29.85
625.32	29.62
625.511	29.6
625.702	29.58
625.893	29.71
626.085	29.47
626.276	29.49
626.467	29.51
626.658	29.56
626.849	29.56
627.04	29.75
627.231	29.62
627.422	29.66
627.614	29.69
627.805	29.67
627.996	29.65
628.187	29.76
628.378	29.66
628.569	29.62
628.76	29.67
628.951	29.62
629.142	29.58
629.332	29.64
629.523	29.66
629.714	29.84
629.905	29.96
630.096	30.15
630.287	30.33
630.478	30.38
630.669	30.35
630.859	30.45
631.05	30.43
631.241	30.42
631.432	30.48
631.623	30.45
631.813	30.17
632.004	29.93
632.195	29.87
632.385	29.69
632.576	29.77
632.767	29.76
632.957	29.39
633.148	29.46
633.339	29.34
633.529	29.32
633.72	29.39
633.91	29.38
634.101	29.55
634.292	29.2
634.482	29.14
634.673	29.15
634.863	29.32
635.054	29.53
635.244	29.45
635.435	29.54
635.625	29.42
635.815	29.52
636.006	29.54
636.196	29.45
636.387	29.5
636.577	29.58
636.767	29.66
636.958	29.56
637.148	29.48
637.338	29.61
637.529	29.63
637.719	29.84
637.909	29.7
638.099	29.81
638.29	29.89
638.48	30.11
638.67	30.11
638.86	30.09
639.05	30.28
639.241	30.44
639.431	30.5
639.621	30.45
639.811	30.25
640.001	30.17
640.191	30.07
640.381	30.19
640.571	30.21
640.761	30.39
640.951	30.22
641.141	30.1
641.331	29.95
641.521	29.67
641.711	29.87
641.901	30.08
642.091	30.27
642.281	30.56
642.471	30.38
642.661	30.45
642.851	30.4
643.041	30.68
643.231	30.63
643.42	30.8
643.61	31.22
643.8	31.09
643.99	31
644.18	30.79
644.369	30.71
644.559	30.96
644.749	31.02
644.939	30.77
645.128	30.92
645.318	31.07
645.508	31.13
645.697	30.88
645.887	30.91
646.076	30.91
646.266	31.22
646.456	31.3
646.645	30.83
646.835	30.71
647.024	30.8
647.214	30.71
647.403	30.67
647.593	30.54
647.782	30.45
647.972	30.52
648.161	30.79
648.351	30.75
648.54	30.8
648.73	31.09
648.919	31.06
649.108	31.35
649.298	31.34
649.487	31.33
649.677	31.32
649.866	31.52
650.055	31.46
650.244	31.11
650.434	31.22
650.623	31.06
650.812	31.04
651.002	31.21
651.191	31.03
651.38	30.77
651.569	30.99
651.758	30.83
651.947	30.92
652.137	30.78
652.326	31.02
652.515	30.88
652.704	30.97
652.893	31.11
653.082	30.95
653.271	31.19
653.46	31.25
653.649	31
653.838	31.13
654.027	30.94
654.216	30.87
654.405	30.85
654.594	30.82
654.783	30.96
654.972	30.91
655.161	31.04
655.35	30.54
655.539	30.56
655.728	30.64
655.916	30.86
656.105	30.93
656.294	31.23
656.483	31.33
656.672	31.26
656.86	30.92
657.049	31.11
657.238	31.01
657.427	31.3
657.615	31.22
657.804	31.21
657.993	31.03
658.181	31.01
658.37	30.9
658.559	30.77
658.747	30.76
658.936	30.86
659.125	30.6
659.313	30.6
659.502	30.66
659.69	30.97
659.879	31.08
660.067	31.21
660.256	31.16
660.444	31.2
660.633	31.45
660.821	31.64
661.01	31.96
661.198	32.02
661.387	32.27
661.575	32.08
661.763	31.9
661.952	31.79
662.14	31.7
662.328	31.88
662.517	32.11
662.705	31.64
662.893	31.55
663.082	31.31
663.27	31.52
663.458	31.19
663.646	31.46
663.834	31.75
664.023	31.73
664.211	31.83
664.399	31.93
664.587	31.77
664.775	32.13
664.963	32.23
665.152	32.25
665.34	32.28
665.528	32.38
665.716	32.33
665.904	32.07
666.092	32.35
666.28	32.33
666.468	32.11
666.656	32.14
666.844	32.09
667.032	32.03
667.22	32.03
667.408	32
667.596	32.09
667.784	32.05
667.971	31.99
668.159	31.92
668.347	32.06
668.535	32.13
668.723	32.16
668.911	32.05
669.098	32
669.286	32.1
669.474	32.04
669.662	32.16
669.849	32.16
670.037	32.31
670.225	32.37
670.413	32.57
670.6	32.69
670.788	32.81
670.976	33.04
671.163	33.17
671.351	32.97
671.538	32.9
671.726	32.87
671.913	32.83
672.101	32.62
672.289	32.55
672.476	32.22
672.664	32.27
672.851	32.22
673.039	32.16
673.226	32.23
673.413	32.49
673.601	32.59
673.788	32.5
673.976	32.57
674.163	32.73
674.35	32.65
674.538	32.66
674.725	32.67
674.912	32.65
675.1	32.8
675.287	32.52
675.474	32.1
675.662	31.99
675.849	32.07
676.036	32.14
676.223	32.44
676.411	32.48
676.598	32.6
676.785	32.62
676.972	32.67
677.159	33.01
677.346	33.17
677.533	33.61
677.721	33.88
677.908	33.81
678.095	33.63
678.282	33.21
678.469	33.21
678.656	33.25
678.843	32.97
679.03	32.85
679.217	32.49
679.404	32.42
679.591	32.29
679.778	32.15
679.964	32.11
680.151	31.98
680.338	31.93
680.525	31.67
680.712	31.69
680.899	31.98
681.086	31.99
681.272	31.79
681.459	31.92
681.646	31.96
681.833	31.88
682.02	31.96
682.206	32.22
682.393	32.66
682.58	32.96
682.766	33.03
682.953	32.97
683.14	32.95
683.326	33.2
683.513	32.85
683.7	32.85
683.886	33.04
684.073	32.93
684.259	32.84
684.446	32.64
684.632	32.53
684.819	32.22
685.005	32.39
685.192	32.53
685.378	32.5
685.565	32.9
685.751	32.89
685.938	32.74
686.124	32.86
686.31	33.03
686.497	33.24
686.683	33.42
686.87	33.68
687.056	33.56
687.242	33.78
687.429	33.46
687.615	33.65
687.801	33.84
687.987	33.91
688.174	34.11
688.36	34.43
688.546	34.1
688.732	34.01
688.918	34.09
689.105	34.15
689.291	34.02
689.477	34.42
689.663	34.1
689.849	33.85
690.035	33.91
690.221	33.81
690.407	33.73
690.593	33.9
690.779	33.83
690.965	33.83
691.151	33.69
691.337	33.65
691.523	33.44
691.709	33.75
691.895	34.03
692.081	34.09
692.267	34.13
692.453	34.16
692.639	33.99
692.825	34.46
693.011	34.5
693.196	34.44
693.382	34.72
693.568	35.12
693.754	35.07
693.94	35.22
694.125	34.96
694.311	34.94
694.497	34.74
694.682	34.88
694.868	34.73
695.054	34.45
695.239	34.68
695.425	34.44
695.611	34.57
695.796	34.42
695.982	34.25
696.168	34.8
696.353	34.8
696.539	34.67
696.724	34.66
696.91	34.6
697.095	34.43
697.281	34.34
697.466	34.42
697.652	33.93
697.837	33.73
698.023	33.47
698.208	33.15
698.393	32.87
698.579	32.94
698.764	32.7
698.949	32.61
699.135	32.73
699.32	32.56
699.505	32.59
699.691	32.67
699.876	32.71
700.061	33.13
700.246	33.31
700.432	33.79
700.617	33.62
700.802	33.93
700.987	34.13
701.172	34.4
701.358	34.67
701.543	34.54
701.728	34.54
701.913	34.95
702.098	34.85
702.283	35.13
702.468	35
702.653	35.38
702.838	35.79
703.023	35.61
703.208	35.33
703.393	35.45
703.578	35.55
703.763	35.75
703.948	35.64
704.133	35.64
704.318	35.68
704.503	36.01
704.688	35.84
704.873	35.48
705.057	35.85
705.242	35.83
705.427	36.07
705.612	36.34
705.797	36.45
705.981	36.45
706.166	36.32
706.351	36.1
706.536	36.13
706.72	36.45
706.905	36.55
707.09	36.58
707.274	37.03
707.459	37.04
707.644	37.05
707.828	37.46
708.013	37.58
708.197	37.76
708.382	37.81
708.567	37.63
708.751	37.72
708.936	38.07
709.12	37.84
709.305	37.54
709.489	37.32
709.673	37.16
709.858	37.14
710.042	37.56
710.227	37.49
710.411	37.31
710.596	37.38
710.78	37.16
710.964	36.99
711.149	37.31
711.333	37.21
711.517	37.44
711.702	37.73
711.886	37.7
712.07	37.19
712.254	36.91
712.438	37.01
712.623	37.1
712.807	37.37
712.991	37.47
713.175	37.03
713.359	37.07
713.544	36.57
713.728	36.43
713.912	36.18
714.096	36.16
714.28	36.22
714.464	36.28
714.648	35.79
714.832	35.31
715.016	34.72
715.2	34.96
715.384	34.96
715.568	35.13
715.752	35
715.936	34.82
716.12	34.8
716.304	35.2
716.488	35.21
716.671	35.29
716.855	35.3
717.039	35.91
717.223	35.81
717.407	35.81
717.59	36.29
717.774	36.2
717.958	36.78
718.142	36.9
718.325	36.48
718.509	36.58
718.693	36.74
718.877	37.23
719.06	37.11
719.244	37.05
719.428	36.75
719.611	36.33
719.795	36.47
719.978	36.19
720.162	36.13
720.345	36.71
720.529	36.2
720.713	36.37
720.896	36.38
721.08	36.27
721.263	36.61
721.446	37.47
721.63	37.65
721.813	37.46
721.997	37.45
722.18	37.71
722.364	37.48
722.547	37.66
722.73	37.42
722.914	37.4
723.097	37.37
723.28	37.38
723.464	36.99
723.647	36.99
723.83	36.86
724.013	37.14
724.197	37.15
724.38	37.05
724.563	37.45
724.746	37.81
724.929	37.69
725.112	38.72
725.296	38.92
725.479	39.38
725.662	39.33
725.845	40.21
726.028	39.73
726.211	39.49
726.394	39.33
726.577	38.83
726.76	38.47
726.943	38.2
727.126	37.49
727.309	37.21
727.492	37.19
727.675	37.39
727.858	36.79
728.041	36.76
728.224	36.78
728.407	36.78
728.589	37.06
728.772	36.99
728.955	37.6
729.138	37.37
729.321	36.98
729.503	36.64
729.686	36.68
729.869	36.88
730.052	36.85
730.234	37.06
730.417	37.23
730.6	37.14
730.782	37.27
730.965	37
731.148	37.22
731.33	37.54
731.513	37.55
731.695	37.01
731.878	36.6
732.061	36.55
732.243	36.25
732.426	36.08
732.608	36.06
732.791	36.3
732.973	36.29
733.156	36.14
733.338	36.08
733.52	36.13
733.703	36.33
733.885	36.72
734.068	37.21
734.25	37.62
734.432	38.12
734.615	38.03
734.797	37.88
734.979	37.44
735.162	37.2
735.344	37.4
735.526	37.04
735.708	36.74
735.891	36.56
736.073	36.48
736.255	36.33
736.437	35.81
736.619	36.13
736.802	36.35
736.984	37.1
737.166	37.17
737.348	37.28
737.53	37.76
737.712	38.28
737.894	38.65
738.076	38.97
738.258	38.88
738.44	38.81
738.622	38.56
738.804	38.77
738.986	38.5
739.168	38.25
739.35	37.83
739.532	37.51
739.714	37.5
739.896	37.25
740.078	36.82
740.259	37.34
740.441	37.75
740.623	37.82
740.805	37.68
740.987	37.53
741.168	38.15
741.35	38.59
741.532	38.98
741.714	38.72
741.895	39.17
742.077	39.49
742.259	38.67
742.44	38.93
742.622	38.95
742.804	38.56
742.985	38.37
743.167	38.27
743.348	38.31
743.53	38.85
743.711	38.96
743.893	38.6
744.075	38.8
744.256	39.47
744.438	39.54
744.619	39.69
744.8	39.8
744.982	40.31
745.163	41.04
745.345	41
745.526	40.61
745.707	41.43
745.889	41.83
746.07	41.44
746.252	41
746.433	41.28
746.614	41.94
746.795	41.66
746.977	41.95
747.158	41.58
747.339	40.96
747.52	40.3
747.702	39.66
747.883	38.84
748.064	38.96
748.245	38.88
748.426	38.44
748.607	38.09
748.788	38.65
748.97	38.38
749.151	37.85
749.332	38.06
749.513	38.66
749.694	38.75
749.875	39.23
750.056	39.58
750.237	39.4
750.418	39.67
750.599	39.57
750.78	39.52
750.96	39.71
751.141	40.54
751.322	40.84
751.503	41.1
751.684	41.24
751.865	41.52
752.046	40.73
752.226	41.25
752.407	40.66
752.588	40.84
752.769	41.61
752.949	41.91
753.13	41.93
753.311	42.23
753.492	41.97
753.672	41.11
753.853	41.09
754.034	41.27
754.214	41.03
754.395	41.1
754.575	40.2
754.756	39.52
754.937	39.13
755.117	38.51
755.298	37.6
755.478	37.77
755.659	38.37
755.839	38.53
756.02	38.93
756.2	38.8
756.381	38.73
756.561	38.79
756.741	38.68
756.922	38.58
757.102	38.81
757.283	39.21
757.463	39.01
757.643	38.77
757.823	38.42
758.004	38.15
758.184	38.65
758.364	38.43
758.545	39.2
758.725	39.05
758.905	38.34
759.085	38.07
759.265	38.45
759.446	37.92
759.626	37.99
759.806	37.92
759.986	38.14
760.166	37.74
760.346	38.5
760.526	38.57
760.706	38.85
760.886	39.31
761.066	39.8
761.246	39.51
761.426	40.26
761.606	39.89
761.786	39.44
761.966	39.61
762.146	39.83
762.326	39.36
762.506	38.6
762.686	38.14
762.866	38
763.046	37.79
763.225	37.65
763.405	36.95
763.585	37.22
763.765	37.42
763.945	36.84
764.124	36.51
764.304	36.52
764.484	37.09
764.664	37.48
764.843	37.41
765.023	37.56
765.203	37.19
765.382	37.56
765.562	37.5
765.741	37.45
765.921	37.58
766.101	37.95
766.28	38.36
766.46	38.21
766.639	38.05
766.819	38.75
766.998	39
767.178	39.52
767.357	39.58
767.537	39.63
767.716	39.72
767.896	40.54
768.075	40.65
768.254	40.34
768.434	40.36
768.613	41.01
768.792	40.57
768.972	40.67
769.151	41.06
769.33	41.21
769.51	41.19
769.689	42.01
769.868	41.14
770.047	41.09
770.226	41.04
770.406	41.06
770.585	40.43
770.764	41.16
770.943	40.67
771.122	41.07
771.301	41.09
771.48	41.58
771.66	40.73
771.839	40.88
772.018	40.6
772.197	40.69
772.376	41.77
772.555	41.78
772.734	40.89
772.913	40.99
773.092	40.57
773.271	41
773.449	40.65
773.628	41.39
773.807	41.79
773.986	42.89
774.165	42.62
774.344	41.96
774.523	41.88
774.701	43.45
774.88	43.35
775.059	43.17
775.238	42.59
775.417	42.79
775.595	42.54
775.774	42.34
775.953	41.06
776.131	40.67
776.31	40.45
776.489	40.99
776.667	39.82
776.846	39.87
777.025	39.75
777.203	39.92
777.382	41.33
777.56	41.78
777.739	42.38
777.917	43.08
778.096	43.91
778.274	44.55
778.453	43.8
778.631	43.59
778.81	43.57
778.988	44.16
779.166	44.46
779.345	43.99
779.523	43.85
779.702	43.74
779.88	44.04
780.058	44.11
780.237	43.46
780.415	43.89
780.593	43.87
780.771	44.49
780.95	44.79
781.128	45.37
781.306	44.64
781.484	44.19
781.662	43.78
781.841	42.64
782.019	43.12
782.197	42.95
782.375	43.94
782.553	43.26
782.731	42.48
782.909	42.46
783.087	42.48
783.265	42.95
783.443	43.72
783.621	43.59
783.799	44.11
783.977	43.73
784.155	44.65
784.333	44.89
784.511	45.97
784.689	46.39
784.867	46.35
785.045	45.65
785.223	46.04
785.4	45.47
785.578	46.71
785.756	46.35
785.934	45.3
786.112	44.33
786.289	43.77
786.467	43.97
786.645	44
786.823	43.32
787	42.48
787.178	41.64
787.356	42.01
787.533	40.53
787.711	41.31
787.889	42.41
788.066	42.34
788.244	42.3
788.421	42.27
788.599	42.11
788.776	42.51
788.954	43.52
789.131	43.4
789.309	42.85
789.486	44.56
789.664	44.68
789.841	45.07
790.019	44.59
790.196	44.04
790.373	43.77
790.551	44.95
790.728	44.6
790.906	43.44
791.083	43.92
791.26	44.28
791.437	43.63
791.615	43.21
791.792	41.96
791.969	43.08
792.146	43.51
792.324	44.52
792.501	43.93
792.678	44.64
792.855	46.24
793.032	45.25
793.209	45.07
793.387	43.71
793.564	44.68
793.741	45.17
793.918	45.15
794.095	45.27
794.272	44.72
794.449	44.13
794.626	44.16
794.803	44.08
794.98	45.37
795.157	44.88
795.334	45.99
795.511	45.57
795.688	46.18
795.864	46.17
796.041	44.8
796.218	44.86
796.395	44.48
796.572	44.63
796.749	44.28
796.925	43.84
797.102	44.36
797.279	43.57
797.456	43.69
797.632	42.82
797.809	41.61
797.986	42.38
798.162	41.54
798.339	41.37
798.516	41.51
798.692	42.28
798.869	41.98
799.046	41.73
799.222	43.1
799.399	41.98
799.575	42.42
799.752	43.17
799.928	43.53
800.105	43.77
800.281	44.99
800.458	44.56
800.634	43.8
800.811	43.91
800.987	44.76
801.163	44.17
801.34	45.22
801.516	44.81
801.692	44.62
801.869	44.63
802.045	44.68
802.221	43.74
802.398	43.27
802.574	42.93
802.75	43.98
802.926	44.08
803.103	43.6
803.279	44.12
803.455	44.88
803.631	45.06
803.807	45.48
803.983	45.87
804.16	45.87
804.336	46.42
804.512	46.87
804.688	47.65
804.864	48.29
805.04	48.04
805.216	47.26
805.392	47.11
805.568	47.82
805.744	47.24
805.92	47.13
806.096	47.95
806.272	46.45
806.448	45.66
806.623	44.93
806.799	43.47
806.975	44.91
807.151	45.62
807.327	45.32
807.503	44.63
807.678	45.63
807.854	45.76
808.03	46.17
808.206	46.66
808.381	47.07
808.557	45.92
808.733	47.13
808.908	46.35
809.084	46.43
809.26	47.82
809.435	47.76
809.611	47
809.787	48.03
809.962	47.81
810.138	47.92
810.313	47.58
810.489	48.86
810.664	47.17
810.84	47.84
811.015	47.53
811.191	45.22
811.366	45.86
811.542	46.12
811.717	45.65
811.892	47.06
812.068	47.95
812.243	48.47
812.419	48.54
812.594	48.69
812.769	48.6
812.944	48.98
813.12	50.39
813.295	52.22
813.47	52.23
813.645	52.05
813.821	49.32
813.996	49.2
814.171	49.84
814.346	49.87
814.521	50.27
814.697	49.54
814.872	48.74
815.047	48.26
815.222	45.92
815.397	46.07
815.572	45
815.747	45.25
815.922	45.13
816.097	44.03
816.272	43.36
816.447	44.64
816.622	44.98
816.797	45.65
816.972	46.88
817.147	47.67
817.322	47.18
817.496	48.31
817.671	48.45
817.846	48.55
818.021	49.83
818.196	50
818.371	48.5
818.545	47.89
818.72	46.3
818.895	44.98
819.069	43.84
819.244	43.77
819.419	42.29
819.594	41.61
819.768	40.04
819.943	39.57
820.117	38.17
820.292	37.15
820.467	36.9
820.641	35.92
820.816	35.71
820.99	35.07
821.165	34.35
821.339	33.86
821.514	33.26
821.688	33.34
821.863	32.39
822.037	32.39
822.212	31.99
822.386	31.58
822.56	31.94
822.735	32
822.909	31.95
823.084	31.74
823.258	31.71
823.432	31.84
823.606	32.01
823.781	32.5
823.955	32.76
824.129	33.19
824.303	33.72
824.478	33.59
824.652	33.2
824.826	33.42
825	33.95
825.174	34.59
825.348	34.97
825.523	35.29
825.697	35.38
825.871	35.49
826.045	35.22
826.219	34.71
826.393	34.75
826.567	35.22
826.741	35.09
826.915	35.08
827.089	34.61
827.263	34.72
827.437	34.1
827.611	34.09
827.784	33.71
827.958	34.5
828.132	34.79
828.306	35.28
828.48	35.33
828.654	35.64
828.827	36.05
829.001	36.43
829.175	36.51
829.349	37.53
829.522	38.3
829.696	39.9
829.87	39.76
830.044	41.36
830.217	41.78
830.391	42.44
830.565	43.12
830.738	43.05
830.912	44.48
831.085	45.07
831.259	45.6
831.432	44.72
831.606	43.46
831.779	44.51
831.953	43.05
832.126	42.27
832.3	42.13
832.473	42.34
832.647	41.69
832.82	41.22
832.994	40.45
833.167	39.04
833.34	38.51
833.514	38
833.687	37.76
833.86	37.57
834.034	38.22
834.207	37.39
834.38	36.67
834.553	37.34
834.727	37.2
834.9	37.33
835.073	37.99
835.246	38.95
835.419	38.76
835.593	38.73
835.766	39.22
835.939	38.92
836.112	40.49
836.285	41.19
836.458	41.9
836.631	42.37
836.804	43.41
836.977	44.3
837.15	44.69
837.323	46.34
837.496	47.74
837.669	49.67
837.842	50.61
838.015	52.47
838.188	51.83
838.361	52.08
838.533	52.32
838.706	53.43
838.879	51.09
839.052	53.09
839.225	54.54
839.398	53.4
839.57	52.69
839.743	52.33
839.916	51.23
840.088	53.99
840.261	51.77
840.434	54.17
840.607	53.32
840.779	53.75
840.952	52.85
841.124	52.08
841.297	52.75
841.47	53.48
841.642	53.25
841.815	53.86
841.987	54.1
842.16	55.91
842.332	55.54
842.505	57.74
842.677	60.71
842.85	59.17
843.022	60.03
843.194	62.09
843.367	63.7
843.539	64.92
843.712	64.63
843.884	63.83
844.056	66.61
844.229	68.23
844.401	68
844.573	68.31
844.745	71.26
844.918	72.18
845.09	73.19
845.262	72.02
845.434	74.44
845.606	74.57
845.779	75.01
845.951	76.4
846.123	73.83
846.295	71.1
846.467	71.68
846.639	72.32
846.811	74.83
846.983	74.08
847.155	73.66
847.327	71.41
847.499	73.5
847.671	73.83
847.843	73.03
848.015	74.8
848.187	77.48
848.359	80.93
848.531	80.11
848.703	73.87
848.875	71.94
849.047	73.92
849.218	72.9
849.39	73.39
849.562	74.83
849.734	74.33
849.905	78.28
850.077	78.39
850.249	78.88
850.421	81.44
850.592	84.75
850.764	85.79
850.936	83.9
851.107	88.06
851.279	86.8
851.451	83.92
851.622	84.81
851.794	76.91
851.965	78.61
852.137	77.65
852.308	76.75
852.48	80.47
852.651	83.4
852.823	84
852.994	83.56
853.166	85.98
853.337	89.57
853.509	91.7
853.68	91.03
853.851	88.62
854.023	87.45
854.194	86.9
854.365	83.27
854.537	79.81
854.708	82.47
854.879	83.6
855.05	83.26
855.222	81.29
855.393	79.67
855.564	83.09
855.735	83.85
855.906	82.31
856.078	82.82
856.249	85.67
856.42	86.8
856.591	87.67
856.762	90.52
856.933	87.03
857.104	87.92
857.275	88.81
857.446	89.14
857.617	89.99
857.788	90.28
857.959	90.87
858.13	89.02
858.301	90.49
858.472	89.86
858.643	86.84
858.814	87.5
858.985	87.18
859.155	90.51
859.326	92.85
859.497	95.93
859.668	98.04
859.839	95.19
860.009	96.89
860.18	98.24
860.351	89.29
860.522	92.39
860.692	94.44
860.863	94.59
861.034	91.4
861.204	89.25
861.375	87.98
861.546	83.94
861.716	86.66
861.887	87.07
862.057	83.48
862.228	89.83
862.398	90.46
862.569	90.28
862.739	91.34
862.91	90.78
863.08	89.94
863.251	84.07
863.421	86.62
863.592	83.45
863.762	83.94
863.932	85.43
864.103	80.53
864.273	73.77
864.443	73.62
864.614	76.37
864.784	75.65
864.954	75.37
865.125	80.83
865.295	83.34
865.465	82.4
865.635	79.38
865.805	78.75
865.976	84.62
866.146	85.49
866.316	83.19
866.486	82.38
866.656	81.53
866.826	82.81
866.996	81.95
867.166	80.88
867.336	84.58
867.506	87.91
867.676	88.88
867.846	87
868.016	92.69
868.186	94.16
868.356	89.19
868.526	90.09
868.696	92.15
868.866	93.95
869.036	95.01
869.206	97.2
869.376	94.97
869.545	94.55
869.715	93.31
869.885	89.21
870.055	88.8
870.224	91.01
870.394	91.15
870.564	93.48
870.734	90.74
870.903	86.6
871.073	84
871.243	84.05
871.412	86.46
871.582	84.37
871.751	84.67
871.921	81.34
872.091	84.16
872.26	81.61
872.43	77.74
872.599	77.73
872.769	76.48
872.938	75.36
873.108	75.63
873.277	74.49
873.446	79.92
873.616	82.81
873.785	87.04
873.955	81.32
874.124	80.73
874.293	79.79
874.463	76.93
874.632	82.78
874.801	83.81
874.971	81.88
875.14	78.58
875.309	73.95
875.478	72.37
875.647	74.24
875.817	79.14
875.986	80.54
876.155	80.52
876.324	84.07
876.493	83.69
876.662	84.6
876.831	85.13
877	88.29
877.17	88.1
877.339	84.08
877.508	78.76
877.677	75.68
877.846	75.66
878.015	77.36
878.184	77.26
878.352	73.15
878.521	69.72
878.69	67.12
878.859	66.07
879.028	69.2
879.197	70.52
879.366	70.58
879.534	66.39
879.703	63.58
879.872	60.07
880.041	54.58
880.21	53.49
880.378	52.87
880.547	50.16
880.716	46.32
880.884	43.14
881.053	40.73
881.222	39.08
881.39	38.94
881.559	37.93
881.727	35.89
881.896	35.46
882.065	34.23
882.233	33.04
882.402	32.79
882.57	32.98
882.739	32.68
882.907	32.57
883.076	32.58
883.244	32.04
883.412	32.54
883.581	33.3
883.749	33.42
883.918	33.48
884.086	34.49
884.254	35.56
884.423	35.96
884.591	37.54
884.759	39.6
884.927	40.58
885.096	42.64
885.264	44.09
885.432	47.37
885.6	50.51
885.769	54
885.937	54.72
886.105	58.33
886.273	61.65
886.441	63.28
886.609	64.64
886.777	65.05
886.945	68.25
887.113	67.65
887.281	65.14
887.449	66.99
887.617	68.24
887.785	72.8
887.953	71.97
888.121	72.15
888.289	73.85
888.457	75.48
888.625	77.94
888.793	78.33
888.961	82.1
889.129	84.37
889.296	82.35
889.464	82.65
889.632	81.62
889.8	82.02
889.967	84.6
890.135	80.79
